0.000000 1.151626 3
0.005000 1.044961 0
0.010000 0.776129 0
0.015000 0.429727 0
0.020000 0.095238 0
0.025000 -0.166332 0
0.030000 -0.329183 0
0.035000 -0.394173 4
0.040000 -0.379986 0
0.045000 -0.316355 0
0.050000 -0.235212 0
0.055000 -0.160713 0
0.060000 -0.103850 0
0.065000 -0.064273 0
0.070000 -0.036178 0
0.075000 -0.013471 0
0.080000 0.007939 0
0.085000 0.030106 0
0.090000 0.053793 0
0.095000 0.079134 0
0.100000 0.105980 0
0.105000 0.134045 0
0.110000 0.162952 0
0.115000 0.192247 0
0.120000 0.221413 0
0.125000 0.249884 0
0.130000 0.277060 0
0.135000 0.302329 0
0.140000 0.325088 0
0.145000 0.344768 0
0.150000 0.360854 0
0.155000 0.372910 0
0.160000 0.380598 0
0.165000 0.383691 5
0.170000 0.382087 0
0.175000 0.375813 0
0.180000 0.365020 0
0.185000 0.349983 0
0.190000 0.331087 0
0.195000 0.308806 0
0.200000 0.283690 0
0.205000 0.256336 0
0.210000 0.227369 0
0.215000 0.197416 0
0.220000 0.167082 0
0.225000 0.136936 0
0.230000 0.107489 0
0.235000 0.079186 0
0.240000 0.052393 0
0.245000 0.027398 0
0.250000 0.004406 0
0.255000 -0.016453 0
0.260000 -0.035123 0
0.265000 -0.051608 0
0.270000 -0.065968 0
0.275000 -0.078306 0
0.280000 -0.088755 0
0.285000 -0.097473 0
0.290000 -0.104631 0
0.295000 -0.110402 0
0.300000 -0.114963 0
0.305000 -0.118480 0
0.310000 -0.121109 0
0.315000 -0.122993 0
0.320000 -0.124261 0
0.325000 -0.125026 0
0.330000 -0.125384 0
0.335000 -0.125265 0
0.340000 -0.124248 0
0.345000 -0.123236 0
0.350000 -0.122229 0
0.355000 -0.121227 0
0.360000 -0.120230 0
0.365000 -0.119238 0
0.370000 -0.118251 0
0.375000 -0.117269 0
0.380000 -0.116291 0
0.385000 -0.115318 0
0.390000 -0.114349 0
0.395000 -0.113383 0
0.400000 -0.112418 0
0.405000 -0.111451 0
0.410000 -0.110478 0
0.415000 -0.109488 0
0.420000 -0.108467 0
0.425000 -0.107390 0
0.430000 -0.106218 0
0.435000 -0.104894 0
0.440000 -0.103332 0
0.445000 -0.101410 0
0.450000 -0.098961 0
0.455000 -0.095766 0
0.460000 -0.091544 0
0.465000 -0.085960 0
0.470000 -0.078626 0
0.475000 -0.069129 0
0.480000 -0.057058 0
0.485000 -0.042055 0
0.490000 -0.023872 0
0.495000 -0.002440 0
0.500000 0.022073 0
0.505000 0.049206 0
0.510000 0.078182 0
0.515000 0.107915 0
0.520000 0.137057 0
0.525000 0.164091 0
0.530000 0.187455 0
0.535000 0.205689 0
0.540000 0.217586 0
0.545000 0.222327 1
0.550000 0.219570 0
0.555000 0.209495 0
0.560000 0.192782 0
0.565000 0.170538 0
0.570000 0.144174 0
0.575000 0.115256 0
0.580000 0.085345 0
0.585000 0.055826 0
0.590000 0.027702 0
0.595000 0.001277 0
0.600000 -0.024313 0
0.605000 -0.051568 0
0.610000 -0.084476 0
0.615000 -0.126766 0
0.620000 -0.178244 0
0.625000 -0.230702 0
0.630000 -0.266472 2
0.635000 -0.261416 0
0.640000 -0.190727 0
0.645000 -0.035208 0
0.650000 0.210450 0
0.655000 0.524661 0
0.660000 0.847715 0
0.665000 1.089686 0
0.670000 1.166760 3
0.675000 1.046095 0
0.680000 0.767363 0
0.685000 0.418598 0
0.690000 0.089064 0
0.695000 -0.162842 0
0.700000 -0.314250 0
0.705000 -0.368455 4
0.710000 -0.346172 0
0.715000 -0.278461 0
0.720000 -0.197218 0
0.725000 -0.125192 0
0.730000 -0.071501 0
0.735000 -0.034465 0
0.740000 -0.007849 0
0.745000 0.014259 0
0.750000 0.035591 0
0.755000 0.057916 0
0.760000 0.081838 0
0.765000 0.107413 0
0.770000 0.134453 0
0.775000 0.162643 0
0.780000 0.191580 0
0.785000 0.220787 0
0.790000 0.249724 0
0.795000 0.277805 0
0.800000 0.304417 0
0.805000 0.328936 0
0.810000 0.350757 0
0.815000 0.369315 0
0.820000 0.384109 0
0.825000 0.394725 0
0.830000 0.400852 0
0.835000 0.402301 5
0.840000 0.399010 0
0.845000 0.391050 0
0.850000 0.378619 0
0.855000 0.362037 0
0.860000 0.341730 0
0.865000 0.318212 0
0.870000 0.292062 0
0.875000 0.263901 0
0.880000 0.234366 0
0.885000 0.204088 0
0.890000 0.173671 0
0.895000 0.143668 0
0.900000 0.114572 0
0.905000 0.086800 0
0.910000 0.060690 0
0.915000 0.036496 0
0.920000 0.014391 0
0.925000 -0.005529 0
0.930000 -0.023237 0
0.935000 -0.038767 0
0.940000 -0.052202 0
0.945000 -0.063662 0
0.950000 -0.073297 0
0.955000 -0.081276 0
0.960000 -0.087774 0
0.965000 -0.092971 0
0.970000 -0.097038 0
0.975000 -0.100142 0
0.980000 -0.102433 0
0.985000 -0.104049 0
0.990000 -0.105111 0
0.995000 -0.105723 0
1.000000 -0.105976 0
1.005000 -0.105225 0
1.010000 -0.104308 0
1.015000 -0.103395 0
1.020000 -0.102487 0
1.025000 -0.101584 0
1.030000 -0.100685 0
1.035000 -0.099790 0
1.040000 -0.098900 0
1.045000 -0.098014 0
1.050000 -0.097132 0
1.055000 -0.096254 0
1.060000 -0.095379 0
1.065000 -0.094505 0
1.070000 -0.093630 0
1.075000 -0.092750 0
1.080000 -0.091855 0
1.085000 -0.090933 0
1.090000 -0.089963 0
1.095000 -0.088908 0
1.100000 -0.087715 0
1.105000 -0.086305 0
1.110000 -0.084564 0
1.115000 -0.082333 0
1.120000 -0.079400 0
1.125000 -0.075496 0
1.130000 -0.070288 0
1.135000 -0.063394 0
1.140000 -0.054394 0
1.145000 -0.042868 0
1.150000 -0.028439 0
1.155000 -0.010834 0
1.160000 0.010052 0
1.165000 0.034084 0
1.170000 0.060839 0
1.175000 0.089568 0
1.180000 0.119204 0
1.185000 0.148405 0
1.190000 0.175641 0
1.195000 0.199322 0
1.200000 0.217950 0
1.205000 0.230274 0
1.210000 0.235427 1
1.215000 0.233028 0
1.220000 0.223231 0
1.225000 0.206703 0
1.230000 0.184553 0
1.235000 0.158205 0
1.240000 0.129249 0
1.245000 0.099272 0
1.250000 0.069685 0
1.255000 0.041504 0
1.260000 0.015031 0
1.265000 -0.010635 0
1.270000 -0.038080 0
1.275000 -0.071379 0
1.280000 -0.114240 0
1.285000 -0.166151 0
1.290000 -0.218227 0
1.295000 -0.251962 2
1.300000 -0.242578 0
1.305000 -0.165096 0
1.310000 -0.000869 0
1.315000 0.253482 0
1.320000 0.572311 0
1.325000 0.890570 0
1.330000 1.115257 0
1.335000 1.165691 3
1.340000 1.019257 0
1.345000 0.725115 0
1.350000 0.374169 0
1.355000 0.052637 0
1.360000 -0.186236 0
1.365000 -0.323800 0
1.370000 -0.366143 4
1.375000 -0.335801 0
1.380000 -0.264540 0
1.385000 -0.183515 0
1.390000 -0.113718 0
1.395000 -0.062522 0
1.400000 -0.027273 0
1.405000 -0.001567 0
1.410000 0.020258 0
1.415000 0.041636 0
1.420000 0.064136 0
1.425000 0.088263 0
1.430000 0.114026 0
1.435000 0.141219 0
1.440000 0.169514 0
1.445000 0.198498 0
1.450000 0.227685 0
1.455000 0.256530 0
1.460000 0.284444 0
1.465000 0.310808 0
1.470000 0.335004 0
1.475000 0.356428 0
1.480000 0.374525 0
1.485000 0.388802 0
1.490000 0.398858 0
1.495000 0.404397 0
1.500000 0.405245 5
1.505000 0.401357 0
1.510000 0.392820 0
1.515000 0.379847 0
1.520000 0.362771 0
1.525000 0.342031 0
1.530000 0.318148 0
1.535000 0.291708 0
1.540000 0.263333 0
1.545000 0.233662 0
1.550000 0.203323 0
1.555000 0.172912 0
1.560000 0.142978 0
1.565000 0.114004 0
1.570000 0.086397 0
1.575000 0.060486 0
1.580000 0.036514 0
1.585000 0.014645 0
1.590000 -0.005033 0
1.595000 -0.022502 0
1.600000 -0.037800 0
1.605000 -0.051015 0
1.610000 -0.062273 0
1.615000 -0.071725 0
1.620000 -0.079541 0
1.625000 -0.085897 0
1.630000 -0.090971 0
1.635000 -0.094936 0
1.640000 -0.097955 0
1.645000 -0.100177 0
1.650000 -0.101739 0
1.655000 -0.102758 0
1.660000 -0.103339 0
1.665000 -0.103570 0
1.670000 -0.102826 0
1.675000 -0.101921 0
1.680000 -0.101020 0
1.685000 -0.100124 0
1.690000 -0.099233 0
1.695000 -0.098345 0
1.700000 -0.097463 0
1.705000 -0.096584 0
1.710000 -0.095710 0
1.715000 -0.094839 0
1.720000 -0.093972 0
1.725000 -0.093108 0
1.730000 -0.092245 0
1.735000 -0.091381 0
1.740000 -0.090510 0
1.745000 -0.089624 0
1.750000 -0.088710 0
1.755000 -0.087743 0
1.760000 -0.086687 0
1.765000 -0.085488 0
1.770000 -0.084062 0
1.775000 -0.082290 0
1.780000 -0.080011 0
1.785000 -0.077006 0
1.790000 -0.073001 0
1.795000 -0.067658 0
1.800000 -0.060589 0
1.805000 -0.051376 0
1.810000 -0.039598 0
1.815000 -0.024887 0
1.820000 -0.006983 0
1.825000 0.014198 0
1.830000 0.038498 0
1.835000 0.065463 0
1.840000 0.094316 0
1.845000 0.123962 0
1.850000 0.153038 0
1.855000 0.180004 0
1.860000 0.203276 0
1.865000 0.221370 0
1.870000 0.233068 0
1.875000 0.237542 1
1.880000 0.234461 0
1.885000 0.224023 0
1.890000 0.206939 0
1.895000 0.184350 0
1.900000 0.157700 0
1.905000 0.128585 0
1.910000 0.098581 0
1.915000 0.069072 0
1.920000 0.041029 0
1.925000 0.014672 0
1.930000 -0.011029 0
1.935000 -0.038804 0
1.940000 -0.072798 0
1.945000 -0.116531 0
1.950000 -0.168937 0
1.955000 -0.220331 0
1.960000 -0.251524 2
1.965000 -0.237500 0
1.970000 -0.153570 0
1.975000 0.018061 0
1.980000 0.278992 0
1.985000 0.600671 0
1.990000 0.915065 0
1.995000 1.128459 0
2.000000 1.163343 3
2.005000 1.002796 0
2.010000 0.700706 0
2.015000 0.349271 0
2.020000 0.032803 0
2.025000 -0.198365 0
2.030000 -0.327911 0
2.035000 -0.363488 4
2.040000 -0.328665 0
2.045000 -0.255571 0
2.050000 -0.174867 0
2.055000 -0.106479 0
2.060000 -0.056773 0
2.065000 -0.022559 0
2.070000 0.002635 0
2.075000 0.024314 0
2.080000 0.045733 0
2.085000 0.068346 0
2.090000 0.092599 0
2.095000 0.118479 0
2.100000 0.145766 0
2.105000 0.174124 0
2.110000 0.203133 0
2.115000 0.232303 0
2.120000 0.261082 0
2.125000 0.288878 0
2.130000 0.315073 0
2.135000 0.339045 0
2.140000 0.360198 0
2.145000 0.377976 0
2.150000 0.391896 0
2.155000 0.401563 0
2.160000 0.406694 0
2.165000 0.407123 5
2.170000 0.402817 0
2.175000 0.393873 0
2.180000 0.380518 0
2.185000 0.363094 0
2.190000 0.342046 0
2.195000 0.317904 0
2.200000 0.291258 0
2.205000 0.262733 0
2.210000 0.232967 0
2.215000 0.202588 0
2.220000 0.172189 0
2.225000 0.142313 0
2.230000 0.113435 0
2.235000 0.085959 0
2.240000 0.060204 0
2.245000 0.036408 0
2.250000 0.014725 0
2.255000 -0.004761 0
2.260000 -0.022039 0
2.265000 -0.037152 0
2.270000 -0.050191 0
2.275000 -0.061286 0
2.280000 -0.070589 0
2.285000 -0.078272 0
2.290000 -0.084511 0
2.295000 -0.089484 0
2.300000 -0.093363 0
2.305000 -0.096311 0
2.310000 -0.098475 0
2.315000 -0.099990 0
2.320000 -0.100974 0
2.325000 -0.101527 0
2.330000 -0.101738 0
2.335000 -0.100999 0
2.340000 -0.100103 0
2.345000 -0.099211 0
2.350000 -0.098324 0
2.355000 -0.097441 0
2.360000 -0.096563 0
2.365000 -0.095689 0
2.370000 -0.094820 0
2.375000 -0.093954 0
2.380000 -0.093092 0
2.385000 -0.092234 0
2.390000 -0.091378 0
2.395000 -0.090524 0
2.400000 -0.089667 0
2.405000 -0.088803 0
2.410000 -0.087923 0
2.415000 -0.087013 0
2.420000 -0.086047 0
2.425000 -0.084988 0
2.430000 -0.083778 0
2.435000 -0.082331 0
2.440000 -0.080524 0
2.445000 -0.078190 0
2.450000 -0.075106 0
2.455000 -0.070988 0
2.460000 -0.065496 0
2.465000 -0.058236 0
2.470000 -0.048786 0
2.475000 -0.036731 0
2.480000 -0.021708 0
2.485000 -0.003474 0
2.490000 0.018034 0
2.495000 0.042629 0
2.500000 0.069825 0
2.505000 0.098810 0
2.510000 0.128457 0
2.515000 0.157379 0
2.520000 0.184025 0
2.525000 0.206811 0
2.530000 0.224276 0
2.535000 0.235234 0
2.540000 0.238908 1
2.545000 0.235019 0
2.550000 0.223825 0
2.555000 0.206086 0
2.560000 0.182982 0
2.565000 0.155984 0
2.570000 0.126692 0
2.575000 0.096674 0
2.580000 0.067280 0
2.585000 0.039420 0
2.590000 0.013205 0
2.595000 -0.012563 0
2.600000 -0.040808 0
2.605000 -0.075746 0
2.610000 -0.120616 0
2.615000 -0.173572 0
2.620000 -0.223840 0
2.625000 -0.251323 2
2.630000 -0.230717 0
2.635000 -0.137742 0
2.640000 0.044154 0
2.645000 0.313959 0
2.650000 0.638902 0
2.655000 0.946780 0
2.660000 1.143189 0
2.665000 1.155524 3
2.670000 0.974862 0
2.675000 0.661637 0
2.680000 0.310580 0
2.685000 0.003527 0
2.690000 -0.213582 0
2.695000 -0.328267 0
2.700000 -0.351106 4
2.705000 -0.307868 0
2.710000 -0.231604 0
2.715000 -0.152073 0
2.720000 -0.087031 0
2.725000 -0.040724 0
2.730000 -0.008836 0
2.735000 0.015233 0
2.740000 0.036622 0
2.745000 0.058184 0
2.750000 0.081109 0
2.755000 0.105711 0
2.760000 0.131914 0
2.765000 0.159461 0
2.770000 0.187990 0
2.775000 0.217058 0
2.780000 0.246149 0
2.785000 0.274692 0
2.790000 0.302077 0
2.795000 0.327675 0
2.800000 0.350861 0
2.805000 0.371038 0
2.810000 0.387665 0
2.815000 0.400275 0
2.820000 0.408502 0
2.825000 0.412095 5
2.830000 0.410929 0
2.835000 0.405015 0
2.840000 0.394495 0
2.845000 0.379641 0
2.850000 0.360838 0
2.855000 0.338571 0
2.860000 0.313401 0
2.865000 0.285942 0
2.870000 0.256837 0
2.875000 0.226729 0
2.880000 0.196245 0
2.885000 0.165966 0
2.890000 0.136417 0
2.895000 0.108052 0
2.900000 0.081242 0
2.905000 0.056277 0
2.910000 0.033361 0
2.915000 0.012618 0
2.920000 -0.005901 0
2.925000 -0.022210 0
2.930000 -0.036377 0
2.935000 -0.048515 0
2.940000 -0.058765 0
2.945000 -0.067294 0
2.950000 -0.074278 0
2.955000 -0.079899 0
2.960000 -0.084333 0
2.965000 -0.087750 0
2.970000 -0.090309 0
2.975000 -0.092151 0
2.980000 -0.093405 0
2.985000 -0.094180 0
2.990000 -0.094572 0
2.995000 -0.094522 0
3.000000 -0.093659 0
3.005000 -0.092799 0
3.010000 -0.091944 0
3.015000 -0.091093 0
3.020000 -0.090247 0
3.025000 -0.089404 0
3.030000 -0.088566 0
3.035000 -0.087732 0
3.040000 -0.086901 0
3.045000 -0.086074 0
3.050000 -0.085250 0
3.055000 -0.084427 0
3.060000 -0.083604 0
3.065000 -0.082775 0
3.070000 -0.081934 0
3.075000 -0.081067 0
3.080000 -0.080154 0
3.085000 -0.079161 0
3.090000 -0.078038 0
3.095000 -0.076706 0
3.100000 -0.075054 0
3.105000 -0.072928 0
3.110000 -0.070117 0
3.115000 -0.066354 0
3.120000 -0.061309 0
3.125000 -0.054596 0
3.130000 -0.045792 0
3.135000 -0.034470 0
3.140000 -0.020244 0
3.145000 -0.002831 0
3.150000 0.017885 0
3.155000 0.041778 0
3.160000 0.068429 0
3.165000 0.097089 0
3.170000 0.126682 0
3.175000 0.155850 0
3.180000 0.183046 0
3.185000 0.206659 0
3.190000 0.225172 0
3.195000 0.237321 0
3.200000 0.242239 1
3.205000 0.239553 0
3.210000 0.229436 0
3.215000 0.212585 0
3.220000 0.190138 0
3.225000 0.163555 0
3.230000 0.134448 0
3.235000 0.104419 0
3.240000 0.074876 0
3.245000 0.046806 0
3.250000 0.020429 0
3.255000 -0.005310 0
3.260000 -0.033207 0
3.265000 -0.067477 0
3.270000 -0.111614 0
3.275000 -0.164275 0
3.280000 -0.215212 0
3.285000 -0.244554 2
3.290000 -0.226790 0
3.295000 -0.137128 0
3.300000 0.041667 0
3.305000 0.309357 0
3.310000 0.633739 0
3.315000 0.942385 0
3.320000 1.139734 0
3.325000 1.151977 3
3.330000 0.970657 0
3.335000 0.657413 0
3.340000 0.306329 0
3.345000 -0.001230 0
3.350000 -0.219398 0
3.355000 -0.335493 0
3.360000 -0.359755 4
3.365000 -0.317562 0
3.370000 -0.241684 0
3.375000 -0.161883 0
3.380000 -0.096196 0
3.385000 -0.049217 0
3.390000 -0.016847 0
3.395000 0.007472 0
3.400000 0.028939 0
3.405000 0.050486 0
3.410000 0.073356 0
3.415000 0.097891 0
3.420000 0.124032 0
3.425000 0.151531 0
3.430000 0.180036 0
3.435000 0.209110 0
3.440000 0.238248 0
3.445000 0.266885 0
3.450000 0.294419 0
3.455000 0.320225 0
3.460000 0.343683 0
3.465000 0.364195 0
3.470000 0.381219 0
3.475000 0.394283 0
3.480000 0.403012 0
3.485000 0.407144 5
3.490000 0.406543 0
3.495000 0.401202 0
3.500000 0.391248 0
3.505000 0.376937 0
3.510000 0.358637 0
3.515000 0.336819 0
3.520000 0.312030 0
3.525000 0.284876 0
3.530000 0.255991 0
3.535000 0.226016 0
3.540000 0.195575 0
3.545000 0.165256 0
3.550000 0.135587 0
3.555000 0.107032 0
3.560000 0.079972 0
3.565000 0.054709 0
3.570000 0.031459 0
3.575000 0.010358 0
3.580000 -0.008530 0
3.585000 -0.025210 0
3.590000 -0.039739 0
3.595000 -0.052222 0
3.600000 -0.062796 0
3.605000 -0.071621 0
3.610000 -0.078872 0
3.615000 -0.084726 0
3.620000 -0.089364 0
3.625000 -0.092953 0
3.630000 -0.095655 0
3.635000 -0.097614 0
3.640000 -0.098959 0
3.645000 -0.099805 0
3.650000 -0.100248 0
3.655000 -0.100225 0
3.660000 -0.099333 0
3.665000 -0.098445 0
3.670000 -0.097562 0
3.675000 -0.096683 0
3.680000 -0.095809 0
3.685000 -0.094939 0
3.690000 -0.094073 0
3.695000 -0.093211 0
3.700000 -0.092353 0
3.705000 -0.091500 0
3.710000 -0.090649 0
3.715000 -0.089800 0
3.720000 -0.088951 0
3.725000 -0.088099 0
3.730000 -0.087237 0
3.735000 -0.086354 0
3.740000 -0.085433 0
3.745000 -0.084444 0
3.750000 -0.083342 0
3.755000 -0.082059 0
3.760000 -0.080497 0
3.765000 -0.078515 0
3.770000 -0.075924 0
3.775000 -0.072476 0
3.780000 -0.067863 0
3.785000 -0.061720 0
3.790000 -0.053636 0
3.795000 -0.043183 0
3.800000 -0.029959 0
3.805000 -0.013640 0
3.810000 0.005953 0
3.815000 0.028785 0
3.820000 0.054549 0
3.825000 0.082618 0
3.830000 0.112036 0
3.835000 0.141551 0
3.840000 0.169681 0
3.845000 0.194832 0
3.850000 0.215446 0
3.855000 0.230156 0
3.860000 0.237935 0
3.865000 0.238219 1
3.870000 0.230966 0
3.875000 0.216673 0
3.880000 0.196310 0
3.885000 0.171216 0
3.890000 0.142951 0
3.895000 0.113131 0
3.900000 0.083256 0
3.905000 0.054511 0
3.910000 0.027484 0
3.915000 0.001730 0
3.920000 -0.024767 0
3.925000 -0.055723 0
3.930000 -0.095322 0
3.935000 -0.144894 0
3.940000 -0.198498 0
3.945000 -0.240397 0
3.950000 -0.247037 2
3.955000 -0.192675 0
3.960000 -0.055868 0
3.965000 0.172655 0
3.970000 0.477364 0
3.975000 0.804681 0
3.980000 1.066252 0
3.985000 1.172148 3
3.990000 1.079816 0
3.995000 0.819817 0
4.000000 0.475465 0
4.005000 0.138119 0
4.010000 -0.128441 0
4.015000 -0.296375 0
4.020000 -0.365462 4
4.025000 -0.353936 0
4.030000 -0.291551 0
4.035000 -0.210656 0
4.040000 -0.135978 0
4.045000 -0.078927 0
4.050000 -0.039305 0
4.055000 -0.011281 0
4.060000 0.011306 0
4.065000 0.032594 0
4.070000 0.054651 0
4.075000 0.078243 0
4.080000 0.103497 0
4.085000 0.130260 0
4.090000 0.158240 0
4.095000 0.187054 0
4.100000 0.216239 0
4.105000 0.245273 0
4.110000 0.273579 0
4.115000 0.300552 0
4.120000 0.325572 0
4.125000 0.348032 0
4.130000 0.367358 0
4.135000 0.383036 0
4.140000 0.394632 0
4.145000 0.401814 0
4.150000 0.404363 5
4.155000 0.402188 0
4.160000 0.395327 0
4.165000 0.383948 0
4.170000 0.368342 0
4.175000 0.348908 0
4.180000 0.326136 0
4.185000 0.300589 0
4.190000 0.272875 0
4.195000 0.243628 0
4.200000 0.213478 0
4.205000 0.183035 0
4.210000 0.152863 0
4.215000 0.123472 0
4.220000 0.095296 0
4.225000 0.068693 0
4.230000 0.043939 0
4.235000 0.021229 0
4.240000 0.000678 0
4.245000 -0.017667 0
4.250000 -0.033825 0
4.255000 -0.047865 0
4.260000 -0.059896 0
4.265000 -0.070061 0
4.270000 -0.078522 0
4.275000 -0.085453 0
4.280000 -0.091031 0
4.285000 -0.095432 0
4.290000 -0.098822 0
4.295000 -0.101355 0
4.300000 -0.103173 0
4.305000 -0.104402 0
4.310000 -0.105150 0
4.315000 -0.105513 0
4.320000 -0.105429 0
4.325000 -0.104511 0
4.330000 -0.103597 0
4.335000 -0.102688 0
4.340000 -0.101784 0
4.345000 -0.100884 0
4.350000 -0.099989 0
4.355000 -0.099097 0
4.360000 -0.098211 0
4.365000 -0.097328 0
4.370000 -0.096449 0
4.375000 -0.095574 0
4.380000 -0.094700 0
4.385000 -0.093827 0
4.390000 -0.092949 0
4.395000 -0.092062 0
4.400000 -0.091153 0
4.405000 -0.090205 0
4.410000 -0.089187 0
4.415000 -0.088055 0
4.420000 -0.086741 0
4.425000 -0.085144 0
4.430000 -0.083126 0
4.435000 -0.080497 0
4.440000 -0.077013 0
4.445000 -0.072366 0
4.450000 -0.066195 0
4.455000 -0.058094 0
4.460000 -0.047641 0
4.465000 -0.034436 0
4.470000 -0.018159 0
4.475000 0.001372 0
4.480000 0.024128 0
4.485000 0.049813 0
4.490000 0.077821 0
4.495000 0.107220 0
4.500000 0.136782 0
4.505000 0.165052 0
4.510000 0.190458 0
4.515000 0.211451 0
4.520000 0.226661 0
4.525000 0.235044 0
4.530000 0.235999 1
4.535000 0.229443 0
4.540000 0.215815 0
4.545000 0.196036 0
4.550000 0.171399 0
4.555000 0.143429 0
4.560000 0.113728 0
4.565000 0.083801 0
4.570000 0.054873 0
4.575000 0.027625 0
4.580000 0.001790 0
4.585000 -0.024378 0
4.590000 -0.054337 0
4.595000 -0.092318 0
4.600000 -0.140387 0
4.605000 -0.194128 0
4.610000 -0.239629 0
4.615000 -0.254618 2
4.620000 -0.213548 0
4.625000 -0.093908 0
4.630000 0.116615 0
4.635000 0.408763 0
4.640000 0.737832 0
4.645000 1.021927 0
4.650000 1.168341 3
4.655000 1.120440 0
4.660000 0.891558 0
4.665000 0.557311 0
4.670000 0.211885 0
4.675000 -0.072895 0
4.680000 -0.261813 0
4.685000 -0.349802 0
4.690000 -0.352078 4
4.695000 -0.296950 0
4.700000 -0.217352 0
4.705000 -0.140305 0
4.710000 -0.079865 0
4.715000 -0.037557 0
4.720000 -0.008050 0
4.725000 0.015061 0
4.730000 0.036338 0
4.735000 0.058161 0
4.740000 0.081460 0
4.745000 0.106432 0
4.750000 0.132955 0
4.755000 0.160750 0
4.760000 0.189441 0
4.765000 0.218574 0
4.770000 0.247628 0
4.775000 0.276030 0
4.780000 0.303170 0
4.785000 0.328426 0
4.790000 0.351181 0
4.795000 0.370853 0
4.800000 0.386916 0
4.805000 0.398921 0
4.810000 0.406523 0
4.815000 0.409489 5
4.820000 0.407715 0
4.825000 0.401227 0
4.830000 0.390184 0
4.835000 0.374869 0
4.840000 0.355676 0
4.845000 0.333094 0
4.850000 0.307684 0
4.855000 0.280059 0
4.860000 0.250856 0
4.865000 0.220711 0
4.870000 0.190240 0
4.875000 0.160016 0
4.880000 0.130553 0
4.885000 0.102295 0
4.890000 0.075605 0
4.895000 0.050764 0
4.900000 0.027970 0
4.905000 0.007343 0
4.910000 -0.011072 0
4.915000 -0.027289 0
4.920000 -0.041378 0
4.925000 -0.053450 0
4.930000 -0.063648 0
4.935000 -0.072136 0
4.940000 -0.079088 0
4.945000 -0.084683 0
4.950000 -0.089099 0
4.955000 -0.092502 0
4.960000 -0.095048 0
4.965000 -0.096880 0
4.970000 -0.098123 0
4.975000 -0.098888 0
4.980000 -0.099268 0
4.985000 -0.099205 0
4.990000 -0.098318 0
4.995000 -0.097435 0
5.000000 -0.096557 0
5.005000 -0.095683 0
5.010000 -0.094814 0
5.015000 -0.093949 0
5.020000 -0.093088 0
5.025000 -0.092231 0
5.030000 -0.091378 0
5.035000 -0.090529 0
5.040000 -0.089682 0
5.045000 -0.088838 0
5.050000 -0.087993 0
5.055000 -0.087144 0
5.060000 -0.086283 0
5.065000 -0.085399 0
5.070000 -0.084473 0
5.075000 -0.083473 0
5.080000 -0.082351 0
5.085000 -0.081035 0
5.090000 -0.079419 0
5.095000 -0.077359 0
5.100000 -0.074654 0
5.105000 -0.071051 0
5.110000 -0.066231 0
5.115000 -0.059823 0
5.120000 -0.051411 0
5.125000 -0.040572 0
5.130000 -0.026912 0
5.135000 -0.010124 0
5.140000 0.009943 0
5.145000 0.033218 0
5.150000 0.059350 0
5.155000 0.087668 0
5.160000 0.117177 0
5.165000 0.146588 0
5.170000 0.174402 0
5.175000 0.199027 0
5.180000 0.218924 0
5.185000 0.232769 0
5.190000 0.239592 1
5.195000 0.238895 0
5.200000 0.230709 0
5.205000 0.215589 0
5.210000 0.194558 0
5.215000 0.168986 0
5.220000 0.140444 0
5.225000 0.110538 0
5.230000 0.080738 0
5.235000 0.052172 0
5.240000 0.025333 0
5.245000 -0.000374 0
5.250000 -0.027160 0
5.255000 -0.058876 0
5.260000 -0.099582 0
5.265000 -0.150034 0
5.270000 -0.203322 0
5.275000 -0.242766 0
5.280000 -0.244362 2
5.285000 -0.182586 0
5.290000 -0.036865 0
5.295000 0.200258 0
5.300000 0.510100 0
5.305000 0.835367 0
5.310000 1.085955 0
5.315000 1.174537 3
5.320000 1.065100 0
5.325000 0.794473 0
5.330000 0.447567 0
5.335000 0.113594 0
5.340000 -0.146947 0
5.345000 -0.308673 0
5.350000 -0.372701 4
5.355000 -0.357875 0
5.360000 -0.293988 0
5.365000 -0.212916 0
5.370000 -0.138674 0
5.375000 -0.082106 0
5.380000 -0.042779 0
5.385000 -0.014865 0
5.390000 0.007710 0
5.395000 0.029016 0
5.400000 0.051089 0
5.405000 0.074685 0
5.410000 0.099935 0
5.415000 0.126688 0
5.420000 0.154658 0
5.425000 0.183467 0
5.430000 0.212662 0
5.435000 0.241724 0
5.440000 0.270089 0
5.445000 0.297157 0
5.450000 0.322316 0
5.455000 0.344964 0
5.460000 0.364532 0
5.465000 0.380505 0
5.470000 0.392450 0
5.475000 0.400027 0
5.480000 0.403011 5
5.485000 0.401301 0
5.490000 0.394922 0
5.495000 0.384027 0
5.500000 0.368890 0
5.505000 0.349897 0
5.510000 0.327521 0
5.515000 0.302311 0
5.520000 0.274864 0
5.525000 0.245806 0
5.530000 0.215761 0
5.535000 0.185336 0
5.540000 0.155099 0
5.545000 0.125560 0
5.550000 0.097164 0
5.555000 0.070277 0
5.560000 0.045187 0
5.565000 0.022100 0
5.570000 0.001145 0
5.575000 -0.017621 0
5.580000 -0.034203 0
5.585000 -0.048660 0
5.590000 -0.061094 0
5.595000 -0.071639 0
5.600000 -0.080452 0
5.605000 -0.087703 0
5.610000 -0.093567 0
5.615000 -0.098220 0
5.620000 -0.101827 0
5.625000 -0.104545 0
5.630000 -0.106517 0
5.635000 -0.107872 0
5.640000 -0.108722 0
5.645000 -0.109165 0
5.650000 -0.109129 0
5.655000 -0.108193 0
5.660000 -0.107261 0
5.665000 -0.106333 0
5.670000 -0.105411 0
5.675000 -0.104493 0
5.680000 -0.103579 0
5.685000 -0.102670 0
5.690000 -0.101766 0
5.695000 -0.100866 0
5.700000 -0.099969 0
5.705000 -0.099077 0
5.710000 -0.098187 0
5.715000 -0.097298 0
5.720000 -0.096407 0
5.725000 -0.095508 0
5.730000 -0.094594 0
5.735000 -0.093647 0
5.740000 -0.092645 0
5.745000 -0.091550 0
5.750000 -0.090302 0
5.755000 -0.088818 0
5.760000 -0.086976 0
5.765000 -0.084610 0
5.770000 -0.081502 0
5.775000 -0.077373 0
5.780000 -0.071889 0
5.785000 -0.064663 0
5.790000 -0.055282 0
5.795000 -0.043336 0
5.800000 -0.028464 0
5.805000 -0.010416 0
5.810000 0.010880 0
5.815000 0.035263 0
5.820000 0.062278 0
5.825000 0.091156 0
5.830000 0.120818 0
5.835000 0.149922 0
5.840000 0.176955 0
5.845000 0.200354 0
5.850000 0.218656 0
5.855000 0.230650 0
5.860000 0.235505 1
5.865000 0.232866 0
5.870000 0.222902 0
5.875000 0.206280 0
5.880000 0.184097 0
5.885000 0.157756 0
5.890000 0.128820 0
5.895000 0.098853 0
5.900000 0.069245 0
5.905000 0.041011 0
5.910000 0.014481 0
5.915000 -0.011168 0
5.920000 -0.038388 0
5.925000 -0.071133 0
5.930000 -0.113183 0
5.935000 -0.164522 0
5.940000 -0.217223 0
5.945000 -0.253894 2
5.950000 -0.250528 0
5.955000 -0.182266 0
5.960000 -0.029645 0
5.965000 0.213250 0
5.970000 0.525920 0
5.975000 0.849945 0
5.980000 1.096004 0
5.985000 1.179371 3
5.990000 1.066319 0
5.995000 0.794079 0
6.000000 0.446935 0
6.005000 0.112944 0
6.010000 -0.148143 0
6.015000 -0.311087 0
6.020000 -0.376752 4
6.025000 -0.363496 0
6.030000 -0.300588 0
6.035000 -0.219619 0
6.040000 -0.144739 0
6.045000 -0.087226 0
6.050000 -0.047062 0
6.055000 -0.018627 0
6.060000 0.004164 0
6.065000 0.025482 0
6.070000 0.047462 0
6.075000 0.070924 0
6.080000 0.096031 0
6.085000 0.122654 0
6.090000 0.150518 0
6.095000 0.179260 0
6.100000 0.208439 0
6.105000 0.237551 0
6.110000 0.266042 0
6.115000 0.293324 0
6.120000 0.318793 0
6.125000 0.341851 0
6.130000 0.361929 0
6.135000 0.378511 0
6.140000 0.391152 0
6.145000 0.399503 0
6.150000 0.403320 5
6.155000 0.402480 0
6.160000 0.396985 0
6.165000 0.386964 0
6.170000 0.372664 0
6.175000 0.354443 0
6.180000 0.332754 0
6.185000 0.308125 0
6.190000 0.281137 0
6.195000 0.252402 0
6.200000 0.222541 0
6.205000 0.192159 0
6.210000 0.161827 0
6.215000 0.132066 0
6.220000 0.103333 0
6.225000 0.076010 0
6.230000 0.050404 0
6.235000 0.026739 0
6.240000 0.005164 0
6.245000 -0.014245 0
6.250000 -0.031475 0
6.255000 -0.046569 0
6.260000 -0.059617 0
6.265000 -0.070742 0
6.270000 -0.080092 0
6.275000 -0.087834 0
6.280000 -0.094139 0
6.285000 -0.099179 0
6.290000 -0.103124 0
6.295000 -0.106132 0
6.300000 -0.108348 0
6.305000 -0.109906 0
6.310000 -0.110922 0
6.315000 -0.111498 0
6.320000 -0.111721 0
6.325000 -0.110941 0
6.330000 -0.109996 0
6.335000 -0.109055 0
6.340000 -0.108119 0
6.345000 -0.107187 0
6.350000 -0.106260 0
6.355000 -0.105338 0
6.360000 -0.104420 0
6.365000 -0.103507 0
6.370000 -0.102598 0
6.375000 -0.101693 0
6.380000 -0.100790 0
6.385000 -0.099890 0
6.390000 -0.098990 0
6.395000 -0.098085 0
6.400000 -0.097169 0
6.405000 -0.096230 0
6.410000 -0.095250 0
6.415000 -0.094197 0
6.420000 -0.093026 0
6.425000 -0.091667 0
6.430000 -0.090021 0
6.435000 -0.087948 0
6.440000 -0.085260 0
6.445000 -0.081716 0
6.450000 -0.077014 0
6.455000 -0.070799 0
6.460000 -0.062675 0
6.465000 -0.052230 0
6.470000 -0.039072 0
6.475000 -0.022887 0
6.480000 -0.003491 0
6.485000 0.019100 0
6.490000 0.044612 0
6.495000 0.072475 0
6.500000 0.101806 0
6.505000 0.131429 0
6.510000 0.159943 0
6.515000 0.185818 0
6.520000 0.207530 0
6.525000 0.223708 0
6.530000 0.233275 0
6.535000 0.235566 1
6.540000 0.230409 0
6.545000 0.218141 0
6.550000 0.199572 0
6.555000 0.175899 0
6.560000 0.148576 0
6.565000 0.119164 0
6.570000 0.089174 0
6.575000 0.059892 0
6.580000 0.032161 0
6.585000 0.006033 0
6.590000 -0.019721 0
6.595000 -0.047991 0
6.600000 -0.082887 0
6.605000 -0.127571 0
6.610000 -0.180367 0
6.615000 -0.231085 0
6.620000 -0.260520 2
6.625000 -0.244196 0
6.630000 -0.158230 0
6.635000 0.014437 0
6.640000 0.275163 0
6.645000 0.596337 0
6.650000 0.912405 0
6.655000 1.132393 0
6.660000 1.179025 3
6.665000 1.031188 0
6.670000 0.736859 0
6.675000 0.385873 0
6.680000 0.063520 0
6.685000 -0.177195 0
6.690000 -0.317325 0
6.695000 -0.362402 4
6.700000 -0.334272 0
6.705000 -0.264125 0
6.710000 -0.182987 0
6.715000 -0.112244 0
6.720000 -0.059896 0
6.725000 -0.023757 0
6.730000 0.002422 0
6.735000 0.024377 0
6.740000 0.045679 0
6.745000 0.068007 0
6.750000 0.091929 0
6.755000 0.117490 0
6.760000 0.144501 0
6.765000 0.172649 0
6.770000 0.201536 0
6.775000 0.230693 0
6.780000 0.259586 0
6.785000 0.287639 0
6.790000 0.314246 0
6.795000 0.338794 0
6.800000 0.360684 0
6.805000 0.379356 0
6.810000 0.394314 0
6.815000 0.405143 0
6.820000 0.411531 0
6.825000 0.413282 5
6.830000 0.410326 0
6.835000 0.402722 0
6.840000 0.390655 0
6.845000 0.374431 0
6.850000 0.354458 0
6.855000 0.331235 0
6.860000 0.305328 0
6.865000 0.277344 0
6.870000 0.247913 0
6.875000 0.217658 0
6.880000 0.187180 0
6.885000 0.157033 0
6.890000 0.127714 0
6.895000 0.099647 0
6.900000 0.073178 0
6.905000 0.048574 0
6.910000 0.026019 0
6.915000 0.005621 0
6.920000 -0.012579 0
6.925000 -0.028604 0
6.930000 -0.042526 0
6.935000 -0.054456 0
6.940000 -0.064538 0
6.945000 -0.072933 0
6.950000 -0.079814 0
6.955000 -0.085357 0
6.960000 -0.089736 0
6.965000 -0.093114 0
6.970000 -0.095646 0
6.975000 -0.097471 0
6.980000 -0.098712 0
6.985000 -0.099478 0
6.990000 -0.099861 0
6.995000 -0.099801 0
7.000000 -0.098911 0
7.005000 -0.098025 0
7.010000 -0.097144 0
7.015000 -0.096267 0
7.020000 -0.095395 0
7.025000 -0.094527 0
7.030000 -0.093663 0
7.035000 -0.092803 0
7.040000 -0.091948 0
7.045000 -0.091096 0
7.050000 -0.090247 0
7.055000 -0.089400 0
7.060000 -0.088553 0
7.065000 -0.087703 0
7.070000 -0.086842 0
7.075000 -0.085961 0
7.080000 -0.085041 0
7.085000 -0.084055 0
7.090000 -0.082958 0
7.095000 -0.081684 0
7.100000 -0.080137 0
7.105000 -0.078181 0
7.110000 -0.075634 0
7.115000 -0.072255 0
7.120000 -0.067748 0
7.125000 -0.061757 0
7.130000 -0.053882 0
7.135000 -0.043705 0
7.140000 -0.030827 0
7.145000 -0.014916 0
7.150000 0.004223 0
7.155000 0.026590 0
7.160000 0.051924 0
7.165000 0.079661 0
7.170000 0.108917 0
7.175000 0.138509 0
7.180000 0.167019 0
7.185000 0.192895 0
7.190000 0.214589 0
7.195000 0.230707 0
7.200000 0.240156 0
7.205000 0.242270 1
7.210000 0.236880 0
7.215000 0.224342 0
7.220000 0.205496 0
7.225000 0.181570 0
7.230000 0.154049 0
7.235000 0.124519 0
7.240000 0.094504 0
7.245000 0.065286 0
7.250000 0.037671 0
7.255000 0.011615 0
7.260000 -0.014280 0
7.265000 -0.043122 0
7.270000 -0.079120 0
7.275000 -0.125120 0
7.280000 -0.178483 0
7.285000 -0.227555 0
7.290000 -0.251767 2
7.295000 -0.225971 0
7.300000 -0.126578 0
7.305000 0.061834 0
7.310000 0.336556 0
7.315000 0.662838 0
7.320000 0.967402 0
7.325000 1.156928 0
7.330000 1.161771 3
7.335000 0.976727 0
7.340000 0.663231 0
7.345000 0.311876 0
7.350000 0.001446 0
7.355000 -0.222626 0
7.360000 -0.346608 0
7.365000 -0.378942 4
7.370000 -0.342885 0
7.375000 -0.269604 0
7.380000 -0.188744 0
7.385000 -0.119751 0
7.390000 -0.069126 0
7.395000 -0.034059 0
7.400000 -0.008324 0
7.405000 0.013559 0
7.410000 0.034946 0
7.415000 0.057398 0
7.420000 0.081437 0
7.425000 0.107092 0
7.430000 0.134175 0
7.435000 0.162379 0
7.440000 0.191314 0
7.445000 0.220519 0
7.450000 0.249474 0
7.455000 0.277616 0
7.460000 0.304350 0
7.465000 0.329077 0
7.470000 0.351209 0
7.475000 0.370195 0
7.480000 0.385543 0
7.485000 0.396838 0
7.490000 0.403765 0
7.495000 0.406119 5
7.500000 0.403816 0
7.505000 0.396898 0
7.510000 0.385528 0
7.515000 0.369990 0
7.520000 0.350669 0
7.525000 0.328039 0
7.530000 0.302644 0
7.535000 0.275073 0
7.540000 0.245940 0
7.545000 0.215860 0
7.550000 0.185426 0
7.555000 0.155196 0
7.560000 0.125668 0
7.565000 0.097279 0
7.570000 0.070387 0
7.575000 0.045276 0
7.580000 0.022148 0
7.585000 0.001132 0
7.590000 -0.017715 0
7.595000 -0.034395 0
7.600000 -0.048964 0
7.605000 -0.061520 0
7.610000 -0.072193 0
7.615000 -0.081137 0
7.620000 -0.088517 0
7.625000 -0.094507 0
7.630000 -0.099276 0
7.635000 -0.102991 0
7.640000 -0.105807 0
7.645000 -0.107866 0
7.650000 -0.109295 0
7.655000 -0.110209 0
7.660000 -0.110704 0
7.665000 -0.110864 0
7.670000 -0.110079 0
7.675000 -0.109138 0
7.680000 -0.108201 0
7.685000 -0.107269 0
7.690000 -0.106342 0
7.695000 -0.105419 0
7.700000 -0.104501 0
7.705000 -0.103588 0
7.710000 -0.102678 0
7.715000 -0.101773 0
7.720000 -0.100872 0
7.725000 -0.099974 0
7.730000 -0.099077 0
7.735000 -0.098179 0
7.740000 -0.097276 0
7.745000 -0.096361 0
7.750000 -0.095420 0
7.755000 -0.094433 0
7.760000 -0.093367 0
7.765000 -0.092174 0
7.770000 -0.090780 0
7.775000 -0.089081 0
7.780000 -0.086929 0
7.785000 -0.084132 0
7.790000 -0.080439 0
7.795000 -0.075542 0
7.800000 -0.069082 0
7.805000 -0.060660 0
7.810000 -0.049866 0
7.815000 -0.036320 0
7.820000 -0.019720 0
7.825000 0.000092 0
7.830000 0.023069 0
7.835000 0.048906 0
7.840000 0.076995 0
7.845000 0.106421 0
7.850000 0.135986 0
7.855000 0.164273 0
7.860000 0.189757 0
7.865000 0.210931 0
7.870000 0.226454 0
7.875000 0.235296 0
7.880000 0.236842 1
7.885000 0.230971 0
7.890000 0.218065 0
7.895000 0.198972 0
7.900000 0.174911 0
7.905000 0.147343 0
7.910000 0.117822 0
7.915000 0.087840 0
7.920000 0.058650 0
7.925000 0.031044 0
7.930000 0.004998 0
7.935000 -0.020820 0
7.940000 -0.049395 0
7.945000 -0.084844 0
7.950000 -0.130136 0
7.955000 -0.183185 0
7.960000 -0.233313 0
7.965000 -0.261007 2
7.970000 -0.241804 0
7.975000 -0.152133 0
7.980000 0.024485 0
7.985000 0.288450 0
7.990000 0.610867 0
7.995000 0.925169 0
8.000000 1.140558 0
8.005000 1.181390 3
8.010000 1.028861 0
8.015000 0.732354 0
8.020000 0.381185 0
8.025000 0.059439 0
8.030000 -0.180796 0
8.035000 -0.320934 0
8.040000 -0.366453 4
8.045000 -0.338914 0
8.050000 -0.269145 0
8.055000 -0.187946 0
8.060000 -0.116754 0
8.065000 -0.063810 0
8.070000 -0.027171 0
8.075000 -0.000695 0
8.080000 0.021369 0
8.085000 0.042659 0
8.090000 0.064915 0
8.095000 0.088741 0
8.100000 0.114202 0
8.105000 0.141123 0
8.110000 0.169202 0
8.115000 0.198050 0
8.120000 0.227208 0
8.125000 0.256154 0
8.130000 0.284321 0
8.135000 0.311110 0
8.140000 0.335914 0
8.145000 0.358139 0
8.150000 0.377225 0
8.155000 0.392672 0
8.160000 0.404058 0
8.165000 0.411062 0
8.170000 0.413471 5
8.175000 0.411201 0
8.180000 0.404289 0
8.185000 0.392902 0
8.190000 0.377323 0
8.195000 0.357943 0
8.200000 0.335241 0
8.205000 0.309767 0
8.210000 0.282117 0
8.215000 0.252911 0
8.220000 0.222771 0
8.225000 0.192296 0
8.230000 0.162045 0
8.235000 0.132521 0
8.240000 0.104162 0
8.245000 0.077326 0
8.250000 0.052293 0
8.255000 0.029265 0
8.260000 0.008365 0
8.265000 -0.010352 0
8.270000 -0.026894 0
8.275000 -0.041321 0
8.280000 -0.053736 0
8.285000 -0.064273 0
8.290000 -0.073087 0
8.295000 -0.080349 0
8.300000 -0.086233 0
8.305000 -0.090910 0
8.310000 -0.094547 0
8.315000 -0.097299 0
8.320000 -0.099308 0
8.325000 -0.100701 0
8.330000 -0.101591 0
8.335000 -0.102073 0
8.340000 -0.102077 0
8.345000 -0.101175 0
8.350000 -0.100279 0
8.355000 -0.099386 0
8.360000 -0.098498 0
8.365000 -0.097615 0
8.370000 -0.096735 0
8.375000 -0.095861 0
8.380000 -0.094990 0
8.385000 -0.094124 0
8.390000 -0.093261 0
8.395000 -0.092402 0
8.400000 -0.091545 0
8.405000 -0.090690 0
8.410000 -0.089832 0
8.415000 -0.088968 0
8.420000 -0.088088 0
8.425000 -0.087178 0
8.430000 -0.086214 0
8.435000 -0.085161 0
8.440000 -0.083963 0
8.445000 -0.082538 0
8.450000 -0.080770 0
8.455000 -0.078499 0
8.460000 -0.075513 0
8.465000 -0.071543 0
8.470000 -0.066263 0
8.475000 -0.059294 0
8.480000 -0.050228 0
8.485000 -0.038654 0
8.490000 -0.024206 0
8.495000 -0.006620 0
8.500000 0.014207 0
8.505000 0.038147 0
8.510000 0.064792 0
8.515000 0.093423 0
8.520000 0.123014 0
8.525000 0.152267 0
8.530000 0.179699 0
8.535000 0.203757 0
8.540000 0.222963 0
8.545000 0.236063 0
8.550000 0.242161 1
8.555000 0.240818 0
8.560000 0.232109 0
8.565000 0.216611 0
8.570000 0.195342 0
8.575000 0.169648 0
8.580000 0.141063 0
8.585000 0.111150 0
8.590000 0.081340 0
8.595000 0.052735 0
8.600000 0.025838 0
8.605000 0.000118 0
8.610000 -0.026488 0
8.615000 -0.057654 0
8.620000 -0.097424 0
8.625000 -0.147016 0
8.630000 -0.200651 0
8.635000 -0.243166 0
8.640000 -0.251824 2
8.645000 -0.201590 0
8.650000 -0.071221 0
8.655000 0.149513 0
8.660000 0.448262 0
8.665000 0.777073 0
8.670000 1.052931 0
8.675000 1.185885 3
8.680000 1.124180 0
8.685000 0.885182 0
8.690000 0.547231 0
8.695000 0.203930 0
8.700000 -0.075306 0
8.705000 -0.257612 0
8.710000 -0.339517 4
8.715000 -0.337259 0
8.720000 -0.279692 0
8.725000 -0.199639 0
8.730000 -0.123415 0
8.735000 -0.064198 0
8.740000 -0.022906 0
8.745000 0.005990 0
8.750000 0.028829 0
8.755000 0.050028 0
8.760000 0.071858 0
8.765000 0.095188 0
8.770000 0.120190 0
8.775000 0.146729 0
8.780000 0.174522 0
8.785000 0.203187 0
8.790000 0.232269 0
8.795000 0.261243 0
8.800000 0.289535 0
8.805000 0.316535 0
8.810000 0.341620 0
8.815000 0.364177 0
8.820000 0.383626 0
8.825000 0.399445 0
8.830000 0.411192 0
8.835000 0.418524 0
8.840000 0.421217 5
8.845000 0.419172 0
8.850000 0.412421 0
8.855000 0.401129 0
8.860000 0.385583 0
8.865000 0.366180 0
8.870000 0.343413 0
8.875000 0.317846 0
8.880000 0.290090 0
8.885000 0.260782 0
8.890000 0.230558 0
8.895000 0.200031 0
8.900000 0.169772 0
8.905000 0.140292 0
8.910000 0.112030 0
8.915000 0.085347 0
8.920000 0.060519 0
8.925000 0.037743 0
8.930000 0.017135 0
8.935000 -0.001262 0
8.940000 -0.017463 0
8.945000 -0.031540 0
8.950000 -0.043606 0
8.955000 -0.053803 0
8.960000 -0.062295 0
8.965000 -0.069258 0
8.970000 -0.074870 0
8.975000 -0.079306 0
8.980000 -0.082735 0
8.985000 -0.085312 0
8.990000 -0.087177 0
8.995000 -0.088456 0
9.000000 -0.089260 0
9.005000 -0.089681 0
9.010000 -0.089661 0
9.015000 -0.088821 0
9.020000 -0.087986 0
9.025000 -0.087155 0
9.030000 -0.086328 0
9.035000 -0.085505 0
9.040000 -0.084686 0
9.045000 -0.083871 0
9.050000 -0.083061 0
9.055000 -0.082253 0
9.060000 -0.081450 0
9.065000 -0.080649 0
9.070000 -0.079849 0
9.075000 -0.079049 0
9.080000 -0.078244 0
9.085000 -0.077428 0
9.090000 -0.076588 0
9.095000 -0.075705 0
9.100000 -0.074748 0
9.105000 -0.073668 0
9.110000 -0.072394 0
9.115000 -0.070820 0
9.120000 -0.068799 0
9.125000 -0.066134 0
9.130000 -0.062570 0
9.135000 -0.057788 0
9.140000 -0.051418 0
9.145000 -0.043046 0
9.150000 -0.032247 0
9.155000 -0.018628 0
9.160000 -0.001885 0
9.165000 0.018135 0
9.170000 0.041362 0
9.175000 0.067445 0
9.180000 0.095716 0
9.185000 0.125182 0
9.190000 0.154556 0
9.195000 0.182344 0
9.200000 0.206955 0
9.205000 0.226852 0
9.210000 0.240710 0
9.215000 0.247559 1
9.220000 0.246895 0
9.225000 0.238743 0
9.230000 0.223656 0
9.235000 0.202647 0
9.240000 0.177083 0
9.245000 0.148531 0
9.250000 0.118596 0
9.255000 0.088747 0
9.260000 0.060118 0
9.265000 0.033215 0
9.270000 0.007465 0
9.275000 -0.019309 0
9.280000 -0.050932 0
9.285000 -0.091479 0
9.290000 -0.141810 0
9.295000 -0.195211 0
9.300000 -0.235216 0
9.305000 -0.237957 2
9.310000 -0.177908 0
9.315000 -0.034338 0
9.320000 0.200636 0
9.325000 0.509164 0
9.330000 0.835037 0
9.335000 1.088786 0
9.340000 1.182495 3
9.345000 1.078927 0
9.350000 0.812151 0
9.355000 0.466158 0
9.360000 0.130609 0
9.365000 -0.132890 0
9.370000 -0.297948 0
9.375000 -0.364984 4
9.380000 -0.352357 0
9.385000 -0.289606 0
9.390000 -0.208689 0
9.395000 -0.133996 0
9.400000 -0.076818 0
9.405000 -0.037015 0
9.410000 -0.008849 0
9.415000 0.013796 0
9.420000 0.035068 0
9.425000 0.057061 0
9.430000 0.080565 0
9.435000 0.105722 0
9.440000 0.132391 0
9.445000 0.160289 0
9.450000 0.189042 0
9.455000 0.218197 0
9.460000 0.247242 0
9.465000 0.275611 0
9.470000 0.302707 0
9.475000 0.327918 0
9.480000 0.350642 0
9.485000 0.370308 0
9.490000 0.386400 0
9.495000 0.398479 0
9.500000 0.406204 0
9.505000 0.409345 5
9.510000 0.407794 0
9.515000 0.401572 0
9.520000 0.390827 0
9.525000 0.375828 0
9.530000 0.356956 0
9.535000 0.334681 0
9.540000 0.309548 0
9.545000 0.282154 0
9.550000 0.253122 0
9.555000 0.223077 0
9.560000 0.192626 0
9.565000 0.162340 0
9.570000 0.132731 0
9.575000 0.104246 0
9.580000 0.077256 0
9.585000 0.052051 0
9.590000 0.028841 0
9.595000 0.007758 0
9.600000 -0.011137 0
9.605000 -0.027847 0
9.610000 -0.042429 0
9.615000 -0.054983 0
9.620000 -0.065641 0
9.625000 -0.074560 0
9.630000 -0.081909 0
9.635000 -0.087863 0
9.640000 -0.092597 0
9.645000 -0.096278 0
9.650000 -0.099063 0
9.655000 -0.101096 0
9.660000 -0.102505 0
9.665000 -0.103405 0
9.670000 -0.103892 0
9.675000 -0.104050 0
9.680000 -0.103294 0
9.685000 -0.102386 0
9.690000 -0.101483 0
9.695000 -0.100585 0
9.700000 -0.099691 0
9.705000 -0.098801 0
9.710000 -0.097916 0
9.715000 -0.097035 0
9.720000 -0.096159 0
9.725000 -0.095286 0
9.730000 -0.094417 0
9.735000 -0.093550 0
9.740000 -0.092684 0
9.745000 -0.091817 0
9.750000 -0.090942 0
9.755000 -0.090052 0
9.760000 -0.089131 0
9.765000 -0.088155 0
9.770000 -0.087089 0
9.775000 -0.085875 0
9.780000 -0.084429 0
9.785000 -0.082634 0
9.790000 -0.080325 0
9.795000 -0.077289 0
9.800000 -0.073249 0
9.805000 -0.067876 0
9.810000 -0.060785 0
9.815000 -0.051564 0
9.820000 -0.039800 0
9.825000 -0.025131 0
9.830000 -0.007298 0
9.835000 0.013785 0
9.840000 0.037971 0
9.845000 0.064824 0
9.850000 0.093596 0
9.855000 0.123225 0
9.860000 0.152385 0
9.865000 0.179569 0
9.870000 0.203216 0
9.875000 0.221853 0
9.880000 0.234248 0
9.885000 0.239545 1
9.890000 0.237359 0
9.895000 0.227823 0
9.900000 0.211575 0
9.905000 0.189687 0
9.910000 0.163547 0
9.915000 0.134711 0
9.920000 0.104745 0
9.925000 0.075058 0
9.930000 0.046695 0
9.935000 0.020044 0
9.940000 -0.005626 0
9.945000 -0.032651 0
9.950000 -0.064913 0
9.955000 -0.106295 0
9.960000 -0.157172 0
9.965000 -0.210247 0
9.970000 -0.248733 0
9.975000 -0.248919 2
9.980000 -0.185821 0
9.985000 -0.039405 0
9.990000 0.197528 0
9.995000 0.506777 0
10.000000 0.832662 0
10.005000 1.087215 0
10.010000 1.183868 3
10.015000 1.081923 0
10.020000 0.814341 0
10.025000 0.467729 0
10.030000 0.134026 0
10.035000 -0.124668 0
10.040000 -0.282842 0
10.045000 -0.342408 4
10.050000 -0.323505 0
10.055000 -0.257258 0
10.060000 -0.176165 0
10.065000 -0.103761 0
10.070000 -0.049714 0
10.075000 -0.012534 0
10.080000 0.014058 0
10.085000 0.036069 0
10.090000 0.057294 0
10.095000 0.079524 0
10.100000 0.103365 0
10.105000 0.128870 0
10.110000 0.155844 0
10.115000 0.183965 0
10.120000 0.212822 0
10.125000 0.241929 0
10.130000 0.270737 0
10.135000 0.298650 0
10.140000 0.325043 0
10.145000 0.349288 0
10.150000 0.370771 0
10.155000 0.388925 0
10.160000 0.403250 0
10.165000 0.413333 0
10.170000 0.418874 0
10.175000 0.419692 5
10.180000 0.415741 0
10.185000 0.407107 0
10.190000 0.394009 0
10.195000 0.376786 0
10.200000 0.355883 0
10.205000 0.331832 0
10.210000 0.305227 0
10.215000 0.276702 0
10.220000 0.246903 0
10.225000 0.216468 0
10.230000 0.185998 0
10.235000 0.156044 0
10.240000 0.127092 0
10.245000 0.099549 0
10.250000 0.073739 0
10.255000 0.049902 0
10.260000 0.028196 0
10.265000 0.008701 0
10.270000 -0.008570 0
10.275000 -0.023665 0
10.280000 -0.036678 0
10.285000 -0.047740 0
10.290000 -0.057009 0
10.295000 -0.064657 0
10.300000 -0.070864 0
10.305000 -0.075811 0
10.310000 -0.079671 0
10.315000 -0.082607 0
10.320000 -0.084768 0
10.325000 -0.086288 0
10.330000 -0.087286 0
10.335000 -0.087861 0
10.340000 -0.088102 0
10.345000 -0.087424 0
10.350000 -0.086596 0
10.355000 -0.085772 0
10.360000 -0.084952 0
10.365000 -0.084136 0
10.370000 -0.083324 0
10.375000 -0.082516 0
10.380000 -0.081712 0
10.385000 -0.080912 0
10.390000 -0.080115 0
10.395000 -0.079321 0
10.400000 -0.078529 0
10.405000 -0.077738 0
10.410000 -0.076943 0
10.415000 -0.076139 0
10.420000 -0.075315 0
10.425000 -0.074455 0
10.430000 -0.073532 0
10.435000 -0.072501 0
10.440000 -0.071298 0
10.445000 -0.069826 0
10.450000 -0.067951 0
10.455000 -0.065486 0
10.460000 -0.062188 0
10.465000 -0.057753 0
10.470000 -0.051817 0
10.475000 -0.043971 0
10.480000 -0.033783 0
10.485000 -0.020843 0
10.490000 -0.004818 0
10.495000 0.014488 0
10.500000 0.037057 0
10.505000 0.062598 0
10.510000 0.090502 0
10.515000 0.119827 0
10.520000 0.149325 0
10.525000 0.177514 0
10.530000 0.202790 0
10.535000 0.223578 0
10.540000 0.238490 0
10.545000 0.246476 0
10.550000 0.246949 1
10.555000 0.239852 0
10.560000 0.225669 0
10.565000 0.205369 0
10.570000 0.180294 0
10.575000 0.152014 0
10.580000 0.122157 0
10.585000 0.092236 0
10.590000 0.063445 0
10.595000 0.036378 0
10.600000 0.010582 0
10.605000 -0.015987 0
10.610000 -0.047086 0
10.615000 -0.086916 0
10.620000 -0.136719 0
10.625000 -0.190304 0
10.630000 -0.231571 0
10.635000 -0.236637 2
10.640000 -0.179611 0
10.645000 -0.039186 0
10.650000 0.193239 0
10.655000 0.500542 0
10.660000 0.826768 0
10.665000 1.081772 0
10.670000 1.176369 3
10.675000 1.070666 0
10.680000 0.799940 0
10.685000 0.452497 0
10.690000 0.120756 0
10.695000 -0.133875 0
10.700000 -0.286995 0
10.705000 -0.341610 4
10.710000 -0.318894 0
10.715000 -0.250716 0
10.720000 -0.169635 0
10.725000 -0.098507 0
10.730000 -0.046051 0
10.735000 -0.010103 0
10.740000 0.015823 0
10.745000 0.037625 0
10.750000 0.058904 0
10.755000 0.081306 0
10.760000 0.105356 0
10.765000 0.131064 0
10.770000 0.158215 0
10.775000 0.186471 0
10.780000 0.215403 0
10.785000 0.244510 0
10.790000 0.273229 0
10.795000 0.300949 0
10.800000 0.327039 0
10.805000 0.350860 0
10.810000 0.371801 0
10.815000 0.389297 0
10.820000 0.402856 0
10.825000 0.412082 0
10.830000 0.416691 5
10.835000 0.416530 0
10.840000 0.411579 0
10.845000 0.401955 0
10.850000 0.387905 0
10.855000 0.369799 0
10.860000 0.348110 0
10.865000 0.323391 0
10.870000 0.296258 0
10.875000 0.267356 0
10.880000 0.237340 0
10.885000 0.206845 0
10.890000 0.176471 0
10.895000 0.146757 0
10.900000 0.118172 0
10.905000 0.091107 0
10.910000 0.065864 0
10.915000 0.042660 0
10.920000 0.021632 0
10.925000 0.002837 0
10.930000 -0.013730 0
10.935000 -0.028134 0
10.940000 -0.040484 0
10.945000 -0.050923 0
10.950000 -0.059616 0
10.955000 -0.066742 0
10.960000 -0.072482 0
10.965000 -0.077019 0
10.970000 -0.080523 0
10.975000 -0.083155 0
10.980000 -0.085060 0
10.985000 -0.086368 0
10.990000 -0.087192 0
10.995000 -0.087627 0
11.000000 -0.087617 0
11.005000 -0.086787 0
11.010000 -0.085962 0
11.015000 -0.085141 0
11.020000 -0.084324 0
11.025000 -0.083511 0
11.030000 -0.082702 0
11.035000 -0.081898 0
11.040000 -0.081097 0
11.045000 -0.080299 0
11.050000 -0.079505 0
11.055000 -0.078714 0
11.060000 -0.077923 0
11.065000 -0.077132 0
11.070000 -0.076334 0
11.075000 -0.075524 0
11.080000 -0.074686 0
11.085000 -0.073799 0
11.090000 -0.072829 0
11.095000 -0.071720 0
11.100000 -0.070393 0
11.105000 -0.068729 0
11.110000 -0.066567 0
11.115000 -0.063689 0
11.120000 -0.059816 0
11.125000 -0.054605 0
11.130000 -0.047660 0
11.135000 -0.038552 0
11.140000 -0.026850 0
11.145000 -0.012175 0
11.150000 0.005739 0
11.155000 0.026973 0
11.160000 0.051355 0
11.165000 0.078403 0
11.170000 0.107300 0
11.175000 0.136901 0
11.180000 0.165785 0
11.185000 0.192364 0
11.190000 0.215012 0
11.195000 0.232237 0
11.200000 0.242833 0
11.205000 0.246026 1
11.210000 0.241562 0
11.215000 0.229742 0
11.220000 0.211386 0
11.225000 0.187741 0
11.230000 0.160336 0
11.235000 0.130817 0
11.240000 0.100772 0
11.245000 0.071537 0
11.250000 0.043939 0
11.255000 0.017898 0
11.260000 -0.008127 0
11.265000 -0.037481 0
11.270000 -0.074536 0
11.275000 -0.121834 0
11.280000 -0.175567 0
11.285000 -0.222134 0
11.290000 -0.238970 2
11.295000 -0.199773 0
11.300000 -0.081186 0
11.305000 0.129621 0
11.310000 0.422934 0
11.315000 0.751864 0
11.320000 1.031067 0
11.325000 1.165828 3
11.330000 1.104025 0
11.335000 0.865277 0
11.340000 0.527576 0
11.345000 0.184186 0
11.350000 -0.095576 0
11.355000 -0.278734 0
11.360000 -0.361610 4
11.365000 -0.360200 0
11.370000 -0.303121 0
11.375000 -0.223089 0
11.380000 -0.146504 0
11.385000 -0.086764 0
11.390000 -0.044991 0
11.395000 -0.015754 0
11.400000 0.007286 0
11.405000 0.028596 0
11.410000 0.050491 0
11.415000 0.073867 0
11.420000 0.098912 0
11.425000 0.125498 0
11.430000 0.153347 0
11.435000 0.182084 0
11.440000 0.211257 0
11.445000 0.240346 0
11.450000 0.268782 0
11.455000 0.295959 0
11.460000 0.321257 0
11.465000 0.344063 0
11.470000 0.363798 0
11.475000 0.379938 0
11.480000 0.392037 0
11.485000 0.399748 0
11.490000 0.402839 5
11.495000 0.401204 0
11.500000 0.394866 0
11.505000 0.383981 0
11.510000 0.368824 0
11.515000 0.349787 0
11.520000 0.327351 0
11.525000 0.302073 0
11.530000 0.274562 0
11.535000 0.245448 0
11.540000 0.215368 0
11.545000 0.184933 0
11.550000 0.154717 0
11.555000 0.125235 0
11.560000 0.096930 0
11.565000 0.070170 0
11.570000 0.045239 0
11.575000 0.022339 0
11.580000 0.001594 0
11.585000 -0.016946 0
11.590000 -0.033291 0
11.595000 -0.047506 0
11.600000 -0.059701 0
11.605000 -0.070014 0
11.610000 -0.078606 0
11.615000 -0.085652 0
11.620000 -0.091330 0
11.625000 -0.095814 0
11.630000 -0.099273 0
11.635000 -0.101864 0
11.640000 -0.103728 0
11.645000 -0.104993 0
11.650000 -0.105770 0
11.655000 -0.106154 0
11.660000 -0.106083 0
11.665000 -0.105162 0
11.670000 -0.104245 0
11.675000 -0.103333 0
11.680000 -0.102425 0
11.685000 -0.101522 0
11.690000 -0.100623 0
11.695000 -0.099729 0
11.700000 -0.098839 0
11.705000 -0.097953 0
11.710000 -0.097072 0
11.715000 -0.096193 0
11.720000 -0.095317 0
11.725000 -0.094440 0
11.730000 -0.093561 0
11.735000 -0.092671 0
11.740000 -0.091761 0
11.745000 -0.090812 0
11.750000 -0.089796 0
11.755000 -0.088668 0
11.760000 -0.087360 0
11.765000 -0.085776 0
11.770000 -0.083776 0
11.775000 -0.081174 0
11.780000 -0.077725 0
11.785000 -0.073126 0
11.790000 -0.067016 0
11.795000 -0.058988 0
11.800000 -0.048619 0
11.805000 -0.035508 0
11.810000 -0.019329 0
11.815000 0.000105 0
11.820000 0.022773 0
11.825000 0.048387 0
11.830000 0.076347 0
11.835000 0.105728 0
11.840000 0.135306 0
11.845000 0.163627 0
11.850000 0.189115 0
11.855000 0.210216 0
11.860000 0.225550 0
11.865000 0.234064 0
11.870000 0.235147 1
11.875000 0.228705 0
11.880000 0.215175 0
11.885000 0.195469 0
11.890000 0.170881 0
11.895000 0.142941 0
11.900000 0.113252 0
11.905000 0.083325 0
11.910000 0.054392 0
11.915000 0.027139 0
11.920000 0.001303 0
11.925000 -0.024858 0
11.930000 -0.054810 0
11.935000 -0.092793 0
11.940000 -0.140876 0
11.945000 -0.194614 0
11.950000 -0.240033 0
11.955000 -0.254777 2
11.960000 -0.213235 0
11.965000 -0.092883 0
11.970000 0.118499 0
11.975000 0.411351 0
11.980000 0.740424 0
11.985000 1.023271 0
11.990000 1.167122 3
11.995000 1.114469 0
12.000000 0.880422 0
12.005000 0.543695 0
12.010000 0.200195 0
12.015000 -0.078701 0
12.020000 -0.259417 0
12.025000 -0.338738 4
12.030000 -0.333722 0
12.035000 -0.274243 0
12.040000 -0.193798 0
12.045000 -0.118590 0
12.050000 -0.061046 0
12.055000 -0.021277 0
12.060000 0.006665 0
12.065000 0.029124 0
12.070000 0.050331 0
12.075000 0.072367 0
12.080000 0.095980 0
12.085000 0.121279 0
12.090000 0.148092 0
12.095000 0.176108 0
12.100000 0.204922 0
12.105000 0.234049 0
12.110000 0.262942 0
12.115000 0.291000 0
12.120000 0.317595 0
12.125000 0.342089 0
12.130000 0.363859 0
12.135000 0.382327 0
12.140000 0.396977 0
12.145000 0.407388 0
12.150000 0.413245 0
12.155000 0.414358 5
12.160000 0.410673 0
12.165000 0.402269 0
12.170000 0.389363 0
12.175000 0.372292 0
12.180000 0.351504 0
12.185000 0.327535 0
12.190000 0.300986 0
12.195000 0.272496 0
12.200000 0.242722 0
12.205000 0.212306 0
12.210000 0.181858 0
12.215000 0.151935 0
12.220000 0.123027 0
12.225000 0.095545 0
12.230000 0.069813 0
12.235000 0.046074 0
12.240000 0.024481 0
12.245000 0.005115 0
12.250000 -0.012017 0
12.255000 -0.026964 0
12.260000 -0.039824 0
12.265000 -0.050734 0
12.270000 -0.059852 0
12.275000 -0.067356 0
12.280000 -0.073427 0
12.285000 -0.078248 0
12.290000 -0.081993 0
12.295000 -0.084825 0
12.300000 -0.086895 0
12.305000 -0.088335 0
12.310000 -0.089263 0
12.315000 -0.089779 0
12.320000 -0.089819 0
12.325000 -0.088979 0
12.330000 -0.088143 0
12.335000 -0.087311 0
12.340000 -0.086483 0
12.345000 -0.085660 0
12.350000 -0.084840 0
12.355000 -0.084025 0
12.360000 -0.083213 0
12.365000 -0.082405 0
12.370000 -0.081601 0
12.375000 -0.080800 0
12.380000 -0.080000 0
12.385000 -0.079199 0
12.390000 -0.078395 0
12.395000 -0.077579 0
12.400000 -0.076741 0
12.405000 -0.075860 0
12.410000 -0.074907 0
12.415000 -0.073831 0
12.420000 -0.072560 0
12.425000 -0.070988 0
12.430000 -0.068963 0
12.435000 -0.066284 0
12.440000 -0.062687 0
12.445000 -0.057845 0
12.450000 -0.051376 0
12.455000 -0.042855 0
12.460000 -0.031847 0
12.465000 -0.017955 0
12.470000 -0.000876 0
12.475000 0.019523 0
12.480000 0.043142 0
12.485000 0.069582 0
12.490000 0.098112 0
12.495000 0.127667 0
12.500000 0.156889 0
12.505000 0.184219 0
12.510000 0.208027 0
12.515000 0.226770 0
12.520000 0.239154 0
12.525000 0.244285 1
12.530000 0.241769 0
12.535000 0.231769 0
12.540000 0.214979 0
12.545000 0.192549 0
12.550000 0.165952 0
12.555000 0.136822 0
12.560000 0.106778 0
12.565000 0.077242 0
12.570000 0.049199 0
12.575000 0.022850 0
12.580000 -0.002926 0
12.585000 -0.031026 0
12.590000 -0.065741 0
12.595000 -0.110470 0
12.600000 -0.163441 0
12.605000 -0.213651 0
12.610000 -0.240437 2
12.615000 -0.217810 0
12.620000 -0.121029 0
12.625000 0.066293 0
12.630000 0.341568 0
12.635000 0.668297 0
12.640000 0.969389 0
12.645000 1.148060 3
12.650000 1.135538 0
12.655000 0.933504 0
12.660000 0.610391 0
12.665000 0.260925 0
12.670000 -0.037301 0
12.675000 -0.242982 0
12.680000 -0.346803 0
12.685000 -0.361241 4
12.690000 -0.313058 0
12.695000 -0.235244 0
12.700000 -0.156480 0
12.705000 -0.093070 0
12.710000 -0.048200 0
12.715000 -0.017153 0
12.720000 0.006598 0
12.725000 0.027977 0
12.730000 0.049662 0
12.735000 0.072748 0
12.740000 0.097507 0
12.745000 0.123848 0
12.750000 0.151510 0
12.755000 0.180127 0
12.760000 0.209255 0
12.765000 0.238380 0
12.770000 0.266931 0
12.775000 0.294304 0
12.780000 0.319871 0
12.785000 0.343015 0
12.790000 0.363143 0
12.795000 0.379720 0
12.800000 0.392286 0
12.805000 0.400478 0
12.810000 0.404050 5
12.815000 0.402880 0
12.820000 0.396979 0
12.825000 0.386491 0
12.830000 0.371683 0
12.835000 0.352941 0
12.840000 0.330743 0
12.845000 0.305646 0
12.850000 0.278261 0
12.855000 0.249223 0
12.860000 0.219173 0
12.865000 0.188733 0
12.870000 0.158481 0
12.875000 0.128942 0
12.880000 0.100566 0
12.885000 0.073727 0
12.890000 0.048716 0
12.895000 0.025739 0
12.900000 0.004922 0
12.905000 -0.013679 0
12.910000 -0.030076 0
12.915000 -0.044334 0
12.920000 -0.056561 0
12.925000 -0.066897 0
12.930000 -0.075505 0
12.935000 -0.082560 0
12.940000 -0.088242 0
12.945000 -0.092728 0
12.950000 -0.096186 0
12.955000 -0.098775 0
12.960000 -0.100638 0
12.965000 -0.101902 0
12.970000 -0.102680 0
12.975000 -0.103066 0
12.980000 -0.103001 0
12.985000 -0.102095 0
12.990000 -0.101193 0
12.995000 -0.100296 0
13.000000 -0.099404 0
13.005000 -0.098515 0
13.010000 -0.097632 0
13.015000 -0.096753 0
13.020000 -0.095877 0
13.025000 -0.095006 0
13.030000 -0.094139 0
13.035000 -0.093275 0
13.040000 -0.092413 0
13.045000 -0.091550 0
13.050000 -0.090684 0
13.055000 -0.089807 0
13.060000 -0.088907 0
13.065000 -0.087966 0
13.070000 -0.086952 0
13.075000 -0.085819 0
13.080000 -0.084496 0
13.085000 -0.082878 0
13.090000 -0.080820 0
13.095000 -0.078126 0
13.100000 -0.074541 0
13.105000 -0.069750 0
13.110000 -0.063380 0
13.115000 -0.055018 0
13.120000 -0.044236 0
13.125000 -0.030638 0
13.130000 -0.013914 0
13.135000 0.006092 0
13.140000 0.029315 0
13.145000 0.055412 0
13.150000 0.083714 0
13.155000 0.113229 0
13.160000 0.142670 0
13.165000 0.170535 0
13.170000 0.195228 0
13.175000 0.215204 0
13.180000 0.229131 0
13.185000 0.236032 1
13.190000 0.235403 0
13.195000 0.227271 0
13.200000 0.212192 0
13.205000 0.191189 0
13.210000 0.165636 0
13.215000 0.137109 0
13.220000 0.107218 0
13.225000 0.077437 0
13.230000 0.048895 0
13.235000 0.022084 0
13.240000 -0.003606 0
13.245000 -0.030405 0
13.250000 -0.062192 0
13.255000 -0.103021 0
13.260000 -0.153574 0
13.265000 -0.206780 0
13.270000 -0.245757 0
13.275000 -0.246344 2
13.280000 -0.182976 0
13.285000 -0.035197 0
13.290000 0.204040 0
13.295000 0.515175 0
13.300000 0.839707 0
13.305000 1.086747 0
13.310000 1.169539 3
13.315000 1.055480 0
13.320000 0.782461 0
13.325000 0.435147 0
13.330000 0.101667 0
13.335000 -0.158410 0
13.340000 -0.320113 0
13.345000 -0.384555 4
13.350000 -0.370325 0
13.355000 -0.306865 0
13.360000 -0.225796 0
13.365000 -0.151134 0
13.370000 -0.093947 0
13.375000 -0.054052 0
13.380000 -0.025761 0
13.385000 -0.003004 0
13.390000 0.018350 0
13.395000 0.040400 0
13.400000 0.063945 0
13.405000 0.089135 0
13.410000 0.115837 0
13.415000 0.143773 0
13.420000 0.172574 0
13.425000 0.201797 0
13.430000 0.230935 0
13.435000 0.259432 0
13.440000 0.286695 0
13.445000 0.312121 0
13.450000 0.335110 0
13.455000 0.355093 0
13.460000 0.371556 0
13.465000 0.384057 0
13.470000 0.392249 0
13.475000 0.395892 5
13.480000 0.394871 0
13.485000 0.389191 0
13.490000 0.378989 0
13.495000 0.364517 0
13.500000 0.346141 0
13.505000 0.324318 0
13.510000 0.299581 0
13.515000 0.272515 0
13.520000 0.243735 0
13.525000 0.213862 0
13.530000 0.183501 0
13.535000 0.153224 0
13.540000 0.123548 0
13.545000 0.094927 0
13.550000 0.067739 0
13.555000 0.042287 0
13.560000 0.018790 0
13.565000 -0.002607 0
13.570000 -0.021832 0
13.575000 -0.038878 0
13.580000 -0.053791 0
13.585000 -0.066662 0
13.590000 -0.077619 0
13.595000 -0.086812 0
13.600000 -0.094407 0
13.605000 -0.100576 0
13.610000 -0.105494 0
13.615000 -0.109328 0
13.620000 -0.112236 0
13.625000 -0.114364 0
13.630000 -0.115842 0
13.635000 -0.116788 0
13.640000 -0.117301 0
13.645000 -0.117468 0
13.650000 -0.116655 0
13.655000 -0.115681 0
13.660000 -0.114712 0
13.665000 -0.113747 0
13.670000 -0.112788 0
13.675000 -0.111833 0
13.680000 -0.110883 0
13.685000 -0.109937 0
13.690000 -0.108997 0
13.695000 -0.108060 0
13.700000 -0.107127 0
13.705000 -0.106198 0
13.710000 -0.105271 0
13.715000 -0.104343 0
13.720000 -0.103410 0
13.725000 -0.102465 0
13.730000 -0.101496 0
13.735000 -0.100482 0
13.740000 -0.099392 0
13.745000 -0.098177 0
13.750000 -0.096765 0
13.755000 -0.095051 0
13.760000 -0.092891 0
13.765000 -0.090089 0
13.770000 -0.086398 0
13.775000 -0.081507 0
13.780000 -0.075056 0
13.785000 -0.066642 0
13.790000 -0.055854 0
13.795000 -0.042306 0
13.800000 -0.025694 0
13.805000 -0.005858 0
13.810000 0.017158 0
13.815000 0.043042 0
13.820000 0.071181 0
13.825000 0.100649 0
13.830000 0.130234 0
13.835000 0.158507 0
13.840000 0.183926 0
13.845000 0.204976 0
13.850000 0.220315 0
13.855000 0.228913 0
13.860000 0.230172 1
13.865000 0.223991 0
13.870000 0.210777 0
13.875000 0.191408 0
13.880000 0.167129 0
13.885000 0.139422 0
13.890000 0.109856 0
13.895000 0.079922 0
13.900000 0.050860 0
13.905000 0.023420 0
13.910000 -0.002508 0
13.915000 -0.028399 0
13.920000 -0.057402 0
13.925000 -0.093686 0
13.930000 -0.139940 0
13.935000 -0.193319 0
13.940000 -0.242074 0
13.945000 -0.265750 2
13.950000 -0.239494 0
13.955000 -0.140037 0
13.960000 0.047855 0
13.965000 0.321687 0
13.970000 0.647640 0
13.975000 0.953996 0
13.980000 1.148592 0
13.985000 1.161120 3
13.990000 0.981772 0
13.995000 0.669802 0
14.000000 0.318529 0
14.005000 0.009296 0
14.010000 -0.211527 0
14.015000 -0.330629 0
14.020000 -0.357632 4
14.025000 -0.317342 0
14.030000 -0.242203 0
14.035000 -0.162099 0
14.040000 -0.095548 0
14.045000 -0.047676 0
14.050000 -0.014690 0
14.055000 0.009916 0
14.060000 0.031434 0
14.065000 0.052903 0
14.070000 0.075643 0
14.075000 0.100035 0
14.080000 0.126039 0
14.085000 0.153420 0
14.090000 0.181834 0
14.095000 0.210857 0
14.100000 0.239989 0
14.105000 0.268677 0
14.110000 0.296325 0
14.115000 0.322314 0
14.120000 0.346026 0
14.125000 0.366866 0
14.130000 0.384286 0
14.135000 0.397810 0
14.140000 0.407054 0
14.145000 0.411743 5
14.150000 0.411726 0
14.155000 0.406979 0
14.160000 0.397613 0
14.165000 0.383863 0
14.170000 0.366081 0
14.175000 0.344721 0
14.180000 0.320317 0
14.185000 0.293463 0
14.190000 0.264785 0
14.195000 0.234922 0
14.200000 0.204497 0
14.205000 0.174099 0
14.210000 0.144266 0
14.215000 0.115468 0
14.220000 0.088099 0
14.225000 0.062473 0
14.230000 0.038820 0
14.235000 0.017290 0
14.240000 -0.002043 0
14.245000 -0.019168 0
14.250000 -0.034136 0
14.255000 -0.047040 0
14.260000 -0.058012 0
14.265000 -0.067205 0
14.270000 -0.074792 0
14.275000 -0.080950 0
14.280000 -0.085855 0
14.285000 -0.089680 0
14.290000 -0.092585 0
14.295000 -0.094717 0
14.300000 -0.096209 0
14.305000 -0.097177 0
14.310000 -0.097723 0
14.315000 -0.097932 0
14.320000 -0.097208 0
14.325000 -0.096331 0
14.330000 -0.095458 0
14.335000 -0.094590 0
14.340000 -0.093726 0
14.345000 -0.092866 0
14.350000 -0.092011 0
14.355000 -0.091159 0
14.360000 -0.090312 0
14.365000 -0.089468 0
14.370000 -0.088628 0
14.375000 -0.087790 0
14.380000 -0.086953 0
14.385000 -0.086114 0
14.390000 -0.085267 0
14.395000 -0.084403 0
14.400000 -0.083507 0
14.405000 -0.082554 0
14.410000 -0.081505 0
14.415000 -0.080300 0
14.420000 -0.078853 0
14.425000 -0.077037 0
14.430000 -0.074683 0
14.435000 -0.071564 0
14.440000 -0.067395 0
14.445000 -0.061830 0
14.450000 -0.054476 0
14.455000 -0.044909 0
14.460000 -0.032716 0
14.465000 -0.017541 0
14.470000 0.000852 0
14.475000 0.022515 0
14.480000 0.047246 0
14.485000 0.074541 0
14.490000 0.103573 0
14.495000 0.133203 0
14.500000 0.162032 0
14.505000 0.188507 0
14.510000 0.211048 0
14.515000 0.228205 0
14.520000 0.238811 0
14.525000 0.242111 1
14.530000 0.237854 0
14.535000 0.226320 0
14.540000 0.208290 0
14.545000 0.184961 0
14.550000 0.157810 0
14.555000 0.128439 0
14.560000 0.098406 0
14.565000 0.069049 0
14.570000 0.041249 0
14.575000 0.015074 0
14.580000 -0.010741 0
14.585000 -0.039188 0
14.590000 -0.074496 0
14.595000 -0.119785 0
14.600000 -0.172919 0
14.605000 -0.222746 0
14.610000 -0.248891 2
14.615000 -0.225997 0
14.620000 -0.129974 0
14.625000 0.055272 0
14.630000 0.327838 0
14.635000 0.653615 0
14.640000 0.959213 0
14.645000 1.150245 0
14.650000 1.155800 3
14.655000 0.971743 0
14.660000 0.658862 0
14.665000 0.307486 0
14.670000 -0.003570 0
14.675000 -0.228656 0
14.680000 -0.353787 0
14.685000 -0.387170 4
14.690000 -0.351851 0
14.695000 -0.278868 0
14.700000 -0.197895 0
14.705000 -0.128550 0
14.710000 -0.077533 0
14.715000 -0.042165 0
14.720000 -0.016254 0
14.725000 0.005710 0
14.730000 0.027121 0
14.735000 0.049572 0
14.740000 0.073601 0
14.745000 0.099248 0
14.750000 0.126328 0
14.755000 0.154537 0
14.760000 0.183490 0
14.765000 0.212728 0
14.770000 0.241736 0
14.775000 0.269950 0
14.780000 0.296781 0
14.785000 0.321629 0
14.790000 0.343908 0
14.795000 0.363066 0
14.800000 0.378609 0
14.805000 0.390120 0
14.810000 0.397280 0
14.815000 0.399879 5
14.820000 0.397828 0
14.825000 0.391162 0
14.830000 0.380041 0
14.835000 0.364738 0
14.840000 0.345635 0
14.845000 0.323200 0
14.850000 0.297973 0
14.855000 0.270539 0
14.860000 0.241510 0
14.865000 0.211500 0
14.870000 0.181102 0
14.875000 0.150875 0
14.880000 0.121320 0
14.885000 0.092878 0
14.890000 0.065910 0
14.895000 0.040704 0
14.900000 0.017468 0
14.905000 -0.003665 0
14.910000 -0.022634 0
14.915000 -0.039436 0
14.920000 -0.054125 0
14.925000 -0.066795 0
14.930000 -0.077574 0
14.935000 -0.086614 0
14.940000 -0.094079 0
14.945000 -0.100142 0
14.950000 -0.104973 0
14.955000 -0.108738 0
14.960000 -0.111593 0
14.965000 -0.113680 0
14.970000 -0.115129 0
14.975000 -0.116053 0
14.980000 -0.116552 0
14.985000 -0.116710 0
14.990000 -0.115900 0
14.995000 -0.114929 0
15.000000 -0.113964 0
15.005000 -0.113003 0
15.010000 -0.112047 0
15.015000 -0.111096 0
15.020000 -0.110150 0
15.025000 -0.109208 0
15.030000 -0.108271 0
15.035000 -0.107338 0
15.040000 -0.106409 0
15.045000 -0.105483 0
15.050000 -0.104559 0
15.055000 -0.103635 0
15.060000 -0.102706 0
15.065000 -0.101766 0
15.070000 -0.100802 0
15.075000 -0.099795 0
15.080000 -0.098715 0
15.085000 -0.097513 0
15.090000 -0.096122 0
15.095000 -0.094439 0
15.100000 -0.092324 0
15.105000 -0.089591 0
15.110000 -0.085995 0
15.115000 -0.081239 0
15.120000 -0.074968 0
15.125000 -0.066788 0
15.130000 -0.056290 0
15.135000 -0.043087 0
15.140000 -0.026868 0
15.145000 -0.007451 0
15.150000 0.015148 0
15.155000 0.040658 0
15.160000 0.068516 0
15.165000 0.097850 0
15.170000 0.127497 0
15.175000 0.156072 0
15.180000 0.182058 0
15.185000 0.203941 0
15.190000 0.220354 0
15.195000 0.230216 0
15.200000 0.232850 1
15.205000 0.228062 0
15.210000 0.216162 0
15.215000 0.197932 0
15.220000 0.174542 0
15.225000 0.147421 0
15.230000 0.118118 0
15.235000 0.088138 0
15.240000 0.058781 0
15.245000 0.030927 0
15.250000 0.004708 0
15.255000 -0.020969 0
15.260000 -0.048823 0
15.265000 -0.082879 0
15.270000 -0.126520 0
15.275000 -0.178761 0
15.280000 -0.230477 0
15.285000 -0.263475 2
15.290000 -0.253780 0
15.295000 -0.177323 0
15.300000 -0.015978 0
15.305000 0.234213 0
15.310000 0.550330 0
15.315000 0.872252 0
15.320000 1.111340 0
15.325000 1.186096 3
15.330000 1.066357 0
15.335000 0.790563 0
15.340000 0.442744 0
15.345000 0.109516 0
15.350000 -0.150689 0
15.355000 -0.313275 0
15.360000 -0.379181 4
15.365000 -0.366506 0
15.370000 -0.304096 0
15.375000 -0.223200 0
15.380000 -0.147916 0
15.385000 -0.089744 0
15.390000 -0.048960 0
15.395000 -0.020117 0
15.400000 0.002850 0
15.405000 0.024177 0
15.410000 0.046076 0
15.415000 0.069418 0
15.420000 0.094395 0
15.425000 0.120894 0
15.430000 0.148655 0
15.435000 0.177324 0
15.440000 0.206475 0
15.445000 0.235615 0
15.450000 0.264202 0
15.455000 0.291659 0
15.460000 0.317389 0
15.465000 0.340801 0
15.470000 0.361329 0
15.475000 0.378453 0
15.480000 0.391723 0
15.485000 0.400778 0
15.490000 0.405359 5
15.495000 0.405326 0
15.500000 0.400657 0
15.505000 0.391459 0
15.510000 0.377953 0
15.515000 0.360474 0
15.520000 0.339451 0
15.525000 0.315392 0
15.530000 0.288861 0
15.535000 0.260459 0
15.540000 0.230798 0
15.545000 0.200481 0
15.550000 0.170082 0
15.555000 0.140129 0
15.560000 0.111088 0
15.565000 0.083359 0
15.570000 0.057262 0
15.575000 0.033041 0
15.580000 0.010864 0
15.585000 -0.009174 0
15.590000 -0.027044 0
15.595000 -0.042774 0
15.600000 -0.056439 0
15.605000 -0.068151 0
15.610000 -0.078051 0
15.615000 -0.086297 0
15.620000 -0.093058 0
15.625000 -0.098505 0
15.630000 -0.102807 0
15.635000 -0.106123 0
15.640000 -0.108603 0
15.645000 -0.110383 0
15.650000 -0.111583 0
15.655000 -0.112310 0
15.660000 -0.112654 0
15.665000 -0.112550 0
15.670000 -0.111596 0
15.675000 -0.110648 0
15.680000 -0.109703 0
15.685000 -0.108764 0
15.690000 -0.107829 0
15.695000 -0.106899 0
15.700000 -0.105974 0
15.705000 -0.105053 0
15.710000 -0.104136 0
15.715000 -0.103223 0
15.720000 -0.102314 0
15.725000 -0.101408 0
15.730000 -0.100503 0
15.735000 -0.099595 0
15.740000 -0.098681 0
15.745000 -0.097750 0
15.750000 -0.096788 0
15.755000 -0.095771 0
15.760000 -0.094662 0
15.765000 -0.093406 0
15.770000 -0.091921 0
15.775000 -0.090090 0
15.780000 -0.087755 0
15.785000 -0.084706 0
15.790000 -0.080678 0
15.795000 -0.075348 0
15.800000 -0.068347 0
15.805000 -0.059271 0
15.810000 -0.047718 0
15.815000 -0.033326 0
15.820000 -0.015831 0
15.825000 0.004875 0
15.830000 0.028679 0
15.835000 0.055198 0
15.840000 0.083748 0
15.845000 0.113341 0
15.850000 0.142723 0
15.855000 0.170448 0
15.860000 0.194992 0
15.865000 0.214888 0
15.870000 0.228869 0
15.875000 0.236001 1
15.880000 0.235790 0
15.885000 0.228232 0
15.890000 0.213822 0
15.895000 0.193494 0
15.900000 0.168525 0
15.905000 0.140401 0
15.910000 0.110664 0
15.915000 0.080760 0
15.920000 0.051858 0
15.925000 0.024612 0
15.930000 -0.001225 0
15.935000 -0.027290 0
15.940000 -0.056854 0
15.945000 -0.094025 0
15.950000 -0.141129 0
15.955000 -0.194719 0
15.960000 -0.242483 0
15.965000 -0.263789 2
15.970000 -0.234071 0
15.975000 -0.130666 0
15.980000 0.060870 0
15.985000 0.337130 0
15.990000 0.663619 0
15.995000 0.968842 0
16.000000 1.161921 0
16.005000 1.173977 3
16.010000 0.995051 0
16.015000 0.683577 0
16.020000 0.332166 0
16.025000 0.021873 0
16.030000 -0.200767 0
16.035000 -0.322056 0
16.040000 -0.351155 4
16.045000 -0.312396 0
16.050000 -0.237906 0
16.055000 -0.157603 0
16.060000 -0.090366 0
16.065000 -0.041752 0
16.070000 -0.008246 0
16.075000 0.016602 0
16.080000 0.038151 0
16.085000 0.059534 0
16.090000 0.082136 0
16.095000 0.106377 0
16.100000 0.132234 0
16.105000 0.159484 0
16.110000 0.187792 0
16.115000 0.216741 0
16.120000 0.245843 0
16.125000 0.274553 0
16.130000 0.302280 0
16.135000 0.328413 0
16.140000 0.352336 0
16.145000 0.373456 0
16.150000 0.391224 0
16.155000 0.405157 0
16.160000 0.414864 0
16.165000 0.420059 0
16.170000 0.420576 5
16.175000 0.416378 0
16.180000 0.407556 0
16.185000 0.394329 0
16.190000 0.377033 0
16.195000 0.356104 0
16.200000 0.332063 0
16.205000 0.305492 0
16.210000 0.277011 0
16.215000 0.247252 0
16.220000 0.216838 0
16.225000 0.186361 0
16.230000 0.156363 0
16.235000 0.127323 0
16.240000 0.099646 0
16.245000 0.073657 0
16.250000 0.049599 0
16.255000 0.027635 0
16.260000 0.007853 0
16.265000 -0.009727 0
16.270000 -0.025144 0
16.275000 -0.038482 0
16.280000 -0.049866 0
16.285000 -0.059445 0
16.290000 -0.067386 0
16.295000 -0.073865 0
16.300000 -0.079058 0
16.305000 -0.083138 0
16.310000 -0.086266 0
16.315000 -0.088592 0
16.320000 -0.090250 0
16.325000 -0.091362 0
16.330000 -0.092029 0
16.335000 -0.092341 0
16.340000 -0.091656 0
16.345000 -0.090807 0
16.350000 -0.089962 0
16.355000 -0.089121 0
16.360000 -0.088284 0
16.365000 -0.087451 0
16.370000 -0.086623 0
16.375000 -0.085798 0
16.380000 -0.084978 0
16.385000 -0.084161 0
16.390000 -0.083348 0
16.395000 -0.082537 0
16.400000 -0.081727 0
16.405000 -0.080916 0
16.410000 -0.080099 0
16.415000 -0.079269 0
16.420000 -0.078412 0
16.425000 -0.077507 0
16.430000 -0.076520 0
16.435000 -0.075400 0
16.440000 -0.074069 0
16.445000 -0.072416 0
16.450000 -0.070289 0
16.455000 -0.067480 0
16.460000 -0.063728 0
16.465000 -0.058708 0
16.470000 -0.052044 0
16.475000 -0.043323 0
16.480000 -0.032128 0
16.485000 -0.018076 0
16.490000 -0.000884 0
16.495000 0.019572 0
16.500000 0.043190 0
16.505000 0.069585 0
16.510000 0.098057 0
16.515000 0.127585 0
16.520000 0.156870 0
16.525000 0.184414 0
16.530000 0.208643 0
16.535000 0.228047 0
16.540000 0.241342 0
16.545000 0.247601 1
16.550000 0.246369 0
16.555000 0.237709 0
16.560000 0.222203 0
16.565000 0.200882 0
16.570000 0.175114 0
16.575000 0.146458 0
16.580000 0.116500 0
16.585000 0.086685 0
16.590000 0.058117 0
16.595000 0.031269 0
16.600000 0.005534 0
16.605000 -0.021283 0
16.610000 -0.052997 0
16.615000 -0.093629 0
16.620000 -0.143985 0
16.625000 -0.197386 0
16.630000 -0.237538 0
16.635000 -0.240837 2
16.640000 -0.181991 0
16.645000 -0.040342 0
16.650000 0.192315 0
16.655000 0.499190 0
16.660000 0.825899 0
16.665000 1.084600 0
16.670000 1.187166 3
16.675000 1.094188 0
16.680000 0.835711 0
16.685000 0.492269 0
16.690000 0.152913 0
16.695000 -0.118991 0
16.700000 -0.294588 0
16.705000 -0.372049 4
16.710000 -0.367731 0
16.715000 -0.309676 0
16.720000 -0.229523 0
16.725000 -0.152759 0
16.730000 -0.092470 0
16.735000 -0.049981 0
16.740000 -0.020164 0
16.745000 0.003174 0
16.750000 0.024527 0
16.755000 0.046299 0
16.760000 0.069471 0
16.765000 0.094281 0
16.770000 0.120635 0
16.775000 0.148284 0
16.780000 0.176878 0
16.785000 0.205996 0
16.790000 0.235147 0
16.795000 0.263790 0
16.800000 0.291348 0
16.805000 0.317221 0
16.810000 0.340815 0
16.815000 0.361556 0
16.820000 0.378919 0
16.825000 0.392447 0
16.830000 0.401768 0
16.835000 0.406619 0
16.840000 0.406847 5
16.845000 0.402427 0
16.850000 0.393457 0
16.855000 0.380153 0
16.860000 0.362848 0
16.865000 0.341967 0
16.870000 0.318019 0
16.875000 0.291568 0
16.880000 0.263218 0
16.885000 0.233582 0
16.890000 0.203268 0
16.895000 0.172855 0
16.900000 0.142873 0
16.905000 0.113795 0
16.910000 0.086022 0
16.915000 0.059879 0
16.920000 0.035613 0
16.925000 0.013394 0
16.930000 -0.006682 0
16.935000 -0.024584 0
16.940000 -0.040341 0
16.945000 -0.054026 0
16.950000 -0.065754 0
16.955000 -0.075665 0
16.960000 -0.083918 0
16.965000 -0.090684 0
16.970000 -0.096133 0
16.975000 -0.100436 0
16.980000 -0.103752 0
16.985000 -0.106232 0
16.990000 -0.108013 0
16.995000 -0.109214 0
17.000000 -0.109942 0
17.005000 -0.110290 0
17.010000 -0.110191 0
17.015000 -0.109249 0
17.020000 -0.108312 0
17.025000 -0.107379 0
17.030000 -0.106452 0
17.035000 -0.105528 0
17.040000 -0.104610 0
17.045000 -0.103696 0
17.050000 -0.102786 0
17.055000 -0.101881 0
17.060000 -0.100979 0
17.065000 -0.100081 0
17.070000 -0.099186 0
17.075000 -0.098291 0
17.080000 -0.097394 0
17.085000 -0.096490 0
17.090000 -0.095568 0
17.095000 -0.094613 0
17.100000 -0.093602 0
17.105000 -0.092495 0
17.110000 -0.091234 0
17.115000 -0.089736 0
17.120000 -0.087879 0
17.125000 -0.085501 0
17.130000 -0.082386 0
17.135000 -0.078262 0
17.140000 -0.072801 0
17.145000 -0.065626 0
17.150000 -0.056330 0
17.155000 -0.044512 0
17.160000 -0.029814 0
17.165000 -0.011985 0
17.170000 0.009062 0
17.175000 0.033187 0
17.180000 0.059973 0
17.185000 0.088695 0
17.190000 0.118326 0
17.195000 0.147578 0
17.200000 0.174982 0
17.205000 0.199006 0
17.210000 0.218192 0
17.215000 0.231303 0
17.220000 0.237455 1
17.225000 0.236215 0
17.230000 0.227650 0
17.235000 0.212322 0
17.240000 0.191228 0
17.245000 0.165690 0
17.250000 0.137220 0
17.255000 0.107362 0
17.260000 0.077540 0
17.265000 0.048868 0
17.270000 0.021887 0
17.275000 -0.003840 0
17.280000 -0.030227 0
17.285000 -0.060799 0
17.290000 -0.099617 0
17.295000 -0.148325 0
17.300000 -0.202057 0
17.305000 -0.246805 0
17.310000 -0.260724 2
17.315000 -0.219035 0
17.320000 -0.099958 0
17.325000 0.108568 0
17.330000 0.398240 0
17.335000 0.727209 0
17.340000 1.017559 0
17.345000 1.178610 3
17.350000 1.148681 0
17.355000 0.933978 0
17.360000 0.605547 0
17.365000 0.257384 0
17.370000 -0.035800 0
17.375000 -0.235408 0
17.380000 -0.333797 0
17.385000 -0.344315 4
17.390000 -0.294042 0
17.395000 -0.215736 0
17.400000 -0.137430 0
17.405000 -0.074749 0
17.410000 -0.030467 0
17.415000 0.000227 0
17.420000 0.023800 0
17.425000 0.045083 0
17.430000 0.066697 0
17.435000 0.089711 0
17.440000 0.114393 0
17.445000 0.140649 0
17.450000 0.168220 0
17.455000 0.196746 0
17.460000 0.225786 0
17.465000 0.254830 0
17.470000 0.283316 0
17.475000 0.310643 0
17.480000 0.336191 0
17.485000 0.359346 0
17.490000 0.379519 0
17.495000 0.396179 0
17.500000 0.408863 0
17.505000 0.417210 0
17.510000 0.420966 5
17.515000 0.420005 0
17.520000 0.414330 0
17.525000 0.404073 0
17.530000 0.389494 0
17.535000 0.370964 0
17.540000 0.348953 0
17.545000 0.324007 0
17.550000 0.296727 0
17.555000 0.267742 0
17.560000 0.237688 0
17.565000 0.207184 0
17.570000 0.176810 0
17.575000 0.147090 0
17.580000 0.118482 0
17.585000 0.091364 0
17.590000 0.066036 0
17.595000 0.042711 0
17.600000 0.021527 0
17.605000 0.002545 0
17.610000 -0.014237 0
17.615000 -0.028875 0
17.620000 -0.041471 0
17.625000 -0.052161 0
17.630000 -0.061104 0
17.635000 -0.068470 0
17.640000 -0.074439 0
17.645000 -0.079186 0
17.650000 -0.082881 0
17.655000 -0.085682 0
17.660000 -0.087735 0
17.665000 -0.089168 0
17.670000 -0.090096 0
17.675000 -0.090616 0
17.680000 -0.090661 0
17.685000 -0.089817 0
17.690000 -0.088977 0
17.695000 -0.088141 0
17.700000 -0.087309 0
17.705000 -0.086481 0
17.710000 -0.085657 0
17.715000 -0.084838 0
17.720000 -0.084022 0
17.725000 -0.083210 0
17.730000 -0.082402 0
17.735000 -0.081597 0
17.740000 -0.080794 0
17.745000 -0.079991 0
17.750000 -0.079185 0
17.755000 -0.078370 0
17.760000 -0.077536 0
17.765000 -0.076667 0
17.770000 -0.075736 0
17.775000 -0.074701 0
17.780000 -0.073500 0
17.785000 -0.072039 0
17.790000 -0.070189 0
17.795000 -0.067771 0
17.800000 -0.064550 0
17.805000 -0.060233 0
17.810000 -0.054466 0
17.815000 -0.046851 0
17.820000 -0.036965 0
17.825000 -0.024399 0
17.830000 -0.008810 0
17.835000 0.010015 0
17.840000 0.032095 0
17.845000 0.057190 0
17.850000 0.084751 0
17.855000 0.113909 0
17.860000 0.143485 0
17.865000 0.172056 0
17.870000 0.198057 0
17.875000 0.219920 0
17.880000 0.236227 0
17.885000 0.245861 0
17.890000 0.248131 1
17.895000 0.242856 0
17.900000 0.230385 0
17.905000 0.211559 0
17.910000 0.187617 0
17.915000 0.160060 0
17.920000 0.130490 0
17.925000 0.100446 0
17.930000 0.071221 0
17.935000 0.043615 0
17.940000 0.017558 0
17.945000 -0.008413 0
17.950000 -0.037497 0
17.955000 -0.073952 0
17.960000 -0.120495 0
17.965000 -0.174051 0
17.970000 -0.222284 0
17.975000 -0.243956 2
17.980000 -0.213563 0
17.985000 -0.107623 0
17.990000 0.088437 0
17.995000 0.369701 0
18.000000 0.697563 0
18.005000 0.994767 0
18.010000 1.167198 3
18.015000 1.148182 0
18.020000 0.940207 0
18.025000 0.613884 0
18.030000 0.265402 0
18.035000 -0.028156 0
18.040000 -0.227034 0
18.045000 -0.323559 0
18.050000 -0.331727 4
18.055000 -0.279596 0
18.060000 -0.200712 0
18.065000 -0.123209 0
18.070000 -0.062113 0
18.075000 -0.019408 0
18.080000 0.010207 0
18.085000 0.033271 0
18.090000 0.054460 0
18.095000 0.076203 0
18.100000 0.099442 0
18.105000 0.124372 0
18.110000 0.150860 0
18.115000 0.178621 0
18.120000 0.207267 0
18.125000 0.236331 0
18.130000 0.265279 0
18.135000 0.293523 0
18.140000 0.320440 0
18.145000 0.345395 0
18.150000 0.367763 0
18.155000 0.386955 0
18.160000 0.402442 0
18.165000 0.413782 0
18.170000 0.420636 0
18.175000 0.422786 5
18.180000 0.420147 0
18.185000 0.412769 0
18.190000 0.400836 0
18.195000 0.384658 0
18.200000 0.364657 0
18.205000 0.341348 0
18.210000 0.315318 0
18.215000 0.287196 0
18.220000 0.257634 0
18.225000 0.227279 0
18.230000 0.196747 0
18.235000 0.166609 0
18.240000 0.137370 0
18.245000 0.109459 0
18.250000 0.083223 0
18.255000 0.058922 0
18.260000 0.036733 0
18.265000 0.016752 0
18.270000 -0.000993 0
18.275000 -0.016540 0
18.280000 -0.029973 0
18.285000 -0.041421 0
18.290000 -0.051035 0
18.295000 -0.058990 0
18.300000 -0.065465 0
18.305000 -0.070642 0
18.310000 -0.074699 0
18.315000 -0.077800 0
18.320000 -0.080100 0
18.325000 -0.081736 0
18.330000 -0.082829 0
18.335000 -0.083484 0
18.340000 -0.083791 0
18.345000 -0.083141 0
18.350000 -0.082334 0
18.355000 -0.081531 0
18.360000 -0.080732 0
18.365000 -0.079937 0
18.370000 -0.079146 0
18.375000 -0.078359 0
18.380000 -0.077576 0
18.385000 -0.076797 0
18.390000 -0.076020 0
18.395000 -0.075247 0
18.400000 -0.074476 0
18.405000 -0.073705 0
18.410000 -0.072931 0
18.415000 -0.072148 0
18.420000 -0.071347 0
18.425000 -0.070511 0
18.430000 -0.069613 0
18.435000 -0.068611 0
18.440000 -0.067442 0
18.445000 -0.066009 0
18.450000 -0.064180 0
18.455000 -0.061770 0
18.460000 -0.058538 0
18.465000 -0.054179 0
18.470000 -0.048329 0
18.475000 -0.040575 0
18.480000 -0.030485 0
18.485000 -0.017643 0
18.490000 -0.001709 0
18.495000 0.017517 0
18.500000 0.040022 0
18.505000 0.065518 0
18.510000 0.093394 0
18.515000 0.122702 0
18.520000 0.152185 0
18.525000 0.180347 0
18.530000 0.205572 0
18.535000 0.226274 0
18.540000 0.241055 0
18.545000 0.248866 0
18.550000 0.249125 1
18.555000 0.241790 0
18.560000 0.227365 0
18.565000 0.206840 0
18.570000 0.181583 0
18.575000 0.153180 0
18.580000 0.123272 0
18.585000 0.093372 0
18.590000 0.064661 0
18.595000 0.037688 0
18.600000 0.011908 0
18.605000 -0.014861 0
18.610000 -0.046506 0
18.615000 -0.087177 0
18.620000 -0.137685 0
18.625000 -0.190986 0
18.630000 -0.229997 0
18.635000 -0.230181 2
18.640000 -0.165595 0
18.645000 -0.015621 0
18.650000 0.226389 0
18.655000 0.539395 0
18.660000 0.862316 0
18.665000 1.102022 0
18.670000 1.172244 3
18.675000 1.043951 0
18.680000 0.760636 0
18.685000 0.411067 0
18.690000 0.083546 0
18.695000 -0.165031 0
18.700000 -0.312960 0
18.705000 -0.364251 4
18.710000 -0.340030 0
18.715000 -0.271475 0
18.720000 -0.190263 0
18.725000 -0.118716 0
18.730000 -0.065556 0
18.735000 -0.028899 0
18.740000 -0.002481 0
18.745000 0.019550 0
18.750000 0.040866 0
18.755000 0.063197 0
18.760000 0.087129 0
18.765000 0.112710 0
18.770000 0.139749 0
18.775000 0.167930 0
18.780000 0.196850 0
18.785000 0.226033 0
18.790000 0.254939 0
18.795000 0.282983 0
18.800000 0.309551 0
18.805000 0.334024 0
18.810000 0.355797 0
18.815000 0.374308 0
18.820000 0.389056 0
18.825000 0.399629 0
18.830000 0.405718 0
18.835000 0.407134 5
18.840000 0.403816 0
18.845000 0.395834 0
18.850000 0.383386 0
18.855000 0.366793 0
18.860000 0.346477 0
18.865000 0.322952 0
18.870000 0.296794 0
18.875000 0.268623 0
18.880000 0.239075 0
18.885000 0.208780 0
18.890000 0.178339 0
18.895000 0.148306 0
18.900000 0.119174 0
18.905000 0.091359 0
18.910000 0.065199 0
18.915000 0.040950 0
18.920000 0.018785 0
18.925000 -0.001199 0
18.930000 -0.018973 0
18.935000 -0.034570 0
18.940000 -0.048071 0
18.945000 -0.059597 0
18.950000 -0.069296 0
18.955000 -0.077336 0
18.960000 -0.083892 0
18.965000 -0.089143 0
18.970000 -0.093261 0
18.975000 -0.096411 0
18.980000 -0.098745 0
18.985000 -0.100400 0
18.990000 -0.101497 0
18.995000 -0.102142 0
19.000000 -0.102425 0
19.005000 -0.101693 0
19.010000 -0.100793 0
19.015000 -0.099898 0
19.020000 -0.099008 0
19.025000 -0.098122 0
19.030000 -0.097240 0
19.035000 -0.096363 0
19.040000 -0.095490 0
19.045000 -0.094621 0
19.050000 -0.093756 0
19.055000 -0.092895 0
19.060000 -0.092036 0
19.065000 -0.091179 0
19.070000 -0.090321 0
19.075000 -0.089458 0
19.080000 -0.088581 0
19.085000 -0.087678 0
19.090000 -0.086728 0
19.095000 -0.085696 0
19.100000 -0.084530 0
19.105000 -0.083153 0
19.110000 -0.081454 0
19.115000 -0.079276 0
19.120000 -0.076414 0
19.125000 -0.072601 0
19.130000 -0.067511 0
19.135000 -0.060765 0
19.140000 -0.051945 0
19.145000 -0.040632 0
19.150000 -0.026444 0
19.155000 -0.009098 0
19.160000 0.011523 0
19.165000 0.035307 0
19.170000 0.061855 0
19.175000 0.090446 0
19.180000 0.120040 0
19.185000 0.149316 0
19.190000 0.176760 0
19.195000 0.200785 0
19.200000 0.219884 0
19.205000 0.232779 0
19.210000 0.238570 1
19.215000 0.236832 0
19.220000 0.227668 0
19.225000 0.211700 0
19.230000 0.190000 0
19.235000 0.163964 0
19.240000 0.135172 0
19.245000 0.105213 0
19.250000 0.075519 0
19.255000 0.047155 0
19.260000 0.020514 0
19.265000 -0.005161 0
19.270000 -0.032267 0
19.275000 -0.064769 0
19.280000 -0.106554 0
19.285000 -0.157767 0
19.290000 -0.210569 0
19.295000 -0.247442 2
19.300000 -0.244073 0
19.305000 -0.175252 0
19.310000 -0.021316 0
19.315000 0.223426 0
19.320000 0.537405 0
19.325000 0.860215 0
19.330000 1.100696 0
19.335000 1.174302 3
19.340000 1.047654 0
19.345000 0.763229 0
19.350000 0.413229 0
19.355000 0.088566 0
19.360000 -0.153556 0
19.365000 -0.292709 0
19.370000 -0.334867 4
19.375000 -0.303423 0
19.380000 -0.231383 0
19.385000 -0.150747 0
19.390000 -0.082448 0
19.395000 -0.033138 0
19.400000 0.000559 0
19.405000 0.025352 0
19.410000 0.046831 0
19.415000 0.068216 0
19.420000 0.090894 0
19.425000 0.115260 0
19.430000 0.141263 0
19.435000 0.168655 0
19.440000 0.197073 0
19.445000 0.226068 0
19.450000 0.255118 0
19.455000 0.283641 0
19.460000 0.311014 0
19.465000 0.336593 0
19.470000 0.359739 0
19.475000 0.379841 0
19.480000 0.396346 0
19.485000 0.408779 0
19.490000 0.416769 0
19.495000 0.420063 5
19.500000 0.418542 0
19.505000 0.412224 0
19.510000 0.401267 0
19.515000 0.385957 0
19.520000 0.366701 0
19.525000 0.344004 0
19.530000 0.318448 0
19.535000 0.290665 0
19.540000 0.261314 0
19.545000 0.231054 0
19.550000 0.200517 0
19.555000 0.170289 0
19.560000 0.140895 0
19.565000 0.112780 0
19.570000 0.086310 0
19.575000 0.061759 0
19.580000 0.039316 0
19.585000 0.019090 0
19.590000 0.001115 0
19.595000 -0.014641 0
19.600000 -0.028259 0
19.605000 -0.039865 0
19.610000 -0.049613 0
19.615000 -0.057677 0
19.620000 -0.064240 0
19.625000 -0.069486 0
19.630000 -0.073594 0
19.635000 -0.076734 0
19.640000 -0.079062 0
19.645000 -0.080718 0
19.650000 -0.081824 0
19.655000 -0.082488 0
19.660000 -0.082800 0
19.665000 -0.082155 0
19.670000 -0.081353 0
19.675000 -0.080555 0
19.680000 -0.079761 0
19.685000 -0.078971 0
19.690000 -0.078185 0
19.695000 -0.077403 0
19.700000 -0.076624 0
19.705000 -0.075849 0
19.710000 -0.075078 0
19.715000 -0.074309 0
19.720000 -0.073542 0
19.725000 -0.072776 0
19.730000 -0.072005 0
19.735000 -0.071226 0
19.740000 -0.070426 0
19.745000 -0.069588 0
19.750000 -0.068684 0
19.755000 -0.067668 0
19.760000 -0.066472 0
19.765000 -0.064995 0
19.770000 -0.063093 0
19.775000 -0.060572 0
19.780000 -0.057177 0
19.785000 -0.052587 0
19.790000 -0.046424 0
19.795000 -0.038264 0
19.800000 -0.027666 0
19.805000 -0.014220 0
19.810000 0.002397 0
19.815000 0.022346 0
19.820000 0.045561 0
19.825000 0.071677 0
19.830000 0.099995 0
19.835000 0.129476 0
19.840000 0.158775 0
19.845000 0.186332 0
19.850000 0.210501 0
19.855000 0.229707 0
19.860000 0.242616 0
19.865000 0.248286 1
19.870000 0.246281 0
19.875000 0.236724 0
19.880000 0.220284 0
19.885000 0.198101 0
19.890000 0.171647 0
19.895000 0.142570 0
19.900000 0.112511 0
19.905000 0.082916 0
19.910000 0.054801 0
19.915000 0.028395 0
19.920000 0.002601 0
19.925000 -0.025476 0
19.930000 -0.060165 0
19.935000 -0.104909 0
19.940000 -0.157923 0
19.945000 -0.208043 0
19.950000 -0.234317 2
19.955000 -0.210461 0
19.960000 -0.111575 0
19.965000 0.078563 0
19.970000 0.356506 0
19.975000 0.683902 0
19.980000 0.981420 0
19.985000 1.151452 3
19.990000 1.128091 0
19.995000 0.916384 0
20.000000 0.588389 0
20.005000 0.240641 0
20.010000 -0.050418 0
20.015000 -0.245970 0
20.020000 -0.339140 0
20.025000 -0.344561 4
20.030000 -0.290759 0
20.035000 -0.211402 0
20.040000 -0.134313 0
20.045000 -0.073979 0
20.050000 -0.031939 0
20.055000 -0.002701 0
20.060000 0.020253 0
20.065000 0.041498 0
20.070000 0.063377 0
20.075000 0.086779 0
20.080000 0.111873 0
20.085000 0.138515 0
20.090000 0.166412 0
20.095000 0.195168 0
20.100000 0.224311 0
20.105000 0.253301 0
20.110000 0.281543 0
20.115000 0.308412 0
20.120000 0.333269 0
20.125000 0.355488 0
20.130000 0.374482 0
20.135000 0.389727 0
20.140000 0.400785 0
20.145000 0.407325 0
20.150000 0.409140 5
20.155000 0.406156 0
20.160000 0.398433 0
20.165000 0.386168 0
20.170000 0.369684 0
20.175000 0.349414 0
20.180000 0.325883 0
20.185000 0.299683 0
20.190000 0.271452 0
20.195000 0.241844 0
20.200000 0.211505 0
20.205000 0.181052 0
20.210000 0.151050 0
20.215000 0.121999 0
20.220000 0.094320 0
20.225000 0.068353 0
20.230000 0.044349 0
20.235000 0.022476 0
20.240000 0.002822 0
20.245000 -0.014595 0
20.250000 -0.029816 0
20.255000 -0.042936 0
20.260000 -0.054083 0
20.265000 -0.063416 0
20.270000 -0.071109 0
20.275000 -0.077345 0
20.280000 -0.082305 0
20.285000 -0.086165 0
20.290000 -0.089092 0
20.295000 -0.091235 0
20.300000 -0.092732 0
20.305000 -0.093701 0
20.310000 -0.094246 0
20.315000 -0.094454 0
20.320000 -0.093745 0
20.325000 -0.092885 0
20.330000 -0.092029 0
20.335000 -0.091178 0
20.340000 -0.090331 0
20.345000 -0.089488 0
20.350000 -0.088649 0
20.355000 -0.087815 0
20.360000 -0.086984 0
20.365000 -0.086157 0
20.370000 -0.085333 0
20.375000 -0.084511 0
20.380000 -0.083689 0
20.385000 -0.082864 0
20.390000 -0.082028 0
20.395000 -0.081172 0
20.400000 -0.080277 0
20.405000 -0.079315 0
20.410000 -0.078238 0
20.415000 -0.076978 0
20.420000 -0.075433 0
20.425000 -0.073459 0
20.430000 -0.070862 0
20.435000 -0.067386 0
20.440000 -0.062714 0
20.445000 -0.056469 0
20.450000 -0.048231 0
20.455000 -0.037563 0
20.460000 -0.024060 0
20.465000 -0.007404 0
20.470000 0.012567 0
20.475000 0.035788 0
20.480000 0.061903 0
20.485000 0.090227 0
20.490000 0.119737 0
20.495000 0.149110 0
20.500000 0.176809 0
20.505000 0.201203 0
20.510000 0.220727 0
20.515000 0.234045 0
20.520000 0.240201 1
20.525000 0.238731 0
20.530000 0.229722 0
20.535000 0.213801 0
20.540000 0.192064 0
20.545000 0.165949 0
20.550000 0.137079 0
20.555000 0.107088 0
20.560000 0.077433 0
20.565000 0.049176 0
20.570000 0.022650 0
20.575000 -0.003058 0
20.580000 -0.030601 0
20.585000 -0.064169 0
20.590000 -0.107492 0
20.595000 -0.159758 0
20.600000 -0.211320 0
20.605000 -0.242630 2
20.610000 -0.228037 0
20.615000 -0.142243 0
20.620000 0.032732 0
20.625000 0.297626 0
20.630000 0.621184 0
20.635000 0.931193 0
20.640000 1.131079 0
20.645000 1.145414 3
20.650000 0.966438 0
20.655000 0.654917 0
20.660000 0.303670 0
20.665000 -0.006174 0
20.670000 -0.228136 0
20.675000 -0.348640 0
20.680000 -0.376984 4
20.685000 -0.337642 0
20.690000 -0.262837 0
20.695000 -0.182473 0
20.700000 -0.115321 0
20.705000 -0.066811 0
20.710000 -0.033345 0
20.715000 -0.008455 0
20.720000 0.013199 0
20.725000 0.034722 0
20.730000 0.057478 0
20.735000 0.081877 0
20.740000 0.107890 0
20.745000 0.135291 0
20.750000 0.163743 0
20.755000 0.192825 0
20.760000 0.222047 0
20.765000 0.250861 0
20.770000 0.278675 0
20.775000 0.304875 0
20.780000 0.328846 0
20.785000 0.349992 0
20.790000 0.367766 0
20.795000 0.381687 0
20.800000 0.391365 0
20.805000 0.396518 0
20.810000 0.396984 5
20.815000 0.392730 0
20.820000 0.383853 0
20.825000 0.370576 0
20.830000 0.353240 0
20.835000 0.332286 0
20.840000 0.308240 0
20.845000 0.281687 0
20.850000 0.253248 0
20.855000 0.223558 0
20.860000 0.193239 0
20.865000 0.162883 0
20.870000 0.133031 0
20.875000 0.104160 0
20.880000 0.076670 0
20.885000 0.050884 0
20.890000 0.027041 0
20.895000 0.005300 0
20.900000 -0.014254 0
20.905000 -0.031606 0
20.910000 -0.046796 0
20.915000 -0.059912 0
20.920000 -0.071081 0
20.925000 -0.080452 0
20.930000 -0.088196 0
20.935000 -0.094487 0
20.940000 -0.099504 0
20.945000 -0.103416 0
20.950000 -0.106386 0
20.955000 -0.108564 0
20.960000 -0.110083 0
20.965000 -0.111061 0
20.970000 -0.111603 0
20.975000 -0.111795 0
20.980000 -0.111010 0
20.985000 -0.110064 0
20.990000 -0.109123 0
20.995000 -0.108186 0
21.000000 -0.107254 0
21.005000 -0.106327 0
21.010000 -0.105405 0
21.015000 -0.104486 0
21.020000 -0.103573 0
21.025000 -0.102663 0
21.030000 -0.101757 0
21.035000 -0.100854 0
21.040000 -0.099953 0
21.045000 -0.099051 0
21.050000 -0.098142 0
21.055000 -0.097220 0
21.060000 -0.096270 0
21.065000 -0.095269 0
21.070000 -0.094184 0
21.075000 -0.092959 0
21.080000 -0.091515 0
21.085000 -0.089737 0
21.090000 -0.087466 0
21.095000 -0.084491 0
21.100000 -0.080542 0
21.105000 -0.075290 0
21.110000 -0.068352 0
21.115000 -0.059313 0
21.120000 -0.047754 0
21.125000 -0.033302 0
21.130000 -0.015685 0
21.135000 0.005200 0
21.140000 0.029224 0
21.145000 0.055967 0
21.150000 0.084693 0
21.155000 0.114345 0
21.160000 0.143594 0
21.165000 0.170926 0
21.170000 0.194761 0
21.175000 0.213604 0
21.180000 0.226203 0
21.185000 0.231680 1
21.190000 0.229637 0
21.195000 0.220201 0
21.200000 0.204012 0
21.205000 0.182152 0
21.210000 0.156023 0
21.215000 0.127200 0
21.220000 0.097264 0
21.225000 0.067631 0
21.230000 0.039349 0
21.235000 0.012783 0
21.240000 -0.012855 0
21.245000 -0.039993 0
21.250000 -0.072600 0
21.255000 -0.114519 0
21.260000 -0.165798 0
21.265000 -0.218497 0
21.270000 -0.255066 2
21.275000 -0.251255 0
21.280000 -0.181979 0
21.285000 -0.027708 0
21.290000 0.217166 0
21.295000 0.531136 0
21.300000 0.854100 0
21.305000 1.095326 0
21.310000 1.170444 3
21.315000 1.046745 0
21.320000 0.765346 0
21.325000 0.415979 0
21.330000 0.088483 0
21.335000 -0.159324 0
21.340000 -0.305621 0
21.345000 -0.354807 4
21.350000 -0.328680 0
21.355000 -0.259089 0
21.360000 -0.177994 0
21.365000 -0.107432 0
21.370000 -0.055522 0
21.375000 -0.019875 0
21.380000 0.005962 0
21.385000 0.027784 0
21.390000 0.049118 0
21.395000 0.071575 0
21.400000 0.095670 0
21.405000 0.121415 0
21.410000 0.148596 0
21.415000 0.176880 0
21.420000 0.205847 0
21.425000 0.235000 0
21.430000 0.263785 0
21.435000 0.291600 0
21.440000 0.317820 0
21.445000 0.341814 0
21.450000 0.362976 0
21.455000 0.380742 0
21.460000 0.394622 0
21.465000 0.404218 0
21.470000 0.409239 0
21.475000 0.409525 5
21.480000 0.405042 0
21.485000 0.395896 0
21.490000 0.382319 0
21.495000 0.364665 0
21.500000 0.343391 0
21.505000 0.319039 0
21.510000 0.292209 0
21.515000 0.263538 0
21.520000 0.233673 0
21.525000 0.203248 0
21.530000 0.172861 0
21.535000 0.143055 0
21.540000 0.114305 0
21.545000 0.087010 0
21.550000 0.061484 0
21.555000 0.037955 0
21.560000 0.016572 0
21.565000 -0.002595 0
21.570000 -0.019541 0
21.575000 -0.034319 0
21.580000 -0.047030 0
21.585000 -0.057809 0
21.590000 -0.066816 0
21.595000 -0.074224 0
21.600000 -0.080216 0
21.605000 -0.084969 0
21.610000 -0.088658 0
21.615000 -0.091442 0
21.620000 -0.093470 0
21.625000 -0.094874 0
21.630000 -0.095768 0
21.635000 -0.096254 0
21.640000 -0.096264 0
21.645000 -0.095392 0
21.650000 -0.094524 0
21.655000 -0.093660 0
21.660000 -0.092801 0
21.665000 -0.091946 0
21.670000 -0.091095 0
21.675000 -0.090248 0
21.680000 -0.089405 0
21.685000 -0.088567 0
21.690000 -0.087732 0
21.695000 -0.086900 0
21.700000 -0.086070 0
21.705000 -0.085240 0
21.710000 -0.084406 0
21.715000 -0.083562 0
21.720000 -0.082698 0
21.725000 -0.081794 0
21.730000 -0.080821 0
21.735000 -0.079734 0
21.740000 -0.078464 0
21.745000 -0.076910 0
21.750000 -0.074929 0
21.755000 -0.072329 0
21.760000 -0.068858 0
21.765000 -0.064202 0
21.770000 -0.057991 0
21.775000 -0.049810 0
21.780000 -0.039228 0
21.785000 -0.025841 0
21.790000 -0.009330 0
21.795000 0.010473 0
21.800000 0.033517 0
21.805000 0.059469 0
21.810000 0.087672 0
21.815000 0.117138 0
21.820000 0.146580 0
21.825000 0.174489 0
21.830000 0.199256 0
21.835000 0.219322 0
21.840000 0.233336 0
21.845000 0.240309 1
21.850000 0.239725 0
21.855000 0.231606 0
21.860000 0.216509 0
21.865000 0.195466 0
21.870000 0.169863 0
21.875000 0.141289 0
21.880000 0.111366 0
21.885000 0.081577 0
21.890000 0.053050 0
21.895000 0.026260 0
21.900000 0.000553 0
21.905000 -0.026377 0
21.910000 -0.058482 0
21.915000 -0.099793 0
21.920000 -0.150735 0
21.925000 -0.203722 0
21.930000 -0.241249 2
21.935000 -0.238717 0
21.940000 -0.170480 0
21.945000 -0.016499 0
21.950000 0.228972 0
21.955000 0.543674 0
21.960000 0.865551 0
21.965000 1.101626 0
21.970000 1.167172 3
21.975000 1.034759 0
21.980000 0.750150 0
21.985000 0.400552 0
21.990000 0.072429 0
21.995000 -0.178160 0
22.000000 -0.329350 0
22.005000 -0.384417 4
22.010000 -0.363451 0
22.015000 -0.296656 0
22.020000 -0.215343 0
22.025000 -0.142306 0
22.030000 -0.087205 0
22.035000 -0.048939 0
22.040000 -0.021558 0
22.045000 0.000867 0
22.050000 0.022219 0
22.055000 0.044412 0
22.060000 0.068143 0
22.065000 0.093517 0
22.070000 0.120377 0
22.075000 0.148432 0
22.080000 0.177304 0
22.085000 0.206539 0
22.090000 0.235623 0
22.095000 0.263993 0
22.100000 0.291052 0
22.105000 0.316195 0
22.110000 0.338823 0
22.115000 0.358373 0
22.120000 0.374336 0
22.125000 0.386282 0
22.130000 0.393875 0
22.135000 0.396892 5
22.140000 0.395232 0
22.145000 0.388920 0
22.150000 0.378108 0
22.155000 0.363067 0
22.160000 0.344175 0
22.165000 0.321903 0
22.170000 0.296794 0
22.175000 0.269439 0
22.180000 0.240458 0
22.185000 0.210472 0
22.190000 0.180084 0
22.195000 0.149859 0
22.200000 0.120308 0
22.205000 0.091874 0
22.210000 0.064925 0
22.215000 0.039752 0
22.220000 0.016564 0
22.225000 -0.004507 0
22.230000 -0.023399 0
22.235000 -0.040112 0
22.240000 -0.054702 0
22.245000 -0.067266 0
22.250000 -0.077937 0
22.255000 -0.086867 0
22.260000 -0.094225 0
22.265000 -0.100185 0
22.270000 -0.104919 0
22.275000 -0.108596 0
22.280000 -0.111370 0
22.285000 -0.113386 0
22.290000 -0.114773 0
22.295000 -0.115645 0
22.300000 -0.116099 0
22.305000 -0.116220 0
22.310000 -0.115407 0
22.315000 -0.114439 0
22.320000 -0.113476 0
22.325000 -0.112517 0
22.330000 -0.111564 0
22.335000 -0.110615 0
22.340000 -0.109671 0
22.345000 -0.108732 0
22.350000 -0.107797 0
22.355000 -0.106866 0
22.360000 -0.105939 0
22.365000 -0.105016 0
22.370000 -0.104093 0
22.375000 -0.103170 0
22.380000 -0.102240 0
22.385000 -0.101297 0
22.390000 -0.100326 0
22.395000 -0.099305 0
22.400000 -0.098201 0
22.405000 -0.096959 0
22.410000 -0.095501 0
22.415000 -0.093717 0
22.420000 -0.091452 0
22.425000 -0.088500 0
22.430000 -0.084599 0
22.435000 -0.079429 0
22.440000 -0.072618 0
22.445000 -0.063758 0
22.450000 -0.052439 0
22.455000 -0.038285 0
22.460000 -0.021017 0
22.465000 -0.000511 0
22.470000 0.023136 0
22.475000 0.049553 0
22.480000 0.078057 0
22.485000 0.107657 0
22.490000 0.137084 0
22.495000 0.164871 0
22.500000 0.189468 0
22.505000 0.209380 0
22.510000 0.223319 0
22.515000 0.230339 1
22.520000 0.229946 0
22.525000 0.222151 0
22.530000 0.207473 0
22.535000 0.186883 0
22.540000 0.161695 0
22.545000 0.133428 0
22.550000 0.103650 0
22.555000 0.073816 0
22.560000 0.045081 0
22.565000 0.018037 0
22.570000 -0.007695 0
22.575000 -0.033974 0
22.580000 -0.064311 0
22.585000 -0.102834 0
22.590000 -0.151325 0
22.595000 -0.205036 0
22.600000 -0.249929 0
22.605000 -0.263950 2
22.610000 -0.222018 0
22.615000 -0.102105 0
22.620000 0.107849 0
22.625000 0.398982 0
22.630000 0.728071 0
22.635000 1.015436 0
22.640000 1.169632 3
22.645000 1.133331 0
22.650000 0.916647 0
22.655000 0.588643 0
22.660000 0.239889 0
22.665000 -0.056888 0
22.670000 -0.263026 0
22.675000 -0.369589 0
22.680000 -0.388018 4
22.685000 -0.343311 0
22.690000 -0.266855 0
22.695000 -0.186882 0
22.700000 -0.120606 0
22.705000 -0.072657 0
22.710000 -0.039352 0
22.715000 -0.014428 0
22.720000 0.007276 0
22.725000 0.028794 0
22.730000 0.051489 0
22.735000 0.075786 0
22.740000 0.101679 0
22.745000 0.128961 0
22.750000 0.157315 0
22.755000 0.186348 0
22.760000 0.215592 0
22.765000 0.244529 0
22.770000 0.272593 0
22.775000 0.299195 0
22.780000 0.323739 0
22.785000 0.345645 0
22.790000 0.364371 0
22.795000 0.379433 0
22.800000 0.390429 0
22.805000 0.397054 0
22.810000 0.399113 5
22.815000 0.396533 0
22.820000 0.389361 0
22.825000 0.377771 0
22.830000 0.362047 0
22.835000 0.342578 0
22.840000 0.319839 0
22.845000 0.294372 0
22.850000 0.266763 0
22.855000 0.237622 0
22.860000 0.207558 0
22.865000 0.177160 0
22.870000 0.146978 0
22.875000 0.117507 0
22.880000 0.089177 0
22.885000 0.062344 0
22.890000 0.037288 0
22.895000 0.014208 0
22.900000 -0.006768 0
22.905000 -0.025583 0
22.910000 -0.042239 0
22.915000 -0.056791 0
22.920000 -0.069337 0
22.925000 -0.080005 0
22.930000 -0.088947 0
22.935000 -0.096327 0
22.940000 -0.102317 0
22.945000 -0.107087 0
22.950000 -0.110800 0
22.955000 -0.113612 0
22.960000 -0.115664 0
22.965000 -0.117083 0
22.970000 -0.117983 0
22.975000 -0.118461 0
22.980000 -0.118601 0
22.985000 -0.117780 0
22.990000 -0.116801 0
22.995000 -0.115826 0
23.000000 -0.114856 0
23.005000 -0.113891 0
23.010000 -0.112930 0
23.015000 -0.111975 0
23.020000 -0.111024 0
23.025000 -0.110078 0
23.030000 -0.109136 0
23.035000 -0.108198 0
23.040000 -0.107263 0
23.045000 -0.106330 0
23.050000 -0.105397 0
23.055000 -0.104460 0
23.060000 -0.103511 0
23.065000 -0.102539 0
23.070000 -0.101525 0
23.075000 -0.100438 0
23.080000 -0.099233 0
23.085000 -0.097839 0
23.090000 -0.096159 0
23.095000 -0.094055 0
23.100000 -0.091340 0
23.105000 -0.087777 0
23.110000 -0.083069 0
23.115000 -0.076867 0
23.120000 -0.068780 0
23.125000 -0.058402 0
23.130000 -0.045346 0
23.135000 -0.029294 0
23.140000 -0.010060 0
23.145000 0.012355 0
23.150000 0.037699 0
23.155000 0.065430 0
23.160000 0.094701 0
23.165000 0.124376 0
23.170000 0.153087 0
23.175000 0.179333 0
23.180000 0.201602 0
23.185000 0.218518 0
23.190000 0.228975 0
23.195000 0.232264 1
23.200000 0.228148 0
23.205000 0.216889 0
23.210000 0.199226 0
23.215000 0.176288 0
23.220000 0.149480 0
23.225000 0.120336 0
23.230000 0.090365 0
23.235000 0.060893 0
23.240000 0.032852 0
23.245000 0.006478 0
23.250000 -0.019148 0
23.255000 -0.046535 0
23.260000 -0.079598 0
23.265000 -0.121951 0
23.270000 -0.173396 0
23.275000 -0.226031 0
23.280000 -0.262837 2
23.285000 -0.260426 0
23.290000 -0.194518 0
23.295000 -0.045862 0
23.300000 0.192156 0
23.305000 0.501449 0
23.310000 0.827743 0
23.315000 1.085422 0
23.320000 1.189311 3
23.325000 1.098511 0
23.330000 0.840701 0
23.335000 0.497222 0
23.340000 0.158194 0
23.345000 -0.112486 0
23.350000 -0.286041 0
23.355000 -0.361061 4
23.360000 -0.354510 0
23.365000 -0.295047 0
23.370000 -0.214639 0
23.375000 -0.138596 0
23.380000 -0.079470 0
23.385000 -0.038051 0
23.390000 -0.008942 0
23.395000 0.014063 0
23.400000 0.035339 0
23.405000 0.057171 0
23.410000 0.080457 0
23.415000 0.105393 0
23.420000 0.131864 0
23.425000 0.159602 0
23.430000 0.188247 0
23.435000 0.217359 0
23.440000 0.246437 0
23.445000 0.274925 0
23.450000 0.302235 0
23.455000 0.327758 0
23.460000 0.350894 0
23.465000 0.371070 0
23.470000 0.387761 0
23.475000 0.400521 0
23.480000 0.408990 0
23.485000 0.412921 5
23.490000 0.412186 0
23.495000 0.406783 0
23.500000 0.396836 0
23.505000 0.382592 0
23.510000 0.364407 0
23.515000 0.342735 0
23.520000 0.318104 0
23.525000 0.291099 0
23.530000 0.262334 0
23.535000 0.232433 0
23.540000 0.202004 0
23.545000 0.171623 0
23.550000 0.141812 0
23.555000 0.113031 0
23.560000 0.085664 0
23.565000 0.060019 0
23.570000 0.036321 0
23.575000 0.014720 0
23.580000 -0.004709 0
23.585000 -0.021953 0
23.590000 -0.037059 0
23.595000 -0.050114 0
23.600000 -0.061244 0
23.605000 -0.070600 0
23.610000 -0.078347 0
23.615000 -0.084658 0
23.620000 -0.089707 0
23.625000 -0.093664 0
23.630000 -0.096686 0
23.635000 -0.098920 0
23.640000 -0.100500 0
23.645000 -0.101540 0
23.650000 -0.102144 0
23.655000 -0.102398 0
23.660000 -0.101662 0
23.665000 -0.100763 0
23.670000 -0.099868 0
23.675000 -0.098978 0
23.680000 -0.098092 0
23.685000 -0.097210 0
23.690000 -0.096333 0
23.695000 -0.095460 0
23.700000 -0.094591 0
23.705000 -0.093727 0
23.710000 -0.092866 0
23.715000 -0.092007 0
23.720000 -0.091151 0
23.725000 -0.090293 0
23.730000 -0.089431 0
23.735000 -0.088556 0
23.740000 -0.087657 0
23.745000 -0.086713 0
23.750000 -0.085693 0
23.755000 -0.084548 0
23.760000 -0.083206 0
23.765000 -0.081563 0
23.770000 -0.079473 0
23.775000 -0.076743 0
23.780000 -0.073122 0
23.785000 -0.068302 0
23.790000 -0.061919 0
23.795000 -0.053572 0
23.800000 -0.042846 0
23.805000 -0.029356 0
23.810000 -0.012797 0
23.815000 0.006992 0
23.820000 0.029963 0
23.825000 0.055804 0
23.830000 0.083897 0
23.835000 0.113311 0
23.840000 0.142828 0
23.845000 0.171012 0
23.850000 0.196320 0
23.855000 0.217232 0
23.860000 0.232406 0
23.865000 0.240817 0
23.870000 0.241873 1
23.875000 0.235483 0
23.880000 0.222066 0
23.885000 0.202510 0
23.890000 0.178070 0
23.895000 0.150238 0
23.900000 0.120586 0
23.905000 0.090603 0
23.910000 0.061524 0
23.915000 0.034081 0
23.920000 0.008128 0
23.925000 -0.017864 0
23.930000 -0.047108 0
23.935000 -0.083783 0
23.940000 -0.130459 0
23.945000 -0.183997 0
23.950000 -0.232243 0
23.955000 -0.254412 2
23.960000 -0.225532 0
23.965000 -0.122478 0
23.970000 0.069483 0
23.975000 0.346727 0
23.980000 0.673595 0
23.985000 0.976572 0
23.990000 1.163223 0
23.995000 1.165427 3
24.000000 0.979222 0
24.005000 0.665920 0
24.010000 0.314434 0
24.015000 0.002410 0
24.020000 -0.224822 0
24.025000 -0.352960 0
24.030000 -0.389545 4
24.035000 -0.356792 0
24.040000 -0.285048 0
24.045000 -0.203841 0
24.050000 -0.133262 0
24.055000 -0.080760 0
24.060000 -0.044227 0
24.065000 -0.017664 0
24.070000 0.004515 0
24.075000 0.025873 0
24.080000 0.048143 0
24.085000 0.071944 0
24.090000 0.097360 0
24.095000 0.124231 0
24.100000 0.152275 0
24.105000 0.181121 0
24.110000 0.210331 0
24.115000 0.239408 0
24.120000 0.267805 0
24.125000 0.294946 0
24.130000 0.320243 0
24.135000 0.343113 0
24.140000 0.363006 0
24.145000 0.379421 0
24.150000 0.391930 0
24.155000 0.400193 0
24.160000 0.403976 5
24.165000 0.403161 0
24.170000 0.397748 0
24.175000 0.387861 0
24.180000 0.373739 0
24.185000 0.355726 0
24.190000 0.334259 0
24.195000 0.309849 0
24.200000 0.283059 0
24.205000 0.254485 0
24.210000 0.224732 0
24.215000 0.194393 0
24.220000 0.164031 0
24.225000 0.134161 0
24.230000 0.105239 0
24.235000 0.077651 0
24.240000 0.051708 0
24.245000 0.027646 0
24.250000 0.005624 0
24.255000 -0.014269 0
24.260000 -0.032007 0
24.265000 -0.047620 0
24.270000 -0.061184 0
24.275000 -0.072811 0
24.280000 -0.082643 0
24.285000 -0.090834 0
24.290000 -0.097553 0
24.295000 -0.102968 0
24.300000 -0.107245 0
24.305000 -0.110543 0
24.310000 -0.113009 0
24.315000 -0.114777 0
24.320000 -0.115967 0
24.325000 -0.116684 0
24.330000 -0.117019 0
24.335000 -0.116902 0
24.340000 -0.115927 0
24.345000 -0.114956 0
24.350000 -0.113991 0
24.355000 -0.113030 0
24.360000 -0.112074 0
24.365000 -0.111123 0
24.370000 -0.110176 0
24.375000 -0.109234 0
24.380000 -0.108297 0
24.385000 -0.107363 0
24.390000 -0.106434 0
24.395000 -0.105507 0
24.400000 -0.104582 0
24.405000 -0.103655 0
24.410000 -0.102722 0
24.415000 -0.101775 0
24.420000 -0.100799 0
24.425000 -0.099774 0
24.430000 -0.098664 0
24.435000 -0.097419 0
24.440000 -0.095961 0
24.445000 -0.094184 0
24.450000 -0.091937 0
24.455000 -0.089025 0
24.460000 -0.085196 0
24.465000 -0.080142 0
24.470000 -0.073506 0
24.475000 -0.064896 0
24.480000 -0.053909 0
24.485000 -0.040177 0
24.490000 -0.023410 0
24.495000 -0.003461 0
24.500000 0.019617 0
24.505000 0.045515 0
24.510000 0.073635 0
24.515000 0.103076 0
24.520000 0.132663 0
24.525000 0.161012 0
24.530000 0.186625 0
24.535000 0.208023 0
24.540000 0.223882 0
24.545000 0.233171 0
24.550000 0.235261 1
24.555000 0.229998 0
24.560000 0.217716 0
24.565000 0.199209 0
24.570000 0.175640 0
24.575000 0.148425 0
24.580000 0.119084 0
24.585000 0.089097 0
24.590000 0.059738 0
24.595000 0.031871 0
24.600000 0.005630 0
24.605000 -0.020035 0
24.610000 -0.047762 0
24.615000 -0.081492 0
24.620000 -0.124640 0
24.625000 -0.176550 0
24.630000 -0.228771 0
24.635000 -0.263938 2
24.640000 -0.258712 0
24.645000 -0.189210 0
24.650000 -0.036800 0
24.655000 0.204313 0
24.660000 0.515127 0
24.665000 0.840863 0
24.670000 1.096393 0
24.675000 1.197912 3
24.680000 1.105557 0
24.685000 0.847006 0
24.690000 0.503374 0
24.695000 0.164299 0
24.700000 -0.106650 0
24.705000 -0.280765 0
24.710000 -0.356535 4
24.715000 -0.350722 0
24.720000 -0.291758 0
24.725000 -0.211471 0
24.730000 -0.135213 0
24.735000 -0.075715 0
24.740000 -0.033954 0
24.745000 -0.004632 0
24.750000 0.018451 0
24.755000 0.039712 0
24.760000 0.061478 0
24.765000 0.084679 0
24.770000 0.109525 0
24.775000 0.135910 0
24.780000 0.163573 0
24.785000 0.192158 0
24.790000 0.221232 0
24.795000 0.250298 0
24.800000 0.278807 0
24.805000 0.306173 0
24.810000 0.331794 0
24.815000 0.355070 0
24.820000 0.375428 0
24.825000 0.392345 0
24.830000 0.405367 0
24.835000 0.414133 0
24.840000 0.418388 5
24.845000 0.417994 0
24.850000 0.412939 0
24.855000 0.403338 0
24.860000 0.389425 0
24.865000 0.371548 0
24.870000 0.350148 0
24.875000 0.325746 0
24.880000 0.298918 0
24.885000 0.270276 0
24.890000 0.240438 0
24.895000 0.210012 0
24.900000 0.179576 0
24.905000 0.149655 0
24.910000 0.120715 0
24.915000 0.093146 0
24.920000 0.067262 0
24.925000 0.043299 0
24.930000 0.021413 0
24.935000 0.001689 0
24.940000 -0.015855 0
24.945000 -0.031256 0
24.950000 -0.044598 0
24.955000 -0.056002 0
24.960000 -0.065613 0
24.965000 -0.073596 0
24.970000 -0.080122 0
24.975000 -0.085364 0
24.980000 -0.089492 0
24.985000 -0.092664 0
24.990000 -0.095030 0
24.995000 -0.096722 0
25.000000 -0.097859 0
25.005000 -0.098545 0
25.010000 -0.098869 0
25.015000 -0.098158 0
25.020000 -0.097277 0
25.025000 -0.096399 0
25.030000 -0.095526 0
25.035000 -0.094657 0
25.040000 -0.093793 0
25.045000 -0.092933 0
25.050000 -0.092077 0
25.055000 -0.091225 0
25.060000 -0.090377 0
25.065000 -0.089533 0
25.070000 -0.088692 0
25.075000 -0.087853 0
25.080000 -0.087013 0
25.085000 -0.086169 0
25.090000 -0.085315 0
25.095000 -0.084439 0
25.100000 -0.083524 0
25.105000 -0.082541 0
25.110000 -0.081445 0
25.115000 -0.080171 0
25.120000 -0.078623 0
25.125000 -0.076665 0
25.130000 -0.074118 0
25.135000 -0.070744 0
25.140000 -0.066251 0
25.145000 -0.060288 0
25.150000 -0.052464 0
25.155000 -0.042366 0
25.160000 -0.029598 0
25.165000 -0.013833 0
25.170000 0.005130 0
25.175000 0.027301 0
25.180000 0.052441 0
25.185000 0.080015 0
25.190000 0.109175 0
25.195000 0.138779 0
25.200000 0.167446 0
25.205000 0.193657 0
25.210000 0.215879 0
25.215000 0.232715 0
25.220000 0.243047 0
25.225000 0.246159 1
25.230000 0.241817 0
25.235000 0.230299 0
25.240000 0.212363 0
25.245000 0.189167 0
25.250000 0.162143 0
25.255000 0.132845 0
25.260000 0.102799 0
25.265000 0.073329 0
25.270000 0.045343 0
25.275000 0.019010 0
25.280000 -0.006721 0
25.285000 -0.034540 0
25.290000 -0.068487 0
25.295000 -0.112014 0
25.300000 -0.164242 0
25.305000 -0.216102 0
25.310000 -0.249340 2
25.315000 -0.239813 0
25.320000 -0.163258 0
25.325000 -0.001433 0
25.330000 0.249521 0
25.335000 0.566149 0
25.340000 0.887329 0
25.345000 1.123497 0
25.350000 1.193238 3
25.355000 1.066998 0
25.360000 0.785187 0
25.365000 0.435826 0
25.370000 0.107115 0
25.375000 -0.143631 0
25.380000 -0.294149 0
25.385000 -0.347924 4
25.390000 -0.325604 0
25.395000 -0.258035 0
25.400000 -0.176889 0
25.405000 -0.104817 0
25.410000 -0.050985 0
25.415000 -0.013823 0
25.420000 0.012836 0
25.425000 0.034892 0
25.430000 0.056108 0
25.435000 0.078281 0
25.440000 0.102038 0
25.445000 0.127444 0
25.450000 0.154320 0
25.455000 0.182359 0
25.460000 0.211163 0
25.465000 0.240263 0
25.470000 0.269126 0
25.475000 0.297173 0
25.480000 0.323796 0
25.485000 0.348377 0
25.490000 0.370312 0
25.495000 0.389038 0
25.500000 0.404051 0
25.505000 0.414933 0
25.510000 0.421366 0
25.515000 0.423151 5
25.520000 0.420214 0
25.525000 0.412614 0
25.530000 0.400534 0
25.535000 0.384282 0
25.540000 0.364268 0
25.545000 0.340993 0
25.550000 0.315027 0
25.555000 0.286981 0
25.560000 0.257489 0
25.565000 0.227178 0
25.570000 0.196651 0
25.575000 0.166466 0
25.580000 0.137120 0
25.585000 0.109040 0
25.590000 0.082571 0
25.595000 0.057979 0
25.600000 0.035448 0
25.605000 0.015083 0
25.610000 -0.003078 0
25.615000 -0.019058 0
25.620000 -0.032932 0
25.625000 -0.044816 0
25.630000 -0.054854 0
25.635000 -0.063209 0
25.640000 -0.070055 0
25.645000 -0.075570 0
25.650000 -0.079928 0
25.655000 -0.083293 0
25.660000 -0.085819 0
25.665000 -0.087645 0
25.670000 -0.088895 0
25.675000 -0.089675 0
25.680000 -0.090079 0
25.685000 -0.090048 0
25.690000 -0.089207 0
25.695000 -0.088369 0
25.700000 -0.087536 0
25.705000 -0.086708 0
25.710000 -0.085883 0
25.715000 -0.085062 0
25.720000 -0.084246 0
25.725000 -0.083433 0
25.730000 -0.082624 0
25.735000 -0.081818 0
25.740000 -0.081015 0
25.745000 -0.080214 0
25.750000 -0.079412 0
25.755000 -0.078606 0
25.760000 -0.077788 0
25.765000 -0.076948 0
25.770000 -0.076065 0
25.775000 -0.075110 0
25.780000 -0.074035 0
25.785000 -0.072771 0
25.790000 -0.071214 0
25.795000 -0.069222 0
25.800000 -0.066602 0
25.805000 -0.063105 0
25.810000 -0.058419 0
25.815000 -0.052180 0
25.820000 -0.043980 0
25.825000 -0.033398 0
25.830000 -0.020040 0
25.835000 -0.003594 0
25.840000 0.016109 0
25.845000 0.039022 0
25.850000 0.064830 0
25.855000 0.092902 0
25.860000 0.122289 0
25.865000 0.151746 0
25.870000 0.179811 0
25.875000 0.204911 0
25.880000 0.225508 0
25.885000 0.240250 0
25.890000 0.248121 0
25.895000 0.248552 1
25.900000 0.241492 0
25.905000 0.227410 0
25.910000 0.207250 0
25.915000 0.182319 0
25.920000 0.154150 0
25.925000 0.124338 0
25.930000 0.094376 0
25.935000 0.065465 0
25.940000 0.038246 0
25.945000 0.012390 0
25.950000 -0.013929 0
25.955000 -0.044237 0
25.960000 -0.082737 0
25.965000 -0.131287 0
25.970000 -0.185088 0
25.975000 -0.229825 0
25.980000 -0.243004 2
25.985000 -0.199131 0
25.990000 -0.076006 0
25.995000 0.138045 0
26.000000 0.432640 0
26.005000 0.761638 0
26.010000 1.042242 0
26.015000 1.182384 3
26.020000 1.128113 0
26.025000 0.895707 0
26.030000 0.560545 0
26.035000 0.215214 0
26.040000 -0.069854 0
26.045000 -0.259965 0
26.050000 -0.349882 0
26.055000 -0.354249 4
26.060000 -0.300644 0
26.065000 -0.221474 0
26.070000 -0.143786 0
26.075000 -0.082147 0
26.080000 -0.038682 0
26.085000 -0.008410 0
26.090000 0.015038 0
26.095000 0.036346 0
26.100000 0.058037 0
26.105000 0.081135 0
26.110000 0.105890 0
26.115000 0.132207 0
26.120000 0.159829 0
26.125000 0.188397 0
26.130000 0.217476 0
26.135000 0.246564 0
26.140000 0.275103 0
26.145000 0.302502 0
26.150000 0.328147 0
26.155000 0.351430 0
26.160000 0.371770 0
26.165000 0.388636 0
26.170000 0.401571 0
26.175000 0.410208 0
26.180000 0.414294 5
26.185000 0.413694 0
26.190000 0.408401 0
26.195000 0.398539 0
26.200000 0.384353 0
26.205000 0.366203 0
26.210000 0.344543 0
26.215000 0.319909 0
26.220000 0.292888 0
26.225000 0.264103 0
26.230000 0.234181 0
26.235000 0.203737 0
26.240000 0.173351 0
26.245000 0.143550 0
26.250000 0.114794 0
26.255000 0.087471 0
26.260000 0.061888 0
26.265000 0.038268 0
26.270000 0.016760 0
26.275000 -0.002564 0
26.280000 -0.019694 0
26.285000 -0.034680 0
26.290000 -0.047614 0
26.295000 -0.058624 0
26.300000 -0.067864 0
26.305000 -0.075501 0
26.310000 -0.081711 0
26.315000 -0.086669 0
26.320000 -0.090545 0
26.325000 -0.093497 0
26.330000 -0.095672 0
26.335000 -0.097203 0
26.340000 -0.098205 0
26.345000 -0.098779 0
26.350000 -0.099011 0
26.355000 -0.098286 0
26.360000 -0.097404 0
26.365000 -0.096526 0
26.370000 -0.095652 0
26.375000 -0.094783 0
26.380000 -0.093918 0
26.385000 -0.093057 0
26.390000 -0.092200 0
26.395000 -0.091348 0
26.400000 -0.090499 0
26.405000 -0.089654 0
26.410000 -0.088811 0
26.415000 -0.087970 0
26.420000 -0.087127 0
26.425000 -0.086278 0
26.430000 -0.085414 0
26.435000 -0.084522 0
26.440000 -0.083580 0
26.445000 -0.082552 0
26.450000 -0.081386 0
26.455000 -0.080000 0
26.460000 -0.078283 0
26.465000 -0.076076 0
26.470000 -0.073171 0
26.475000 -0.069300 0
26.480000 -0.064139 0
26.485000 -0.057308 0
26.490000 -0.048397 0
26.495000 -0.036989 0
26.500000 -0.022712 0
26.505000 -0.005290 0
26.510000 0.015388 0
26.515000 0.039205 0
26.520000 0.065760 0
26.525000 0.094339 0
26.530000 0.123913 0
26.535000 0.153178 0
26.540000 0.180638 0
26.545000 0.204726 0
26.550000 0.223949 0
26.555000 0.237039 0
26.560000 0.243091 1
26.565000 0.241666 0
26.570000 0.232843 0
26.575000 0.217213 0
26.580000 0.195811 0
26.585000 0.170003 0
26.590000 0.141340 0
26.595000 0.111399 0
26.600000 0.081614 0
26.605000 0.053080 0
26.610000 0.026263 0
26.615000 0.000554 0
26.620000 -0.026231 0
26.625000 -0.057881 0
26.630000 -0.098403 0
26.635000 -0.148646 0
26.640000 -0.202071 0
26.645000 -0.242602 0
26.650000 -0.246843 2
26.655000 -0.189615 0
26.660000 -0.050197 0
26.665000 0.180020 0
26.670000 0.485244 0
26.675000 0.812620 0
26.680000 1.075519 0
26.685000 1.185448 3
26.690000 1.097510 0
26.695000 0.838197 0
26.700000 0.493416 0
26.705000 0.157428 0
26.710000 -0.104876 0
26.715000 -0.266240 0
26.720000 -0.327897 4
26.725000 -0.309972 0
26.730000 -0.243984 0
26.735000 -0.162971 0
26.740000 -0.090808 0
26.745000 -0.037182 0
26.750000 -0.000435 0
26.755000 0.025851 0
26.760000 0.047714 0
26.765000 0.068909 0
26.770000 0.091176 0
26.775000 0.115084 0
26.780000 0.140661 0
26.785000 0.167698 0
26.790000 0.195860 0
26.795000 0.224721 0
26.800000 0.253780 0
26.805000 0.282471 0
26.810000 0.310186 0
26.815000 0.336287 0
26.820000 0.360135 0
26.825000 0.381114 0
26.830000 0.398654 0
26.835000 0.412259 0
26.840000 0.421529 0
26.845000 0.426176 5
26.850000 0.426044 0
26.855000 0.421110 0
26.860000 0.411489 0
26.865000 0.397430 0
26.870000 0.379303 0
26.875000 0.357580 0
26.880000 0.332820 0
26.885000 0.305639 0
26.890000 0.276686 0
26.895000 0.246618 0
26.900000 0.216075 0
26.905000 0.185657 0
26.910000 0.155906 0
26.915000 0.127294 0
26.920000 0.100209 0
26.925000 0.074955 0
26.930000 0.051749 0
26.935000 0.030726 0
26.940000 0.011942 0
26.945000 -0.004610 0
26.950000 -0.018997 0
26.955000 -0.031330 0
26.960000 -0.041751 0
26.965000 -0.050429 0
26.970000 -0.057543 0
26.975000 -0.063276 0
26.980000 -0.067810 0
26.985000 -0.071316 0
26.990000 -0.073956 0
26.995000 -0.075874 0
27.000000 -0.077199 0
27.005000 -0.078044 0
27.010000 -0.078505 0
27.015000 -0.078526 0
27.020000 -0.077742 0
27.025000 -0.076962 0
27.030000 -0.076186 0
27.035000 -0.075414 0
27.040000 -0.074645 0
27.045000 -0.073881 0
27.050000 -0.073120 0
27.055000 -0.072363 0
27.060000 -0.071609 0
27.065000 -0.070858 0
27.070000 -0.070109 0
27.075000 -0.069362 0
27.080000 -0.068612 0
27.085000 -0.067856 0
27.090000 -0.067085 0
27.095000 -0.066285 0
27.100000 -0.065434 0
27.105000 -0.064493 0
27.110000 -0.063407 0
27.115000 -0.062090 0
27.120000 -0.060422 0
27.125000 -0.058231 0
27.130000 -0.055294 0
27.135000 -0.051323 0
27.140000 -0.045966 0
27.145000 -0.038821 0
27.150000 -0.029453 0
27.155000 -0.017433 0
27.160000 -0.002390 0
27.165000 0.015921 0
27.170000 0.037554 0
27.175000 0.062296 0
27.180000 0.089619 0
27.185000 0.118655 0
27.190000 0.148209 0
27.195000 0.176825 0
27.200000 0.202890 0
27.205000 0.224781 0
27.210000 0.241032 0
27.215000 0.250490 0
27.220000 0.252452 1
27.225000 0.246750 0
27.230000 0.233774 0
27.235000 0.214425 0
27.240000 0.190011 0
27.245000 0.162101 0
27.250000 0.132351 0
27.255000 0.102328 0
27.260000 0.073305 0
27.265000 0.045990 0
27.270000 0.020082 0
27.275000 -0.006285 0
27.280000 -0.036769 0
27.285000 -0.075707 0
27.290000 -0.124820 0
27.295000 -0.178586 0
27.300000 -0.221386 0
27.305000 -0.229324 2
27.310000 -0.176028 0
27.315000 -0.039448 0
27.320000 0.189910 0
27.325000 0.495753 0
27.330000 0.822287 0
27.335000 1.078337 0
27.340000 1.173108 3
27.345000 1.066799 0
27.350000 0.795438 0
27.355000 0.447823 0
27.360000 0.116602 0
27.365000 -0.136928 0
27.370000 -0.288638 0
27.375000 -0.341844 4
27.380000 -0.318031 0
27.385000 -0.249303 0
27.390000 -0.168248 0
27.395000 -0.097518 0
27.400000 -0.045548 0
27.405000 -0.009971 0
27.410000 0.015759 0
27.415000 0.037504 0
27.420000 0.058808 0
27.425000 0.081270 0
27.430000 0.105390 0
27.435000 0.131167 0
27.440000 0.158378 0
27.445000 0.186678 0
27.450000 0.215636 0
27.455000 0.244744 0
27.460000 0.273432 0
27.465000 0.301089 0
27.470000 0.327077 0
27.475000 0.350757 0
27.480000 0.371516 0
27.485000 0.388791 0
27.490000 0.402093 0
27.495000 0.411032 0
27.500000 0.415330 5
27.505000 0.414843 0
27.510000 0.409559 0
27.515000 0.399605 0
27.520000 0.385241 0
27.525000 0.366845 0
27.530000 0.344899 0
27.535000 0.319966 0
27.540000 0.292665 0
27.545000 0.263647 0
27.550000 0.233569 0
27.555000 0.203067 0
27.560000 0.172736 0
27.565000 0.143115 0
27.570000 0.114666 0
27.575000 0.087772 0
27.580000 0.062729 0
27.585000 0.039747 0
27.590000 0.018954 0
27.595000 0.000402 0
27.600000 -0.015923 0
27.605000 -0.030091 0
27.610000 -0.042215 0
27.615000 -0.052442 0
27.620000 -0.060939 0
27.625000 -0.067888 0
27.630000 -0.073471 0
27.635000 -0.077869 0
27.640000 -0.081254 0
27.645000 -0.083784 0
27.650000 -0.085603 0
27.655000 -0.086839 0
27.660000 -0.087603 0
27.665000 -0.087991 0
27.670000 -0.087335 0
27.675000 -0.086508 0
27.680000 -0.085684 0
27.685000 -0.084864 0
27.690000 -0.084049 0
27.695000 -0.083237 0
27.700000 -0.082430 0
27.705000 -0.081626 0
27.710000 -0.080826 0
27.715000 -0.080030 0
27.720000 -0.079237 0
27.725000 -0.078447 0
27.730000 -0.077657 0
27.735000 -0.076866 0
27.740000 -0.076068 0
27.745000 -0.075254 0
27.750000 -0.074410 0
27.755000 -0.073513 0
27.760000 -0.072523 0
27.765000 -0.071383 0
27.770000 -0.070006 0
27.775000 -0.068266 0
27.780000 -0.065991 0
27.785000 -0.062952 0
27.790000 -0.058855 0
27.795000 -0.053348 0
27.800000 -0.046022 0
27.805000 -0.036444 0
27.810000 -0.024187 0
27.815000 -0.008886 0
27.820000 0.009693 0
27.825000 0.031587 0
27.830000 0.056564 0
27.835000 0.084073 0
27.840000 0.113223 0
27.845000 0.142799 0
27.850000 0.171331 0
27.855000 0.197203 0
27.860000 0.218797 0
27.865000 0.234664 0
27.870000 0.243676 0
27.875000 0.245167 1
27.880000 0.239004 0
27.885000 0.225613 0
27.890000 0.205925 0
27.895000 0.181270 0
27.900000 0.153225 0
27.905000 0.123448 0
27.910000 0.093489 0
27.915000 0.064598 0
27.920000 0.037429 0
27.925000 0.011602 0
27.930000 -0.014866 0
27.935000 -0.045726 0
27.940000 -0.085270 0
27.945000 -0.134899 0
27.950000 -0.188510 0
27.955000 -0.229872 0
27.960000 -0.234755 2
27.965000 -0.176869 0
27.970000 -0.034673 0
27.975000 0.200184 0
27.980000 0.509337 0
27.985000 0.834469 0
27.990000 1.083152 0
27.995000 1.166318 3
28.000000 1.048677 0
28.005000 0.770580 0
28.010000 0.421738 0
28.015000 0.093165 0
28.020000 -0.156108 0
28.025000 -0.303579 0
28.030000 -0.353426 4
28.035000 -0.327514 0
28.040000 -0.257919 0
28.045000 -0.176845 0
28.050000 -0.106437 0
28.055000 -0.054767 0
28.060000 -0.019341 0
28.065000 0.006362 0
28.070000 0.028140 0
28.075000 0.049493 0
28.080000 0.072002 0
28.085000 0.096162 0
28.090000 0.121974 0
28.095000 0.149216 0
28.100000 0.177548 0
28.105000 0.206541 0
28.110000 0.235694 0
28.115000 0.264442 0
28.120000 0.292178 0
28.125000 0.318270 0
28.130000 0.342083 0
28.135000 0.363007 0
28.140000 0.380482 0
28.145000 0.394017 0
28.150000 0.403220 0
28.155000 0.407811 5
28.160000 0.407638 0
28.165000 0.402682 0
28.170000 0.393061 0
28.175000 0.379025 0
28.180000 0.360941 0
28.185000 0.339282 0
28.190000 0.314601 0
28.195000 0.287509 0
28.200000 0.258652 0
28.205000 0.228680 0
28.210000 0.198230 0
28.215000 0.167898 0
28.220000 0.138221 0
28.225000 0.109669 0
28.230000 0.082631 0
28.235000 0.057409 0
28.240000 0.034221 0
28.245000 0.013204 0
28.250000 -0.005583 0
28.255000 -0.022146 0
28.260000 -0.036548 0
28.265000 -0.048896 0
28.270000 -0.059333 0
28.275000 -0.068023 0
28.280000 -0.075143 0
28.285000 -0.080876 0
28.290000 -0.085402 0
28.295000 -0.088893 0
28.300000 -0.091508 0
28.305000 -0.093393 0
28.310000 -0.094678 0
28.315000 -0.095476 0
28.320000 -0.095883 0
28.325000 -0.095840 0
28.330000 -0.094970 0
28.335000 -0.094104 0
28.340000 -0.093243 0
28.345000 -0.092385 0
28.350000 -0.091532 0
28.355000 -0.090683 0
28.360000 -0.089839 0
28.365000 -0.088998 0
28.370000 -0.088161 0
28.375000 -0.087328 0
