0.000000 1.162811 3
0.005000 1.052670 0
0.010000 0.775315 0
0.015000 0.419960 0
0.020000 0.079935 0
0.025000 -0.182325 0
0.030000 -0.341513 0
0.035000 -0.400000 4
0.040000 -0.378567 0
0.045000 -0.309051 0
0.050000 -0.224554 0
0.055000 -0.148964 0
0.060000 -0.092061 0
0.065000 -0.052305 0
0.070000 -0.023310 0
0.075000 0.001018 0
0.080000 0.024514 0
0.085000 0.048966 0
0.090000 0.074946 0
0.095000 0.102452 0
0.100000 0.131228 0
0.105000 0.160891 0
0.110000 0.190968 0
0.115000 0.220919 0
0.120000 0.250149 0
0.125000 0.278027 0
0.130000 0.303911 0
0.135000 0.327169 0
0.140000 0.347203 0
0.145000 0.363479 0
0.150000 0.375545 0
0.155000 0.383054 0
0.160000 0.385781 5
0.165000 0.383631 0
0.170000 0.376648 0
0.175000 0.365009 0
0.180000 0.349020 0
0.185000 0.329099 0
0.190000 0.305761 0
0.195000 0.279593 0
0.200000 0.251229 0
0.205000 0.221327 0
0.210000 0.190543 0
0.215000 0.159506 0
0.220000 0.128799 0
0.225000 0.098942 0
0.230000 0.070382 0
0.235000 0.043479 0
0.240000 0.018512 0
0.245000 -0.004329 0
0.250000 -0.024933 0
0.255000 -0.043262 0
0.260000 -0.059342 0
0.265000 -0.073252 0
0.270000 -0.085114 0
0.275000 -0.095077 0
0.280000 -0.103314 0
0.285000 -0.110007 0
0.290000 -0.115340 0
0.295000 -0.119492 0
0.300000 -0.122636 0
0.305000 -0.124929 0
0.310000 -0.126514 0
0.315000 -0.127518 0
0.320000 -0.128052 0
0.325000 -0.128030 0
0.330000 -0.126958 0
0.335000 -0.125892 0
0.340000 -0.124831 0
0.345000 -0.123775 0
0.350000 -0.122724 0
0.355000 -0.121678 0
0.360000 -0.120638 0
0.365000 -0.119602 0
0.370000 -0.118571 0
0.375000 -0.117543 0
0.380000 -0.116518 0
0.385000 -0.115493 0
0.390000 -0.114464 0
0.395000 -0.113423 0
0.400000 -0.112356 0
0.405000 -0.111244 0
0.410000 -0.110051 0
0.415000 -0.108727 0
0.420000 -0.107191 0
0.425000 -0.105332 0
0.430000 -0.102991 0
0.435000 -0.099957 0
0.440000 -0.095958 0
0.445000 -0.090658 0
0.450000 -0.083665 0
0.455000 -0.074549 0
0.460000 -0.062874 0
0.465000 -0.048244 0
0.470000 -0.030363 0
0.475000 -0.009108 0
0.480000 0.015406 0
0.485000 0.042765 0
0.490000 0.072219 0
0.495000 0.102689 0
0.500000 0.132801 0
0.505000 0.160983 0
0.510000 0.185593 0
0.515000 0.205074 0
0.520000 0.218116 0
0.525000 0.223806 1
0.530000 0.221729 0
0.535000 0.212025 0
0.540000 0.195368 0
0.545000 0.172893 0
0.550000 0.146067 0
0.555000 0.116529 0
0.560000 0.085915 0
0.565000 0.055657 0
0.570000 0.026733 0
0.575000 -0.000729 0
0.580000 -0.028001 0
0.585000 -0.058168 0
0.590000 -0.095558 0
0.595000 -0.143194 0
0.600000 -0.198415 0
0.605000 -0.249073 0
0.610000 -0.273594 2
0.615000 -0.245631 0
0.620000 -0.140626 0
0.625000 0.057048 0
0.630000 0.343205 0
0.635000 0.678989 0
0.640000 0.985151 0
0.645000 1.164140 3
0.650000 1.145348 0
0.655000 0.930929 0
0.660000 0.595465 0
0.665000 0.239826 0
0.670000 -0.056331 0
0.675000 -0.253067 0
0.680000 -0.343928 0
0.685000 -0.344900 4
0.690000 -0.286303 0
0.695000 -0.203282 0
0.700000 -0.124121 0
0.705000 -0.062770 0
0.710000 -0.019909 0
0.715000 0.010517 0
0.720000 0.035152 0
0.725000 0.058431 0
0.730000 0.082505 0
0.735000 0.108104 0
0.740000 0.135277 0
0.745000 0.163780 0
0.750000 0.193224 0
0.755000 0.223124 0
0.760000 0.252921 0
0.765000 0.281999 0
0.770000 0.309705 0
0.775000 0.335371 0
0.780000 0.358340 0
0.785000 0.377995 0
0.790000 0.393785 0
0.795000 0.405249 0
0.800000 0.412040 0
0.805000 0.413938 5
0.810000 0.410865 0
0.815000 0.402889 0
0.820000 0.390219 0
0.825000 0.373194 0
0.830000 0.352274 0
0.835000 0.328011 0
0.840000 0.301030 0
0.845000 0.272000 0
0.850000 0.241604 0
0.855000 0.210517 0
0.860000 0.179379 0
0.865000 0.148775 0
0.870000 0.119216 0
0.875000 0.091133 0
0.880000 0.064867 0
0.885000 0.040666 0
0.890000 0.018691 0
0.895000 -0.000978 0
0.900000 -0.018336 0
0.905000 -0.033438 0
0.910000 -0.046391 0
0.915000 -0.057338 0
0.920000 -0.066448 0
0.925000 -0.073908 0
0.930000 -0.079908 0
0.935000 -0.084637 0
0.940000 -0.088278 0
0.945000 -0.090998 0
0.950000 -0.092953 0
0.955000 -0.094278 0
0.960000 -0.095093 0
0.965000 -0.095309 0
0.970000 -0.094400 0
0.975000 -0.093496 0
0.980000 -0.092596 0
0.985000 -0.091701 0
0.990000 -0.090810 0
0.995000 -0.089924 0
1.000000 -0.089042 0
1.005000 -0.088164 0
1.010000 -0.087289 0
1.015000 -0.086418 0
1.020000 -0.085548 0
1.025000 -0.084678 0
1.030000 -0.083802 0
1.035000 -0.082914 0
1.040000 -0.081998 0
1.045000 -0.081033 0
1.050000 -0.079983 0
1.055000 -0.078792 0
1.060000 -0.077375 0
1.065000 -0.075610 0
1.070000 -0.073326 0
1.075000 -0.070295 0
1.080000 -0.066223 0
1.085000 -0.060748 0
1.090000 -0.053455 0
1.095000 -0.043891 0
1.100000 -0.031609 0
1.105000 -0.016218 0
1.110000 0.002545 0
1.115000 0.024741 0
1.120000 0.050156 0
1.125000 0.078244 0
1.130000 0.108103 0
1.135000 0.138487 0
1.140000 0.167876 0
1.145000 0.194589 0
1.150000 0.216938 0
1.155000 0.233403 0
1.160000 0.242802 0
1.165000 0.244431 1
1.170000 0.238152 0
1.175000 0.224408 0
1.180000 0.204175 0
1.185000 0.178846 0
1.190000 0.150069 0
1.195000 0.119565 0
1.200000 0.088927 0
1.205000 0.059373 0
1.210000 0.031388 0
1.215000 0.004174 0
1.220000 -0.024905 0
1.225000 -0.060137 0
1.230000 -0.105379 0
1.235000 -0.159713 0
1.240000 -0.212883 0
1.245000 -0.244230 2
1.250000 -0.226837 0
1.255000 -0.134449 0
1.260000 0.051034 0
1.265000 0.328640 0
1.270000 0.662495 0
1.275000 0.973707 0
1.280000 1.161109 3
1.285000 1.151502 0
1.290000 0.944390 0
1.295000 0.612000 0
1.300000 0.255356 0
1.305000 -0.044269 0
1.310000 -0.245274 0
1.315000 -0.340086 0
1.320000 -0.344002 4
1.325000 -0.286998 0
1.330000 -0.204309 0
1.335000 -0.124691 0
1.340000 -0.062662 0
1.345000 -0.019267 0
1.350000 0.011446 0
1.355000 0.036175 0
1.360000 0.059445 0
1.365000 0.083471 0
1.370000 0.109014 0
1.375000 0.136136 0
1.380000 0.164599 0
1.385000 0.194016 0
1.390000 0.223903 0
1.395000 0.253702 0
1.400000 0.282798 0
1.405000 0.310536 0
1.410000 0.336247 0
1.415000 0.359275 0
1.420000 0.378998 0
1.425000 0.394863 0
1.430000 0.406407 0
1.435000 0.413278 0
1.440000 0.415256 5
1.445000 0.412259 0
1.450000 0.404352 0
1.455000 0.391742 0
1.460000 0.374769 0
1.465000 0.353890 0
1.470000 0.329658 0
1.475000 0.302697 0
1.480000 0.273678 0
1.485000 0.243285 0
1.490000 0.212194 0
1.495000 0.181047 0
1.500000 0.150430 0
1.505000 0.120856 0
1.510000 0.092757 0
1.515000 0.066474 0
1.520000 0.042258 0
1.525000 0.020269 0
1.530000 0.000588 0
1.535000 -0.016780 0
1.540000 -0.031890 0
1.545000 -0.044849 0
1.550000 -0.055800 0
1.555000 -0.064915 0
1.560000 -0.072377 0
1.565000 -0.078379 0
1.570000 -0.083111 0
1.575000 -0.086753 0
1.580000 -0.089475 0
1.585000 -0.091432 0
1.590000 -0.092760 0
1.595000 -0.093578 0
1.600000 -0.093799 0
1.605000 -0.092898 0
1.610000 -0.092001 0
1.615000 -0.091109 0
1.620000 -0.090221 0
1.625000 -0.089338 0
1.630000 -0.088459 0
1.635000 -0.087584 0
1.640000 -0.086713 0
1.645000 -0.085846 0
1.650000 -0.084982 0
1.655000 -0.084119 0
1.660000 -0.083256 0
1.665000 -0.082387 0
1.670000 -0.081505 0
1.675000 -0.080595 0
1.680000 -0.079636 0
1.685000 -0.078590 0
1.690000 -0.077401 0
1.695000 -0.075983 0
1.700000 -0.074213 0
1.705000 -0.071918 0
1.710000 -0.068868 0
1.715000 -0.064766 0
1.720000 -0.059248 0
1.725000 -0.051896 0
1.730000 -0.042258 0
1.735000 -0.029884 0
1.740000 -0.014387 0
1.745000 0.004491 0
1.750000 0.026803 0
1.755000 0.052322 0
1.760000 0.080491 0
1.765000 0.110389 0
1.770000 0.140759 0
1.775000 0.170067 0
1.780000 0.196628 0
1.785000 0.218753 0
1.790000 0.234931 0
1.795000 0.243996 0
1.800000 0.245267 1
1.805000 0.238629 0
1.810000 0.224554 0
1.815000 0.204042 0
1.820000 0.178503 0
1.825000 0.149597 0
1.830000 0.119046 0
1.835000 0.088433 0
1.840000 0.058951 0
1.845000 0.031035 0
1.850000 0.003800 0
1.855000 -0.025498 0
1.860000 -0.061207 0
1.865000 -0.107056 0
1.870000 -0.161707 0
1.875000 -0.214274 0
1.880000 -0.243546 2
1.885000 -0.222402 0
1.890000 -0.124807 0
1.895000 0.066588 0
1.900000 0.349148 0
1.905000 0.684306 0
1.910000 0.990649 0
1.915000 1.166946 3
1.920000 1.143787 0
1.925000 0.926337 0
1.930000 0.589773 0
1.935000 0.234463 0
1.940000 -0.060801 0
1.945000 -0.256694 0
1.950000 -0.347014 0
1.955000 -0.347765 4
1.960000 -0.289144 0
1.965000 -0.206126 0
1.970000 -0.126880 0
1.975000 -0.065366 0
1.980000 -0.022331 0
1.985000 0.008218 0
1.990000 0.032910 0
1.995000 0.056197 0
2.000000 0.080253 0
2.005000 0.105823 0
2.010000 0.132966 0
2.015000 0.161444 0
2.020000 0.190873 0
2.025000 0.220773 0
2.030000 0.250591 0
2.035000 0.279715 0
2.040000 0.307496 0
2.045000 0.333270 0
2.050000 0.356383 0
2.055000 0.376218 0
2.060000 0.392224 0
2.065000 0.403936 0
2.070000 0.411002 0
2.075000 0.413198 5
2.080000 0.410436 0
2.085000 0.402775 0
2.090000 0.390413 0
2.095000 0.373682 0
2.100000 0.353029 0
2.105000 0.329000 0
2.110000 0.302210 0
2.115000 0.273323 0
2.120000 0.243020 0
2.125000 0.211972 0
2.130000 0.180821 0
2.135000 0.150152 0
2.140000 0.120484 0
2.145000 0.092252 0
2.150000 0.065803 0
2.155000 0.041394 0
2.160000 0.019193 0
2.165000 -0.000713 0
2.170000 -0.018310 0
2.175000 -0.033649 0
2.180000 -0.046829 0
2.185000 -0.057991 0
2.190000 -0.067301 0
2.195000 -0.074941 0
2.200000 -0.081101 0
2.205000 -0.085972 0
2.210000 -0.089733 0
2.215000 -0.092556 0
2.220000 -0.094595 0
2.225000 -0.095989 0
2.230000 -0.096859 0
2.235000 -0.097310 0
2.240000 -0.096588 0
2.245000 -0.095673 0
2.250000 -0.094763 0
2.255000 -0.093857 0
2.260000 -0.092955 0
2.265000 -0.092058 0
2.270000 -0.091165 0
2.275000 -0.090277 0
2.280000 -0.089392 0
2.285000 -0.088511 0
2.290000 -0.087631 0
2.295000 -0.086752 0
2.300000 -0.085868 0
2.305000 -0.084972 0
2.310000 -0.084053 0
2.315000 -0.083091 0
2.320000 -0.082050 0
2.325000 -0.080882 0
2.330000 -0.079507 0
2.335000 -0.077811 0
2.340000 -0.075637 0
2.345000 -0.072766 0
2.350000 -0.068921 0
2.355000 -0.063755 0
2.360000 -0.056865 0
2.365000 -0.047804 0
2.370000 -0.036123 0
2.375000 -0.021417 0
2.380000 -0.003389 0
2.385000 0.018071 0
2.390000 0.042815 0
2.395000 0.070377 0
2.400000 0.099939 0
2.405000 0.130335 0
2.410000 0.160107 0
2.415000 0.187606 0
2.420000 0.211141 0
2.425000 0.229144 0
2.430000 0.240344 0
2.435000 0.243914 1
2.440000 0.239576 0
2.445000 0.227629 0
2.450000 0.208921 0
2.455000 0.184747 0
2.460000 0.156698 0
2.465000 0.126486 0
2.470000 0.095751 0
2.475000 0.065829 0
2.480000 0.037444 0
2.485000 0.010205 0
2.490000 -0.017982 0
2.495000 -0.051043 0
2.500000 -0.093284 0
2.505000 -0.145628 0
2.510000 -0.200805 0
2.515000 -0.240983 2
2.520000 -0.240508 0
2.525000 -0.172334 0
2.530000 -0.015212 0
2.535000 0.236969 0
2.540000 0.560418 0
2.545000 0.888899 0
2.550000 1.124102 0
2.555000 1.178809 3
2.560000 1.027367 0
2.565000 0.722367 0
2.570000 0.362874 0
2.575000 0.040486 0
2.580000 -0.190911 0
2.585000 -0.315025 0
2.590000 -0.341704 4
2.595000 -0.297891 0
2.600000 -0.218850 0
2.605000 -0.136425 0
2.610000 -0.069340 0
2.615000 -0.021669 0
2.620000 0.011492 0
2.625000 0.037131 0
2.630000 0.060442 0
2.635000 0.084153 0
2.640000 0.109294 0
2.645000 0.136044 0
2.650000 0.164211 0
2.655000 0.193431 0
2.660000 0.223235 0
2.665000 0.253074 0
2.670000 0.282335 0
2.675000 0.310366 0
2.680000 0.336491 0
2.685000 0.360042 0
2.690000 0.380384 0
2.695000 0.396944 0
2.700000 0.409236 0
2.705000 0.416884 0
2.710000 0.419642 5
2.715000 0.417406 0
2.720000 0.410216 0
2.725000 0.398261 0
2.730000 0.381864 0
2.735000 0.361470 0
2.740000 0.337628 0
2.745000 0.310958 0
2.750000 0.282132 0
2.755000 0.251842 0
2.760000 0.220773 0
2.765000 0.189577 0
2.770000 0.158853 0
2.775000 0.129128 0
2.780000 0.100845 0
2.785000 0.074360 0
2.790000 0.049931 0
2.795000 0.027731 0
2.800000 0.007845 0
2.805000 -0.009715 0
2.810000 -0.025002 0
2.815000 -0.038118 0
2.820000 -0.049209 0
2.825000 -0.058444 0
2.830000 -0.066010 0
2.835000 -0.072099 0
2.840000 -0.076905 0
2.845000 -0.080610 0
2.850000 -0.083386 0
2.855000 -0.085389 0
2.860000 -0.086757 0
2.865000 -0.087611 0
2.870000 -0.087864 0
2.875000 -0.086993 0
2.880000 -0.086125 0
2.885000 -0.085262 0
2.890000 -0.084404 0
2.895000 -0.083549 0
2.900000 -0.082699 0
2.905000 -0.081853 0
2.910000 -0.081011 0
2.915000 -0.080172 0
2.920000 -0.079336 0
2.925000 -0.078502 0
2.930000 -0.077666 0
2.935000 -0.076824 0
2.940000 -0.075968 0
2.945000 -0.075084 0
2.950000 -0.074147 0
2.955000 -0.073119 0
2.960000 -0.071943 0
2.965000 -0.070528 0
2.970000 -0.068746 0
2.975000 -0.066418 0
2.980000 -0.063305 0
2.985000 -0.059101 0
2.990000 -0.053434 0
2.995000 -0.045874 0
3.000000 -0.035963 0
3.005000 -0.023252 0
3.010000 -0.007363 0
3.015000 0.011944 0
3.020000 0.034689 0
3.025000 0.060601 0
3.030000 0.089065 0
3.035000 0.119102 0
3.040000 0.149392 0
3.045000 0.178356 0
3.050000 0.204280 0
3.055000 0.225477 0
3.060000 0.240468 0
3.065000 0.248153 1
3.070000 0.247941 0
3.075000 0.239829 0
3.080000 0.224397 0
3.085000 0.202748 0
3.090000 0.176368 0
3.095000 0.146962 0
3.100000 0.116255 0
3.105000 0.085787 0
3.110000 0.056632 0
3.115000 0.028988 0
3.120000 0.001569 0
3.125000 -0.028847 0
3.130000 -0.066796 0
3.135000 -0.115271 0
3.140000 -0.170876 0
3.145000 -0.219858 0
3.150000 -0.238682 2
3.155000 -0.199556 0
3.160000 -0.077722 0
3.165000 0.140254 0
3.170000 0.443316 0
3.175000 0.780128 0
3.180000 1.058841 0
3.185000 1.180670 3
3.190000 1.095451 0
3.195000 0.833049 0
3.200000 0.480992 0
3.205000 0.136447 0
3.210000 -0.133192 0
3.215000 -0.299324 0
3.220000 -0.362853 4
3.225000 -0.344244 0
3.230000 -0.275800 0
3.235000 -0.191515 0
3.240000 -0.116051 0
3.245000 -0.059482 0
3.250000 -0.020178 0
3.255000 0.008425 0
3.260000 0.032500 0
3.265000 0.055870 0
3.270000 0.080273 0
3.275000 0.106237 0
3.280000 0.133732 0
3.285000 0.162482 0
3.290000 0.192081 0
3.295000 0.222038 0
3.300000 0.251788 0
3.305000 0.280718 0
3.310000 0.308178 0
3.315000 0.333509 0
3.320000 0.356068 0
3.325000 0.375254 0
3.330000 0.390534 0
3.335000 0.401465 0
3.340000 0.407721 0
3.345000 0.409101 5
3.350000 0.405544 0
3.355000 0.397130 0
3.360000 0.384080 0
3.365000 0.366740 0
3.370000 0.345571 0
3.375000 0.321125 0
3.380000 0.294023 0
3.385000 0.264925 0
3.390000 0.234508 0
3.395000 0.203435 0
3.400000 0.172336 0
3.405000 0.141785 0
3.410000 0.112285 0
3.415000 0.084260 0
3.420000 0.058043 0
3.425000 0.033880 0
3.430000 0.011928 0
3.435000 -0.007733 0
3.440000 -0.025097 0
3.445000 -0.040219 0
3.450000 -0.053202 0
3.455000 -0.064187 0
3.460000 -0.073340 0
3.465000 -0.080844 0
3.470000 -0.086888 0
3.475000 -0.091658 0
3.480000 -0.095334 0
3.485000 -0.098085 0
3.490000 -0.100063 0
3.495000 -0.101404 0
3.500000 -0.102229 0
3.505000 -0.102639 0
3.510000 -0.101889 0
3.515000 -0.100948 0
3.520000 -0.100011 0
3.525000 -0.099079 0
3.530000 -0.098151 0
3.535000 -0.097228 0
3.540000 -0.096309 0
3.545000 -0.095395 0
3.550000 -0.094485 0
3.555000 -0.093578 0
3.560000 -0.092673 0
3.565000 -0.091769 0
3.570000 -0.090860 0
3.575000 -0.089940 0
3.580000 -0.088998 0
3.585000 -0.088012 0
3.590000 -0.086951 0
3.595000 -0.085764 0
3.600000 -0.084376 0
3.605000 -0.082675 0
3.610000 -0.080506 0
3.615000 -0.077657 0
3.620000 -0.073855 0
3.625000 -0.068761 0
3.630000 -0.061978 0
3.635000 -0.053066 0
3.640000 -0.041577 0
3.645000 -0.027104 0
3.650000 -0.009342 0
3.655000 0.011837 0
3.660000 0.036312 0
3.665000 0.063652 0
3.670000 0.093079 0
3.675000 0.123471 0
3.680000 0.153407 0
3.685000 0.181267 0
3.690000 0.205370 0
3.695000 0.224137 0
3.700000 0.236263 0
3.705000 0.240868 1
3.710000 0.237601 0
3.715000 0.226681 0
3.720000 0.208881 0
3.725000 0.185428 0
3.730000 0.157870 0
3.735000 0.127898 0
3.740000 0.097162 0
3.745000 0.067055 0
3.750000 0.038420 0
3.755000 0.011099 0
3.760000 -0.016662 0
3.765000 -0.048483 0
3.770000 -0.088779 0
3.775000 -0.139453 0
3.780000 -0.195132 0
3.785000 -0.240096 0
3.790000 -0.249983 2
3.795000 -0.197673 0
3.800000 -0.060294 0
3.805000 0.172391 0
3.810000 0.484499 0
3.815000 0.819717 0
3.820000 1.084878 0
3.825000 1.186124 3
3.830000 1.082088 0
3.835000 0.809072 0
3.840000 0.454720 0
3.845000 0.112450 0
3.850000 -0.154139 0
3.855000 -0.318439 0
3.860000 -0.381745 4
3.865000 -0.363953 0
3.870000 -0.296332 0
3.875000 -0.212010 0
3.880000 -0.135500 0
3.885000 -0.077393 0
3.890000 -0.036715 0
3.895000 -0.007252 0
3.900000 0.017175 0
3.905000 0.040559 0
3.910000 0.064809 0
3.915000 0.090563 0
3.920000 0.117850 0
3.925000 0.146434 0
3.930000 0.175941 0
3.935000 0.205911 0
3.940000 0.235811 0
3.945000 0.265056 0
3.950000 0.293023 0
3.955000 0.319072 0
3.960000 0.342574 0
3.965000 0.362929 0
3.970000 0.379599 0
3.975000 0.392122 0
3.980000 0.400140 0
3.985000 0.403413 5
3.990000 0.401831 0
3.995000 0.395417 0
4.000000 0.384331 0
4.005000 0.368859 0
4.010000 0.349401 0
4.015000 0.326456 0
4.020000 0.300597 0
4.025000 0.272451 0
4.030000 0.242668 0
4.035000 0.211902 0
4.040000 0.180785 0
4.045000 0.149903 0
4.050000 0.119786 0
4.055000 0.090890 0
4.060000 0.063590 0
4.065000 0.038176 0
4.070000 0.014853 0
4.075000 -0.006254 0
4.080000 -0.025094 0
4.085000 -0.041683 0
4.090000 -0.056089 0
4.095000 -0.068425 0
4.100000 -0.078836 0
4.105000 -0.087490 0
4.110000 -0.094565 0
4.115000 -0.100244 0
4.120000 -0.104709 0
4.125000 -0.108132 0
4.130000 -0.110672 0
4.135000 -0.112475 0
4.140000 -0.113671 0
4.145000 -0.114374 0
4.150000 -0.114490 0
4.155000 -0.113486 0
4.160000 -0.112486 0
4.165000 -0.111492 0
4.170000 -0.110502 0
4.175000 -0.109518 0
4.180000 -0.108538 0
4.185000 -0.107563 0
4.190000 -0.106593 0
4.195000 -0.105627 0
4.200000 -0.104664 0
4.205000 -0.103705 0
4.210000 -0.102745 0
4.215000 -0.101783 0
4.220000 -0.100810 0
4.225000 -0.099817 0
4.230000 -0.098785 0
4.235000 -0.097684 0
4.240000 -0.096469 0
4.245000 -0.095070 0
4.250000 -0.093385 0
4.255000 -0.091274 0
4.260000 -0.088542 0
4.265000 -0.084939 0
4.270000 -0.080149 0
4.275000 -0.073801 0
4.280000 -0.065477 0
4.285000 -0.054739 0
4.290000 -0.041176 0
4.295000 -0.024455 0
4.300000 -0.004388 0
4.305000 0.018997 0
4.310000 0.045393 0
4.315000 0.074172 0
4.320000 0.104371 0
4.325000 0.134717 0
4.330000 0.163707 0
4.335000 0.189715 0
4.340000 0.211146 0
4.345000 0.226591 0
4.350000 0.234986 0
4.355000 0.235729 1
4.360000 0.228753 0
4.365000 0.214536 0
4.370000 0.194046 0
4.375000 0.168635 0
4.380000 0.139885 0
4.385000 0.109444 0
4.390000 0.078840 0
4.395000 0.049259 0
4.400000 0.021220 0
4.405000 -0.005917 0
4.410000 -0.034482 0
4.415000 -0.068455 0
4.420000 -0.111822 0
4.425000 -0.164832 0
4.430000 -0.219595 0
4.435000 -0.258248 2
4.440000 -0.255843 0
4.445000 -0.186417 0
4.450000 -0.029642 0
4.455000 0.220507 0
4.460000 0.542069 0
4.465000 0.873074 0
4.470000 1.119760 0
4.475000 1.195118 3
4.480000 1.066389 0
4.485000 0.775897 0
4.490000 0.417763 0
4.495000 0.085062 0
4.500000 -0.163414 0
4.505000 -0.306468 0
4.510000 -0.349959 4
4.515000 -0.317609 0
4.520000 -0.243074 0
4.525000 -0.159165 0
4.530000 -0.087523 0
4.535000 -0.035201 0
4.540000 0.001096 0
4.545000 0.028187 0
4.550000 0.051797 0
4.555000 0.075227 0
4.560000 0.099882 0
4.565000 0.126124 0
4.570000 0.153852 0
4.575000 0.182756 0
4.580000 0.212409 0
4.585000 0.242302 0
4.590000 0.271859 0
4.595000 0.300455 0
4.600000 0.327437 0
4.605000 0.352148 0
4.610000 0.373951 0
4.615000 0.392257 0
4.620000 0.406551 0
4.625000 0.416415 0
4.630000 0.421547 0
4.635000 0.421779 5
4.640000 0.417078 0
4.645000 0.407558 0
4.650000 0.393467 0
4.655000 0.375178 0
4.660000 0.353174 0
4.665000 0.328026 0
4.670000 0.300363 0
4.675000 0.270854 0
4.680000 0.240174 0
4.685000 0.208980 0
4.690000 0.177893 0
4.695000 0.147472 0
4.700000 0.118203 0
4.705000 0.090490 0
4.710000 0.064648 0
4.715000 0.040902 0
4.720000 0.019392 0
4.725000 0.000181 0
4.730000 -0.016740 0
4.735000 -0.031438 0
4.740000 -0.044024 0
4.745000 -0.054646 0
4.750000 -0.063477 0
4.755000 -0.070699 0
4.760000 -0.076502 0
4.765000 -0.081072 0
4.770000 -0.084586 0
4.775000 -0.087210 0
4.780000 -0.089092 0
4.785000 -0.090365 0
4.790000 -0.091145 0
4.795000 -0.091346 0
4.800000 -0.090457 0
4.805000 -0.089573 0
4.810000 -0.088693 0
4.815000 -0.087817 0
4.820000 -0.086946 0
4.825000 -0.086078 0
4.830000 -0.085216 0
4.835000 -0.084357 0
4.840000 -0.083501 0
4.845000 -0.082649 0
4.850000 -0.081798 0
4.855000 -0.080946 0
4.860000 -0.080088 0
4.865000 -0.079217 0
4.870000 -0.078320 0
4.875000 -0.077373 0
4.880000 -0.076340 0
4.885000 -0.075168 0
4.890000 -0.073772 0
4.895000 -0.072033 0
4.900000 -0.069782 0
4.905000 -0.066796 0
4.910000 -0.062787 0
4.915000 -0.057401 0
4.920000 -0.050228 0
4.925000 -0.040825 0
4.930000 -0.028747 0
4.935000 -0.013605 0
4.940000 0.004874 0
4.945000 0.026767 0
4.950000 0.051889 0
4.955000 0.079731 0
4.960000 0.109437 0
4.965000 0.139811 0
4.970000 0.169378 0
4.975000 0.196489 0
4.980000 0.219471 0
4.985000 0.236793 0
4.990000 0.247234 0
4.995000 0.250024 1
5.000000 0.244940 0
5.005000 0.232333 0
5.010000 0.213086 0
5.015000 0.188515 0
5.020000 0.160216 0
5.025000 0.129887 0
5.030000 0.099141 0
5.035000 0.069276 0
5.040000 0.040958 0
5.045000 0.013714 0
5.050000 -0.014635 0
5.055000 -0.048057 0
5.060000 -0.090772 0
5.065000 -0.143449 0
5.070000 -0.198491 0
5.075000 -0.237870 2
5.080000 -0.235987 0
5.085000 -0.166069 0
5.090000 -0.007245 0
5.095000 0.246167 0
5.100000 0.570055 0
5.105000 0.898288 0
5.110000 1.133220 0
5.115000 1.188358 3
5.120000 1.038002 0
5.125000 0.733902 0
5.130000 0.374400 0
5.135000 0.050897 0
5.140000 -0.182432 0
5.145000 -0.308822 0
5.150000 -0.337625 4
5.155000 -0.295301 0
5.160000 -0.216830 0
5.165000 -0.134147 0
5.170000 -0.066374 0
5.175000 -0.018019 0
5.180000 0.015587 0
5.185000 0.041409 0
5.190000 0.064725 0
5.195000 0.088351 0
5.200000 0.113376 0
5.205000 0.140008 0
5.210000 0.168070 0
5.215000 0.197207 0
5.220000 0.226959 0
5.225000 0.256786 0
5.230000 0.286082 0
5.235000 0.314201 0
5.240000 0.340473 0
5.245000 0.364231 0
5.250000 0.384842 0
5.255000 0.401728 0
5.260000 0.414399 0
5.265000 0.422470 0
5.270000 0.425684 5
5.275000 0.423923 0
5.280000 0.417212 0
5.285000 0.405725 0
5.290000 0.389768 0
5.295000 0.369773 0
5.300000 0.346272 0
5.305000 0.319877 0
5.310000 0.291250 0
5.315000 0.261080 0
5.320000 0.230047 0
5.325000 0.198806 0
5.330000 0.167960 0
5.335000 0.138044 0
5.340000 0.109511 0
5.345000 0.082725 0
5.350000 0.057958 0
5.355000 0.035393 0
5.360000 0.015128 0
5.365000 -0.002815 0
5.370000 -0.018479 0
5.375000 -0.031961 0
5.380000 -0.043396 0
5.385000 -0.052951 0
5.390000 -0.060809 0
5.395000 -0.067163 0
5.400000 -0.072203 0
5.405000 -0.076113 0
5.410000 -0.079067 0
5.415000 -0.081223 0
5.420000 -0.082721 0
5.425000 -0.083684 0
5.430000 -0.084220 0
5.435000 -0.083567 0
5.440000 -0.082717 0
5.445000 -0.081871 0
5.450000 -0.081030 0
5.455000 -0.080192 0
5.460000 -0.079359 0
5.465000 -0.078529 0
5.470000 -0.077704 0
5.475000 -0.076882 0
5.480000 -0.076063 0
5.485000 -0.075245 0
5.490000 -0.074427 0
5.495000 -0.073605 0
5.500000 -0.072770 0
5.505000 -0.071911 0
5.510000 -0.071007 0
5.515000 -0.070024 0
5.520000 -0.068908 0
5.525000 -0.067581 0
5.530000 -0.065925 0
5.535000 -0.063777 0
5.540000 -0.060915 0
5.545000 -0.057052 0
5.550000 -0.051836 0
5.555000 -0.044854 0
5.560000 -0.035655 0
5.565000 -0.023785 0
5.570000 -0.008840 0
5.575000 0.009462 0
5.580000 0.031213 0
5.585000 0.056233 0
5.590000 0.084014 0
5.595000 0.113688 0
5.600000 0.144040 0
5.605000 0.173567 0
5.610000 0.200588 0
5.615000 0.223401 0
5.620000 0.240453 0
5.625000 0.250515 0
5.630000 0.252831 1
5.635000 0.247207 0
5.640000 0.234036 0
5.645000 0.214259 0
5.650000 0.189245 0
5.655000 0.160637 0
5.660000 0.130165 0
5.665000 0.099447 0
5.670000 0.069747 0
5.675000 0.041620 0
5.680000 0.014372 0
5.685000 -0.014517 0
5.690000 -0.049287 0
5.695000 -0.093945 0
5.700000 -0.147984 0
5.705000 -0.201690 0
5.710000 -0.234792 2
5.715000 -0.220394 0
5.720000 -0.131915 0
5.725000 0.049397 0
5.730000 0.323679 0
5.735000 0.656549 0
5.740000 0.970188 0
5.745000 1.162979 3
5.750000 1.159604 0
5.755000 0.957494 0
5.760000 0.627651 0
5.765000 0.270162 0
5.770000 -0.033079 0
5.775000 -0.239171 0
5.780000 -0.339290 0
5.785000 -0.347641 4
5.790000 -0.293330 0
5.795000 -0.211301 0
5.800000 -0.130799 0
5.805000 -0.067277 0
5.810000 -0.022573 0
5.815000 0.008927 0
5.820000 0.033964 0
5.825000 0.057246 0
5.830000 0.081147 0
5.835000 0.106524 0
5.840000 0.133484 0
5.845000 0.161813 0
5.850000 0.191139 0
5.855000 0.220994 0
5.860000 0.250833 0
5.865000 0.280052 0
5.870000 0.308006 0
5.875000 0.334032 0
5.880000 0.357477 0
5.885000 0.377718 0
5.890000 0.394196 0
5.895000 0.406437 0
5.900000 0.414073 0
5.905000 0.416864 5
5.910000 0.414707 0
5.915000 0.407641 0
5.920000 0.395847 0
5.925000 0.379639 0
5.930000 0.359450 0
5.935000 0.335812 0
5.940000 0.309334 0
5.945000 0.280671 0
5.950000 0.250501 0
5.955000 0.219500 0
5.960000 0.188310 0
5.965000 0.157527 0
5.970000 0.127676 0
5.975000 0.099204 0
5.980000 0.072469 0
5.985000 0.047742 0
5.990000 0.025202 0
5.995000 0.004947 0
6.000000 -0.013000 0
6.005000 -0.028680 0
6.010000 -0.042186 0
6.015000 -0.053653 0
6.020000 -0.063244 0
6.025000 -0.071138 0
6.030000 -0.077526 0
6.035000 -0.082596 0
6.040000 -0.086531 0
6.045000 -0.089503 0
6.050000 -0.091669 0
6.055000 -0.093170 0
6.060000 -0.094129 0
6.065000 -0.094654 0
6.070000 -0.093955 0
6.075000 -0.093053 0
6.080000 -0.092155 0
6.085000 -0.091262 0
6.090000 -0.090374 0
6.095000 -0.089490 0
6.100000 -0.088610 0
6.105000 -0.087734 0
6.110000 -0.086862 0
6.115000 -0.085993 0
6.120000 -0.085127 0
6.125000 -0.084261 0
6.130000 -0.083391 0
6.135000 -0.082512 0
6.140000 -0.081612 0
6.145000 -0.080671 0
6.150000 -0.079661 0
6.155000 -0.078534 0
6.160000 -0.077216 0
6.165000 -0.075603 0
6.170000 -0.073543 0
6.175000 -0.070833 0
6.180000 -0.067207 0
6.185000 -0.062330 0
6.190000 -0.055810 0
6.195000 -0.047209 0
6.200000 -0.036074 0
6.205000 -0.021988 0
6.210000 -0.004629 0
6.215000 0.016155 0
6.220000 0.040271 0
6.225000 0.067321 0
6.230000 0.096557 0
6.235000 0.126882 0
6.240000 0.156893 0
6.245000 0.184973 0
6.250000 0.209428 0
6.255000 0.228656 0
6.260000 0.241315 0
6.265000 0.246480 1
6.270000 0.243756 0
6.275000 0.233322 0
6.280000 0.215918 0
6.285000 0.192753 0
6.290000 0.165367 0
6.295000 0.135459 0
6.300000 0.104697 0
6.305000 0.074501 0
6.310000 0.045759 0
6.315000 0.018371 0
6.320000 -0.009342 0
6.325000 -0.040950 0
6.330000 -0.080910 0
6.335000 -0.131304 0
6.340000 -0.187036 0
6.345000 -0.232610 0
6.350000 -0.243686 2
6.355000 -0.192969 0
6.360000 -0.057288 0
6.365000 0.173978 0
6.370000 0.485348 0
6.375000 0.820688 0
6.380000 1.086508 0
6.385000 1.188267 3
6.390000 1.082708 0
6.395000 0.805423 0
6.400000 0.449449 0
6.405000 0.111812 0
6.410000 -0.143999 0
6.415000 -0.293787 0
6.420000 -0.342084 4
6.425000 -0.312328 0
6.430000 -0.238640 0
6.435000 -0.154706 0
6.440000 -0.082922 0
6.445000 -0.030638 0
6.450000 0.005499 0
6.455000 0.032445 0
6.460000 0.055995 0
6.465000 0.079445 0
6.470000 0.104168 0
6.475000 0.130500 0
6.480000 0.158317 0
6.485000 0.187293 0
6.490000 0.216984 0
6.495000 0.246862 0
6.500000 0.276333 0
6.505000 0.304754 0
6.510000 0.331456 0
6.515000 0.355769 0
6.520000 0.377047 0
6.525000 0.394700 0
6.530000 0.408217 0
6.535000 0.417191 0
6.540000 0.421338 5
6.545000 0.420514 0
6.550000 0.414719 0
6.555000 0.404098 0
6.560000 0.388937 0
6.565000 0.369645 0
6.570000 0.346742 0
6.575000 0.320828 0
6.580000 0.292561 0
6.585000 0.262627 0
6.590000 0.231713 0
6.595000 0.200481 0
6.600000 0.169547 0
6.605000 0.139459 0
6.610000 0.110686 0
6.615000 0.083608 0
6.620000 0.058513 0
6.625000 0.035599 0
6.630000 0.014978 0
6.635000 -0.003317 0
6.640000 -0.019320 0
6.645000 -0.033119 0
6.650000 -0.044846 0
6.655000 -0.054663 0
6.660000 -0.062753 0
6.665000 -0.069306 0
6.670000 -0.074516 0
6.675000 -0.078567 0
6.680000 -0.081637 0
6.685000 -0.083885 0
6.690000 -0.085455 0
6.695000 -0.086473 0
6.700000 -0.087049 0
6.705000 -0.086390 0
6.710000 -0.085526 0
6.715000 -0.084666 0
6.720000 -0.083810 0
6.725000 -0.082959 0
6.730000 -0.082112 0
6.735000 -0.081269 0
6.740000 -0.080430 0
6.745000 -0.079594 0
6.750000 -0.078762 0
6.755000 -0.077931 0
6.760000 -0.077101 0
6.765000 -0.076266 0
6.770000 -0.075421 0
6.775000 -0.074553 0
6.780000 -0.073643 0
6.785000 -0.072659 0
6.790000 -0.071550 0
6.795000 -0.070239 0
6.800000 -0.068616 0
6.805000 -0.066521 0
6.810000 -0.063738 0
6.815000 -0.059990 0
6.820000 -0.054927 0
6.825000 -0.048143 0
6.830000 -0.039188 0
6.835000 -0.027604 0
6.840000 -0.012980 0
6.845000 0.004985 0
6.850000 0.026406 0
6.855000 0.051132 0
6.860000 0.078688 0
6.865000 0.108241 0
6.870000 0.138602 0
6.875000 0.168288 0
6.880000 0.195625 0
6.885000 0.218900 0
6.890000 0.236535 0
6.895000 0.247264 0
6.900000 0.250280 1
6.905000 0.245338 0
6.910000 0.232785 0
6.915000 0.213519 0
6.920000 0.188883 0
6.925000 0.160511 0
6.930000 0.130136 0
6.935000 0.099398 0
6.940000 0.069602 0
6.945000 0.041374 0
6.950000 0.014133 0
6.955000 -0.014501 0
6.960000 -0.048696 0
6.965000 -0.092599 0
6.970000 -0.146179 0
6.975000 -0.200415 0
6.980000 -0.235612 2
6.985000 -0.225036 0
6.990000 -0.141799 0
6.995000 0.033642 0
7.000000 0.302971 0
7.005000 0.634181 0
7.010000 0.951581 0
7.015000 1.153491 0
7.020000 1.161493 3
7.025000 0.968380 0
7.030000 0.642307 0
7.035000 0.284140 0
7.040000 -0.022004 0
7.045000 -0.231345 0
7.050000 -0.334073 0
7.055000 -0.344051 4
7.060000 -0.290452 0
7.065000 -0.208563 0
7.070000 -0.128031 0
7.075000 -0.064538 0
7.080000 -0.019944 0
7.085000 0.011441 0
7.090000 0.036409 0
7.095000 0.059678 0
7.100000 0.083604 0
7.105000 0.109024 0
7.110000 0.136032 0
7.115000 0.164405 0
7.120000 0.193761 0
7.125000 0.223625 0
7.130000 0.253440 0
7.135000 0.282594 0
7.140000 0.310433 0
7.145000 0.336289 0
7.150000 0.359501 0
7.155000 0.379445 0
7.160000 0.395561 0
7.165000 0.407379 0
7.170000 0.414540 0
7.175000 0.416814 5
7.180000 0.414111 0
7.185000 0.406487 0
7.190000 0.394141 0
7.195000 0.377405 0
7.200000 0.356731 0
7.205000 0.332668 0
7.210000 0.305837 0
7.215000 0.276908 0
7.220000 0.246565 0
7.225000 0.215488 0
7.230000 0.184321 0
7.235000 0.153653 0
7.240000 0.124004 0
7.245000 0.095811 0
7.250000 0.069419 0
7.255000 0.045084 0
7.260000 0.022972 0
7.265000 0.003167 0
7.270000 -0.014322 0
7.275000 -0.029549 0
7.280000 -0.042616 0
7.285000 -0.053667 0
7.290000 -0.062871 0
7.295000 -0.070414 0
7.300000 -0.076486 0
7.305000 -0.081279 0
7.310000 -0.084974 0
7.315000 -0.087741 0
7.320000 -0.089736 0
7.325000 -0.091096 0
7.330000 -0.091941 0
7.335000 -0.092375 0
7.340000 -0.091673 0
7.345000 -0.090782 0
7.350000 -0.089896 0
7.355000 -0.089014 0
7.360000 -0.088137 0
7.365000 -0.087264 0
7.370000 -0.086395 0
7.375000 -0.085530 0
7.380000 -0.084669 0
7.385000 -0.083811 0
7.390000 -0.082954 0
7.395000 -0.082097 0
7.400000 -0.081234 0
7.405000 -0.080358 0
7.410000 -0.079456 0
7.415000 -0.078504 0
7.420000 -0.077467 0
7.425000 -0.076289 0
7.430000 -0.074885 0
7.435000 -0.073133 0
7.440000 -0.070861 0
7.445000 -0.067840 0
7.450000 -0.063775 0
7.455000 -0.058305 0
7.460000 -0.051010 0
7.465000 -0.041437 0
7.470000 -0.029138 0
7.475000 -0.013722 0
7.480000 0.005074 0
7.485000 0.027307 0
7.490000 0.052758 0
7.495000 0.080875 0
7.500000 0.110746 0
7.505000 0.141115 0
7.510000 0.170454 0
7.515000 0.197074 0
7.520000 0.219285 0
7.525000 0.235569 0
7.530000 0.244750 0
7.535000 0.246138 1
7.540000 0.239610 0
7.545000 0.225630 0
7.550000 0.205192 0
7.555000 0.179703 0
7.560000 0.150823 0
7.565000 0.120278 0
7.570000 0.089653 0
7.575000 0.060151 0
7.580000 0.032217 0
7.585000 0.004980 0
7.590000 -0.024289 0
7.595000 -0.059937 0
7.600000 -0.105715 0
7.605000 -0.160337 0
7.610000 -0.212972 0
7.615000 -0.242434 2
7.620000 -0.221580 0
7.625000 -0.124325 0
7.630000 0.066756 0
7.635000 0.349108 0
7.640000 0.684223 0
7.645000 0.990660 0
7.650000 1.167064 3
7.655000 1.145093 0
7.660000 0.931244 0
7.665000 0.597303 0
7.670000 0.240582 0
7.675000 -0.060733 0
7.680000 -0.265944 0
7.685000 -0.366744 0
7.690000 -0.376792 4
7.695000 -0.324088 0
7.700000 -0.242542 0
7.705000 -0.161105 0
7.710000 -0.095782 0
7.715000 -0.049265 0
7.720000 -0.016496 0
7.725000 0.009168 0
7.730000 0.032613 0
7.735000 0.056430 0
7.740000 0.081624 0
7.745000 0.108388 0
7.750000 0.136555 0
7.755000 0.165790 0
7.760000 0.195657 0
7.765000 0.225645 0
7.770000 0.255180 0
7.775000 0.283645 0
7.780000 0.310403 0
7.785000 0.334812 0
7.790000 0.356259 0
7.795000 0.374176 0
7.800000 0.388074 0
7.805000 0.397557 0
7.810000 0.402345 5
7.815000 0.402283 0
7.820000 0.397355 0
7.825000 0.387677 0
7.830000 0.373500 0
7.835000 0.355193 0
7.840000 0.333231 0
7.845000 0.308170 0
7.850000 0.280626 0
7.855000 0.251249 0
7.860000 0.220700 0
7.865000 0.189620 0
7.870000 0.158615 0
7.875000 0.128236 0
7.880000 0.098962 0
7.885000 0.071194 0
7.890000 0.045247 0
7.895000 0.021350 0
7.900000 -0.000351 0
7.905000 -0.019786 0
7.910000 -0.036954 0
7.915000 -0.051910 0
7.920000 -0.064759 0
7.925000 -0.075639 0
7.930000 -0.084713 0
7.935000 -0.092159 0
7.940000 -0.098162 0
7.945000 -0.102904 0
7.950000 -0.106561 0
7.955000 -0.109296 0
7.960000 -0.111260 0
7.965000 -0.112588 0
7.970000 -0.113397 0
7.975000 -0.113787 0
7.980000 -0.112988 0
7.985000 -0.111991 0
7.990000 -0.110999 0
7.995000 -0.110012 0
8.000000 -0.109030 0
8.005000 -0.108053 0
8.010000 -0.107080 0
8.015000 -0.106112 0
8.020000 -0.105149 0
8.025000 -0.104189 0
8.030000 -0.103232 0
8.035000 -0.102276 0
8.040000 -0.101318 0
8.045000 -0.100351 0
8.050000 -0.099366 0
8.055000 -0.098346 0
8.060000 -0.097262 0
8.065000 -0.096073 0
8.070000 -0.094714 0
8.075000 -0.093088 0
8.080000 -0.091059 0
8.085000 -0.088443 0
8.090000 -0.084997 0
8.095000 -0.080413 0
8.100000 -0.074326 0
8.105000 -0.066320 0
8.110000 -0.055958 0
8.115000 -0.042818 0
8.120000 -0.026549 0
8.125000 -0.006939 0
8.130000 0.016017 0
8.135000 0.042051 0
8.140000 0.070574 0
8.145000 0.100660 0
8.150000 0.131064 0
8.155000 0.160298 0
8.160000 0.186732 0
8.165000 0.208752 0
8.170000 0.224912 0
8.175000 0.234097 0
8.180000 0.235647 1
8.185000 0.229438 0
8.190000 0.215896 0
8.195000 0.195952 0
8.200000 0.170932 0
8.205000 0.142414 0
8.210000 0.112056 0
8.215000 0.081414 0
8.220000 0.051719 0
8.225000 0.023563 0
8.230000 -0.003586 0
8.235000 -0.031933 0
8.240000 -0.065389 0
8.245000 -0.108059 0
8.250000 -0.160588 0
8.255000 -0.215658 0
8.260000 -0.255883 0
8.265000 -0.256436 2
8.270000 -0.191095 0
8.275000 -0.038945 0
8.280000 0.207062 0
8.285000 0.526481 0
8.290000 0.858798 0
8.295000 1.110475 0
8.300000 1.192837 3
8.305000 1.071108 0
8.310000 0.785943 0
8.315000 0.428824 0
8.320000 0.092431 0
8.325000 -0.163029 0
8.330000 -0.314447 0
8.335000 -0.365874 4
8.340000 -0.339382 0
8.345000 -0.267537 0
8.350000 -0.183239 0
8.355000 -0.109350 0
8.360000 -0.054451 0
8.365000 -0.016236 0
8.370000 0.011870 0
8.375000 0.035808 0
8.380000 0.059191 0
8.385000 0.083643 0
8.390000 0.109649 0
8.395000 0.137166 0
8.400000 0.165919 0
8.405000 0.195507 0
8.410000 0.225447 0
8.415000 0.255184 0
8.420000 0.284116 0
8.425000 0.311603 0
8.430000 0.337000 0
8.435000 0.359672 0
8.440000 0.379027 0
8.445000 0.394536 0
8.450000 0.405760 0
8.455000 0.412369 0
8.460000 0.414154 5
8.465000 0.411046 0
8.470000 0.403108 0
8.475000 0.390544 0
8.480000 0.373682 0
8.485000 0.352961 0
8.490000 0.328915 0
8.495000 0.302144 0
8.500000 0.273296 0
8.505000 0.243032 0
8.510000 0.212011 0
8.515000 0.180857 0
8.520000 0.150146 0
8.525000 0.120389 0
8.530000 0.092015 0
8.535000 0.065372 0
8.540000 0.040719 0
8.545000 0.018232 0
8.550000 -0.001996 0
8.555000 -0.019941 0
8.560000 -0.035643 0
8.565000 -0.049192 0
8.570000 -0.060719 0
8.575000 -0.070382 0
8.580000 -0.078355 0
8.585000 -0.084825 0
8.590000 -0.089974 0
8.595000 -0.093985 0
8.600000 -0.097024 0
8.605000 -0.099248 0
8.610000 -0.100797 0
8.615000 -0.101794 0
8.620000 -0.102345 0
8.625000 -0.101618 0
8.630000 -0.100678 0
8.635000 -0.099742 0
8.640000 -0.098811 0
8.645000 -0.097885 0
8.650000 -0.096963 0
8.655000 -0.096046 0
8.660000 -0.095134 0
8.665000 -0.094225 0
8.670000 -0.093320 0
8.675000 -0.092418 0
8.680000 -0.091517 0
8.685000 -0.090614 0
8.690000 -0.089704 0
8.695000 -0.088778 0
8.700000 -0.087821 0
8.705000 -0.086807 0
8.710000 -0.085697 0
8.715000 -0.084430 0
8.720000 -0.082917 0
8.725000 -0.081030 0
8.730000 -0.078592 0
8.735000 -0.075369 0
8.740000 -0.071064 0
8.745000 -0.065318 0
8.750000 -0.057721 0
8.755000 -0.047832 0
8.760000 -0.035220 0
8.765000 -0.019516 0
8.770000 -0.000480 0
8.775000 0.021931 0
8.780000 0.047492 0
8.785000 0.075660 0
8.790000 0.105549 0
8.795000 0.135948 0
8.800000 0.165383 0
8.805000 0.192226 0
8.810000 0.214837 0
8.815000 0.231731 0
8.820000 0.241735 0
8.825000 0.244126 1
8.830000 0.238716 0
8.835000 0.225873 0
8.840000 0.206485 0
8.845000 0.181856 0
8.850000 0.153556 0
8.855000 0.123256 0
8.860000 0.092541 0
8.865000 0.062691 0
8.870000 0.034371 0
8.875000 0.007155 0
8.880000 -0.021038 0
8.885000 -0.054050 0
8.890000 -0.096095 0
8.895000 -0.148182 0
8.900000 -0.203521 0
8.905000 -0.245143 0
8.910000 -0.248298 2
8.915000 -0.186480 0
8.920000 -0.038226 0
8.925000 0.204367 0
8.930000 0.522007 0
8.935000 0.855134 0
8.940000 1.110121 0
8.945000 1.196873 3
8.950000 1.077918 0
8.955000 0.792429 0
8.960000 0.434943 0
8.965000 0.100776 0
8.970000 -0.149302 0
8.975000 -0.293182 0
8.980000 -0.336637 4
8.985000 -0.303793 0
8.990000 -0.228902 0
8.995000 -0.145180 0
9.000000 -0.074237 0
9.005000 -0.022782 0
9.010000 0.012819 0
9.015000 0.039515 0
9.020000 0.062986 0
9.025000 0.086434 0
9.030000 0.111174 0
9.035000 0.137521 0
9.040000 0.165344 0
9.045000 0.194312 0
9.050000 0.223981 0
9.055000 0.253825 0
9.060000 0.283251 0
9.065000 0.311618 0
9.070000 0.338259 0
9.075000 0.362508 0
9.080000 0.383722 0
9.085000 0.401314 0
9.090000 0.414776 0
9.095000 0.423703 0
9.100000 0.427814 5
9.105000 0.426965 0
9.110000 0.421155 0
9.115000 0.410529 0
9.120000 0.395371 0
9.125000 0.376087 0
9.130000 0.353194 0
9.135000 0.327288 0
9.140000 0.299025 0
9.145000 0.269086 0
9.150000 0.238157 0
9.155000 0.206897 0
9.160000 0.175920 0
9.165000 0.145774 0
9.170000 0.116929 0
9.175000 0.089765 0
9.180000 0.064573 0
9.185000 0.041551 0
9.190000 0.020815 0
9.195000 0.002400 0
9.200000 -0.013724 0
9.205000 -0.027644 0
9.210000 -0.039489 0
9.215000 -0.049420 0
9.220000 -0.057618 0
9.225000 -0.064273 0
9.230000 -0.069576 0
9.235000 -0.073713 0
9.240000 -0.076860 0
9.245000 -0.079178 0
9.250000 -0.080810 0
9.255000 -0.081885 0
9.260000 -0.082511 0
9.265000 -0.081879 0
9.270000 -0.081037 0
9.275000 -0.080199 0
9.280000 -0.079366 0
9.285000 -0.078537 0
9.290000 -0.077712 0
9.295000 -0.076891 0
9.300000 -0.076073 0
9.305000 -0.075260 0
9.310000 -0.074449 0
9.315000 -0.073640 0
9.320000 -0.072832 0
9.325000 -0.072019 0
9.330000 -0.071197 0
9.335000 -0.070354 0
9.340000 -0.069471 0
9.345000 -0.068518 0
9.350000 -0.067447 0
9.355000 -0.066185 0
9.360000 -0.064624 0
9.365000 -0.062614 0
9.370000 -0.059946 0
9.375000 -0.056350 0
9.380000 -0.051488 0
9.385000 -0.044961 0
9.390000 -0.036325 0
9.395000 -0.025122 0
9.400000 -0.010934 0
9.405000 0.006557 0
9.410000 0.027495 0
9.415000 0.051769 0
9.420000 0.078953 0
9.425000 0.108268 0
9.430000 0.138577 0
9.435000 0.168440 0
9.440000 0.196210 0
9.445000 0.220177 0
9.450000 0.238737 0
9.455000 0.250572 0
9.460000 0.254801 1
9.465000 0.251088 0
9.470000 0.239687 0
9.475000 0.221410 0
9.480000 0.197531 0
9.485000 0.169640 0
9.490000 0.139463 0
9.495000 0.108662 0
9.500000 0.078612 0
9.505000 0.050089 0
9.510000 0.022771 0
9.515000 -0.005365 0
9.520000 -0.038211 0
9.525000 -0.080149 0
9.530000 -0.132303 0
9.535000 -0.187638 0
9.540000 -0.228428 0
9.545000 -0.228907 2
9.550000 -0.161764 0
9.555000 -0.005452 0
9.560000 0.246351 0
9.565000 0.569767 0
9.570000 0.897957 0
9.575000 1.131722 0
9.580000 1.183519 3
9.585000 1.029459 0
9.590000 0.723706 0
9.595000 0.364155 0
9.600000 0.041202 0
9.605000 -0.191713 0
9.610000 -0.318085 0
9.615000 -0.347198 4
9.620000 -0.305259 0
9.625000 -0.226959 0
9.630000 -0.144101 0
9.635000 -0.075901 0
9.640000 -0.027076 0
9.645000 0.006881 0
9.650000 0.032893 0
9.655000 0.056274 0
9.660000 0.079895 0
9.665000 0.104888 0
9.670000 0.131482 0
9.675000 0.159514 0
9.680000 0.188638 0
9.685000 0.218402 0
9.690000 0.248275 0
9.695000 0.277659 0
9.700000 0.305916 0
9.705000 0.332380 0
9.710000 0.356391 0
9.715000 0.377315 0
9.720000 0.394575 0
9.725000 0.407674 0
9.730000 0.416222 0
9.735000 0.419950 5
9.740000 0.418726 0
9.745000 0.412564 0
9.750000 0.401619 0
9.755000 0.386180 0
9.760000 0.366664 0
9.765000 0.343588 0
9.770000 0.317550 0
9.775000 0.289204 0
9.780000 0.259230 0
9.785000 0.228306 0
9.790000 0.197087 0
9.795000 0.166180 0
9.800000 0.136126 0
9.805000 0.107386 0
9.810000 0.080337 0
9.815000 0.055263 0
9.820000 0.032358 0
9.825000 0.011734 0
9.830000 -0.006576 0
9.835000 -0.022604 0
9.840000 -0.036437 0
9.845000 -0.048204 0
9.850000 -0.058066 0
9.855000 -0.066203 0
9.860000 -0.072803 0
9.865000 -0.078057 0
9.870000 -0.082150 0
9.875000 -0.085256 0
9.880000 -0.087535 0
9.885000 -0.089130 0
9.890000 -0.090169 0
9.895000 -0.090759 0
9.900000 -0.090086 0
9.905000 -0.089203 0
9.910000 -0.088325 0
9.915000 -0.087451 0
9.920000 -0.086582 0
9.925000 -0.085716 0
9.930000 -0.084855 0
9.935000 -0.083998 0
9.940000 -0.083145 0
9.945000 -0.082295 0
9.950000 -0.081447 0
9.955000 -0.080600 0
9.960000 -0.079750 0
9.965000 -0.078890 0
9.970000 -0.078010 0
9.975000 -0.077093 0
9.980000 -0.076108 0
9.985000 -0.075010 0
9.990000 -0.073727 0
9.995000 -0.072157 0
10.000000 -0.070152 0
10.005000 -0.067511 0
10.010000 -0.063970 0
10.015000 -0.059200 0
10.020000 -0.052807 0
10.025000 -0.044355 0
10.030000 -0.033387 0
10.035000 -0.019482 0
10.040000 -0.002310 0
10.045000 0.018293 0
10.050000 0.042248 0
10.055000 0.069168 0
10.060000 0.098319 0
10.065000 0.128612 0
10.070000 0.158647 0
10.075000 0.186805 0
10.080000 0.211387 0
10.085000 0.230774 0
10.090000 0.243610 0
10.095000 0.248952 1
10.100000 0.246389 0
10.105000 0.236089 0
10.110000 0.218784 0
10.115000 0.195682 0
10.120000 0.168327 0
10.125000 0.138423 0
10.130000 0.107648 0
10.135000 0.077432 0
10.140000 0.048671 0
10.145000 0.021268 0
10.150000 -0.006464 0
10.155000 -0.038112 0
10.160000 -0.078151 0
10.165000 -0.128641 0
10.170000 -0.184379 0
10.175000 -0.229679 0
10.180000 -0.240006 2
10.185000 -0.187950 0
10.190000 -0.050376 0
10.195000 0.183000 0
10.200000 0.495827 0
10.205000 0.830598 0
10.210000 1.092738 0
10.215000 1.188094 3
10.220000 1.075943 0
10.225000 0.794980 0
10.230000 0.438371 0
10.235000 0.101879 0
10.240000 -0.152345 0
10.245000 -0.300864 0
10.250000 -0.348448 4
10.255000 -0.318456 0
10.260000 -0.244753 0
10.265000 -0.160765 0
10.270000 -0.088780 0
10.275000 -0.036212 0
10.280000 0.000175 0
10.285000 0.027273 0
10.290000 0.050881 0
10.295000 0.074328 0
10.300000 0.099019 0
10.305000 0.125309 0
10.310000 0.153089 0
10.315000 0.182039 0
10.320000 0.211724 0
10.325000 0.241625 0
10.330000 0.271155 0
10.335000 0.299680 0
10.340000 0.326537 0
10.345000 0.351060 0
10.350000 0.372607 0
10.355000 0.390588 0
10.360000 0.404488 0
10.365000 0.413893 0
10.370000 0.418513 5
10.375000 0.418190 0
10.380000 0.412909 0
10.385000 0.402802 0
10.390000 0.388135 0
10.395000 0.369305 0
10.400000 0.346814 0
10.405000 0.321249 0
10.410000 0.293258 0
10.415000 0.263518 0
10.420000 0.232713 0
10.425000 0.201504 0
10.430000 0.170509 0
10.435000 0.140282 0
10.440000 0.111301 0
10.445000 0.083955 0
10.450000 0.058545 0
10.455000 0.035282 0
10.460000 0.014289 0
10.465000 -0.004387 0
10.470000 -0.020771 0
10.475000 -0.034940 0
10.480000 -0.047019 0
10.485000 -0.057164 0
10.490000 -0.065552 0
10.495000 -0.072373 0
10.500000 -0.077818 0
10.505000 -0.082073 0
10.510000 -0.085314 0
10.515000 -0.087705 0
10.520000 -0.089391 0
10.525000 -0.090501 0
10.530000 -0.091148 0
10.535000 -0.091258 0
10.540000 -0.090370 0
10.545000 -0.089485 0
10.550000 -0.088606 0
10.555000 -0.087730 0
10.560000 -0.086859 0
10.565000 -0.085993 0
10.570000 -0.085130 0
10.575000 -0.084271 0
10.580000 -0.083416 0
10.585000 -0.082563 0
10.590000 -0.081711 0
10.595000 -0.080856 0
10.600000 -0.079993 0
10.605000 -0.079112 0
10.610000 -0.078196 0
10.615000 -0.077216 0
10.620000 -0.076131 0
10.625000 -0.074871 0
10.630000 -0.073339 0
10.635000 -0.071392 0
10.640000 -0.068837 0
10.645000 -0.065415 0
10.650000 -0.060806 0
10.655000 -0.054623 0
10.660000 -0.046431 0
10.665000 -0.035773 0
10.670000 -0.022220 0
10.675000 -0.005427 0
10.680000 0.014793 0
10.685000 0.038391 0
10.690000 0.065018 0
10.695000 0.093977 0
10.700000 0.124214 0
10.705000 0.154357 0
10.710000 0.182801 0
10.715000 0.207843 0
10.720000 0.227845 0
10.725000 0.241413 0
10.730000 0.247553 1
10.735000 0.245794 0
10.740000 0.236247 0
10.745000 0.219591 0
10.750000 0.196996 0
10.755000 0.169983 0
10.760000 0.140253 0
10.765000 0.109499 0
10.770000 0.079187 0
10.775000 0.050282 0
10.780000 0.022802 0
10.785000 -0.004776 0
10.790000 -0.035890 0
10.795000 -0.075041 0
10.800000 -0.124693 0
10.805000 -0.180438 0
10.810000 -0.227466 0
10.815000 -0.241747 2
10.820000 -0.195778 0
10.825000 -0.065745 0
10.830000 0.160128 0
10.835000 0.468197 0
10.840000 0.804318 0
10.845000 1.075681 0
10.850000 1.185981 3
10.855000 1.088192 0
10.860000 0.815702 0
10.865000 0.460717 0
10.870000 0.121291 0
10.875000 -0.137515 0
10.880000 -0.290341 0
10.885000 -0.341074 4
10.890000 -0.312840 0
10.895000 -0.239747 0
10.900000 -0.155755 0
10.905000 -0.083643 0
10.910000 -0.031048 0
10.915000 0.005272 0
10.920000 0.032292 0
10.925000 0.055856 0
10.930000 0.079299 0
10.935000 0.104012 0
10.940000 0.130337 0
10.945000 0.158152 0
10.950000 0.187128 0
10.955000 0.216820 0
10.960000 0.246699 0
10.965000 0.276168 0
10.970000 0.304580 0
10.975000 0.331265 0
10.980000 0.355549 0
10.985000 0.376785 0
10.990000 0.394381 0
10.995000 0.407826 0
11.000000 0.416712 0
11.005000 0.420758 5
11.010000 0.419821 0
11.015000 0.413905 0
11.020000 0.403160 0
11.025000 0.387874 0
11.030000 0.368465 0
11.035000 0.345455 0
11.040000 0.319449 0
11.045000 0.291110 0
11.050000 0.261126 0
11.055000 0.230188 0
11.060000 0.198958 0
11.065000 0.168052 0
11.070000 0.138016 0
11.075000 0.109318 0
11.080000 0.082334 0
11.085000 0.057350 0
11.090000 0.034559 0
11.095000 0.014068 0
11.100000 -0.004092 0
11.105000 -0.019959 0
11.110000 -0.033626 0
11.115000 -0.045225 0
11.120000 -0.054923 0
11.125000 -0.062903 0
11.130000 -0.069357 0
11.135000 -0.074478 0
11.140000 -0.078453 0
11.145000 -0.081456 0
11.150000 -0.083647 0
11.155000 -0.085170 0
11.160000 -0.086150 0
11.165000 -0.086696 0
11.170000 -0.086033 0
11.175000 -0.085171 0
11.180000 -0.084313 0
11.185000 -0.083459 0
11.190000 -0.082609 0
11.195000 -0.081764 0
11.200000 -0.080922 0
11.205000 -0.080085 0
11.210000 -0.079251 0
11.215000 -0.078420 0
11.220000 -0.077591 0
11.225000 -0.076762 0
11.230000 -0.075928 0
11.235000 -0.075082 0
11.240000 -0.074211 0
11.245000 -0.073296 0
11.250000 -0.072301 0
11.255000 -0.071174 0
11.260000 -0.069833 0
11.265000 -0.068162 0
11.270000 -0.065994 0
11.275000 -0.063106 0
11.280000 -0.059209 0
11.285000 -0.053945 0
11.290000 -0.046898 0
11.295000 -0.037613 0
11.300000 -0.025634 0
11.305000 -0.010558 0
11.310000 0.007896 0
11.315000 0.029807 0
11.320000 0.054983 0
11.325000 0.082896 0
11.330000 0.112654 0
11.335000 0.143014 0
11.340000 0.172452 0
11.345000 0.199269 0
11.350000 0.221756 0
11.355000 0.238366 0
11.360000 0.247892 0
11.365000 0.249610 1
11.370000 0.243371 0
11.375000 0.229619 0
11.380000 0.209341 0
11.385000 0.183946 0
11.390000 0.155103 0
11.395000 0.124553 0
11.400000 0.093902 0
11.405000 0.064368 0
11.410000 0.036408 0
11.415000 0.009149 0
11.420000 -0.020165 0
11.425000 -0.055919 0
11.430000 -0.101871 0
11.435000 -0.156609 0
11.440000 -0.209001 0
11.445000 -0.237474 2
11.450000 -0.214582 0
11.455000 -0.114167 0
11.460000 0.080845 0
11.465000 0.366705 0
11.470000 0.702597 0
11.475000 1.004528 0
11.480000 1.170563 3
11.485000 1.136200 0
11.490000 0.911301 0
11.495000 0.572211 0
11.500000 0.217700 0
11.505000 -0.075709 0
11.510000 -0.270142 0
11.515000 -0.359875 0
11.520000 -0.360764 4
11.525000 -0.302515 0
11.530000 -0.219581 0
11.535000 -0.139916 0
11.540000 -0.077653 0
11.545000 -0.033878 0
11.550000 -0.002820 0
11.555000 0.022113 0
11.560000 0.045450 0
11.565000 0.069454 0
11.570000 0.094933 0
11.575000 0.121982 0
11.580000 0.150384 0
11.585000 0.179773 0
11.590000 0.209684 0
11.595000 0.239581 0
11.600000 0.268869 0
11.605000 0.296911 0
11.610000 0.323056 0
11.615000 0.346657 0
11.620000 0.367099 0
11.625000 0.383827 0
11.630000 0.396368 0
11.635000 0.404356 0
11.640000 0.407543 5
11.645000 0.405818 0
11.650000 0.399209 0
11.655000 0.387884 0
11.660000 0.372140 0
11.665000 0.352395 0
11.670000 0.329163 0
11.675000 0.303038 0
11.680000 0.274662 0
11.685000 0.244703 0
11.690000 0.213828 0
11.695000 0.182678 0
11.700000 0.151848 0
11.705000 0.121867 0
11.710000 0.093189 0
11.715000 0.066183 0
11.720000 0.041130 0
11.725000 0.018223 0
11.730000 -0.002426 0
11.735000 -0.020782 0
11.740000 -0.036874 0
11.745000 -0.050783 0
11.750000 -0.062635 0
11.755000 -0.072584 0
11.760000 -0.080806 0
11.765000 -0.087487 0
11.770000 -0.092812 0
11.775000 -0.096966 0
11.780000 -0.100120 0
11.785000 -0.102434 0
11.790000 -0.104050 0
11.795000 -0.105096 0
11.800000 -0.105682 0
11.805000 -0.105729 0
11.810000 -0.104768 0
11.815000 -0.103812 0
11.820000 -0.102861 0
11.825000 -0.101915 0
11.830000 -0.100973 0
11.835000 -0.100036 0
11.840000 -0.099103 0
11.845000 -0.098175 0
11.850000 -0.097250 0
11.855000 -0.096329 0
11.860000 -0.095409 0
11.865000 -0.094487 0
11.870000 -0.093559 0
11.875000 -0.092615 0
11.880000 -0.091641 0
11.885000 -0.090611 0
11.890000 -0.089487 0
11.895000 -0.088209 0
11.900000 -0.086687 0
11.905000 -0.084793 0
11.910000 -0.082350 0
11.915000 -0.079123 0
11.920000 -0.074814 0
11.925000 -0.069061 0
11.930000 -0.061449 0
11.935000 -0.051534 0
11.940000 -0.038881 0
11.945000 -0.023118 0
11.950000 -0.004004 0
11.955000 0.018500 0
11.960000 0.044160 0
11.965000 0.072418 0
11.970000 0.102369 0
11.975000 0.132780 0
11.980000 0.162155 0
11.985000 0.188844 0
11.990000 0.211197 0
11.995000 0.227727 0
12.000000 0.237275 0
12.005000 0.239143 1
12.010000 0.233180 0
12.015000 0.219801 0
12.020000 0.199939 0
12.025000 0.174938 0
12.030000 0.146401 0
12.035000 0.116015 0
12.040000 0.085358 0
12.045000 0.055676 0
12.050000 0.027547 0
12.055000 0.000378 0
12.060000 -0.028156 0
12.065000 -0.062096 0
12.070000 -0.105524 0
12.075000 -0.158666 0
12.080000 -0.213299 0
12.085000 -0.250912 2
12.090000 -0.245839 0
12.095000 -0.171652 0
12.100000 -0.008162 0
12.105000 0.249227 0
12.110000 0.574929 0
12.115000 0.901644 0
12.120000 1.131955 0
12.125000 1.181276 3
12.130000 1.028211 0
12.135000 0.725114 0
12.140000 0.365755 0
12.145000 0.038234 0
12.150000 -0.203564 0
12.155000 -0.341185 0
12.160000 -0.381391 4
12.165000 -0.347692 0
12.170000 -0.272864 0
12.175000 -0.188741 0
12.180000 -0.116478 0
12.185000 -0.063242 0
12.190000 -0.026091 0
12.195000 0.001562 0
12.200000 0.025427 0
12.205000 0.048905 0
12.210000 0.073499 0
12.215000 0.099645 0
12.220000 0.127281 0
12.225000 0.156129 0
12.230000 0.185790 0
12.235000 0.215784 0
12.240000 0.245564 0
12.245000 0.274531 0
12.250000 0.302057 0
12.255000 0.327503 0
12.260000 0.350245 0
12.265000 0.369695 0
12.270000 0.385332 0
12.275000 0.396721 0
12.280000 0.403531 0
12.285000 0.405556 5
12.290000 0.402717 0
12.295000 0.395076 0
12.300000 0.382823 0
12.305000 0.366276 0
12.310000 0.345862 0
12.315000 0.322102 0
12.320000 0.295585 0
12.325000 0.266946 0
12.330000 0.236839 0
12.335000 0.205914 0
12.340000 0.174793 0
12.345000 0.144050 0
12.350000 0.114197 0
12.355000 0.085669 0
12.360000 0.058820 0
12.365000 0.033917 0
12.370000 0.011146 0
12.375000 -0.009389 0
12.380000 -0.027656 0
12.385000 -0.043684 0
12.390000 -0.057554 0
12.395000 -0.069389 0
12.400000 -0.079340 0
12.405000 -0.087579 0
12.410000 -0.094286 0
12.415000 -0.099645 0
12.420000 -0.103834 0
12.425000 -0.107023 0
12.430000 -0.109369 0
12.435000 -0.111013 0
12.440000 -0.112081 0
12.445000 -0.112682 0
12.450000 -0.112731 0
12.455000 -0.111736 0
12.460000 -0.110745 0
12.465000 -0.109759 0
12.470000 -0.108778 0
12.475000 -0.107802 0
12.480000 -0.106831 0
12.485000 -0.105865 0
12.490000 -0.104903 0
12.495000 -0.103945 0
12.500000 -0.102990 0
12.505000 -0.102038 0
12.510000 -0.101085 0
12.515000 -0.100128 0
12.520000 -0.099159 0
12.525000 -0.098165 0
12.530000 -0.097125 0
12.535000 -0.096007 0
12.540000 -0.094758 0
12.545000 -0.093303 0
12.550000 -0.091530 0
12.555000 -0.089285 0
12.560000 -0.086360 0
12.565000 -0.082488 0
12.570000 -0.077338 0
12.575000 -0.070525 0
12.580000 -0.061621 0
12.585000 -0.050193 0
12.590000 -0.035843 0
12.595000 -0.018268 0
12.600000 0.002669 0
12.605000 0.026873 0
12.610000 0.053958 0
12.615000 0.083206 0
12.620000 0.113571 0
12.625000 0.143710 0
12.630000 0.172074 0
12.635000 0.197032 0
12.640000 0.217020 0
12.645000 0.230706 0
12.650000 0.237136 1
12.655000 0.235842 0
12.660000 0.226903 0
12.665000 0.210931 0
12.670000 0.189008 0
12.675000 0.162560 0
12.680000 0.133205 0
12.685000 0.102577 0
12.690000 0.072140 0
12.695000 0.042944 0
12.700000 0.015257 0
12.705000 -0.011957 0
12.710000 -0.041513 0
12.715000 -0.077636 0
12.720000 -0.123769 0
12.725000 -0.178415 0
12.730000 -0.231067 0
12.735000 -0.261540 2
12.740000 -0.243978 0
12.745000 -0.153235 0
12.750000 0.028291 0
12.755000 0.300788 0
12.760000 0.632504 0
12.765000 0.951072 0
12.770000 1.159727 0
12.775000 1.181757 3
12.780000 1.002992 0
12.785000 0.684436 0
12.790000 0.325083 0
12.795000 0.011023 0
12.800000 -0.209582 0
12.805000 -0.323966 0
12.810000 -0.343663 4
12.815000 -0.296103 0
12.820000 -0.216008 0
12.825000 -0.134015 0
12.830000 -0.067697 0
12.835000 -0.020545 0
12.840000 0.012407 0
12.845000 0.038003 0
12.850000 0.061309 0
12.855000 0.084998 0
12.860000 0.110094 0
12.865000 0.136783 0
12.870000 0.164884 0
12.875000 0.194046 0
12.880000 0.223815 0
12.885000 0.253658 0
12.890000 0.282980 0
12.895000 0.311144 0
12.900000 0.337489 0
12.905000 0.361359 0
12.910000 0.382128 0
12.915000 0.399226 0
12.920000 0.412162 0
12.925000 0.420553 0
12.930000 0.424136 5
12.935000 0.422784 0
12.940000 0.416513 0
12.945000 0.405478 0
12.950000 0.389972 0
12.955000 0.370408 0
12.960000 0.347300 0
12.965000 0.321243 0
12.970000 0.292885 0
12.975000 0.262902 0
12.980000 0.231967 0
12.985000 0.200732 0
12.990000 0.169799 0
12.995000 0.139707 0
13.000000 0.110916 0
13.005000 0.083801 0
13.010000 0.058647 0
13.015000 0.035650 0
13.020000 0.014924 0
13.025000 -0.003496 0
13.030000 -0.019638 0
13.035000 -0.033589 0
13.040000 -0.045473 0
13.045000 -0.055449 0
13.050000 -0.063695 0
13.055000 -0.070398 0
13.060000 -0.075747 0
13.065000 -0.079926 0
13.070000 -0.083110 0
13.075000 -0.085457 0
13.080000 -0.087113 0
13.085000 -0.088204 0
13.090000 -0.088839 0
13.095000 -0.088182 0
13.100000 -0.087308 0
13.105000 -0.086440 0
13.110000 -0.085575 0
13.115000 -0.084715 0
13.120000 -0.083859 0
13.125000 -0.083007 0
13.130000 -0.082159 0
13.135000 -0.081315 0
13.140000 -0.080475 0
13.145000 -0.079637 0
13.150000 -0.078799 0
13.155000 -0.077959 0
13.160000 -0.077110 0
13.165000 -0.076244 0
13.170000 -0.075343 0
13.175000 -0.074380 0
13.180000 -0.073312 0
13.185000 -0.072074 0
13.190000 -0.070568 0
13.195000 -0.068656 0
13.200000 -0.066148 0
13.205000 -0.062791 0
13.210000 -0.058272 0
13.215000 -0.052209 0
13.220000 -0.044174 0
13.225000 -0.033716 0
13.230000 -0.020404 0
13.235000 -0.003889 0
13.240000 0.016029 0
13.245000 0.039324 0
13.250000 0.065679 0
13.255000 0.094435 0
13.260000 0.124584 0
13.265000 0.154792 0
13.270000 0.183491 0
13.275000 0.208994 0
13.280000 0.229665 0
13.285000 0.244082 0
13.290000 0.251204 1
13.295000 0.250493 0
13.300000 0.241980 0
13.305000 0.226265 0
13.310000 0.204442 0
13.315000 0.177978 0
13.320000 0.148543 0
13.325000 0.117829 0
13.330000 0.087343 0
13.335000 0.058146 0
13.340000 0.030459 0
13.345000 0.003086 0
13.350000 -0.027047 0
13.355000 -0.064365 0
13.360000 -0.112043 0
13.365000 -0.167417 0
13.370000 -0.217960 0
13.375000 -0.241367 2
13.380000 -0.210523 0
13.385000 -0.100441 0
13.390000 0.104070 0
13.395000 0.396557 0
13.400000 0.733344 0
13.405000 1.029507 0
13.410000 1.185673 3
13.415000 1.138670 0
13.420000 0.902148 0
13.425000 0.557876 0
13.430000 0.206648 0
13.435000 -0.076760 0
13.440000 -0.257753 0
13.445000 -0.333774 4
13.450000 -0.323535 0
13.455000 -0.258966 0
13.460000 -0.175076 0
13.465000 -0.098312 0
13.470000 -0.040277 0
13.475000 -0.000045 0
13.480000 0.028915 0
13.485000 0.053005 0
13.490000 0.076251 0
13.495000 0.100501 0
13.500000 0.126323 0
13.505000 0.153696 0
13.510000 0.182339 0
13.515000 0.211843 0
13.520000 0.241703 0
13.525000 0.271347 0
13.530000 0.300145 0
13.535000 0.327437 0
13.540000 0.352550 0
13.545000 0.374831 0
13.550000 0.393670 0
13.555000 0.408529 0
13.560000 0.418968 0
13.565000 0.424663 0
13.570000 0.425424 5
13.575000 0.421203 0
13.580000 0.412100 0
13.585000 0.398356 0
13.590000 0.380341 0
13.595000 0.358539 0
13.600000 0.333525 0
13.605000 0.305941 0
13.610000 0.276463 0
13.615000 0.245782 0
13.620000 0.214567 0
13.625000 0.183450 0
13.630000 0.153003 0
13.635000 0.123721 0
13.640000 0.096014 0
13.645000 0.070201 0
13.650000 0.046509 0
13.655000 0.025077 0
13.660000 0.005966 0
13.665000 -0.010837 0
13.670000 -0.025403 0
13.675000 -0.037849 0
13.680000 -0.048329 0
13.685000 -0.057018 0
13.690000 -0.064104 0
13.695000 -0.069782 0
13.700000 -0.074238 0
13.705000 -0.077652 0
13.710000 -0.080191 0
13.715000 -0.082002 0
13.720000 -0.083220 0
13.725000 -0.083959 0
13.730000 -0.084142 0
13.735000 -0.083289 0
13.740000 -0.082440 0
13.745000 -0.081595 0
13.750000 -0.080755 0
13.755000 -0.079919 0
13.760000 -0.079087 0
13.765000 -0.078258 0
13.770000 -0.077434 0
13.775000 -0.076613 0
13.780000 -0.075794 0
13.785000 -0.074976 0
13.790000 -0.074156 0
13.795000 -0.073328 0
13.800000 -0.072482 0
13.805000 -0.071604 0
13.810000 -0.070664 0
13.815000 -0.069622 0
13.820000 -0.068412 0
13.825000 -0.066938 0
13.830000 -0.065059 0
13.835000 -0.062584 0
13.840000 -0.059261 0
13.845000 -0.054769 0
13.850000 -0.048723 0
13.855000 -0.040688 0
13.860000 -0.030206 0
13.865000 -0.016841 0
13.870000 -0.000239 0
13.875000 0.019796 0
13.880000 0.043227 0
13.885000 0.069717 0
13.890000 0.098579 0
13.895000 0.128766 0
13.900000 0.158907 0
13.905000 0.187392 0
13.910000 0.212511 0
13.915000 0.232611 0
13.920000 0.246282 0
13.925000 0.252517 1
13.930000 0.250834 0
13.935000 0.241334 0
13.940000 0.224698 0
13.945000 0.202098 0
13.950000 0.175062 0
13.955000 0.145304 0
13.960000 0.114522 0
13.965000 0.084193 0
13.970000 0.055279 0
13.975000 0.027785 0
13.980000 0.000153 0
13.985000 -0.031105 0
13.990000 -0.070513 0
13.995000 -0.120445 0
14.000000 -0.176224 0
14.005000 -0.222644 0
14.010000 -0.235321 2
14.015000 -0.186604 0
14.020000 -0.052827 0
14.025000 0.177119 0
14.030000 0.488001 0
14.035000 0.823291 0
14.040000 1.088372 0
14.045000 1.187727 3
14.050000 1.079587 0
14.055000 0.801396 0
14.060000 0.445372 0
14.065000 0.107434 0
14.070000 -0.149464 0
14.075000 -0.301052 0
14.080000 -0.351429 4
14.085000 -0.323425 0
14.090000 -0.250604 0
14.095000 -0.166494 0
14.100000 -0.093821 0
14.105000 -0.040490 0
14.110000 -0.003558 0
14.115000 0.023814 0
14.120000 0.047500 0
14.125000 0.070924 0
14.130000 0.095552 0
14.135000 0.121774 0
14.140000 0.149494 0
14.145000 0.178401 0
14.150000 0.208069 0
14.155000 0.237983 0
14.160000 0.267561 0
14.165000 0.296175 0
14.170000 0.323165 0
14.175000 0.347866 0
14.180000 0.369636 0
14.185000 0.387884 0
14.190000 0.402089 0
14.195000 0.411834 0
14.200000 0.416818 0
14.205000 0.416874 5
14.210000 0.411977 0
14.215000 0.402247 0
14.220000 0.387940 0
14.225000 0.369441 0
14.230000 0.347242 0
14.235000 0.321923 0
14.240000 0.294125 0
14.245000 0.264521 0
14.250000 0.233793 0
14.255000 0.202604 0
14.260000 0.171573 0
14.265000 0.141260 0
14.270000 0.112147 0
14.275000 0.084634 0
14.280000 0.059027 0
14.285000 0.035546 0
14.290000 0.014322 0
14.295000 -0.004591 0
14.300000 -0.021210 0
14.305000 -0.035607 0
14.310000 -0.047901 0
14.315000 -0.058247 0
14.320000 -0.066818 0
14.325000 -0.073802 0
14.330000 -0.079390 0
14.335000 -0.083768 0
14.340000 -0.087113 0
14.345000 -0.089590 0
14.350000 -0.091347 0
14.355000 -0.092513 0
14.360000 -0.093204 0
14.365000 -0.093341 0
14.370000 -0.092442 0
14.375000 -0.091547 0
14.380000 -0.090657 0
14.385000 -0.089772 0
14.390000 -0.088891 0
14.395000 -0.088014 0
14.400000 -0.087141 0
14.405000 -0.086272 0
14.410000 -0.085407 0
14.415000 -0.084545 0
14.420000 -0.083683 0
14.425000 -0.082820 0
14.430000 -0.081950 0
14.435000 -0.081063 0
14.440000 -0.080145 0
14.445000 -0.079169 0
14.450000 -0.078096 0
14.455000 -0.076862 0
14.460000 -0.075374 0
14.465000 -0.073500 0
14.470000 -0.071054 0
14.475000 -0.067793 0
14.480000 -0.063405 0
14.485000 -0.057517 0
14.490000 -0.049702 0
14.495000 -0.039506 0
14.500000 -0.026493 0
14.505000 -0.010297 0
14.510000 0.009301 0
14.515000 0.032300 0
14.520000 0.058413 0
14.525000 0.087010 0
14.530000 0.117108 0
14.535000 0.147395 0
14.540000 0.176305 0
14.545000 0.202150 0
14.550000 0.223270 0
14.555000 0.238214 0
14.560000 0.245903 1
14.565000 0.245755 0
14.570000 0.237763 0
14.575000 0.222493 0
14.580000 0.201019 0
14.585000 0.174798 0
14.590000 0.145503 0
14.595000 0.114838 0
14.600000 0.084334 0
14.605000 0.055088 0
14.610000 0.027371 0
14.615000 0.000051 0
14.620000 -0.029890 0
14.625000 -0.066883 0
14.630000 -0.114226 0
14.635000 -0.169486 0
14.640000 -0.220356 0
14.645000 -0.244602 2
14.650000 -0.214985 0
14.655000 -0.106275 0
14.660000 0.097032 0
14.665000 0.388808 0
14.670000 0.725546 0
14.675000 1.022083 0
14.680000 1.178464 3
14.685000 1.131200 0
14.690000 0.894143 0
14.695000 0.549586 0
14.700000 0.198711 0
14.705000 -0.083690 0
14.710000 -0.263261 0
14.715000 -0.337763 4
14.720000 -0.326254 0
14.725000 -0.260958 0
14.730000 -0.176975 0
14.735000 -0.100577 0
14.740000 -0.043052 0
14.745000 -0.003229 0
14.750000 0.025512 0
14.755000 0.049544 0
14.760000 0.072827 0
14.765000 0.097154 0
14.770000 0.123064 0
14.775000 0.150520 0
14.780000 0.179234 0
14.785000 0.208789 0
14.790000 0.238676 0
14.795000 0.268314 0
14.800000 0.297070 0
14.805000 0.324279 0
14.810000 0.349266 0
14.815000 0.371375 0
14.820000 0.389999 0
14.825000 0.404602 0
14.830000 0.414749 0
14.835000 0.420123 0
14.840000 0.420543 5
14.845000 0.415973 0
14.850000 0.406523 0
14.855000 0.392444 0
14.860000 0.374121 0
14.865000 0.352046 0
14.870000 0.326805 0
14.875000 0.299046 0
14.880000 0.269451 0
14.885000 0.238712 0
14.890000 0.207501 0
14.895000 0.176446 0
14.900000 0.146115 0
14.905000 0.116997 0
14.910000 0.089494 0
14.915000 0.063919 0
14.920000 0.040488 0
14.925000 0.019333 0
14.930000 0.000505 0
14.935000 -0.016015 0
14.940000 -0.030304 0
14.945000 -0.042486 0
14.950000 -0.052718 0
14.955000 -0.061178 0
14.960000 -0.068057 0
14.965000 -0.073548 0
14.970000 -0.077840 0
14.975000 -0.081111 0
14.980000 -0.083525 0
14.985000 -0.085231 0
14.990000 -0.086360 0
14.995000 -0.087023 0
15.000000 -0.087148 0
15.005000 -0.086280 0
15.010000 -0.085417 0
15.015000 -0.084557 0
15.020000 -0.083702 0
15.025000 -0.082851 0
15.030000 -0.082005 0
15.035000 -0.081162 0
15.040000 -0.080323 0
15.045000 -0.079487 0
15.050000 -0.078653 0
15.055000 -0.077820 0
15.060000 -0.076984 0
15.065000 -0.076139 0
15.070000 -0.075275 0
15.075000 -0.074372 0
15.080000 -0.073403 0
15.085000 -0.072321 0
15.090000 -0.071055 0
15.095000 -0.069501 0
15.100000 -0.067509 0
15.105000 -0.064876 0
15.110000 -0.061335 0
15.115000 -0.056550 0
15.120000 -0.050124 0
15.125000 -0.041611 0
15.130000 -0.030551 0
15.135000 -0.016518 0
15.140000 0.000815 0
15.145000 0.021604 0
15.150000 0.045752 0
15.155000 0.072847 0
15.160000 0.102120 0
15.165000 0.132440 0
15.170000 0.162370 0
15.175000 0.190255 0
15.180000 0.214375 0
15.185000 0.233110 0
15.190000 0.245123 0
15.195000 0.249519 1
15.200000 0.245949 0
15.205000 0.234657 0
15.210000 0.216457 0
15.215000 0.192628 0
15.220000 0.164768 0
15.225000 0.134613 0
15.230000 0.103836 0
15.235000 0.073820 0
15.240000 0.045337 0
15.245000 0.018047 0
15.250000 -0.010114 0
15.255000 -0.043090 0
15.260000 -0.085266 0
15.265000 -0.137628 0
15.270000 -0.192810 0
15.275000 -0.232659 2
15.280000 -0.231076 0
15.285000 -0.160659 0
15.290000 -0.000133 0
15.295000 0.255880 0
15.300000 0.581505 0
15.305000 0.907303 0
15.310000 1.132732 0
15.315000 1.172091 3
15.320000 1.006385 0
15.325000 0.694183 0
15.330000 0.334627 0
15.335000 0.016493 0
15.340000 -0.209326 0
15.345000 -0.328389 0
15.350000 -0.351428 4
15.355000 -0.305638 0
15.360000 -0.226004 0
15.365000 -0.143747 0
15.370000 -0.077000 0
15.375000 -0.029541 0
15.380000 0.003564 0
15.385000 0.029227 0
15.390000 0.052578 0
15.395000 0.076317 0
15.400000 0.101473 0
15.405000 0.128231 0
15.410000 0.156403 0
15.415000 0.185633 0
15.420000 0.215458 0
15.425000 0.245340 0
15.430000 0.274675 0
15.435000 0.302817 0
15.440000 0.329101 0
15.445000 0.352863 0
15.450000 0.373474 0
15.455000 0.390361 0
15.460000 0.403036 0
15.465000 0.411119 0
15.470000 0.414354 5
15.475000 0.412626 0
15.480000 0.405961 0
15.485000 0.394531 0
15.490000 0.378642 0
15.495000 0.358722 0
15.500000 0.335302 0
15.505000 0.308989 0
15.510000 0.280442 0
15.515000 0.250346 0
15.520000 0.219378 0
15.525000 0.188192 0
15.530000 0.157388 0
15.535000 0.127499 0
15.540000 0.098979 0
15.545000 0.072193 0
15.550000 0.047414 0
15.555000 0.024826 0
15.560000 0.004531 0
15.565000 -0.013447 0
15.570000 -0.029149 0
15.575000 -0.042669 0
15.580000 -0.054140 0
15.585000 -0.063728 0
15.590000 -0.071615 0
15.595000 -0.077990 0
15.600000 -0.083044 0
15.605000 -0.086961 0
15.610000 -0.089914 0
15.615000 -0.092062 0
15.620000 -0.093545 0
15.625000 -0.094488 0
15.630000 -0.094997 0
15.635000 -0.094294 0
15.640000 -0.093391 0
15.645000 -0.092492 0
15.650000 -0.091597 0
15.655000 -0.090707 0
15.660000 -0.089821 0
15.665000 -0.088939 0
15.670000 -0.088062 0
15.675000 -0.087188 0
15.680000 -0.086318 0
15.685000 -0.085450 0
15.690000 -0.084581 0
15.695000 -0.083709 0
15.700000 -0.082827 0
15.705000 -0.081921 0
15.710000 -0.080974 0
15.715000 -0.079953 0
15.720000 -0.078807 0
15.725000 -0.077462 0
15.730000 -0.075805 0
15.735000 -0.073681 0
15.740000 -0.070875 0
15.745000 -0.067112 0
15.750000 -0.062049 0
15.755000 -0.055281 0
15.760000 -0.046364 0
15.765000 -0.034843 0
15.770000 -0.020307 0
15.775000 -0.002452 0
15.780000 0.018845 0
15.785000 0.043448 0
15.790000 0.070904 0
15.795000 0.100402 0
15.800000 0.130784 0
15.805000 0.160593 0
15.810000 0.188175 0
15.815000 0.211828 0
15.820000 0.229971 0
15.825000 0.241316 0
15.830000 0.245023 1
15.835000 0.240800 0
15.840000 0.228940 0
15.845000 0.210289 0
15.850000 0.186143 0
15.855000 0.158102 0
15.860000 0.127887 0
15.865000 0.097144 0
15.870000 0.067220 0
15.875000 0.038837 0
15.880000 0.011593 0
15.885000 -0.016635 0
15.890000 -0.049809 0
15.895000 -0.092240 0
15.900000 -0.144753 0
15.905000 -0.199833 0
15.910000 -0.239331 2
15.915000 -0.237335 0
15.920000 -0.166720 0
15.925000 -0.006429 0
15.930000 0.248939 0
15.935000 0.574075 0
15.940000 0.900737 0
15.945000 1.129527 0
15.950000 1.174569 3
15.955000 1.016847 0
15.960000 0.711066 0
15.965000 0.351559 0
15.970000 0.025873 0
15.975000 -0.213082 0
15.980000 -0.347680 0
15.985000 -0.385276 4
15.990000 -0.349807 0
15.995000 -0.274228 0
16.000000 -0.190212 0
16.005000 -0.118506 0
16.010000 -0.065870 0
16.015000 -0.029133 0
16.020000 -0.001674 0
16.025000 0.022154 0
16.030000 0.045675 0
16.035000 0.070344 0
16.040000 0.096569 0
16.045000 0.124279 0
16.050000 0.153187 0
16.055000 0.182892 0
16.060000 0.212909 0
16.065000 0.242687 0
16.070000 0.271627 0
16.075000 0.299098 0
16.080000 0.324460 0
16.085000 0.347088 0
16.090000 0.366397 0
16.095000 0.381869 0
16.100000 0.393072 0
16.105000 0.399680 0
16.110000 0.401492 5
16.115000 0.398438 0
16.120000 0.390583 0
16.125000 0.378125 0
16.130000 0.361390 0
16.135000 0.340810 0
16.140000 0.316910 0
16.145000 0.290283 0
16.150000 0.261568 0
16.155000 0.231418 0
16.160000 0.200485 0
16.165000 0.169389 0
16.170000 0.138702 0
16.175000 0.108932 0
16.180000 0.080510 0
16.185000 0.053787 0
16.190000 0.029025 0
16.195000 0.006404 0
16.200000 -0.013976 0
16.205000 -0.032086 0
16.210000 -0.047959 0
16.215000 -0.061679 0
16.220000 -0.073372 0
16.225000 -0.083190 0
16.230000 -0.091307 0
16.235000 -0.097903 0
16.240000 -0.103162 0
16.245000 -0.107262 0
16.250000 -0.110372 0
16.255000 -0.112649 0
16.260000 -0.114234 0
16.265000 -0.115250 0
16.270000 -0.115805 0
16.275000 -0.115819 0
16.280000 -0.114808 0
16.285000 -0.113802 0
16.290000 -0.112801 0
16.295000 -0.111805 0
16.300000 -0.110814 0
16.305000 -0.109828 0
16.310000 -0.108846 0
16.315000 -0.107869 0
16.320000 -0.106897 0
16.325000 -0.105927 0
16.330000 -0.104960 0
16.335000 -0.103992 0
16.340000 -0.103020 0
16.345000 -0.102034 0
16.350000 -0.101022 0
16.355000 -0.099963 0
16.360000 -0.098821 0
16.365000 -0.097543 0
16.370000 -0.096051 0
16.375000 -0.094230 0
16.380000 -0.091920 0
16.385000 -0.088909 0
16.390000 -0.084923 0
16.395000 -0.079626 0
16.400000 -0.072627 0
16.405000 -0.063497 0
16.410000 -0.051801 0
16.415000 -0.037148 0
16.420000 -0.019248 0
16.425000 0.002019 0
16.430000 0.026533 0
16.435000 0.053875 0
16.440000 0.083296 0
16.445000 0.113715 0
16.450000 0.143765 0
16.455000 0.171880 0
16.460000 0.196425 0
16.465000 0.215852 0
16.470000 0.228856 0
16.475000 0.234528 1
16.480000 0.232453 0
16.485000 0.222766 0
16.490000 0.206133 0
16.495000 0.183679 0
16.500000 0.156861 0
16.505000 0.127308 0
16.510000 0.096650 0
16.515000 0.066319 0
16.520000 0.037304 0
16.525000 0.009761 0
16.530000 -0.017527 0
16.535000 -0.047575 0
16.540000 -0.084678 0
16.545000 -0.131963 0
16.550000 -0.187088 0
16.555000 -0.238384 0
16.560000 -0.264716 2
16.565000 -0.239937 0
16.570000 -0.139369 0
16.575000 0.053209 0
16.580000 0.335050 0
16.585000 0.669735 0
16.590000 0.980434 0
16.595000 1.169935 3
16.600000 1.167229 0
16.605000 0.968837 0
16.610000 0.641686 0
16.615000 0.283292 0
16.620000 -0.024936 0
16.625000 -0.238883 0
16.630000 -0.347919 0
16.635000 -0.364292 4
16.640000 -0.315261 0
16.645000 -0.234808 0
16.650000 -0.152729 0
16.655000 -0.086143 0
16.660000 -0.038543 0
16.665000 -0.005160 0
16.670000 0.020714 0
16.675000 0.044135 0
16.680000 0.067828 0
16.685000 0.092872 0
16.690000 0.119492 0
16.695000 0.147533 0
16.700000 0.176664 0
16.705000 0.206452 0
16.710000 0.236385 0
16.715000 0.265891 0
16.720000 0.294351 0
16.725000 0.321124 0
16.730000 0.345567 0
16.735000 0.367061 0
16.740000 0.385035 0
16.745000 0.398993 0
16.750000 0.408536 0
16.755000 0.413378 5
16.760000 0.413362 0
16.765000 0.408468 0
16.770000 0.398810 0
16.775000 0.384638 0
16.780000 0.366322 0
16.785000 0.344336 0
16.790000 0.319239 0
16.795000 0.291651 0
16.800000 0.262223 0
16.805000 0.231619 0
16.810000 0.200483 0
16.815000 0.169426 0
16.820000 0.138998 0
16.825000 0.109682 0
16.830000 0.081878 0
16.835000 0.055903 0
16.840000 0.031985 0
16.845000 0.010270 0
16.850000 -0.009172 0
16.855000 -0.026343 0
16.860000 -0.041299 0
16.865000 -0.054146 0
16.870000 -0.065023 0
16.875000 -0.074096 0
16.880000 -0.081544 0
16.885000 -0.087551 0
16.890000 -0.092301 0
16.895000 -0.095970 0
16.900000 -0.098722 0
16.905000 -0.100707 0
16.910000 -0.102060 0
16.915000 -0.102898 0
16.920000 -0.103322 0
16.925000 -0.102571 0
16.930000 -0.101626 0
16.935000 -0.100686 0
16.940000 -0.099751 0
16.945000 -0.098820 0
16.950000 -0.097893 0
16.955000 -0.096972 0
16.960000 -0.096054 0
16.965000 -0.095141 0
16.970000 -0.094231 0
16.975000 -0.093323 0
16.980000 -0.092416 0
16.985000 -0.091506 0
16.990000 -0.090587 0
16.995000 -0.089648 0
17.000000 -0.088671 0
17.005000 -0.087628 0
17.010000 -0.086473 0
17.015000 -0.085140 0
17.020000 -0.083528 0
17.025000 -0.081496 0
17.030000 -0.078852 0
17.035000 -0.075346 0
17.040000 -0.070664 0
17.045000 -0.064431 0
17.050000 -0.056226 0
17.055000 -0.045608 0
17.060000 -0.032160 0
17.065000 -0.015542 0
17.070000 0.004439 0
17.075000 0.027756 0
17.080000 0.054103 0
17.085000 0.082846 0
17.090000 0.113008 0
17.095000 0.143305 0
17.100000 0.172213 0
17.105000 0.198090 0
17.110000 0.219325 0
17.115000 0.234506 0
17.120000 0.242569 0
17.125000 0.242928 1
17.130000 0.235539 0
17.135000 0.220911 0
17.140000 0.200047 0
17.145000 0.174331 0
17.150000 0.145371 0
17.155000 0.114829 0
17.160000 0.084231 0
17.165000 0.054735 0
17.170000 0.026787 0
17.175000 -0.000398 0
17.180000 -0.029354 0
17.185000 -0.064211 0
17.190000 -0.108801 0
17.195000 -0.162657 0
17.200000 -0.216634 0
17.205000 -0.251565 2
17.210000 -0.241751 0
17.215000 -0.161328 0
17.220000 0.008860 0
17.225000 0.271798 0
17.230000 0.599809 0
17.235000 0.924068 0
17.240000 1.147706 0
17.245000 1.188955 3
17.250000 1.026011 0
17.255000 0.715047 0
17.260000 0.355404 0
17.265000 0.036537 0
17.270000 -0.190083 0
17.275000 -0.309735 0
17.280000 -0.333096 4
17.285000 -0.287433 0
17.290000 -0.207870 0
17.295000 -0.125737 0
17.300000 -0.059189 0
17.305000 -0.011952 0
17.310000 0.020963 0
17.315000 0.046489 0
17.320000 0.069748 0
17.325000 0.093421 0
17.330000 0.118524 0
17.335000 0.145230 0
17.340000 0.173348 0
17.345000 0.202517 0
17.350000 0.232271 0
17.355000 0.262066 0
17.360000 0.291295 0
17.365000 0.319309 0
17.370000 0.345439 0
17.375000 0.369019 0
17.380000 0.389419 0
17.385000 0.406066 0
17.390000 0.418475 0
17.395000 0.426269 0
17.400000 0.429197 5
17.405000 0.427150 0
17.410000 0.420161 0
17.415000 0.408411 0
17.420000 0.392213 0
17.425000 0.372003 0
17.430000 0.348320 0
17.435000 0.321777 0
17.440000 0.293039 0
17.445000 0.262791 0
17.450000 0.231717 0
17.455000 0.200466 0
17.460000 0.169638 0
17.465000 0.139764 0
17.470000 0.111293 0
17.475000 0.084583 0
17.480000 0.059902 0
17.485000 0.037430 0
17.490000 0.017259 0
17.495000 -0.000591 0
17.500000 -0.016167 0
17.505000 -0.029566 0
17.510000 -0.040926 0
17.515000 -0.050415 0
17.520000 -0.058217 0
17.525000 -0.064523 0
17.530000 -0.069524 0
17.535000 -0.073403 0
17.540000 -0.076334 0
17.545000 -0.078473 0
17.550000 -0.079960 0
17.555000 -0.080917 0
17.560000 -0.081452 0
17.565000 -0.080810 0
17.570000 -0.079974 0
17.575000 -0.079142 0
17.580000 -0.078313 0
17.585000 -0.077489 0
17.590000 -0.076669 0
17.595000 -0.075853 0
17.600000 -0.075041 0
17.605000 -0.074232 0
17.610000 -0.073427 0
17.615000 -0.072622 0
17.620000 -0.071817 0
17.625000 -0.071007 0
17.630000 -0.070185 0
17.635000 -0.069337 0
17.640000 -0.068444 0
17.645000 -0.067469 0
17.650000 -0.066361 0
17.655000 -0.065037 0
17.660000 -0.063380 0
17.665000 -0.061224 0
17.670000 -0.058346 0
17.675000 -0.054458 0
17.680000 -0.049204 0
17.685000 -0.042171 0
17.690000 -0.032907 0
17.695000 -0.020960 0
17.700000 -0.005929 0
17.705000 0.012466 0
17.710000 0.034306 0
17.715000 0.059404 0
17.720000 0.087241 0
17.725000 0.116942 0
17.730000 0.147280 0
17.735000 0.176748 0
17.740000 0.203665 0
17.745000 0.226330 0
17.750000 0.243198 0
17.755000 0.253054 0
17.760000 0.255153 1
17.765000 0.249318 0
17.770000 0.235957 0
17.775000 0.216022 0
17.780000 0.190889 0
17.785000 0.162204 0
17.790000 0.131698 0
17.795000 0.100980 0
17.800000 0.071302 0
17.805000 0.043197 0
17.810000 0.015936 0
17.815000 -0.013040 0
17.820000 -0.047994 0
17.825000 -0.092886 0
17.830000 -0.147062 0
17.835000 -0.200599 0
17.840000 -0.233055 2
17.845000 -0.217493 0
17.850000 -0.127427 0
17.855000 0.055651 0
17.860000 0.331399 0
17.865000 0.664712 0
17.870000 0.977139 0
17.875000 1.167111 3
17.880000 1.160276 0
17.885000 0.955295 0
17.890000 0.623868 0
17.895000 0.266882 0
17.900000 -0.033997 0
17.905000 -0.236647 0
17.910000 -0.333083 0
17.915000 -0.338297 4
17.920000 -0.282057 0
17.925000 -0.199565 0
17.930000 -0.119746 0
17.935000 -0.057377 0
17.940000 -0.013700 0
17.945000 0.017163 0
17.950000 0.041929 0
17.955000 0.065169 0
17.960000 0.089136 0
17.965000 0.114612 0
17.970000 0.141669 0
17.975000 0.170073 0
17.980000 0.199441 0
17.985000 0.229293 0
17.990000 0.259071 0
17.995000 0.288162 0
18.000000 0.315915 0
18.005000 0.341659 0
18.010000 0.364739 0
18.015000 0.384534 0
18.020000 0.400487 0
18.025000 0.412134 0
18.030000 0.419119 0
18.035000 0.421219 5
18.040000 0.418347 0
18.045000 0.410565 0
18.050000 0.398074 0
18.055000 0.381209 0
18.060000 0.360423 0
18.065000 0.336267 0
18.070000 0.309362 0
18.075000 0.280376 0
18.080000 0.249993 0
18.085000 0.218888 0
18.090000 0.187705 0
18.095000 0.157030 0
18.100000 0.127381 0
18.105000 0.099190 0
18.110000 0.072803 0
18.115000 0.048473 0
18.120000 0.026365 0
18.125000 0.006562 0
18.130000 -0.010928 0
18.135000 -0.026159 0
18.140000 -0.039233 0
18.145000 -0.050295 0
18.150000 -0.059512 0
18.155000 -0.067070 0
18.160000 -0.073159 0
18.165000 -0.077970 0
18.170000 -0.081684 0
18.175000 -0.084471 0
18.180000 -0.086486 0
18.185000 -0.087866 0
18.190000 -0.088731 0
18.195000 -0.089184 0
18.200000 -0.088498 0
18.205000 -0.087623 0
18.210000 -0.086753 0
18.215000 -0.085887 0
18.220000 -0.085025 0
18.225000 -0.084167 0
18.230000 -0.083314 0
18.235000 -0.082464 0
18.240000 -0.081619 0
18.245000 -0.080776 0
18.250000 -0.079934 0
18.255000 -0.079092 0
18.260000 -0.078245 0
18.265000 -0.077384 0
18.270000 -0.076498 0
18.275000 -0.075563 0
18.280000 -0.074544 0
18.285000 -0.073386 0
18.290000 -0.072006 0
18.295000 -0.070283 0
18.300000 -0.068047 0
18.305000 -0.065073 0
18.310000 -0.061067 0
18.315000 -0.055673 0
18.320000 -0.048473 0
18.325000 -0.039018 0
18.330000 -0.026857 0
18.335000 -0.011598 0
18.340000 0.007029 0
18.345000 0.029092 0
18.350000 0.054386 0
18.355000 0.082378 0
18.360000 0.112174 0
18.365000 0.142538 0
18.370000 0.171957 0
18.375000 0.198751 0
18.380000 0.221230 0
18.385000 0.237864 0
18.390000 0.247460 0
18.395000 0.249298 1
18.400000 0.243220 0
18.405000 0.229655 0
18.410000 0.209565 0
18.415000 0.184334 0
18.420000 0.155607 0
18.425000 0.125105 0
18.430000 0.094428 0
18.435000 0.064811 0
18.440000 0.036764 0
18.445000 0.009531 0
18.450000 -0.019472 0
18.455000 -0.054508 0
18.460000 -0.099494 0
18.465000 -0.153700 0
18.470000 -0.207138 0
18.475000 -0.239369 2
18.480000 -0.223540 0
18.485000 -0.133280 0
18.490000 0.049828 0
18.495000 0.325450 0
18.500000 0.658702 0
18.505000 0.971577 0
18.510000 1.162878 3
18.515000 1.158097 0
18.520000 0.954758 0
18.525000 0.623977 0
18.530000 0.266869 0
18.535000 -0.034451 0
18.540000 -0.237534 0
18.545000 -0.334251 0
18.550000 -0.339578 4
18.555000 -0.283342 0
18.560000 -0.200835 0
18.565000 -0.121043 0
18.570000 -0.058741 0
18.575000 -0.015139 0
18.580000 0.015674 0
18.585000 0.040423 0
18.590000 0.063671 0
18.595000 0.087660 0
18.600000 0.113164 0
18.605000 0.140249 0
18.610000 0.168680 0
18.615000 0.198069 0
18.620000 0.227933 0
18.625000 0.257713 0
18.630000 0.286795 0
18.635000 0.314521 0
18.640000 0.340224 0
18.645000 0.363243 0
18.650000 0.382958 0
18.655000 0.398814 0
18.660000 0.410346 0
18.665000 0.417204 0
18.670000 0.419164 5
18.675000 0.416146 0
18.680000 0.408215 0
18.685000 0.395578 0
18.690000 0.378576 0
18.695000 0.357666 0
18.700000 0.333402 0
18.705000 0.306412 0
18.710000 0.277364 0
18.715000 0.246946 0
18.720000 0.215833 0
18.725000 0.184669 0
18.730000 0.154039 0
18.735000 0.124457 0
18.740000 0.096355 0
18.745000 0.070073 0
18.750000 0.045861 0
18.755000 0.023880 0
18.760000 0.004209 0
18.765000 -0.013148 0
18.770000 -0.028247 0
18.775000 -0.041194 0
18.780000 -0.052135 0
18.785000 -0.061241 0
18.790000 -0.068696 0
18.795000 -0.074693 0
18.800000 -0.079422 0
18.805000 -0.083064 0
18.810000 -0.085789 0
18.815000 -0.087750 0
18.820000 -0.089084 0
18.825000 -0.089911 0
18.830000 -0.090143 0
18.835000 -0.089260 0
18.840000 -0.088382 0
18.845000 -0.087508 0
18.850000 -0.086638 0
18.855000 -0.085772 0
18.860000 -0.084911 0
18.865000 -0.084054 0
18.870000 -0.083201 0
18.875000 -0.082351 0
18.880000 -0.081504 0
18.885000 -0.080659 0
18.890000 -0.079813 0
18.895000 -0.078960 0
18.900000 -0.078094 0
18.905000 -0.077201 0
18.910000 -0.076256 0
18.915000 -0.075222 0
18.920000 -0.074043 0
18.925000 -0.072632 0
18.930000 -0.070862 0
18.935000 -0.068560 0
18.940000 -0.065492 0
18.945000 -0.061357 0
18.950000 -0.055791 0
18.955000 -0.048371 0
18.960000 -0.038643 0
18.965000 -0.026161 0
18.970000 -0.010539 0
18.975000 0.008473 0
18.980000 0.030918 0
18.985000 0.056557 0
18.990000 0.084812 0
18.995000 0.114748 0
19.000000 0.145089 0
19.005000 0.174290 0
19.010000 0.200659 0
19.015000 0.222511 0
19.020000 0.238343 0
19.025000 0.247011 0
19.030000 0.247859 1
19.035000 0.240803 0
19.040000 0.226345 0
19.045000 0.205511 0
19.050000 0.179732 0
19.055000 0.150678 0
19.060000 0.120070 0
19.065000 0.089480 0
19.070000 0.060072 0
19.075000 0.032221 0
19.080000 0.004947 0
19.085000 -0.024615 0
19.090000 -0.060868 0
19.095000 -0.107382 0
19.100000 -0.162345 0
19.105000 -0.214187 0
19.110000 -0.241123 2
19.115000 -0.215849 0
19.120000 -0.112609 0
19.125000 0.085092 0
19.130000 0.372762 0
19.135000 0.708940 0
19.140000 1.009652 0
19.145000 1.173881 3
19.150000 1.134967 0
19.155000 0.903584 0
19.160000 0.560881 0
19.165000 0.208995 0
19.170000 -0.075630 0
19.175000 -0.257431 0
19.180000 -0.333599 4
19.185000 -0.323040 0
19.190000 -0.258097 0
19.195000 -0.174157 0
19.200000 -0.097754 0
19.205000 -0.040289 0
19.210000 -0.000566 0
19.215000 0.028090 0
19.220000 0.052081 0
19.225000 0.075362 0
19.230000 0.099710 0
19.235000 0.125651 0
19.240000 0.153139 0
19.245000 0.181880 0
19.250000 0.211448 0
19.255000 0.241329 0
19.260000 0.270935 0
19.265000 0.299626 0
19.270000 0.326731 0
19.275000 0.351569 0
19.280000 0.373483 0
19.285000 0.391864 0
19.290000 0.406177 0
19.295000 0.415991 0
19.300000 0.420997 0
19.305000 0.421022 5
19.310000 0.416041 0
19.315000 0.406177 0
19.320000 0.391697 0
19.325000 0.372995 0
19.330000 0.350581 0
19.335000 0.325051 0
19.340000 0.297061 0
19.345000 0.267303 0
19.350000 0.236471 0
19.355000 0.205240 0
19.360000 0.174236 0
19.365000 0.144023 0
19.370000 0.115083 0
19.375000 0.087809 0
19.380000 0.062504 0
19.385000 0.039374 0
19.390000 0.018541 0
19.395000 0.000044 0
19.400000 -0.016145 0
19.405000 -0.030110 0
19.410000 -0.041984 0
19.415000 -0.051927 0
19.420000 -0.060124 0
19.425000 -0.066765 0
19.430000 -0.072047 0
19.435000 -0.076157 0
19.440000 -0.079273 0
19.445000 -0.081557 0
19.450000 -0.083157 0
19.455000 -0.084199 0
19.460000 -0.084794 0
19.465000 -0.084147 0
19.470000 -0.083294 0
19.475000 -0.082445 0
19.480000 -0.081601 0
19.485000 -0.080760 0
19.490000 -0.079924 0
19.495000 -0.079092 0
19.500000 -0.078263 0
19.505000 -0.077439 0
19.510000 -0.076617 0
19.515000 -0.075797 0
19.520000 -0.074977 0
19.525000 -0.074153 0
19.530000 -0.073317 0
19.535000 -0.072458 0
19.540000 -0.071555 0
19.545000 -0.070574 0
19.550000 -0.069464 0
19.555000 -0.068145 0
19.560000 -0.066501 0
19.565000 -0.064368 0
19.570000 -0.061523 0
19.575000 -0.057678 0
19.580000 -0.052476 0
19.585000 -0.045501 0
19.590000 -0.036295 0
19.595000 -0.024400 0
19.600000 -0.009407 0
19.605000 0.008969 0
19.610000 0.030814 0
19.615000 0.055938 0
19.620000 0.083817 0
19.625000 0.113557 0
19.630000 0.143913 0
19.635000 0.173351 0
19.640000 0.200164 0
19.645000 0.222632 0
19.650000 0.239201 0
19.655000 0.248660 0
19.660000 0.250284 1
19.665000 0.243931 0
19.670000 0.230055 0
19.675000 0.209656 0
19.680000 0.184159 0
19.685000 0.155247 0
19.690000 0.124668 0
19.695000 0.094031 0
19.700000 0.064544 0
19.705000 0.036629 0
19.710000 0.009347 0
19.715000 -0.020153 0
19.720000 -0.056321 0
19.725000 -0.102805 0
19.730000 -0.157795 0
19.735000 -0.209527 0
19.740000 -0.235823 2
19.745000 -0.208960 0
19.750000 -0.102946 0
19.755000 0.098479 0
19.760000 0.389586 0
19.765000 0.726266 0
19.770000 1.021480 0
19.775000 1.173379 3
19.780000 1.122468 0
19.785000 0.885078 0
19.790000 0.541235 0
19.795000 0.189271 0
19.800000 -0.097186 0
19.805000 -0.283211 0
19.810000 -0.365130 4
19.815000 -0.360149 0
19.820000 -0.298719 0
19.825000 -0.215172 0
19.830000 -0.136543 0
19.835000 -0.075809 0
19.840000 -0.033264 0
19.845000 -0.002891 0
19.850000 0.021798 0
19.855000 0.045141 0
19.860000 0.069254 0
19.865000 0.094867 0
19.870000 0.122042 0
19.875000 0.150545 0
19.880000 0.180001 0
19.885000 0.209942 0
19.890000 0.239824 0
19.895000 0.269049 0
19.900000 0.296980 0
19.905000 0.322963 0
19.910000 0.346354 0
19.915000 0.366542 0
19.920000 0.382977 0
19.925000 0.395195 0
19.930000 0.402835 0
19.935000 0.405663 5
19.940000 0.403577 0
19.945000 0.396615 0
19.950000 0.384955 0
19.955000 0.368905 0
19.960000 0.348889 0
19.965000 0.325429 0
19.970000 0.299123 0
19.975000 0.270615 0
19.980000 0.240574 0
19.985000 0.209667 0
19.990000 0.178530 0
19.995000 0.147755 0
20.000000 0.117865 0
20.005000 0.089308 0
20.010000 0.062446 0
20.015000 0.037555 0
20.020000 0.014819 0
20.025000 -0.005654 0
20.030000 -0.023834 0
20.035000 -0.039754 0
20.040000 -0.053499 0
20.045000 -0.065198 0
20.050000 -0.075007 0
20.055000 -0.083103 0
20.060000 -0.089670 0
20.065000 -0.094897 0
20.070000 -0.098964 0
20.075000 -0.102044 0
20.080000 -0.104294 0
20.085000 -0.105857 0
20.090000 -0.106858 0
20.095000 -0.107406 0
20.100000 -0.107426 0
20.105000 -0.106456 0
20.110000 -0.105492 0
20.115000 -0.104533 0
20.120000 -0.103578 0
20.125000 -0.102628 0
20.130000 -0.101682 0
20.135000 -0.100742 0
20.140000 -0.099805 0
20.145000 -0.098872 0
20.150000 -0.097942 0
20.155000 -0.097014 0
20.160000 -0.096084 0
20.165000 -0.095146 0
20.170000 -0.094193 0
20.175000 -0.093208 0
20.180000 -0.092165 0
20.185000 -0.091024 0
20.190000 -0.089724 0
20.195000 -0.088173 0
20.200000 -0.086240 0
20.205000 -0.083743 0
20.210000 -0.080445 0
20.215000 -0.076042 0
20.220000 -0.070168 0
20.225000 -0.062406 0
20.230000 -0.052311 0
20.235000 -0.039450 0
20.240000 -0.023459 0
20.245000 -0.004107 0
20.250000 0.018628 0
20.255000 0.044491 0
20.260000 0.072902 0
20.265000 0.102933 0
20.270000 0.133332 0
20.275000 0.162586 0
20.280000 0.189045 0
20.285000 0.211062 0
20.290000 0.227168 0
20.295000 0.236231 0
20.300000 0.237587 1
20.305000 0.231124 0
20.310000 0.217292 0
20.315000 0.197055 0
20.320000 0.171778 0
20.325000 0.143076 0
20.330000 0.112633 0
20.335000 0.082014 0
20.340000 0.052432 0
20.345000 0.024406 0
20.350000 -0.002753 0
20.355000 -0.031494 0
20.360000 -0.065933 0
20.365000 -0.110040 0
20.370000 -0.163627 0
20.375000 -0.217821 0
20.380000 -0.253512 2
20.385000 -0.244783 0
20.390000 -0.165400 0
20.395000 0.004158 0
20.400000 0.267050 0
20.405000 0.595263 0
20.410000 0.918918 0
20.415000 1.139898 0
20.420000 1.176256 3
20.425000 1.012002 0
20.430000 0.703133 0
20.435000 0.343476 0
20.440000 0.019035 0
20.445000 -0.218574 0
20.450000 -0.352336 0
20.455000 -0.389695 4
20.460000 -0.354368 0
20.465000 -0.278955 0
20.470000 -0.194853 0
20.475000 -0.122781 0
20.480000 -0.069666 0
20.485000 -0.032530 0
20.490000 -0.004840 0
20.495000 0.019066 0
20.500000 0.042567 0
20.505000 0.067169 0
20.510000 0.093311 0
20.515000 0.120941 0
20.520000 0.149786 0
20.525000 0.179454 0
20.530000 0.209471 0
20.535000 0.239297 0
20.540000 0.268343 0
20.545000 0.295986 0
20.550000 0.321593 0
20.555000 0.344544 0
20.560000 0.364256 0
20.565000 0.380205 0
20.570000 0.391955 0
20.575000 0.399170 0
20.580000 0.401633 5
20.585000 0.399258 0
20.590000 0.392091 0
20.595000 0.380310 0
20.600000 0.364218 0
20.605000 0.344227 0
20.610000 0.320844 0
20.615000 0.294645 0
20.620000 0.266256 0
20.625000 0.236324 0
20.630000 0.205495 0
20.635000 0.174388 0
20.640000 0.143582 0
20.645000 0.113592 0
20.650000 0.084862 0
20.655000 0.057754 0
20.660000 0.032547 0
20.665000 0.009437 0
20.670000 -0.011460 0
20.675000 -0.030099 0
20.680000 -0.046500 0
20.685000 -0.060736 0
20.690000 -0.072920 0
20.695000 -0.083198 0
20.700000 -0.091737 0
20.705000 -0.098715 0
20.710000 -0.104313 0
20.715000 -0.108710 0
20.720000 -0.112076 0
20.725000 -0.114569 0
20.730000 -0.116334 0
20.735000 -0.117498 0
20.740000 -0.118173 0
20.745000 -0.118265 0
20.750000 -0.117242 0
20.755000 -0.116224 0
20.760000 -0.115211 0
20.765000 -0.114203 0
20.770000 -0.113200 0
20.775000 -0.112202 0
20.780000 -0.111208 0
20.785000 -0.110220 0
20.790000 -0.109236 0
20.795000 -0.108255 0
20.800000 -0.107278 0
20.805000 -0.106301 0
20.810000 -0.105321 0
20.815000 -0.104332 0
20.820000 -0.103323 0
20.825000 -0.102277 0
20.830000 -0.101164 0
20.835000 -0.099942 0
20.840000 -0.098542 0
20.845000 -0.096868 0
20.850000 -0.094782 0
20.855000 -0.092098 0
20.860000 -0.088570 0
20.865000 -0.083896 0
20.870000 -0.077709 0
20.875000 -0.069599 0
20.880000 -0.059136 0
20.885000 -0.045904 0
20.890000 -0.029562 0
20.895000 -0.009902 0
20.900000 0.013077 0
20.905000 0.039111 0
20.910000 0.067622 0
20.915000 0.097700 0
20.920000 0.128126 0
20.925000 0.157438 0
20.930000 0.184035 0
20.935000 0.206321 0
20.940000 0.222860 0
20.945000 0.232531 0
20.950000 0.234652 1
20.955000 0.229062 0
20.960000 0.216137 0
20.965000 0.196756 0
20.970000 0.172194 0
20.975000 0.143987 0
20.980000 0.113770 0
20.985000 0.083097 0
20.990000 0.053235 0
20.995000 0.024877 0
21.000000 -0.002312 0
21.005000 -0.030236 0
21.010000 -0.062534 0
21.015000 -0.103418 0
21.020000 -0.154435 0
21.025000 -0.210041 0
21.030000 -0.254894 0
21.035000 -0.265536 2
21.040000 -0.215876 0
21.045000 -0.083640 0
21.050000 0.142027 0
21.055000 0.448385 0
21.060000 0.785328 0
21.065000 1.066095 0
21.070000 1.197377 3
21.075000 1.125339 0
21.080000 0.872160 0
21.085000 0.522773 0
21.090000 0.175083 0
21.095000 -0.101024 0
21.100000 -0.274576 0
21.105000 -0.344822 4
21.110000 -0.331088 0
21.115000 -0.265089 0
21.120000 -0.181038 0
21.125000 -0.104503 0
21.130000 -0.046583 0
21.135000 -0.006287 0
21.140000 0.022796 0
21.145000 0.046967 0
21.150000 0.070227 0
21.155000 0.094440 0
21.160000 0.120199 0
21.165000 0.147502 0
21.170000 0.176085 0
21.175000 0.205554 0
21.180000 0.235422 0
21.185000 0.265133 0
21.190000 0.294077 0
21.195000 0.321606 0
21.200000 0.347063 0
21.205000 0.369805 0
21.210000 0.389224 0
21.215000 0.404783 0
21.220000 0.416033 0
21.225000 0.422634 0
21.230000 0.424375 5
21.235000 0.421184 0
21.240000 0.413127 0
21.245000 0.400412 0
21.250000 0.383375 0
21.255000 0.362465 0
21.260000 0.338227 0
21.265000 0.311274 0
21.270000 0.282265 0
21.275000 0.251873 0
21.280000 0.220763 0
21.285000 0.189569 0
21.290000 0.158870 0
21.295000 0.129176 0
21.300000 0.100917 0
21.305000 0.074436 0
21.310000 0.049987 0
21.315000 0.027736 0
21.320000 0.007769 0
21.325000 -0.009900 0
21.330000 -0.025319 0
21.335000 -0.038588 0
21.340000 -0.049844 0
21.345000 -0.059250 0
21.350000 -0.066989 0
21.355000 -0.073247 0
21.360000 -0.078213 0
21.365000 -0.082066 0
21.370000 -0.084975 0
21.375000 -0.087096 0
21.380000 -0.088567 0
21.385000 -0.089508 0
21.390000 -0.090023 0
21.395000 -0.089343 0
21.400000 -0.088464 0
21.405000 -0.087590 0
21.410000 -0.086719 0
21.415000 -0.085853 0
21.420000 -0.084992 0
21.425000 -0.084134 0
21.430000 -0.083281 0
21.435000 -0.082431 0
21.440000 -0.081584 0
21.445000 -0.080740 0
21.450000 -0.079895 0
21.455000 -0.079047 0
21.460000 -0.078189 0
21.465000 -0.077309 0
21.470000 -0.076389 0
21.475000 -0.075399 0
21.480000 -0.074290 0
21.485000 -0.072991 0
21.490000 -0.071397 0
21.495000 -0.069356 0
21.500000 -0.066668 0
21.505000 -0.063067 0
21.510000 -0.058223 0
21.515000 -0.051747 0
21.520000 -0.043204 0
21.525000 -0.032144 0
21.530000 -0.018153 0
21.535000 -0.000908 0
21.540000 0.019747 0
21.545000 0.043730 0
21.550000 0.070656 0
21.555000 0.099796 0
21.560000 0.130077 0
21.565000 0.160118 0
21.570000 0.188322 0
21.575000 0.213009 0
21.580000 0.232577 0
21.585000 0.245676 0
21.590000 0.251355 1
21.595000 0.249184 0
21.600000 0.239299 0
21.605000 0.222394 0
21.610000 0.199636 0
21.615000 0.172532 0
21.620000 0.142762 0
21.625000 0.111992 0
21.630000 0.081666 0
21.635000 0.052736 0
21.640000 0.025232 0
21.645000 -0.002320 0
21.650000 -0.033267 0
21.655000 -0.072052 0
21.660000 -0.121269 0
21.665000 -0.176979 0
21.670000 -0.225136 0
21.675000 -0.242456 2
21.680000 -0.201832 0
21.685000 -0.079270 0
21.690000 0.138221 0
21.695000 0.440088 0
21.700000 0.777138 0
21.705000 1.060732 0
21.710000 1.193661 3
21.715000 1.121568 0
21.720000 0.866994 0
21.725000 0.516806 0
21.730000 0.170458 0
21.735000 -0.101982 0
21.740000 -0.270343 0
21.745000 -0.335039 4
21.750000 -0.316711 0
21.755000 -0.248199 0
21.760000 -0.164047 0
21.765000 -0.089127 0
21.770000 -0.033339 0
21.775000 0.005247 0
21.780000 0.033368 0
21.785000 0.057202 0
21.790000 0.080492 0
21.795000 0.104895 0
21.800000 0.130888 0
21.805000 0.158408 0
21.810000 0.187159 0
21.815000 0.216719 0
21.820000 0.246577 0
21.825000 0.276152 0
21.830000 0.304813 0
21.835000 0.331897 0
21.840000 0.356732 0
21.845000 0.378670 0
21.850000 0.397108 0
21.855000 0.411517 0
21.860000 0.421470 0
21.865000 0.426654 0
21.870000 0.426896 5
21.875000 0.422163 0
21.880000 0.412569 0
21.885000 0.398367 0
21.890000 0.379941 0
21.895000 0.357784 0
21.900000 0.332478 0
21.905000 0.304669 0
21.910000 0.275036 0
21.915000 0.244266 0
21.920000 0.213026 0
21.925000 0.181943 0
21.930000 0.151580 0
21.935000 0.122424 0
21.940000 0.094877 0
21.945000 0.069248 0
21.950000 0.045756 0
21.955000 0.024532 0
21.960000 0.005628 0
21.965000 -0.010972 0
21.970000 -0.025345 0
21.975000 -0.037613 0
21.980000 -0.047930 0
21.985000 -0.056474 0
21.990000 -0.063434 0
21.995000 -0.069002 0
22.000000 -0.073366 0
22.005000 -0.076703 0
22.010000 -0.079179 0
22.015000 -0.080941 0
22.020000 -0.082119 0
22.025000 -0.082828 0
22.030000 -0.082992 0
22.035000 -0.082145 0
22.040000 -0.081302 0
22.045000 -0.080463 0
22.050000 -0.079628 0
22.055000 -0.078798 0
22.060000 -0.077971 0
22.065000 -0.077148 0
22.070000 -0.076329 0
22.075000 -0.075514 0
22.080000 -0.074700 0
22.085000 -0.073887 0
22.090000 -0.073072 0
22.095000 -0.072248 0
22.100000 -0.071406 0
22.105000 -0.070528 0
22.110000 -0.069588 0
22.115000 -0.068541 0
22.120000 -0.067320 0
22.125000 -0.065826 0
22.130000 -0.063916 0
22.135000 -0.061394 0
22.140000 -0.058003 0
22.145000 -0.053418 0
22.150000 -0.047251 0
22.155000 -0.039064 0
22.160000 -0.028398 0
22.165000 -0.014823 0
22.170000 0.002005 0
22.175000 0.022271 0
22.180000 0.045918 0
22.185000 0.072588 0
22.190000 0.101569 0
22.195000 0.131793 0
22.200000 0.161872 0
22.205000 0.190187 0
22.210000 0.215025 0
22.215000 0.234749 0
22.220000 0.247971 0
22.225000 0.253713 1
22.230000 0.251530 0
22.235000 0.241562 0
22.240000 0.224520 0
22.245000 0.201601 0
22.250000 0.174348 0
22.255000 0.144478 0
22.260000 0.113681 0
22.265000 0.083410 0
22.270000 0.054584 0
22.275000 0.027138 0
22.280000 -0.000593 0
22.285000 -0.032192 0
22.290000 -0.072165 0
22.295000 -0.122629 0
22.300000 -0.178394 0
22.305000 -0.223689 0
22.310000 -0.233806 2
22.315000 -0.181152 0
22.320000 -0.042503 0
22.325000 0.192266 0
22.330000 0.506134 0
22.335000 0.840369 0
22.340000 1.099245 0
22.345000 1.188739 3
22.350000 1.070427 0
22.355000 0.785741 0
22.360000 0.428477 0
22.365000 0.093583 0
22.370000 -0.158042 0
22.375000 -0.303902 0
22.380000 -0.349317 4
22.385000 -0.317942 0
22.390000 -0.243689 0
22.395000 -0.159768 0
22.400000 -0.088122 0
22.405000 -0.035889 0
22.410000 0.000288 0
22.415000 0.027296 0
22.420000 0.050884 0
22.425000 0.074343 0
22.430000 0.099054 0
22.435000 0.125362 0
22.440000 0.153156 0
22.445000 0.182115 0
22.450000 0.211804 0
22.455000 0.241705 0
22.460000 0.271233 0
22.465000 0.299753 0
22.470000 0.326605 0
22.475000 0.351124 0
22.480000 0.372671 0
22.485000 0.390655 0
22.490000 0.404564 0
22.495000 0.413985 0
22.500000 0.418627 5
22.505000 0.418332 0
22.510000 0.413085 0
22.515000 0.403015 0
22.520000 0.388389 0
22.525000 0.369599 0
22.530000 0.347147 0
22.535000 0.321618 0
22.540000 0.293655 0
22.545000 0.263937 0
22.550000 0.233145 0
22.555000 0.201938 0
22.560000 0.170934 0
22.565000 0.140688 0
22.570000 0.111677 0
22.575000 0.084292 0
22.580000 0.058836 0
22.585000 0.035520 0
22.590000 0.014469 0
22.595000 -0.004268 0
22.600000 -0.020713 0
22.605000 -0.034944 0
22.610000 -0.047082 0
22.615000 -0.057283 0
22.620000 -0.065725 0
22.625000 -0.072594 0
22.630000 -0.078082 0
22.635000 -0.082374 0
22.640000 -0.085648 0
22.645000 -0.088066 0
22.650000 -0.089776 0
22.655000 -0.090905 0
22.660000 -0.091568 0
22.665000 -0.091687 0
22.670000 -0.090797 0
22.675000 -0.089911 0
22.680000 -0.089029 0
22.685000 -0.088151 0
22.690000 -0.087278 0
22.695000 -0.086409 0
22.700000 -0.085545 0
22.705000 -0.084684 0
22.710000 -0.083827 0
22.715000 -0.082972 0
22.720000 -0.082118 0
22.725000 -0.081262 0
22.730000 -0.080398 0
22.735000 -0.079516 0
22.740000 -0.078601 0
22.745000 -0.077625 0
22.750000 -0.076546 0
22.755000 -0.075299 0
22.760000 -0.073787 0
22.765000 -0.071871 0
22.770000 -0.069363 0
22.775000 -0.066010 0
22.780000 -0.061495 0
22.785000 -0.055437 0
22.790000 -0.047405 0
22.795000 -0.036944 0
22.800000 -0.023620 0
22.805000 -0.007082 0
22.810000 0.012871 0
22.815000 0.036213 0
22.820000 0.062620 0
22.825000 0.091425 0
22.830000 0.121606 0
22.835000 0.151816 0
22.840000 0.180469 0
22.845000 0.205870 0
22.850000 0.226370 0
22.855000 0.240551 0
22.860000 0.247382 1
22.865000 0.246342 0
22.870000 0.237488 0
22.875000 0.221449 0
22.880000 0.199351 0
22.885000 0.172687 0
22.890000 0.143144 0
22.895000 0.112419 0
22.900000 0.082011 0
22.905000 0.052945 0
22.910000 0.025360 0
22.915000 -0.002080 0
22.920000 -0.032620 0
22.925000 -0.070741 0
22.930000 -0.119330 0
22.935000 -0.174936 0
22.940000 -0.223938 0
22.945000 -0.243135 2
22.950000 -0.205119 0
22.955000 -0.085367 0
22.960000 0.129760 0
22.965000 0.430347 0
22.970000 0.767423 0
22.975000 1.051690 0
22.980000 1.184723 3
22.985000 1.111287 0
22.990000 0.854441 0
22.995000 0.503257 0
23.000000 0.158644 0
23.005000 -0.109442 0
23.010000 -0.271893 0
23.015000 -0.330471 4
23.020000 -0.307249 0
23.025000 -0.236216 0
23.030000 -0.152134 0
23.035000 -0.079005 0
23.040000 -0.025419 0
23.045000 0.011492 0
23.050000 0.038733 0
23.055000 0.062314 0
23.060000 0.085699 0
23.065000 0.110339 0
23.070000 0.136600 0
23.075000 0.164364 0
23.080000 0.193301 0
23.085000 0.222961 0
23.090000 0.252809 0
23.095000 0.282241 0
23.100000 0.310603 0
23.105000 0.337215 0
23.110000 0.361396 0
23.115000 0.382494 0
23.120000 0.399911 0
23.125000 0.413133 0
23.130000 0.421754 0
23.135000 0.425495 5
23.140000 0.424222 0
23.145000 0.417945 0
23.150000 0.406828 0
23.155000 0.391172 0
23.160000 0.371407 0
23.165000 0.348072 0
23.170000 0.321784 0
23.175000 0.293217 0
23.180000 0.263069 0
23.185000 0.232038 0
23.190000 0.200788 0
23.195000 0.169934 0
23.200000 0.140021 0
23.205000 0.111510 0
23.210000 0.084768 0
23.215000 0.060071 0
23.220000 0.037601 0
23.225000 0.017455 0
23.230000 -0.000350 0
23.235000 -0.015861 0
23.240000 -0.029180 0
23.245000 -0.040449 0
23.250000 -0.049838 0
23.255000 -0.057537 0
23.260000 -0.063740 0
23.265000 -0.068641 0
23.270000 -0.072428 0
23.275000 -0.075273 0
23.280000 -0.077336 0
23.285000 -0.078756 0
23.290000 -0.079657 0
23.295000 -0.079954 0
23.300000 -0.079121 0
23.305000 -0.078293 0
23.310000 -0.077470 0
23.315000 -0.076650 0
23.320000 -0.075834 0
23.325000 -0.075022 0
23.330000 -0.074215 0
23.335000 -0.073410 0
23.340000 -0.072610 0
23.345000 -0.071811 0
23.350000 -0.071014 0
23.355000 -0.070215 0
23.360000 -0.069410 0
23.365000 -0.068589 0
23.370000 -0.067737 0
23.375000 -0.066831 0
23.380000 -0.065828 0
23.385000 -0.064668 0
23.390000 -0.063256 0
23.395000 -0.061458 0
23.400000 -0.059087 0
23.405000 -0.055891 0
23.410000 -0.051553 0
23.415000 -0.045688 0
23.420000 -0.037855 0
23.425000 -0.027588 0
23.430000 -0.014441 0
23.435000 0.001954 0
23.440000 0.021809 0
23.445000 0.045100 0
23.450000 0.071495 0
23.455000 0.100305 0
23.460000 0.130473 0
23.465000 0.160605 0
23.470000 0.189065 0
23.475000 0.214108 0
23.480000 0.234057 0
23.485000 0.247483 0
23.490000 0.253377 1
23.495000 0.251273 0
23.500000 0.241307 0
23.505000 0.224204 0
23.510000 0.201187 0
23.515000 0.173834 0
23.520000 0.143896 0
23.525000 0.113091 0
23.530000 0.082880 0
23.535000 0.054157 0
23.540000 0.026762 0
23.545000 -0.001150 0
23.550000 -0.033379 0
23.555000 -0.074465 0
23.560000 -0.126004 0
23.565000 -0.181547 0
23.570000 -0.223675 0
23.575000 -0.226398 2
23.580000 -0.161789 0
23.585000 -0.007576 0
23.590000 0.243140 0
23.595000 0.566429 0
23.600000 0.894215 0
23.605000 1.125299 0
23.610000 1.171263 3
23.615000 1.010039 0
23.620000 0.699714 0
23.625000 0.340174 0
23.630000 0.021511 0
23.635000 -0.204515 0
23.640000 -0.323229 0
23.645000 -0.345540 4
23.650000 -0.299044 0
23.655000 -0.219123 0
23.660000 -0.137134 0
23.665000 -0.071015 0
23.670000 -0.024213 0
23.675000 0.008431 0
23.680000 0.033874 0
23.685000 0.057180 0
23.690000 0.080970 0
23.695000 0.106213 0
23.700000 0.133063 0
23.705000 0.161314 0
23.710000 0.190596 0
23.715000 0.220436 0
23.720000 0.250282 0
23.725000 0.279520 0
23.730000 0.307494 0
23.735000 0.333528 0
23.740000 0.356957 0
23.745000 0.377147 0
23.750000 0.393529 0
23.755000 0.405622 0
23.760000 0.413056 0
23.765000 0.415593 5
23.770000 0.413133 0
23.775000 0.405727 0
23.780000 0.393568 0
23.785000 0.376986 0
23.790000 0.356433 0
23.795000 0.332459 0
23.800000 0.305689 0
23.805000 0.276797 0
23.810000 0.246474 0
23.815000 0.215404 0
23.820000 0.184237 0
23.825000 0.153568 0
23.830000 0.123921 0
23.835000 0.095736 0
23.840000 0.069361 0
23.845000 0.045054 0
23.850000 0.022980 0
23.855000 0.003223 0
23.860000 -0.014210 0
23.865000 -0.029373 0
23.870000 -0.042372 0
23.875000 -0.053354 0
23.880000 -0.062488 0
23.885000 -0.069962 0
23.890000 -0.075970 0
23.895000 -0.080702 0
23.900000 -0.084343 0
23.905000 -0.087062 0
23.910000 -0.089014 0
23.915000 -0.090338 0
23.920000 -0.091154 0
23.925000 -0.091376 0
23.930000 -0.090486 0
23.935000 -0.089602 0
23.940000 -0.088721 0
23.945000 -0.087846 0
23.950000 -0.086974 0
23.955000 -0.086107 0
23.960000 -0.085244 0
23.965000 -0.084384 0
23.970000 -0.083529 0
23.975000 -0.082676 0
23.980000 -0.081825 0
23.985000 -0.080972 0
23.990000 -0.080113 0
23.995000 -0.079240 0
24.000000 -0.078337 0
24.005000 -0.077381 0
24.010000 -0.076332 0
24.015000 -0.075130 0
24.020000 -0.073686 0
24.025000 -0.071868 0
24.030000 -0.069495 0
24.035000 -0.066325 0
24.040000 -0.062050 0
24.045000 -0.056292 0
24.050000 -0.048624 0
24.055000 -0.038584 0
24.060000 -0.025727 0
24.065000 -0.009677 0
24.070000 0.009796 0
24.075000 0.032702 0
24.080000 0.058755 0
24.085000 0.087325 0
24.090000 0.117416 0
24.095000 0.147698 0
24.100000 0.176583 0
24.105000 0.202353 0
24.110000 0.223327 0
24.115000 0.238041 0
24.120000 0.245413 1
24.125000 0.244876 0
24.130000 0.236452 0
24.135000 0.220747 0
24.140000 0.198880 0
24.145000 0.172351 0
24.150000 0.142870 0
24.155000 0.112159 0
24.160000 0.081743 0
24.165000 0.052669 0
24.170000 0.025086 0
24.175000 -0.002365 0
24.180000 -0.032988 0
24.185000 -0.071325 0
24.190000 -0.120210 0
24.195000 -0.175877 0
24.200000 -0.224122 0
24.205000 -0.241106 2
24.210000 -0.199020 0
24.215000 -0.073394 0
24.220000 0.148506 0
24.225000 0.454268 0
24.230000 0.790731 0
24.235000 1.064884 0
24.240000 1.178817 3
24.245000 1.086428 0
24.250000 0.821529 0
24.255000 0.469402 0
24.260000 0.123987 0
24.265000 -0.148973 0
24.270000 -0.320705 0
24.275000 -0.390886 4
24.280000 -0.378198 0
24.285000 -0.313187 0
24.290000 -0.229078 0
24.295000 -0.151260 0
24.300000 -0.091431 0
24.305000 -0.049380 0
24.310000 -0.019129 0
24.315000 0.005609 0
24.320000 0.029030 0
24.325000 0.053197 0
24.330000 0.078835 0
24.335000 0.106016 0
24.340000 0.134522 0
24.345000 0.163993 0
24.350000 0.193980 0
24.355000 0.223960 0
24.360000 0.253355 0
24.365000 0.281548 0
24.370000 0.307906 0
24.375000 0.331798 0
24.380000 0.352623 0
24.385000 0.369836 0
24.390000 0.382967 0
24.395000 0.391646 0
24.400000 0.395617 5
24.405000 0.394751 0
24.410000 0.389055 0
24.415000 0.378667 0
24.420000 0.363854 0
24.425000 0.345000 0
24.430000 0.322588 0
24.435000 0.297178 0
24.440000 0.269386 0
24.445000 0.239859 0
24.450000 0.209248 0
24.455000 0.178184 0
24.460000 0.147263 0
24.465000 0.117021 0
24.470000 0.087925 0
24.475000 0.060362 0
24.480000 0.034635 0
24.485000 0.010964 0
24.490000 -0.010513 0
24.495000 -0.029733 0
24.500000 -0.046701 0
24.505000 -0.061474 0
24.510000 -0.074159 0
24.515000 -0.084893 0
24.520000 -0.093840 0
24.525000 -0.101177 0
24.530000 -0.107085 0
24.535000 -0.111746 0
24.540000 -0.115332 0
24.545000 -0.118006 0
24.550000 -0.119916 0
24.555000 -0.121194 0
24.560000 -0.121957 0
24.565000 -0.122305 0
24.570000 -0.121463 0
24.575000 -0.120424 0
24.580000 -0.119390 0
24.585000 -0.118361 0
24.590000 -0.117337 0
24.595000 -0.116319 0
24.600000 -0.115305 0
24.605000 -0.114296 0
24.610000 -0.113292 0
24.615000 -0.112292 0
24.620000 -0.111294 0
24.625000 -0.110298 0
24.630000 -0.109301 0
24.635000 -0.108296 0
24.640000 -0.107273 0
24.645000 -0.106218 0
24.650000 -0.105103 0
24.655000 -0.103888 0
24.660000 -0.102511 0
24.665000 -0.100881 0
24.670000 -0.098869 0
24.675000 -0.096296 0
24.680000 -0.092930 0
24.685000 -0.088476 0
24.690000 -0.082577 0
24.695000 -0.074829 0
24.700000 -0.064800 0
24.705000 -0.052067 0
24.710000 -0.036268 0
24.715000 -0.017169 0
24.720000 0.005274 0
24.725000 0.030845 0
24.730000 0.059017 0
24.735000 0.088933 0
24.740000 0.119416 0
24.745000 0.149030 0
24.750000 0.176181 0
24.755000 0.199255 0
24.760000 0.216775 0
24.765000 0.227557 0
24.770000 0.230844 1
24.775000 0.226392 0
24.780000 0.214503 0
24.785000 0.195990 0
24.790000 0.172084 0
24.795000 0.144302 0
24.800000 0.114282 0
24.805000 0.083606 0
24.810000 0.053599 0
24.815000 0.025055 0
24.820000 -0.002198 0
24.825000 -0.029847 0
24.830000 -0.061356 0
24.835000 -0.101013 0
24.840000 -0.150926 0
24.845000 -0.206579 0
24.850000 -0.253716 0
24.855000 -0.269481 2
24.860000 -0.227645 0
24.865000 -0.105097 0
24.870000 0.110781 0
24.875000 0.410409 0
24.880000 0.747730 0
24.885000 1.038501 0
24.890000 1.187572 3
24.895000 1.137282 0
24.900000 0.902013 0
24.905000 0.559512 0
24.910000 0.206206 0
24.915000 -0.084559 0
24.920000 -0.276918 0
24.925000 -0.365810 0
24.930000 -0.366894 4
24.935000 -0.309203 0
24.940000 -0.226456 0
24.945000 -0.146288 0
24.950000 -0.083050 0
24.955000 -0.038286 0
24.960000 -0.006549 0
24.965000 0.018687 0
24.970000 0.042052 0
24.975000 0.065933 0
24.980000 0.091229 0
24.985000 0.118086 0
24.990000 0.146319 0
24.995000 0.175585 0
25.000000 0.205443 0
25.005000 0.235380 0
25.010000 0.264821 0
25.015000 0.293153 0
25.020000 0.319737 0
25.025000 0.343939 0
25.030000 0.365149 0
25.035000 0.382810 0
25.040000 0.396438 0
25.045000 0.405646 0
25.050000 0.410160 5
25.055000 0.409836 0
25.060000 0.404660 0
25.065000 0.394758 0
25.070000 0.380381 0
25.075000 0.361902 0
25.080000 0.339795 0
25.085000 0.314616 0
25.090000 0.286980 0
25.095000 0.257534 0
25.100000 0.226933 0
25.105000 0.195815 0
25.110000 0.164782 0
25.115000 0.134381 0
25.120000 0.105088 0
25.125000 0.077298 0
25.130000 0.051327 0
25.135000 0.027400 0
25.140000 0.005664 0
25.145000 -0.013812 0
25.150000 -0.031026 0
25.155000 -0.046034 0
25.160000 -0.058939 0
25.165000 -0.069878 0
25.170000 -0.079013 0
25.175000 -0.086521 0
25.180000 -0.092585 0
25.185000 -0.097386 0
25.190000 -0.101100 0
25.195000 -0.103891 0
25.200000 -0.105907 0
25.205000 -0.107284 0
25.210000 -0.108138 0
25.215000 -0.108572 0
25.220000 -0.107801 0
25.225000 -0.106830 0
25.230000 -0.105864 0
25.235000 -0.104902 0
25.240000 -0.103946 0
25.245000 -0.102994 0
25.250000 -0.102046 0
25.255000 -0.101104 0
25.260000 -0.100165 0
25.265000 -0.099230 0
25.270000 -0.098298 0
25.275000 -0.097367 0
25.280000 -0.096434 0
25.285000 -0.095493 0
25.290000 -0.094535 0
25.295000 -0.093543 0
25.300000 -0.092492 0
25.305000 -0.091340 0
25.310000 -0.090025 0
25.315000 -0.088456 0
25.320000 -0.086501 0
25.325000 -0.083983 0
25.330000 -0.080665 0
25.335000 -0.076251 0
25.340000 -0.070382 0
25.345000 -0.062651 0
25.350000 -0.052622 0
25.355000 -0.039872 0
25.360000 -0.024040 0
25.365000 -0.004893 0
25.370000 0.017603 0
25.375000 0.043223 0
25.380000 0.071425 0
25.385000 0.101333 0
25.390000 0.131754 0
25.395000 0.161235 0
25.400000 0.188168 0
25.405000 0.210936 0
25.410000 0.228064 0
25.415000 0.238384 0
25.420000 0.241161 1
25.425000 0.236183 0
25.430000 0.223787 0
25.435000 0.204818 0
25.440000 0.180541 0
25.445000 0.152491 0
25.450000 0.122318 0
25.455000 0.091599 0
25.460000 0.061638 0
25.465000 0.033171 0
25.470000 0.005923 0
25.475000 -0.021955 0
25.480000 -0.054079 0
25.485000 -0.094716 0
25.490000 -0.145560 0
25.495000 -0.201224 0
25.500000 -0.246404 0
25.505000 -0.257512 2
25.510000 -0.208210 0
25.515000 -0.075989 0
25.520000 0.150091 0
25.525000 0.457001 0
25.530000 0.793765 0
25.535000 1.072455 0
25.540000 1.199284 3
25.545000 1.122816 0
25.550000 0.865849 0
25.555000 0.515122 0
25.560000 0.169041 0
25.565000 -0.103247 0
25.570000 -0.271936 0
25.575000 -0.337375 4
25.580000 -0.319889 0
25.585000 -0.251921 0
25.590000 -0.167775 0
25.595000 -0.092395 0
25.600000 -0.035974 0
25.605000 0.003136 0
25.610000 0.031555 0
25.615000 0.055488 0
25.620000 0.078754 0
25.625000 0.103077 0
25.630000 0.128972 0
25.635000 0.156401 0
25.640000 0.185078 0
25.645000 0.214593 0
25.650000 0.244447 0
25.655000 0.274068 0
25.660000 0.302836 0
25.665000 0.330094 0
25.670000 0.355179 0
25.675000 0.377443 0
25.680000 0.396285 0
25.685000 0.411171 0
25.690000 0.421665 0
25.695000 0.427444 0
25.700000 0.428319 5
25.705000 0.424238 0
25.710000 0.415296 0
25.715000 0.401725 0
25.720000 0.383888 0
25.725000 0.362259 0
25.730000 0.337403 0
25.735000 0.309950 0
25.740000 0.280570 0
25.745000 0.249944 0
25.750000 0.218739 0
25.755000 0.187583 0
25.760000 0.157047 0
25.765000 0.127629 0
25.770000 0.099742 0
25.775000 0.073710 0
25.780000 0.049769 0
25.785000 0.028066 0
25.790000 0.008667 0
25.795000 -0.008430 0
25.800000 -0.023289 0
25.805000 -0.036021 0
25.810000 -0.046774 0
25.815000 -0.055718 0
25.820000 -0.063040 0
25.825000 -0.068930 0
25.830000 -0.073576 0
25.835000 -0.077155 0
25.840000 -0.079836 0
25.845000 -0.081769 0
25.850000 -0.083089 0
25.855000 -0.083911 0
25.860000 -0.084151 0
25.865000 -0.083298 0
25.870000 -0.082450 0
25.875000 -0.081605 0
25.880000 -0.080765 0
25.885000 -0.079928 0
25.890000 -0.079096 0
25.895000 -0.078268 0
25.900000 -0.077444 0
25.905000 -0.076623 0
25.910000 -0.075804 0
25.915000 -0.074988 0
25.920000 -0.074169 0
25.925000 -0.073345 0
25.930000 -0.072507 0
25.935000 -0.071640 0
25.940000 -0.070723 0
25.945000 -0.069717 0
25.950000 -0.068566 0
25.955000 -0.067184 0
25.960000 -0.065448 0
25.965000 -0.063183 0
25.970000 -0.060161 0
25.975000 -0.056085 0
25.980000 -0.050594 0
25.985000 -0.043271 0
25.990000 -0.033667 0
25.995000 -0.021336 0
26.000000 -0.005895 0
26.005000 0.012915 0
26.010000 0.035147 0
26.015000 0.060580 0
26.020000 0.088665 0
26.025000 0.118495 0
26.030000 0.148827 0
26.035000 0.178145 0
26.040000 0.204776 0
26.045000 0.227042 0
26.050000 0.243433 0
26.055000 0.252775 0
26.060000 0.254368 1
26.065000 0.248072 0
26.070000 0.234329 0
26.075000 0.214104 0
26.080000 0.188780 0
26.085000 0.159994 0
26.090000 0.129460 0
26.095000 0.098763 0
26.100000 0.069129 0
26.105000 0.041062 0
26.110000 0.013809 0
26.115000 -0.015195 0
26.120000 -0.050185 0
26.125000 -0.095075 0
26.130000 -0.149219 0
26.135000 -0.202833 0
26.140000 -0.235750 2
26.145000 -0.221331 0
26.150000 -0.133267 0
26.155000 0.047067 0
26.160000 0.320084 0
26.165000 0.652412 0
26.170000 0.967836 0
26.175000 1.165807 0
26.180000 1.170095 3
26.185000 0.974946 0
26.190000 0.648330 0
26.195000 0.290091 0
26.200000 -0.016557 0
26.205000 -0.227119 0
26.210000 -0.331589 0
26.215000 -0.343369 4
26.220000 -0.291066 0
26.225000 -0.209580 0
26.230000 -0.128600 0
26.235000 -0.064231 0
26.240000 -0.018804 0
26.245000 0.013111 0
26.250000 0.038293 0
26.255000 0.061561 0
26.260000 0.085380 0
26.265000 0.110654 0
26.270000 0.137516 0
26.275000 0.165760 0
26.280000 0.195022 0
26.285000 0.224837 0
26.290000 0.254664 0
26.295000 0.283902 0
26.300000 0.311908 0
26.305000 0.338021 0
26.310000 0.361584 0
26.315000 0.381977 0
26.320000 0.398634 0
26.325000 0.411078 0
26.330000 0.418935 0
26.335000 0.421959 5
26.340000 0.420038 0
26.345000 0.413205 0
26.350000 0.401633 0
26.355000 0.385629 0
26.360000 0.365619 0
26.365000 0.342131 0
26.370000 0.315768 0
26.375000 0.287185 0
26.380000 0.257058 0
26.385000 0.226062 0
26.390000 0.194842 0
26.395000 0.163997 0
26.400000 0.134056 0
26.405000 0.105469 0
26.410000 0.078602 0
26.415000 0.053727 0
26.420000 0.031030 0
26.425000 0.010615 0
26.430000 -0.007493 0
26.435000 -0.023331 0
26.440000 -0.036989 0
26.445000 -0.048599 0
26.450000 -0.058322 0
26.455000 -0.066339 0
26.460000 -0.072837 0
26.465000 -0.078006 0
26.470000 -0.082030 0
26.475000 -0.085080 0
26.480000 -0.087315 0
26.485000 -0.088876 0
26.490000 -0.089888 0
26.495000 -0.090459 0
26.500000 -0.089784 0
26.505000 -0.088903 0
26.510000 -0.088026 0
26.515000 -0.087154 0
26.520000 -0.086286 0
26.525000 -0.085422 0
26.530000 -0.084563 0
26.535000 -0.083707 0
26.540000 -0.082855 0
26.545000 -0.082007 0
26.550000 -0.081160 0
26.555000 -0.080314 0
26.560000 -0.079465 0
26.565000 -0.078607 0
26.570000 -0.077728 0
26.575000 -0.076811 0
26.580000 -0.075827 0
26.585000 -0.074730 0
26.590000 -0.073449 0
26.595000 -0.071881 0
26.600000 -0.069880 0
26.605000 -0.067246 0
26.610000 -0.063718 0
26.615000 -0.058968 0
26.620000 -0.052607 0
26.625000 -0.044198 0
26.630000 -0.033292 0
26.635000 -0.019465 0
26.640000 -0.002386 0
26.645000 0.018112 0
26.650000 0.041959 0
26.655000 0.068782 0
26.660000 0.097863 0
26.665000 0.128131 0
26.670000 0.158206 0
26.675000 0.186485 0
26.680000 0.211277 0
26.685000 0.230965 0
26.690000 0.244182 0
26.695000 0.249966 1
26.700000 0.247874 0
26.705000 0.238039 0
26.710000 0.221156 0
26.715000 0.198399 0
26.720000 0.171286 0
26.725000 0.141507 0
26.730000 0.110740 0
26.735000 0.080434 0
26.740000 0.051536 0
26.745000 0.024055 0
26.750000 -0.003531 0
26.755000 -0.034638 0
26.760000 -0.073737 0
26.765000 -0.123300 0
26.770000 -0.179044 0
26.775000 -0.226418 0
26.780000 -0.241687 2
26.785000 -0.197556 0
26.790000 -0.070206 0
26.795000 0.152559 0
26.800000 0.458303 0
26.805000 0.794912 0
26.810000 1.071358 0
26.815000 1.191051 3
26.820000 1.103898 0
26.825000 0.838177 0
26.830000 0.484725 0
26.835000 0.142834 0
26.840000 -0.120289 0
26.845000 -0.277619 0
26.850000 -0.332067 4
26.855000 -0.306241 0
26.860000 -0.234157 0
26.865000 -0.150125 0
26.870000 -0.077500 0
26.875000 -0.024395 0
26.880000 0.012234 0
26.885000 0.039365 0
26.890000 0.062923 0
26.895000 0.086312 0
26.900000 0.110960 0
26.905000 0.137222 0
26.910000 0.164982 0
26.915000 0.193910 0
26.920000 0.223563 0
26.925000 0.253408 0
26.930000 0.282846 0
26.935000 0.311230 0
26.940000 0.337884 0
26.945000 0.362133 0
26.950000 0.383328 0
26.955000 0.400873 0
26.960000 0.414256 0
26.965000 0.423068 0
26.970000 0.427028 5
26.975000 0.425995 0
26.980000 0.419972 0
26.985000 0.409114 0
26.990000 0.393714 0
26.995000 0.374190 0
27.000000 0.351071 0
27.005000 0.324966 0
27.010000 0.296540 0
27.015000 0.266487 0
27.020000 0.235498 0
27.025000 0.204238 0
27.030000 0.173322 0
27.035000 0.143297 0
27.040000 0.114629 0
27.045000 0.087693 0
27.050000 0.062770 0
27.055000 0.040052 0
27.060000 0.019642 0
27.065000 0.001567 0
27.070000 -0.014213 0
27.075000 -0.027795 0
27.080000 -0.039314 0
27.085000 -0.048937 0
27.090000 -0.056851 0
27.095000 -0.063247 0
27.100000 -0.068320 0
27.105000 -0.072256 0
27.110000 -0.075229 0
27.115000 -0.077400 0
27.120000 -0.078911 0
27.125000 -0.079886 0
27.130000 -0.080433 0
27.135000 -0.079798 0
27.140000 -0.078966 0
27.145000 -0.078139 0
27.150000 -0.077316 0
27.155000 -0.076497 0
27.160000 -0.075682 0
27.165000 -0.074871 0
27.170000 -0.074064 0
27.175000 -0.073260 0
27.180000 -0.072459 0
27.185000 -0.071659 0
27.190000 -0.070858 0
27.195000 -0.070052 0
27.200000 -0.069233 0
27.205000 -0.068388 0
27.210000 -0.067494 0
27.215000 -0.066516 0
27.220000 -0.065397 0
27.225000 -0.064052 0
27.230000 -0.062359 0
27.235000 -0.060145 0
27.240000 -0.057176 0
27.245000 -0.053155 0
27.250000 -0.047714 0
27.255000 -0.040428 0
27.260000 -0.030838 0
27.265000 -0.018491 0
27.270000 -0.002992 0
27.275000 0.015916 0
27.280000 0.038280 0
27.285000 0.063863 0
27.290000 0.092082 0
27.295000 0.121989 0
27.300000 0.152291 0
27.305000 0.181419 0
27.310000 0.207658 0
27.315000 0.229303 0
27.320000 0.244843 0
27.325000 0.253133 0
27.330000 0.253537 1
27.335000 0.245999 0
27.340000 0.231061 0
27.345000 0.209793 0
27.350000 0.183667 0
27.355000 0.154385 0
27.360000 0.123687 0
27.365000 0.093137 0
27.370000 0.063858 0
27.375000 0.036114 0
27.380000 0.008722 0
27.385000 -0.021449 0
27.390000 -0.058932 0
27.395000 -0.106921 0
27.400000 -0.162438 0
27.405000 -0.212185 0
27.410000 -0.232868 2
27.415000 -0.196601 0
27.420000 -0.078247 0
27.425000 0.136310 0
27.430000 0.437106 0
27.435000 0.774050 0
27.440000 1.055802 0
27.445000 1.182603 3
27.450000 1.100641 0
27.455000 0.836877 0
27.460000 0.483588 0
27.465000 0.142277 0
27.470000 -0.118720 0
27.475000 -0.272503 0
27.480000 -0.322827 4
27.485000 -0.293512 0
27.490000 -0.219678 0
27.495000 -0.135958 0
27.500000 -0.065033 0
27.505000 -0.013909 0
27.510000 0.021250 0
27.515000 0.047635 0
27.520000 0.071001 0
27.525000 0.094501 0
27.530000 0.119380 0
27.535000 0.145896 0
27.540000 0.173880 0
27.545000 0.202971 0
27.550000 0.232694 0
27.555000 0.262490 0
27.560000 0.291732 0
27.565000 0.319750 0
27.570000 0.345850 0
27.575000 0.369345 0
27.580000 0.389582 0
27.585000 0.405972 0
27.590000 0.418020 0
27.595000 0.425343 0
27.600000 0.427698 5
27.605000 0.424987 0
27.610000 0.417265 0
27.615000 0.404740 0
27.620000 0.387759 0
27.625000 0.366795 0
27.630000 0.342423 0
27.635000 0.315291 0
27.640000 0.286096 0
27.645000 0.255549 0
27.650000 0.224349 0
27.655000 0.193158 0
27.660000 0.162574 0
27.665000 0.133121 0
27.670000 0.105233 0
27.675000 0.079246 0
27.680000 0.055403 0
27.685000 0.033853 0
27.690000 0.014660 0
27.695000 -0.002187 0
27.700000 -0.016760 0
27.705000 -0.029182 0
27.710000 -0.039613 0
27.715000 -0.048234 0
27.720000 -0.055241 0
27.725000 -0.060833 0
27.730000 -0.065204 0
27.735000 -0.068538 0
27.740000 -0.071004 0
27.745000 -0.072754 0
27.750000 -0.073922 0
27.755000 -0.074623 0
27.760000 -0.074034 0
27.765000 -0.073232 0
27.770000 -0.072433 0
27.775000 -0.071639 0
27.780000 -0.070848 0
27.785000 -0.070061 0
27.790000 -0.069278 0
27.795000 -0.068499 0
27.800000 -0.067723 0
27.805000 -0.066949 0
27.810000 -0.066178 0
27.815000 -0.065406 0
27.820000 -0.064629 0
27.825000 -0.063841 0
27.830000 -0.063028 0
27.835000 -0.062169 0
27.840000 -0.061231 0
27.845000 -0.060158 0
27.850000 -0.058867 0
27.855000 -0.057236 0
27.860000 -0.055094 0
27.865000 -0.052207 0
27.870000 -0.048274 0
27.875000 -0.042923 0
27.880000 -0.035721 0
27.885000 -0.026199 0
27.890000 -0.013891 0
27.895000 0.001605 0
27.900000 0.020552 0
27.905000 0.042995 0
27.910000 0.068680 0
27.915000 0.096996 0
27.920000 0.126954 0
27.925000 0.157210 0
27.930000 0.186143 0
27.935000 0.211991 0
27.940000 0.233022 0
27.945000 0.247723 0
27.950000 0.254979 1
27.955000 0.254214 0
27.960000 0.245462 0
27.965000 0.229366 0
27.970000 0.207100 0
27.975000 0.180227 0
27.980000 0.150510 0
27.985000 0.119710 0
27.990000 0.089359 0
27.995000 0.060447 0
28.000000 0.032953 0
28.005000 0.005194 0
28.010000 -0.026529 0
28.015000 -0.066864 0
28.020000 -0.117818 0
28.025000 -0.173514 0
28.030000 -0.216896 0
28.035000 -0.221879 2
28.040000 -0.160036 0
28.045000 -0.008421 0
28.050000 0.240538 0
28.055000 0.563264 0
28.060000 0.891132 0
28.065000 1.121494 0
28.070000 1.164851 3
28.075000 1.001114 0
28.080000 0.690830 0
28.085000 0.331248 0
28.090000 0.010464 0
28.095000 -0.220048 0
28.100000 -0.344736 0
28.105000 -0.373065 4
28.110000 -0.330972 0
28.115000 -0.252666 0
28.120000 -0.169565 0
28.125000 -0.100824 0
28.130000 -0.051355 0
28.135000 -0.016868 0
28.140000 0.009472 0
28.145000 0.033008 0
28.150000 0.056680 0
28.155000 0.081677 0
28.160000 0.108262 0
28.165000 0.136294 0
28.170000 0.165442 0
28.175000 0.195269 0
28.180000 0.225258 0
28.185000 0.254826 0
28.190000 0.283346 0
28.195000 0.310166 0
28.200000 0.334633 0
28.205000 0.356117 0
28.210000 0.374039 0
28.215000 0.387899 0
28.220000 0.397293 0
28.225000 0.401936 5
28.230000 0.401677 0
28.235000 0.396502 0
28.240000 0.386538 0
28.245000 0.372048 0
28.250000 0.353419 0
28.255000 0.331141 0
28.260000 0.305789 0
28.265000 0.277998 0
28.270000 0.248434 0
28.275000 0.217769 0
28.280000 0.186656 0
28.285000 0.155706 0
28.290000 0.125470 0
28.295000 0.096426 0
28.300000 0.068966 0
28.305000 0.043397 0
28.310000 0.019935 0
28.315000 -0.001287 0
28.320000 -0.020215 0
28.325000 -0.036860 0
28.330000 -0.051294 0
28.335000 -0.063631 0
28.340000 -0.074022 0
28.345000 -0.082637 0
28.350000 -0.089661 0
28.355000 -0.095283 0
28.360000 -0.099686 0
28.365000 -0.103047 0
28.370000 -0.105530 0
28.375000 -0.107281 0
28.380000 -0.108433 0
28.385000 -0.109099 0
28.390000 -0.109195 0
28.395000 -0.108217 0
28.400000 -0.107244 0
