0.000000 1.151234 3
0.005000 1.046381 0
0.010000 0.781864 0
0.015000 0.439933 0
0.020000 0.108128 0
0.025000 -0.153248 0
0.030000 -0.318103 0
0.035000 -0.386493 4
0.040000 -0.376006 0
0.045000 -0.315270 0
0.050000 -0.235583 0
0.055000 -0.161229 0
0.060000 -0.103859 0
0.065000 -0.063803 0
0.070000 -0.035611 0
0.075000 -0.013224 0
0.080000 0.007578 0
0.085000 0.028984 0
0.090000 0.051855 0
0.095000 0.076382 0
0.100000 0.102460 0
0.105000 0.129839 0
0.110000 0.158175 0
0.115000 0.187048 0
0.120000 0.215976 0
0.125000 0.244422 0
0.130000 0.271809 0
0.135000 0.297545 0
0.140000 0.321035 0
0.145000 0.341708 0
0.150000 0.359041 0
0.155000 0.372577 0
0.160000 0.381946 0
0.165000 0.386882 0
0.170000 0.387234 5
0.175000 0.382976 0
0.180000 0.374205 0
0.185000 0.361139 0
0.190000 0.344106 0
0.195000 0.323532 0
0.200000 0.299924 0
0.205000 0.273845 0
0.210000 0.245895 0
0.215000 0.216686 0
0.220000 0.186820 0
0.225000 0.156874 0
0.230000 0.127373 0
0.235000 0.098784 0
0.240000 0.071505 0
0.245000 0.045855 0
0.250000 0.022076 0
0.255000 0.000333 0
0.260000 -0.019283 0
0.265000 -0.036744 0
0.270000 -0.052082 0
0.275000 -0.065373 0
0.280000 -0.076732 0
0.285000 -0.086302 0
0.290000 -0.094242 0
0.295000 -0.100721 0
0.300000 -0.105910 0
0.305000 -0.109977 0
0.310000 -0.113082 0
0.315000 -0.115371 0
0.320000 -0.116979 0
0.325000 -0.118025 0
0.330000 -0.118614 0
0.335000 -0.118834 0
0.340000 -0.118625 0
0.345000 -0.117609 0
0.350000 -0.116599 0
0.355000 -0.115593 0
0.360000 -0.114593 0
0.365000 -0.113598 0
0.370000 -0.112607 0
0.375000 -0.111621 0
0.380000 -0.110641 0
0.385000 -0.109664 0
0.390000 -0.108693 0
0.395000 -0.107725 0
0.400000 -0.106761 0
0.405000 -0.105799 0
0.410000 -0.104836 0
0.415000 -0.103867 0
0.420000 -0.102886 0
0.425000 -0.101878 0
0.430000 -0.100823 0
0.435000 -0.099688 0
0.440000 -0.098421 0
0.445000 -0.096948 0
0.450000 -0.095161 0
0.455000 -0.092911 0
0.460000 -0.090001 0
0.465000 -0.086176 0
0.470000 -0.081125 0
0.475000 -0.074487 0
0.480000 -0.065863 0
0.485000 -0.054847 0
0.490000 -0.041067 0
0.495000 -0.024236 0
0.500000 -0.004217 0
0.505000 0.018916 0
0.510000 0.044825 0
0.515000 0.072871 0
0.520000 0.102108 0
0.525000 0.131313 0
0.530000 0.159060 0
0.535000 0.183828 0
0.540000 0.204135 0
0.545000 0.218684 0
0.550000 0.226502 0
0.555000 0.227045 1
0.560000 0.220264 0
0.565000 0.206610 0
0.570000 0.186987 0
0.575000 0.162649 0
0.580000 0.135073 0
0.585000 0.105802 0
0.590000 0.076295 0
0.595000 0.047750 0
0.600000 0.020875 0
0.605000 -0.004481 0
0.610000 -0.029812 0
0.615000 -0.058261 0
0.620000 -0.093950 0
0.625000 -0.139505 0
0.630000 -0.192070 0
0.635000 -0.240007 0
0.640000 -0.263129 2
0.645000 -0.236943 0
0.650000 -0.138532 0
0.655000 0.047112 0
0.660000 0.317565 0
0.665000 0.639615 0
0.670000 0.942753 0
0.675000 1.136185 0
0.680000 1.150310 3
0.685000 0.975556 0
0.690000 0.669206 0
0.695000 0.321836 0
0.700000 0.013407 0
0.705000 -0.209599 0
0.710000 -0.332951 0
0.715000 -0.364992 4
0.720000 -0.329090 0
0.725000 -0.256569 0
0.730000 -0.177076 0
0.735000 -0.109798 0
0.740000 -0.060860 0
0.745000 -0.027180 0
0.750000 -0.002470 0
0.755000 0.018671 0
0.760000 0.039480 0
0.765000 0.061432 0
0.770000 0.085006 0
0.775000 0.110220 0
0.780000 0.136883 0
0.785000 0.164692 0
0.790000 0.193258 0
0.795000 0.222123 0
0.800000 0.250768 0
0.805000 0.278628 0
0.810000 0.305107 0
0.815000 0.329603 0
0.820000 0.351523 0
0.825000 0.370315 0
0.830000 0.385482 0
0.835000 0.396610 0
0.840000 0.403381 0
0.845000 0.405593 5
0.850000 0.403164 0
0.855000 0.396140 0
0.860000 0.384693 0
0.865000 0.369110 0
0.870000 0.349785 0
0.875000 0.327202 0
0.880000 0.301908 0
0.885000 0.274501 0
0.890000 0.245597 0
0.895000 0.215812 0
0.900000 0.185740 0
0.905000 0.155934 0
0.910000 0.126889 0
0.915000 0.099031 0
0.920000 0.072711 0
0.925000 0.048201 0
0.930000 0.025692 0
0.935000 0.005301 0
0.940000 -0.012925 0
0.945000 -0.028999 0
0.950000 -0.042988 0
0.955000 -0.054996 0
0.960000 -0.065159 0
0.965000 -0.073636 0
0.970000 -0.080595 0
0.975000 -0.086210 0
0.980000 -0.090651 0
0.985000 -0.094082 0
0.990000 -0.096656 0
0.995000 -0.098512 0
1.000000 -0.099775 0
1.005000 -0.100553 0
1.010000 -0.100941 0
1.015000 -0.101017 0
1.020000 -0.100235 0
1.025000 -0.099311 0
1.030000 -0.098392 0
1.035000 -0.097477 0
1.040000 -0.096567 0
1.045000 -0.095661 0
1.050000 -0.094760 0
1.055000 -0.093863 0
1.060000 -0.092971 0
1.065000 -0.092083 0
1.070000 -0.091198 0
1.075000 -0.090317 0
1.080000 -0.089437 0
1.085000 -0.088556 0
1.090000 -0.087671 0
1.095000 -0.086773 0
1.100000 -0.085851 0
1.105000 -0.084884 0
1.110000 -0.083840 0
1.115000 -0.082670 0
1.120000 -0.081301 0
1.125000 -0.079629 0
1.130000 -0.077507 0
1.135000 -0.074738 0
1.140000 -0.071073 0
1.145000 -0.066200 0
1.150000 -0.059756 0
1.155000 -0.051341 0
1.160000 -0.040542 0
1.165000 -0.026979 0
1.170000 -0.010359 0
1.175000 0.009467 0
1.180000 0.032433 0
1.185000 0.058206 0
1.190000 0.086147 0
1.195000 0.115306 0
1.200000 0.144449 0
1.205000 0.172136 0
1.210000 0.196826 0
1.215000 0.217022 0
1.220000 0.231414 0
1.225000 0.239022 0
1.230000 0.239306 1
1.235000 0.232232 0
1.240000 0.218269 0
1.245000 0.198348 0
1.250000 0.173751 0
1.255000 0.145978 0
1.260000 0.116590 0
1.265000 0.087051 0
1.270000 0.058548 0
1.275000 0.031748 0
1.280000 0.006409 0
1.285000 -0.019119 0
1.290000 -0.048154 0
1.295000 -0.084859 0
1.300000 -0.131515 0
1.305000 -0.184382 0
1.310000 -0.230604 0
1.315000 -0.248952 2
1.320000 -0.214525 0
1.325000 -0.104803 0
1.330000 0.093650 0
1.335000 0.374744 0
1.340000 0.699257 0
1.345000 0.990820 0
1.350000 1.157870 3
1.355000 1.137695 0
1.360000 0.933124 0
1.365000 0.611920 0
1.370000 0.266759 0
1.375000 -0.027089 0
1.380000 -0.229741 0
1.385000 -0.332312 0
1.390000 -0.347042 4
1.395000 -0.300064 0
1.400000 -0.223623 0
1.405000 -0.145893 0
1.410000 -0.083085 0
1.415000 -0.038578 0
1.420000 -0.007896 0
1.425000 0.015368 0
1.430000 0.036128 0
1.435000 0.057105 0
1.440000 0.079440 0
1.445000 0.103446 0
1.450000 0.129062 0
1.455000 0.156055 0
1.460000 0.184091 0
1.465000 0.212752 0
1.470000 0.241555 0
1.475000 0.269955 0
1.480000 0.297369 0
1.485000 0.323189 0
1.490000 0.346805 0
1.495000 0.367629 0
1.500000 0.385117 0
1.505000 0.398796 0
1.510000 0.408279 0
1.515000 0.413287 0
1.520000 0.413661 5
1.525000 0.409367 0
1.530000 0.400502 0
1.535000 0.387289 0
1.540000 0.370064 0
1.545000 0.349266 0
1.550000 0.325414 0
1.555000 0.299087 0
1.560000 0.270902 0
1.565000 0.241485 0
1.570000 0.211453 0
1.575000 0.181391 0
1.580000 0.151833 0
1.585000 0.123250 0
1.590000 0.096039 0
1.595000 0.070517 0
1.600000 0.046919 0
1.605000 0.025402 0
1.610000 0.006047 0
1.615000 -0.011129 0
1.620000 -0.026168 0
1.625000 -0.039158 0
1.630000 -0.050224 0
1.635000 -0.059516 0
1.640000 -0.067201 0
1.645000 -0.073454 0
1.650000 -0.078449 0
1.655000 -0.082356 0
1.660000 -0.085335 0
1.665000 -0.087532 0
1.670000 -0.089081 0
1.675000 -0.090098 0
1.680000 -0.090685 0
1.685000 -0.090928 0
1.690000 -0.090213 0
1.695000 -0.089339 0
1.700000 -0.088469 0
1.705000 -0.087604 0
1.710000 -0.086743 0
1.715000 -0.085887 0
1.720000 -0.085034 0
1.725000 -0.084186 0
1.730000 -0.083342 0
1.735000 -0.082502 0
1.740000 -0.081666 0
1.745000 -0.080832 0
1.750000 -0.080001 0
1.755000 -0.079169 0
1.760000 -0.078334 0
1.765000 -0.077489 0
1.770000 -0.076623 0
1.775000 -0.075718 0
1.780000 -0.074747 0
1.785000 -0.073664 0
1.790000 -0.072404 0
1.795000 -0.070868 0
1.800000 -0.068922 0
1.805000 -0.066380 0
1.810000 -0.063001 0
1.815000 -0.058485 0
1.820000 -0.052477 0
1.825000 -0.044575 0
1.830000 -0.034364 0
1.835000 -0.021446 0
1.840000 -0.005501 0
1.845000 0.013656 0
1.850000 0.036006 0
1.855000 0.061266 0
1.860000 0.088848 0
1.865000 0.117842 0
1.870000 0.147044 0
1.875000 0.175023 0
1.880000 0.200225 0
1.885000 0.221118 0
1.890000 0.236339 0
1.895000 0.244841 0
1.900000 0.246016 1
1.905000 0.239762 0
1.910000 0.226497 0
1.915000 0.207114 0
1.920000 0.182882 0
1.925000 0.155303 0
1.930000 0.125960 0
1.935000 0.096350 0
1.940000 0.067706 0
1.945000 0.040751 0
1.950000 0.015316 0
1.955000 -0.010170 0
1.960000 -0.038988 0
1.965000 -0.075351 0
1.970000 -0.121720 0
1.975000 -0.174578 0
1.980000 -0.221173 0
1.985000 -0.240152 2
1.990000 -0.206312 0
1.995000 -0.096804 0
2.000000 0.101996 0
2.005000 0.383783 0
2.010000 0.708405 0
2.015000 0.998010 0
2.020000 1.160065 3
2.025000 1.133098 0
2.030000 0.923071 0
2.035000 0.599457 0
2.040000 0.255028 0
2.045000 -0.036004 0
2.050000 -0.234996 0
2.055000 -0.333989 0
2.060000 -0.345867 4
2.065000 -0.297174 0
2.070000 -0.220224 0
2.075000 -0.142864 0
2.080000 -0.080787 0
2.085000 -0.036949 0
2.090000 -0.006689 0
2.095000 0.016391 0
2.100000 0.037120 0
2.105000 0.058138 0
2.110000 0.080541 0
2.115000 0.104618 0
2.120000 0.130298 0
2.125000 0.157345 0
2.130000 0.185417 0
2.135000 0.214095 0
2.140000 0.242891 0
2.145000 0.271259 0
2.150000 0.298613 0
2.155000 0.324344 0
2.160000 0.347841 0
2.165000 0.368518 0
2.170000 0.385834 0
2.175000 0.399317 0
2.180000 0.408587 0
2.185000 0.413368 0
2.190000 0.413508 5
2.195000 0.408980 0
2.200000 0.399888 0
2.205000 0.386459 0
2.210000 0.369037 0
2.215000 0.348066 0
2.220000 0.324068 0
2.225000 0.297626 0
2.230000 0.269359 0
2.235000 0.239893 0
2.240000 0.209844 0
2.245000 0.179796 0
2.250000 0.150281 0
2.255000 0.121765 0
2.260000 0.094641 0
2.265000 0.069223 0
2.270000 0.045741 0
2.275000 0.024347 0
2.280000 0.005120 0
2.285000 -0.011929 0
2.290000 -0.026843 0
2.295000 -0.039715 0
2.300000 -0.050670 0
2.305000 -0.059860 0
2.310000 -0.067453 0
2.315000 -0.073624 0
2.320000 -0.078547 0
2.325000 -0.082392 0
2.330000 -0.085317 0
2.335000 -0.087471 0
2.340000 -0.088983 0
2.345000 -0.089970 0
2.350000 -0.090533 0
2.355000 -0.090757 0
2.360000 -0.090039 0
2.365000 -0.089166 0
2.370000 -0.088298 0
2.375000 -0.087433 0
2.380000 -0.086573 0
2.385000 -0.085718 0
2.390000 -0.084866 0
2.395000 -0.084019 0
2.400000 -0.083176 0
2.405000 -0.082336 0
2.410000 -0.081501 0
2.415000 -0.080668 0
2.420000 -0.079837 0
2.425000 -0.079006 0
2.430000 -0.078171 0
2.435000 -0.077325 0
2.440000 -0.076457 0
2.445000 -0.075550 0
2.450000 -0.074572 0
2.455000 -0.073479 0
2.460000 -0.072202 0
2.465000 -0.070641 0
2.470000 -0.068657 0
2.475000 -0.066059 0
2.480000 -0.062604 0
2.485000 -0.057986 0
2.490000 -0.051843 0
2.495000 -0.043775 0
2.500000 -0.033362 0
2.505000 -0.020212 0
2.510000 -0.004013 0
2.515000 0.015407 0
2.520000 0.038009 0
2.525000 0.063486 0
2.530000 0.091223 0
2.535000 0.120284 0
2.540000 0.149441 0
2.545000 0.177247 0
2.550000 0.202143 0
2.555000 0.222604 0
2.560000 0.237286 0
2.565000 0.245176 0
2.570000 0.245706 1
2.575000 0.238819 0
2.580000 0.224978 0
2.585000 0.205114 0
2.590000 0.180524 0
2.595000 0.152724 0
2.600000 0.123299 0
2.605000 0.093731 0
2.610000 0.065220 0
2.615000 0.038426 0
2.620000 0.013078 0
2.625000 -0.012554 0
2.630000 -0.041891 0
2.635000 -0.079137 0
2.640000 -0.126386 0
2.645000 -0.179352 0
2.650000 -0.224363 0
2.655000 -0.239436 2
2.660000 -0.199299 0
2.665000 -0.081636 0
2.670000 0.125837 0
2.675000 0.414142 0
2.680000 0.739287 0
2.685000 1.020415 0
2.690000 1.165770 3
2.695000 1.119793 0
2.700000 0.896111 0
2.705000 0.567278 0
2.710000 0.224689 0
2.715000 -0.060847 0
2.720000 -0.253605 0
2.725000 -0.347280 0
2.730000 -0.355499 4
2.735000 -0.304932 0
2.740000 -0.227496 0
2.745000 -0.150353 0
2.750000 -0.088612 0
2.755000 -0.044961 0
2.760000 -0.014733 0
2.765000 0.008385 0
2.770000 0.029156 0
2.775000 0.050197 0
2.780000 0.072604 0
2.785000 0.096672 0
2.790000 0.122336 0
2.795000 0.149367 0
2.800000 0.177432 0
2.805000 0.206122 0
2.810000 0.234957 0
2.815000 0.263403 0
2.820000 0.290883 0
2.825000 0.316799 0
2.830000 0.340546 0
2.835000 0.361544 0
2.840000 0.379254 0
2.845000 0.393203 0
2.850000 0.403004 0
2.855000 0.408374 0
2.860000 0.409146 5
2.865000 0.405278 0
2.870000 0.396854 0
2.875000 0.384084 0
2.880000 0.367288 0
2.885000 0.346890 0
2.890000 0.323396 0
2.895000 0.297371 0
2.900000 0.269420 0
2.905000 0.240163 0
2.910000 0.210210 0
2.915000 0.180146 0
2.920000 0.150505 0
2.925000 0.121764 0
2.930000 0.094327 0
2.935000 0.068520 0
2.940000 0.044589 0
2.945000 0.022704 0
2.950000 0.002957 0
2.955000 -0.014622 0
2.960000 -0.030065 0
2.965000 -0.043450 0
2.970000 -0.054893 0
2.975000 -0.064539 0
2.980000 -0.072549 0
2.985000 -0.079094 0
2.990000 -0.084347 0
2.995000 -0.088478 0
3.000000 -0.091647 0
3.005000 -0.094003 0
3.010000 -0.095681 0
3.015000 -0.096801 0
3.020000 -0.097466 0
3.025000 -0.097766 0
3.030000 -0.097644 0
3.035000 -0.096733 0
3.040000 -0.095827 0
3.045000 -0.094925 0
3.050000 -0.094027 0
3.055000 -0.093134 0
3.060000 -0.092246 0
3.065000 -0.091362 0
3.070000 -0.090482 0
3.075000 -0.089607 0
3.080000 -0.088735 0
3.085000 -0.087867 0
3.090000 -0.087001 0
3.095000 -0.086137 0
3.100000 -0.085270 0
3.105000 -0.084397 0
3.110000 -0.083508 0
3.115000 -0.082590 0
3.120000 -0.081618 0
3.125000 -0.080556 0
3.130000 -0.079349 0
3.135000 -0.077915 0
3.140000 -0.076136 0
3.145000 -0.073853 0
3.150000 -0.070854 0
3.155000 -0.066868 0
3.160000 -0.061567 0
3.165000 -0.054576 0
3.170000 -0.045486 0
3.175000 -0.033890 0
3.180000 -0.019429 0
3.185000 -0.001845 0
3.190000 0.018949 0
3.195000 0.042813 0
3.200000 0.069320 0
3.205000 0.097737 0
3.210000 0.127020 0
3.215000 0.155863 0
3.220000 0.182781 0
3.225000 0.206231 0
3.230000 0.224758 0
3.235000 0.237139 0
3.240000 0.242520 1
3.245000 0.240511 0
3.250000 0.231235 0
3.255000 0.215313 0
3.260000 0.193793 0
3.265000 0.168042 0
3.270000 0.139596 0
3.275000 0.110002 0
3.280000 0.080660 0
3.285000 0.052630 0
3.290000 0.026347 0
3.295000 0.001191 0
3.300000 -0.025003 0
3.305000 -0.055979 0
3.310000 -0.095704 0
3.315000 -0.145065 0
3.320000 -0.197717 0
3.325000 -0.237935 0
3.330000 -0.242741 2
3.335000 -0.187321 0
3.340000 -0.051134 0
3.345000 0.174622 0
3.350000 0.475045 0
3.355000 0.798965 0
3.360000 1.061611 0
3.365000 1.175289 3
3.370000 1.095949 0
3.375000 0.849139 0
3.380000 0.512364 0
3.385000 0.174407 0
3.390000 -0.099891 0
3.395000 -0.279932 0
3.400000 -0.362489 0
3.405000 -0.362791 4
3.410000 -0.308041 0
3.415000 -0.229590 0
3.420000 -0.153271 0
3.425000 -0.092840 0
3.430000 -0.050196 0
3.435000 -0.020485 0
3.440000 0.002468 0
3.445000 0.023246 0
3.450000 0.044348 0
3.455000 0.066817 0
3.460000 0.090931 0
3.465000 0.116627 0
3.470000 0.143675 0
3.475000 0.171753 0
3.480000 0.200457 0
3.485000 0.229320 0
3.490000 0.257817 0
3.495000 0.285384 0
3.500000 0.311432 0
3.505000 0.335370 0
3.510000 0.356623 0
3.515000 0.374659 0
3.520000 0.389007 0
3.525000 0.399277 0
3.530000 0.405181 0
3.535000 0.406541 5
3.540000 0.403301 0
3.545000 0.395527 0
3.550000 0.383408 0
3.555000 0.367243 0
3.560000 0.347435 0
3.565000 0.324466 0
3.570000 0.298885 0
3.575000 0.271280 0
3.580000 0.242258 0
3.585000 0.212424 0
3.590000 0.182358 0
3.595000 0.152599 0
3.600000 0.123626 0
3.605000 0.095857 0
3.610000 0.069629 0
3.615000 0.045206 0
3.620000 0.022772 0
3.625000 0.002441 0
3.630000 -0.015743 0
3.635000 -0.031795 0
3.640000 -0.045779 0
3.645000 -0.057798 0
3.650000 -0.067987 0
3.655000 -0.076499 0
3.660000 -0.083500 0
3.665000 -0.089161 0
3.670000 -0.093649 0
3.675000 -0.097127 0
3.680000 -0.099745 0
3.685000 -0.101641 0
3.690000 -0.102938 0
3.695000 -0.103745 0
3.700000 -0.104156 0
3.705000 -0.104250 0
3.710000 -0.103456 0
3.715000 -0.102516 0
3.720000 -0.101581 0
3.725000 -0.100650 0
3.730000 -0.099725 0
3.735000 -0.098803 0
3.740000 -0.097886 0
3.745000 -0.096974 0
3.750000 -0.096066 0
3.755000 -0.095163 0
3.760000 -0.094263 0
3.765000 -0.093367 0
3.770000 -0.092472 0
3.775000 -0.091578 0
3.780000 -0.090681 0
3.785000 -0.089773 0
3.790000 -0.088845 0
3.795000 -0.087880 0
3.800000 -0.086849 0
3.805000 -0.085710 0
3.810000 -0.084399 0
3.815000 -0.082824 0
3.820000 -0.080854 0
3.825000 -0.078315 0
3.830000 -0.074978 0
3.835000 -0.070559 0
3.840000 -0.064717 0
3.845000 -0.057069 0
3.850000 -0.047212 0
3.855000 -0.034755 0
3.860000 -0.019368 0
3.865000 -0.000843 0
3.870000 0.020851 0
3.875000 0.045499 0
3.880000 0.072606 0
3.885000 0.101368 0
3.890000 0.130691 0
3.895000 0.159239 0
3.900000 0.185531 0
3.905000 0.208055 0
3.910000 0.225420 0
3.915000 0.236489 0
3.920000 0.240507 1
3.925000 0.237185 0
3.930000 0.226733 0
3.935000 0.209839 0
3.940000 0.187593 0
3.945000 0.161372 0
3.950000 0.132697 0
3.955000 0.103078 0
3.960000 0.073860 0
3.965000 0.046029 0
3.970000 0.019926 0
3.975000 -0.005186 0
3.980000 -0.031585 0
3.985000 -0.063044 0
3.990000 -0.103378 0
3.995000 -0.153138 0
4.000000 -0.205621 0
4.005000 -0.244980 0
4.010000 -0.248467 2
4.015000 -0.191732 0
4.020000 -0.054722 0
4.025000 0.171079 0
4.030000 0.471057 0
4.035000 0.795281 0
4.040000 1.060828 0
4.045000 1.180949 3
4.050000 1.109815 0
4.055000 0.869265 0
4.060000 0.534726 0
4.065000 0.194868 0
4.070000 -0.084151 0
4.075000 -0.270131 0
4.080000 -0.358533 0
4.085000 -0.363537 4
4.090000 -0.311592 0
4.095000 -0.233878 0
4.100000 -0.156749 0
4.105000 -0.094864 0
4.110000 -0.050892 0
4.115000 -0.020333 0
4.120000 0.002992 0
4.125000 0.023825 0
4.130000 0.044820 0
4.135000 0.067119 0
4.140000 0.091050 0
4.145000 0.116573 0
4.150000 0.143474 0
4.155000 0.171440 0
4.160000 0.200080 0
4.165000 0.228935 0
4.170000 0.257491 0
4.175000 0.285191 0
4.180000 0.311453 0
4.185000 0.335687 0
4.190000 0.357321 0
4.195000 0.375818 0
4.200000 0.390700 0
4.205000 0.401568 0
4.210000 0.408120 0
4.215000 0.410162 5
4.220000 0.407620 0
4.225000 0.400540 0
4.230000 0.389092 0
4.235000 0.373556 0
4.240000 0.354315 0
4.245000 0.331837 0
4.250000 0.306658 0
4.255000 0.279355 0
4.260000 0.250532 0
4.265000 0.220790 0
4.270000 0.190712 0
4.275000 0.160841 0
4.280000 0.131667 0
4.285000 0.103617 0
4.290000 0.077042 0
4.295000 0.052219 0
4.300000 0.029348 0
4.305000 0.008555 0
4.310000 -0.010103 0
4.315000 -0.026627 0
4.320000 -0.041071 0
4.325000 -0.053531 0
4.330000 -0.064134 0
4.335000 -0.073029 0
4.340000 -0.080378 0
4.345000 -0.086352 0
4.350000 -0.091117 0
4.355000 -0.094836 0
4.360000 -0.097661 0
4.365000 -0.099734 0
4.370000 -0.101181 0
4.375000 -0.102112 0
4.380000 -0.102626 0
4.385000 -0.102804 0
4.390000 -0.102029 0
4.395000 -0.101097 0
4.400000 -0.100168 0
4.405000 -0.099245 0
4.410000 -0.098326 0
4.415000 -0.097412 0
4.420000 -0.096502 0
4.425000 -0.095597 0
4.430000 -0.094696 0
4.435000 -0.093799 0
4.440000 -0.092906 0
4.445000 -0.092017 0
4.450000 -0.091130 0
4.455000 -0.090245 0
4.460000 -0.089357 0
4.465000 -0.088461 0
4.470000 -0.087550 0
4.475000 -0.086607 0
4.480000 -0.085609 0
4.485000 -0.084520 0
4.490000 -0.083283 0
4.495000 -0.081818 0
4.500000 -0.080008 0
4.505000 -0.077697 0
4.510000 -0.074675 0
4.515000 -0.070680 0
4.520000 -0.065393 0
4.525000 -0.058446 0
4.530000 -0.049443 0
4.535000 -0.037986 0
4.540000 -0.023718 0
4.545000 -0.006382 0
4.550000 0.014126 0
4.555000 0.037690 0
4.560000 0.063927 0
4.565000 0.092157 0
4.570000 0.121399 0
4.575000 0.150411 0
4.580000 0.177765 0
4.585000 0.201954 0
4.590000 0.221533 0
4.595000 0.235252 0
4.600000 0.242198 1
4.605000 0.241887 0
4.610000 0.234322 0
4.615000 0.219997 0
4.620000 0.199840 0
4.625000 0.175115 0
4.630000 0.147290 0
4.635000 0.117889 0
4.640000 0.088339 0
4.645000 0.059804 0
4.650000 0.032945 0
4.655000 0.007566 0
4.660000 -0.017873 0
4.665000 -0.046529 0
4.670000 -0.082474 0
4.675000 -0.128237 0
4.680000 -0.180890 0
4.685000 -0.228866 0
4.690000 -0.252217 2
4.695000 -0.226762 0
4.700000 -0.129825 0
4.705000 0.053624 0
4.710000 0.321765 0
4.715000 0.642916 0
4.720000 0.948682 0
4.725000 1.149503 0
4.730000 1.174489 3
4.735000 1.010593 0
4.740000 0.710505 0
4.745000 0.362983 0
4.750000 0.048985 0
4.755000 -0.182655 0
4.760000 -0.315454 0
4.765000 -0.355915 4
4.770000 -0.325912 0
4.775000 -0.255970 0
4.780000 -0.176079 0
4.785000 -0.106719 0
4.790000 -0.055450 0
4.795000 -0.020075 0
4.800000 0.005493 0
4.805000 0.026854 0
4.810000 0.047524 0
4.815000 0.069181 0
4.820000 0.092413 0
4.825000 0.117290 0
4.830000 0.143651 0
4.835000 0.171212 0
4.840000 0.199605 0
4.845000 0.228390 0
4.850000 0.257065 0
4.855000 0.285079 0
4.860000 0.311851 0
4.865000 0.336784 0
4.870000 0.359290 0
4.875000 0.378810 0
4.880000 0.394841 0
4.885000 0.406950 0
4.890000 0.414800 0
4.895000 0.418159 5
4.900000 0.416916 0
4.905000 0.411082 0
4.910000 0.400793 0
4.915000 0.386302 0
4.920000 0.367969 0
4.925000 0.346248 0
4.930000 0.321664 0
4.935000 0.294793 0
4.940000 0.266242 0
4.945000 0.236621 0
4.950000 0.206526 0
4.955000 0.176519 0
4.960000 0.147108 0
4.965000 0.118740 0
4.970000 0.091788 0
4.975000 0.066547 0
4.980000 0.043236 0
4.985000 0.021996 0
4.990000 0.002898 0
4.995000 -0.014049 0
5.000000 -0.028892 0
5.005000 -0.041720 0
5.010000 -0.052657 0
5.015000 -0.061851 0
5.020000 -0.069466 0
5.025000 -0.075672 0
5.030000 -0.080639 0
5.035000 -0.084532 0
5.040000 -0.087508 0
5.045000 -0.089711 0
5.050000 -0.091269 0
5.055000 -0.092298 0
5.060000 -0.092897 0
5.065000 -0.093152 0
5.070000 -0.093007 0
5.075000 -0.092119 0
5.080000 -0.091236 0
5.085000 -0.090357 0
5.090000 -0.089483 0
5.095000 -0.088612 0
5.100000 -0.087746 0
5.105000 -0.086885 0
5.110000 -0.086027 0
5.115000 -0.085174 0
5.120000 -0.084324 0
5.125000 -0.083478 0
5.130000 -0.082634 0
5.135000 -0.081791 0
5.140000 -0.080945 0
5.145000 -0.080091 0
5.150000 -0.079221 0
5.155000 -0.078319 0
5.160000 -0.077361 0
5.165000 -0.076309 0
5.170000 -0.075106 0
5.175000 -0.073669 0
5.180000 -0.071879 0
5.185000 -0.069575 0
5.190000 -0.066542 0
5.195000 -0.062510 0
5.200000 -0.057154 0
5.205000 -0.050098 0
5.210000 -0.040939 0
5.215000 -0.029277 0
5.220000 -0.014757 0
5.225000 0.002869 0
5.230000 0.023685 0
5.235000 0.047548 0
5.240000 0.074036 0
5.245000 0.102422 0
5.250000 0.131678 0
5.255000 0.160516 0
5.260000 0.187471 0
5.265000 0.211020 0
5.270000 0.229719 0
5.275000 0.242352 0
5.280000 0.248056 1
5.285000 0.246424 0
5.290000 0.237549 0
5.295000 0.222015 0
5.300000 0.200835 0
5.305000 0.175338 0
5.310000 0.147035 0
5.315000 0.117461 0
5.320000 0.088017 0
5.325000 0.059794 0
5.330000 0.033304 0
5.335000 0.008076 0
5.340000 -0.017832 0
5.345000 -0.047962 0
5.350000 -0.086354 0
5.355000 -0.134548 0
5.360000 -0.187501 0
5.365000 -0.231026 0
5.370000 -0.243228 2
5.375000 -0.199475 0
5.380000 -0.078336 0
5.385000 0.131597 0
5.390000 0.420862 0
5.395000 0.746066 0
5.400000 1.028330 0
5.405000 1.177993 3
5.410000 1.138263 0
5.415000 0.918545 0
5.420000 0.590956 0
5.425000 0.247878 0
5.430000 -0.038617 0
5.435000 -0.232034 0
5.440000 -0.325849 0
5.445000 -0.333818 4
5.450000 -0.282933 0
5.455000 -0.205434 0
5.460000 -0.128615 0
5.465000 -0.067459 0
5.470000 -0.024418 0
5.475000 0.005347 0
5.480000 0.028193 0
5.485000 0.048840 0
5.490000 0.069843 0
5.495000 0.092252 0
5.500000 0.116334 0
5.505000 0.142011 0
5.510000 0.169042 0
5.515000 0.197085 0
5.520000 0.225720 0
5.525000 0.254458 0
5.530000 0.282754 0
5.535000 0.310022 0
5.540000 0.335655 0
5.545000 0.359045 0
5.550000 0.379607 0
5.555000 0.396805 0
5.560000 0.410169 0
5.565000 0.419321 0
5.570000 0.423990 0
5.575000 0.424023 5
5.580000 0.419396 0
5.585000 0.410215 0
5.590000 0.396706 0
5.595000 0.379213 0
5.600000 0.358178 0
5.605000 0.334125 0
5.610000 0.307632 0
5.615000 0.279316 0
5.620000 0.249804 0
5.625000 0.219708 0
5.630000 0.189610 0
5.635000 0.160040 0
5.640000 0.131466 0
5.645000 0.104279 0
5.650000 0.078791 0
5.655000 0.055235 0
5.660000 0.033762 0
5.665000 0.014452 0
5.670000 -0.002682 0
5.675000 -0.017684 0
5.680000 -0.030643 0
5.685000 -0.041685 0
5.690000 -0.050961 0
5.695000 -0.058638 0
5.700000 -0.064889 0
5.705000 -0.069890 0
5.710000 -0.073808 0
5.715000 -0.076804 0
5.720000 -0.079024 0
5.725000 -0.080599 0
5.730000 -0.081646 0
5.735000 -0.082265 0
5.740000 -0.082543 0
5.745000 -0.081868 0
5.750000 -0.081036 0
5.755000 -0.080208 0
5.760000 -0.079384 0
5.765000 -0.078564 0
5.770000 -0.077748 0
5.775000 -0.076936 0
5.780000 -0.076129 0
5.785000 -0.075325 0
5.790000 -0.074525 0
5.795000 -0.073728 0
5.800000 -0.072934 0
5.805000 -0.072142 0
5.810000 -0.071350 0
5.815000 -0.070553 0
5.820000 -0.069747 0
5.825000 -0.068919 0
5.830000 -0.068053 0
5.835000 -0.067119 0
5.840000 -0.066074 0
5.845000 -0.064851 0
5.850000 -0.063354 0
5.855000 -0.061445 0
5.860000 -0.058942 0
5.865000 -0.055603 0
5.870000 -0.051130 0
5.875000 -0.045167 0
5.880000 -0.037316 0
5.885000 -0.027160 0
5.890000 -0.014304 0
5.895000 0.001574 0
5.900000 0.020660 0
5.905000 0.042937 0
5.910000 0.068126 0
5.915000 0.095644 0
5.920000 0.124589 0
5.925000 0.153763 0
5.930000 0.181740 0
5.935000 0.206973 0
5.940000 0.227930 0
5.945000 0.243245 0
5.950000 0.251868 0
5.955000 0.253180 1
5.960000 0.247067 0
5.965000 0.233935 0
5.970000 0.214665 0
5.975000 0.190512 0
5.980000 0.162972 0
5.985000 0.133625 0
5.990000 0.103970 0
5.995000 0.075246 0
6.000000 0.048199 0
6.005000 0.022696 0
6.010000 -0.002775 0
6.015000 -0.031428 0
6.020000 -0.067472 0
6.025000 -0.113498 0
6.030000 -0.166309 0
6.035000 -0.213564 0
6.040000 -0.234239 2
6.045000 -0.203221 0
6.050000 -0.097482 0
6.055000 0.097169 0
6.060000 0.375651 0
6.065000 0.699713 0
6.070000 0.993186 0
6.075000 1.163477 3
6.080000 1.146043 0
6.085000 0.942459 0
6.090000 0.621154 0
6.095000 0.276164 0
6.100000 -0.016400 0
6.105000 -0.216634 0
6.110000 -0.316138 0
6.115000 -0.327896 4
6.120000 -0.278854 0
6.125000 -0.201787 0
6.130000 -0.124766 0
6.135000 -0.063369 0
6.140000 -0.020258 0
6.145000 0.009458 0
6.150000 0.032237 0
6.155000 0.052855 0
6.160000 0.073875 0
6.165000 0.096332 0
6.170000 0.120479 0
6.175000 0.146227 0
6.180000 0.173324 0
6.185000 0.201415 0
6.190000 0.230068 0
6.195000 0.258780 0
6.200000 0.286991 0
6.205000 0.314102 0
6.210000 0.339494 0
6.215000 0.362550 0
6.220000 0.382679 0
6.225000 0.399342 0
6.230000 0.412074 0
6.235000 0.420507 0
6.240000 0.424381 5
6.245000 0.423566 0
6.250000 0.418059 0
6.255000 0.407991 0
6.260000 0.393620 0
6.265000 0.375315 0
6.270000 0.353547 0
6.275000 0.328862 0
6.280000 0.301863 0
6.285000 0.273180 0
6.290000 0.243449 0
6.295000 0.213288 0
6.300000 0.183278 0
6.305000 0.153940 0
6.310000 0.125728 0
6.315000 0.099019 0
6.320000 0.074104 0
6.325000 0.051195 0
6.330000 0.030420 0
6.335000 0.011839 0
6.340000 -0.004558 0
6.345000 -0.018831 0
6.350000 -0.031087 0
6.355000 -0.041463 0
6.360000 -0.050120 0
6.365000 -0.057233 0
6.370000 -0.062978 0
6.375000 -0.067532 0
6.380000 -0.071063 0
6.385000 -0.073728 0
6.390000 -0.075670 0
6.395000 -0.077015 0
6.400000 -0.077875 0
6.405000 -0.078345 0
6.410000 -0.078366 0
6.415000 -0.077551 0
6.420000 -0.076740 0
6.425000 -0.075933 0
6.430000 -0.075131 0
6.435000 -0.074332 0
6.440000 -0.073537 0
6.445000 -0.072747 0
6.450000 -0.071960 0
6.455000 -0.071177 0
6.460000 -0.070397 0
6.465000 -0.069620 0
6.470000 -0.068846 0
6.475000 -0.068072 0
6.480000 -0.067296 0
6.485000 -0.066512 0
6.490000 -0.065712 0
6.495000 -0.064880 0
6.500000 -0.063993 0
6.505000 -0.063011 0
6.510000 -0.061876 0
6.515000 -0.060501 0
6.520000 -0.058762 0
6.525000 -0.056488 0
6.530000 -0.053454 0
6.535000 -0.049374 0
6.540000 -0.043903 0
6.545000 -0.036645 0
6.550000 -0.027179 0
6.555000 -0.015091 0
6.560000 -0.000027 0
6.565000 0.018242 0
6.570000 0.039757 0
6.575000 0.064304 0
6.580000 0.091363 0
6.585000 0.120086 0
6.590000 0.149315 0
6.595000 0.177637 0
6.600000 0.203493 0
6.605000 0.225307 0
6.610000 0.241650 0
6.615000 0.251389 0
6.620000 0.253817 1
6.625000 0.248738 0
6.630000 0.236493 0
6.635000 0.217916 0
6.640000 0.194247 0
6.645000 0.166987 0
6.650000 0.137742 0
6.655000 0.108052 0
6.660000 0.079211 0
6.665000 0.052028 0
6.670000 0.026446 0
6.675000 0.001024 0
6.680000 -0.027423 0
6.685000 -0.063166 0
6.690000 -0.108959 0
6.695000 -0.161740 0
6.700000 -0.209113 0
6.705000 -0.229741 2
6.710000 -0.198073 0
6.715000 -0.090735 0
6.720000 0.106440 0
6.725000 0.387498 0
6.730000 0.712030 0
6.735000 1.001072 0
6.740000 1.160779 3
6.745000 1.129569 0
6.750000 0.915097 0
6.755000 0.589155 0
6.760000 0.245776 0
6.765000 -0.041173 0
6.770000 -0.234287 0
6.775000 -0.326967 0
6.780000 -0.333400 4
6.785000 -0.281260 0
6.790000 -0.203353 0
6.795000 -0.127061 0
6.800000 -0.066970 0
6.805000 -0.024990 0
6.810000 0.004058 0
6.815000 0.026587 0
6.820000 0.047208 0
6.825000 0.068346 0
6.830000 0.090958 0
6.835000 0.115262 0
6.840000 0.141154 0
6.845000 0.168371 0
6.850000 0.196554 0
6.855000 0.225264 0
6.860000 0.253993 0
6.865000 0.282178 0
6.870000 0.309217 0
6.875000 0.334491 0
6.880000 0.357382 0
6.885000 0.377304 0
6.890000 0.393721 0
6.895000 0.406176 0
6.900000 0.414305 0
6.905000 0.417862 5
6.910000 0.416723 0
6.915000 0.410897 0
6.920000 0.400524 0
6.925000 0.385870 0
6.930000 0.367315 0
6.935000 0.345335 0
6.940000 0.320482 0
6.945000 0.293362 0
6.950000 0.264607 0
6.955000 0.234852 0
6.960000 0.204715 0
6.965000 0.174769 0
6.970000 0.145535 0
6.975000 0.117459 0
6.980000 0.090912 0
6.985000 0.066179 0
6.990000 0.043464 0
6.995000 0.022892 0
7.000000 0.004515 0
7.005000 -0.011680 0
7.010000 -0.025758 0
7.015000 -0.037829 0
7.020000 -0.048032 0
7.025000 -0.056530 0
7.030000 -0.063497 0
7.035000 -0.069111 0
7.040000 -0.073548 0
7.045000 -0.076974 0
7.050000 -0.079547 0
7.055000 -0.081407 0
7.060000 -0.082681 0
7.065000 -0.083477 0
7.070000 -0.083892 0
7.075000 -0.083866 0
7.080000 -0.083024 0
7.085000 -0.082186 0
7.090000 -0.081352 0
7.095000 -0.080522 0
7.100000 -0.079697 0
7.105000 -0.078875 0
7.110000 -0.078058 0
7.115000 -0.077244 0
7.120000 -0.076435 0
7.125000 -0.075629 0
7.130000 -0.074826 0
7.135000 -0.074025 0
7.140000 -0.073225 0
7.145000 -0.072423 0
7.150000 -0.071612 0
7.155000 -0.070784 0
7.160000 -0.069923 0
7.165000 -0.069004 0
7.170000 -0.067986 0
7.175000 -0.066809 0
7.180000 -0.065382 0
7.185000 -0.063579 0
7.190000 -0.061224 0
7.195000 -0.058087 0
7.200000 -0.053875 0
7.205000 -0.048239 0
7.210000 -0.040780 0
7.215000 -0.031075 0
7.220000 -0.018713 0
7.225000 -0.003349 0
7.230000 0.015234 0
7.235000 0.037055 0
7.240000 0.061876 0
7.245000 0.089146 0
7.250000 0.117989 0
7.255000 0.147221 0
7.260000 0.175410 0
7.265000 0.200989 0
7.270000 0.222388 0
7.275000 0.238197 0
7.280000 0.247318 0
7.285000 0.249087 1
7.290000 0.243357 0
7.295000 0.230514 0
7.300000 0.211438 0
7.305000 0.187397 0
7.310000 0.159909 0
7.315000 0.130583 0
7.320000 0.100945 0
7.325000 0.072256 0
7.330000 0.045262 0
7.335000 0.019802 0
7.340000 -0.005719 0
7.345000 -0.034641 0
7.350000 -0.071242 0
7.355000 -0.117926 0
7.360000 -0.170862 0
7.365000 -0.216717 0
7.370000 -0.233497 2
7.375000 -0.195571 0
7.380000 -0.080096 0
7.385000 0.125752 0
7.390000 0.413345 0
7.395000 0.738433 0
7.400000 1.019073 0
7.405000 1.162273 3
7.410000 1.112505 0
7.415000 0.885092 0
7.420000 0.554496 0
7.425000 0.213029 0
7.430000 -0.068902 0
7.435000 -0.256631 0
7.440000 -0.344985 0
7.445000 -0.348666 4
7.450000 -0.295260 0
7.455000 -0.217059 0
7.460000 -0.140816 0
7.465000 -0.080719 0
7.470000 -0.038600 0
7.475000 -0.009366 0
7.480000 0.013305 0
7.485000 0.034000 0
7.490000 0.055156 0
7.495000 0.077753 0
7.500000 0.102027 0
7.505000 0.127885 0
7.510000 0.155078 0
7.515000 0.183256 0
7.520000 0.211994 0
7.525000 0.240798 0
7.530000 0.269117 0
7.535000 0.296364 0
7.540000 0.321929 0
7.545000 0.345204 0
7.550000 0.365606 0
7.555000 0.382601 0
7.560000 0.395727 0
7.565000 0.404610 0
7.570000 0.408990 5
7.575000 0.408722 0
7.580000 0.403795 0
7.585000 0.394322 0
7.590000 0.380542 0
7.595000 0.362807 0
7.600000 0.341568 0
7.605000 0.317355 0
7.610000 0.290752 0
7.615000 0.262379 0
7.620000 0.232862 0
7.625000 0.202814 0
7.630000 0.172813 0
7.635000 0.143387 0
7.640000 0.114994 0
7.645000 0.088022 0
7.650000 0.062776 0
7.655000 0.039480 0
7.660000 0.018280 0
7.665000 -0.000752 0
7.670000 -0.017609 0
7.675000 -0.032339 0
7.680000 -0.045036 0
7.685000 -0.055829 0
7.690000 -0.064870 0
7.695000 -0.072329 0
7.700000 -0.078379 0
7.705000 -0.083195 0
7.710000 -0.086946 0
7.715000 -0.089790 0
7.720000 -0.091872 0
7.725000 -0.093322 0
7.730000 -0.094255 0
7.735000 -0.094771 0
7.740000 -0.094954 0
7.745000 -0.094212 0
7.750000 -0.093318 0
7.755000 -0.092429 0
7.760000 -0.091544 0
7.765000 -0.090664 0
7.770000 -0.089787 0
7.775000 -0.088916 0
7.780000 -0.088048 0
7.785000 -0.087185 0
7.790000 -0.086326 0
7.795000 -0.085470 0
7.800000 -0.084617 0
7.805000 -0.083767 0
7.810000 -0.082915 0
7.815000 -0.082060 0
7.820000 -0.081194 0
7.825000 -0.080305 0
7.830000 -0.079375 0
7.835000 -0.078373 0
7.840000 -0.077253 0
7.845000 -0.075944 0
7.850000 -0.074346 0
7.855000 -0.072315 0
7.860000 -0.069662 0
7.865000 -0.066136 0
7.870000 -0.061432 0
7.875000 -0.055185 0
7.880000 -0.046994 0
7.885000 -0.036440 0
7.890000 -0.023134 0
7.895000 -0.006769 0
7.900000 0.012817 0
7.905000 0.035575 0
7.910000 0.061186 0
7.915000 0.089020 0
7.920000 0.118129 0
7.925000 0.147277 0
7.930000 0.175010 0
7.935000 0.199771 0
7.940000 0.220040 0
7.945000 0.234486 0
7.950000 0.242114 0
7.955000 0.242375 1
7.960000 0.235233 0
7.965000 0.221167 0
7.970000 0.201125 0
7.975000 0.176410 0
7.980000 0.148544 0
7.985000 0.119107 0
7.990000 0.089573 0
7.995000 0.061127 0
8.000000 0.034406 0
8.005000 0.009099 0
8.010000 -0.016570 0
8.015000 -0.046066 0
8.020000 -0.083576 0
8.025000 -0.131069 0
8.030000 -0.184029 0
8.035000 -0.228537 0
8.040000 -0.242476 2
8.045000 -0.200608 0
8.050000 -0.080802 0
8.055000 0.128843 0
8.060000 0.418677 0
8.065000 0.743851 0
8.070000 1.022971 0
8.075000 1.164659 3
8.080000 1.114928 0
8.085000 0.889126 0
8.090000 0.559736 0
8.095000 0.217267 0
8.100000 -0.068297 0
8.105000 -0.261570 0
8.110000 -0.356191 0
8.115000 -0.365493 4
8.120000 -0.315747 0
8.125000 -0.238560 0
8.130000 -0.161068 0
8.135000 -0.098634 0
8.140000 -0.054281 0
8.145000 -0.023552 0
8.150000 -0.000174 0
8.155000 0.020676 0
8.160000 0.041695 0
8.165000 0.064034 0
8.170000 0.088020 0
8.175000 0.113605 0
8.180000 0.140571 0
8.185000 0.168596 0
8.190000 0.197279 0
8.195000 0.226154 0
8.200000 0.254694 0
8.205000 0.282332 0
8.210000 0.308476 0
8.215000 0.332529 0
8.220000 0.353911 0
8.225000 0.372083 0
8.230000 0.386567 0
8.235000 0.396968 0
8.240000 0.402991 0
8.245000 0.404455 5
8.250000 0.401300 0
8.255000 0.393591 0
8.260000 0.381516 0
8.265000 0.365378 0
8.270000 0.345579 0
8.275000 0.322608 0
8.280000 0.297017 0
8.285000 0.269400 0
8.290000 0.240368 0
8.295000 0.210531 0
8.300000 0.180472 0
8.305000 0.150733 0
8.310000 0.121798 0
8.315000 0.094083 0
8.320000 0.067926 0
8.325000 0.043591 0
8.330000 0.021259 0
8.335000 0.001042 0
8.340000 -0.017020 0
8.345000 -0.032944 0
8.350000 -0.046797 0
8.355000 -0.058686 0
8.360000 -0.068747 0
8.365000 -0.077137 0
8.370000 -0.084024 0
8.375000 -0.089580 0
8.380000 -0.093973 0
8.385000 -0.097365 0
8.390000 -0.099908 0
8.395000 -0.101738 0
8.400000 -0.102979 0
8.405000 -0.103739 0
8.410000 -0.104111 0
8.415000 -0.104173 0
8.420000 -0.103375 0
8.425000 -0.102436 0
8.430000 -0.101501 0
8.435000 -0.100571 0
8.440000 -0.099645 0
8.445000 -0.098724 0
8.450000 -0.097808 0
8.455000 -0.096896 0
8.460000 -0.095989 0
8.465000 -0.095085 0
8.470000 -0.094186 0
8.475000 -0.093290 0
8.480000 -0.092395 0
8.485000 -0.091500 0
8.490000 -0.090601 0
8.495000 -0.089691 0
8.500000 -0.088757 0
8.505000 -0.087781 0
8.510000 -0.086733 0
8.515000 -0.085565 0
8.520000 -0.084209 0
8.525000 -0.082564 0
8.530000 -0.080491 0
8.535000 -0.077802 0
8.540000 -0.074255 0
8.545000 -0.069550 0
8.550000 -0.063334 0
8.555000 -0.055214 0
8.560000 -0.044782 0
8.565000 -0.031654 0
8.570000 -0.015520 0
8.575000 0.003792 0
8.580000 0.026256 0
8.585000 0.051590 0
8.590000 0.079216 0
8.595000 0.108245 0
8.600000 0.137505 0
8.605000 0.165598 0
8.610000 0.191011 0
8.615000 0.212238 0
8.620000 0.227933 0
8.625000 0.237050 0
8.630000 0.238953 1
8.635000 0.233497 0
8.640000 0.221039 0
8.645000 0.202404 0
8.650000 0.178791 0
8.655000 0.151649 0
8.660000 0.122524 0
8.665000 0.092904 0
8.670000 0.064053 0
8.675000 0.036793 0
8.680000 0.011169 0
8.685000 -0.014035 0
8.690000 -0.041675 0
8.695000 -0.075823 0
8.700000 -0.119652 0
8.705000 -0.171595 0
8.710000 -0.221680 0
8.715000 -0.250997 2
8.720000 -0.235355 0
8.725000 -0.151091 0
8.730000 0.018772 0
8.735000 0.275771 0
8.740000 0.592890 0
8.745000 0.905567 0
8.750000 1.123879 0
8.755000 1.171135 3
8.760000 1.026868 0
8.765000 0.738531 0
8.770000 0.392021 0
8.775000 0.070122 0
8.780000 -0.174387 0
8.785000 -0.321371 0
8.790000 -0.374535 4
8.795000 -0.353588 0
8.800000 -0.287872 0
8.805000 -0.207778 0
8.810000 -0.135559 0
8.815000 -0.080848 0
8.820000 -0.042808 0
8.825000 -0.015734 0
8.830000 0.006204 0
8.835000 0.026910 0
8.840000 0.048358 0
8.845000 0.071302 0
8.850000 0.095891 0
8.855000 0.122002 0
8.860000 0.149380 0
8.865000 0.177680 0
8.870000 0.206484 0
8.875000 0.235311 0
8.880000 0.263629 0
8.885000 0.290870 0
8.890000 0.316446 0
8.895000 0.339772 0
8.900000 0.360288 0
8.905000 0.377477 0
8.910000 0.390890 0
8.915000 0.400163 0
8.920000 0.405035 0
8.925000 0.405355 5
8.930000 0.401097 0
8.935000 0.392353 0
8.940000 0.379336 0
8.945000 0.362367 0
8.950000 0.341863 0
8.955000 0.318319 0
8.960000 0.292289 0
8.965000 0.264362 0
8.970000 0.235144 0
8.975000 0.205230 0
8.980000 0.175190 0
8.985000 0.145547 0
8.990000 0.116770 0
8.995000 0.089257 0
9.000000 0.063331 0
9.005000 0.039240 0
9.010000 0.017155 0
9.015000 -0.002823 0
9.020000 -0.020661 0
9.025000 -0.036382 0
9.030000 -0.050054 0
9.035000 -0.061788 0
9.040000 -0.071718 0
9.045000 -0.080000 0
9.050000 -0.086800 0
9.055000 -0.092287 0
9.060000 -0.096626 0
9.065000 -0.099979 0
9.070000 -0.102492 0
9.075000 -0.104300 0
9.080000 -0.105525 0
9.085000 -0.106273 0
9.090000 -0.106635 0
9.095000 -0.106689 0
9.100000 -0.105880 0
9.105000 -0.104928 0
9.110000 -0.103980 0
9.115000 -0.103038 0
9.120000 -0.102100 0
9.125000 -0.101167 0
9.130000 -0.100238 0
9.135000 -0.099314 0
9.140000 -0.098395 0
9.145000 -0.097479 0
9.150000 -0.096568 0
9.155000 -0.095660 0
9.160000 -0.094754 0
9.165000 -0.093849 0
9.170000 -0.092939 0
9.175000 -0.092020 0
9.180000 -0.091080 0
9.185000 -0.090101 0
9.190000 -0.089056 0
9.195000 -0.087903 0
9.200000 -0.086576 0
9.205000 -0.084984 0
9.210000 -0.082998 0
9.215000 -0.080441 0
9.220000 -0.077087 0
9.225000 -0.072654 0
9.230000 -0.066803 0
9.235000 -0.059155 0
9.240000 -0.049309 0
9.245000 -0.036876 0
9.250000 -0.021529 0
9.255000 -0.003058 0
9.260000 0.018571 0
9.265000 0.043153 0
9.270000 0.070202 0
9.275000 0.098931 0
9.280000 0.128262 0
9.285000 0.156879 0
9.290000 0.183314 0
9.295000 0.206065 0
9.300000 0.223742 0
9.305000 0.235199 0
9.310000 0.239664 1
9.315000 0.236820 0
9.320000 0.226842 0
9.325000 0.210385 0
9.330000 0.188504 0
9.335000 0.162549 0
9.340000 0.134025 0
9.345000 0.104437 0
9.350000 0.075141 0
9.355000 0.047158 0
9.360000 0.020905 0
9.365000 -0.004224 0
9.370000 -0.030320 0
9.375000 -0.061007 0
9.380000 -0.100200 0
9.385000 -0.149025 0
9.390000 -0.201836 0
9.395000 -0.243966 0
9.400000 -0.253433 2
9.405000 -0.205939 0
9.410000 -0.080667 0
9.415000 0.132965 0
9.420000 0.424492 0
9.425000 0.749772 0
9.430000 1.030130 0
9.435000 1.177219 3
9.440000 1.136636 0
9.445000 0.919055 0
9.450000 0.593470 0
9.455000 0.249080 0
9.460000 -0.043042 0
9.465000 -0.245398 0
9.470000 -0.349573 0
9.475000 -0.367070 4
9.480000 -0.322643 0
9.485000 -0.247232 0
9.490000 -0.168580 0
9.495000 -0.103543 0
9.500000 -0.056613 0
9.505000 -0.024132 0
9.510000 0.000077 0
9.515000 0.021102 0
9.520000 0.041943 0
9.525000 0.063955 0
9.530000 0.087574 0
9.535000 0.112805 0
9.540000 0.139461 0
9.545000 0.167247 0
9.550000 0.195784 0
9.555000 0.224630 0
9.560000 0.253281 0
9.565000 0.281188 0
9.570000 0.307774 0
9.575000 0.332453 0
9.580000 0.354647 0
9.585000 0.373813 0
9.590000 0.389461 0
9.595000 0.401176 0
9.600000 0.408634 0
9.605000 0.411621 5
9.610000 0.410035 0
9.615000 0.403900 0
9.620000 0.393357 0
9.625000 0.378663 0
9.630000 0.360179 0
9.635000 0.338357 0
9.640000 0.313715 0
9.645000 0.286824 0
9.650000 0.258281 0
9.655000 0.228687 0
9.660000 0.198630 0
9.665000 0.168661 0
9.670000 0.139283 0
9.675000 0.110935 0
9.680000 0.083986 0
9.685000 0.058729 0
9.690000 0.035382 0
9.695000 0.014086 0
9.700000 -0.005086 0
9.705000 -0.022121 0
9.710000 -0.037063 0
9.715000 -0.049997 0
9.720000 -0.061043 0
9.725000 -0.070346 0
9.730000 -0.078065 0
9.735000 -0.084367 0
9.740000 -0.089422 0
9.745000 -0.093393 0
9.750000 -0.096434 0
9.755000 -0.098689 0
9.760000 -0.100287 0
9.765000 -0.101345 0
9.770000 -0.101961 0
9.775000 -0.102222 0
9.780000 -0.102069 0
9.785000 -0.101136 0
9.790000 -0.100208 0
9.795000 -0.099284 0
9.800000 -0.098365 0
9.805000 -0.097451 0
9.810000 -0.096541 0
9.815000 -0.095635 0
9.820000 -0.094734 0
9.825000 -0.093837 0
9.830000 -0.092945 0
9.835000 -0.092056 0
9.840000 -0.091169 0
9.845000 -0.090285 0
9.850000 -0.089399 0
9.855000 -0.088507 0
9.860000 -0.087603 0
9.865000 -0.086672 0
9.870000 -0.085694 0
9.875000 -0.084637 0
9.880000 -0.083452 0
9.885000 -0.082066 0
9.890000 -0.080373 0
9.895000 -0.078232 0
9.900000 -0.075448 0
9.905000 -0.071778 0
9.910000 -0.066920 0
9.915000 -0.060519 0
9.920000 -0.052188 0
9.925000 -0.041526 0
9.930000 -0.028159 0
9.935000 -0.011795 0
9.940000 0.007725 0
9.945000 0.030359 0
9.950000 0.055813 0
9.955000 0.083503 0
9.960000 0.112545 0
9.965000 0.141776 0
9.970000 0.169822 0
9.975000 0.195191 0
9.980000 0.216408 0
9.985000 0.232148 0
9.990000 0.241379 0
9.995000 0.243470 1
10.000000 0.238263 0
10.005000 0.226090 0
10.010000 0.207745 0
10.015000 0.184387 0
10.020000 0.157430 0
10.025000 0.128391 0
10.030000 0.098742 0
10.035000 0.069753 0
10.040000 0.042289 0
10.045000 0.016496 0
10.050000 -0.008648 0
10.055000 -0.035743 0
10.060000 -0.068712 0
10.065000 -0.111009 0
10.070000 -0.162080 0
10.075000 -0.213609 0
10.080000 -0.248351 2
10.085000 -0.243060 0
10.090000 -0.173935 0
10.095000 -0.022454 0
10.100000 0.216976 0
10.105000 0.524964 0
10.110000 0.846238 0
10.115000 1.095575 0
10.120000 1.190144 3
10.125000 1.092353 0
10.130000 0.832850 0
10.135000 0.492198 0
10.140000 0.158043 0
10.145000 -0.108040 0
10.150000 -0.278530 0
10.155000 -0.352320 4
10.160000 -0.346063 0
10.165000 -0.287748 0
10.170000 -0.208607 0
10.175000 -0.133496 0
10.180000 -0.074911 0
10.185000 -0.033841 0
10.190000 -0.005099 0
10.195000 0.017417 0
10.200000 0.038082 0
10.205000 0.059222 0
10.210000 0.081781 0
10.215000 0.105989 0
10.220000 0.131762 0
10.225000 0.158862 0
10.230000 0.186955 0
10.235000 0.215633 0
10.240000 0.244422 0
10.245000 0.272794 0
10.250000 0.300181 0
10.255000 0.325992 0
10.260000 0.349638 0
10.265000 0.370548 0
10.270000 0.388193 0
10.275000 0.402109 0
10.280000 0.411917 0
10.285000 0.417338 0
10.290000 0.418204 5
10.295000 0.414472 0
10.300000 0.406219 0
10.305000 0.393645 0
10.310000 0.377061 0
10.315000 0.356875 0
10.320000 0.333579 0
10.325000 0.307724 0
10.330000 0.279903 0
10.335000 0.250724 0
10.340000 0.220788 0
10.345000 0.190673 0
10.350000 0.160912 0
10.355000 0.131981 0
10.360000 0.104287 0
10.365000 0.078164 0
10.370000 0.053865 0
10.375000 0.031571 0
10.380000 0.011385 0
10.385000 -0.006652 0
10.390000 -0.022561 0
10.395000 -0.036410 0
10.400000 -0.048306 0
10.405000 -0.058384 0
10.410000 -0.066800 0
10.415000 -0.073722 0
10.420000 -0.079318 0
10.425000 -0.083758 0
10.430000 -0.087201 0
10.435000 -0.089797 0
10.440000 -0.091683 0
10.445000 -0.092981 0
10.450000 -0.093798 0
10.455000 -0.094226 0
10.460000 -0.094344 0
10.465000 -0.093596 0
10.470000 -0.092706 0
10.475000 -0.091819 0
10.480000 -0.090938 0
10.485000 -0.090060 0
10.490000 -0.089187 0
10.495000 -0.088318 0
10.500000 -0.087454 0
10.505000 -0.086593 0
10.510000 -0.085737 0
10.515000 -0.084884 0
10.520000 -0.084034 0
10.525000 -0.083186 0
10.530000 -0.082338 0
10.535000 -0.081485 0
10.540000 -0.080622 0
10.545000 -0.079737 0
10.550000 -0.078812 0
10.555000 -0.077818 0
10.560000 -0.076711 0
10.565000 -0.075424 0
10.570000 -0.073863 0
10.575000 -0.071894 0
10.580000 -0.069337 0
10.585000 -0.065958 0
10.590000 -0.061467 0
10.595000 -0.055521 0
10.600000 -0.047734 0
10.605000 -0.037700 0
10.610000 -0.025033 0
10.615000 -0.009412 0
10.620000 0.009359 0
10.625000 0.031289 0
10.630000 0.056142 0
10.635000 0.083394 0
10.640000 0.112214 0
10.645000 0.141484 0
10.650000 0.169851 0
10.655000 0.195825 0
10.660000 0.217901 0
10.665000 0.234703 0
10.670000 0.245126 0
10.675000 0.248453 1
10.680000 0.244439 0
10.685000 0.233339 0
10.690000 0.215879 0
10.695000 0.193181 0
10.700000 0.166640 0
10.705000 0.137782 0
10.710000 0.108110 0
10.715000 0.078944 0
10.720000 0.051227 0
10.725000 0.025224 0
10.730000 0.000077 0
10.735000 -0.026639 0
10.740000 -0.058786 0
10.745000 -0.100047 0
10.750000 -0.150486 0
10.755000 -0.202614 0
10.760000 -0.239826 2
10.765000 -0.239000 0
10.770000 -0.175929 0
10.775000 -0.031245 0
10.780000 0.202071 0
10.785000 0.506708 0
10.790000 0.829405 0
10.795000 1.085353 0
10.800000 1.189604 3
10.805000 1.100495 0
10.810000 0.845874 0
10.815000 0.506344 0
10.820000 0.171279 0
10.825000 -0.096014 0
10.830000 -0.267113 0
10.835000 -0.340749 4
10.840000 -0.333863 0
10.845000 -0.274959 0
10.850000 -0.195722 0
10.855000 -0.121110 0
10.860000 -0.063366 0
10.865000 -0.023114 0
10.870000 0.005063 0
10.875000 0.027305 0
10.880000 0.047907 0
10.885000 0.069102 0
10.890000 0.091768 0
10.895000 0.116101 0
10.900000 0.141992 0
10.905000 0.169188 0
10.910000 0.197342 0
10.915000 0.226030 0
10.920000 0.254762 0
10.925000 0.282994 0
10.930000 0.310145 0
10.935000 0.335614 0
10.940000 0.358803 0
10.945000 0.379138 0
10.950000 0.396091 0
10.955000 0.409206 0
10.960000 0.418116 0
10.965000 0.422559 5
10.970000 0.422391 0
10.975000 0.417594 0
10.980000 0.408277 0
10.985000 0.394669 0
10.990000 0.377111 0
10.995000 0.356042 0
11.000000 0.331979 0
11.005000 0.305495 0
11.010000 0.277199 0
11.015000 0.247709 0
11.020000 0.217631 0
11.025000 0.187541 0
11.030000 0.157962 0
11.035000 0.129359 0
11.040000 0.102121 0
11.045000 0.076560 0
11.050000 0.052908 0
11.055000 0.031321 0
11.060000 0.011881 0
11.065000 -0.005396 0
11.070000 -0.020548 0
11.075000 -0.033661 0
11.080000 -0.044856 0
11.085000 -0.054281 0
11.090000 -0.062098 0
11.095000 -0.068480 0
11.100000 -0.073599 0
11.105000 -0.077623 0
11.110000 -0.080710 0
11.115000 -0.083007 0
11.120000 -0.084647 0
11.125000 -0.085745 0
11.130000 -0.086404 0
11.135000 -0.086711 0
11.140000 -0.086611 0
11.145000 -0.085755 0
11.150000 -0.084903 0
11.155000 -0.084056 0
11.160000 -0.083213 0
11.165000 -0.082374 0
11.170000 -0.081539 0
11.175000 -0.080708 0
11.180000 -0.079882 0
11.185000 -0.079059 0
11.190000 -0.078240 0
11.195000 -0.077424 0
11.200000 -0.076610 0
11.205000 -0.075797 0
11.210000 -0.074981 0
11.215000 -0.074157 0
11.220000 -0.073315 0
11.225000 -0.072441 0
11.230000 -0.071510 0
11.235000 -0.070482 0
11.240000 -0.069300 0
11.245000 -0.067878 0
11.250000 -0.066093 0
11.255000 -0.063779 0
11.260000 -0.060718 0
11.265000 -0.056633 0
11.270000 -0.051190 0
11.275000 -0.044007 0
11.280000 -0.034676 0
11.285000 -0.022794 0
11.290000 -0.008011 0
11.295000 0.009912 0
11.300000 0.031039 0
11.305000 0.055197 0
11.310000 0.081927 0
11.315000 0.110457 0
11.320000 0.139714 0
11.325000 0.168367 0
11.330000 0.194923 0
11.335000 0.217843 0
11.340000 0.235694 0
11.345000 0.247290 0
11.350000 0.251827 1
11.355000 0.248971 0
11.360000 0.238898 0
11.365000 0.222279 0
11.370000 0.200201 0
11.375000 0.174052 0
11.380000 0.145372 0
11.385000 0.115700 0
11.390000 0.086407 0
11.395000 0.058502 0
11.400000 0.032337 0
11.405000 0.007162 0
11.410000 -0.019354 0
11.415000 -0.051056 0
11.420000 -0.091782 0
11.425000 -0.141905 0
11.430000 -0.194247 0
11.435000 -0.232286 0
11.440000 -0.232670 2
11.445000 -0.170769 0
11.450000 -0.026783 0
11.455000 0.206533 0
11.460000 0.511553 0
11.465000 0.833838 0
11.470000 1.086945 0
11.475000 1.185219 3
11.480000 1.088380 0
11.485000 0.827470 0
11.490000 0.485950 0
11.495000 0.153874 0
11.500000 -0.106729 0
11.505000 -0.269372 0
11.510000 -0.334610 4
11.515000 -0.321045 0
11.520000 -0.258434 0
11.525000 -0.178713 0
11.530000 -0.105905 0
11.535000 -0.050752 0
11.540000 -0.012686 0
11.545000 0.014181 0
11.550000 0.035899 0
11.555000 0.056468 0
11.560000 0.077868 0
11.565000 0.100825 0
11.570000 0.125459 0
11.575000 0.151624 0
11.580000 0.179039 0
11.585000 0.207335 0
11.590000 0.236061 0
11.595000 0.264708 0
11.600000 0.292710 0
11.605000 0.319470 0
11.610000 0.344374 0
11.615000 0.366818 0
11.620000 0.386228 0
11.625000 0.402086 0
11.630000 0.413952 0
11.635000 0.421483 0
11.640000 0.424449 5
11.645000 0.422745 0
11.650000 0.416395 0
11.655000 0.405549 0
11.660000 0.390484 0
11.665000 0.371583 0
11.670000 0.349323 0
11.675000 0.324255 0
11.680000 0.296979 0
11.685000 0.268119 0
11.690000 0.238304 0
11.695000 0.208138 0
11.700000 0.178188 0
11.705000 0.148963 0
11.710000 0.120903 0
11.715000 0.094368 0
11.720000 0.069642 0
11.725000 0.046923 0
11.730000 0.026333 0
11.735000 0.007924 0
11.740000 -0.008316 0
11.745000 -0.022451 0
11.750000 -0.034589 0
11.755000 -0.044866 0
11.760000 -0.053443 0
11.765000 -0.060491 0
11.770000 -0.066186 0
11.775000 -0.070702 0
11.780000 -0.074204 0
11.785000 -0.076847 0
11.790000 -0.078771 0
11.795000 -0.080104 0
11.800000 -0.080953 0
11.805000 -0.081414 0
11.810000 -0.081425 0
11.815000 -0.080595 0
11.820000 -0.079769 0
11.825000 -0.078947 0
11.830000 -0.078130 0
11.835000 -0.077316 0
11.840000 -0.076506 0
11.845000 -0.075701 0
11.850000 -0.074899 0
11.855000 -0.074101 0
11.860000 -0.073307 0
11.865000 -0.072516 0
11.870000 -0.071727 0
11.875000 -0.070940 0
11.880000 -0.070150 0
11.885000 -0.069354 0
11.890000 -0.068543 0
11.895000 -0.067703 0
11.900000 -0.066812 0
11.905000 -0.065833 0
11.910000 -0.064714 0
11.915000 -0.063371 0
11.920000 -0.061690 0
11.925000 -0.059510 0
11.930000 -0.056619 0
11.935000 -0.052746 0
11.940000 -0.047559 0
11.945000 -0.040677 0
11.950000 -0.031687 0
11.955000 -0.020175 0
11.960000 -0.005774 0
11.965000 0.011774 0
11.970000 0.032559 0
11.975000 0.056430 0
11.980000 0.082951 0
11.985000 0.111362 0
11.990000 0.140594 0
11.995000 0.169308 0
12.000000 0.195992 0
12.005000 0.219078 0
12.010000 0.237101 0
12.015000 0.248845 0
12.020000 0.253480 1
12.025000 0.250659 0
12.030000 0.240558 0
12.035000 0.223860 0
12.040000 0.201675 0
12.045000 0.175420 0
12.050000 0.146664 0
12.055000 0.116969 0
12.060000 0.087718 0
12.065000 0.059907 0
12.070000 0.033839 0
12.075000 0.008646 0
12.080000 -0.018186 0
12.085000 -0.050658 0
12.090000 -0.092504 0
12.095000 -0.143451 0
12.100000 -0.195101 0
12.105000 -0.229547 2
12.110000 -0.222505 0
12.115000 -0.149243 0
12.120000 0.009035 0
12.125000 0.256582 0
12.130000 0.569741 0
12.135000 0.886208 0
12.140000 1.114929 0
12.145000 1.174610 3
12.150000 1.038478 0
12.155000 0.752125 0
12.160000 0.405596 0
12.165000 0.085894 0
12.170000 -0.152627 0
12.175000 -0.290586 0
12.180000 -0.333708 4
12.185000 -0.304368 0
12.190000 -0.234294 0
12.195000 -0.154626 0
12.200000 -0.086265 0
12.205000 -0.036430 0
12.210000 -0.002347 0
12.215000 0.022409 0
12.220000 0.043450 0
12.225000 0.064138 0
12.230000 0.085994 0
12.235000 0.109502 0
12.240000 0.134671 0
12.245000 0.161298 0
12.250000 0.189066 0
12.255000 0.217570 0
12.260000 0.246331 0
12.265000 0.274808 0
12.270000 0.302415 0
12.275000 0.328538 0
12.280000 0.352554 0
12.285000 0.373861 0
12.290000 0.391896 0
12.295000 0.406163 0
12.300000 0.416254 0
12.305000 0.421867 0
12.310000 0.422823 5
12.315000 0.419071 0
12.320000 0.410691 0
12.325000 0.397895 0
12.330000 0.381013 0
12.335000 0.360481 0
12.340000 0.336820 0
12.345000 0.310615 0
12.350000 0.282488 0
12.355000 0.253079 0
12.360000 0.223015 0
12.365000 0.192892 0
12.370000 0.163256 0
12.375000 0.134589 0
12.380000 0.107295 0
12.385000 0.081699 0
12.390000 0.058042 0
12.395000 0.036481 0
12.400000 0.017102 0
12.405000 -0.000082 0
12.410000 -0.015114 0
12.415000 -0.028084 0
12.420000 -0.039120 0
12.425000 -0.048377 0
12.430000 -0.056023 0
12.435000 -0.062238 0
12.440000 -0.067197 0
12.445000 -0.071073 0
12.450000 -0.074028 0
12.455000 -0.076209 0
12.460000 -0.077749 0
12.465000 -0.078766 0
12.470000 -0.079361 0
12.475000 -0.079619 0
12.480000 -0.078954 0
12.485000 -0.078136 0
12.490000 -0.077322 0
12.495000 -0.076513 0
12.500000 -0.075707 0
12.505000 -0.074906 0
12.510000 -0.074108 0
12.515000 -0.073315 0
12.520000 -0.072525 0
12.525000 -0.071738 0
12.530000 -0.070955 0
12.535000 -0.070175 0
12.540000 -0.069396 0
12.545000 -0.068616 0
12.550000 -0.067830 0
12.555000 -0.067032 0
12.560000 -0.066208 0
12.565000 -0.065339 0
12.570000 -0.064390 0
12.575000 -0.063312 0
12.580000 -0.062027 0
12.585000 -0.060427 0
12.590000 -0.058356 0
12.595000 -0.055611 0
12.600000 -0.051925 0
12.605000 -0.046972 0
12.610000 -0.040374 0
12.615000 -0.031714 0
12.620000 -0.020569 0
12.625000 -0.006558 0
12.630000 0.010598 0
12.635000 0.031014 0
12.640000 0.054569 0
12.645000 0.080852 0
12.650000 0.109126 0
12.655000 0.138335 0
12.660000 0.167142 0
12.665000 0.194022 0
12.670000 0.217386 0
12.675000 0.235737 0
12.680000 0.247823 0
12.685000 0.252779 1
12.690000 0.250233 0
12.695000 0.240342 0
12.700000 0.223784 0
12.705000 0.201676 0
12.710000 0.175451 0
12.715000 0.146698 0
12.720000 0.117002 0
12.725000 0.087762 0
12.730000 0.059983 0
12.735000 0.033951 0
12.740000 0.008747 0
12.745000 -0.018236 0
12.750000 -0.051092 0
12.755000 -0.093505 0
12.760000 -0.144840 0
12.765000 -0.195984 0
12.770000 -0.228192 2
12.775000 -0.216594 0
12.780000 -0.136364 0
12.785000 0.030647 0
12.790000 0.286659 0
12.795000 0.603924 0
12.800000 0.915036 0
12.805000 1.126423 0
12.810000 1.160464 3
12.815000 1.000160 0
12.820000 0.699973 0
12.825000 0.352575 0
12.830000 0.041887 0
12.835000 -0.182788 0
12.840000 -0.306220 0
12.845000 -0.337008 4
12.850000 -0.299491 0
12.855000 -0.226127 0
12.860000 -0.147158 0
12.865000 -0.081492 0
12.870000 -0.034454 0
12.875000 -0.002275 0
12.880000 0.021584 0
12.885000 0.042418 0
12.890000 0.063253 0
12.895000 0.085392 0
12.900000 0.109210 0
12.905000 0.134670 0
12.910000 0.161543 0
12.915000 0.189494 0
12.920000 0.218103 0
12.925000 0.246877 0
12.930000 0.275264 0
12.935000 0.302669 0
12.940000 0.328470 0
12.945000 0.352046 0
12.950000 0.372797 0
12.955000 0.390168 0
12.960000 0.403677 0
12.965000 0.412934 0
12.970000 0.417659 0
12.975000 0.417695 5
12.980000 0.413019 0
12.985000 0.403738 0
12.990000 0.390091 0
12.995000 0.372432 0
13.000000 0.351217 0
13.005000 0.326987 0
13.010000 0.300337 0
13.015000 0.271900 0
13.020000 0.242315 0
13.025000 0.212209 0
13.030000 0.182170 0
13.035000 0.152733 0
13.040000 0.124365 0
13.045000 0.097454 0
13.050000 0.072307 0
13.055000 0.049146 0
13.060000 0.028113 0
13.065000 0.009274 0
13.070000 -0.007371 0
13.075000 -0.021877 0
13.080000 -0.034345 0
13.085000 -0.044912 0
13.090000 -0.053736 0
13.095000 -0.060992 0
13.100000 -0.066857 0
13.105000 -0.071509 0
13.110000 -0.075118 0
13.115000 -0.077843 0
13.120000 -0.079829 0
13.125000 -0.081205 0
13.130000 -0.082086 0
13.135000 -0.082567 0
13.140000 -0.082733 0
13.145000 -0.082040 0
13.150000 -0.081207 0
13.155000 -0.080378 0
13.160000 -0.079553 0
13.165000 -0.078733 0
13.170000 -0.077916 0
13.175000 -0.077104 0
13.180000 -0.076295 0
13.185000 -0.075490 0
13.190000 -0.074689 0
13.195000 -0.073891 0
13.200000 -0.073095 0
13.205000 -0.072300 0
13.210000 -0.071504 0
13.215000 -0.070700 0
13.220000 -0.069880 0
13.225000 -0.069029 0
13.230000 -0.068125 0
13.235000 -0.067127 0
13.240000 -0.065979 0
13.245000 -0.064594 0
13.250000 -0.062850 0
13.255000 -0.060576 0
13.260000 -0.057547 0
13.265000 -0.053478 0
13.270000 -0.048024 0
13.275000 -0.040788 0
13.280000 -0.031345 0
13.285000 -0.019282 0
13.290000 -0.004239 0
13.295000 0.014015 0
13.300000 0.035525 0
13.305000 0.060077 0
13.310000 0.087150 0
13.315000 0.115893 0
13.320000 0.145143 0
13.325000 0.173478 0
13.330000 0.199332 0
13.335000 0.221121 0
13.340000 0.237410 0
13.345000 0.247065 0
13.350000 0.249384 1
13.355000 0.244179 0
13.360000 0.231802 0
13.365000 0.213103 0
13.370000 0.189334 0
13.375000 0.162011 0
13.380000 0.132748 0
13.385000 0.103089 0
13.390000 0.074320 0
13.395000 0.047228 0
13.400000 0.021712 0
13.405000 -0.003748 0
13.410000 -0.032430 0
13.415000 -0.068630 0
13.420000 -0.114927 0
13.425000 -0.167807 0
13.430000 -0.214257 0
13.435000 -0.232421 2
13.440000 -0.196571 0
13.445000 -0.083573 0
13.450000 0.119871 0
13.455000 0.405845 0
13.460000 0.730864 0
13.465000 1.013267 0
13.470000 1.159437 3
13.475000 1.112800 0
13.480000 0.887029 0
13.485000 0.556805 0
13.490000 0.215327 0
13.495000 -0.066281 0
13.500000 -0.253138 0
13.505000 -0.340220 0
13.510000 -0.342588 4
13.515000 -0.288265 0
13.520000 -0.209833 0
13.525000 -0.134008 0
13.530000 -0.074654 0
13.535000 -0.033242 0
13.540000 -0.004479 0
13.545000 0.017976 0
13.550000 0.038633 0
13.555000 0.059845 0
13.560000 0.082538 0
13.565000 0.106919 0
13.570000 0.132876 0
13.575000 0.160150 0
13.580000 0.188383 0
13.585000 0.217136 0
13.590000 0.245905 0
13.595000 0.274132 0
13.600000 0.301217 0
13.605000 0.326545 0
13.610000 0.349503 0
13.615000 0.369508 0
13.620000 0.386027 0
13.625000 0.398604 0
13.630000 0.406876 0
13.635000 0.410595 5
13.640000 0.409635 0
13.645000 0.404000 0
13.650000 0.393826 0
13.655000 0.379373 0
13.660000 0.361013 0
13.665000 0.339217 0
13.670000 0.314530 0
13.675000 0.287551 0
13.680000 0.258908 0
13.685000 0.229232 0
13.690000 0.199138 0
13.695000 0.169201 0
13.700000 0.139940 0
13.705000 0.111805 0
13.710000 0.085169 0
13.715000 0.060322 0
13.720000 0.037474 0
13.725000 0.016755 0
13.730000 -0.001779 0
13.735000 -0.018134 0
13.740000 -0.032371 0
13.745000 -0.044595 0
13.750000 -0.054942 0
13.755000 -0.063572 0
13.760000 -0.070657 0
13.765000 -0.076374 0
13.770000 -0.080899 0
13.775000 -0.084398 0
13.780000 -0.087027 0
13.785000 -0.088931 0
13.790000 -0.090234 0
13.795000 -0.091050 0
13.800000 -0.091473 0
13.805000 -0.091440 0
13.810000 -0.090560 0
13.815000 -0.089685 0
13.820000 -0.088814 0
13.825000 -0.087947 0
13.830000 -0.087084 0
13.835000 -0.086226 0
13.840000 -0.085372 0
13.845000 -0.084522 0
13.850000 -0.083676 0
13.855000 -0.082834 0
13.860000 -0.081996 0
13.865000 -0.081160 0
13.870000 -0.080325 0
13.875000 -0.079488 0
13.880000 -0.078645 0
13.885000 -0.077787 0
13.890000 -0.076900 0
13.895000 -0.075961 0
13.900000 -0.074933 0
13.905000 -0.073761 0
13.910000 -0.072362 0
13.915000 -0.070618 0
13.920000 -0.068365 0
13.925000 -0.065386 0
13.930000 -0.061406 0
13.935000 -0.056088 0
13.940000 -0.049046 0
13.945000 -0.039862 0
13.950000 -0.028121 0
13.955000 -0.013460 0
13.960000 0.004373 0
13.965000 0.025450 0
13.970000 0.049602 0
13.975000 0.076361 0
13.980000 0.104936 0
13.985000 0.134225 0
13.990000 0.162859 0
13.995000 0.189303 0
14.000000 0.211984 0
14.005000 0.229445 0
14.010000 0.240495 0
14.015000 0.244350 1
14.020000 0.240716 0
14.025000 0.229832 0
14.030000 0.212442 0
14.035000 0.189709 0
14.040000 0.163086 0
14.045000 0.134162 0
14.050000 0.104495 0
14.055000 0.075438 0
14.060000 0.047920 0
14.065000 0.022108 0
14.070000 -0.003088 0
14.075000 -0.030461 0
14.080000 -0.064165 0
14.085000 -0.107612 0
14.090000 -0.159465 0
14.095000 -0.209686 0
14.100000 -0.238845 2
14.105000 -0.221971 0
14.110000 -0.134729 0
14.115000 0.039969 0
14.120000 0.302434 0
14.125000 0.622153 0
14.130000 0.929331 0
14.135000 1.130503 0
14.140000 1.151516 3
14.145000 0.982022 0
14.150000 0.678615 0
14.155000 0.331168 0
14.160000 0.020231 0
14.165000 -0.206581 0
14.170000 -0.334021 0
14.175000 -0.369633 4
14.180000 -0.336168 0
14.185000 -0.264650 0
14.190000 -0.184914 0
14.195000 -0.116717 0
14.200000 -0.066783 0
14.205000 -0.032383 0
14.210000 -0.007297 0
14.215000 0.013964 0
14.220000 0.034752 0
14.225000 0.056624 0
14.230000 0.080102 0
14.235000 0.105222 0
14.240000 0.131806 0
14.245000 0.159557 0
14.250000 0.188096 0
14.255000 0.216970 0
14.260000 0.245668 0
14.265000 0.273628 0
14.270000 0.300262 0
14.275000 0.324967 0
14.280000 0.347153 0
14.285000 0.366264 0
14.290000 0.381802 0
14.295000 0.393343 0
14.300000 0.400563 0
14.305000 0.403248 5
14.310000 0.401305 0
14.315000 0.394766 0
14.320000 0.383789 0
14.325000 0.368649 0
14.330000 0.349729 0
14.335000 0.327499 0
14.340000 0.302499 0
14.345000 0.275320 0
14.350000 0.246575 0
14.355000 0.216878 0
14.360000 0.186824 0
14.365000 0.156969 0
14.370000 0.127814 0
14.375000 0.099794 0
14.380000 0.073268 0
14.385000 0.048516 0
14.390000 0.025740 0
14.395000 0.005065 0
14.400000 -0.013452 0
14.405000 -0.029816 0
14.410000 -0.044087 0
14.415000 -0.056364 0
14.420000 -0.066779 0
14.425000 -0.075486 0
14.430000 -0.082652 0
14.435000 -0.088450 0
14.440000 -0.093051 0
14.445000 -0.096618 0
14.450000 -0.099306 0
14.455000 -0.101257 0
14.460000 -0.102595 0
14.465000 -0.103433 0
14.470000 -0.103867 0
14.475000 -0.103978 0
14.480000 -0.103187 0
14.485000 -0.102249 0
14.490000 -0.101315 0
14.495000 -0.100386 0
14.500000 -0.099461 0
14.505000 -0.098541 0
14.510000 -0.097626 0
14.515000 -0.096715 0
14.520000 -0.095808 0
14.525000 -0.094906 0
14.530000 -0.094007 0
14.535000 -0.093112 0
14.540000 -0.092219 0
14.545000 -0.091326 0
14.550000 -0.090429 0
14.555000 -0.089522 0
14.560000 -0.088593 0
14.565000 -0.087625 0
14.570000 -0.086588 0
14.575000 -0.085439 0
14.580000 -0.084109 0
14.585000 -0.082502 0
14.590000 -0.080483 0
14.595000 -0.077868 0
14.600000 -0.074420 0
14.605000 -0.069842 0
14.610000 -0.063785 0
14.615000 -0.055856 0
14.620000 -0.045644 0
14.625000 -0.032760 0
14.630000 -0.016883 0
14.635000 0.002173 0
14.640000 0.024401 0
14.645000 0.049539 0
14.650000 0.077028 0
14.655000 0.105996 0
14.660000 0.135283 0
14.665000 0.163496 0
14.670000 0.189114 0
14.675000 0.210623 0
14.680000 0.226653 0
14.685000 0.236133 0
14.690000 0.238400 1
14.695000 0.233283 0
14.700000 0.221118 0
14.705000 0.202715 0
14.710000 0.179268 0
14.715000 0.152226 0
14.720000 0.123143 0
14.725000 0.093519 0
14.730000 0.064636 0
14.735000 0.037334 0
14.740000 0.011682 0
14.745000 -0.013510 0
14.750000 -0.041084 0
14.755000 -0.075126 0
14.760000 -0.118858 0
14.765000 -0.170766 0
14.770000 -0.220893 0
14.775000 -0.250256 2
14.780000 -0.234539 0
14.785000 -0.149952 0
14.790000 0.020529 0
14.795000 0.278292 0
14.800000 0.595820 0
14.805000 0.907747 0
14.810000 1.123535 0
14.815000 1.166770 3
14.820000 1.019638 0
14.825000 0.730098 0
14.830000 0.383499 0
14.835000 0.061739 0
14.840000 -0.182971 0
14.845000 -0.330623 0
14.850000 -0.384761 4
14.855000 -0.364761 0
14.860000 -0.299608 0
14.865000 -0.219497 0
14.870000 -0.146777 0
14.875000 -0.091369 0
14.880000 -0.052715 0
14.885000 -0.025244 0
14.890000 -0.003122 0
14.895000 0.017625 0
14.900000 0.039040 0
14.905000 0.061920 0
14.910000 0.086437 0
14.915000 0.112482 0
14.920000 0.139811 0
14.925000 0.168086 0
14.930000 0.196900 0
14.935000 0.225781 0
14.940000 0.254207 0
14.945000 0.281616 0
14.950000 0.307428 0
14.955000 0.331063 0
14.960000 0.351962 0
14.965000 0.369605 0
14.970000 0.383541 0
14.975000 0.393396 0
14.980000 0.398897 0
14.985000 0.399882 5
14.990000 0.396307 0
14.995000 0.388245 0
15.000000 0.375892 0
15.005000 0.359549 0
15.010000 0.339615 0
15.015000 0.316570 0
15.020000 0.290956 0
15.025000 0.263350 0
15.030000 0.234351 0
15.035000 0.204554 0
15.040000 0.174527 0
15.045000 0.144801 0
15.050000 0.115850 0
15.055000 0.088082 0
15.060000 0.061835 0
15.065000 0.037369 0
15.070000 0.014869 0
15.075000 -0.005550 0
15.080000 -0.023840 0
15.085000 -0.040013 0
15.090000 -0.054128 0
15.095000 -0.066283 0
15.100000 -0.076608 0
15.105000 -0.085253 0
15.110000 -0.092381 0
15.115000 -0.098158 0
15.120000 -0.102750 0
15.125000 -0.106319 0
15.130000 -0.109012 0
15.135000 -0.110969 0
15.140000 -0.112313 0
15.145000 -0.113154 0
15.150000 -0.113585 0
15.155000 -0.113689 0
15.160000 -0.112857 0
15.165000 -0.111870 0
15.170000 -0.110888 0
15.175000 -0.109911 0
15.180000 -0.108939 0
15.185000 -0.107972 0
15.190000 -0.107009 0
15.195000 -0.106051 0
15.200000 -0.105098 0
15.205000 -0.104150 0
15.210000 -0.103206 0
15.215000 -0.102265 0
15.220000 -0.101327 0
15.225000 -0.100391 0
15.230000 -0.099452 0
15.235000 -0.098507 0
15.240000 -0.097545 0
15.245000 -0.096554 0
15.250000 -0.095509 0
15.255000 -0.094374 0
15.260000 -0.093096 0
15.265000 -0.091594 0
15.270000 -0.089757 0
15.275000 -0.087429 0
15.280000 -0.084409 0
15.285000 -0.080439 0
15.290000 -0.075207 0
15.295000 -0.068352 0
15.300000 -0.059483 0
15.305000 -0.048204 0
15.310000 -0.034159 0
15.315000 -0.017078 0
15.320000 0.003155 0
15.325000 0.026452 0
15.330000 0.052464 0
15.335000 0.080549 0
15.340000 0.109771 0
15.345000 0.138928 0
15.350000 0.166624 0
15.355000 0.191372 0
15.360000 0.211723 0
15.365000 0.226406 0
15.370000 0.234459 0
15.375000 0.235335 1
15.380000 0.228960 0
15.385000 0.215747 0
15.390000 0.196548 0
15.395000 0.172565 0
15.400000 0.145228 0
15.405000 0.116046 0
15.410000 0.086461 0
15.415000 0.057690 0
15.420000 0.030511 0
15.425000 0.004939 0
15.430000 -0.020236 0
15.435000 -0.047807 0
15.440000 -0.081751 0
15.445000 -0.125223 0
15.450000 -0.176916 0
15.455000 -0.227517 0
15.460000 -0.259004 2
15.465000 -0.247948 0
15.470000 -0.170994 0
15.475000 -0.010657 0
15.480000 0.236757 0
15.485000 0.548922 0
15.490000 0.867570 0
15.495000 1.106616 0
15.500000 1.186056 3
15.505000 1.075257 0
15.510000 0.809074 0
15.515000 0.467131 0
15.520000 0.133894 0
15.525000 -0.131704 0
15.530000 -0.303210 0
15.535000 -0.379356 4
15.540000 -0.375899 0
15.545000 -0.319630 0
15.550000 -0.240902 0
15.555000 -0.164550 0
15.560000 -0.103836 0
15.565000 -0.060692 0
15.570000 -0.030503 0
15.575000 -0.007255 0
15.580000 0.013615 0
15.585000 0.034663 0
15.590000 0.056995 0
15.595000 0.080935 0
15.600000 0.106449 0
15.605000 0.133334 0
15.610000 0.161287 0
15.615000 0.189931 0
15.620000 0.218826 0
15.625000 0.247473 0
15.630000 0.275335 0
15.635000 0.301844 0
15.640000 0.326428 0
15.645000 0.348525 0
15.650000 0.367604 0
15.655000 0.383191 0
15.660000 0.394881 0
15.665000 0.402360 0
15.670000 0.405418 5
15.675000 0.403957 0
15.680000 0.397995 0
15.685000 0.387669 0
15.690000 0.373225 0
15.695000 0.355012 0
15.700000 0.333464 0
15.705000 0.309085 0
15.710000 0.282429 0
15.715000 0.254077 0
15.720000 0.224619 0
15.725000 0.194631 0
15.730000 0.164658 0
15.735000 0.135198 0
15.740000 0.106693 0
15.745000 0.079513 0
15.750000 0.053960 0
15.755000 0.030258 0
15.760000 0.008563 0
15.765000 -0.011042 0
15.770000 -0.028532 0
15.775000 -0.043937 0
15.780000 -0.057331 0
15.785000 -0.068825 0
15.790000 -0.078552 0
15.795000 -0.086667 0
15.800000 -0.093332 0
15.805000 -0.098711 0
15.810000 -0.102967 0
15.815000 -0.106254 0
15.820000 -0.108717 0
15.825000 -0.110486 0
15.830000 -0.111680 0
15.835000 -0.112403 0
15.840000 -0.112743 0
15.845000 -0.112777 0
15.850000 -0.111938 0
15.855000 -0.110956 0
15.860000 -0.109979 0
15.865000 -0.109006 0
15.870000 -0.108039 0
15.875000 -0.107076 0
15.880000 -0.106118 0
15.885000 -0.105165 0
15.890000 -0.104216 0
15.895000 -0.103272 0
15.900000 -0.102332 0
15.905000 -0.101395 0
15.910000 -0.100462 0
15.915000 -0.099529 0
15.920000 -0.098593 0
15.925000 -0.097650 0
15.930000 -0.096689 0
15.935000 -0.095696 0
15.940000 -0.094647 0
15.945000 -0.093504 0
15.950000 -0.092212 0
15.955000 -0.090689 0
15.960000 -0.088823 0
15.965000 -0.086456 0
15.970000 -0.083387 0
15.975000 -0.079358 0
15.980000 -0.074060 0
15.985000 -0.067134 0
15.990000 -0.058196 0
15.995000 -0.046856 0
16.000000 -0.032764 0
16.005000 -0.015660 0
16.010000 0.004573 0
16.015000 0.027845 0
16.020000 0.053814 0
16.025000 0.081854 0
16.030000 0.111048 0
16.035000 0.140221 0
16.040000 0.168004 0
16.045000 0.192933 0
16.050000 0.213578 0
16.055000 0.228672 0
16.060000 0.237245 0
16.065000 0.238724 1
16.070000 0.232995 0
16.075000 0.220421 0
16.080000 0.201803 0
16.085000 0.178292 0
16.090000 0.151276 0
16.095000 0.122239 0
16.100000 0.092619 0
16.105000 0.063656 0
16.110000 0.036196 0
16.115000 0.010399 0
16.120000 -0.014695 0
16.125000 -0.041564 0
16.130000 -0.074009 0
16.135000 -0.115528 0
16.140000 -0.166015 0
16.145000 -0.218088 0
16.150000 -0.255661 0
16.155000 -0.256399 2
16.160000 -0.196797 0
16.165000 -0.057718 0
16.170000 0.168744 0
16.175000 0.468281 0
16.180000 0.792899 0
16.185000 1.062801 0
16.190000 1.193156 3
16.195000 1.135126 0
16.200000 0.904967 0
16.205000 0.574515 0
16.210000 0.231938 0
16.215000 -0.054651 0
16.220000 -0.250453 0
16.225000 -0.348731 0
16.230000 -0.361884 4
16.235000 -0.315021 0
16.240000 -0.238887 0
16.245000 -0.160593 0
16.250000 -0.096283 0
16.255000 -0.049978 0
16.260000 -0.017870 0
16.265000 0.006172 0
16.270000 0.027140 0
16.275000 0.047964 0
16.280000 0.069965 0
16.285000 0.093567 0
16.290000 0.118774 0
16.295000 0.145398 0
16.300000 0.173147 0
16.305000 0.201648 0
16.310000 0.230462 0
16.315000 0.259089 0
16.320000 0.286989 0
16.325000 0.313590 0
16.330000 0.338309 0
16.335000 0.360575 0
16.340000 0.379848 0
16.345000 0.395638 0
16.350000 0.407532 0
16.355000 0.415204 0
16.360000 0.418433 5
16.365000 0.417114 0
16.370000 0.411261 0
16.375000 0.401006 0
16.380000 0.386597 0
16.385000 0.368383 0
16.390000 0.346804 0
16.395000 0.322370 0
16.400000 0.295642 0
16.405000 0.267209 0
16.410000 0.237670 0
16.415000 0.207608 0
16.420000 0.177575 0
16.425000 0.148074 0
16.430000 0.119549 0
16.435000 0.092375 0
16.440000 0.066853 0
16.445000 0.043206 0
16.450000 0.021587 0
16.455000 0.002077 0
16.460000 -0.015305 0
16.465000 -0.030592 0
16.470000 -0.043865 0
16.475000 -0.055236 0
16.480000 -0.064846 0
16.485000 -0.072851 0
16.490000 -0.079415 0
16.495000 -0.084707 0
16.500000 -0.088890 0
16.505000 -0.092118 0
16.510000 -0.094537 0
16.515000 -0.096278 0
16.520000 -0.097458 0
16.525000 -0.098178 0
16.530000 -0.098528 0
16.535000 -0.098442 0
16.540000 -0.097527 0
16.545000 -0.096616 0
16.550000 -0.095711 0
16.555000 -0.094809 0
16.560000 -0.093913 0
16.565000 -0.093020 0
16.570000 -0.092132 0
16.575000 -0.091249 0
16.580000 -0.090369 0
16.585000 -0.089494 0
16.590000 -0.088623 0
16.595000 -0.087754 0
16.600000 -0.086887 0
16.605000 -0.086020 0
16.610000 -0.085149 0
16.615000 -0.084268 0
16.620000 -0.083364 0
16.625000 -0.082422 0
16.630000 -0.081412 0
16.635000 -0.080291 0
16.640000 -0.078996 0
16.645000 -0.077433 0
16.650000 -0.075474 0
16.655000 -0.072946 0
16.660000 -0.069622 0
16.665000 -0.065222 0
16.670000 -0.059414 0
16.675000 -0.051821 0
16.680000 -0.042046 0
16.685000 -0.029707 0
16.690000 -0.014476 0
16.695000 0.003859 0
16.700000 0.025334 0
16.705000 0.049759 0
16.710000 0.076665 0
16.715000 0.105289 0
16.720000 0.134580 0
16.725000 0.163247 0
16.730000 0.189846 0
16.735000 0.212891 0
16.740000 0.230992 0
16.745000 0.242993 0
16.750000 0.248093 1
16.755000 0.245934 0
16.760000 0.236642 0
16.765000 0.220815 0
16.770000 0.199460 0
16.775000 0.173884 0
16.780000 0.145563 0
16.785000 0.115995 0
16.790000 0.086550 0
16.795000 0.058297 0
16.800000 0.031755 0
16.805000 0.006513 0
16.810000 -0.019246 0
16.815000 -0.048899 0
16.820000 -0.086437 0
16.825000 -0.133741 0
16.830000 -0.186683 0
16.835000 -0.232411 0
16.840000 -0.250247 2
16.845000 -0.216158 0
16.850000 -0.108392 0
16.855000 0.086332 0
16.860000 0.363240 0
16.865000 0.686743 0
16.870000 0.985550 0
16.875000 1.170944 0
16.880000 1.177233 3
16.885000 0.996248 0
16.890000 0.686489 0
16.895000 0.339186 0
16.900000 0.033499 0
16.905000 -0.185409 0
16.910000 -0.304443 0
16.915000 -0.332800 4
16.920000 -0.294491 0
16.925000 -0.221115 0
16.930000 -0.142064 0
16.935000 -0.075900 0
16.940000 -0.028122 0
16.945000 0.004700 0
16.950000 0.028911 0
16.955000 0.049810 0
16.960000 0.070513 0
16.965000 0.092418 0
16.970000 0.115960 0
16.975000 0.141138 0
16.980000 0.167750 0
16.985000 0.195484 0
16.990000 0.223947 0
16.995000 0.252672 0
17.000000 0.281135 0
17.005000 0.308765 0
17.010000 0.334963 0
17.015000 0.359123 0
17.020000 0.380656 0
17.025000 0.399007 0
17.030000 0.413688 0
17.035000 0.424288 0
17.040000 0.430501 0
17.045000 0.432133 5
17.050000 0.429115 0
17.055000 0.421506 0
17.060000 0.409489 0
17.065000 0.393366 0
17.070000 0.373542 0
17.075000 0.350508 0
17.080000 0.324824 0
17.085000 0.297090 0
17.090000 0.267926 0
17.095000 0.237950 0
17.100000 0.207754 0
17.105000 0.177887 0
17.110000 0.148837 0
17.115000 0.121024 0
17.120000 0.094790 0
17.125000 0.070399 0
17.130000 0.048032 0
17.135000 0.027797 0
17.140000 0.009733 0
17.145000 -0.006181 0
17.150000 -0.020017 0
17.155000 -0.031885 0
17.160000 -0.041926 0
17.165000 -0.050299 0
17.170000 -0.057176 0
17.175000 -0.062731 0
17.180000 -0.067134 0
17.185000 -0.070548 0
17.190000 -0.073124 0
17.195000 -0.075001 0
17.200000 -0.076300 0
17.205000 -0.077128 0
17.210000 -0.077579 0
17.215000 -0.077590 0
17.220000 -0.076779 0
17.225000 -0.075972 0
17.230000 -0.075169 0
17.235000 -0.074370 0
17.240000 -0.073575 0
17.245000 -0.072784 0
17.250000 -0.071997 0
17.255000 -0.071214 0
17.260000 -0.070435 0
17.265000 -0.069659 0
17.270000 -0.068886 0
17.275000 -0.068115 0
17.280000 -0.067346 0
17.285000 -0.066574 0
17.290000 -0.065796 0
17.295000 -0.065002 0
17.300000 -0.064181 0
17.305000 -0.063309 0
17.310000 -0.062351 0
17.315000 -0.061255 0
17.320000 -0.059941 0
17.325000 -0.058295 0
17.330000 -0.056163 0
17.335000 -0.053337 0
17.340000 -0.049551 0
17.345000 -0.044483 0
17.350000 -0.037758 0
17.355000 -0.028969 0
17.360000 -0.017706 0
17.365000 -0.003600 0
17.370000 0.013617 0
17.375000 0.034052 0
17.380000 0.057585 0
17.385000 0.083815 0
17.390000 0.112030 0
17.395000 0.141206 0
17.400000 0.170051 0
17.405000 0.197085 0
17.410000 0.220758 0
17.415000 0.239597 0
17.420000 0.252354 0
17.425000 0.258143 1
17.430000 0.256540 0
17.435000 0.247633 0
17.440000 0.232014 0
17.445000 0.210715 0
17.450000 0.185089 0
17.455000 0.156674 0
17.460000 0.127028 0
17.465000 0.097566 0
17.470000 0.069376 0
17.475000 0.042935 0
17.480000 0.017684 0
17.485000 -0.008471 0
17.490000 -0.039232 0
17.495000 -0.078625 0
17.500000 -0.127748 0
17.505000 -0.180575 0
17.510000 -0.221662 0
17.515000 -0.228121 2
17.520000 -0.175009 0
17.525000 -0.041478 0
17.530000 0.181794 0
17.535000 0.480692 0
17.540000 0.804860 0
17.545000 1.069782 0
17.550000 1.187022 3
17.555000 1.107830 0
17.560000 0.856888 0
17.565000 0.517578 0
17.570000 0.183510 0
17.575000 -0.079715 0
17.580000 -0.243769 0
17.585000 -0.308889 4
17.590000 -0.294279 0
17.595000 -0.230735 0
17.600000 -0.151040 0
17.605000 -0.079338 0
17.610000 -0.025820 0
17.615000 0.010770 0
17.620000 0.036690 0
17.625000 0.057991 0
17.630000 0.078504 0
17.635000 0.100034 0
17.640000 0.123196 0
17.645000 0.148051 0
17.650000 0.174415 0
17.655000 0.201978 0
17.660000 0.230338 0
17.665000 0.259016 0
17.670000 0.287470 0
17.675000 0.315105 0
17.680000 0.341298 0
17.685000 0.365416 0
17.690000 0.386844 0
17.695000 0.405004 0
17.700000 0.419390 0
17.705000 0.429580 0
17.710000 0.435263 0
17.715000 0.436252 5
17.720000 0.432491 0
17.725000 0.424062 0
17.730000 0.411179 0
17.735000 0.394178 0
17.740000 0.373503 0
17.745000 0.349686 0
17.750000 0.323324 0
17.755000 0.295052 0
17.760000 0.265518 0
17.765000 0.235361 0
17.770000 0.205183 0
17.775000 0.175537 0
17.780000 0.146906 0
17.785000 0.119694 0
17.790000 0.094224 0
17.795000 0.070729 0
17.800000 0.049364 0
17.805000 0.030204 0
17.810000 0.013255 0
17.815000 -0.001534 0
17.820000 -0.014262 0
17.825000 -0.025064 0
17.830000 -0.034100 0
17.835000 -0.041544 0
17.840000 -0.047577 0
17.845000 -0.052380 0
17.850000 -0.056125 0
17.855000 -0.058974 0
17.860000 -0.061074 0
17.865000 -0.062557 0
17.870000 -0.063538 0
17.875000 -0.064115 0
17.880000 -0.064374 0
17.885000 -0.063773 0
17.890000 -0.063031 0
17.895000 -0.062293 0
17.900000 -0.061558 0
17.905000 -0.060827 0
17.910000 -0.060100 0
17.915000 -0.059376 0
17.920000 -0.058656 0
17.925000 -0.057939 0
17.930000 -0.057225 0
17.935000 -0.056514 0
17.940000 -0.055805 0
17.945000 -0.055096 0
17.950000 -0.054384 0
17.955000 -0.053664 0
17.960000 -0.052927 0
17.965000 -0.052156 0
17.970000 -0.051326 0
17.975000 -0.050397 0
17.980000 -0.049307 0
17.985000 -0.047964 0
17.990000 -0.046238 0
17.995000 -0.043949 0
18.000000 -0.040860 0
18.005000 -0.036672 0
18.010000 -0.031027 0
18.015000 -0.023515 0
18.020000 -0.013706 0
18.025000 -0.001184 0
18.030000 0.014393 0
18.035000 0.033230 0
18.040000 0.055324 0
18.045000 0.080397 0
18.050000 0.107850 0
18.055000 0.136749 0
18.060000 0.165849 0
18.065000 0.193664 0
18.070000 0.218588 0
18.075000 0.239041 0
18.080000 0.253631 0
18.085000 0.261311 0
18.090000 0.261503 1
18.095000 0.254166 0
18.100000 0.239805 0
18.105000 0.219410 0
18.110000 0.194345 0
18.115000 0.166191 0
18.120000 0.136581 0
18.125000 0.107018 0
18.130000 0.078677 0
18.135000 0.052112 0
18.140000 0.026803 0
18.145000 0.000611 0
18.150000 -0.030312 0
18.155000 -0.070132 0
18.160000 -0.119773 0
18.165000 -0.172382 0
18.170000 -0.211088 0
18.175000 -0.211525 2
18.180000 -0.147868 0
18.185000 0.000419 0
18.190000 0.239926 0
18.195000 0.549554 0
18.200000 0.868215 0
18.205000 1.103088 0
18.210000 1.168868 3
18.215000 1.035501 0
18.220000 0.748967 0
18.225000 0.402308 0
18.230000 0.084970 0
18.235000 -0.148244 0
18.240000 -0.278943 0
18.245000 -0.314519 4
18.250000 -0.279312 0
18.255000 -0.206592 0
18.260000 -0.127690 0
18.265000 -0.062230 0
18.270000 -0.015649 0
18.275000 0.016032 0
18.280000 0.039545 0
18.285000 0.060230 0
18.290000 0.081062 0
18.295000 0.103280 0
18.300000 0.127215 0
18.305000 0.152798 0
18.310000 0.179778 0
18.315000 0.207794 0
18.320000 0.236402 0
18.325000 0.265082 0
18.330000 0.293255 0
18.335000 0.320299 0
18.340000 0.345573 0
18.345000 0.368437 0
18.350000 0.388282 0
18.355000 0.404555 0
18.360000 0.416783 0
18.365000 0.424595 0
18.370000 0.427740 5
18.375000 0.426103 0
18.380000 0.419704 0
18.385000 0.408704 0
18.390000 0.393394 0
18.395000 0.374182 0
18.400000 0.351577 0
18.405000 0.326162 0
18.410000 0.298572 0
18.415000 0.269463 0
18.420000 0.239493 0
18.425000 0.209289 0
18.430000 0.179435 0
18.435000 0.150446 0
18.440000 0.122762 0
18.445000 0.096738 0
18.450000 0.072642 0
18.455000 0.050654 0
18.460000 0.030874 0
18.465000 0.013329 0
18.470000 -0.002019 0
18.475000 -0.015258 0
18.480000 -0.026517 0
18.485000 -0.035952 0
18.490000 -0.043739 0
18.495000 -0.050060 0
18.500000 -0.055101 0
18.505000 -0.059037 0
18.510000 -0.062038 0
18.515000 -0.064254 0
18.520000 -0.065825 0
18.525000 -0.066869 0
18.530000 -0.067491 0
18.535000 -0.067778 0
18.540000 -0.067167 0
18.545000 -0.066408 0
18.550000 -0.065653 0
18.555000 -0.064901 0
18.560000 -0.064154 0
18.565000 -0.063410 0
18.570000 -0.062669 0
18.575000 -0.061933 0
18.580000 -0.061200 0
18.585000 -0.060470 0
18.590000 -0.059743 0
18.595000 -0.059018 0
18.600000 -0.058293 0
18.605000 -0.057565 0
18.610000 -0.056830 0
18.615000 -0.056077 0
18.620000 -0.055291 0
18.625000 -0.054446 0
18.630000 -0.053500 0
18.635000 -0.052391 0
18.640000 -0.051025 0
18.645000 -0.049268 0
18.650000 -0.046934 0
18.655000 -0.043782 0
18.660000 -0.039502 0
18.665000 -0.033727 0
18.670000 -0.026038 0
18.675000 -0.015996 0
18.680000 -0.003182 0
18.685000 0.012741 0
18.690000 0.031965 0
18.695000 0.054457 0
18.700000 0.079898 0
18.705000 0.107634 0
18.710000 0.136668 0
18.715000 0.165692 0
18.720000 0.193167 0
18.725000 0.217452 0
18.730000 0.236960 0
18.735000 0.250329 0
18.740000 0.256574 1
18.745000 0.255214 0
18.750000 0.246322 0
18.755000 0.230527 0
18.760000 0.208932 0
18.765000 0.182992 0
18.770000 0.154344 0
18.775000 0.124633 0
18.780000 0.095323 0
18.785000 0.067474 0
18.790000 0.041399 0
18.795000 0.016149 0
18.800000 -0.011000 0
18.805000 -0.044309 0
18.810000 -0.087460 0
18.815000 -0.139308 0
18.820000 -0.189550 0
18.825000 -0.217912 2
18.830000 -0.198325 0
18.835000 -0.105636 0
18.840000 0.077116 0
18.845000 0.347950 0
18.850000 0.670640 0
18.855000 0.967650 0
18.860000 1.141493 3
18.865000 1.125152 0
18.870000 0.921279 0
18.875000 0.599399 0
18.880000 0.254907 0
18.885000 -0.035537 0
18.890000 -0.232341 0
18.895000 -0.327832 0
18.900000 -0.335891 4
18.905000 -0.284366 0
18.910000 -0.206535 0
18.915000 -0.130243 0
18.920000 -0.070287 0
18.925000 -0.028534 0
18.930000 0.000322 0
18.935000 0.022761 0
18.940000 0.043394 0
18.945000 0.064610 0
18.950000 0.087334 0
18.955000 0.111765 0
18.960000 0.137781 0
18.965000 0.165111 0
18.970000 0.193383 0
18.975000 0.222145 0
18.980000 0.250876 0
18.985000 0.278999 0
18.990000 0.305902 0
18.995000 0.330953 0
19.000000 0.353531 0
19.005000 0.373043 0
19.010000 0.388955 0
19.015000 0.400817 0
19.020000 0.408275 0
19.025000 0.411097 5
19.030000 0.409181 0
19.035000 0.402558 0
19.040000 0.391393 0
19.045000 0.375980 0
19.050000 0.356724 0
19.055000 0.334126 0
19.060000 0.308759 0
19.065000 0.281246 0
19.070000 0.252231 0
19.075000 0.222357 0
19.080000 0.192241 0
19.085000 0.162454 0
19.090000 0.133506 0
19.095000 0.105830 0
19.100000 0.079781 0
19.105000 0.055624 0
19.110000 0.033543 0
19.115000 0.013643 0
19.120000 -0.004045 0
19.125000 -0.019550 0
19.130000 -0.032954 0
19.135000 -0.044379 0
19.140000 -0.053975 0
19.145000 -0.061912 0
19.150000 -0.068370 0
19.155000 -0.073528 0
19.160000 -0.077563 0
19.165000 -0.080640 0
19.170000 -0.082912 0
19.175000 -0.084518 0
19.180000 -0.085578 0
19.185000 -0.086197 0
19.190000 -0.086466 0
19.195000 -0.085773 0
19.200000 -0.084921 0
19.205000 -0.084074 0
19.210000 -0.083230 0
19.215000 -0.082391 0
19.220000 -0.081557 0
19.225000 -0.080726 0
19.230000 -0.079899 0
19.235000 -0.079077 0
19.240000 -0.078258 0
19.245000 -0.077442 0
19.250000 -0.076630 0
19.255000 -0.075818 0
19.260000 -0.075007 0
19.265000 -0.074190 0
19.270000 -0.073360 0
19.275000 -0.072506 0
19.280000 -0.071606 0
19.285000 -0.070628 0
19.290000 -0.069519 0
19.295000 -0.068203 0
19.300000 -0.066567 0
19.305000 -0.064456 0
19.310000 -0.061660 0
19.315000 -0.057909 0
19.320000 -0.052869 0
19.325000 -0.046155 0
19.330000 -0.037342 0
19.335000 -0.026003 0
19.340000 -0.011757 0
19.345000 0.005673 0
19.350000 0.026387 0
19.355000 0.050238 0
19.360000 0.076783 0
19.365000 0.105242 0
19.370000 0.134511 0
19.375000 0.163208 0
19.380000 0.189772 0
19.385000 0.212593 0
19.390000 0.230176 0
19.395000 0.241299 0
19.400000 0.245153 1
19.405000 0.241440 0
19.410000 0.230407 0
19.415000 0.212823 0
19.420000 0.189889 0
19.425000 0.163096 0
19.430000 0.134072 0
19.435000 0.104398 0
19.440000 0.075433 0
19.445000 0.048074 0
19.450000 0.022392 0
19.455000 -0.002900 0
19.460000 -0.030861 0
19.465000 -0.065799 0
19.470000 -0.110790 0
19.475000 -0.163333 0
19.480000 -0.211552 0
19.485000 -0.234248 2
19.490000 -0.205559 0
19.495000 -0.101510 0
19.500000 0.092804 0
19.505000 0.372179 0
19.510000 0.696545 0
19.515000 0.986301 0
19.520000 1.146195 3
19.525000 1.116820 0
19.530000 0.906192 0
19.535000 0.582899 0
19.540000 0.238247 0
19.545000 -0.054363 0
19.550000 -0.256214 0
19.555000 -0.358759 0
19.560000 -0.374039 4
19.565000 -0.327696 0
19.570000 -0.251463 0
19.575000 -0.173303 0
19.580000 -0.109615 0
19.585000 -0.064161 0
19.590000 -0.032754 0
19.595000 -0.009069 0
19.600000 0.011870 0
19.605000 0.032882 0
19.610000 0.055187 0
19.615000 0.079140 0
19.620000 0.104704 0
19.625000 0.131664 0
19.630000 0.159699 0
19.635000 0.188410 0
19.640000 0.217326 0
19.645000 0.245921 0
19.650000 0.273623 0
19.655000 0.299838 0
19.660000 0.323964 0
19.665000 0.345416 0
19.670000 0.363652 0
19.675000 0.378190 0
19.680000 0.388632 0
19.685000 0.394680 0
19.690000 0.396154 5
19.695000 0.392993 0
19.700000 0.385265 0
19.705000 0.373159 0
19.710000 0.356982 0
19.715000 0.337142 0
19.720000 0.314133 0
19.725000 0.288510 0
19.730000 0.260873 0
19.735000 0.231838 0
19.740000 0.202017 0
19.745000 0.171997 0
19.750000 0.142322 0
19.755000 0.113474 0
19.760000 0.085868 0
19.765000 0.059843 0
19.770000 0.035657 0
19.775000 0.013490 0
19.780000 -0.006552 0
19.785000 -0.024430 0
19.790000 -0.040168 0
19.795000 -0.053834 0
19.800000 -0.065540 0
19.805000 -0.075426 0
19.810000 -0.083649 0
19.815000 -0.090379 0
19.820000 -0.095789 0
19.825000 -0.100049 0
19.830000 -0.103321 0
19.835000 -0.105755 0
19.840000 -0.107488 0
19.845000 -0.108643 0
19.850000 -0.109327 0
19.855000 -0.109631 0
19.860000 -0.109492 0
19.865000 -0.108522 0
19.870000 -0.107557 0
19.875000 -0.106597 0
19.880000 -0.105641 0
19.885000 -0.104690 0
19.890000 -0.103744 0
19.895000 -0.102803 0
19.900000 -0.101866 0
19.905000 -0.100934 0
19.910000 -0.100006 0
19.915000 -0.099081 0
19.920000 -0.098160 0
19.925000 -0.097241 0
19.930000 -0.096321 0
19.935000 -0.095396 0
19.940000 -0.094457 0
19.945000 -0.093493 0
19.950000 -0.092482 0
19.955000 -0.091392 0
19.960000 -0.090170 0
19.965000 -0.088744 0
19.970000 -0.087004 0
19.975000 -0.084801 0
19.980000 -0.081937 0
19.985000 -0.078155 0
19.990000 -0.073143 0
19.995000 -0.066535 0
20.000000 -0.057929 0
20.005000 -0.046916 0
20.010000 -0.033121 0
20.015000 -0.016258 0
20.020000 0.003807 0
20.025000 0.026995 0
20.030000 0.052955 0
20.035000 0.081032 0
20.040000 0.110259 0
20.045000 0.139394 0
20.050000 0.166992 0
20.055000 0.191515 0
20.060000 0.211478 0
20.065000 0.225587 0
20.070000 0.232886 1
20.075000 0.232860 0
20.080000 0.225497 0
20.085000 0.211288 0
20.090000 0.191178 0
20.095000 0.166457 0
20.100000 0.138625 0
20.105000 0.109238 0
20.110000 0.079748 0
20.115000 0.051327 0
20.120000 0.024614 0
20.125000 -0.000666 0
20.130000 -0.026208 0
20.135000 -0.055363 0
20.140000 -0.092275 0
20.145000 -0.139121 0
20.150000 -0.191985 0
20.155000 -0.237843 0
20.160000 -0.255402 2
20.165000 -0.219826 0
20.170000 -0.108761 0
20.175000 0.090982 0
20.180000 0.372966 0
20.185000 0.697625 0
20.190000 0.988491 0
20.195000 1.154326 3
20.200000 1.136297 0
20.205000 0.938086 0
20.210000 0.621911 0
20.215000 0.275159 0
20.220000 -0.028318 0
20.225000 -0.246632 0
20.230000 -0.367504 0
20.235000 -0.399344 4
20.240000 -0.364476 0
20.245000 -0.292746 0
20.250000 -0.212767 0
20.255000 -0.143727 0
20.260000 -0.092533 0
20.265000 -0.056943 0
20.270000 -0.031063 0
20.275000 -0.009447 0
20.280000 0.011376 0
20.285000 0.033104 0
20.290000 0.056355 0
20.295000 0.081228 0
20.300000 0.107580 0
20.305000 0.135152 0
20.310000 0.163597 0
20.315000 0.192503 0
20.320000 0.221393 0
20.325000 0.249744 0
20.330000 0.277000 0
20.335000 0.302586 0
20.340000 0.325930 0
20.345000 0.346485 0
20.350000 0.363745 0
20.355000 0.377273 0
20.360000 0.386710 0
20.365000 0.391800 0
20.370000 0.392392 5
20.375000 0.388453 0
20.380000 0.380070 0
20.385000 0.367442 0
20.390000 0.350875 0
20.395000 0.330770 0
20.400000 0.307605 0
20.405000 0.281916 0
20.410000 0.254277 0
20.415000 0.225278 0
20.420000 0.195506 0
20.425000 0.165521 0
20.430000 0.135847 0
20.435000 0.106950 0
20.440000 0.079232 0
20.445000 0.053027 0
20.450000 0.028590 0
20.455000 0.006106 0
20.460000 -0.014311 0
20.465000 -0.032613 0
20.470000 -0.048810 0
20.475000 -0.062958 0
20.480000 -0.075155 0
20.485000 -0.085526 0
20.490000 -0.094219 0
20.495000 -0.101393 0
20.500000 -0.107215 0
20.505000 -0.111847 0
20.510000 -0.115449 0
20.515000 -0.118170 0
20.520000 -0.120146 0
20.525000 -0.121502 0
20.530000 -0.122346 0
20.535000 -0.122775 0
20.540000 -0.122869 0
20.545000 -0.121997 0
20.550000 -0.120964 0
20.555000 -0.119937 0
20.560000 -0.118915 0
20.565000 -0.117898 0
20.570000 -0.116886 0
20.575000 -0.115879 0
20.580000 -0.114877 0
20.585000 -0.113880 0
20.590000 -0.112888 0
20.595000 -0.111900 0
20.600000 -0.110916 0
20.605000 -0.109936 0
20.610000 -0.108957 0
20.615000 -0.107978 0
20.620000 -0.106993 0
20.625000 -0.105995 0
20.630000 -0.104972 0
20.635000 -0.103902 0
20.640000 -0.102753 0
20.645000 -0.101478 0
20.650000 -0.100005 0
20.655000 -0.098232 0
20.660000 -0.096019 0
20.665000 -0.093180 0
20.670000 -0.089476 0
20.675000 -0.084614 0
20.680000 -0.078253 0
20.685000 -0.070011 0
20.690000 -0.059496 0
20.695000 -0.046338 0
20.700000 -0.030239 0
20.705000 -0.011026 0
20.710000 0.011287 0
20.715000 0.036447 0
20.720000 0.063924 0
20.725000 0.092895 0
20.730000 0.122261 0
20.735000 0.150703 0
20.740000 0.176774 0
20.745000 0.199012 0
20.750000 0.216079 0
20.755000 0.226890 0
20.760000 0.230734 1
20.765000 0.227344 0
20.770000 0.216932 0
20.775000 0.200167 0
20.780000 0.178104 0
20.785000 0.152075 0
20.790000 0.123551 0
20.795000 0.094007 0
20.800000 0.064765 0
20.805000 0.036823 0
20.810000 0.010593 0
20.815000 -0.014490 0
20.820000 -0.040425 0
20.825000 -0.070709 0
20.830000 -0.109223 0
20.835000 -0.157368 0
20.840000 -0.210232 0
20.845000 -0.254212 0
20.850000 -0.268306 2
20.855000 -0.228708 0
20.860000 -0.114341 0
20.865000 0.086947 0
20.870000 0.368646 0
20.875000 0.693127 0
20.880000 0.987954 0
20.885000 1.165411 3
20.890000 1.163674 0
20.895000 0.979975 0
20.900000 0.671462 0
20.905000 0.323866 0
20.910000 0.012778 0
20.915000 -0.216803 0
20.920000 -0.349783 0
20.925000 -0.392344 4
20.930000 -0.365038 0
20.935000 -0.296769 0
20.940000 -0.216535 0
20.945000 -0.145035 0
20.950000 -0.090914 0
20.955000 -0.053075 0
20.960000 -0.025957 0
20.965000 -0.003925 0
20.970000 0.016825 0
20.975000 0.038251 0
20.980000 0.061122 0
20.985000 0.085607 0
20.990000 0.111606 0
20.995000 0.138880 0
21.000000 0.167106 0
21.005000 0.195891 0
21.010000 0.224780 0
21.015000 0.253266 0
21.020000 0.280807 0
21.025000 0.306838 0
21.030000 0.330794 0
21.035000 0.352125 0
21.040000 0.370319 0
21.045000 0.384923 0
21.050000 0.395559 0
21.055000 0.401943 0
21.060000 0.403893 5
21.065000 0.401341 0
21.070000 0.394334 0
21.075000 0.383034 0
21.080000 0.367708 0
21.085000 0.348723 0
21.090000 0.326526 0
21.095000 0.301627 0
21.100000 0.274584 0
21.105000 0.245973 0
21.110000 0.216379 0
21.115000 0.186365 0
21.120000 0.156464 0
21.125000 0.127160 0
21.130000 0.098876 0
21.135000 0.071969 0
21.140000 0.046723 0
21.145000 0.023349 0
21.150000 0.001989 0
21.155000 -0.017283 0
21.160000 -0.034452 0
21.165000 -0.049555 0
21.170000 -0.062670 0
21.175000 -0.073910 0
21.180000 -0.083412 0
21.185000 -0.091329 0
21.190000 -0.097822 0
21.195000 -0.103053 0
21.200000 -0.107184 0
21.205000 -0.110366 0
21.210000 -0.112740 0
21.215000 -0.114436 0
21.220000 -0.115569 0
21.225000 -0.116240 0
21.230000 -0.116537 0
21.235000 -0.116535 0
21.240000 -0.115675 0
21.245000 -0.114674 0
21.250000 -0.113679 0
21.255000 -0.112688 0
21.260000 -0.111702 0
21.265000 -0.110721 0
21.270000 -0.109744 0
21.275000 -0.108773 0
21.280000 -0.107806 0
21.285000 -0.106844 0
21.290000 -0.105886 0
21.295000 -0.104932 0
21.300000 -0.103981 0
21.305000 -0.103030 0
21.310000 -0.102077 0
21.315000 -0.101117 0
21.320000 -0.100140 0
21.325000 -0.099131 0
21.330000 -0.098067 0
21.335000 -0.096912 0
21.340000 -0.095611 0
21.345000 -0.094086 0
21.350000 -0.092225 0
21.355000 -0.089877 0
21.360000 -0.086844 0
21.365000 -0.082876 0
21.370000 -0.077669 0
21.375000 -0.070873 0
21.380000 -0.062106 0
21.385000 -0.050985 0
21.390000 -0.037155 0
21.395000 -0.020349 0
21.400000 -0.000435 0
21.405000 0.022523 0
21.410000 0.048217 0
21.415000 0.076059 0
21.420000 0.105178 0
21.425000 0.134440 0
21.430000 0.162509 0
21.435000 0.187944 0
21.440000 0.209317 0
21.445000 0.225340 0
21.450000 0.235003 0
21.455000 0.237669 1
21.460000 0.233150 0
21.465000 0.221728 0
21.470000 0.204123 0
21.475000 0.181423 0
21.480000 0.154966 0
21.485000 0.126215 0
21.490000 0.096613 0
21.495000 0.067439 0
21.500000 0.039631 0
21.505000 0.013523 0
21.510000 -0.011556 0
21.515000 -0.037712 0
21.520000 -0.068487 0
21.525000 -0.107655 0
21.530000 -0.156312 0
21.535000 -0.209153 0
21.540000 -0.252310 0
21.545000 -0.264816 2
21.550000 -0.223177 0
21.555000 -0.106766 0
21.560000 0.096100 0
21.565000 0.378565 0
21.570000 0.703100 0
21.575000 0.998064 0
21.580000 1.176836 3
21.585000 1.176289 0
21.590000 0.991532 0
21.595000 0.681421 0
21.600000 0.333940 0
21.605000 0.025769 0
21.610000 -0.198433 0
21.615000 -0.324675 0
21.620000 -0.360529 4
21.625000 -0.328054 0
21.630000 -0.257301 0
21.635000 -0.177431 0
21.640000 -0.108217 0
21.645000 -0.056917 0
21.650000 -0.021377 0
21.655000 0.004352 0
21.660000 0.025787 0
21.665000 0.046439 0
21.670000 0.068014 0
21.675000 0.091129 0
21.680000 0.115875 0
21.685000 0.142105 0
21.690000 0.169552 0
21.695000 0.197864 0
21.700000 0.226617 0
21.705000 0.255328 0
21.710000 0.283466 0
21.715000 0.310462 0
21.720000 0.335737 0
21.725000 0.358711 0
21.730000 0.378833 0
21.735000 0.395598 0
21.740000 0.408567 0
21.745000 0.417390 0
21.750000 0.421816 5
21.755000 0.421706 0
21.760000 0.417043 0
21.765000 0.407928 0
21.770000 0.394578 0
21.775000 0.377318 0
21.780000 0.356565 0
21.785000 0.332814 0
21.790000 0.306616 0
21.795000 0.278555 0
21.800000 0.249229 0
21.805000 0.219230 0
21.810000 0.189120 0
21.815000 0.159416 0
21.820000 0.130582 0
21.825000 0.103009 0
21.830000 0.077019 0
21.835000 0.052856 0
21.840000 0.030690 0
21.845000 0.010619 0
21.850000 -0.007320 0
21.855000 -0.023150 0
21.860000 -0.036940 0
21.865000 -0.048795 0
21.870000 -0.058850 0
21.875000 -0.067259 0
21.880000 -0.074185 0
21.885000 -0.079796 0
21.890000 -0.084256 0
21.895000 -0.087724 0
21.900000 -0.090347 0
21.905000 -0.092261 0
21.910000 -0.093585 0
21.915000 -0.094427 0
21.920000 -0.094877 0
21.925000 -0.095015 0
21.930000 -0.094267 0
21.935000 -0.093373 0
21.940000 -0.092483 0
21.945000 -0.091598 0
21.950000 -0.090717 0
21.955000 -0.089841 0
21.960000 -0.088969 0
21.965000 -0.088101 0
21.970000 -0.087238 0
21.975000 -0.086378 0
21.980000 -0.085522 0
21.985000 -0.084670 0
21.990000 -0.083819 0
21.995000 -0.082969 0
22.000000 -0.082115 0
22.005000 -0.081253 0
22.010000 -0.080372 0
22.015000 -0.079456 0
22.020000 -0.078480 0
22.025000 -0.077405 0
22.030000 -0.076171 0
22.035000 -0.074694 0
22.040000 -0.072852 0
22.045000 -0.070483 0
22.050000 -0.067372 0
22.055000 -0.063251 0
22.060000 -0.057797 0
22.065000 -0.050642 0
22.070000 -0.041391 0
22.075000 -0.029652 0
22.080000 -0.015083 0
22.085000 0.002560 0
22.090000 0.023356 0
22.095000 0.047166 0
22.100000 0.073585 0
22.105000 0.101910 0
22.110000 0.131146 0
22.115000 0.160047 0
22.120000 0.187189 0
22.125000 0.211081 0
22.130000 0.230300 0
22.135000 0.243628 0
22.140000 0.250182 1
22.145000 0.249504 0
22.150000 0.241623 0
22.155000 0.227044 0
22.160000 0.206699 0
22.165000 0.181847 0
22.170000 0.153943 0
22.175000 0.124496 0
22.180000 0.094916 0
22.185000 0.066350 0
22.190000 0.039454 0
22.195000 0.014036 0
22.200000 -0.011414 0
22.205000 -0.040000 0
22.210000 -0.075753 0
22.215000 -0.121260 0
22.220000 -0.173844 0
22.225000 -0.222378 0
22.230000 -0.247390 2
22.235000 -0.225017 0
22.240000 -0.132605 0
22.245000 0.045347 0
22.250000 0.308426 0
22.255000 0.627625 0
22.260000 0.937678 0
22.265000 1.150348 0
22.270000 1.192203 3
22.275000 1.043449 0
22.280000 0.750677 0
22.285000 0.403481 0
22.290000 0.086176 0
22.295000 -0.149388 0
22.300000 -0.285150 0
22.305000 -0.327189 4
22.310000 -0.297655 0
22.315000 -0.227730 0
22.320000 -0.148040 0
22.325000 -0.079303 0
22.330000 -0.028900 0
22.335000 0.005679 0
22.340000 0.030714 0
22.345000 0.051812 0
22.350000 0.072408 0
22.355000 0.094093 0
22.360000 0.117399 0
22.365000 0.142360 0
22.370000 0.168792 0
22.375000 0.196393 0
22.380000 0.224774 0
22.385000 0.253476 0
22.390000 0.281974 0
22.395000 0.309698 0
22.400000 0.336047 0
22.405000 0.360413 0
22.410000 0.382196 0
22.415000 0.400836 0
22.420000 0.415833 0
22.425000 0.426768 0
22.430000 0.433320 0
22.435000 0.435287 5
22.440000 0.432589 0
22.445000 0.425276 0
22.450000 0.413524 0
22.455000 0.397628 0
22.460000 0.377991 0
22.465000 0.355104 0
22.470000 0.329526 0
22.475000 0.301859 0
22.480000 0.272729 0
22.485000 0.242757 0
22.490000 0.212541 0
22.495000 0.182635 0
22.500000 0.153534 0
22.505000 0.125663 0
22.510000 0.099368 0
22.515000 0.074916 0
22.520000 0.052493 0
22.525000 0.032208 0
22.530000 0.014101 0
22.535000 -0.001849 0
22.540000 -0.015713 0
22.545000 -0.027603 0
22.550000 -0.037659 0
22.555000 -0.046043 0
22.560000 -0.052927 0
22.565000 -0.058486 0
22.570000 -0.062892 0
22.575000 -0.066309 0
22.580000 -0.068888 0
22.585000 -0.070768 0
22.590000 -0.072073 0
22.595000 -0.072908 0
22.600000 -0.073367 0
22.605000 -0.073390 0
22.610000 -0.072600 0
22.615000 -0.071814 0
22.620000 -0.071032 0
22.625000 -0.070254 0
22.630000 -0.069479 0
22.635000 -0.068709 0
22.640000 -0.067942 0
22.645000 -0.067179 0
22.650000 -0.066420 0
22.655000 -0.065664 0
22.660000 -0.064911 0
22.665000 -0.064160 0
22.670000 -0.063409 0
22.675000 -0.062657 0
22.680000 -0.061896 0
22.685000 -0.061120 0
22.690000 -0.060314 0
22.695000 -0.059454 0
22.700000 -0.058503 0
22.705000 -0.057406 0
22.710000 -0.056079 0
22.715000 -0.054404 0
22.720000 -0.052218 0
22.725000 -0.049306 0
22.730000 -0.045394 0
22.735000 -0.040149 0
22.740000 -0.033189 0
22.745000 -0.024100 0
22.750000 -0.012473 0
22.755000 0.002053 0
22.760000 0.019729 0
22.765000 0.040632 0
22.770000 0.064601 0
22.775000 0.091186 0
22.780000 0.119618 0
22.785000 0.148821 0
22.790000 0.177454 0
22.795000 0.204005 0
22.800000 0.226919 0
22.805000 0.244739 0
22.810000 0.256266 0
22.815000 0.260685 1
22.820000 0.257664 0
22.825000 0.247390 0
22.830000 0.230551 0
22.835000 0.208259 0
22.840000 0.181928 0
22.845000 0.153121 0
22.850000 0.123390 0
22.855000 0.094111 0
22.860000 0.066274 0
22.865000 0.040176 0
22.870000 0.014951 0
22.875000 -0.011897 0
22.880000 -0.044350 0
22.885000 -0.086137 0
22.890000 -0.137042 0
22.895000 -0.188813 0
22.900000 -0.223739 2
22.905000 -0.217706 0
22.910000 -0.146045 0
22.915000 0.010144 0
22.920000 0.255565 0
22.925000 0.567550 0
22.930000 0.885143 0
22.935000 1.118114 0
22.940000 1.184442 3
22.945000 1.054896 0
22.950000 0.771626 0
22.955000 0.425367 0
22.960000 0.104860 0
22.965000 -0.134224 0
22.970000 -0.272023 0
22.975000 -0.314383 4
22.980000 -0.284143 0
22.985000 -0.213579 0
22.990000 -0.134129 0
22.995000 -0.066560 0
23.000000 -0.017686 0
23.005000 0.015620 0
23.010000 0.039919 0
23.015000 0.060772 0
23.020000 0.081437 0
23.025000 0.103350 0
23.030000 0.126942 0
23.035000 0.152197 0
23.040000 0.178893 0
23.045000 0.206697 0
23.050000 0.235190 0
23.055000 0.263876 0
23.060000 0.292200 0
23.065000 0.319561 0
23.070000 0.345332 0
23.075000 0.368884 0
23.080000 0.389608 0
23.085000 0.406944 0
23.090000 0.420403 0
23.095000 0.429588 0
23.100000 0.434217 5
23.105000 0.434132 0
23.110000 0.429309 0
23.115000 0.419860 0
23.120000 0.406026 0
23.125000 0.388169 0
23.130000 0.366755 0
23.135000 0.342329 0
23.140000 0.315499 0
23.145000 0.286903 0
23.150000 0.257188 0
23.155000 0.226985 0
23.160000 0.196888 0
23.165000 0.167431 0
23.170000 0.139082 0
23.175000 0.112227 0
23.180000 0.087168 0
23.185000 0.064123 0
23.190000 0.043227 0
23.195000 0.024540 0
23.200000 0.008057 0
23.205000 -0.006286 0
23.210000 -0.018596 0
23.215000 -0.029012 0
23.220000 -0.037699 0
23.225000 -0.044832 0
23.230000 -0.050593 0
23.235000 -0.055161 0
23.240000 -0.058705 0
23.245000 -0.061384 0
23.250000 -0.063342 0
23.255000 -0.064708 0
23.260000 -0.065593 0
23.265000 -0.066093 0
23.270000 -0.066151 0
23.275000 -0.065397 0
23.280000 -0.064647 0
23.285000 -0.063901 0
23.290000 -0.063158 0
23.295000 -0.062419 0
23.300000 -0.061684 0
23.305000 -0.060952 0
23.310000 -0.060224 0
23.315000 -0.059500 0
23.320000 -0.058778 0
23.325000 -0.058059 0
23.330000 -0.057342 0
23.335000 -0.056624 0
23.340000 -0.055903 0
23.345000 -0.055173 0
23.350000 -0.054422 0
23.355000 -0.053635 0
23.360000 -0.052784 0
23.365000 -0.051824 0
23.370000 -0.050689 0
23.375000 -0.049283 0
23.380000 -0.047467 0
23.385000 -0.045053 0
23.390000 -0.041794 0
23.395000 -0.037381 0
23.400000 -0.031447 0
23.405000 -0.023578 0
23.410000 -0.013343 0
23.415000 -0.000336 0
23.420000 0.015768 0
23.425000 0.035144 0
23.430000 0.057748 0
23.435000 0.083256 0
23.440000 0.111015 0
23.445000 0.140042 0
23.450000 0.169050 0
23.455000 0.196530 0
23.460000 0.220873 0
23.465000 0.240518 0
23.470000 0.254122 0
23.475000 0.260703 1
23.480000 0.259763 0
23.485000 0.251343 0
23.490000 0.236024 0
23.495000 0.214858 0
23.500000 0.189247 0
23.505000 0.160789 0
23.510000 0.131104 0
23.515000 0.101660 0
23.520000 0.073562 0
23.525000 0.047242 0
23.530000 0.021987 0
23.535000 -0.004591 0
23.540000 -0.036507 0
23.545000 -0.077732 0
23.550000 -0.128384 0
23.555000 -0.180315 0
23.560000 -0.215431 2
23.565000 -0.208836 0
23.570000 -0.135066 0
23.575000 0.025136 0
23.580000 0.275636 0
23.585000 0.590710 0
23.590000 0.904238 0
23.595000 1.121808 0
23.600000 1.162924 3
23.605000 1.007795 0
23.610000 0.709724 0
23.615000 0.362372 0
23.620000 0.051243 0
23.625000 -0.173367 0
23.630000 -0.296005 0
23.635000 -0.325546 4
23.640000 -0.286879 0
23.645000 -0.213001 0
23.650000 -0.134345 0
23.655000 -0.069562 0
23.660000 -0.023504 0
23.665000 0.007943 0
23.670000 0.031413 0
23.675000 0.052129 0
23.680000 0.073001 0
23.685000 0.095247 0
23.690000 0.119195 0
23.695000 0.144779 0
23.700000 0.171758 0
23.705000 0.199777 0
23.710000 0.228403 0
23.715000 0.257126 0
23.720000 0.285379 0
23.725000 0.312552 0
23.730000 0.338014 0
23.735000 0.361135 0
23.740000 0.381312 0
23.745000 0.397994 0
23.750000 0.410705 0
23.755000 0.419070 0
23.760000 0.422827 5
23.765000 0.421846 0
23.770000 0.416129 0
23.775000 0.405816 0
23.780000 0.391174 0
23.785000 0.372591 0
23.790000 0.350551 0
23.795000 0.325618 0
23.800000 0.298411 0
23.805000 0.269573 0
23.810000 0.239753 0
23.815000 0.209579 0
23.820000 0.179633 0
23.825000 0.150439 0
23.830000 0.122449 0
23.835000 0.096032 0
23.840000 0.071471 0
23.845000 0.048965 0
23.850000 0.028633 0
23.855000 0.010518 0
23.860000 -0.005401 0
23.865000 -0.019197 0
23.870000 -0.030987 0
23.875000 -0.040918 0
23.880000 -0.049160 0
23.885000 -0.055889 0
23.890000 -0.061290 0
23.895000 -0.065537 0
23.900000 -0.068801 0
23.905000 -0.071237 0
23.910000 -0.072986 0
23.915000 -0.074171 0
23.920000 -0.074901 0
23.925000 -0.075268 0
23.930000 -0.075223 0
23.935000 -0.074424 0
23.940000 -0.073629 0
23.945000 -0.072837 0
23.950000 -0.072050 0
23.955000 -0.071267 0
23.960000 -0.070488 0
23.965000 -0.069712 0
23.970000 -0.068940 0
23.975000 -0.068172 0
23.980000 -0.067407 0
23.985000 -0.066644 0
23.990000 -0.065883 0
23.995000 -0.065122 0
24.000000 -0.064355 0
24.005000 -0.063577 0
24.010000 -0.062775 0
24.015000 -0.061929 0
24.020000 -0.061008 0
24.025000 -0.059962 0
24.030000 -0.058715 0
24.035000 -0.057159 0
24.040000 -0.055140 0
24.045000 -0.052453 0
24.050000 -0.048830 0
24.055000 -0.043943 0
24.060000 -0.037405 0
24.065000 -0.028793 0
24.070000 -0.017677 0
24.075000 -0.003668 0
24.080000 0.013520 0
24.085000 0.033999 0
24.090000 0.057641 0
24.095000 0.084015 0
24.100000 0.112358 0
24.105000 0.141574 0
24.110000 0.170289 0
24.115000 0.196938 0
24.120000 0.219904 0
24.125000 0.237677 0
24.130000 0.249014 0
24.135000 0.253085 1
24.140000 0.249573 0
24.145000 0.238708 0
24.150000 0.221250 0
24.155000 0.198392 0
24.160000 0.171629 0
24.165000 0.142594 0
24.170000 0.112879 0
24.175000 0.083855 0
24.180000 0.056433 0
24.185000 0.030696 0
24.190000 0.005370 0
24.195000 -0.022605 0
24.200000 -0.057552 0
24.205000 -0.102571 0
24.210000 -0.155157 0
24.215000 -0.203365 0
24.220000 -0.225872 2
24.225000 -0.196686 0
24.230000 -0.091767 0
24.235000 0.103708 0
24.240000 0.384143 0
24.245000 0.708642 0
24.250000 0.996654 0
24.255000 1.152651 3
24.260000 1.115898 0
24.265000 0.897370 0
24.270000 0.569889 0
24.275000 0.227177 0
24.280000 -0.057895 0
24.285000 -0.248825 0
24.290000 -0.339566 0
24.295000 -0.344595 4
24.300000 -0.291691 0
24.305000 -0.213568 0
24.310000 -0.137377 0
24.315000 -0.077467 0
24.320000 -0.035613 0
24.325000 -0.006604 0
24.330000 0.015947 0
24.335000 0.036619 0
24.340000 0.057816 0
24.345000 0.080488 0
24.350000 0.104850 0
24.355000 0.130795 0
24.360000 0.158064 0
24.365000 0.186297 0
24.370000 0.215057 0
24.375000 0.243838 0
24.380000 0.272077 0
24.385000 0.299176 0
24.390000 0.324516 0
24.395000 0.347483 0
24.400000 0.367489 0
24.405000 0.384002 0
24.410000 0.396562 0
24.415000 0.404808 0
24.420000 0.408489 5
24.425000 0.407483 0
24.430000 0.401794 0
24.435000 0.391560 0
24.440000 0.377044 0
24.445000 0.358623 0
24.450000 0.336768 0
24.455000 0.312030 0
24.460000 0.285011 0
24.465000 0.256340 0
24.470000 0.226653 0
24.475000 0.196564 0
24.480000 0.166649 0
24.485000 0.137427 0
24.490000 0.109348 0
24.495000 0.082783 0
24.500000 0.058020 0
24.505000 0.035266 0
24.510000 0.014648 0
24.515000 -0.003779 0
24.520000 -0.020026 0
24.525000 -0.034155 0
24.530000 -0.046273 0
24.535000 -0.056519 0
24.540000 -0.065054 0
24.545000 -0.072051 0
24.550000 -0.077688 0
24.555000 -0.082140 0
24.560000 -0.085576 0
24.565000 -0.088149 0
24.570000 -0.090004 0
24.575000 -0.091266 0
24.580000 -0.092047 0
24.585000 -0.092440 0
24.590000 -0.092386 0
24.595000 -0.091501 0
24.600000 -0.090621 0
24.605000 -0.089745 0
24.610000 -0.088873 0
24.615000 -0.088006 0
24.620000 -0.087143 0
24.625000 -0.086285 0
24.630000 -0.085430 0
24.635000 -0.084580 0
24.640000 -0.083733 0
24.645000 -0.082890 0
24.650000 -0.082049 0
24.655000 -0.081210 0
24.660000 -0.080368 0
24.665000 -0.079519 0
24.670000 -0.078654 0
24.675000 -0.077758 0
24.680000 -0.076806 0
24.685000 -0.075761 0
24.690000 -0.074564 0
24.695000 -0.073128 0
24.700000 -0.071329 0
24.705000 -0.068999 0
24.710000 -0.065913 0
24.715000 -0.061785 0
24.720000 -0.056273 0
24.725000 -0.048982 0
24.730000 -0.039493 0
24.735000 -0.027391 0
24.740000 -0.012324 0
24.745000 0.005943 0
24.750000 0.027453 0
24.755000 0.051998 0
24.760000 0.079067 0
24.765000 0.107820 0
24.770000 0.137110 0
24.775000 0.165534 0
24.780000 0.191535 0
24.785000 0.213543 0
24.790000 0.230123 0
24.795000 0.240135 0
24.800000 0.242860 1
24.805000 0.238086 0
24.810000 0.226132 0
24.815000 0.207817 0
24.820000 0.184365 0
24.825000 0.157267 0
24.830000 0.128124 0
24.835000 0.098478 0
24.840000 0.069635 0
24.845000 0.042428 0
24.850000 0.016847 0
24.855000 -0.008473 0
24.860000 -0.036631 0
24.865000 -0.071882 0
24.870000 -0.117135 0
24.875000 -0.169724 0
24.880000 -0.217782 0
24.885000 -0.240393 2
24.890000 -0.212131 0
24.895000 -0.109394 0
24.900000 0.082689 0
24.905000 0.359691 0
24.910000 0.683581 0
24.915000 0.977495 0
24.920000 1.147476 3
24.925000 1.129764 0
24.930000 0.928537 0
24.935000 0.609460 0
24.940000 0.263646 0
24.945000 -0.033738 0
24.950000 -0.241867 0
24.955000 -0.350604 0
24.960000 -0.370892 4
24.965000 -0.327651 0
24.970000 -0.252460 0
24.975000 -0.173786 0
24.980000 -0.108894 0
24.985000 -0.062291 0
24.990000 -0.030138 0
24.995000 -0.006122 0
25.000000 0.014872 0
25.005000 0.035802 0
25.010000 0.057972 0
25.015000 0.081780 0
25.020000 0.107209 0
25.025000 0.134052 0
25.030000 0.161997 0
25.035000 0.190650 0
25.040000 0.219546 0
25.045000 0.248163 0
25.050000 0.275935 0
25.055000 0.302267 0
25.060000 0.326560 0
25.065000 0.348228 0
25.070000 0.366723 0
25.075000 0.381559 0
25.080000 0.392332 0
25.085000 0.398737 0
25.090000 0.400580 5
25.095000 0.397792 0
25.100000 0.390430 0
25.105000 0.378673 0
25.110000 0.362817 0
25.115000 0.343261 0
25.120000 0.320492 0
25.125000 0.295059 0
25.130000 0.267559 0
25.135000 0.238606 0
25.140000 0.208812 0
25.145000 0.178768 0
25.150000 0.149018 0
25.155000 0.120053 0
25.160000 0.092294 0
25.165000 0.066085 0
25.170000 0.041693 0
25.175000 0.019304 0
25.180000 -0.000968 0
25.185000 -0.019080 0
25.190000 -0.035047 0
25.195000 -0.048936 0
25.200000 -0.060853 0
25.205000 -0.070935 0
25.210000 -0.079340 0
25.215000 -0.086234 0
25.220000 -0.091792 0
25.225000 -0.096183 0
25.230000 -0.099569 0
25.235000 -0.102103 0
25.240000 -0.103923 0
25.245000 -0.105153 0
25.250000 -0.105900 0
25.255000 -0.106258 0
25.260000 -0.106307 0
25.265000 -0.105498 0
25.270000 -0.104548 0
25.275000 -0.103603 0
25.280000 -0.102662 0
25.285000 -0.101726 0
25.290000 -0.100795 0
25.295000 -0.099868 0
25.300000 -0.098946 0
25.305000 -0.098028 0
25.310000 -0.097115 0
25.315000 -0.096205 0
25.320000 -0.095299 0
25.325000 -0.094394 0
25.330000 -0.093489 0
25.335000 -0.092579 0
25.340000 -0.091658 0
25.345000 -0.090712 0
25.350000 -0.089723 0
25.355000 -0.088659 0
25.360000 -0.087473 0
25.365000 -0.086091 0
25.370000 -0.084413 0
25.375000 -0.082294 0
25.380000 -0.079542 0
25.385000 -0.075910 0
25.390000 -0.071093 0
25.395000 -0.064731 0
25.400000 -0.056426 0
25.405000 -0.045770 0
25.410000 -0.032380 0
25.415000 -0.015956 0
25.420000 0.003662 0
25.425000 0.026426 0
25.430000 0.052025 0
25.435000 0.079847 0
25.440000 0.108969 0
25.445000 0.138186 0
25.450000 0.166077 0
25.455000 0.191111 0
25.460000 0.211789 0
25.465000 0.226783 0
25.470000 0.235084 0
25.475000 0.236110 1
25.480000 0.229774 0
25.485000 0.216497 0
25.490000 0.197161 0
25.495000 0.173012 0
25.500000 0.145527 0
25.505000 0.116261 0
25.510000 0.086691 0
25.515000 0.058039 0
25.520000 0.031046 0
25.525000 0.005605 0
25.530000 -0.019732 0
25.535000 -0.048077 0
25.540000 -0.083573 0
25.545000 -0.128951 0
25.550000 -0.181503 0
25.555000 -0.229699 0
25.560000 -0.253327 2
25.565000 -0.227748 0
25.570000 -0.129850 0
25.575000 0.055542 0
25.580000 0.326031 0
25.585000 0.648126 0
25.590000 0.950690 0
25.595000 1.142321 0
25.600000 1.153488 3
25.605000 0.976776 0
25.610000 0.670456 0
25.615000 0.322977 0
25.620000 0.012737 0
25.625000 -0.214021 0
25.630000 -0.342406 0
25.635000 -0.379647 4
25.640000 -0.347799 0
25.645000 -0.277148 0
25.650000 -0.197180 0
25.655000 -0.127899 0
25.660000 -0.076619 0
25.665000 -0.041128 0
25.670000 -0.015408 0
25.675000 0.006083 0
25.680000 0.026845 0
25.685000 0.048565 0
25.690000 0.071841 0
25.695000 0.096754 0
25.700000 0.123149 0
25.705000 0.150751 0
25.710000 0.179201 0
25.715000 0.208068 0
25.720000 0.236860 0
25.725000 0.265036 0
25.730000 0.292024 0
25.735000 0.317235 0
25.740000 0.340087 0
25.745000 0.360026 0
25.750000 0.376545 0
25.755000 0.389212 0
25.760000 0.397679 0
25.765000 0.401707 5
25.770000 0.401169 0
25.775000 0.396061 0
25.780000 0.386497 0
25.785000 0.372714 0
25.790000 0.355051 0
25.795000 0.333942 0
25.800000 0.309895 0
25.805000 0.283473 0
25.810000 0.255269 0
25.815000 0.225889 0
25.820000 0.195926 0
25.825000 0.165940 0
25.830000 0.136448 0
25.835000 0.107903 0
25.840000 0.080689 0
25.845000 0.055117 0
25.850000 0.031418 0
25.855000 0.009751 0
25.860000 -0.009799 0
25.865000 -0.027209 0
25.870000 -0.042511 0
25.875000 -0.055783 0
25.880000 -0.067140 0
25.885000 -0.076723 0
25.890000 -0.084689 0
25.895000 -0.091206 0
25.900000 -0.096442 0
25.905000 -0.100562 0
25.910000 -0.103725 0
25.915000 -0.106075 0
25.920000 -0.107746 0
25.925000 -0.108855 0
25.930000 -0.109505 0
25.935000 -0.109786 0
25.940000 -0.109634 0
25.945000 -0.108663 0
25.950000 -0.107697 0
25.955000 -0.106736 0
25.960000 -0.105780 0
25.965000 -0.104829 0
25.970000 -0.103882 0
25.975000 -0.102940 0
25.980000 -0.102002 0
25.985000 -0.101069 0
25.990000 -0.100141 0
25.995000 -0.099216 0
26.000000 -0.098294 0
26.005000 -0.097375 0
26.010000 -0.096455 0
26.015000 -0.095530 0
26.020000 -0.094594 0
26.025000 -0.093634 0
26.030000 -0.092631 0
26.035000 -0.091556 0
26.040000 -0.090361 0
26.045000 -0.088977 0
26.050000 -0.087306 0
26.055000 -0.085209 0
26.060000 -0.082503 0
26.065000 -0.078948 0
26.070000 -0.074251 0
26.075000 -0.068066 0
26.080000 -0.060005 0
26.085000 -0.049667 0
26.090000 -0.036671 0
26.095000 -0.020708 0
26.100000 -0.001598 0
26.105000 0.020649 0
26.110000 0.045777 0
26.115000 0.073242 0
26.120000 0.102196 0
26.125000 0.131509 0
26.130000 0.159827 0
26.135000 0.185664 0
26.140000 0.207531 0
26.145000 0.224072 0
26.150000 0.234207 0
26.155000 0.237249 1
26.160000 0.232976 0
26.165000 0.221662 0
26.170000 0.204048 0
26.175000 0.181258 0
26.180000 0.154684 0
26.185000 0.125843 0
26.190000 0.096225 0
26.195000 0.067135 0
26.200000 0.039499 0
26.205000 0.013570 0
26.210000 -0.011520 0
26.215000 -0.038190 0
26.220000 -0.070278 0
26.225000 -0.111447 0
26.230000 -0.161780 0
26.235000 -0.213908 0
26.240000 -0.251431 0
26.245000 -0.251448 2
26.250000 -0.189889 0
26.255000 -0.047347 0
26.260000 0.183584 0
26.265000 0.486612 0
26.270000 0.810065 0
26.275000 1.070453 0
26.280000 1.182552 3
26.285000 1.103429 0
26.290000 0.857439 0
26.295000 0.521125 0
26.300000 0.182505 0
26.305000 -0.093682 0
26.310000 -0.276459 0
26.315000 -0.362035 0
26.320000 -0.364999 4
26.325000 -0.311954 0
26.330000 -0.233962 0
26.335000 -0.157055 0
26.340000 -0.095541 0
26.345000 -0.051867 0
26.350000 -0.021475 0
26.355000 0.001791 0
26.360000 0.022619 0
26.365000 0.043632 0
26.370000 0.065952 0
26.375000 0.089902 0
26.380000 0.115440 0
26.385000 0.142351 0
26.390000 0.170325 0
26.395000 0.198970 0
26.400000 0.227830 0
26.405000 0.256394 0
26.410000 0.284105 0
26.415000 0.310385 0
26.420000 0.334647 0
26.425000 0.356318 0
26.430000 0.374865 0
26.435000 0.389810 0
26.440000 0.400754 0
26.445000 0.407395 0
26.450000 0.409538 5
26.455000 0.407105 0
26.460000 0.400141 0
26.465000 0.388811 0
26.470000 0.373392 0
26.475000 0.354262 0
26.480000 0.331886 0
26.485000 0.306794 0
26.490000 0.279563 0
26.495000 0.250791 0
26.500000 0.221079 0
26.505000 0.191009 0
26.510000 0.161123 0
26.515000 0.131912 0
26.520000 0.103805 0
26.525000 0.077155 0
26.530000 0.052242 0
26.535000 0.029268 0
26.540000 0.008364 0
26.545000 -0.010411 0
26.550000 -0.027054 0
26.555000 -0.041617 0
26.560000 -0.054192 0
26.565000 -0.064905 0
26.570000 -0.073902 0
26.575000 -0.081346 0
26.580000 -0.087404 0
26.585000 -0.092244 0
26.590000 -0.096029 0
26.595000 -0.098911 0
26.600000 -0.101031 0
26.605000 -0.102516 0
26.610000 -0.103479 0
26.615000 -0.104017 0
26.620000 -0.104215 0
26.625000 -0.104015 0
26.630000 -0.103073 0
26.635000 -0.102135 0
26.640000 -0.101201 0
26.645000 -0.100273 0
26.650000 -0.099349 0
26.655000 -0.098429 0
26.660000 -0.097514 0
26.665000 -0.096604 0
26.670000 -0.095698 0
26.675000 -0.094796 0
26.680000 -0.093897 0
26.685000 -0.093001 0
26.690000 -0.092107 0
26.695000 -0.091211 0
26.700000 -0.090308 0
26.705000 -0.089390 0
26.710000 -0.088443 0
26.715000 -0.087445 0
26.720000 -0.086362 0
26.725000 -0.085139 0
26.730000 -0.083700 0
26.735000 -0.081935 0
26.740000 -0.079692 0
26.745000 -0.076772 0
26.750000 -0.072919 0
26.755000 -0.067822 0
26.760000 -0.061123 0
26.765000 -0.052428 0
26.770000 -0.041339 0
26.775000 -0.027492 0
26.780000 -0.010612 0
26.785000 0.009431 0
26.790000 0.032558 0
26.795000 0.058429 0
26.800000 0.086413 0
26.805000 0.115579 0
26.810000 0.144725 0
26.815000 0.172452 0
26.820000 0.197264 0
26.825000 0.217699 0
26.830000 0.232473 0
26.835000 0.240612 0
26.840000 0.241554 1
26.845000 0.235221 0
26.850000 0.222023 0
26.855000 0.202813 0
26.860000 0.178803 0
26.865000 0.151427 0
26.870000 0.122207 0
26.875000 0.092593 0
26.880000 0.063806 0
26.885000 0.036621 0
26.890000 0.011039 0
26.895000 -0.014186 0
26.900000 -0.041901 0
26.905000 -0.076119 0
26.910000 -0.119939 0
26.915000 -0.171837 0
26.920000 -0.222120 0
26.925000 -0.252360 2
26.930000 -0.238873 0
26.935000 -0.158290 0
26.940000 0.006531 0
26.945000 0.258290 0
26.950000 0.572717 0
26.955000 0.889096 0
26.960000 1.119986 0
26.965000 1.186832 3
26.970000 1.061990 0
26.975000 0.785099 0
26.980000 0.440353 0
26.985000 0.112967 0
26.990000 -0.140512 0
26.995000 -0.296967 0
27.000000 -0.358234 4
27.005000 -0.342896 0
27.010000 -0.279889 0
27.015000 -0.200062 0
27.020000 -0.126742 0
27.025000 -0.070648 0
27.030000 -0.031580 0
27.035000 -0.003983 0
27.040000 0.018098 0
27.045000 0.038741 0
27.050000 0.060042 0
27.055000 0.082819 0
27.060000 0.107246 0
27.065000 0.133212 0
27.070000 0.160466 0
27.075000 0.188666 0
27.080000 0.217394 0
27.085000 0.246170 0
27.090000 0.274461 0
27.095000 0.301698 0
27.100000 0.327289 0
27.105000 0.350648 0
27.110000 0.371208 0
27.115000 0.388448 0
27.120000 0.401914 0
27.125000 0.411239 0
27.130000 0.416155 0
27.135000 0.416510 5
27.140000 0.412274 0
27.145000 0.403539 0
27.150000 0.390515 0
27.155000 0.373525 0
27.160000 0.352987 0
27.165000 0.329398 0
27.170000 0.303315 0
27.175000 0.275331 0
27.180000 0.246053 0
27.185000 0.216081 0
27.190000 0.185986 0
27.195000 0.156297 0
27.200000 0.127480 0
27.205000 0.099937 0
27.210000 0.073990 0
27.215000 0.049888 0
27.220000 0.027801 0
27.225000 0.007827 0
27.230000 -0.010001 0
27.235000 -0.025706 0
27.240000 -0.039362 0
27.245000 -0.051078 0
27.250000 -0.060991 0
27.255000 -0.069259 0
27.260000 -0.076048 0
27.265000 -0.081529 0
27.270000 -0.085868 0
27.275000 -0.089225 0
27.280000 -0.091748 0
27.285000 -0.093572 0
27.290000 -0.094818 0
27.295000 -0.095591 0
27.300000 -0.095983 0
27.305000 -0.095927 0
27.310000 -0.095025 0
27.315000 -0.094127 0
27.320000 -0.093234 0
27.325000 -0.092345 0
27.330000 -0.091460 0
27.335000 -0.090580 0
27.340000 -0.089705 0
27.345000 -0.088833 0
27.350000 -0.087966 0
27.355000 -0.087103 0
27.360000 -0.086243 0
27.365000 -0.085386 0
27.370000 -0.084531 0
27.375000 -0.083676 0
27.380000 -0.082816 0
27.385000 -0.081945 0
27.390000 -0.081051 0
27.395000 -0.080116 0
27.400000 -0.079109 0
27.405000 -0.077987 0
27.410000 -0.076681 0
27.415000 -0.075094 0
27.420000 -0.073091 0
27.425000 -0.070488 0
27.430000 -0.067051 0
27.435000 -0.062486 0
27.440000 -0.056448 0
27.445000 -0.048550 0
27.450000 -0.038388 0
27.455000 -0.025577 0
27.460000 -0.009803 0
27.465000 0.009124 0
27.470000 0.031201 0
27.475000 0.056181 0
27.480000 0.083526 0
27.485000 0.112396 0
27.490000 0.141662 0
27.495000 0.169966 0
27.500000 0.195818 0
27.505000 0.217719 0
27.510000 0.234303 0
27.515000 0.244479 0
27.520000 0.247548 1
27.525000 0.243285 0
27.530000 0.231959 0
27.535000 0.214312 0
27.540000 0.191474 0
27.545000 0.164843 0
27.550000 0.135944 0
27.555000 0.106274 0
27.560000 0.077143 0
27.565000 0.049478 0
27.570000 0.023519 0
27.575000 -0.001625 0
27.580000 -0.028416 0
27.585000 -0.060730 0
27.590000 -0.102207 0
27.595000 -0.152783 0
27.600000 -0.204801 0
27.605000 -0.241517 2
27.610000 -0.239782 0
27.615000 -0.175470 0
27.620000 -0.029384 0
27.625000 0.205203 0
27.630000 0.510552 0
27.635000 0.832983 0
27.640000 1.087592 0
27.645000 1.189859 3
27.650000 1.099539 0
27.655000 0.844525 0
27.660000 0.505000 0
27.665000 0.169759 0
27.670000 -0.098180 0
27.675000 -0.270361 0
27.680000 -0.345289 4
27.685000 -0.339585 0
27.690000 -0.281421 0
27.695000 -0.202311 0
27.700000 -0.127311 0
27.705000 -0.068952 0
27.710000 -0.028141 0
27.715000 0.000398 0
27.720000 0.022804 0
27.725000 0.043435 0
27.730000 0.064590 0
27.735000 0.087187 0
27.740000 0.111444 0
27.745000 0.137264 0
27.750000 0.164403 0
27.755000 0.192521 0
27.760000 0.221201 0
27.765000 0.249961 0
27.770000 0.278265 0
27.775000 0.305537 0
27.780000 0.331182 0
27.785000 0.354605 0
27.790000 0.375232 0
27.795000 0.392534 0
27.800000 0.406052 0
27.805000 0.415409 0
27.810000 0.420337 0
27.815000 0.420679 5
27.820000 0.416404 0
27.825000 0.407606 0
27.830000 0.394499 0
27.835000 0.377410 0
27.840000 0.356764 0
27.845000 0.333065 0
27.850000 0.306877 0
27.855000 0.278802 0
27.860000 0.249453 0
27.865000 0.219435 0
27.870000 0.189325 0
27.875000 0.159653 0
27.880000 0.130887 0
27.885000 0.103427 0
27.890000 0.077595 0
27.895000 0.053635 0
27.900000 0.031711 0
27.905000 0.011919 0
27.910000 -0.005716 0
27.915000 -0.021223 0
27.920000 -0.034680 0
27.925000 -0.046201 0
27.930000 -0.055928 0
27.935000 -0.064023 0
27.940000 -0.070653 0
27.945000 -0.075992 0
27.950000 -0.080206 0
27.955000 -0.083456 0
27.960000 -0.085890 0
27.965000 -0.087641 0
27.970000 -0.088830 0
27.975000 -0.089561 0
27.980000 -0.089923 0
27.985000 -0.089856 0
27.990000 -0.088983 0
27.995000 -0.088116 0
28.000000 -0.087252 0
28.005000 -0.086393 0
28.010000 -0.085538 0
28.015000 -0.084688 0
28.020000 -0.083841 0
28.025000 -0.082999 0
28.030000 -0.082161 0
28.035000 -0.081327 0
28.040000 -0.080495 0
28.045000 -0.079667 0
28.050000 -0.078840 0
28.055000 -0.078011 0
28.060000 -0.077176 0
28.065000 -0.076326 0
28.070000 -0.075450 0
28.075000 -0.074525 0
28.080000 -0.073516 0
28.085000 -0.072374 0
28.090000 -0.071020 0
28.095000 -0.069347 0
28.100000 -0.067202 0
28.105000 -0.064385 0
28.110000 -0.060639 0
28.115000 -0.055651 0
28.120000 -0.049054 0
28.125000 -0.040448 0
28.130000 -0.029426 0
28.135000 -0.015619 0
28.140000 0.001255 0
28.145000 0.021323 0
28.150000 0.044500 0
28.155000 0.070429 0
28.160000 0.098453 0
28.165000 0.127605 0
28.170000 0.156645 0
28.175000 0.184135 0
28.180000 0.208547 0
28.185000 0.228402 0
28.190000 0.242418 0
28.195000 0.249644 1
28.200000 0.249566 0
28.205000 0.242171 0
28.210000 0.227945 0
28.215000 0.207822 0
28.220000 0.183081 0
28.225000 0.155212 0
28.230000 0.125762 0
28.235000 0.096181 0
28.240000 0.067640 0
28.245000 0.040797 0
28.250000 0.015411 0
28.255000 -0.010147 0
28.260000 -0.039157 0
28.265000 -0.075748 0
28.270000 -0.122247 0
28.275000 -0.175119 0
28.280000 -0.221861 0
28.285000 -0.241626 2
28.290000 -0.209754 0
28.295000 -0.103716 0
28.300000 0.090380 0
28.305000 0.367749 0
28.310000 0.691507 0
28.315000 0.987741 0
28.320000 1.165428 3
28.325000 1.159121 0
28.330000 0.966635 0
28.335000 0.651336 0
28.340000 0.304738 0
28.345000 0.003930 0
28.350000 -0.208399 0
28.355000 -0.320955 0
28.360000 -0.344089 4
28.365000 -0.302505 0
28.370000 -0.227921 0
28.375000 -0.149209 0
28.380000 -0.084076 0
28.385000 -0.037298 0
