0.000000 1.164894 3
0.005000 1.035078 0
0.010000 0.712525 0
0.015000 0.318324 0
0.020000 -0.031766 0
0.025000 -0.271770 0
0.030000 -0.385032 0
0.035000 -0.388208 4
0.040000 -0.318730 0
0.045000 -0.221115 0
0.050000 -0.130144 0
0.055000 -0.060940 0
0.060000 -0.011998 0
0.065000 0.024931 0
0.070000 0.057181 0
0.075000 0.088759 0
0.080000 0.121061 0
0.085000 0.154140 0
0.090000 0.187499 0
0.095000 0.220427 0
0.100000 0.252117 0
0.105000 0.281723 0
0.110000 0.308400 0
0.115000 0.331341 0
0.120000 0.349820 0
0.125000 0.363229 0
0.130000 0.371108 0
0.135000 0.373177 5
0.140000 0.369345 0
0.145000 0.359721 0
0.150000 0.344604 0
0.155000 0.324473 0
0.160000 0.299954 0
0.165000 0.271795 0
0.170000 0.240823 0
0.175000 0.207903 0
0.180000 0.173903 0
0.185000 0.139652 0
0.190000 0.105910 0
0.195000 0.073345 0
0.200000 0.042510 0
0.205000 0.013838 0
0.210000 -0.012364 0
0.215000 -0.035907 0
0.220000 -0.056712 0
0.225000 -0.074798 0
0.230000 -0.090260 0
0.235000 -0.103257 0
0.240000 -0.113990 0
0.245000 -0.122688 0
0.250000 -0.129592 0
0.255000 -0.134944 0
0.260000 -0.138977 0
0.265000 -0.141908 0
0.270000 -0.143933 0
0.275000 -0.143294 0
0.280000 -0.142206 0
0.285000 -0.141123 0
0.290000 -0.140045 0
0.295000 -0.138971 0
0.300000 -0.137901 0
0.305000 -0.136831 0
0.310000 -0.135758 0
0.315000 -0.134674 0
0.320000 -0.133563 0
0.325000 -0.132399 0
0.330000 -0.131142 0
0.335000 -0.129720 0
0.340000 -0.128027 0
0.345000 -0.125905 0
0.350000 -0.123125 0
0.355000 -0.119379 0
0.360000 -0.114269 0
0.365000 -0.107307 0
0.370000 -0.097938 0
0.375000 -0.085583 0
0.380000 -0.069701 0
0.385000 -0.049891 0
0.390000 -0.025992 0
0.395000 0.001803 0
0.400000 0.032858 0
0.405000 0.066051 0
0.410000 0.099791 0
0.415000 0.132120 0
0.420000 0.160882 0
0.425000 0.183958 0
0.430000 0.199522 0
0.435000 0.206284 1
0.440000 0.203660 0
0.445000 0.191867 0
0.450000 0.171886 0
0.455000 0.145333 0
0.460000 0.114232 0
0.465000 0.080731 0
0.470000 0.046709 0
0.475000 0.013204 0
0.480000 -0.020466 0
0.485000 -0.057523 0
0.490000 -0.103184 0
0.495000 -0.160898 0
0.500000 -0.225543 0
0.505000 -0.278093 0
0.510000 -0.287359 2
0.515000 -0.218579 0
0.520000 -0.044017 0
0.525000 0.243345 0
0.530000 0.608173 0
0.535000 0.957003 0
0.540000 1.162243 3
0.545000 1.129814 0
0.550000 0.868717 0
0.555000 0.485495 0
0.560000 0.109787 0
0.565000 -0.170397 0
0.570000 -0.322696 0
0.575000 -0.355178 4
0.580000 -0.301497 0
0.585000 -0.207390 0
0.590000 -0.112890 0
0.595000 -0.038730 0
0.600000 0.013586 0
0.605000 0.051949 0
0.610000 0.084458 0
0.615000 0.115843 0
0.620000 0.147872 0
0.625000 0.180727 0
0.630000 0.213938 0
0.635000 0.246782 0
0.640000 0.278430 0
0.645000 0.308006 0
0.650000 0.334634 0
0.655000 0.357476 0
0.660000 0.375779 0
0.665000 0.388914 0
0.670000 0.396410 0
0.675000 0.397984 5
0.680000 0.393555 0
0.685000 0.383250 0
0.690000 0.367399 0
0.695000 0.346515 0
0.700000 0.321268 0
0.705000 0.292445 0
0.710000 0.260911 0
0.715000 0.227568 0
0.720000 0.193308 0
0.725000 0.158977 0
0.730000 0.125340 0
0.735000 0.093061 0
0.740000 0.062678 0
0.745000 0.034602 0
0.750000 0.009114 0
0.755000 -0.013632 0
0.760000 -0.033589 0
0.765000 -0.050807 0
0.770000 -0.065412 0
0.775000 -0.077589 0
0.780000 -0.087558 0
0.785000 -0.095564 0
0.790000 -0.101860 0
0.795000 -0.106691 0
0.800000 -0.110292 0
0.805000 -0.112876 0
0.810000 -0.114242 0
0.815000 -0.113299 0
0.820000 -0.112360 0
0.825000 -0.111426 0
0.830000 -0.110495 0
0.835000 -0.109568 0
0.840000 -0.108642 0
0.845000 -0.107713 0
0.850000 -0.106775 0
0.855000 -0.105814 0
0.860000 -0.104809 0
0.865000 -0.103720 0
0.870000 -0.102485 0
0.875000 -0.101003 0
0.880000 -0.099123 0
0.885000 -0.096625 0
0.890000 -0.093207 0
0.895000 -0.088471 0
0.900000 -0.081927 0
0.905000 -0.073007 0
0.910000 -0.061111 0
0.915000 -0.045672 0
0.920000 -0.026256 0
0.925000 -0.002677 0
0.930000 0.024883 0
0.935000 0.055783 0
0.940000 0.088867 0
0.945000 0.122485 0
0.950000 0.154603 0
0.955000 0.182984 0
0.960000 0.205446 0
0.965000 0.220132 0
0.970000 0.225765 1
0.975000 0.221833 0
0.980000 0.208663 0
0.985000 0.187380 0
0.990000 0.159742 0
0.995000 0.127892 0
1.000000 0.094035 0
1.005000 0.059984 0
1.010000 0.026481 0
1.015000 -0.007793 0
1.020000 -0.046896 0
1.025000 -0.096260 0
1.030000 -0.157507 0
1.035000 -0.220978 0
1.040000 -0.262023 2
1.045000 -0.245816 0
1.050000 -0.137819 0
1.055000 0.084268 0
1.060000 0.412512 0
1.065000 0.784726 0
1.070000 1.081925 0
1.075000 1.179430 3
1.080000 1.028813 0
1.085000 0.693150 0
1.090000 0.298846 0
1.095000 -0.040233 0
1.100000 -0.263470 0
1.105000 -0.359274 4
1.110000 -0.348440 0
1.115000 -0.271397 0
1.120000 -0.173110 0
1.125000 -0.085894 0
1.130000 -0.021398 0
1.135000 0.024120 0
1.140000 0.059346 0
1.145000 0.091067 0
1.150000 0.122636 0
1.155000 0.155037 0
1.160000 0.188126 0
1.165000 0.221318 0
1.170000 0.253849 0
1.175000 0.284880 0
1.180000 0.313540 0
1.185000 0.338974 0
1.190000 0.360377 0
1.195000 0.377045 0
1.200000 0.388405 0
1.205000 0.394049 5
1.210000 0.393760 0
1.215000 0.387524 0
1.220000 0.375529 0
1.225000 0.358158 0
1.230000 0.335964 0
1.235000 0.309648 0
1.240000 0.280012 0
1.245000 0.247926 0
1.250000 0.214279 0
1.255000 0.179945 0
1.260000 0.145742 0
1.265000 0.112403 0
1.270000 0.080553 0
1.275000 0.050695 0
1.280000 0.023204 0
1.285000 -0.001672 0
1.290000 -0.023803 0
1.295000 -0.043165 0
1.300000 -0.059826 0
1.305000 -0.073921 0
1.310000 -0.085642 0
1.315000 -0.095213 0
1.320000 -0.102877 0
1.325000 -0.108883 0
1.330000 -0.113472 0
1.335000 -0.116874 0
1.340000 -0.119295 0
1.345000 -0.120544 0
1.350000 -0.119569 0
1.355000 -0.118599 0
1.360000 -0.117634 0
1.365000 -0.116672 0
1.370000 -0.115714 0
1.375000 -0.114756 0
1.380000 -0.113796 0
1.385000 -0.112826 0
1.390000 -0.111832 0
1.395000 -0.110792 0
1.400000 -0.109665 0
1.405000 -0.108388 0
1.410000 -0.106858 0
1.415000 -0.104924 0
1.420000 -0.102363 0
1.425000 -0.098875 0
1.430000 -0.094063 0
1.435000 -0.087441 0
1.440000 -0.078446 0
1.445000 -0.066485 0
1.450000 -0.051000 0
1.455000 -0.031564 0
1.460000 -0.007993 0
1.465000 0.019539 0
1.470000 0.050403 0
1.475000 0.083471 0
1.480000 0.117125 0
1.485000 0.149366 0
1.490000 0.177991 0
1.495000 0.200836 0
1.500000 0.216043 0
1.505000 0.222313 1
1.510000 0.219086 0
1.515000 0.206627 0
1.520000 0.185989 0
1.525000 0.158863 0
1.530000 0.127344 0
1.535000 0.093618 0
1.540000 0.059546 0
1.545000 0.026020 0
1.550000 -0.007970 0
1.555000 -0.046107 0
1.560000 -0.093788 0
1.565000 -0.153570 0
1.570000 -0.217904 0
1.575000 -0.264564 2
1.580000 -0.260106 0
1.585000 -0.169612 0
1.590000 0.031966 0
1.595000 0.343769 0
1.600000 0.715494 0
1.605000 1.038037 0
1.610000 1.182985 3
1.615000 1.081358 0
1.620000 0.773746 0
1.625000 0.380693 0
1.630000 0.024297 0
1.635000 -0.223292 0
1.640000 -0.342289 0
1.645000 -0.348558 4
1.650000 -0.280116 0
1.655000 -0.182743 0
1.660000 -0.092222 0
1.665000 -0.023849 0
1.670000 0.024227 0
1.675000 0.060554 0
1.680000 0.092499 0
1.685000 0.123951 0
1.690000 0.156184 0
1.695000 0.189171 0
1.700000 0.222362 0
1.705000 0.255010 0
1.710000 0.286275 0
1.715000 0.315284 0
1.720000 0.341169 0
1.725000 0.363113 0
1.730000 0.380390 0
1.735000 0.392404 0
1.740000 0.398724 0
1.745000 0.399106 5
1.750000 0.393512 0
1.755000 0.382109 0
1.760000 0.365261 0
1.765000 0.343509 0
1.770000 0.317543 0
1.775000 0.288163 0
1.780000 0.256240 0
1.785000 0.222671 0
1.790000 0.188336 0
1.795000 0.154066 0
1.800000 0.120606 0
1.805000 0.088595 0
1.810000 0.058550 0
1.815000 0.030857 0
1.820000 0.005775 0
1.825000 -0.016558 0
1.830000 -0.036112 0
1.835000 -0.052949 0
1.840000 -0.067204 0
1.845000 -0.079066 0
1.850000 -0.088759 0
1.855000 -0.096528 0
1.860000 -0.102623 0
1.865000 -0.107289 0
1.870000 -0.110755 0
1.875000 -0.113231 0
1.880000 -0.114525 0
1.885000 -0.113581 0
1.890000 -0.112640 0
1.895000 -0.111705 0
1.900000 -0.110773 0
1.905000 -0.109844 0
1.910000 -0.108916 0
1.915000 -0.107985 0
1.920000 -0.107043 0
1.925000 -0.106078 0
1.930000 -0.105066 0
1.935000 -0.103967 0
1.940000 -0.102714 0
1.945000 -0.101207 0
1.950000 -0.099288 0
1.955000 -0.096736 0
1.960000 -0.093242 0
1.965000 -0.088406 0
1.970000 -0.081734 0
1.975000 -0.072659 0
1.980000 -0.060583 0
1.985000 -0.044949 0
1.990000 -0.025333 0
1.995000 -0.001568 0
2.000000 0.026149 0
2.005000 0.057159 0
2.010000 0.090293 0
2.015000 0.123895 0
2.020000 0.155932 0
2.025000 0.184180 0
2.030000 0.206474 0
2.035000 0.220979 0
2.040000 0.226441 1
2.045000 0.222365 0
2.050000 0.209090 0
2.055000 0.187740 0
2.060000 0.160069 0
2.065000 0.128209 0
2.070000 0.094349 0
2.075000 0.060296 0
2.080000 0.026791 0
2.085000 -0.007460 0
2.090000 -0.046465 0
2.095000 -0.095634 0
2.100000 -0.156702 0
2.105000 -0.220338 0
2.110000 -0.262343 2
2.115000 -0.248229 0
2.120000 -0.143499 0
2.125000 0.074612 0
2.130000 0.399656 0
2.135000 0.772128 0
2.140000 1.075391 0
2.145000 1.184012 3
2.150000 1.043785 0
2.155000 0.712204 0
2.160000 0.317885 0
2.165000 -0.021690 0
2.170000 -0.243994 0
2.175000 -0.337391 4
2.180000 -0.323725 0
2.185000 -0.244874 0
2.190000 -0.146674 0
2.195000 -0.061074 0
2.200000 0.001415 0
2.205000 0.045445 0
2.210000 0.079928 0
2.215000 0.111430 0
2.220000 0.143012 0
2.225000 0.175464 0
2.230000 0.208541 0
2.235000 0.241601 0
2.240000 0.273842 0
2.245000 0.304393 0
2.250000 0.332361 0
2.255000 0.356875 0
2.260000 0.377129 0
2.265000 0.392430 0
2.270000 0.402229 0
2.275000 0.406159 5
2.280000 0.404054 0
2.285000 0.395961 0
2.290000 0.382135 0
2.295000 0.363028 0
2.300000 0.339262 0
2.305000 0.311596 0
2.310000 0.280881 0
2.315000 0.248024 0
2.320000 0.213936 0
2.325000 0.179493 0
2.330000 0.145503 0
2.335000 0.112674 0
2.340000 0.081593 0
2.345000 0.052718 0
2.350000 0.026373 0
2.355000 0.002754 0
2.360000 -0.018061 0
2.365000 -0.036098 0
2.370000 -0.051462 0
2.375000 -0.064327 0
2.380000 -0.074908 0
2.385000 -0.083448 0
2.390000 -0.090201 0
2.395000 -0.095420 0
2.400000 -0.099344 0
2.405000 -0.102197 0
2.410000 -0.103760 0
2.415000 -0.102869 0
2.420000 -0.101983 0
2.425000 -0.101100 0
2.430000 -0.100222 0
2.435000 -0.099346 0
2.440000 -0.098471 0
2.445000 -0.097595 0
2.450000 -0.096710 0
2.455000 -0.095806 0
2.460000 -0.094861 0
2.465000 -0.093839 0
2.470000 -0.092680 0
2.475000 -0.091290 0
2.480000 -0.089524 0
2.485000 -0.087169 0
2.490000 -0.083929 0
2.495000 -0.079416 0
2.500000 -0.073141 0
2.505000 -0.064537 0
2.510000 -0.052996 0
2.515000 -0.037936 0
2.520000 -0.018902 0
2.525000 0.004319 0
2.530000 0.031576 0
2.535000 0.062254 0
2.540000 0.095212 0
2.545000 0.128808 0
2.550000 0.160996 0
2.555000 0.189513 0
2.560000 0.212143 0
2.565000 0.226990 0
2.570000 0.232746 1
2.575000 0.228876 0
2.580000 0.215705 0
2.585000 0.194366 0
2.590000 0.166643 0
2.595000 0.134710 0
2.600000 0.100793 0
2.605000 0.066717 0
2.610000 0.033184 0
2.615000 -0.001235 0
2.620000 -0.040758 0
2.625000 -0.090846 0
2.630000 -0.152697 0
2.635000 -0.215617 0
2.640000 -0.253689 2
2.645000 -0.231278 0
2.650000 -0.113934 0
2.655000 0.119099 0
2.660000 0.455578 0
2.665000 0.826093 0
2.670000 1.106090 0
2.675000 1.174093 3
2.680000 0.995195 0
2.685000 0.645535 0
2.690000 0.252577 0
2.695000 -0.075897 0
2.700000 -0.285869 0
2.705000 -0.369894 4
2.710000 -0.350991 0
2.715000 -0.270322 0
2.720000 -0.171948 0
2.725000 -0.086285 0
2.730000 -0.023364 0
2.735000 0.021221 0
2.740000 0.056097 0
2.745000 0.087773 0
2.750000 0.119398 0
2.755000 0.151862 0
2.760000 0.184991 0
2.765000 0.218195 0
2.770000 0.250714 0
2.775000 0.281716 0
2.780000 0.310340 0
2.785000 0.335739 0
2.790000 0.357119 0
2.795000 0.373782 0
2.800000 0.385163 0
2.805000 0.390859 5
2.810000 0.390653 0
2.815000 0.384530 0
2.820000 0.372672 0
2.825000 0.355454 0
2.830000 0.333422 0
2.835000 0.307262 0
2.840000 0.277767 0
2.845000 0.245795 0
2.850000 0.212227 0
2.855000 0.177930 0
2.860000 0.143717 0
2.865000 0.110319 0
2.870000 0.078363 0
2.875000 0.048355 0
2.880000 0.020678 0
2.885000 -0.004413 0
2.890000 -0.026781 0
2.895000 -0.046392 0
2.900000 -0.063304 0
2.905000 -0.077647 0
2.910000 -0.089603 0
2.915000 -0.099394 0
2.920000 -0.107257 0
2.925000 -0.113439 0
2.930000 -0.118180 0
2.935000 -0.121710 0
2.940000 -0.124236 0
2.945000 -0.125551 0
2.950000 -0.124551 0
2.955000 -0.123557 0
2.960000 -0.122567 0
2.965000 -0.121581 0
2.970000 -0.120598 0
2.975000 -0.119617 0
2.980000 -0.118635 0
2.985000 -0.117644 0
2.990000 -0.116633 0
2.995000 -0.115582 0
3.000000 -0.114455 0
3.005000 -0.113195 0
3.010000 -0.111709 0
3.015000 -0.109859 0
3.020000 -0.107443 0
3.025000 -0.104183 0
3.030000 -0.099707 0
3.035000 -0.093556 0
3.040000 -0.085188 0
3.045000 -0.074019 0
3.050000 -0.059479 0
3.055000 -0.041101 0
3.060000 -0.018630 0
3.065000 0.007871 0
3.070000 0.037910 0
3.075000 0.070509 0
3.080000 0.104201 0
3.085000 0.137102 0
3.090000 0.167068 0
3.095000 0.191917 0
3.100000 0.209691 0
3.105000 0.218907 1
3.110000 0.218766 0
3.115000 0.209264 0
3.120000 0.191198 0
3.125000 0.166057 0
3.130000 0.135809 0
3.135000 0.102627 0
3.140000 0.068523 0
3.145000 0.034811 0
3.150000 0.001287 0
3.155000 -0.034706 0
3.160000 -0.078197 0
3.165000 -0.133549 0
3.170000 -0.197926 0
3.175000 -0.255003 0
3.180000 -0.275066 2
3.185000 -0.222823 0
3.190000 -0.068095 0
3.195000 0.201207 0
3.200000 0.558183 0
3.205000 0.917611 0
3.210000 1.152006 0
3.215000 1.158524 3
3.220000 0.928732 0
3.225000 0.555757 0
3.230000 0.171628 0
3.235000 -0.126514 0
3.240000 -0.298316 0
3.245000 -0.346881 4
3.250000 -0.303008 0
3.255000 -0.211936 0
3.260000 -0.115790 0
3.265000 -0.038452 0
3.270000 0.016389 0
3.275000 0.056030 0
3.280000 0.088911 0
3.285000 0.120251 0
3.290000 0.152128 0
3.295000 0.184860 0
3.300000 0.218023 0
3.305000 0.250911 0
3.310000 0.282699 0
3.315000 0.312510 0
3.320000 0.339461 0
3.325000 0.362704 0
3.330000 0.381471 0
3.335000 0.395113 0
3.340000 0.403142 0
3.345000 0.405252 5
3.350000 0.401342 0
3.355000 0.391522 0
3.360000 0.376104 0
3.365000 0.355589 0
3.370000 0.330638 0
3.375000 0.302033 0
3.380000 0.270641 0
3.385000 0.237366 0
3.390000 0.203106 0
3.395000 0.168717 0
3.400000 0.134975 0
3.405000 0.102554 0
3.410000 0.072003 0
3.415000 0.043744 0
3.420000 0.018066 0
3.425000 -0.004868 0
3.430000 -0.025006 0
3.435000 -0.042393 0
3.440000 -0.057154 0
3.445000 -0.069470 0
3.450000 -0.079563 0
3.455000 -0.087679 0
3.460000 -0.094069 0
3.465000 -0.098983 0
3.470000 -0.102656 0
3.475000 -0.105304 0
3.480000 -0.106724 0
3.485000 -0.105818 0
3.490000 -0.104917 0
3.495000 -0.104019 0
3.500000 -0.103126 0
3.505000 -0.102235 0
3.510000 -0.101346 0
3.515000 -0.100453 0
3.520000 -0.099551 0
3.525000 -0.098627 0
3.530000 -0.097658 0
3.535000 -0.096604 0
3.540000 -0.095404 0
3.545000 -0.093954 0
3.550000 -0.092103 0
3.555000 -0.089630 0
3.560000 -0.086228 0
3.565000 -0.081498 0
3.570000 -0.074944 0
3.575000 -0.065994 0
3.580000 -0.054044 0
3.585000 -0.038527 0
3.590000 -0.019014 0
3.595000 0.004674 0
3.600000 0.032340 0
3.605000 0.063320 0
3.610000 0.096431 0
3.615000 0.129997 0
3.620000 0.161959 0
3.625000 0.190066 0
3.630000 0.212134 0
3.635000 0.226320 0
3.640000 0.231379 1
3.645000 0.226846 0
3.650000 0.213098 0
3.655000 0.191312 0
3.660000 0.163289 0
3.665000 0.131200 0
3.670000 0.097246 0
3.675000 0.063202 0
3.680000 0.029690 0
3.685000 -0.004819 0
3.690000 -0.044609 0
3.695000 -0.095074 0
3.700000 -0.157153 0
3.705000 -0.219839 0
3.710000 -0.257092 2
3.715000 -0.233455 0
3.720000 -0.114848 0
3.725000 0.119095 0
3.730000 0.455899 0
3.735000 0.826458 0
3.740000 1.107132 0
3.745000 1.177117 3
3.750000 1.000716 0
3.755000 0.652450 0
3.760000 0.259214 0
3.765000 -0.070893 0
3.770000 -0.283154 0
3.775000 -0.369482 4
3.780000 -0.352359 0
3.785000 -0.272574 0
3.790000 -0.174185 0
3.795000 -0.087981 0
3.800000 -0.024452 0
3.805000 0.020543 0
3.810000 0.055600 0
3.815000 0.087311 0
3.820000 0.118911 0
3.825000 0.151341 0
3.830000 0.184451 0
3.835000 0.217662 0
3.840000 0.250221 0
3.845000 0.281300 0
3.850000 0.310043 0
3.855000 0.335601 0
3.860000 0.357182 0
3.865000 0.374085 0
3.870000 0.385739 0
3.875000 0.391733 0
3.880000 0.391842 5
3.885000 0.386038 0
3.890000 0.374494 0
3.895000 0.357572 0
3.900000 0.335807 0
3.905000 0.309876 0
3.910000 0.280563 0
3.915000 0.248722 0
3.920000 0.215230 0
3.925000 0.180952 0
3.930000 0.146705 0
3.935000 0.113223 0
3.940000 0.081140 0
3.945000 0.050970 0
3.950000 0.023101 0
3.955000 -0.002201 0
3.960000 -0.024789 0
3.965000 -0.044625 0
3.970000 -0.061759 0
3.975000 -0.076314 0
3.980000 -0.088470 0
3.985000 -0.098442 0
3.990000 -0.106469 0
3.995000 -0.112795 0
4.000000 -0.117661 0
4.005000 -0.121296 0
4.010000 -0.123911 0
4.015000 -0.125289 0
4.020000 -0.124290 0
4.025000 -0.123297 0
4.030000 -0.122308 0
4.035000 -0.121324 0
4.040000 -0.120343 0
4.045000 -0.119363 0
4.050000 -0.118383 0
4.055000 -0.117395 0
4.060000 -0.116390 0
4.065000 -0.115346 0
4.070000 -0.114233 0
4.075000 -0.112993 0
4.080000 -0.111542 0
4.085000 -0.109748 0
4.090000 -0.107416 0
4.095000 -0.104281 0
4.100000 -0.099983 0
4.105000 -0.094075 0
4.110000 -0.086028 0
4.115000 -0.075259 0
4.120000 -0.061197 0
4.125000 -0.043356 0
4.130000 -0.021445 0
4.135000 0.004519 0
4.140000 0.034112 0
4.145000 0.066427 0
4.150000 0.100067 0
4.155000 0.133206 0
4.160000 0.163732 0
4.165000 0.189460 0
4.170000 0.208388 0
4.175000 0.218954 0
4.180000 0.220249 1
4.185000 0.212145 0
4.190000 0.195321 0
4.195000 0.171163 0
4.200000 0.141576 0
4.205000 0.108716 0
4.210000 0.074641 0
4.215000 0.040825 0
4.220000 0.007376 0
4.225000 -0.027907 0
4.230000 -0.069749 0
4.235000 -0.122995 0
4.240000 -0.186567 0
4.245000 -0.246728 0
4.250000 -0.275779 2
4.255000 -0.238759 0
4.260000 -0.103883 0
4.265000 0.145371 0
4.270000 0.490994 0
4.275000 0.858902 0
4.280000 1.125973 0
4.285000 1.178890 3
4.290000 0.989451 0
4.295000 0.634849 0
4.300000 0.242778 0
4.305000 -0.081356 0
4.310000 -0.286020 0
4.315000 -0.365353 4
4.320000 -0.343260 0
4.325000 -0.261214 0
4.330000 -0.162913 0
4.335000 -0.077994 0
4.340000 -0.015816 0
4.345000 0.028309 0
4.350000 0.062985 0
4.355000 0.094601 0
4.360000 0.126213 0
4.365000 0.158668 0
4.370000 0.191777 0
4.375000 0.224944 0
4.380000 0.257411 0
4.385000 0.288346 0
4.390000 0.316891 0
4.395000 0.342201 0
4.400000 0.363487 0
4.405000 0.380056 0
4.410000 0.391344 0
4.415000 0.396952 5
4.420000 0.396668 0
4.425000 0.390474 0
4.430000 0.378557 0
4.435000 0.361290 0
4.440000 0.339218 0
4.445000 0.313027 0
4.450000 0.283505 0
4.455000 0.251509 0
4.460000 0.217918 0
4.465000 0.183595 0
4.470000 0.149352 0
4.475000 0.115917 0
4.480000 0.083918 0
4.485000 0.053860 0
4.490000 0.026125 0
4.495000 0.000970 0
4.500000 -0.021466 0
4.505000 -0.041149 0
4.510000 -0.058136 0
4.515000 -0.072553 0
4.520000 -0.084584 0
4.525000 -0.094446 0
4.530000 -0.102378 0
4.535000 -0.108624 0
4.540000 -0.113426 0
4.545000 -0.117011 0
4.550000 -0.119588 0
4.555000 -0.120947 0
4.560000 -0.119970 0
4.565000 -0.118998 0
4.570000 -0.118031 0
4.575000 -0.117068 0
4.580000 -0.116108 0
4.585000 -0.115150 0
4.590000 -0.114190 0
4.595000 -0.113222 0
4.600000 -0.112235 0
4.605000 -0.111208 0
4.610000 -0.110108 0
4.615000 -0.108878 0
4.620000 -0.107429 0
4.625000 -0.105625 0
4.630000 -0.103269 0
4.635000 -0.100087 0
4.640000 -0.095715 0
4.645000 -0.089700 0
4.650000 -0.081505 0
4.655000 -0.070550 0
4.660000 -0.056264 0
4.665000 -0.038171 0
4.670000 -0.015998 0
4.675000 0.010215 0
4.680000 0.040010 0
4.685000 0.072447 0
4.690000 0.106097 0
4.695000 0.139108 0
4.700000 0.169354 0
4.705000 0.194654 0
4.710000 0.213028 0
4.715000 0.222953 0
4.720000 0.223570 1
4.725000 0.214811 0
4.730000 0.197404 0
4.735000 0.172783 0
4.740000 0.142877 0
4.745000 0.109850 0
4.750000 0.075739 0
4.755000 0.041949 0
4.760000 0.008458 0
4.765000 -0.027127 0
4.770000 -0.069662 0
4.775000 -0.123810 0
4.780000 -0.187786 0
4.785000 -0.246805 0
4.790000 -0.272344 2
4.795000 -0.229303 0
4.800000 -0.086535 0
4.805000 0.170770 0
4.810000 0.521184 0
4.815000 0.886271 0
4.820000 1.141052 0
4.825000 1.176064 3
4.830000 0.970496 0
4.835000 0.607826 0
4.840000 0.218387 0
4.845000 -0.095186 0
4.850000 -0.285871 0
4.855000 -0.351670 4
4.860000 -0.319612 0
4.865000 -0.233098 0
4.870000 -0.135460 0
4.875000 -0.053926 0
4.880000 0.004769 0
4.885000 0.046657 0
4.890000 0.080371 0
4.895000 0.111785 0
4.900000 0.143485 0
4.905000 0.176054 0
4.910000 0.209180 0
4.915000 0.242210 0
4.920000 0.274353 0
4.925000 0.304751 0
4.930000 0.332532 0
4.935000 0.356846 0
4.940000 0.376912 0
4.945000 0.392054 0
4.950000 0.401744 0
4.955000 0.405626 5
4.960000 0.403539 0
4.965000 0.395529 0
4.970000 0.381843 0
4.975000 0.362918 0
4.980000 0.339360 0
4.985000 0.311902 0
4.990000 0.281377 0
4.995000 0.248667 0
5.000000 0.214665 0
5.005000 0.180234 0
5.010000 0.146170 0
5.015000 0.113179 0
5.020000 0.081850 0
5.025000 0.052648 0
5.030000 0.025910 0
5.035000 0.001846 0
5.040000 -0.019450 0
5.045000 -0.037985 0
5.050000 -0.053851 0
5.055000 -0.067204 0
5.060000 -0.078248 0
5.065000 -0.087218 0
5.070000 -0.094359 0
5.075000 -0.099920 0
5.080000 -0.104141 0
5.085000 -0.107243 0
5.090000 -0.109428 0
5.095000 -0.108958 0
5.100000 -0.108041 0
5.105000 -0.107129 0
5.110000 -0.106220 0
5.115000 -0.105315 0
5.120000 -0.104413 0
5.125000 -0.103509 0
5.130000 -0.102601 0
5.135000 -0.101679 0
5.140000 -0.100726 0
5.145000 -0.099714 0
5.150000 -0.098595 0
5.155000 -0.097294 0
5.160000 -0.095691 0
5.165000 -0.093609 0
5.170000 -0.090801 0
5.175000 -0.086928 0
5.180000 -0.081558 0
5.185000 -0.074172 0
5.190000 -0.064188 0
5.195000 -0.051014 0
5.200000 -0.034127 0
5.205000 -0.013177 0
5.210000 0.011898 0
5.215000 0.040758 0
5.220000 0.072583 0
5.225000 0.106045 0
5.230000 0.139356 0
5.235000 0.170406 0
5.240000 0.196966 0
5.245000 0.216954 0
5.250000 0.228698 0
5.255000 0.231173 1
5.260000 0.224140 0
5.265000 0.208191 0
5.270000 0.184664 0
5.275000 0.155452 0
5.280000 0.122736 0
5.285000 0.088637 0
5.290000 0.054720 0
5.295000 0.021223 0
5.300000 -0.013927 0
5.305000 -0.055432 0
5.310000 -0.108302 0
5.315000 -0.171768 0
5.320000 -0.232243 0
5.325000 -0.261777 2
5.330000 -0.224843 0
5.335000 -0.089120 0
5.340000 0.161969 0
5.345000 0.509245 0
5.350000 0.875785 0
5.355000 1.135539 0
5.360000 1.175689 3
5.365000 0.974236 0
5.370000 0.614651 0
5.375000 0.223664 0
5.380000 -0.096558 0
5.385000 -0.297095 0
5.390000 -0.373338 4
5.395000 -0.349533 0
5.400000 -0.266906 0
5.405000 -0.168575 0
5.410000 -0.083678 0
5.415000 -0.021404 0
5.420000 0.022868 0
5.425000 0.057651 0
5.430000 0.089311 0
5.435000 0.120927 0
5.440000 0.153376 0
5.445000 0.186490 0
5.450000 0.219689 0
5.455000 0.252228 0
5.460000 0.283289 0
5.465000 0.312023 0
5.470000 0.337593 0
5.475000 0.359215 0
5.480000 0.376194 0
5.485000 0.387964 0
5.490000 0.394114 0
5.495000 0.394417 5
5.500000 0.388839 0
5.505000 0.377541 0
5.510000 0.360875 0
5.515000 0.339361 0
5.520000 0.313661 0
5.525000 0.284546 0
5.530000 0.252855 0
5.535000 0.219456 0
5.540000 0.185206 0
5.545000 0.150918 0
5.550000 0.117327 0
5.555000 0.085070 0
5.560000 0.054666 0
5.565000 0.026515 0
5.570000 0.000893 0
5.575000 -0.022044 0
5.580000 -0.042242 0
5.585000 -0.059742 0
5.590000 -0.074656 0
5.595000 -0.087155 0
5.600000 -0.097449 0
5.605000 -0.105770 0
5.610000 -0.112359 0
5.615000 -0.117457 0
5.620000 -0.121293 0
5.625000 -0.124077 0
5.630000 -0.125575 0
5.635000 -0.124575 0
5.640000 -0.123580 0
5.645000 -0.122590 0
5.650000 -0.121605 0
5.655000 -0.120623 0
5.660000 -0.119643 0
5.665000 -0.118663 0
5.670000 -0.117678 0
5.675000 -0.116677 0
5.680000 -0.115646 0
5.685000 -0.114554 0
5.690000 -0.113353 0
5.695000 -0.111969 0
5.700000 -0.110283 0
5.705000 -0.108123 0
5.710000 -0.105246 0
5.715000 -0.101324 0
5.720000 -0.095940 0
5.725000 -0.088591 0
5.730000 -0.078713 0
5.735000 -0.065731 0
5.740000 -0.049126 0
5.745000 -0.028541 0
5.750000 -0.003879 0
5.755000 0.024579 0
5.760000 0.056101 0
5.765000 0.089468 0
5.770000 0.123007 0
5.775000 0.154708 0
5.780000 0.182409 0
5.785000 0.204036 0
5.790000 0.217857 0
5.795000 0.222712 1
5.800000 0.218174 0
5.805000 0.204613 0
5.810000 0.183144 0
5.815000 0.155477 0
5.820000 0.123679 0
5.825000 0.089873 0
5.830000 0.055830 0
5.835000 0.022337 0
5.840000 -0.011710 0
5.845000 -0.050003 0
5.850000 -0.097820 0
5.855000 -0.157596 0
5.860000 -0.221976 0
5.865000 -0.269445 2
5.870000 -0.267525 0
5.875000 -0.182001 0
5.880000 0.012365 0
5.885000 0.317001 0
5.890000 0.687192 0
5.895000 1.020722 0
5.900000 1.190772 3
5.905000 1.118140 0
5.910000 0.828038 0
5.915000 0.437542 0
5.920000 0.073633 0
5.925000 -0.184915 0
5.930000 -0.314006 0
5.935000 -0.327410 4
5.940000 -0.262509 0
5.945000 -0.165784 0
5.950000 -0.074522 0
5.955000 -0.005297 0
5.960000 0.043231 0
5.965000 0.079659 0
5.970000 0.111542 0
5.975000 0.142894 0
5.980000 0.175030 0
5.985000 0.207925 0
5.990000 0.241023 0
5.995000 0.273561 0
6.000000 0.304687 0
6.005000 0.333513 0
6.010000 0.359159 0
6.015000 0.380800 0
6.020000 0.397702 0
6.025000 0.409271 0
6.030000 0.415079 5
6.035000 0.414896 0
6.040000 0.408697 0
6.045000 0.396671 0
6.050000 0.379204 0
6.055000 0.356866 0
6.060000 0.330368 0
6.065000 0.300536 0
6.070000 0.268258 0
6.075000 0.234443 0
6.080000 0.199984 0
6.085000 0.165709 0
6.090000 0.132362 0
6.095000 0.100571 0
6.100000 0.070837 0
6.105000 0.043531 0
6.110000 0.018891 0
6.115000 -0.002966 0
6.120000 -0.022029 0
6.125000 -0.038379 0
6.130000 -0.052164 0
6.135000 -0.063588 0
6.140000 -0.072884 0
6.145000 -0.080303 0
6.150000 -0.086099 0
6.155000 -0.090515 0
6.160000 -0.093781 0
6.165000 -0.096104 0
6.170000 -0.095711 0
6.175000 -0.094860 0
6.180000 -0.094013 0
6.185000 -0.093170 0
6.190000 -0.092330 0
6.195000 -0.091492 0
6.200000 -0.090653 0
6.205000 -0.089809 0
6.210000 -0.088951 0
6.215000 -0.088061 0
6.220000 -0.087111 0
6.225000 -0.086052 0
6.230000 -0.084804 0
6.235000 -0.083246 0
6.240000 -0.081195 0
6.245000 -0.078392 0
6.250000 -0.074488 0
6.255000 -0.069035 0
6.260000 -0.061500 0
6.265000 -0.051284 0
6.270000 -0.037788 0
6.275000 -0.020494 0
6.280000 0.000927 0
6.285000 0.026493 0
6.290000 0.055793 0
6.295000 0.087918 0
6.300000 0.121437 0
6.305000 0.154465 0
6.310000 0.184814 0
6.315000 0.210221 0
6.320000 0.228625 0
6.325000 0.238439 0
6.330000 0.238777 1
6.335000 0.229583 0
6.340000 0.211645 0
6.345000 0.186479 0
6.350000 0.156114 0
6.355000 0.122793 0
6.360000 0.088581 0
6.365000 0.054793 0
6.370000 0.021100 0
6.375000 -0.015439 0
6.380000 -0.060126 0
6.385000 -0.117031 0
6.390000 -0.181811 0
6.395000 -0.235535 0
6.400000 -0.246017 2
6.405000 -0.176946 0
6.410000 0.000541 0
6.415000 0.292791 0
6.420000 0.659956 0
6.425000 1.000404 0
6.430000 1.181189 3
6.435000 1.118093 0
6.440000 0.836427 0
6.445000 0.448092 0
6.450000 0.078816 0
6.455000 -0.190262 0
6.460000 -0.331698 0
6.465000 -0.356079 4
6.470000 -0.298028 0
6.475000 -0.202852 0
6.480000 -0.109114 0
6.485000 -0.036073 0
6.490000 0.015501 0
6.495000 0.053553 0
6.500000 0.085984 0
6.505000 0.117366 0
6.510000 0.149398 0
6.515000 0.182249 0
6.520000 0.215452 0
6.525000 0.248296 0
6.530000 0.279964 0
6.535000 0.309595 0
6.540000 0.336324 0
6.545000 0.359325 0
6.550000 0.377849 0
6.555000 0.391272 0
6.560000 0.399121 0
6.565000 0.401102 5
6.570000 0.397124 0
6.575000 0.387295 0
6.580000 0.371925 0
6.585000 0.351503 0
6.590000 0.326676 0
6.595000 0.298208 0
6.600000 0.266947 0
6.605000 0.233778 0
6.610000 0.199584 0
6.615000 0.165206 0
6.620000 0.131413 0
6.625000 0.098874 0
6.630000 0.068141 0
6.635000 0.039638 0
6.640000 0.013665 0
6.645000 -0.009604 0
6.650000 -0.030105 0
6.655000 -0.047870 0
6.660000 -0.063010 0
6.665000 -0.075695 0
6.670000 -0.086138 0
6.675000 -0.094575 0
6.680000 -0.101255 0
6.685000 -0.106422 0
6.690000 -0.110311 0
6.695000 -0.113137 0
6.700000 -0.114674 0
6.705000 -0.113729 0
6.710000 -0.112788 0
6.715000 -0.111852 0
6.720000 -0.110919 0
6.725000 -0.109991 0
6.730000 -0.109064 0
6.735000 -0.108136 0
6.740000 -0.107201 0
6.745000 -0.106249 0
6.750000 -0.105262 0
6.755000 -0.104208 0
6.760000 -0.103035 0
6.765000 -0.101657 0
6.770000 -0.099947 0
6.775000 -0.097714 0
6.780000 -0.094695 0
6.785000 -0.090533 0
6.790000 -0.084782 0
6.795000 -0.076909 0
6.800000 -0.066328 0
6.805000 -0.052457 0
6.810000 -0.034801 0
6.815000 -0.013055 0
6.820000 0.012774 0
6.825000 0.042266 0
6.830000 0.074514 0
6.835000 0.108109 0
6.840000 0.141207 0
6.845000 0.171669 0
6.850000 0.197287 0
6.855000 0.216039 0
6.860000 0.226353 0
6.865000 0.227329 1
6.870000 0.218862 0
6.875000 0.201666 0
6.880000 0.177168 0
6.885000 0.147315 0
6.890000 0.114291 0
6.895000 0.080160 0
6.900000 0.046349 0
6.905000 0.012830 0
6.910000 -0.022832 0
6.915000 -0.065570 0
6.920000 -0.120037 0
6.925000 -0.184173 0
6.930000 -0.242580 0
6.935000 -0.266021 2
6.940000 -0.218956 0
6.945000 -0.070351 0
6.950000 0.193410 0
6.955000 0.547718 0
6.960000 0.909373 0
6.965000 1.150587 0
6.970000 1.165311 3
6.975000 0.941677 0
6.980000 0.571151 0
6.985000 0.185492 0
6.990000 -0.116656 0
6.995000 -0.293233 0
7.000000 -0.346073 4
7.005000 -0.305055 0
7.010000 -0.215013 0
7.015000 -0.118437 0
7.020000 -0.040062 0
7.025000 0.015690 0
7.030000 0.055839 0
7.035000 0.088893 0
7.040000 0.120232 0
7.045000 0.152054 0
7.050000 0.184738 0
7.055000 0.217886 0
7.060000 0.250802 0
7.065000 0.282671 0
7.070000 0.312618 0
7.075000 0.339764 0
7.080000 0.363258 0
7.085000 0.382329 0
7.090000 0.396324 0
7.095000 0.404741 0
7.100000 0.407263 5
7.105000 0.403776 0
7.110000 0.394372 0
7.115000 0.379350 0
7.120000 0.359196 0
7.125000 0.334556 0
7.130000 0.306204 0
7.135000 0.274998 0
7.140000 0.241836 0
7.145000 0.207618 0
7.150000 0.173200 0
7.155000 0.139365 0
7.160000 0.106794 0
7.165000 0.076046 0
7.170000 0.047553 0
7.175000 0.021616 0
7.180000 -0.001592 0
7.185000 -0.022008 0
7.190000 -0.039670 0
7.195000 -0.054694 0
7.200000 -0.067256 0
7.205000 -0.077575 0
7.210000 -0.085893 0
7.215000 -0.092462 0
7.220000 -0.097530 0
7.225000 -0.101334 0
7.230000 -0.104091 0
7.235000 -0.105589 0
7.240000 -0.104689 0
7.245000 -0.103793 0
7.250000 -0.102902 0
7.255000 -0.102014 0
7.260000 -0.101129 0
7.265000 -0.100246 0
7.270000 -0.099360 0
7.275000 -0.098466 0
7.280000 -0.097551 0
7.285000 -0.096596 0
7.290000 -0.095562 0
7.295000 -0.094392 0
7.300000 -0.092990 0
7.305000 -0.091211 0
7.310000 -0.088845 0
7.315000 -0.085601 0
7.320000 -0.081092 0
7.325000 -0.074838 0
7.330000 -0.066278 0
7.335000 -0.054809 0
7.340000 -0.039857 0
7.345000 -0.020965 0
7.350000 0.002088 0
7.355000 0.029172 0
7.360000 0.059698 0
7.365000 0.092569 0
7.370000 0.126186 0
7.375000 0.158544 0
7.380000 0.187415 0
7.385000 0.210592 0
7.390000 0.226165 0
7.395000 0.232781 1
7.400000 0.229838 0
7.405000 0.217575 0
7.410000 0.197036 0
7.415000 0.169930 0
7.420000 0.138376 0
7.425000 0.104594 0
7.430000 0.070469 0
7.435000 0.036893 0
7.440000 0.002797 0
7.445000 -0.035622 0
7.450000 -0.083832 0
7.455000 -0.144157 0
7.460000 -0.208285 0
7.465000 -0.252884 2
7.470000 -0.243616 0
7.475000 -0.145370 0
7.480000 0.065934 0
7.485000 0.386128 0
7.490000 0.758559 0
7.495000 1.067896 0
7.500000 1.186412 3
7.505000 1.055462 0
7.510000 0.729098 0
7.515000 0.334724 0
7.520000 -0.008592 0
7.525000 -0.236048 0
7.530000 -0.334349 4
7.535000 -0.324267 0
7.540000 -0.247128 0
7.545000 -0.148959 0
7.550000 -0.062508 0
7.555000 0.000895 0
7.560000 0.045500 0
7.565000 0.080214 0
7.570000 0.111750 0
7.575000 0.143294 0
7.580000 0.175702 0
7.585000 0.208756 0
7.590000 0.241824 0
7.595000 0.274110 0
7.600000 0.304744 0
7.605000 0.332834 0
7.610000 0.357507 0
7.615000 0.377956 0
7.620000 0.393479 0
7.625000 0.403522 0
7.630000 0.407711 5
7.635000 0.405869 0
7.640000 0.398033 0
7.645000 0.384450 0
7.650000 0.365563 0
7.655000 0.341986 0
7.660000 0.314472 0
7.665000 0.283871 0
7.670000 0.251085 0
7.675000 0.217027 0
7.680000 0.182575 0
7.685000 0.148540 0
7.690000 0.115634 0
7.695000 0.084451 0
7.700000 0.055456 0
7.705000 0.028977 0
7.710000 0.005217 0
7.715000 -0.015741 0
7.720000 -0.033918 0
7.725000 -0.049416 0
7.730000 -0.062406 0
7.735000 -0.073100 0
7.740000 -0.081742 0
7.745000 -0.088585 0
7.750000 -0.093881 0
7.755000 -0.097872 0
7.760000 -0.100780 0
7.765000 -0.102384 0
7.770000 -0.101500 0
7.775000 -0.100620 0
7.780000 -0.099744 0
7.785000 -0.098872 0
7.790000 -0.098003 0
7.795000 -0.097136 0
7.800000 -0.096267 0
7.805000 -0.095390 0
7.810000 -0.094493 0
7.815000 -0.093558 0
7.820000 -0.092548 0
7.825000 -0.091406 0
7.830000 -0.090038 0
7.835000 -0.088303 0
7.840000 -0.085993 0
7.845000 -0.082818 0
7.850000 -0.078392 0
7.855000 -0.072235 0
7.860000 -0.063782 0
7.865000 -0.052425 0
7.870000 -0.037580 0
7.875000 -0.018783 0
7.880000 0.004197 0
7.885000 0.031232 0
7.890000 0.061735 0
7.895000 0.094597 0
7.900000 0.128203 0
7.905000 0.160524 0
7.910000 0.189308 0
7.915000 0.212326 0
7.920000 0.227660 0
7.925000 0.233960 1
7.930000 0.230645 0
7.935000 0.217988 0
7.940000 0.197079 0
7.945000 0.169668 0
7.950000 0.137915 0
7.955000 0.104053 0
7.960000 0.069945 0
7.965000 0.036387 0
7.970000 0.002108 0
7.975000 -0.036952 0
7.980000 -0.086290 0
7.985000 -0.147584 0
7.990000 -0.211043 0
7.995000 -0.251622 2
8.000000 -0.234005 0
8.005000 -0.123350 0
8.010000 0.102390 0
8.015000 0.433769 0
8.020000 0.805402 0
8.025000 1.095118 0
8.030000 1.178744 3
8.035000 1.014352 0
8.040000 0.672059 0
8.045000 0.278118 0
8.050000 -0.056884 0
8.055000 -0.275382 0
8.060000 -0.367391 4
8.065000 -0.354271 0
8.070000 -0.276339 0
8.075000 -0.177983 0
8.080000 -0.090901 0
8.085000 -0.026438 0
8.090000 0.019145 0
8.095000 0.054448 0
8.100000 0.086208 0
8.105000 0.117785 0
8.110000 0.150184 0
8.115000 0.183278 0
8.120000 0.216497 0
8.125000 0.249091 0
8.130000 0.280231 0
8.135000 0.309058 0
8.140000 0.334724 0
8.145000 0.356429 0
8.150000 0.373469 0
8.155000 0.385266 0
8.160000 0.391407 0
8.165000 0.391659 5
8.170000 0.385989 0
8.175000 0.374567 0
8.180000 0.357751 0
8.185000 0.336075 0
8.190000 0.310214 0
8.195000 0.280953 0
8.200000 0.249145 0
8.205000 0.215672 0
8.210000 0.181400 0
8.215000 0.147147 0
8.220000 0.113653 0
8.225000 0.081552 0
8.230000 0.051361 0
8.235000 0.023473 0
8.240000 -0.001849 0
8.245000 -0.024454 0
8.250000 -0.044304 0
8.255000 -0.061449 0
8.260000 -0.076011 0
8.265000 -0.088171 0
8.270000 -0.098145 0
8.275000 -0.106172 0
8.280000 -0.112496 0
8.285000 -0.117359 0
8.290000 -0.120991 0
8.295000 -0.123602 0
8.300000 -0.124977 0
8.305000 -0.123981 0
8.310000 -0.122989 0
8.315000 -0.122002 0
8.320000 -0.121019 0
8.325000 -0.120039 0
8.330000 -0.119061 0
8.335000 -0.118082 0
8.340000 -0.117096 0
8.345000 -0.116091 0
8.350000 -0.115048 0
8.355000 -0.113934 0
8.360000 -0.112693 0
8.365000 -0.111238 0
8.370000 -0.109435 0
8.375000 -0.107089 0
8.380000 -0.103930 0
8.385000 -0.099599 0
8.390000 -0.093642 0
8.395000 -0.085527 0
8.400000 -0.074671 0
8.405000 -0.060501 0
8.410000 -0.042536 0
8.415000 -0.020492 0
8.420000 0.005604 0
8.425000 0.035309 0
8.430000 0.067698 0
8.435000 0.101355 0
8.440000 0.134434 0
8.445000 0.164812 0
8.450000 0.190301 0
8.455000 0.208908 0
8.460000 0.219091 0
8.465000 0.219970 1
8.470000 0.211454 0
8.475000 0.194256 0
8.480000 0.169796 0
8.485000 0.140000 0
8.490000 0.107034 0
8.495000 0.072945 0
8.500000 0.039160 0
8.505000 0.005693 0
8.510000 -0.029806 0
8.515000 -0.072176 0
8.520000 -0.126125 0
8.525000 -0.190017 0
8.530000 -0.249233 0
8.535000 -0.275338 2
8.540000 -0.233181 0
8.545000 -0.091455 0
8.550000 0.164910 0
8.555000 0.514849 0
8.560000 0.880226 0
8.565000 1.135979 0
8.570000 1.172131 3
8.575000 0.966869 0
8.580000 0.603629 0
8.585000 0.214786 0
8.590000 -0.096171 0
8.595000 -0.282697 0
8.600000 -0.343901 4
8.605000 -0.308165 0
8.610000 -0.220004 0
8.615000 -0.122872 0
8.620000 -0.043050 0
8.625000 0.013920 0
8.630000 0.054714 0
8.635000 0.087981 0
8.640000 0.119330 0
8.645000 0.151106 0
8.650000 0.183753 0
8.655000 0.216891 0
8.660000 0.249830 0
8.665000 0.281754 0
8.670000 0.311785 0
8.675000 0.339038 0
8.680000 0.362656 0
8.685000 0.381862 0
8.690000 0.395993 0
8.695000 0.404542 0
8.700000 0.407185 5
8.705000 0.403804 0
8.710000 0.394486 0
8.715000 0.379531 0
8.720000 0.359423 0
8.725000 0.334811 0
8.730000 0.306472 0
8.735000 0.275269 0
8.740000 0.242104 0
8.745000 0.207882 0
8.750000 0.173463 0
8.755000 0.139634 0
8.760000 0.107078 0
8.765000 0.076356 0
8.770000 0.047901 0
8.775000 0.022012 0
8.780000 -0.001138 0
8.785000 -0.021489 0
8.790000 -0.039081 0
8.795000 -0.054033 0
8.800000 -0.066522 0
8.805000 -0.076771 0
8.810000 -0.085023 0
8.815000 -0.091531 0
8.820000 -0.096545 0
8.825000 -0.100302 0
8.830000 -0.103019 0
8.835000 -0.104489 0
8.840000 -0.103595 0
8.845000 -0.102704 0
8.850000 -0.101818 0
8.855000 -0.100936 0
8.860000 -0.100056 0
8.865000 -0.099178 0
8.870000 -0.098297 0
8.875000 -0.097407 0
8.880000 -0.096495 0
8.885000 -0.095539 0
8.890000 -0.094503 0
8.895000 -0.093322 0
8.900000 -0.091898 0
8.905000 -0.090081 0
8.910000 -0.087653 0
8.915000 -0.084312 0
8.920000 -0.079661 0
8.925000 -0.073207 0
8.930000 -0.064381 0
8.935000 -0.052576 0
8.940000 -0.037222 0
8.945000 -0.017880 0
8.950000 0.005640 0
8.955000 0.033158 0
8.960000 0.064027 0
8.965000 0.097080 0
8.970000 0.130654 0
8.975000 0.162695 0
8.980000 0.190950 0
8.985000 0.213224 0
8.990000 0.227656 0
8.995000 0.232979 1
9.000000 0.228699 0
9.005000 0.215176 0
9.010000 0.193566 0
9.015000 0.165662 0
9.020000 0.133633 0
9.025000 0.099691 0
9.030000 0.065628 0
9.035000 0.032102 0
9.040000 -0.002365 0
9.045000 -0.042019 0
9.050000 -0.092280 0
9.055000 -0.154230 0
9.060000 -0.217070 0
9.065000 -0.254913 2
9.070000 -0.232292 0
9.075000 -0.114966 0
9.080000 0.117720 0
9.085000 0.453745 0
9.090000 0.824471 0
9.095000 1.106316 0
9.100000 1.177904 3
9.105000 1.004726 0
9.110000 0.658528 0
9.115000 0.264904 0
9.120000 -0.067923 0
9.125000 -0.284240 0
9.130000 -0.374846 4
9.135000 -0.361162 0
9.140000 -0.283159 0
9.145000 -0.184764 0
9.150000 -0.097434 0
9.155000 -0.032587 0
9.160000 0.013334 0
9.165000 0.048831 0
9.170000 0.080659 0
9.175000 0.112235 0
9.180000 0.144616 0
9.185000 0.177708 0
9.190000 0.210958 0
9.195000 0.243630 0
9.200000 0.274908 0
9.205000 0.303944 0
9.210000 0.329895 0
9.215000 0.351967 0
9.220000 0.369453 0
9.225000 0.381770 0
9.230000 0.388493 0
9.235000 0.389373 5
9.240000 0.384358 0
9.245000 0.373594 0
9.250000 0.357414 0
9.255000 0.336327 0
9.260000 0.310986 0
9.265000 0.282154 0
9.270000 0.250671 0
9.275000 0.217404 0
9.280000 0.183216 0
9.285000 0.148927 0
9.290000 0.115280 0
9.295000 0.082923 0
9.300000 0.052386 0
9.305000 0.024080 0
9.310000 -0.001711 0
9.315000 -0.024820 0
9.320000 -0.045188 0
9.325000 -0.062849 0
9.330000 -0.077911 0
9.335000 -0.090542 0
9.340000 -0.100951 0
9.345000 -0.109368 0
9.350000 -0.116037 0
9.355000 -0.121198 0
9.360000 -0.125082 0
9.365000 -0.127902 0
9.370000 -0.129849 0
9.375000 -0.129258 0
9.380000 -0.128240 0
9.385000 -0.127227 0
9.390000 -0.126218 0
9.395000 -0.125213 0
9.400000 -0.124211 0
9.405000 -0.123208 0
9.410000 -0.122201 0
9.415000 -0.121179 0
9.420000 -0.120127 0
9.425000 -0.119016 0
9.430000 -0.117799 0
9.435000 -0.116402 0
9.440000 -0.114708 0
9.445000 -0.112547 0
9.450000 -0.109677 0
9.455000 -0.105774 0
9.460000 -0.100421 0
9.465000 -0.093116 0
9.470000 -0.083297 0
9.475000 -0.070385 0
9.480000 -0.053857 0
9.485000 -0.033349 0
9.490000 -0.008759 0
9.495000 0.019645 0
9.500000 0.051138 0
9.505000 0.084505 0
9.510000 0.118079 0
9.515000 0.149848 0
9.520000 0.177646 0
9.525000 0.199387 0
9.530000 0.213330 0
9.535000 0.218304 1
9.540000 0.213873 0
9.545000 0.200400 0
9.550000 0.178998 0
9.555000 0.151378 0
9.560000 0.119612 0
9.565000 0.085829 0
9.570000 0.051807 0
9.575000 0.018333 0
9.580000 -0.015698 0
9.585000 -0.053996 0
9.590000 -0.101850 0
9.595000 -0.161671 0
9.600000 -0.226002 0
9.605000 -0.273163 2
9.610000 -0.270530 0
9.615000 -0.183832 0
9.620000 0.012057 0
9.625000 0.318111 0
9.630000 0.688666 0
9.635000 1.020440 0
9.640000 1.186461 3
9.645000 1.109771 0
9.650000 0.819467 0
9.655000 0.429366 0
9.660000 0.063171 0
9.665000 -0.201023 0
9.670000 -0.337832 0
9.675000 -0.358855 4
9.680000 -0.299054 0
9.685000 -0.203477 0
9.690000 -0.110041 0
9.695000 -0.037407 0
9.700000 0.013920 0
9.705000 0.051884 0
9.710000 0.084305 0
9.715000 0.115695 0
9.720000 0.147735 0
9.725000 0.180591 0
9.730000 0.213801 0
9.735000 0.246660 0
9.740000 0.278359 0
9.745000 0.308042 0
9.750000 0.334850 0
9.755000 0.357962 0
9.760000 0.376634 0
9.765000 0.390241 0
9.770000 0.398306 0
9.775000 0.400533 5
9.780000 0.396823 0
9.785000 0.387273 0
9.790000 0.372183 0
9.795000 0.352031 0
9.800000 0.327448 0
9.805000 0.299189 0
9.810000 0.268091 0
9.815000 0.235032 0
9.820000 0.200890 0
9.825000 0.166504 0
9.830000 0.132645 0
9.835000 0.099984 0
9.840000 0.069080 0
9.845000 0.040366 0
9.850000 0.014150 0
9.855000 -0.009383 0
9.860000 -0.030160 0
9.865000 -0.048203 0
9.870000 -0.063615 0
9.875000 -0.076559 0
9.880000 -0.087243 0
9.885000 -0.095900 0
9.890000 -0.102775 0
9.895000 -0.108112 0
9.900000 -0.112146 0
9.905000 -0.115094 0
9.910000 -0.117152 0
9.915000 -0.116631 0
9.920000 -0.115676 0
9.925000 -0.114725 0
9.930000 -0.113779 0
9.935000 -0.112836 0
9.940000 -0.111895 0
9.945000 -0.110955 0
9.950000 -0.110008 0
9.955000 -0.109048 0
9.960000 -0.108056 0
9.965000 -0.107004 0
9.970000 -0.105844 0
9.975000 -0.104500 0
9.980000 -0.102854 0
9.985000 -0.100729 0
9.990000 -0.097878 0
9.995000 -0.093969 0
10.000000 -0.088574 0
10.005000 -0.081182 0
10.010000 -0.071217 0
10.015000 -0.058096 0
10.020000 -0.041299 0
10.025000 -0.020472 0
10.030000 0.004456 0
10.035000 0.033171 0
10.040000 0.064889 0
10.045000 0.098324 0
10.050000 0.131740 0
10.055000 0.163067 0
10.060000 0.190105 0
10.065000 0.210777 0
10.070000 0.223387 0
10.075000 0.226851 1
10.080000 0.220854 0
10.085000 0.205894 0
10.090000 0.183214 0
10.095000 0.154630 0
10.100000 0.122278 0
10.105000 0.088284 0
10.110000 0.054309 0
10.115000 0.020843 0
10.120000 -0.013758 0
10.125000 -0.053782 0
10.130000 -0.104458 0
10.135000 -0.166563 0
10.140000 -0.229298 0
10.145000 -0.267396 2
10.150000 -0.246414 0
10.155000 -0.132925 0
10.160000 0.093912 0
10.165000 0.424703 0
10.170000 0.796828 0
10.175000 1.093038 0
10.180000 1.191412 3
10.185000 1.043334 0
10.190000 0.709323 0
10.195000 0.314868 0
10.200000 -0.026034 0
10.205000 -0.252032 0
10.210000 -0.350751 4
10.215000 -0.342283 0
10.220000 -0.266521 0
10.225000 -0.168340 0
10.230000 -0.080484 0
10.235000 -0.015210 0
10.240000 0.030840 0
10.245000 0.066290 0
10.250000 0.098029 0
10.255000 0.129528 0
10.260000 0.161844 0
10.265000 0.194868 0
10.270000 0.228030 0
10.275000 0.260578 0
10.280000 0.291678 0
10.285000 0.320466 0
10.290000 0.346087 0
10.295000 0.367738 0
10.300000 0.384709 0
10.305000 0.396419 0
10.310000 0.402452 0
10.315000 0.402577 5
10.320000 0.396763 0
10.325000 0.385182 0
10.330000 0.368200 0
10.335000 0.346356 0
10.340000 0.320334 0
10.345000 0.290925 0
10.350000 0.258991 0
10.355000 0.225417 0
10.360000 0.191074 0
10.365000 0.156785 0
10.370000 0.123287 0
10.375000 0.091215 0
10.380000 0.061083 0
10.385000 0.033278 0
10.390000 0.008060 0
10.395000 -0.014429 0
10.400000 -0.034153 0
10.405000 -0.051169 0
10.410000 -0.065607 0
10.415000 -0.077650 0
10.420000 -0.087517 0
10.425000 -0.095451 0
10.430000 -0.101697 0
10.435000 -0.106498 0
10.440000 -0.110084 0
10.445000 -0.112664 0
10.450000 -0.114033 0
10.455000 -0.113090 0
10.460000 -0.112153 0
10.465000 -0.111220 0
10.470000 -0.110290 0
10.475000 -0.109364 0
10.480000 -0.108439 0
10.485000 -0.107512 0
10.490000 -0.106576 0
10.495000 -0.105620 0
10.500000 -0.104621 0
10.505000 -0.103545 0
10.510000 -0.102332 0
10.515000 -0.100888 0
10.520000 -0.099071 0
10.525000 -0.096675 0
10.530000 -0.093416 0
10.535000 -0.088917 0
10.540000 -0.082709 0
10.545000 -0.074245 0
10.550000 -0.062937 0
10.555000 -0.048216 0
10.560000 -0.029622 0
10.565000 -0.006915 0
10.570000 0.019812 0
10.575000 0.050032 0
10.580000 0.082726 0
10.585000 0.116381 0
10.590000 0.149075 0
10.595000 0.178641 0
10.600000 0.202895 0
10.605000 0.219899 0
10.610000 0.228218 1
10.615000 0.227120 0
10.620000 0.216680 0
10.625000 0.197775 0
10.630000 0.171960 0
10.635000 0.141250 0
10.640000 0.107832 0
10.645000 0.073681 0
10.650000 0.039995 0
10.655000 0.006327 0
10.660000 -0.030319 0
10.665000 -0.075154 0
10.670000 -0.132074 0
10.675000 -0.196791 0
10.680000 -0.250971 0
10.685000 -0.263444 2
10.690000 -0.198787 0
10.695000 -0.028258 0
10.700000 0.256287 0
10.705000 0.620258 0
10.710000 0.969561 0
10.715000 1.174575 3
10.720000 1.144242 0
10.725000 0.887887 0
10.730000 0.506973 0
10.735000 0.127522 0
10.740000 -0.162136 0
10.745000 -0.326997 0
10.750000 -0.371840 4
10.755000 -0.326946 0
10.760000 -0.235896 0
10.765000 -0.139306 0
10.770000 -0.060711 0
10.775000 -0.004400 0
10.780000 0.036300 0
10.785000 0.069673 0
10.790000 0.101114 0
10.795000 0.132932 0
10.800000 0.165604 0
10.805000 0.198799 0
10.810000 0.231874 0
10.815000 0.264053 0
10.820000 0.294503 0
10.825000 0.322374 0
10.830000 0.346838 0
10.835000 0.367132 0
10.840000 0.382593 0
10.845000 0.392699 0
10.850000 0.397092 5
10.855000 0.395600 0
10.860000 0.388249 0
10.865000 0.375260 0
10.870000 0.357039 0
10.875000 0.334154 0
10.880000 0.307306 0
10.885000 0.277293 0
10.890000 0.244968 0
10.895000 0.211202 0
10.900000 0.176845 0
10.905000 0.142688 0
10.910000 0.109440 0
10.915000 0.077704 0
10.920000 0.047963 0
10.925000 0.020578 0
10.930000 -0.004214 0
10.935000 -0.026289 0
10.940000 -0.045627 0
10.945000 -0.062293 0
10.950000 -0.076420 0
10.955000 -0.088194 0
10.960000 -0.097834 0
10.965000 -0.105576 0
10.970000 -0.111665 0
10.975000 -0.116338 0
10.980000 -0.119818 0
10.985000 -0.122310 0
10.990000 -0.123610 0
10.995000 -0.122620 0
11.000000 -0.121635 0
11.005000 -0.120654 0
11.010000 -0.119678 0
11.015000 -0.118705 0
11.020000 -0.117733 0
11.025000 -0.116760 0
11.030000 -0.115779 0
11.035000 -0.114778 0
11.040000 -0.113737 0
11.045000 -0.112623 0
11.050000 -0.111377 0
11.055000 -0.109912 0
11.060000 -0.108093 0
11.065000 -0.105723 0
11.070000 -0.102531 0
11.075000 -0.098158 0
11.080000 -0.092154 0
11.085000 -0.083991 0
11.090000 -0.073091 0
11.095000 -0.058889 0
11.100000 -0.040911 0
11.105000 -0.018877 0
11.110000 0.007186 0
11.115000 0.036842 0
11.120000 0.069185 0
11.125000 0.102820 0
11.130000 0.135935 0
11.135000 0.166434 0
11.140000 0.192153 0
11.145000 0.211108 0
11.150000 0.221749 0
11.155000 0.223168 1
11.160000 0.215228 0
11.165000 0.198585 0
11.170000 0.174599 0
11.175000 0.145145 0
11.180000 0.112357 0
11.185000 0.078286 0
11.190000 0.044430 0
11.195000 0.010985 0
11.200000 -0.024093 0
11.205000 -0.065377 0
11.210000 -0.117804 0
11.215000 -0.180931 0
11.220000 -0.242178 0
11.225000 -0.274993 2
11.230000 -0.244939 0
11.235000 -0.119833 0
11.240000 0.118698 0
11.245000 0.457091 0
11.250000 0.827899 0
11.255000 1.112235 0
11.260000 1.192778 3
11.265000 1.026204 0
11.270000 0.680897 0
11.275000 0.287583 0
11.280000 -0.041514 0
11.285000 -0.250228 0
11.290000 -0.331222 4
11.295000 -0.308902 0
11.300000 -0.226228 0
11.305000 -0.128231 0
11.310000 -0.044749 0
11.315000 0.015624 0
11.320000 0.058364 0
11.325000 0.092317 0
11.330000 0.123698 0
11.335000 0.155298 0
11.340000 0.187773 0
11.345000 0.220829 0
11.350000 0.253806 0
11.355000 0.285898 0
11.360000 0.316233 0
11.365000 0.343922 0
11.370000 0.368100 0
11.375000 0.387972 0
11.380000 0.402854 0
11.385000 0.412214 0
11.390000 0.415698 5
11.395000 0.413155 0
11.400000 0.404645 0
11.405000 0.390435 0
11.410000 0.370986 0
11.415000 0.346929 0
11.420000 0.319024 0
11.425000 0.288125 0
11.430000 0.255137 0
11.435000 0.220967 0
11.440000 0.186485 0
11.445000 0.152491 0
11.450000 0.119686 0
11.455000 0.088649 0
11.460000 0.059832 0
11.465000 0.033551 0
11.470000 0.009995 0
11.475000 -0.010760 0
11.480000 -0.028743 0
11.485000 -0.044064 0
11.490000 -0.056895 0
11.495000 -0.067453 0
11.500000 -0.075980 0
11.505000 -0.082731 0
11.510000 -0.087955 0
11.515000 -0.091892 0
11.520000 -0.094763 0
11.525000 -0.096352 0
11.530000 -0.095498 0
11.535000 -0.094648 0
11.540000 -0.093802 0
11.545000 -0.092960 0
11.550000 -0.092120 0
11.555000 -0.091282 0
11.560000 -0.090441 0
11.565000 -0.089592 0
11.570000 -0.088723 0
11.575000 -0.087813 0
11.580000 -0.086827 0
11.585000 -0.085704 0
11.590000 -0.084351 0
11.595000 -0.082623 0
11.600000 -0.080309 0
11.605000 -0.077116 0
11.610000 -0.072657 0
11.615000 -0.066447 0
11.620000 -0.057921 0
11.625000 -0.046473 0
11.630000 -0.031524 0
11.635000 -0.012616 0
11.640000 0.010470 0
11.645000 0.037595 0
11.650000 0.068157 0
11.655000 0.101035 0
11.660000 0.134607 0
11.665000 0.166842 0
11.670000 0.195492 0
11.675000 0.218340 0
11.680000 0.233481 0
11.685000 0.239585 1
11.690000 0.236086 0
11.695000 0.223271 0
11.700000 0.202237 0
11.705000 0.174737 0
11.710000 0.142925 0
11.715000 0.109027 0
11.720000 0.074896 0
11.725000 0.041315 0
11.730000 0.007002 0
11.735000 -0.032096 0
11.740000 -0.081463 0
11.745000 -0.142771 0
11.750000 -0.206278 0
11.755000 -0.247056 2
11.760000 -0.229920 0
11.765000 -0.120096 0
11.770000 0.104551 0
11.775000 0.435015 0
11.780000 0.806797 0
11.785000 1.098573 0
11.790000 1.185969 3
11.795000 1.026264 0
11.800000 0.686077 0
11.805000 0.291967 0
11.810000 -0.044236 0
11.815000 -0.263967 0
11.820000 -0.356808 4
11.825000 -0.344067 0
11.830000 -0.266231 0
11.835000 -0.167930 0
11.840000 -0.080995 0
11.845000 -0.016749 0
11.850000 0.028639 0
11.855000 0.063814 0
11.860000 0.095510 0
11.865000 0.127056 0
11.870000 0.159430 0
11.875000 0.192493 0
11.880000 0.225664 0
11.885000 0.258186 0
11.890000 0.289223 0
11.895000 0.317912 0
11.900000 0.343399 0
11.905000 0.364886 0
11.910000 0.381666 0
11.915000 0.393168 0
11.920000 0.398981 5
11.925000 0.398883 0
11.930000 0.392851 0
11.935000 0.381066 0
11.940000 0.363900 0
11.945000 0.341897 0
11.950000 0.315747 0
11.955000 0.286243 0
11.960000 0.254248 0
11.965000 0.220647 0
11.970000 0.186310 0
11.975000 0.152055 0
11.980000 0.118616 0
11.985000 0.086622 0
11.990000 0.056584 0
11.995000 0.028883 0
12.000000 0.003776 0
12.005000 -0.018600 0
12.010000 -0.038214 0
12.015000 -0.055124 0
12.020000 -0.069462 0
12.025000 -0.081413 0
12.030000 -0.091197 0
12.035000 -0.099055 0
12.040000 -0.105235 0
12.045000 -0.109978 0
12.050000 -0.113513 0
12.055000 -0.116048 0
12.060000 -0.117382 0
12.065000 -0.116423 0
12.070000 -0.115469 0
12.075000 -0.114519 0
12.080000 -0.113573 0
12.085000 -0.112630 0
12.090000 -0.111689 0
12.095000 -0.110745 0
12.100000 -0.109793 0
12.105000 -0.108819 0
12.110000 -0.107804 0
12.115000 -0.106709 0
12.120000 -0.105475 0
12.125000 -0.104007 0
12.130000 -0.102163 0
12.135000 -0.099735 0
12.140000 -0.096435 0
12.145000 -0.091885 0
12.150000 -0.085616 0
12.155000 -0.077078 0
12.160000 -0.065684 0
12.165000 -0.050866 0
12.170000 -0.032169 0
12.175000 -0.009359 0
12.180000 0.017463 0
12.185000 0.047762 0
12.190000 0.080506 0
12.195000 0.114176 0
12.200000 0.146845 0
12.205000 0.176344 0
12.210000 0.200492 0
12.215000 0.217362 0
12.220000 0.225529 1
12.225000 0.224277 0
12.230000 0.213695 0
12.235000 0.194673 0
12.240000 0.168773 0
12.245000 0.138016 0
12.250000 0.104586 0
12.255000 0.070449 0
12.260000 0.036786 0
12.265000 0.003116 0
12.270000 -0.033593 0
12.275000 -0.078564 0
12.280000 -0.135631 0
12.285000 -0.200348 0
12.290000 -0.254202 0
12.295000 -0.265926 2
12.300000 -0.200141 0
12.305000 -0.028272 0
12.310000 0.257468 0
12.315000 0.621903 0
12.320000 0.970398 0
12.325000 1.173380 3
12.330000 1.136580 0
12.335000 0.871222 0
12.340000 0.486487 0
12.345000 0.112946 0
12.350000 -0.162369 0
12.355000 -0.308715 0
12.360000 -0.335737 4
12.365000 -0.278491 0
12.370000 -0.183414 0
12.375000 -0.090026 0
12.380000 -0.017761 0
12.385000 0.032977 0
12.390000 0.070461 0
12.395000 0.102643 0
12.400000 0.133975 0
12.405000 0.166027 0
12.410000 0.198880 0
12.415000 0.232017 0
12.420000 0.264688 0
12.425000 0.296047 0
12.430000 0.325205 0
12.435000 0.351277 0
12.440000 0.373426 0
12.445000 0.390904 0
12.450000 0.403099 0
12.455000 0.409562 0
12.460000 0.410040 5
12.465000 0.404487 0
12.470000 0.393068 0
12.475000 0.376154 0
12.480000 0.354296 0
12.485000 0.328198 0
12.490000 0.298675 0
12.495000 0.266615 0
12.500000 0.232930 0
12.505000 0.198518 0
12.510000 0.164217 0
12.515000 0.130782 0
12.520000 0.098853 0
12.525000 0.068946 0
12.530000 0.041442 0
12.535000 0.016592 0
12.540000 -0.005476 0
12.545000 -0.024744 0
12.550000 -0.041286 0
12.555000 -0.055246 0
12.560000 -0.066824 0
12.565000 -0.076253 0
12.570000 -0.083784 0
12.575000 -0.089670 0
12.580000 -0.094157 0
12.585000 -0.097478 0
12.590000 -0.099841 0
12.595000 -0.099437 0
12.600000 -0.098568 0
12.605000 -0.097702 0
12.610000 -0.096841 0
12.615000 -0.095983 0
12.620000 -0.095127 0
12.625000 -0.094270 0
12.630000 -0.093409 0
12.635000 -0.092534 0
12.640000 -0.091629 0
12.645000 -0.090665 0
12.650000 -0.089596 0
12.655000 -0.088343 0
12.660000 -0.086787 0
12.665000 -0.084748 0
12.670000 -0.081969 0
12.675000 -0.078107 0
12.680000 -0.072716 0
12.685000 -0.065264 0
12.690000 -0.055153 0
12.695000 -0.041781 0
12.700000 -0.024623 0
12.705000 -0.003339 0
12.710000 0.022100 0
12.715000 0.051302 0
12.720000 0.083372 0
12.725000 0.116891 0
12.730000 0.149982 0
12.735000 0.180456 0
12.740000 0.206044 0
12.745000 0.224668 0
12.750000 0.234723 0
12.755000 0.235301 1
12.760000 0.226325 0
12.765000 0.208568 0
12.770000 0.183538 0
12.775000 0.153262 0
12.780000 0.119987 0
12.785000 0.085793 0
12.790000 0.052013 0
12.795000 0.018346 0
12.800000 -0.018124 0
12.805000 -0.062698 0
12.810000 -0.119496 0
12.815000 -0.184252 0
12.820000 -0.238081 0
12.825000 -0.248757 2
12.830000 -0.179867 0
12.835000 -0.002440 0
12.840000 0.289900 0
12.845000 0.657143 0
12.850000 0.997263 0
12.855000 1.176987 3
12.860000 1.111825 0
12.865000 0.827021 0
12.870000 0.437676 0
12.875000 0.071298 0
12.880000 -0.191586 0
12.885000 -0.325295 0
12.890000 -0.342462 4
12.895000 -0.279702 0
12.900000 -0.183357 0
12.905000 -0.091302 0
12.910000 -0.020978 0
12.915000 0.028382 0
12.920000 0.065244 0
12.925000 0.097290 0
12.930000 0.128684 0
12.935000 0.160837 0
12.940000 0.193766 0
12.945000 0.226933 0
12.950000 0.259585 0
12.955000 0.290875 0
12.960000 0.319919 0
12.965000 0.345839 0
12.970000 0.367806 0
12.975000 0.385082 0
12.980000 0.397065 0
12.985000 0.403317 0
12.990000 0.403595 5
12.995000 0.397860 0
13.000000 0.386286 0
13.005000 0.369247 0
13.010000 0.347296 0
13.015000 0.321136 0
13.020000 0.291581 0
13.025000 0.259515 0
13.030000 0.225845 0
13.035000 0.191461 0
13.040000 0.157199 0
13.045000 0.123806 0
13.050000 0.091919 0
13.055000 0.062050 0
13.060000 0.034578 0
13.065000 0.009752 0
13.070000 -0.012300 0
13.075000 -0.031560 0
13.080000 -0.048100 0
13.085000 -0.062063 0
13.090000 -0.073647 0
13.095000 -0.083083 0
13.100000 -0.090621 0
13.105000 -0.096512 0
13.110000 -0.101003 0
13.115000 -0.104322 0
13.120000 -0.106681 0
13.125000 -0.106248 0
13.130000 -0.105344 0
13.135000 -0.104445 0
13.140000 -0.103550 0
13.145000 -0.102659 0
13.150000 -0.101770 0
13.155000 -0.100880 0
13.160000 -0.099987 0
13.165000 -0.099080 0
13.170000 -0.098145 0
13.175000 -0.097155 0
13.180000 -0.096063 0
13.185000 -0.094795 0
13.190000 -0.093235 0
13.195000 -0.091209 0
13.200000 -0.088471 0
13.205000 -0.084683 0
13.210000 -0.079412 0
13.215000 -0.072136 0
13.220000 -0.062264 0
13.225000 -0.049194 0
13.230000 -0.032393 0
13.235000 -0.011500 0
13.240000 0.013551 0
13.245000 0.042417 0
13.250000 0.074264 0
13.255000 0.107735 0
13.260000 0.141008 0
13.265000 0.171933 0
13.270000 0.198247 0
13.275000 0.217849 0
13.280000 0.229069 0
13.285000 0.230909 1
13.290000 0.223183 0
13.295000 0.206553 0
13.300000 0.182430 0
13.305000 0.152777 0
13.310000 0.119817 0
13.315000 0.085673 0
13.320000 0.051825 0
13.325000 0.018282 0
13.330000 -0.017424 0
13.335000 -0.060329 0
13.340000 -0.115124 0
13.345000 -0.179428 0
13.350000 -0.236984 0
13.355000 -0.257450 2
13.360000 -0.204519 0
13.365000 -0.047238 0
13.370000 0.226118 0
13.375000 0.585743 0
13.380000 0.940728 0
13.385000 1.159141 3
13.390000 1.142989 0
13.395000 0.895450 0
13.400000 0.516854 0
13.405000 0.136148 0
13.410000 -0.155145 0
13.415000 -0.320515 0
13.420000 -0.364678 4
13.425000 -0.318662 0
13.430000 -0.227026 0
13.435000 -0.130875 0
13.440000 -0.053431 0
13.445000 0.001695 0
13.450000 0.041623 0
13.455000 0.074679 0
13.460000 0.106087 0
13.465000 0.137982 0
13.470000 0.170730 0
13.475000 0.203943 0
13.480000 0.236941 0
13.485000 0.268920 0
13.490000 0.299025 0
13.495000 0.326388 0
13.500000 0.350173 0
13.505000 0.369614 0
13.510000 0.384059 0
13.515000 0.393005 0
13.520000 0.396125 5
13.525000 0.393287 0
13.530000 0.384563 0
13.535000 0.370224 0
13.540000 0.350730 0
13.545000 0.326699 0
13.550000 0.298876 0
13.555000 0.268097 0
13.560000 0.235242 0
13.565000 0.201198 0
13.570000 0.166818 0
13.575000 0.132885 0
13.580000 0.100089 0
13.585000 0.069004 0
13.590000 0.040079 0
13.595000 0.013638 0
13.600000 -0.010124 0
13.605000 -0.031122 0
13.610000 -0.049372 0
13.615000 -0.064970 0
13.620000 -0.078079 0
13.625000 -0.088902 0
13.630000 -0.097675 0
13.635000 -0.104644 0
13.640000 -0.110055 0
13.645000 -0.114144 0
13.650000 -0.117133 0
13.655000 -0.119219 0
13.660000 -0.118693 0
13.665000 -0.117728 0
13.670000 -0.116767 0
13.675000 -0.115810 0
13.680000 -0.114857 0
13.685000 -0.113907 0
13.690000 -0.112956 0
13.695000 -0.112000 0
13.700000 -0.111030 0
13.705000 -0.110028 0
13.710000 -0.108968 0
13.715000 -0.107799 0
13.720000 -0.106445 0
13.725000 -0.104788 0
13.730000 -0.102649 0
13.735000 -0.099780 0
13.740000 -0.095843 0
13.745000 -0.090408 0
13.750000 -0.082957 0
13.755000 -0.072911 0
13.760000 -0.059682 0
13.765000 -0.042749 0
13.770000 -0.021765 0
13.775000 0.003333 0
13.780000 0.032208 0
13.785000 0.064050 0
13.790000 0.097542 0
13.795000 0.130912 0
13.800000 0.162064 0
13.805000 0.188782 0
13.810000 0.208990 0
13.815000 0.221012 0
13.820000 0.223807 1
13.825000 0.217115 0
13.830000 0.201500 0
13.835000 0.178266 0
13.840000 0.149282 0
13.845000 0.116710 0
13.850000 0.082671 0
13.855000 0.048762 0
13.860000 0.015310 0
13.865000 -0.019609 0
13.870000 -0.060553 0
13.875000 -0.112625 0
13.880000 -0.175627 0
13.885000 -0.236987 0
13.890000 -0.269716 2
13.895000 -0.238664 0
13.900000 -0.111084 0
13.905000 0.131241 0
13.910000 0.472881 0
13.915000 0.842257 0
13.920000 1.116331 0
13.925000 1.178436 3
13.930000 0.994458 0
13.935000 0.640839 0
13.940000 0.249075 0
13.945000 -0.072474 0
13.950000 -0.271888 0
13.955000 -0.344601 4
13.960000 -0.316649 0
13.965000 -0.231592 0
13.970000 -0.133800 0
13.975000 -0.051670 0
13.980000 0.007429 0
13.985000 0.049454 0
13.990000 0.083176 0
13.995000 0.114576 0
14.000000 0.146274 0
14.005000 0.178847 0
14.010000 0.211970 0
14.015000 0.244975 0
14.020000 0.277053 0
14.025000 0.307332 0
14.030000 0.334927 0
14.035000 0.358977 0
14.040000 0.378694 0
14.045000 0.393403 0
14.050000 0.402578 0
14.055000 0.405876 5
14.060000 0.403154 0
14.065000 0.394480 0
14.070000 0.380127 0
14.075000 0.360562 0
14.080000 0.336418 0
14.085000 0.308457 0
14.090000 0.277535 0
14.095000 0.244550 0
14.100000 0.210409 0
14.105000 0.175978 0
14.110000 0.142053 0
14.115000 0.109329 0
14.120000 0.078381 0
14.125000 0.049656 0
14.130000 0.023468 0
14.135000 0.000004 0
14.140000 -0.020664 0
14.145000 -0.038565 0
14.150000 -0.053810 0
14.155000 -0.066570 0
14.160000 -0.077063 0
14.165000 -0.085530 0
14.170000 -0.092225 0
14.175000 -0.097397 0
14.180000 -0.101285 0
14.185000 -0.104109 0
14.190000 -0.105651 0
14.195000 -0.104751 0
14.200000 -0.103855 0
14.205000 -0.102963 0
14.210000 -0.102075 0
14.215000 -0.101190 0
14.220000 -0.100307 0
14.225000 -0.099421 0
14.230000 -0.098527 0
14.235000 -0.097614 0
14.240000 -0.096661 0
14.245000 -0.095632 0
14.250000 -0.094469 0
14.255000 -0.093078 0
14.260000 -0.091317 0
14.265000 -0.088977 0
14.270000 -0.085767 0
14.275000 -0.081304 0
14.280000 -0.075108 0
14.285000 -0.066617 0
14.290000 -0.055226 0
14.295000 -0.040357 0
14.300000 -0.021547 0
14.305000 0.001433 0
14.310000 0.028457 0
14.315000 0.058944 0
14.320000 0.091798 0
14.325000 0.125419 0
14.330000 0.157795 0
14.335000 0.186691 0
14.340000 0.209887 0
14.345000 0.225466 0
14.350000 0.232068 1
14.355000 0.229089 0
14.360000 0.216772 0
14.365000 0.196173 0
14.370000 0.169010 0
14.375000 0.137417 0
14.380000 0.103620 0
14.385000 0.069503 0
14.390000 0.035936 0
14.395000 0.001796 0
14.400000 -0.036793 0
14.405000 -0.085321 0
14.410000 -0.145936 0
14.415000 -0.209885 0
14.420000 -0.253289 2
14.425000 -0.241458 0
14.430000 -0.139312 0
14.435000 0.076638 0
14.440000 0.400579 0
14.445000 0.772990 0
14.450000 1.076097 0
14.455000 1.183048 3
14.460000 1.043744 0
14.465000 0.715803 0
14.470000 0.321307 0
14.475000 -0.025580 0
14.480000 -0.261056 0
14.485000 -0.369999 4
14.490000 -0.369982 0
14.495000 -0.298891 0
14.500000 -0.201113 0
14.505000 -0.110810 0
14.510000 -0.042421 0
14.515000 0.005930 0
14.520000 0.042541 0
14.525000 0.074647 0
14.530000 0.106153 0
14.535000 0.138398 0
14.540000 0.171411 0
14.545000 0.204686 0
14.550000 0.237511 0
14.555000 0.269078 0
14.560000 0.298544 0
14.565000 0.325064 0
14.570000 0.347833 0
14.575000 0.366130 0
14.580000 0.379350 0
14.585000 0.387038 0
14.590000 0.388916 5
14.595000 0.384900 0
14.600000 0.375099 0
14.605000 0.359818 0
14.610000 0.339535 0
14.615000 0.314880 0
14.620000 0.286600 0
14.625000 0.255520 0
14.630000 0.222506 0
14.635000 0.188423 0
14.640000 0.154100 0
14.645000 0.120293 0
14.650000 0.087668 0
14.655000 0.056777 0
14.660000 0.028050 0
14.665000 0.001793 0
14.670000 -0.021805 0
14.675000 -0.042667 0
14.680000 -0.060812 0
14.685000 -0.076335 0
14.690000 -0.089396 0
14.695000 -0.100194 0
14.700000 -0.108958 0
14.705000 -0.115931 0
14.710000 -0.121352 0
14.715000 -0.125455 0
14.720000 -0.128455 0
14.725000 -0.130550 0
14.730000 -0.129978 0
14.735000 -0.128956 0
14.740000 -0.127939 0
14.745000 -0.126927 0
14.750000 -0.125919 0
14.755000 -0.124913 0
14.760000 -0.123909 0
14.765000 -0.122900 0
14.770000 -0.121880 0
14.775000 -0.120833 0
14.780000 -0.119734 0
14.785000 -0.118541 0
14.790000 -0.117186 0
14.795000 -0.115561 0
14.800000 -0.113508 0
14.805000 -0.110803 0
14.810000 -0.107139 0
14.815000 -0.102118 0
14.820000 -0.095256 0
14.825000 -0.086001 0
14.830000 -0.073771 0
14.835000 -0.058029 0
14.840000 -0.038367 0
14.845000 -0.014619 0
14.850000 0.013030 0
14.855000 0.043958 0
14.860000 0.077055 0
14.865000 0.110746 0
14.870000 0.143081 0
14.875000 0.171911 0
14.880000 0.195116 0
14.885000 0.210862 0
14.890000 0.217840 1
14.895000 0.215448 0
14.900000 0.203875 0
14.905000 0.184078 0
14.910000 0.157654 0
14.915000 0.126616 0
14.920000 0.093107 0
14.925000 0.059024 0
14.930000 0.025443 0
14.935000 -0.008235 0
14.940000 -0.045128 0
14.945000 -0.090414 0
14.950000 -0.147721 0
14.955000 -0.212409 0
14.960000 -0.266069 0
14.965000 -0.277921 2
14.970000 -0.213199 0
14.975000 -0.043675 0
14.980000 0.238966 0
14.985000 0.601824 0
14.990000 0.954106 0
14.995000 1.168674 3
15.000000 1.149308 0
15.005000 0.899417 0
15.010000 0.520049 0
15.015000 0.139879 0
15.020000 -0.150263 0
15.025000 -0.314426 0
15.030000 -0.357638 4
15.035000 -0.311074 0
15.040000 -0.219291 0
15.045000 -0.123252 0
15.050000 -0.045999 0
15.055000 0.008972 0
15.060000 0.048807 0
15.065000 0.081809 0
15.070000 0.113182 0
15.075000 0.145045 0
15.080000 0.177761 0
15.085000 0.210940 0
15.090000 0.243901 0
15.095000 0.275845 0
15.100000 0.305913 0
15.105000 0.333242 0
15.110000 0.356993 0
15.115000 0.376405 0
15.120000 0.390825 0
15.125000 0.399750 0
15.130000 0.402852 5
15.135000 0.400000 0
15.140000 0.391265 0
15.145000 0.376919 0
15.150000 0.357416 0
15.155000 0.333376 0
15.160000 0.305542 0
15.165000 0.274748 0
15.170000 0.241873 0
15.175000 0.207804 0
15.180000 0.173392 0
15.185000 0.139420 0
15.190000 0.106579 0
15.195000 0.075442 0
15.200000 0.046462 0
15.205000 0.019960 0
15.210000 -0.003866 0
15.215000 -0.024929 0
15.220000 -0.043244 0
15.225000 -0.058909 0
15.230000 -0.072081 0
15.235000 -0.082967 0
15.240000 -0.091799 0
15.245000 -0.098823 0
15.250000 -0.104287 0
15.255000 -0.108426 0
15.260000 -0.111461 0
15.265000 -0.113591 0
15.270000 -0.113095 0
15.275000 -0.112158 0
15.280000 -0.111224 0
15.285000 -0.110296 0
15.290000 -0.109370 0
15.295000 -0.108447 0
15.300000 -0.107524 0
15.305000 -0.106595 0
15.310000 -0.105652 0
15.315000 -0.104679 0
15.320000 -0.103647 0
15.325000 -0.102509 0
15.330000 -0.101188 0
15.335000 -0.099567 0
15.340000 -0.097471 0
15.345000 -0.094653 0
15.350000 -0.090778 0
15.355000 -0.085420 0
15.360000 -0.078064 0
15.365000 -0.068131 0
15.370000 -0.055035 0
15.375000 -0.038252 0
15.380000 -0.017426 0
15.385000 0.007513 0
15.390000 0.036248 0
15.395000 0.067982 0
15.400000 0.101418 0
15.405000 0.134802 0
15.410000 0.166046 0
15.415000 0.192939 0
15.420000 0.213396 0
15.425000 0.225724 0
15.430000 0.228856 1
15.435000 0.222503 0
15.440000 0.207194 0
15.445000 0.184207 0
15.450000 0.155390 0
15.455000 0.122898 0
15.460000 0.088859 0
15.465000 0.054903 0
15.470000 0.021428 0
15.475000 -0.013372 0
15.480000 -0.053954 0
15.485000 -0.105489 0
15.490000 -0.168177 0
15.495000 -0.230128 0
15.500000 -0.264965 2
15.505000 -0.237732 0
15.510000 -0.115359 0
15.515000 0.121395 0
15.520000 0.459313 0
15.525000 0.829913 0
15.530000 1.111901 0
15.535000 1.186438 3
15.540000 1.016400 0
15.545000 0.671459 0
15.550000 0.277700 0
15.555000 -0.055679 0
15.560000 -0.272344 0
15.565000 -0.362936 4
15.570000 -0.349009 0
15.575000 -0.270804 0
15.580000 -0.172461 0
15.585000 -0.085440 0
15.590000 -0.020991 0
15.595000 0.024611 0
15.600000 0.059920 0
15.605000 0.091663 0
15.610000 0.123204 0
15.615000 0.155561 0
15.620000 0.188620 0
15.625000 0.221813 0
15.630000 0.254399 0
15.635000 0.285553 0
15.640000 0.314421 0
15.645000 0.340158 0
15.650000 0.361967 0
15.655000 0.379144 0
15.660000 0.391109 0
15.665000 0.397443 0
15.670000 0.397910 5
15.675000 0.392468 0
15.680000 0.381276 0
15.685000 0.364683 0
15.690000 0.343211 0
15.695000 0.317528 0
15.700000 0.288408 0
15.705000 0.256699 0
15.710000 0.223275 0
15.715000 0.189001 0
15.720000 0.154697 0
15.725000 0.121102 0
15.730000 0.088857 0
15.735000 0.058484 0
15.740000 0.030383 0
15.745000 0.004827 0
15.750000 -0.018028 0
15.755000 -0.038133 0
15.760000 -0.055531 0
15.765000 -0.070341 0
15.770000 -0.082736 0
15.775000 -0.092929 0
15.780000 -0.101155 0
15.785000 -0.107659 0
15.790000 -0.112683 0
15.795000 -0.116455 0
15.800000 -0.119187 0
15.805000 -0.120653 0
15.810000 -0.119678 0
15.815000 -0.118708 0
15.820000 -0.117742 0
15.825000 -0.116780 0
15.830000 -0.115822 0
15.835000 -0.114866 0
15.840000 -0.113909 0
15.845000 -0.112946 0
15.850000 -0.111966 0
15.855000 -0.110951 0
15.860000 -0.109870 0
15.865000 -0.108672 0
15.870000 -0.107276 0
15.875000 -0.105554 0
15.880000 -0.103325 0
15.885000 -0.100331 0
15.890000 -0.096226 0
15.895000 -0.090576 0
15.900000 -0.082861 0
15.905000 -0.072507 0
15.910000 -0.058935 0
15.915000 -0.041647 0
15.920000 -0.020318 0
15.925000 0.005083 0
15.930000 0.034193 0
15.935000 0.066178 0
15.940000 0.099711 0
15.945000 0.133025 0
15.950000 0.164042 0
15.955000 0.190579 0
15.960000 0.210597 0
15.965000 0.222458 0
15.970000 0.225149 1
15.975000 0.218423 0
15.980000 0.202835 0
15.985000 0.179673 0
15.990000 0.150770 0
15.995000 0.118259 0
16.000000 0.084235 0
16.005000 0.050302 0
16.010000 0.016852 0
16.015000 -0.017886 0
16.020000 -0.058285 0
16.025000 -0.109484 0
16.030000 -0.171904 0
16.035000 -0.234264 0
16.040000 -0.271012 2
16.045000 -0.247805 0
16.050000 -0.131639 0
16.055000 0.097694 0
16.060000 0.429986 0
16.065000 0.801985 0
16.070000 1.096695 0
16.075000 1.193374 3
16.080000 1.044823 0
16.085000 0.711279 0
16.090000 0.316743 0
16.095000 -0.025685 0
16.100000 -0.254505 0
16.105000 -0.356630 4
16.110000 -0.351207 0
16.115000 -0.277210 0
16.120000 -0.179149 0
16.125000 -0.090233 0
16.130000 -0.023604 0
16.135000 0.023455 0
16.140000 0.059406 0
16.145000 0.091286 0
16.150000 0.122762 0
16.155000 0.155019 0
16.160000 0.188015 0
16.165000 0.221213 0
16.170000 0.253882 0
16.175000 0.285204 0
16.180000 0.314327 0
16.185000 0.340403 0
16.190000 0.362630 0
16.195000 0.380292 0
16.200000 0.392796 0
16.205000 0.399706 0
16.210000 0.400765 5
16.215000 0.395913 0
16.220000 0.385286 0
16.225000 0.369217 0
16.230000 0.348210 0
16.235000 0.322917 0
16.240000 0.294104 0
16.245000 0.262612 0
16.250000 0.229314 0
16.255000 0.195078 0
16.260000 0.160729 0
16.265000 0.127014 0
16.270000 0.094587 0
16.275000 0.063982 0
16.280000 0.035611 0
16.285000 0.009761 0
16.290000 -0.013399 0
16.295000 -0.033812 0
16.300000 -0.051510 0
16.305000 -0.066604 0
16.310000 -0.079262 0
16.315000 -0.089695 0
16.320000 -0.098136 0
16.325000 -0.104828 0
16.330000 -0.110014 0
16.335000 -0.113924 0
16.340000 -0.116772 0
16.345000 -0.118323 0
16.350000 -0.117359 0
16.355000 -0.116400 0
16.360000 -0.115446 0
16.365000 -0.114496 0
16.370000 -0.113550 0
16.375000 -0.112605 0
16.380000 -0.111660 0
16.385000 -0.110710 0
16.390000 -0.109744 0
16.395000 -0.108746 0
16.400000 -0.107687 0
16.405000 -0.106517 0
16.410000 -0.105160 0
16.415000 -0.103496 0
16.420000 -0.101349 0
16.425000 -0.098470 0
16.430000 -0.094527 0
16.435000 -0.089094 0
16.440000 -0.081661 0
16.445000 -0.071657 0
16.450000 -0.058504 0
16.455000 -0.041686 0
16.460000 -0.020854 0
16.465000 0.004064 0
16.470000 0.032756 0
16.475000 0.064447 0
16.480000 0.097869 0
16.485000 0.131303 0
16.490000 0.162701 0
16.495000 0.189880 0
16.500000 0.210772 0
16.505000 0.223679 0
16.510000 0.227502 1
16.515000 0.221897 0
16.520000 0.207325 0
16.525000 0.184989 0
16.530000 0.156669 0
16.535000 0.124473 0
16.540000 0.090523 0
16.545000 0.056514 0
16.550000 0.023038 0
16.555000 -0.011361 0
16.560000 -0.050763 0
16.565000 -0.100432 0
16.570000 -0.161778 0
16.575000 -0.225286 0
16.580000 -0.267067 2
16.585000 -0.253388 0
16.590000 -0.150507 0
16.595000 0.064168 0
16.600000 0.385584 0
16.605000 0.758157 0
16.610000 1.070158 0
16.615000 1.197038 3
16.620000 1.076382 0
16.625000 0.756819 0
16.630000 0.362610 0
16.635000 0.013545 0
16.640000 -0.222814 0
16.645000 -0.330448 4
16.650000 -0.327852 0
16.655000 -0.254693 0
16.660000 -0.156784 0
16.665000 -0.068283 0
16.670000 -0.002433 0
16.675000 0.043853 0
16.680000 0.079313 0
16.685000 0.110993 0
16.690000 0.142433 0
16.695000 0.174700 0
16.700000 0.207674 0
16.705000 0.240770 0
16.710000 0.273217 0
16.715000 0.304166 0
16.720000 0.332737 0
16.725000 0.358061 0
16.730000 0.379327 0
16.735000 0.395821 0
16.740000 0.406965 0
16.745000 0.412350 5
16.750000 0.411764 0
16.755000 0.405197 0
16.760000 0.392849 0
16.765000 0.375115 0
16.770000 0.352566 0
16.775000 0.325915 0
16.780000 0.295983 0
16.785000 0.263651 0
16.790000 0.229822 0
16.795000 0.195375 0
16.800000 0.161132 0
16.805000 0.127825 0
16.810000 0.096075 0
16.815000 0.066379 0
16.820000 0.039099 0
16.825000 0.014474 0
16.830000 -0.007382 0
16.835000 -0.026456 0
16.840000 -0.042828 0
16.845000 -0.056644 0
16.850000 -0.068104 0
16.855000 -0.077439 0
16.860000 -0.084898 0
16.865000 -0.090731 0
16.870000 -0.095181 0
16.875000 -0.098476 0
16.880000 -0.100822 0
16.885000 -0.100413 0
16.890000 -0.099538 0
16.895000 -0.098668 0
16.900000 -0.097802 0
16.905000 -0.096939 0
16.910000 -0.096079 0
16.915000 -0.095218 0
16.920000 -0.094352 0
16.925000 -0.093473 0
16.930000 -0.092566 0
16.935000 -0.091602 0
16.940000 -0.090537 0
16.945000 -0.089295 0
16.950000 -0.087762 0
16.955000 -0.085765 0
16.960000 -0.083059 0
16.965000 -0.079309 0
16.970000 -0.074086 0
16.975000 -0.066872 0
16.980000 -0.057082 0
16.985000 -0.044117 0
16.990000 -0.027444 0
16.995000 -0.006699 0
17.000000 0.018193 0
17.005000 0.046906 0
17.010000 0.078631 0
17.015000 0.112039 0
17.020000 0.145337 0
17.025000 0.176402 0
17.030000 0.202984 0
17.035000 0.222980 0
17.040000 0.234702 0
17.045000 0.237113 1
17.050000 0.229977 0
17.055000 0.213896 0
17.060000 0.190228 0
17.065000 0.160889 0
17.070000 0.128082 0
17.075000 0.093939 0
17.080000 0.060010 0
17.085000 0.026473 0
17.090000 -0.008875 0
17.095000 -0.050859 0
17.100000 -0.104420 0
17.105000 -0.168253 0
17.110000 -0.227795 0
17.115000 -0.254125 2
17.120000 -0.211279 0
17.125000 -0.067315 0
17.130000 0.192615 0
17.135000 0.545231 0
17.140000 0.907787 0
17.145000 1.151162 0
17.150000 1.167137 3
17.155000 0.944891 0
17.160000 0.575733 0
17.165000 0.188791 0
17.170000 -0.117861 0
17.175000 -0.301040 0
17.180000 -0.360822 4
17.185000 -0.325122 0
17.190000 -0.237296 0
17.195000 -0.139842 0
17.200000 -0.058958 0
17.205000 -0.000757 0
17.210000 0.040919 0
17.215000 0.074596 0
17.220000 0.106034 0
17.225000 0.137767 0
17.230000 0.170362 0
17.235000 0.203514 0
17.240000 0.236577 0
17.245000 0.268768 0
17.250000 0.299242 0
17.255000 0.327134 0
17.260000 0.351604 0
17.265000 0.371874 0
17.270000 0.387273 0
17.275000 0.397270 0
17.280000 0.401503 5
17.285000 0.399803 0
17.290000 0.392203 0
17.295000 0.378935 0
17.300000 0.360418 0
17.305000 0.337238 0
17.310000 0.310114 0
17.315000 0.279862 0
17.320000 0.247351 0
17.325000 0.213467 0
17.330000 0.179067 0
17.335000 0.144948 0
17.340000 0.111819 0
17.345000 0.080279 0
17.350000 0.050804 0
17.355000 0.023741 0
17.360000 -0.000683 0
17.365000 -0.022361 0
17.370000 -0.041285 0
17.375000 -0.057535 0
17.380000 -0.071256 0
17.385000 -0.082645 0
17.390000 -0.091929 0
17.395000 -0.099350 0
17.400000 -0.105155 0
17.405000 -0.109583 0
17.410000 -0.112858 0
17.415000 -0.115182 0
17.420000 -0.114709 0
17.425000 -0.113763 0
17.430000 -0.112822 0
17.435000 -0.111886 0
17.440000 -0.110953 0
17.445000 -0.110022 0
17.450000 -0.109093 0
17.455000 -0.108160 0
17.460000 -0.107215 0
17.465000 -0.106246 0
17.470000 -0.105227 0
17.475000 -0.104117 0
17.480000 -0.102849 0
17.485000 -0.101318 0
17.490000 -0.099369 0
17.495000 -0.096775 0
17.500000 -0.093230 0
17.505000 -0.088334 0
17.510000 -0.081597 0
17.515000 -0.072458 0
17.520000 -0.060328 0
17.525000 -0.044657 0
17.530000 -0.025032 0
17.535000 -0.001286 0
17.540000 0.026387 0
17.545000 0.057342 0
17.550000 0.090436 0
17.555000 0.124048 0
17.560000 0.156183 0
17.565000 0.184649 0
17.570000 0.207302 0
17.575000 0.222311 0
17.580000 0.228397 1
17.585000 0.225018 0
17.590000 0.212448 0
17.595000 0.191738 0
17.600000 0.164572 0
17.605000 0.133030 0
17.610000 0.099282 0
17.615000 0.065180 0
17.620000 0.031622 0
17.625000 -0.002362 0
17.630000 -0.040388 0
17.635000 -0.087815 0
17.640000 -0.147332 0
17.645000 -0.211808 0
17.650000 -0.259620 2
17.655000 -0.257793 0
17.660000 -0.171513 0
17.665000 0.024764 0
17.670000 0.331848 0
17.675000 0.702692 0
17.680000 1.031544 0
17.685000 1.189972 3
17.690000 1.101241 0
17.695000 0.800168 0
17.700000 0.407791 0
17.705000 0.049703 0
17.710000 -0.199189 0
17.715000 -0.318183 0
17.720000 -0.323474 4
17.725000 -0.254043 0
17.730000 -0.156571 0
17.735000 -0.066979 0
17.740000 0.000026 0
17.745000 0.046966 0
17.750000 0.082651 0
17.755000 0.114353 0
17.760000 0.145762 0
17.765000 0.178001 0
17.770000 0.210956 0
17.775000 0.244034 0
17.780000 0.276454 0
17.785000 0.307351 0
17.790000 0.335831 0
17.795000 0.361013 0
17.800000 0.382075 0
17.805000 0.398297 0
17.810000 0.409101 0
17.815000 0.414082 5
17.820000 0.413036 0
17.825000 0.405972 0
17.830000 0.393107 0
17.835000 0.374861 0
17.840000 0.351829 0
17.845000 0.324750 0
17.850000 0.294465 0
17.855000 0.261874 0
17.860000 0.227895 0
17.865000 0.193413 0
17.870000 0.159253 0
17.875000 0.126142 0
17.880000 0.094691 0
17.885000 0.065380 0
17.890000 0.038558 0
17.895000 0.014440 0
17.900000 -0.006876 0
17.905000 -0.025399 0
17.910000 -0.041226 0
17.915000 -0.054518 0
17.920000 -0.065487 0
17.925000 -0.074373 0
17.930000 -0.081430 0
17.935000 -0.086911 0
17.940000 -0.091060 0
17.945000 -0.094103 0
17.950000 -0.096243 0
17.955000 -0.095821 0
17.960000 -0.094970 0
17.965000 -0.094122 0
17.970000 -0.093279 0
17.975000 -0.092438 0
17.980000 -0.091598 0
17.985000 -0.090758 0
17.990000 -0.089909 0
17.995000 -0.089043 0
18.000000 -0.088140 0
18.005000 -0.087166 0
18.010000 -0.086065 0
18.015000 -0.084749 0
18.020000 -0.083078 0
18.025000 -0.080852 0
18.030000 -0.077786 0
18.035000 -0.073503 0
18.040000 -0.067526 0
18.045000 -0.059297 0
18.050000 -0.048206 0
18.055000 -0.033663 0
18.060000 -0.015190 0
18.065000 0.007466 0
18.070000 0.034206 0
18.075000 0.064475 0
18.080000 0.097200 0
18.085000 0.130790 0
18.090000 0.163237 0
18.095000 0.192289 0
18.100000 0.215702 0
18.105000 0.231523 0
18.110000 0.238360 1
18.115000 0.235580 0
18.120000 0.223407 0
18.125000 0.202891 0
18.130000 0.175756 0
18.135000 0.144151 0
18.140000 0.110324 0
18.145000 0.076174 0
18.150000 0.042575 0
18.155000 0.008376 0
18.160000 -0.030366 0
18.165000 -0.079180 0
18.170000 -0.140076 0
18.175000 -0.203865 0
18.180000 -0.246038 2
18.185000 -0.231410 0
18.190000 -0.124812 0
18.195000 0.096615 0
18.200000 0.424987 0
18.205000 0.796986 0
18.210000 1.091486 0
18.215000 1.182729 3
18.220000 1.025090 0
18.225000 0.684937 0
18.230000 0.291003 0
18.235000 -0.043322 0
18.240000 -0.259433 0
18.245000 -0.347807 4
18.250000 -0.331077 0
18.255000 -0.251033 0
18.260000 -0.152785 0
18.265000 -0.067452 0
18.270000 -0.005109 0
18.275000 0.038928 0
18.280000 0.073468 0
18.285000 0.105010 0
18.290000 0.136607 0
18.295000 0.169067 0
18.300000 0.202160 0
18.305000 0.235261 0
18.310000 0.267581 0
18.315000 0.298264 0
18.320000 0.326427 0
18.325000 0.351208 0
18.330000 0.371808 0
18.335000 0.387532 0
18.340000 0.397828 0
18.345000 0.402316 5
18.350000 0.400816 0
18.355000 0.393351 0
18.360000 0.380155 0
18.365000 0.361653 0
18.370000 0.338441 0
18.375000 0.311253 0
18.380000 0.280922 0
18.385000 0.248336 0
18.390000 0.214398 0
18.395000 0.179979 0
18.400000 0.145890 0
18.405000 0.112846 0
18.410000 0.081449 0
18.415000 0.052172 0
18.420000 0.025361 0
18.425000 0.001230 0
18.430000 -0.020121 0
18.435000 -0.038699 0
18.440000 -0.054593 0
18.445000 -0.067962 0
18.450000 -0.079010 0
18.455000 -0.087974 0
18.460000 -0.095102 0
18.465000 -0.100645 0
18.470000 -0.104845 0
18.475000 -0.107924 0
18.480000 -0.110087 0
18.485000 -0.109611 0
18.490000 -0.108690 0
18.495000 -0.107775 0
18.500000 -0.106863 0
18.505000 -0.105955 0
18.510000 -0.105048 0
18.515000 -0.104142 0
18.520000 -0.103229 0
18.525000 -0.102302 0
18.530000 -0.101342 0
18.535000 -0.100321 0
18.540000 -0.099188 0
18.545000 -0.097863 0
18.550000 -0.096222 0
18.555000 -0.094082 0
18.560000 -0.091182 0
18.565000 -0.087174 0
18.570000 -0.081612 0
18.575000 -0.073962 0
18.580000 -0.063635 0
18.585000 -0.050035 0
18.590000 -0.032650 0
18.595000 -0.011157 0
18.600000 0.014460 0
18.605000 0.043798 0
18.610000 0.075957 0
18.615000 0.109525 0
18.620000 0.142641 0
18.625000 0.173141 0
18.630000 0.198781 0
18.635000 0.217510 0
18.640000 0.227733 0
18.645000 0.228544 1
18.650000 0.219850 0
18.655000 0.202393 0
18.660000 0.177643 0
18.665000 0.147588 0
18.670000 0.114447 0
18.675000 0.080295 0
18.680000 0.046514 0
18.685000 0.012939 0
18.690000 -0.023115 0
18.695000 -0.066784 0
18.700000 -0.122474 0
18.705000 -0.187008 0
18.710000 -0.243155 0
18.715000 -0.260050 2
18.720000 -0.201604 0
18.725000 -0.037754 0
18.730000 0.241503 0
18.735000 0.603629 0
18.740000 0.955255 0
18.745000 1.164799 3
18.750000 1.136628 0
18.755000 0.878881 0
18.760000 0.496695 0
18.765000 0.119734 0
18.770000 -0.163044 0
18.775000 -0.318288 0
18.780000 -0.353324 4
18.785000 -0.301265 0
18.790000 -0.207650 0
18.795000 -0.112794 0
18.800000 -0.037973 0
18.805000 0.014883 0
18.810000 0.053527 0
18.815000 0.086118 0
18.820000 0.117486 0
18.825000 0.149470 0
18.830000 0.182288 0
18.835000 0.215484 0
18.840000 0.248343 0
18.845000 0.280039 0
18.850000 0.309702 0
18.855000 0.336454 0
18.860000 0.359459 0
18.865000 0.377960 0
18.870000 0.391324 0
18.875000 0.399073 0
18.880000 0.400915 5
18.885000 0.396761 0
18.890000 0.386726 0
18.895000 0.371132 0
18.900000 0.350480 0
18.905000 0.325431 0
18.910000 0.296767 0
18.915000 0.265346 0
18.920000 0.232068 0
18.925000 0.197825 0
18.930000 0.163463 0
18.935000 0.129753 0
18.940000 0.097361 0
18.945000 0.066835 0
18.950000 0.038592 0
18.955000 0.012919 0
18.960000 -0.010021 0
18.965000 -0.030175 0
18.970000 -0.047587 0
18.975000 -0.062379 0
18.980000 -0.074730 0
18.985000 -0.084859 0
18.990000 -0.093011 0
18.995000 -0.099434 0
19.000000 -0.104377 0
19.005000 -0.108074 0
19.010000 -0.110739 0
19.015000 -0.112165 0
19.020000 -0.111232 0
19.025000 -0.110304 0
19.030000 -0.109380 0
19.035000 -0.108460 0
19.040000 -0.107543 0
19.045000 -0.106627 0
19.050000 -0.105709 0
19.055000 -0.104783 0
19.060000 -0.103835 0
19.065000 -0.102846 0
19.070000 -0.101777 0
19.075000 -0.100569 0
19.080000 -0.099126 0
19.085000 -0.097302 0
19.090000 -0.094885 0
19.095000 -0.091583 0
19.100000 -0.087007 0
19.105000 -0.080678 0
19.110000 -0.072035 0
19.115000 -0.060479 0
19.120000 -0.045439 0
19.125000 -0.026462 0
19.130000 -0.003331 0
19.135000 0.023816 0
19.140000 0.054392 0
19.145000 0.087299 0
19.150000 0.120942 0
19.155000 0.153325 0
19.160000 0.182229 0
19.165000 0.205455 0
19.170000 0.221100 0
19.175000 0.227814 1
19.180000 0.224990 0
19.185000 0.212858 0
19.190000 0.192451 0
19.195000 0.165460 0
19.200000 0.133993 0
19.205000 0.100261 0
19.210000 0.066153 0
19.215000 0.032592 0
19.220000 -0.001427 0
19.225000 -0.039615 0
19.230000 -0.087421 0
19.235000 -0.147370 0
19.240000 -0.211652 0
19.245000 -0.257549 2
19.250000 -0.251113 0
19.255000 -0.157191 0
19.260000 0.048940 0
19.265000 0.364886 0
19.270000 0.737094 0
19.275000 1.052955 0
19.280000 1.183950 3
19.285000 1.066141 0
19.290000 0.747967 0
19.295000 0.353897 0
19.300000 0.004508 0
19.305000 -0.232059 0
19.310000 -0.339610 4
19.315000 -0.336728 0
19.320000 -0.263296 0
19.325000 -0.165315 0
19.330000 -0.076961 0
19.335000 -0.011339 0
19.340000 0.034777 0
19.345000 0.070175 0
19.350000 0.101876 0
19.355000 0.133378 0
19.360000 0.165715 0
19.365000 0.198750 0
19.370000 0.231887 0
19.375000 0.264351 0
19.380000 0.295284 0
19.385000 0.323803 0
19.390000 0.349038 0
19.395000 0.370174 0
19.400000 0.386499 0
19.405000 0.397440 0
19.410000 0.402596 5
19.415000 0.401759 0
19.420000 0.394934 0
19.425000 0.382329 0
19.430000 0.364352 0
19.435000 0.341587 0
19.440000 0.314758 0
19.445000 0.284692 0
19.450000 0.252279 0
19.455000 0.218425 0
19.460000 0.184011 0
19.465000 0.149858 0
19.470000 0.116692 0
19.475000 0.085129 0
19.480000 0.055657 0
19.485000 0.028632 0
19.490000 0.004280 0
19.495000 -0.017290 0
19.500000 -0.036077 0
19.505000 -0.052166 0
19.510000 -0.065711 0
19.515000 -0.076916 0
19.520000 -0.086015 0
19.525000 -0.093259 0
19.530000 -0.098899 0
19.535000 -0.103178 0
19.540000 -0.106322 0
19.545000 -0.108537 0
19.550000 -0.108075 0
19.555000 -0.107163 0
19.560000 -0.106254 0
19.565000 -0.105350 0
19.570000 -0.104450 0
19.575000 -0.103551 0
19.580000 -0.102652 0
19.585000 -0.101748 0
19.590000 -0.100829 0
19.595000 -0.099878 0
19.600000 -0.098867 0
19.605000 -0.097745 0
19.610000 -0.096434 0
19.615000 -0.094809 0
19.620000 -0.092690 0
19.625000 -0.089815 0
19.630000 -0.085836 0
19.635000 -0.080308 0
19.640000 -0.072696 0
19.645000 -0.062408 0
19.650000 -0.048845 0
19.655000 -0.031492 0
19.660000 -0.010022 0
19.665000 0.015581 0
19.670000 0.044913 0
19.675000 0.077072 0
19.680000 0.110637 0
19.685000 0.143739 0
19.690000 0.174201 0
19.695000 0.199771 0
19.700000 0.218393 0
19.705000 0.228473 0
19.710000 0.229112 1
19.715000 0.220233 0
19.720000 0.202595 0
19.725000 0.177689 0
19.730000 0.147521 0
19.735000 0.114320 0
19.740000 0.080160 0
19.745000 0.046395 0
19.750000 0.012790 0
19.755000 -0.023451 0
19.760000 -0.067541 0
19.765000 -0.123748 0
19.770000 -0.188393 0
19.775000 -0.243498 0
19.780000 -0.257598 2
19.785000 -0.194480 0
19.790000 -0.024580 0
19.795000 0.260534 0
19.800000 0.625121 0
19.805000 0.972075 0
19.810000 1.169003 3
19.815000 1.127426 0
19.820000 0.862223 0
19.825000 0.478492 0
19.830000 0.102255 0
19.835000 -0.180565 0
19.840000 -0.337536 0
19.845000 -0.375398 4
19.850000 -0.325892 0
19.855000 -0.233227 0
19.860000 -0.137412 0
19.865000 -0.060588 0
19.870000 -0.005842 0
19.875000 0.033972 0
19.880000 0.067038 0
19.885000 0.098484 0
19.890000 0.130408 0
19.895000 0.163181 0
19.900000 0.196425 0
19.905000 0.229473 0
19.910000 0.261536 0
19.915000 0.291772 0
19.920000 0.319325 0
19.925000 0.343367 0
19.930000 0.363141 0
19.935000 0.377994 0
19.940000 0.387420 0
19.945000 0.391080 5
19.950000 0.388829 0
19.955000 0.380718 0
19.960000 0.366996 0
19.965000 0.348097 0
19.970000 0.324612 0
19.975000 0.297265 0
19.980000 0.266868 0
19.985000 0.234287 0
19.990000 0.200398 0
19.995000 0.166048 0
20.000000 0.132021 0
20.005000 0.099016 0
20.010000 0.067618 0
20.015000 0.038294 0
20.020000 0.011383 0
20.025000 -0.012895 0
20.030000 -0.034438 0
20.035000 -0.053241 0
20.040000 -0.069384 0
20.045000 -0.083013 0
20.050000 -0.094323 0
20.055000 -0.103538 0
20.060000 -0.110901 0
20.065000 -0.116655 0
20.070000 -0.121036 0
20.075000 -0.124267 0
20.080000 -0.126550 0
20.085000 -0.126023 0
20.090000 -0.125021 0
20.095000 -0.124024 0
20.100000 -0.123031 0
20.105000 -0.122043 0
20.110000 -0.121057 0
20.115000 -0.120073 0
20.120000 -0.119085 0
20.125000 -0.118088 0
20.130000 -0.117067 0
20.135000 -0.115998 0
20.140000 -0.114844 0
20.145000 -0.113538 0
20.150000 -0.111982 0
20.155000 -0.110025 0
20.160000 -0.107449 0
20.165000 -0.103960 0
20.170000 -0.099170 0
20.175000 -0.092602 0
20.180000 -0.083706 0
20.185000 -0.071899 0
20.190000 -0.056627 0
20.195000 -0.037459 0
20.200000 -0.014193 0
20.205000 0.013031 0
20.210000 0.043638 0
20.215000 0.076562 0
20.220000 0.110261 0
20.225000 0.142803 0
20.230000 0.172031 0
20.235000 0.195797 0
20.240000 0.212218 0
20.245000 0.219922 1
20.250000 0.218240 0
20.255000 0.207302 0
20.260000 0.188018 0
20.265000 0.161958 0
20.270000 0.131130 0
20.275000 0.097695 0
20.280000 0.063592 0
20.285000 0.029967 0
20.290000 -0.003674 0
20.295000 -0.040347 0
20.300000 -0.085224 0
20.305000 -0.142131 0
20.310000 -0.206802 0
20.315000 -0.261154 0
20.320000 -0.274440 2
20.325000 -0.211615 0
20.330000 -0.044000 0
20.335000 0.237252 0
20.340000 0.599663 0
20.345000 0.952296 0
20.350000 1.167168 3
20.355000 1.147658 0
20.360000 0.897379 0
20.365000 0.517803 0
20.370000 0.137927 0
20.375000 -0.151429 0
20.380000 -0.314534 0
20.385000 -0.356692 4
20.390000 -0.309367 0
20.395000 -0.217306 0
20.400000 -0.121431 0
20.405000 -0.044550 0
20.410000 0.010081 0
20.415000 0.049715 0
20.420000 0.082644 0
20.425000 0.114013 0
20.430000 0.145896 0
20.435000 0.178630 0
20.440000 0.211813 0
20.445000 0.244757 0
20.450000 0.276658 0
20.455000 0.306655 0
20.460000 0.333880 0
20.465000 0.357496 0
20.470000 0.376741 0
20.475000 0.390965 0
20.480000 0.399670 0
20.485000 0.402535 5
20.490000 0.399435 0
20.495000 0.390451 0
20.500000 0.375863 0
20.505000 0.356136 0
20.510000 0.331897 0
20.515000 0.303897 0
20.520000 0.272976 0
20.525000 0.240017 0
20.530000 0.205908 0
20.535000 0.171501 0
20.540000 0.137576 0
20.545000 0.104819 0
20.550000 0.073801 0
20.555000 0.044964 0
20.560000 0.018626 0
20.565000 -0.005023 0
20.570000 -0.025905 0
20.575000 -0.044038 0
20.580000 -0.059525 0
20.585000 -0.072530 0
20.590000 -0.083261 0
20.595000 -0.091953 0
20.600000 -0.098853 0
20.605000 -0.104209 0
20.610000 -0.108256 0
20.615000 -0.111213 0
20.620000 -0.113279 0
20.625000 -0.112775 0
20.630000 -0.111839 0
20.635000 -0.110908 0
20.640000 -0.109981 0
20.645000 -0.109057 0
20.650000 -0.108135 0
20.655000 -0.107212 0
20.660000 -0.106284 0
20.665000 -0.105340 0
20.670000 -0.104364 0
20.675000 -0.103325 0
20.680000 -0.102173 0
20.685000 -0.100829 0
20.690000 -0.099169 0
20.695000 -0.097012 0
20.700000 -0.094100 0
20.705000 -0.090089 0
20.710000 -0.084540 0
20.715000 -0.076928 0
20.720000 -0.066670 0
20.725000 -0.053179 0
20.730000 -0.035944 0
20.735000 -0.014635 0
20.740000 0.010779 0
20.745000 0.039924 0
20.750000 0.071945 0
20.755000 0.105478 0
20.760000 0.138714 0
20.765000 0.169532 0
20.770000 0.195715 0
20.775000 0.215207 0
20.780000 0.226381 0
20.785000 0.228260 1
20.790000 0.220662 0
20.795000 0.204227 0
20.800000 0.180326 0
20.805000 0.150870 0
20.810000 0.118040 0
20.815000 0.083934 0
20.820000 0.050062 0
20.825000 0.016571 0
20.830000 -0.018741 0
20.835000 -0.060653 0
20.840000 -0.114057 0
20.845000 -0.177763 0
20.850000 -0.237607 0
20.855000 -0.265261 2
20.860000 -0.225240 0
20.865000 -0.085667 0
20.870000 0.169145 0
20.875000 0.518513 0
20.880000 0.883893 0
20.885000 1.138945 0
20.890000 1.172762 3
20.895000 0.966776 0
20.900000 0.605000 0
20.905000 0.214774 0
20.910000 -0.102568 0
20.915000 -0.299340 0
20.920000 -0.371959 4
20.925000 -0.345478 0
20.930000 -0.261615 0
20.935000 -0.163399 0
20.940000 -0.079351 0
20.945000 -0.017978 0
20.950000 0.025704 0
20.955000 0.060228 0
20.960000 0.091834 0
20.965000 0.123479 0
20.970000 0.155967 0
20.975000 0.189098 0
20.980000 0.222277 0
20.985000 0.254750 0
20.990000 0.285694 0
20.995000 0.314254 0
21.000000 0.339594 0
21.005000 0.360931 0
21.010000 0.377573 0
21.015000 0.388963 0
21.020000 0.394700 5
21.025000 0.394569 0
21.030000 0.388551 0
21.035000 0.376822 0
21.040000 0.359749 0
21.045000 0.337867 0
21.050000 0.311850 0
21.055000 0.282480 0
21.060000 0.250602 0
21.065000 0.217089 0
21.070000 0.182800 0
21.075000 0.148544 0
21.080000 0.115050 0
21.085000 0.082946 0
21.090000 0.052745 0
21.095000 0.024835 0
21.100000 -0.000522 0
21.105000 -0.023177 0
21.110000 -0.043089 0
21.115000 -0.060306 0
21.120000 -0.074949 0
21.125000 -0.087194 0
21.130000 -0.097255 0
21.135000 -0.105367 0
21.140000 -0.111773 0
21.145000 -0.116713 0
21.150000 -0.120415 0
21.155000 -0.123088 0
21.160000 -0.124510 0
21.165000 -0.123515 0
21.170000 -0.122526 0
21.175000 -0.121541 0
21.180000 -0.120560 0
21.185000 -0.119583 0
21.190000 -0.118608 0
21.195000 -0.117632 0
21.200000 -0.116650 0
21.205000 -0.115651 0
21.210000 -0.114617 0
21.215000 -0.113517 0
21.220000 -0.112299 0
21.225000 -0.110881 0
21.230000 -0.109139 0
21.235000 -0.106889 0
21.240000 -0.103874 0
21.245000 -0.099752 0
21.250000 -0.094088 0
21.255000 -0.086366 0
21.260000 -0.076014 0
21.265000 -0.062457 0
21.270000 -0.045197 0
21.275000 -0.023908 0
21.280000 0.001445 0
21.285000 0.030509 0
21.290000 0.062461 0
21.295000 0.095992 0
21.300000 0.129351 0
21.305000 0.160475 0
21.310000 0.187193 0
21.315000 0.207464 0
21.320000 0.219644 0
21.325000 0.222698 1
21.330000 0.216351 0
21.335000 0.201125 0
21.340000 0.178274 0
21.345000 0.149606 0
21.350000 0.117233 0
21.355000 0.083254 0
21.360000 0.049306 0
21.365000 0.015866 0
21.370000 -0.018684 0
21.375000 -0.058567 0
21.380000 -0.108971 0
21.385000 -0.170832 0
21.390000 -0.233842 0
21.395000 -0.273440 2
21.400000 -0.255742 0
21.405000 -0.147441 0
21.410000 0.073025 0
21.415000 0.398670 0
21.420000 0.771293 0
21.425000 1.077645 0
21.430000 1.194808 3
21.435000 1.066507 0
21.440000 0.744279 0
21.445000 0.349951 0
21.450000 0.000099 0
21.455000 -0.239040 0
21.460000 -0.351007 0
21.465000 -0.352889 4
21.470000 -0.282622 0
21.475000 -0.185013 0
21.480000 -0.094699 0
21.485000 -0.026370 0
21.490000 0.021845 0
21.495000 0.058318 0
21.500000 0.090323 0
21.505000 0.121761 0
21.510000 0.153951 0
21.515000 0.186905 0
21.520000 0.220106 0
21.525000 0.252828 0
21.530000 0.284257 0
21.535000 0.313538 0
21.540000 0.339821 0
21.545000 0.362297 0
21.550000 0.380243 0
21.555000 0.393056 0
21.560000 0.400288 0
21.565000 0.401673 5
21.570000 0.397137 0
21.575000 0.386808 0
21.580000 0.371007 0
21.585000 0.350232 0
21.590000 0.325131 0
21.595000 0.296466 0
21.600000 0.265077 0
21.605000 0.231838 0
21.610000 0.197622 0
21.615000 0.163255 0
21.620000 0.129495 0
21.625000 0.096997 0
21.630000 0.066304 0
21.635000 0.037834 0
21.640000 0.011879 0
21.645000 -0.011389 0
21.650000 -0.031905 0
21.655000 -0.049701 0
21.660000 -0.064885 0
21.665000 -0.077626 0
21.670000 -0.088130 0
21.675000 -0.096633 0
21.680000 -0.103378 0
21.685000 -0.108608 0
21.690000 -0.112556 0
21.695000 -0.115434 0
21.700000 -0.117438 0
21.705000 -0.116908 0
21.710000 -0.115951 0
21.715000 -0.114999 0
21.720000 -0.114052 0
21.725000 -0.113107 0
21.730000 -0.112165 0
21.735000 -0.111223 0
21.740000 -0.110274 0
21.745000 -0.109311 0
21.750000 -0.108316 0
21.755000 -0.107260 0
21.760000 -0.106094 0
21.765000 -0.104741 0
21.770000 -0.103082 0
21.775000 -0.100940 0
21.780000 -0.098068 0
21.785000 -0.094131 0
21.790000 -0.088705 0
21.795000 -0.081276 0
21.800000 -0.071275 0
21.805000 -0.058120 0
21.810000 -0.041295 0
21.815000 -0.020452 0
21.820000 0.004483 0
21.825000 0.033194 0
21.830000 0.064901 0
21.835000 0.098329 0
21.840000 0.131753 0
21.845000 0.163117 0
21.850000 0.190234 0
21.855000 0.211033 0
21.860000 0.223818 0
21.865000 0.227498 1
21.870000 0.221741 0
21.875000 0.207020 0
21.880000 0.184554 0
21.885000 0.156135 0
21.890000 0.123881 0
21.895000 0.089914 0
21.900000 0.055916 0
21.905000 0.022443 0
21.910000 -0.012025 0
21.915000 -0.051639 0
21.920000 -0.101655 0
21.925000 -0.163270 0
21.930000 -0.226538 0
21.935000 -0.267106 2
21.940000 -0.250998 0
21.945000 -0.144578 0
21.950000 0.074174 0
21.955000 0.398795 0
21.960000 0.771387 0
21.965000 1.078353 0
21.970000 1.195908 3
21.975000 1.067190 0
21.980000 0.743690 0
21.985000 0.349298 0
21.990000 0.001672 0
21.995000 -0.233330 0
22.000000 -0.340342 4
22.005000 -0.337791 0
22.010000 -0.264891 0
22.015000 -0.166980 0
22.020000 -0.078072 0
22.025000 -0.011626 0
22.030000 0.035158 0
22.035000 0.070896 0
22.040000 0.102673 0
22.045000 0.134120 0
22.050000 0.166373 0
22.055000 0.199352 0
22.060000 0.232493 0
22.065000 0.265043 0
22.070000 0.296166 0
22.075000 0.324993 0
22.080000 0.350663 0
22.085000 0.372367 0
22.090000 0.389387 0
22.095000 0.401140 0
22.100000 0.407202 0
22.105000 0.407340 5
22.110000 0.401522 0
22.115000 0.389920 0
22.120000 0.372901 0
22.125000 0.351009 0
22.130000 0.324931 0
22.135000 0.295465 0
22.140000 0.263476 0
22.145000 0.229856 0
22.150000 0.195482 0
22.155000 0.161177 0
22.160000 0.127683 0
22.165000 0.095633 0
22.170000 0.065543 0
22.175000 0.037796 0
22.180000 0.012652 0
22.185000 -0.009753 0
22.190000 -0.029386 0
22.195000 -0.046308 0
22.200000 -0.060651 0
22.205000 -0.072603 0
22.210000 -0.082386 0
22.215000 -0.090242 0
22.220000 -0.096422 0
22.225000 -0.101167 0
22.230000 -0.104707 0
22.235000 -0.107252 0
22.240000 -0.108604 0
22.245000 -0.107689 0
22.250000 -0.106778 0
22.255000 -0.105872 0
22.260000 -0.104969 0
22.265000 -0.104069 0
22.270000 -0.103170 0
22.275000 -0.102269 0
22.280000 -0.101357 0
22.285000 -0.100423 0
22.290000 -0.099444 0
22.295000 -0.098382 0
22.300000 -0.097174 0
22.305000 -0.095722 0
22.310000 -0.093876 0
22.315000 -0.091421 0
22.320000 -0.088060 0
22.325000 -0.083403 0
22.330000 -0.076968 0
22.335000 -0.068197 0
22.340000 -0.056497 0
22.345000 -0.041303 0
22.350000 -0.022178 0
22.355000 0.001082 0
22.360000 0.028329 0
22.365000 0.058963 0
22.370000 0.091884 0
22.375000 0.125505 0
22.380000 0.157841 0
22.385000 0.186694 0
22.390000 0.209888 0
22.395000 0.225539 0
22.400000 0.232306 1
22.405000 0.229584 0
22.410000 0.217589 0
22.415000 0.197331 0
22.420000 0.170472 0
22.425000 0.139093 0
22.430000 0.105388 0
22.435000 0.071249 0
22.440000 0.037648 0
22.445000 0.003706 0
22.450000 -0.034117 0
22.455000 -0.081206 0
22.460000 -0.140455 0
22.465000 -0.205024 0
22.470000 -0.253448 2
22.475000 -0.252636 0
22.480000 -0.167448 0
22.485000 0.028024 0
22.490000 0.334812 0
22.495000 0.705633 0
22.500000 1.033847 0
22.505000 1.190139 3
22.510000 1.101306 0
22.515000 0.802889 0
22.520000 0.411257 0
22.525000 0.048906 0
22.530000 -0.208854 0
22.535000 -0.338966 0
22.540000 -0.354589 4
22.545000 -0.291662 0
22.550000 -0.195369 0
22.555000 -0.102823 0
22.560000 -0.031538 0
22.565000 0.018758 0
22.570000 0.056196 0
22.575000 0.088452 0
22.580000 0.119844 0
22.585000 0.151928 0
22.590000 0.184812 0
22.595000 0.218011 0
22.600000 0.250811 0
22.605000 0.282395 0
22.610000 0.311907 0
22.615000 0.338486 0
22.620000 0.361315 0
22.625000 0.379653 0
22.630000 0.392885 0
22.635000 0.400545 0
22.640000 0.402349 5
22.645000 0.398211 0
22.650000 0.388245 0
22.655000 0.372762 0
22.660000 0.352253 0
22.665000 0.327362 0
22.670000 0.298853 0
22.675000 0.267567 0
22.680000 0.234385 0
22.685000 0.200185 0
22.690000 0.165804 0
22.695000 0.132006 0
22.700000 0.099456 0
22.705000 0.068703 0
22.710000 0.040171 0
22.715000 0.014159 0
22.720000 -0.009158 0
22.725000 -0.029716 0
22.730000 -0.047543 0
22.735000 -0.062749 0
22.740000 -0.075501 0
22.745000 -0.086011 0
22.750000 -0.094513 0
22.755000 -0.101253 0
22.760000 -0.106475 0
22.765000 -0.110413 0
22.770000 -0.113283 0
22.775000 -0.114851 0
22.780000 -0.113905 0
22.785000 -0.112964 0
22.790000 -0.112026 0
22.795000 -0.111093 0
22.800000 -0.110164 0
22.805000 -0.109236 0
22.810000 -0.108308 0
22.815000 -0.107373 0
22.820000 -0.106423 0
22.825000 -0.105439 0
22.830000 -0.104392 0
22.835000 -0.103230 0
22.840000 -0.101874 0
22.845000 -0.100200 0
22.850000 -0.098026 0
22.855000 -0.095094 0
22.860000 -0.091063 0
22.865000 -0.085495 0
22.870000 -0.077870 0
22.875000 -0.067607 0
22.880000 -0.054124 0
22.885000 -0.036913 0
22.890000 -0.015648 0
22.895000 0.009710 0
22.900000 0.038795 0
22.905000 0.070766 0
22.910000 0.104283 0
22.915000 0.137559 0
22.920000 0.168497 0
22.925000 0.194895 0
22.930000 0.214701 0
22.935000 0.226277 0
22.940000 0.228622 1
22.945000 0.221515 0
22.950000 0.205549 0
22.955000 0.182048 0
22.960000 0.152884 0
22.965000 0.120214 0
22.970000 0.086138 0
22.975000 0.052223 0
22.980000 0.018749 0
22.985000 -0.016254 0
22.990000 -0.057361 0
22.995000 -0.109619 0
23.000000 -0.172716 0
23.005000 -0.234000 0
23.010000 -0.266536 2
23.015000 -0.235351 0
23.020000 -0.107895 0
23.025000 0.133977 0
23.030000 0.475115 0
23.035000 0.844756 0
23.040000 1.120817 0
23.045000 1.186652 3
23.050000 1.007154 0
23.055000 0.655493 0
23.060000 0.263301 0
23.065000 -0.059917 0
23.070000 -0.261210 0
23.075000 -0.335450 4
23.080000 -0.308444 0
23.085000 -0.223759 0
23.090000 -0.125974 0
23.095000 -0.043738 0
23.100000 0.015430 0
23.105000 0.057461 0
23.110000 0.091154 0
23.115000 0.122515 0
23.120000 0.154174 0
23.125000 0.186710 0
23.130000 0.219795 0
23.135000 0.252759 0
23.140000 0.284790 0
23.145000 0.315013 0
23.150000 0.342541 0
23.155000 0.366510 0
23.160000 0.386132 0
23.165000 0.400729 0
23.170000 0.409779 0
23.175000 0.412940 5
23.180000 0.410070 0
23.185000 0.401243 0
23.190000 0.386738 0
23.195000 0.367025 0
23.200000 0.342743 0
23.205000 0.314659 0
23.210000 0.283633 0
23.215000 0.250568 0
23.220000 0.216370 0
23.225000 0.181909 0
23.230000 0.147978 0
23.235000 0.115271 0
23.240000 0.084361 0
23.245000 0.055692 0
23.250000 0.029573 0
23.255000 0.006187 0
23.260000 -0.014398 0
23.265000 -0.032215 0
23.270000 -0.047378 0
23.275000 -0.060063 0
23.280000 -0.070488 0
23.285000 -0.078896 0
23.290000 -0.085542 0
23.295000 -0.090675 0
23.300000 -0.094535 0
23.305000 -0.097340 0
23.310000 -0.098880 0
23.315000 -0.098013 0
23.320000 -0.097151 0
23.325000 -0.096292 0
23.330000 -0.095438 0
23.335000 -0.094586 0
23.340000 -0.093735 0
23.345000 -0.092881 0
23.350000 -0.092019 0
23.355000 -0.091136 0
23.360000 -0.090211 0
23.365000 -0.089206 0
23.370000 -0.088061 0
23.375000 -0.086679 0
23.380000 -0.084913 0
23.385000 -0.082546 0
23.390000 -0.079282 0
23.395000 -0.074727 0
23.400000 -0.068391 0
23.405000 -0.059706 0
23.410000 -0.048066 0
23.415000 -0.032895 0
23.420000 -0.013745 0
23.425000 0.009586 0
23.430000 0.036934 0
23.435000 0.067671 0
23.440000 0.100647 0
23.445000 0.134212 0
23.450000 0.166318 0
23.455000 0.194713 0
23.460000 0.217188 0
23.465000 0.231866 0
23.470000 0.237453 1
23.475000 0.233431 0
23.480000 0.220133 0
23.485000 0.198699 0
23.490000 0.170911 0
23.495000 0.138936 0
23.500000 0.104994 0
23.505000 0.070897 0
23.510000 0.037344 0
23.515000 0.002908 0
23.520000 -0.036611 0
23.525000 -0.086658 0
23.530000 -0.148471 0
23.535000 -0.211492 0
23.540000 -0.250016 2
23.545000 -0.228578 0
23.550000 -0.112767 0
23.555000 0.118404 0
23.560000 0.453461 0
23.565000 0.824372 0
23.570000 1.107704 0
23.575000 1.181418 3
23.580000 1.007232 0
23.585000 0.658683 0
23.590000 0.265801 0
23.595000 -0.061343 0
23.600000 -0.268196 0
23.605000 -0.348050 4
23.610000 -0.325307 0
23.615000 -0.242571 0
23.620000 -0.144465 0
23.625000 -0.060664 0
23.630000 0.000123 0
23.635000 0.043203 0
23.640000 0.077355 0
23.645000 0.108828 0
23.650000 0.140469 0
23.655000 0.172978 0
23.660000 0.206087 0
23.665000 0.239152 0
23.670000 0.271379 0
23.675000 0.301908 0
23.680000 0.329857 0
23.685000 0.354368 0
23.690000 0.374646 0
23.695000 0.390007 0
23.700000 0.399908 0
23.705000 0.403984 5
23.710000 0.402067 0
23.715000 0.394197 0
23.720000 0.380619 0
23.725000 0.361771 0
23.730000 0.338259 0
23.735000 0.310825 0
23.740000 0.280307 0
23.745000 0.247595 0
23.750000 0.213591 0
23.755000 0.179162 0
23.760000 0.145114 0
23.765000 0.112155 0
23.770000 0.080877 0
23.775000 0.051747 0
23.780000 0.025100 0
23.785000 0.001143 0
23.790000 -0.020033 0
23.795000 -0.038439 0
23.800000 -0.054170 0
23.805000 -0.067388 0
23.810000 -0.078301 0
23.815000 -0.087144 0
23.820000 -0.094169 0
23.825000 -0.099626 0
23.830000 -0.103753 0
23.835000 -0.106775 0
23.840000 -0.108892 0
23.845000 -0.108414 0
23.850000 -0.107499 0
23.855000 -0.106590 0
23.860000 -0.105684 0
23.865000 -0.104781 0
23.870000 -0.103881 0
23.875000 -0.102979 0
23.880000 -0.102072 0
23.885000 -0.101149 0
23.890000 -0.100192 0
23.895000 -0.099170 0
23.900000 -0.098034 0
23.905000 -0.096699 0
23.910000 -0.095038 0
23.915000 -0.092865 0
23.920000 -0.089913 0
23.925000 -0.085829 0
23.930000 -0.080160 0
23.935000 -0.072370 0
23.940000 -0.061866 0
23.945000 -0.048055 0
23.950000 -0.030433 0
23.955000 -0.008693 0
23.960000 0.017159 0
23.965000 0.046692 0
23.970000 0.078975 0
23.975000 0.112567 0
23.980000 0.145585 0
23.985000 0.175853 0
23.990000 0.201132 0
23.995000 0.219391 0
24.000000 0.229072 0
24.005000 0.229313 1
24.010000 0.220071 0
24.015000 0.202136 0
24.020000 0.177013 0
24.025000 0.146712 0
24.030000 0.113454 0
24.035000 0.079291 0
24.040000 0.045542 0
24.045000 0.011920 0
24.050000 -0.024421 0
24.055000 -0.068700 0
24.060000 -0.125097 0
24.065000 -0.189769 0
24.070000 -0.244617 0
24.075000 -0.258208 2
24.080000 -0.194498 0
24.085000 -0.024137 0
24.090000 0.261159 0
24.095000 0.625733 0
24.100000 0.972955 0
24.105000 1.171007 3
24.110000 1.128414 0
24.115000 0.859642 0
24.120000 0.474189 0
24.125000 0.101297 0
24.130000 -0.173313 0
24.135000 -0.319458 0
24.140000 -0.346750 4
24.145000 -0.289900 0
24.150000 -0.194943 0
24.155000 -0.101254 0
24.160000 -0.028453 0
24.165000 0.022777 0
24.170000 0.060563 0
24.175000 0.092873 0
24.180000 0.124237 0
24.185000 0.156292 0
24.190000 0.189158 0
24.195000 0.222338 0
24.200000 0.255096 0
24.205000 0.286596 0
24.210000 0.315960 0
24.215000 0.342307 0
24.220000 0.364803 0
24.225000 0.382701 0
24.230000 0.395380 0
24.235000 0.402382 0
24.240000 0.403437 5
24.245000 0.398483 0
24.250000 0.387665 0
24.255000 0.371328 0
24.260000 0.350004 0
24.265000 0.324375 0
24.270000 0.295240 0
24.275000 0.263473 0
24.280000 0.229977 0
24.285000 0.195646 0
24.290000 0.161322 0
24.295000 0.127764 0
24.300000 0.095625 0
24.305000 0.065433 0
24.310000 0.037587 0
24.315000 0.012354 0
24.320000 -0.010122 0
24.325000 -0.029806 0
24.330000 -0.046757 0
24.335000 -0.061110 0
24.340000 -0.073052 0
24.345000 -0.082812 0
24.350000 -0.090634 0
24.355000 -0.096772 0
24.360000 -0.101472 0
24.365000 -0.104967 0
24.370000 -0.107468 0
24.375000 -0.108785 0
24.380000 -0.107869 0
24.385000 -0.106957 0
24.390000 -0.106050 0
24.395000 -0.105146 0
24.400000 -0.104245 0
24.405000 -0.103344 0
24.410000 -0.102441 0
24.415000 -0.101526 0
24.420000 -0.100586 0
24.425000 -0.099598 0
24.430000 -0.098518 0
24.435000 -0.097280 0
24.440000 -0.095775 0
24.445000 -0.093844 0
24.450000 -0.091256 0
24.455000 -0.087691 0
24.460000 -0.082739 0
24.465000 -0.075893 0
24.470000 -0.066574 0
24.475000 -0.054181 0
24.480000 -0.038159 0
24.485000 -0.018105 0
24.490000 0.006117 0
24.495000 0.034257 0
24.500000 0.065588 0
24.505000 0.098865 0
24.510000 0.132359 0
24.515000 0.163981 0
24.520000 0.191477 0
24.525000 0.212694 0
24.530000 0.225852 0
24.535000 0.229795 1
24.540000 0.224154 0
24.545000 0.209407 0
24.550000 0.186809 0
24.555000 0.158216 0
24.560000 0.125817 0
24.565000 0.091786 0
24.570000 0.057808 0
24.575000 0.024319 0
24.580000 -0.010502 0
24.585000 -0.051196 0
24.590000 -0.103003 0
24.595000 -0.165927 0
24.600000 -0.227395 0
24.605000 -0.260021 2
24.610000 -0.228028 0
24.615000 -0.098195 0
24.620000 0.147509 0
24.625000 0.491905 0
24.630000 0.859670 0
24.635000 1.124222 0
24.640000 1.169894 3
24.645000 0.970918 0
24.650000 0.610493 0
24.655000 0.220646 0
24.660000 -0.093713 0
24.665000 -0.284405 0
24.670000 -0.349365 4
24.675000 -0.316181 0
24.680000 -0.229009 0
24.685000 -0.131588 0
24.690000 -0.050912 0
24.695000 0.006844 0
24.700000 0.048104 0
24.705000 0.081557 0
24.710000 0.112945 0
24.715000 0.144714 0
24.720000 0.177354 0
24.725000 0.210509 0
24.730000 0.243498 0
24.735000 0.275508 0
24.740000 0.305665 0
24.745000 0.333084 0
24.750000 0.356909 0
24.755000 0.376357 0
24.760000 0.390762 0
24.765000 0.399609 0
24.770000 0.402566 5
24.775000 0.399504 0
24.780000 0.390501 0
24.785000 0.375844 0
24.790000 0.356010 0
24.795000 0.331638 0
24.800000 0.303499 0
24.805000 0.272450 0
24.810000 0.239392 0
24.815000 0.205228 0
24.820000 0.170821 0
24.825000 0.136962 0
24.830000 0.104338 0
24.835000 0.073519 0
24.840000 0.044943 0
24.845000 0.018917 0
24.850000 -0.004380 0
24.855000 -0.024881 0
24.860000 -0.042620 0
24.865000 -0.057711 0
24.870000 -0.070329 0
24.875000 -0.080693 0
24.880000 -0.089046 0
24.885000 -0.095639 0
24.890000 -0.100723 0
24.895000 -0.104536 0
24.900000 -0.107295 0
24.905000 -0.108789 0
24.910000 -0.107873 0
24.915000 -0.106961 0
24.920000 -0.106054 0
24.925000 -0.105151 0
24.930000 -0.104250 0
24.935000 -0.103351 0
24.940000 -0.102450 0
24.945000 -0.101541 0
24.950000 -0.100611 0
24.955000 -0.099640 0
24.960000 -0.098591 0
24.965000 -0.097405 0
24.970000 -0.095985 0
24.975000 -0.094187 0
24.980000 -0.091799 0
24.985000 -0.088527 0
24.990000 -0.083983 0
24.995000 -0.077681 0
25.000000 -0.069059 0
25.005000 -0.057512 0
25.010000 -0.042464 0
25.015000 -0.023460 0
25.020000 -0.000286 0
25.025000 0.026917 0
25.030000 0.057545 0
25.035000 0.090481 0
25.040000 0.124106 0
25.045000 0.156397 0
25.050000 0.185113 0
25.055000 0.208045 0
25.060000 0.223293 0
25.065000 0.229527 1
25.070000 0.226177 0
25.075000 0.213519 0
25.080000 0.192639 0
25.085000 0.165274 0
25.090000 0.133567 0
25.095000 0.099740 0
25.100000 0.065650 0
25.105000 0.032111 0
25.110000 -0.002095 0
25.115000 -0.040943 0
25.120000 -0.089908 0
25.125000 -0.150873 0
25.130000 -0.214572 0
25.135000 -0.256622 2
25.140000 -0.242145 0
25.145000 -0.136279 0
25.150000 0.083781 0
25.155000 0.410766 0
25.160000 0.783026 0
25.165000 1.081400 0
25.170000 1.180254 3
25.175000 1.030743 0
25.180000 0.696076 0
25.185000 0.301689 0
25.190000 -0.038788 0
25.195000 -0.264324 0
25.200000 -0.362696 4
25.205000 -0.354026 0
25.210000 -0.278168 0
25.215000 -0.179927 0
25.220000 -0.091996 0
25.225000 -0.026629 0
25.230000 0.019513 0
25.235000 0.055039 0
25.240000 0.086839 0
25.245000 0.118391 0
25.250000 0.150756 0
25.255000 0.183831 0
25.260000 0.217049 0
25.265000 0.249658 0
25.270000 0.280828 0
25.275000 0.309695 0
25.280000 0.335405 0
25.285000 0.357157 0
25.290000 0.374239 0
25.295000 0.386070 0
25.300000 0.392233 0
25.305000 0.392494 5
25.310000 0.386819 0
25.315000 0.375378 0
25.320000 0.358533 0
25.325000 0.336818 0
25.330000 0.310915 0
25.335000 0.281613 0
25.340000 0.249769 0
25.345000 0.216269 0
25.350000 0.181984 0
25.355000 0.147734 0
25.360000 0.114259 0
25.365000 0.082196 0
25.370000 0.052059 0
25.375000 0.024240 0
25.380000 -0.001000 0
25.385000 -0.023514 0
25.390000 -0.043267 0
25.395000 -0.060311 0
25.400000 -0.074775 0
25.405000 -0.086839 0
25.410000 -0.096723 0
25.415000 -0.104666 0
25.420000 -0.110916 0
25.425000 -0.115715 0
25.430000 -0.119292 0
25.435000 -0.121857 0
25.440000 -0.123202 0
25.445000 -0.122214 0
25.450000 -0.121231 0
25.455000 -0.120253 0
25.460000 -0.119279 0
25.465000 -0.118308 0
25.470000 -0.117338 0
25.475000 -0.116367 0
25.480000 -0.115388 0
25.485000 -0.114389 0
25.490000 -0.113349 0
25.495000 -0.112234 0
25.500000 -0.110986 0
25.505000 -0.109512 0
25.510000 -0.107674 0
25.515000 -0.105270 0
25.520000 -0.102018 0
25.525000 -0.097548 0
25.530000 -0.091396 0
25.535000 -0.083020 0
25.540000 -0.071832 0
25.545000 -0.057262 0
25.550000 -0.038842 0
25.555000 -0.016318 0
25.560000 0.010238 0
25.565000 0.040327 0
25.570000 0.072956 0
25.575000 0.106644 0
25.580000 0.139491 0
25.585000 0.169341 0
25.590000 0.194008 0
25.595000 0.211534 0
25.600000 0.220452 1
25.605000 0.219980 0
25.610000 0.210146 0
25.615000 0.191776 0
25.620000 0.166385 0
25.625000 0.135965 0
25.630000 0.102697 0
25.635000 0.068582 0
25.640000 0.034891 0
25.645000 0.001322 0
25.650000 -0.034929 0
25.655000 -0.078978 0
25.660000 -0.135009 0
25.665000 -0.199560 0
25.670000 -0.255396 0
25.675000 -0.272093 2
25.680000 -0.214231 0
25.685000 -0.052220 0
25.690000 0.224278 0
25.695000 0.584794 0
25.700000 0.939782 0
25.705000 1.160393 3
25.710000 1.148129 0
25.715000 0.903428 0
25.720000 0.525734 0
25.725000 0.144327 0
25.730000 -0.148412 0
25.735000 -0.315295 0
25.740000 -0.360659 4
25.745000 -0.315357 0
25.750000 -0.223957 0
25.755000 -0.127737 0
25.760000 -0.050135 0
25.765000 0.005108 0
25.770000 0.045084 0
25.775000 0.078141 0
25.780000 0.109532 0
25.785000 0.141406 0
25.790000 0.174135 0
25.795000 0.207330 0
25.800000 0.240311 0
25.805000 0.272274 0
25.810000 0.302362 0
25.815000 0.329706 0
25.820000 0.353467 0
25.825000 0.372880 0
25.830000 0.387292 0
25.835000 0.396199 0
25.840000 0.399275 5
25.845000 0.396387 0
25.850000 0.387610 0
25.855000 0.373217 0
25.860000 0.353669 0
25.865000 0.329585 0
25.870000 0.301715 0
25.875000 0.270894 0
25.880000 0.238005 0
25.885000 0.203937 0
25.890000 0.169542 0
25.895000 0.135604 0
25.900000 0.102812 0
25.905000 0.071741 0
25.910000 0.042838 0
25.915000 0.016423 0
25.920000 -0.007307 0
25.925000 -0.028271 0
25.930000 -0.046486 0
25.935000 -0.062050 0
25.940000 -0.075125 0
25.945000 -0.085919 0
25.950000 -0.094665 0
25.955000 -0.101611 0
25.960000 -0.107004 0
25.965000 -0.111080 0
25.970000 -0.114059 0
25.975000 -0.116140 0
25.980000 -0.115627 0
25.985000 -0.114676 0
25.990000 -0.113731 0
25.995000 -0.112789 0
26.000000 -0.111851 0
26.005000 -0.110916 0
26.010000 -0.109980 0
26.015000 -0.109038 0
26.020000 -0.108082 0
26.025000 -0.107093 0
26.030000 -0.106044 0
26.035000 -0.104885 0
26.040000 -0.103537 0
26.045000 -0.101879 0
26.050000 -0.099733 0
26.055000 -0.096843 0
26.060000 -0.092870 0
26.065000 -0.087379 0
26.070000 -0.079848 0
26.075000 -0.069695 0
26.080000 -0.056331 0
26.085000 -0.039243 0
26.090000 -0.018090 0
26.095000 0.007174 0
26.100000 0.036193 0
26.105000 0.068131 0
26.110000 0.101647 0
26.115000 0.134948 0
26.120000 0.165923 0
26.125000 0.192354 0
26.130000 0.212174 0
26.135000 0.223733 0
26.140000 0.226025 1
26.145000 0.218833 0
26.150000 0.202761 0
26.155000 0.179153 0
26.160000 0.149903 0
26.165000 0.117184 0
26.170000 0.083106 0
26.175000 0.049220 0
26.180000 0.015750 0
26.185000 -0.019388 0
26.190000 -0.060881 0
26.195000 -0.113724 0
26.200000 -0.177150 0
26.205000 -0.237663 0
26.210000 -0.267469 2
26.215000 -0.231190 0
26.220000 -0.096561 0
26.225000 0.153179 0
26.230000 0.499521 0
26.235000 0.866712 0
26.240000 1.129598 0
26.245000 1.174780 3
26.250000 0.977708 0
26.255000 0.619737 0
26.260000 0.228458 0
26.265000 -0.092568 0
26.270000 -0.293587 0
26.275000 -0.369797 4
26.280000 -0.345646 0
26.285000 -0.262734 0
26.290000 -0.164459 0
26.295000 -0.079940 0
26.300000 -0.018137 0
26.305000 0.025782 0
26.310000 0.060391 0
26.315000 0.092008 0
26.320000 0.123643 0
26.325000 0.156120 0
26.330000 0.189246 0
26.335000 0.222425 0
26.340000 0.254900 0
26.345000 0.285844 0
26.350000 0.314399 0
26.355000 0.339725 0
26.360000 0.361036 0
26.365000 0.377638 0
26.370000 0.388972 0
26.375000 0.394637 5
26.380000 0.394421 0
26.385000 0.388305 0
26.390000 0.376472 0
26.395000 0.359291 0
26.400000 0.337305 0
26.405000 0.311193 0
26.410000 0.281741 0
26.415000 0.249801 0
26.420000 0.216250 0
26.425000 0.181947 0
26.430000 0.147704 0
26.435000 0.114251 0
26.440000 0.082213 0
26.445000 0.052100 0
26.450000 0.024296 0
26.455000 -0.000939 0
26.460000 -0.023463 0
26.465000 -0.043239 0
26.470000 -0.060318 0
26.475000 -0.074827 0
26.480000 -0.086944 0
26.485000 -0.096885 0
26.490000 -0.104889 0
26.495000 -0.111198 0
26.500000 -0.116053 0
26.505000 -0.119683 0
26.510000 -0.122295 0
26.515000 -0.123675 0
26.520000 -0.122685 0
26.525000 -0.121699 0
26.530000 -0.120719 0
26.535000 -0.119742 0
26.540000 -0.118769 0
26.545000 -0.117798 0
26.550000 -0.116825 0
26.555000 -0.115845 0
26.560000 -0.114847 0
26.565000 -0.113812 0
26.570000 -0.112707 0
26.575000 -0.111477 0
26.580000 -0.110036 0
26.585000 -0.108255 0
26.590000 -0.105941 0
26.595000 -0.102828 0
26.600000 -0.098562 0
26.605000 -0.092698 0
26.610000 -0.084708 0
26.615000 -0.074014 0
26.620000 -0.060045 0
26.625000 -0.042313 0
26.630000 -0.020522 0
26.635000 0.005322 0
26.640000 0.034807 0
26.645000 0.067046 0
26.650000 0.100661 0
26.655000 0.133844 0
26.660000 0.164496 0
26.665000 0.190437 0
26.670000 0.209661 0
26.675000 0.220588 0
26.680000 0.222281 1
26.685000 0.214579 0
26.690000 0.198124 0
26.695000 0.174267 0
26.700000 0.144890 0
26.705000 0.112135 0
26.710000 0.078072 0
26.715000 0.044214 0
26.720000 0.010770 0
26.725000 -0.024306 0
26.730000 -0.065612 0
26.735000 -0.118107 0
26.740000 -0.181290 0
26.745000 -0.242377 0
26.750000 -0.274516 2
26.755000 -0.243018 0
26.760000 -0.115646 0
26.765000 0.125621 0
26.770000 0.466052 0
26.775000 0.836143 0
26.780000 1.115324 0
26.785000 1.187041 3
26.790000 1.015008 0
26.795000 0.669208 0
26.800000 0.275517 0
26.805000 -0.057434 0
26.810000 -0.273717 0
26.815000 -0.364121 4
26.820000 -0.350181 0
26.825000 -0.272023 0
26.830000 -0.173676 0
26.835000 -0.086562 0
26.840000 -0.021980 0
26.845000 0.023730 0
26.850000 0.059097 0
26.855000 0.090856 0
26.860000 0.122393 0
26.865000 0.154741 0
26.870000 0.187794 0
26.875000 0.220992 0
26.880000 0.253597 0
26.885000 0.284787 0
26.890000 0.313711 0
26.895000 0.339526 0
26.900000 0.361436 0
26.905000 0.378735 0
26.910000 0.390844 0
26.915000 0.397339 0
26.920000 0.397978 5
26.925000 0.392716 0
26.930000 0.381704 0
26.935000 0.365285 0
26.940000 0.343974 0
26.945000 0.318432 0
26.950000 0.289428 0
26.955000 0.257805 0
26.960000 0.224435 0
26.965000 0.190182 0
26.970000 0.155864 0
26.975000 0.122224 0
26.980000 0.089906 0
26.985000 0.059435 0
26.990000 0.031216 0
26.995000 0.005528 0
27.000000 -0.017468 0
27.005000 -0.037719 0
27.010000 -0.055262 0
27.015000 -0.070211 0
27.020000 -0.082738 0
27.025000 -0.093053 0
27.030000 -0.101390 0
27.035000 -0.107992 0
27.040000 -0.113100 0
27.045000 -0.116944 0
27.050000 -0.119736 0
27.055000 -0.121244 0
27.060000 -0.120266 0
27.065000 -0.119292 0
27.070000 -0.118324 0
27.075000 -0.117359 0
27.080000 -0.116398 0
27.085000 -0.115440 0
27.090000 -0.114480 0
27.095000 -0.113515 0
27.100000 -0.112535 0
27.105000 -0.111521 0
27.110000 -0.110446 0
27.115000 -0.109258 0
27.120000 -0.107881 0
27.125000 -0.106193 0
27.130000 -0.104017 0
27.135000 -0.101103 0
27.140000 -0.097117 0
27.145000 -0.091633 0
27.150000 -0.084140 0
27.155000 -0.074068 0
27.160000 -0.060838 0
27.165000 -0.043941 0
27.170000 -0.023031 0
27.175000 0.001959 0
27.180000 0.030711 0
27.185000 0.062445 0
27.190000 0.095890 0
27.195000 0.129325 0
27.200000 0.160706 0
27.205000 0.187854 0
27.210000 0.208708 0
27.215000 0.221576 0
27.220000 0.225367 1
27.225000 0.219741 0
27.230000 0.205161 0
27.235000 0.182827 0
27.240000 0.154518 0
27.245000 0.122336 0
27.250000 0.088399 0
27.255000 0.054400 0
27.260000 0.020933 0
27.265000 -0.013439 0
27.270000 -0.052775 0
27.275000 -0.102334 0
27.280000 -0.163584 0
27.285000 -0.227158 0
27.290000 -0.269360 2
27.295000 -0.256592 0
27.300000 -0.155121 0
27.305000 0.057840 0
27.310000 0.377836 0
27.315000 0.750360 0
27.320000 1.064684 0
27.325000 1.196079 3
27.330000 1.082084 0
27.335000 0.767622 0
27.340000 0.373834 0
27.345000 0.020241 0
27.350000 -0.223738 0
27.355000 -0.339812 0
27.360000 -0.344346 4
27.365000 -0.275251 0
27.370000 -0.177825 0
27.375000 -0.087355 0
27.380000 -0.018929 0
27.385000 0.029261 0
27.390000 0.065664 0
27.395000 0.097616 0
27.400000 0.129027 0
27.405000 0.161203 0
27.410000 0.194140 0
27.415000 0.227306 0
27.420000 0.259965 0
27.425000 0.291290 0
27.430000 0.320419 0
27.435000 0.346491 0
27.440000 0.368693 0
27.445000 0.386300 0
27.450000 0.398711 0
27.455000 0.405488 0
27.460000 0.406372 5
27.465000 0.401306 0
27.470000 0.390438 0
27.475000 0.374108 0
27.480000 0.352836 0
27.485000 0.327288 0
27.490000 0.298247 0
27.495000 0.266567 0
27.500000 0.233134 0
27.505000 0.198825 0
27.510000 0.164470 0
27.515000 0.130819 0
27.520000 0.098522 0
27.525000 0.068109 0
27.530000 0.039983 0
27.535000 0.014420 0
27.540000 -0.008423 0
27.545000 -0.028500 0
27.550000 -0.045856 0
27.555000 -0.060614 0
27.560000 -0.072950 0
27.565000 -0.083083 0
27.570000 -0.091251 0
27.575000 -0.097701 0
27.580000 -0.102678 0
27.585000 -0.106412 0
27.590000 -0.109116 0
27.595000 -0.110575 0
27.600000 -0.109650 0
27.605000 -0.108730 0
27.610000 -0.107814 0
27.615000 -0.106902 0
27.620000 -0.105992 0
27.625000 -0.105085 0
27.630000 -0.104175 0
27.635000 -0.103258 0
27.640000 -0.102322 0
27.645000 -0.101347 0
27.650000 -0.100299 0
27.655000 -0.099121 0
27.660000 -0.097725 0
27.665000 -0.095974 0
27.670000 -0.093671 0
27.675000 -0.090538 0
27.680000 -0.086211 0
27.685000 -0.080228 0
27.690000 -0.072050 0
27.695000 -0.061090 0
27.700000 -0.046771 0
27.705000 -0.028618 0
27.710000 -0.006362 0
27.715000 0.019945 0
27.720000 0.049826 0
27.725000 0.082310 0
27.730000 0.115933 0
27.735000 0.148808 0
27.740000 0.178781 0
27.745000 0.203655 0
27.750000 0.221452 0
27.755000 0.230676 1
27.760000 0.230516 0
27.765000 0.220965 0
27.770000 0.202825 0
27.775000 0.177593 0
27.780000 0.147252 0
27.785000 0.113990 0
27.790000 0.079826 0
27.795000 0.046066 0
27.800000 0.012467 0
27.805000 -0.023705 0
27.810000 -0.067544 0
27.815000 -0.123335 0
27.820000 -0.187876 0
27.825000 -0.244224 0
27.830000 -0.262096 2
27.835000 -0.205976 0
27.840000 -0.045987 0
27.845000 0.228723 0
27.850000 0.588447 0
27.855000 0.944276 0
27.860000 1.167199 3
27.865000 1.157875 0
27.870000 0.915965 0
27.875000 0.539527 0
27.880000 0.156799 0
27.885000 -0.139422 0
27.890000 -0.310842 0
27.895000 -0.360623 4
27.900000 -0.318492 0
27.905000 -0.228311 0
27.910000 -0.131539 0
27.915000 -0.052542 0
27.920000 0.003998 0
27.925000 0.044741 0
27.930000 0.078079 0
27.935000 0.109479 0
27.940000 0.141266 0
27.945000 0.173912 0
27.950000 0.207075 0
27.955000 0.240098 0
27.960000 0.272194 0
27.965000 0.302518 0
27.970000 0.330208 0
27.975000 0.354430 0
27.980000 0.374415 0
27.985000 0.389500 0
27.990000 0.399166 0
27.995000 0.403064 5
28.000000 0.401035 0
28.005000 0.393123 0
28.010000 0.379570 0
28.015000 0.360802 0
28.020000 0.337411 0
28.025000 0.310120 0
28.030000 0.279743 0
28.035000 0.247150 0
28.040000 0.213223 0
28.045000 0.178813 0
28.050000 0.144714 0
28.055000 0.111628 0
28.060000 0.080146 0
28.065000 0.050739 0
28.070000 0.023750 0
28.075000 -0.000600 0
28.080000 -0.022206 0
28.085000 -0.041064 0
28.090000 -0.057255 0
28.095000 -0.070926 0
28.100000 -0.082273 0
28.105000 -0.091522 0
28.110000 -0.098916 0
28.115000 -0.104701 0
28.120000 -0.109114 0
28.125000 -0.112379 0
28.130000 -0.114697 0
28.135000 -0.114225 0
28.140000 -0.113282 0
28.145000 -0.112343 0
28.150000 -0.111409 0
28.155000 -0.110478 0
28.160000 -0.109551 0
28.165000 -0.108623 0
28.170000 -0.107692 0
28.175000 -0.106751 0
28.180000 -0.105784 0
28.185000 -0.104767 0
28.190000 -0.103661 0
28.195000 -0.102398 0
28.200000 -0.100874 0
28.205000 -0.098935 0
28.210000 -0.096357 0
28.215000 -0.092835 0
28.220000 -0.087973 0
28.225000 -0.081284 0
28.230000 -0.072211 0
28.235000 -0.060165 0
28.240000 -0.044598 0
28.245000 -0.025092 0
28.250000 -0.001473 0
28.255000 0.026079 0
28.260000 0.056937 0
28.265000 0.089977 0
28.270000 0.123600 0
28.275000 0.155828 0
28.280000 0.184480 0
28.285000 0.207413 0
28.290000 0.222782 0
28.295000 0.229285 1
28.300000 0.226347 0
28.305000 0.214201 0
28.310000 0.193861 0
28.315000 0.166977 0
28.320000 0.135610 0
28.325000 0.101927 0
28.330000 0.067804 0
28.335000 0.034216 0
28.340000 0.000330 0
28.345000 -0.037295 0
28.350000 -0.083980 0
28.355000 -0.142781 0
28.360000 -0.207442 0
28.365000 -0.257380 0
28.370000 -0.260245 2
28.375000 -0.181111 0
28.380000 0.006573 0
28.385000 0.306179 0
28.390000 0.675191 0
28.395000 1.012185 0
28.400000 1.188347 3
28.405000 1.121879 0
28.410000 0.836608 0
