0.000000 1.140366 3
0.005000 1.054147 0
0.010000 0.834073 0
0.015000 0.536820 0
0.020000 0.228088 0
0.025000 -0.039965 0
0.030000 -0.237803 0
0.035000 -0.356111 0
0.040000 -0.400000 4
0.045000 -0.384653 0
0.050000 -0.331580 0
0.055000 -0.263486 0
0.060000 -0.198504 0
0.065000 -0.146603 0
0.070000 -0.109769 0
0.075000 -0.084971 0
0.080000 -0.067587 0
0.085000 -0.053639 0
0.090000 -0.040530 0
0.095000 -0.026864 0
0.100000 -0.011998 0
0.105000 0.004327 0
0.110000 0.022196 0
0.115000 0.041604 0
0.120000 0.062494 0
0.125000 0.084758 0
0.130000 0.108240 0
0.135000 0.132738 0
0.140000 0.157997 0
0.145000 0.183718 0
0.150000 0.209560 0
0.155000 0.235144 0
0.160000 0.260065 0
0.165000 0.283900 0
0.170000 0.306219 0
0.175000 0.326598 0
0.180000 0.344633 0
0.185000 0.359953 0
0.190000 0.372229 0
0.195000 0.381192 0
0.200000 0.386637 0
0.205000 0.388433 5
0.210000 0.386527 0
0.215000 0.380948 0
0.220000 0.371804 0
0.225000 0.359280 0
0.230000 0.343629 0
0.235000 0.325169 0
0.240000 0.304265 0
0.245000 0.281321 0
0.250000 0.256767 0
0.255000 0.231044 0
0.260000 0.204593 0
0.265000 0.177840 0
0.270000 0.151187 0
0.275000 0.125001 0
0.280000 0.099611 0
0.285000 0.075296 0
0.290000 0.052286 0
0.295000 0.030763 0
0.300000 0.010854 0
0.305000 -0.007359 0
0.310000 -0.023839 0
0.315000 -0.038588 0
0.320000 -0.051643 0
0.325000 -0.063070 0
0.330000 -0.072956 0
0.335000 -0.081405 0
0.340000 -0.088534 0
0.345000 -0.094465 0
0.350000 -0.099321 0
0.355000 -0.103225 0
0.360000 -0.106296 0
0.365000 -0.108645 0
0.370000 -0.110375 0
0.375000 -0.111581 0
0.380000 -0.112346 0
0.385000 -0.112746 0
0.390000 -0.112845 0
0.395000 -0.112700 0
0.400000 -0.112358 0
0.405000 -0.111859 0
0.410000 -0.111237 0
0.415000 -0.110472 0
0.420000 -0.109439 0
0.425000 -0.108411 0
0.430000 -0.107388 0
0.435000 -0.106370 0
0.440000 -0.105357 0
0.445000 -0.104350 0
0.450000 -0.103347 0
0.455000 -0.102349 0
0.460000 -0.101357 0
0.465000 -0.100369 0
0.470000 -0.099386 0
0.475000 -0.098409 0
0.480000 -0.097436 0
0.485000 -0.096467 0
0.490000 -0.095504 0
0.495000 -0.094545 0
0.500000 -0.093591 0
0.505000 -0.092641 0
0.510000 -0.091694 0
0.515000 -0.090750 0
0.520000 -0.089808 0
0.525000 -0.088864 0
0.530000 -0.087914 0
0.535000 -0.086953 0
0.540000 -0.085968 0
0.545000 -0.084944 0
0.550000 -0.083856 0
0.555000 -0.082669 0
0.560000 -0.081331 0
0.565000 -0.079771 0
0.570000 -0.077894 0
0.575000 -0.075573 0
0.580000 -0.072648 0
0.585000 -0.068922 0
0.590000 -0.064163 0
0.595000 -0.058103 0
0.600000 -0.050456 0
0.605000 -0.040929 0
0.610000 -0.029247 0
0.615000 -0.015184 0
0.620000 0.001403 0
0.625000 0.020535 0
0.630000 0.042081 0
0.635000 0.065725 0
0.640000 0.090952 0
0.645000 0.117052 0
0.650000 0.143136 0
0.655000 0.168184 0
0.660000 0.191103 0
0.665000 0.210805 0
0.670000 0.226293 0
0.675000 0.236743 0
0.680000 0.241579 1
0.685000 0.240523 0
0.690000 0.233622 0
0.695000 0.221248 0
0.700000 0.204059 0
0.705000 0.182948 0
0.710000 0.158960 0
0.715000 0.133213 0
0.720000 0.106807 0
0.725000 0.080746 0
0.730000 0.055869 0
0.735000 0.032769 0
0.740000 0.011685 0
0.745000 -0.007693 0
0.750000 -0.026485 0
0.755000 -0.046840 0
0.760000 -0.071780 0
0.765000 -0.104197 0
0.770000 -0.144833 0
0.775000 -0.189858 0
0.780000 -0.229397 0
0.785000 -0.248243 2
0.790000 -0.228598 0
0.795000 -0.153554 0
0.800000 -0.010638 0
0.805000 0.203224 0
0.810000 0.474143 0
0.815000 0.764304 0
0.820000 1.013804 0
0.825000 1.157437 3
0.830000 1.151505 0
0.835000 0.992535 0
0.840000 0.723404 0
0.845000 0.412057 0
0.850000 0.121711 0
0.855000 -0.106337 0
0.860000 -0.254535 0
0.865000 -0.323228 0
0.870000 -0.325111 4
0.875000 -0.281130 0
0.880000 -0.215392 0
0.885000 -0.148743 0
0.890000 -0.093892 0
0.895000 -0.054582 0
0.900000 -0.028371 0
0.905000 -0.010491 0
0.910000 0.003410 0
0.915000 0.016235 0
0.920000 0.029552 0
0.925000 0.044078 0
0.930000 0.060099 0
0.935000 0.077706 0
0.940000 0.096894 0
0.945000 0.117601 0
0.950000 0.139711 0
0.955000 0.163056 0
0.960000 0.187416 0
0.965000 0.212518 0
0.970000 0.238040 0
0.975000 0.263616 0
0.980000 0.288840 0
0.985000 0.313280 0
0.990000 0.336490 0
0.995000 0.358016 0
1.000000 0.377419 0
1.005000 0.394284 0
1.010000 0.408234 0
1.015000 0.418947 0
1.020000 0.426166 0
1.025000 0.429710 5
1.030000 0.429477 0
1.035000 0.425454 0
1.040000 0.417714 0
1.045000 0.406415 0
1.050000 0.391793 0
1.055000 0.374154 0
1.060000 0.353865 0
1.065000 0.331337 0
1.070000 0.307014 0
1.075000 0.281359 0
1.080000 0.254834 0
1.085000 0.227894 0
1.090000 0.200968 0
1.095000 0.174450 0
1.100000 0.148693 0
1.105000 0.123999 0
1.110000 0.100617 0
1.115000 0.078743 0
1.120000 0.058516 0
1.125000 0.040024 0
1.130000 0.023308 0
1.135000 0.008365 0
1.140000 -0.004844 0
1.145000 -0.016388 0
1.150000 -0.026362 0
1.155000 -0.034876 0
1.160000 -0.042053 0
1.165000 -0.048021 0
1.170000 -0.052912 0
1.175000 -0.056852 0
1.180000 -0.059965 0
1.185000 -0.062366 0
1.190000 -0.064161 0
1.195000 -0.065446 0
1.200000 -0.066305 0
1.205000 -0.066814 0
1.210000 -0.067037 0
1.215000 -0.067030 0
1.220000 -0.066839 0
1.225000 -0.066503 0
1.230000 -0.066053 0
1.235000 -0.065294 0
1.240000 -0.064486 0
1.245000 -0.063682 0
1.250000 -0.062882 0
1.255000 -0.062087 0
1.260000 -0.061295 0
1.265000 -0.060507 0
1.270000 -0.059723 0
1.275000 -0.058943 0
1.280000 -0.058167 0
1.285000 -0.057395 0
1.290000 -0.056626 0
1.295000 -0.055862 0
1.300000 -0.055101 0
1.305000 -0.054344 0
1.310000 -0.053590 0
1.315000 -0.052840 0
1.320000 -0.052093 0
1.325000 -0.051349 0
1.330000 -0.050606 0
1.335000 -0.049864 0
1.340000 -0.049119 0
1.345000 -0.048366 0
1.350000 -0.047599 0
1.355000 -0.046805 0
1.360000 -0.045967 0
1.365000 -0.045057 0
1.370000 -0.044034 0
1.375000 -0.042840 0
1.380000 -0.041395 0
1.385000 -0.039590 0
1.390000 -0.037282 0
1.395000 -0.034291 0
1.400000 -0.030396 0
1.405000 -0.025337 0
1.410000 -0.018826 0
1.415000 -0.010554 0
1.420000 -0.000218 0
1.425000 0.012450 0
1.430000 0.027648 0
1.435000 0.045467 0
1.440000 0.065845 0
1.445000 0.088534 0
1.450000 0.113079 0
1.455000 0.138809 0
1.460000 0.164852 0
1.465000 0.190174 0
1.470000 0.213641 0
1.475000 0.234098 0
1.480000 0.250467 0
1.485000 0.261833 0
1.490000 0.267533 1
1.495000 0.267217 0
1.500000 0.260884 0
1.505000 0.248882 0
1.510000 0.231877 0
1.515000 0.210790 0
1.520000 0.186715 0
1.525000 0.160825 0
1.530000 0.134275 0
1.535000 0.108118 0
1.540000 0.083222 0
1.545000 0.060185 0
1.550000 0.039206 0
1.555000 0.019864 0
1.560000 0.000819 0
1.565000 -0.020388 0
1.570000 -0.047021 0
1.575000 -0.081800 0
1.580000 -0.124480 0
1.585000 -0.169292 0
1.590000 -0.203926 0
1.595000 -0.211108 2
1.600000 -0.172063 0
1.605000 -0.070356 0
1.610000 0.103819 0
1.615000 0.346948 0
1.620000 0.633355 0
1.625000 0.910854 0
1.630000 1.110601 0
1.635000 1.172815 3
1.640000 1.074194 0
1.645000 0.840602 0
1.650000 0.536728 0
1.655000 0.233134 0
1.660000 -0.018291 0
1.665000 -0.191637 0
1.670000 -0.282247 0
1.675000 -0.300122 4
1.680000 -0.265238 0
1.685000 -0.202483 0
1.690000 -0.134858 0
1.695000 -0.077517 0
1.700000 -0.035919 0
1.705000 -0.008287 0
1.710000 0.010208 0
1.715000 0.024232 0
1.720000 0.036964 0
1.725000 0.050125 0
1.730000 0.064503 0
1.735000 0.080405 0
1.740000 0.097928 0
1.745000 0.117066 0
1.750000 0.137754 0
1.755000 0.159868 0
1.760000 0.183228 0
1.765000 0.207602 0
1.770000 0.232697 0
1.775000 0.258172 0
1.780000 0.283636 0
1.785000 0.308664 0
1.790000 0.332800 0
1.795000 0.355574 0
1.800000 0.376519 0
1.805000 0.395178 0
1.810000 0.411130 0
1.815000 0.423999 0
1.820000 0.433468 0
1.825000 0.439296 0
1.830000 0.441322 5
1.835000 0.439477 0
1.840000 0.433784 0
1.845000 0.424356 0
1.850000 0.411394 0
1.855000 0.395182 0
1.860000 0.376070 0
1.865000 0.354466 0
1.870000 0.330820 0
1.875000 0.305604 0
1.880000 0.279305 0
1.885000 0.252400 0
1.890000 0.225349 0
1.895000 0.198575 0
1.900000 0.172463 0
1.905000 0.147346 0
1.910000 0.123499 0
1.915000 0.101141 0
1.920000 0.080433 0
1.925000 0.061480 0
1.930000 0.044334 0
1.935000 0.029000 0
1.940000 0.015445 0
1.945000 0.003599 0
1.950000 -0.006632 0
1.955000 -0.015361 0
1.960000 -0.022716 0
1.965000 -0.028829 0
1.970000 -0.033838 0
1.975000 -0.037875 0
1.980000 -0.041069 0
1.985000 -0.043539 0
1.990000 -0.045394 0
1.995000 -0.046735 0
2.000000 -0.047649 0
2.005000 -0.048212 0
2.010000 -0.048492 0
2.015000 -0.048544 0
2.020000 -0.048415 0
2.025000 -0.048144 0
2.030000 -0.047714 0
2.035000 -0.046994 0
2.040000 -0.046278 0
2.045000 -0.045565 0
2.050000 -0.044855 0
2.055000 -0.044149 0
2.060000 -0.043447 0
2.065000 -0.042748 0
2.070000 -0.042053 0
2.075000 -0.041361 0
2.080000 -0.040673 0
2.085000 -0.039987 0
2.090000 -0.039306 0
2.095000 -0.038628 0
2.100000 -0.037953 0
2.105000 -0.037281 0
2.110000 -0.036612 0
2.115000 -0.035947 0
2.120000 -0.035284 0
2.125000 -0.034622 0
2.130000 -0.033961 0
2.135000 -0.033297 0
2.140000 -0.032628 0
2.145000 -0.031945 0
2.150000 -0.031239 0
2.155000 -0.030493 0
2.160000 -0.029680 0
2.165000 -0.028761 0
2.170000 -0.027681 0
2.175000 -0.026359 0
2.180000 -0.024688 0
2.185000 -0.022524 0
2.190000 -0.019683 0
2.195000 -0.015940 0
2.200000 -0.011026 0
2.205000 -0.004642 0
2.210000 0.003534 0
2.215000 0.013816 0
2.220000 0.026485 0
2.225000 0.041746 0
2.230000 0.059684 0
2.235000 0.080224 0
2.240000 0.103088 0
2.245000 0.127777 0
2.250000 0.153562 0
2.255000 0.179504 0
2.260000 0.204503 0
2.265000 0.227365 0
2.270000 0.246896 0
2.275000 0.262003 0
2.280000 0.271793 0
2.285000 0.275661 1
2.290000 0.273349 0
2.295000 0.264974 0
2.300000 0.251017 0
2.305000 0.232278 0
2.310000 0.209796 0
2.315000 0.184758 0
2.320000 0.158387 0
2.325000 0.131852 0
2.330000 0.106168 0
2.335000 0.082116 0
2.340000 0.060128 0
2.345000 0.040098 0
2.350000 0.021098 0
2.355000 0.001061 0
2.360000 -0.023169 0
2.365000 -0.054881 0
2.370000 -0.095259 0
2.375000 -0.140477 0
2.380000 -0.179845 0
2.385000 -0.196595 2
2.390000 -0.171202 0
2.395000 -0.085542 0
2.400000 0.072715 0
2.405000 0.303602 0
2.410000 0.585447 0
2.415000 0.868443 0
2.420000 1.082189 0
2.425000 1.161456 3
2.430000 1.077951 0
2.435000 0.855254 0
2.440000 0.555253 0
2.445000 0.248758 0
2.450000 -0.010114 0
2.455000 -0.192914 0
2.460000 -0.292975 0
2.465000 -0.318768 4
2.470000 -0.289136 0
2.475000 -0.228510 0
2.480000 -0.160354 0
2.485000 -0.100970 0
2.490000 -0.057032 0
2.495000 -0.027550 0
2.500000 -0.007931 0
2.505000 0.006612 0
2.510000 0.019478 0
2.515000 0.032576 0
2.520000 0.046797 0
2.525000 0.062505 0
2.530000 0.079818 0
2.535000 0.098747 0
2.540000 0.119234 0
2.545000 0.141167 0
2.550000 0.164379 0
2.555000 0.188648 0
2.560000 0.213696 0
2.565000 0.239194 0
2.570000 0.264763 0
2.575000 0.289987 0
2.580000 0.314419 0
2.585000 0.337596 0
2.590000 0.359051 0
2.595000 0.378329 0
2.600000 0.395001 0
2.605000 0.408683 0
2.610000 0.419047 0
2.615000 0.425833 0
2.620000 0.428864 5
2.625000 0.428047 0
2.630000 0.423382 0
2.635000 0.414959 0
2.640000 0.402956 0
2.645000 0.387635 0
2.650000 0.369326 0
2.655000 0.348420 0
2.660000 0.325353 0
2.665000 0.300590 0
2.670000 0.274612 0
2.675000 0.247895 0
2.680000 0.220902 0
2.685000 0.194066 0
2.690000 0.167781 0
2.695000 0.142391 0
2.700000 0.118188 0
2.705000 0.095408 0
2.710000 0.074228 0
2.715000 0.054767 0
2.720000 0.037096 0
2.725000 0.021232 0
2.730000 0.007155 0
2.735000 -0.005193 0
2.740000 -0.015898 0
2.745000 -0.025067 0
2.750000 -0.032822 0
2.755000 -0.039295 0
2.760000 -0.044619 0
2.765000 -0.048928 0
2.770000 -0.052353 0
2.775000 -0.055013 0
2.780000 -0.057024 0
2.785000 -0.058486 0
2.790000 -0.059491 0
2.795000 -0.060120 0
2.800000 -0.060442 0
2.805000 -0.060517 0
2.810000 -0.060395 0
2.815000 -0.060117 0
2.820000 -0.059718 0
2.825000 -0.058993 0
2.830000 -0.058217 0
2.835000 -0.057445 0
2.840000 -0.056676 0
2.845000 -0.055911 0
2.850000 -0.055150 0
2.855000 -0.054393 0
2.860000 -0.053639 0
2.865000 -0.052890 0
2.870000 -0.052144 0
2.875000 -0.051402 0
2.880000 -0.050663 0
2.885000 -0.049928 0
2.890000 -0.049197 0
2.895000 -0.048469 0
2.900000 -0.047745 0
2.905000 -0.047024 0
2.910000 -0.046306 0
2.915000 -0.045590 0
2.920000 -0.044876 0
2.925000 -0.044161 0
2.930000 -0.043443 0
2.935000 -0.042716 0
2.940000 -0.041971 0
2.945000 -0.041196 0
2.950000 -0.040369 0
2.955000 -0.039459 0
2.960000 -0.038419 0
2.965000 -0.037183 0
2.970000 -0.035660 0
2.975000 -0.033725 0
2.980000 -0.031218 0
2.985000 -0.027938 0
2.990000 -0.023640 0
2.995000 -0.018043 0
3.000000 -0.010836 0
3.005000 -0.001702 0
3.010000 0.009663 0
3.015000 0.023506 0
3.020000 0.039986 0
3.025000 0.059122 0
3.030000 0.080755 0
3.035000 0.104517 0
3.040000 0.129815 0
3.045000 0.155835 0
3.050000 0.181569 0
3.055000 0.205879 0
3.060000 0.227567 0
3.065000 0.245479 0
3.070000 0.258597 0
3.075000 0.266142 0
3.080000 0.267642 1
3.085000 0.262987 0
3.090000 0.252436 0
3.095000 0.236595 0
3.100000 0.216358 0
3.105000 0.192823 0
3.110000 0.167194 0
3.115000 0.140674 0
3.120000 0.114379 0
3.125000 0.089242 0
3.130000 0.065930 0
3.135000 0.044711 0
3.140000 0.025234 0
3.145000 0.006217 0
3.150000 -0.014794 0
3.155000 -0.041145 0
3.160000 -0.075713 0
3.165000 -0.118350 0
3.170000 -0.163156 0
3.175000 -0.197362 0
3.180000 -0.203033 2
3.185000 -0.160787 0
3.190000 -0.053902 0
3.195000 0.126992 0
3.200000 0.376505 0
3.205000 0.665117 0
3.210000 0.935803 0
3.215000 1.116910 0
3.220000 1.151177 3
3.225000 1.025532 0
3.230000 0.776970 0
3.235000 0.469600 0
3.240000 0.169116 0
3.245000 -0.077608 0
3.250000 -0.247617 0
3.255000 -0.337178 0
3.260000 -0.355893 4
3.265000 -0.322559 0
3.270000 -0.260680 0
3.275000 -0.192404 0
3.280000 -0.132983 0
3.285000 -0.088676 0
3.290000 -0.058586 0
3.295000 -0.038373 0
3.300000 -0.023417 0
3.305000 -0.010346 0
3.310000 0.002792 0
3.315000 0.016943 0
3.320000 0.032505 0
3.325000 0.049622 0
3.330000 0.068317 0
3.335000 0.088549 0
3.340000 0.110224 0
3.345000 0.133197 0
3.350000 0.157272 0
3.355000 0.182200 0
3.360000 0.207685 0
3.365000 0.233381 0
3.370000 0.258906 0
3.375000 0.283844 0
3.380000 0.307760 0
3.385000 0.330207 0
3.390000 0.350746 0
3.395000 0.368952 0
3.400000 0.384436 0
3.405000 0.396854 0
3.410000 0.405918 0
3.415000 0.411412 0
3.420000 0.413197 5
3.425000 0.411214 0
3.430000 0.405491 0
3.435000 0.396142 0
3.440000 0.383358 0
3.445000 0.367407 0
3.450000 0.348618 0
3.455000 0.327374 0
3.460000 0.304097 0
3.465000 0.279235 0
3.470000 0.253245 0
3.475000 0.226581 0
3.480000 0.199683 0
3.485000 0.172961 0
3.490000 0.146789 0
3.495000 0.121494 0
3.500000 0.097356 0
3.505000 0.074599 0
3.510000 0.053397 0
3.515000 0.033867 0
3.520000 0.016080 0
3.525000 0.000060 0
3.530000 -0.014209 0
3.535000 -0.026776 0
3.540000 -0.037718 0
3.545000 -0.047134 0
3.550000 -0.055137 0
3.555000 -0.061851 0
3.560000 -0.067403 0
3.565000 -0.071922 0
3.570000 -0.075533 0
3.575000 -0.078355 0
3.580000 -0.080499 0
3.585000 -0.082067 0
3.590000 -0.083151 0
3.595000 -0.083833 0
3.600000 -0.084183 0
3.605000 -0.084264 0
3.610000 -0.084127 0
3.615000 -0.083816 0
3.620000 -0.083369 0
3.625000 -0.082816 0
3.630000 -0.081970 0
3.635000 -0.081079 0
3.640000 -0.080193 0
3.645000 -0.079311 0
3.650000 -0.078433 0
3.655000 -0.077560 0
3.660000 -0.076691 0
3.665000 -0.075826 0
3.670000 -0.074966 0
3.675000 -0.074110 0
3.680000 -0.073258 0
3.685000 -0.072410 0
3.690000 -0.071567 0
3.695000 -0.070728 0
3.700000 -0.069893 0
3.705000 -0.069062 0
3.710000 -0.068234 0
3.715000 -0.067411 0
3.720000 -0.066590 0
3.725000 -0.065771 0
3.730000 -0.064953 0
3.735000 -0.064132 0
3.740000 -0.063304 0
3.745000 -0.062462 0
3.750000 -0.061593 0
3.755000 -0.060681 0
3.760000 -0.059696 0
3.765000 -0.058601 0
3.770000 -0.057336 0
3.775000 -0.055824 0
3.780000 -0.053957 0
3.785000 -0.051596 0
3.790000 -0.048564 0
3.795000 -0.044644 0
3.800000 -0.039583 0
3.805000 -0.033096 0
3.810000 -0.024881 0
3.815000 -0.014639 0
3.820000 -0.002100 0
3.825000 0.012938 0
3.830000 0.030574 0
3.835000 0.050764 0
3.840000 0.073283 0
3.845000 0.097706 0
3.850000 0.123396 0
3.855000 0.149514 0
3.860000 0.175060 0
3.865000 0.198925 0
3.870000 0.219969 0
3.875000 0.237110 0
3.880000 0.249415 0
3.885000 0.256185 0
3.890000 0.257018 1
3.895000 0.251849 0
3.900000 0.240960 0
3.905000 0.224950 0
3.910000 0.204683 0
3.915000 0.181210 0
3.920000 0.155677 0
3.925000 0.129236 0
3.930000 0.102955 0
3.935000 0.077740 0
3.940000 0.054255 0
3.945000 0.032813 0
3.950000 0.013183 0
3.955000 -0.005687 0
3.960000 -0.025917 0
3.965000 -0.050589 0
3.970000 -0.082748 0
3.975000 -0.123301 0
3.980000 -0.168413 0
3.985000 -0.207896 0
3.990000 -0.225950 2
3.995000 -0.204118 0
4.000000 -0.125018 0
4.005000 0.023806 0
4.010000 0.244368 0
4.015000 0.519975 0
4.020000 0.808328 0
4.025000 1.045286 0
4.030000 1.164967 3
4.035000 1.129760 0
4.040000 0.948851 0
4.045000 0.669764 0
4.050000 0.357910 0
4.055000 0.071509 0
4.060000 -0.152272 0
4.065000 -0.297956 0
4.070000 -0.366309 0
4.075000 -0.369397 4
4.080000 -0.326951 0
4.085000 -0.261841 0
4.090000 -0.194296 0
4.095000 -0.137289 0
4.100000 -0.095375 0
4.105000 -0.066899 0
4.110000 -0.047490 0
4.115000 -0.032798 0
4.120000 -0.019727 0
4.125000 -0.006499 0
4.130000 0.007751 0
4.135000 0.023391 0
4.140000 0.040553 0
4.145000 0.059261 0
4.150000 0.079475 0
4.155000 0.101107 0
4.160000 0.124020 0
4.165000 0.148031 0
4.170000 0.172904 0
4.175000 0.198361 0
4.180000 0.224075 0
4.185000 0.249685 0
4.190000 0.274795 0
4.195000 0.298990 0
4.200000 0.321844 0
4.205000 0.342930 0
4.210000 0.361837 0
4.215000 0.378179 0
4.220000 0.391612 0
4.225000 0.401842 0
4.230000 0.408637 0
4.235000 0.411836 5
4.240000 0.411353 0
4.245000 0.407185 0
4.250000 0.399404 0
4.255000 0.388164 0
4.260000 0.373691 0
4.265000 0.356273 0
4.270000 0.336255 0
4.275000 0.314025 0
4.280000 0.290002 0
4.285000 0.264622 0
4.290000 0.238325 0
4.295000 0.211544 0
4.300000 0.184689 0
4.305000 0.158145 0
4.310000 0.132255 0
4.315000 0.107320 0
4.320000 0.083592 0
4.325000 0.061272 0
4.330000 0.040512 0
4.335000 0.021415 0
4.340000 0.004036 0
4.345000 -0.011610 0
4.350000 -0.025544 0
4.355000 -0.037819 0
4.360000 -0.048513 0
4.365000 -0.057722 0
4.370000 -0.065558 0
4.375000 -0.072139 0
4.380000 -0.077588 0
4.385000 -0.082029 0
4.390000 -0.085583 0
4.395000 -0.088362 0
4.400000 -0.090475 0
4.405000 -0.092020 0
4.410000 -0.093085 0
4.415000 -0.093750 0
4.420000 -0.094084 0
4.425000 -0.094147 0
4.430000 -0.093990 0
4.435000 -0.093657 0
4.440000 -0.093185 0
4.445000 -0.092603 0
4.450000 -0.091712 0
4.455000 -0.090772 0
4.460000 -0.089837 0
4.465000 -0.088907 0
4.470000 -0.087982 0
4.475000 -0.087061 0
4.480000 -0.086144 0
4.485000 -0.085233 0
4.490000 -0.084325 0
4.495000 -0.083423 0
4.500000 -0.082524 0
4.505000 -0.081631 0
4.510000 -0.080741 0
4.515000 -0.079856 0
4.520000 -0.078976 0
4.525000 -0.078100 0
4.530000 -0.077227 0
4.535000 -0.076359 0
4.540000 -0.075495 0
4.545000 -0.074633 0
4.550000 -0.073773 0
4.555000 -0.072913 0
4.560000 -0.072049 0
4.565000 -0.071177 0
4.570000 -0.070288 0
4.575000 -0.069369 0
4.580000 -0.068401 0
4.585000 -0.067356 0
4.590000 -0.066190 0
4.595000 -0.064845 0
4.600000 -0.063241 0
4.605000 -0.061269 0
4.610000 -0.058790 0
4.615000 -0.055629 0
4.620000 -0.051574 0
4.625000 -0.046379 0
4.630000 -0.039767 0
4.635000 -0.031449 0
4.640000 -0.021136 0
4.645000 -0.008572 0
4.650000 0.006439 0
4.655000 0.023994 0
4.660000 0.044057 0
4.665000 0.066423 0
4.670000 0.090701 0
4.675000 0.116298 0
4.680000 0.142432 0
4.685000 0.168160 0
4.690000 0.192428 0
4.695000 0.214140 0
4.700000 0.232239 0
4.705000 0.245789 0
4.710000 0.254058 0
4.715000 0.256581 1
4.720000 0.253204 0
4.725000 0.244099 0
4.730000 0.229749 0
4.735000 0.210906 0
4.740000 0.188525 0
4.745000 0.163684 0
4.750000 0.137500 0
4.755000 0.111041 0
4.760000 0.085255 0
4.765000 0.060900 0
4.770000 0.038453 0
4.775000 0.017982 0
4.780000 -0.001075 0
4.785000 -0.020183 0
4.790000 -0.041843 0
4.795000 -0.069186 0
4.800000 -0.104616 0
4.805000 -0.147554 0
4.810000 -0.192185 0
4.815000 -0.226655 0
4.820000 -0.234566 2
4.825000 -0.198111 0
4.830000 -0.101513 0
4.835000 0.065202 0
4.840000 0.300424 0
4.845000 0.582998 0
4.850000 0.867184 0
4.855000 1.089051 0
4.860000 1.187564 3
4.865000 1.131118 0
4.870000 0.932991 0
4.875000 0.645113 0
4.880000 0.333677 0
4.885000 0.054723 0
4.890000 -0.157786 0
4.895000 -0.291145 0
4.900000 -0.348167 4
4.905000 -0.342470 0
4.910000 -0.294788 0
4.915000 -0.228111 0
4.920000 -0.161817 0
4.925000 -0.107471 0
4.930000 -0.068329 0
4.935000 -0.041975 0
4.940000 -0.023850 0
4.945000 -0.009764 0
4.950000 0.003132 0
4.955000 0.016413 0
4.960000 0.030823 0
4.965000 0.046668 0
4.970000 0.064052 0
4.975000 0.082985 0
4.980000 0.103415 0
4.985000 0.125243 0
4.990000 0.148322 0
4.995000 0.172453 0
5.000000 0.197393 0
5.005000 0.222846 0
5.010000 0.248478 0
5.015000 0.273913 0
5.020000 0.298751 0
5.025000 0.322567 0
5.030000 0.344931 0
5.035000 0.365417 0
5.040000 0.383616 0
5.045000 0.399149 0
5.050000 0.411680 0
5.055000 0.420930 0
5.060000 0.426683 0
5.065000 0.428798 5
5.070000 0.427209 0
5.075000 0.421935 0
5.080000 0.413072 0
5.085000 0.400795 0
5.090000 0.385352 0
5.095000 0.367050 0
5.100000 0.346250 0
5.105000 0.323354 0
5.110000 0.298789 0
5.115000 0.272998 0
5.120000 0.246423 0
5.125000 0.219493 0
5.130000 0.192615 0
5.135000 0.166164 0
5.140000 0.140471 0
5.145000 0.115825 0
5.150000 0.092462 0
5.155000 0.070568 0
5.160000 0.050280 0
5.165000 0.031684 0
5.170000 0.014822 0
5.175000 -0.000304 0
5.180000 -0.013727 0
5.185000 -0.025511 0
5.190000 -0.035741 0
5.195000 -0.044519 0
5.200000 -0.051962 0
5.205000 -0.058191 0
5.210000 -0.063330 0
5.215000 -0.067503 0
5.220000 -0.070829 0
5.225000 -0.073420 0
5.230000 -0.075381 0
5.235000 -0.076807 0
5.240000 -0.077784 0
5.245000 -0.078387 0
5.250000 -0.078683 0
5.255000 -0.078728 0
5.260000 -0.078572 0
5.265000 -0.078254 0
5.270000 -0.077809 0
5.275000 -0.077217 0
5.280000 -0.076350 0
5.285000 -0.075487 0
5.290000 -0.074628 0
5.295000 -0.073774 0
5.300000 -0.072924 0
5.305000 -0.072078 0
5.310000 -0.071236 0
5.315000 -0.070399 0
5.320000 -0.069565 0
5.325000 -0.068736 0
5.330000 -0.067911 0
5.335000 -0.067090 0
5.340000 -0.066274 0
5.345000 -0.065461 0
5.350000 -0.064652 0
5.355000 -0.063847 0
5.360000 -0.063046 0
5.365000 -0.062248 0
5.370000 -0.061453 0
5.375000 -0.060660 0
5.380000 -0.059868 0
5.385000 -0.059074 0
5.390000 -0.058274 0
5.395000 -0.057461 0
5.400000 -0.056625 0
5.405000 -0.055751 0
5.410000 -0.054813 0
5.415000 -0.053776 0
5.420000 -0.052591 0
5.425000 -0.051187 0
5.430000 -0.049469 0
5.435000 -0.047313 0
5.440000 -0.044558 0
5.445000 -0.041011 0
5.450000 -0.036436 0
5.455000 -0.030571 0
5.460000 -0.023125 0
5.465000 -0.013807 0
5.470000 -0.002340 0
5.475000 0.011506 0
5.480000 0.027877 0
5.485000 0.046799 0
5.490000 0.068145 0
5.495000 0.091604 0
5.500000 0.116666 0
5.505000 0.142623 0
5.510000 0.168588 0
5.515000 0.193541 0
5.520000 0.216386 0
5.525000 0.236032 0
5.530000 0.251477 0
5.535000 0.261891 0
5.540000 0.266690 1
5.545000 0.265593 0
5.550000 0.258641 0
5.555000 0.246202 0
5.560000 0.228934 0
5.565000 0.207730 0
5.570000 0.183638 0
5.575000 0.157776 0
5.580000 0.131248 0
5.585000 0.105063 0
5.590000 0.080062 0
5.595000 0.056840 0
5.600000 0.035636 0
5.605000 0.016140 0
5.610000 -0.002771 0
5.615000 -0.023259 0
5.620000 -0.048353 0
5.625000 -0.080947 0
5.630000 -0.121761 0
5.635000 -0.166906 0
5.640000 -0.206423 0
5.645000 -0.225018 2
5.650000 -0.204838 0
5.655000 -0.128965 0
5.660000 0.015007 0
5.665000 0.229946 0
5.670000 0.501549 0
5.675000 0.791422 0
5.680000 1.039183 0
5.685000 1.179629 3
5.690000 1.168606 0
5.695000 1.004429 0
5.700000 0.732518 0
5.705000 0.420843 0
5.710000 0.131832 0
5.715000 -0.094157 0
5.720000 -0.240250 0
5.725000 -0.307188 0
5.730000 -0.307863 4
5.735000 -0.263274 0
5.740000 -0.197431 0
5.745000 -0.130980 0
5.750000 -0.076427 0
5.755000 -0.037385 0
5.760000 -0.011368 0
5.765000 0.006379 0
5.770000 0.020182 0
5.775000 0.032923 0
5.780000 0.046158 0
5.785000 0.060602 0
5.790000 0.076537 0
5.795000 0.094054 0
5.800000 0.113150 0
5.805000 0.133763 0
5.810000 0.155777 0
5.815000 0.179026 0
5.820000 0.203292 0
5.825000 0.228303 0
5.830000 0.253740 0
5.835000 0.279237 0
5.840000 0.304393 0
5.845000 0.328778 0
5.850000 0.351946 0
5.855000 0.373448 0
5.860000 0.392843 0
5.865000 0.409718 0
5.870000 0.423697 0
5.875000 0.434457 0
5.880000 0.441739 0
5.885000 0.445359 5
5.890000 0.445214 0
5.895000 0.441285 0
5.900000 0.433642 0
5.905000 0.422438 0
5.910000 0.407904 0
5.915000 0.390343 0
5.920000 0.370116 0
5.925000 0.347631 0
5.930000 0.323329 0
5.935000 0.297669 0
5.940000 0.271114 0
5.945000 0.244116 0
5.950000 0.217104 0
5.955000 0.190474 0
5.960000 0.164580 0
5.965000 0.139728 0
5.970000 0.116169 0
5.975000 0.094101 0
5.980000 0.073669 0
5.985000 0.054963 0
5.990000 0.038029 0
5.995000 0.022867 0
6.000000 0.009440 0
6.005000 -0.002318 0
6.010000 -0.012499 0
6.015000 -0.021212 0
6.020000 -0.028577 0
6.025000 -0.034724 0
6.030000 -0.039781 0
6.035000 -0.043877 0
6.040000 -0.047135 0
6.045000 -0.049670 0
6.050000 -0.051589 0
6.055000 -0.052987 0
6.060000 -0.053953 0
6.065000 -0.054560 0
6.070000 -0.054875 0
6.075000 -0.054953 0
6.080000 -0.054843 0
6.085000 -0.054583 0
6.090000 -0.054205 0
6.095000 -0.053507 0
6.100000 -0.052758 0
6.105000 -0.052013 0
6.110000 -0.051271 0
6.115000 -0.050533 0
6.120000 -0.049799 0
6.125000 -0.049069 0
6.130000 -0.048342 0
6.135000 -0.047619 0
6.140000 -0.046899 0
6.145000 -0.046183 0
6.150000 -0.045470 0
6.155000 -0.044761 0
6.160000 -0.044056 0
6.165000 -0.043354 0
6.170000 -0.042655 0
6.175000 -0.041960 0
6.180000 -0.041267 0
6.185000 -0.040577 0
6.190000 -0.039889 0
6.195000 -0.039200 0
6.200000 -0.038510 0
6.205000 -0.037813 0
6.210000 -0.037102 0
6.215000 -0.036367 0
6.220000 -0.035592 0
6.225000 -0.034750 0
6.230000 -0.033803 0
6.235000 -0.032699 0
6.240000 -0.031360 0
6.245000 -0.029685 0
6.250000 -0.027538 0
6.255000 -0.024747 0
6.260000 -0.021100 0
6.265000 -0.016345 0
6.270000 -0.010200 0
6.275000 -0.002360 0
6.280000 0.007480 0
6.285000 0.019596 0
6.290000 0.034204 0
6.295000 0.051420 0
6.300000 0.071217 0
6.305000 0.093391 0
6.310000 0.117533 0
6.315000 0.143022 0
6.320000 0.169030 0
6.325000 0.194560 0
6.330000 0.218496 0
6.335000 0.239688 0
6.340000 0.257034 0
6.345000 0.269579 0
6.350000 0.276597 0
6.355000 0.277663 1
6.360000 0.272693 0
6.365000 0.261952 0
6.370000 0.246033 0
6.375000 0.225798 0
6.380000 0.202304 0
6.385000 0.176707 0
6.390000 0.150172 0
6.395000 0.123779 0
6.400000 0.098447 0
6.405000 0.074851 0
6.410000 0.053307 0
6.415000 0.033580 0
6.420000 0.014606 0
6.425000 -0.005772 0
6.430000 -0.030676 0
6.435000 -0.063158 0
6.440000 -0.104041 0
6.445000 -0.149266 0
6.450000 -0.188308 0
6.455000 -0.205027 2
6.460000 -0.180752 0
6.465000 -0.098080 0
6.470000 0.055146 0
6.475000 0.280052 0
6.480000 0.558194 0
6.485000 0.844952 0
6.490000 1.074499 0
6.495000 1.181469 3
6.500000 1.129574 0
6.505000 0.930388 0
6.510000 0.639976 0
6.515000 0.329505 0
6.520000 0.057534 0
6.525000 -0.142408 0
6.530000 -0.259746 0
6.535000 -0.300191 4
6.540000 -0.280645 0
6.545000 -0.224726 0
6.550000 -0.156596 0
6.555000 -0.094433 0
6.560000 -0.046979 0
6.565000 -0.014638 0
6.570000 0.006703 0
6.575000 0.021969 0
6.580000 0.034916 0
6.585000 0.047757 0
6.590000 0.061570 0
6.595000 0.076809 0
6.600000 0.093635 0
6.605000 0.112076 0
6.610000 0.132092 0
6.615000 0.153584 0
6.620000 0.176400 0
6.625000 0.200332 0
6.630000 0.225118 0
6.635000 0.250443 0
6.640000 0.275942 0
6.645000 0.301211 0
6.650000 0.325812 0
6.655000 0.349286 0
6.660000 0.371169 0
6.665000 0.391002 0
6.670000 0.408351 0
6.675000 0.422819 0
6.680000 0.434063 0
6.685000 0.441803 0
6.690000 0.445840 0
6.695000 0.446056 5
6.700000 0.442424 0
6.705000 0.435008 0
6.710000 0.423960 0
6.715000 0.409517 0
6.720000 0.391986 0
6.725000 0.371743 0
6.730000 0.349207 0
6.735000 0.324835 0
6.740000 0.299102 0
6.745000 0.272486 0
6.750000 0.245452 0
6.755000 0.218441 0
6.760000 0.191860 0
6.765000 0.166067 0
6.770000 0.141372 0
6.775000 0.118026 0
6.780000 0.096224 0
6.785000 0.076105 0
6.790000 0.057754 0
6.795000 0.041206 0
6.800000 0.026452 0
6.805000 0.013447 0
6.810000 0.002113 0
6.815000 -0.007649 0
6.820000 -0.015956 0
6.825000 -0.022936 0
6.830000 -0.028723 0
6.835000 -0.033450 0
6.840000 -0.037248 0
6.845000 -0.040241 0
6.850000 -0.042545 0
6.855000 -0.044265 0
6.860000 -0.045498 0
6.865000 -0.046326 0
6.870000 -0.046823 0
6.875000 -0.047052 0
6.880000 -0.047066 0
6.885000 -0.046910 0
6.890000 -0.046621 0
6.895000 -0.046181 0
6.900000 -0.045469 0
6.905000 -0.044760 0
6.910000 -0.044054 0
6.915000 -0.043353 0
6.920000 -0.042654 0
6.925000 -0.041959 0
6.930000 -0.041268 0
6.935000 -0.040580 0
6.940000 -0.039895 0
6.945000 -0.039214 0
6.950000 -0.038537 0
6.955000 -0.037862 0
6.960000 -0.037191 0
6.965000 -0.036523 0
6.970000 -0.035859 0
6.975000 -0.035197 0
6.980000 -0.034539 0
6.985000 -0.033882 0
6.990000 -0.033227 0
6.995000 -0.032573 0
7.000000 -0.031916 0
7.005000 -0.031252 0
7.010000 -0.030575 0
7.015000 -0.029874 0
7.020000 -0.029132 0
7.025000 -0.028322 0
7.030000 -0.027405 0
7.035000 -0.026325 0
7.040000 -0.025003 0
7.045000 -0.023331 0
7.050000 -0.021166 0
7.055000 -0.018328 0
7.060000 -0.014592 0
7.065000 -0.009694 0
7.070000 -0.003339 0
7.075000 0.004791 0
7.080000 0.015007 0
7.085000 0.027588 0
7.090000 0.042738 0
7.095000 0.060548 0
7.100000 0.080950 0
7.105000 0.103682 0
7.110000 0.128264 0
7.115000 0.153989 0
7.120000 0.179945 0
7.125000 0.205054 0
7.130000 0.228143 0
7.135000 0.248029 0
7.140000 0.263618 0
7.145000 0.274004 0
7.150000 0.278556 1
7.155000 0.276977 0
7.160000 0.269339 0
7.165000 0.256073 0
7.170000 0.237931 0
7.175000 0.215911 0
7.180000 0.191170 0
7.185000 0.164919 0
7.190000 0.138324 0
7.195000 0.112421 0
7.200000 0.088026 0
7.205000 0.065638 0
7.210000 0.045270 0
7.215000 0.026185 0
7.220000 0.006581 0
7.225000 -0.016480 0
7.230000 -0.046364 0
7.235000 -0.084931 0
7.240000 -0.129735 0
7.245000 -0.171809 0
7.250000 -0.195779 2
7.255000 -0.182644 0
7.260000 -0.113783 0
7.265000 0.024920 0
7.270000 0.237484 0
7.275000 0.509163 0
7.280000 0.798386 0
7.285000 1.039424 0
7.290000 1.163036 3
7.295000 1.127957 0
7.300000 0.942285 0
7.305000 0.658377 0
7.310000 0.346904 0
7.315000 0.068432 0
7.320000 -0.140775 0
7.325000 -0.267883 0
7.330000 -0.316943 4
7.335000 -0.303623 0
7.340000 -0.250868 0
7.345000 -0.183029 0
7.350000 -0.119254 0
7.355000 -0.069524 0
7.360000 -0.035176 0
7.365000 -0.012497 0
7.370000 0.003464 0
7.375000 0.016663 0
7.380000 0.029510 0
7.385000 0.043214 0
7.390000 0.058294 0
7.395000 0.074941 0
7.400000 0.093200 0
7.405000 0.113039 0
7.410000 0.134369 0
7.415000 0.157048 0
7.420000 0.180880 0
7.425000 0.205612 0
7.430000 0.230940 0
7.435000 0.256511 0
7.440000 0.281929 0
7.445000 0.306762 0
7.450000 0.330560 0
7.455000 0.352859 0
7.460000 0.373202 0
7.465000 0.391151 0
7.470000 0.406302 0
7.475000 0.418302 0
7.480000 0.426861 0
7.485000 0.431761 0
7.490000 0.432868 5
7.495000 0.430136 0
7.500000 0.423609 0
7.505000 0.413419 0
7.510000 0.399783 0
7.515000 0.382994 0
7.520000 0.363408 0
7.525000 0.341435 0
7.530000 0.317523 0
7.535000 0.292139 0
7.540000 0.265759 0
7.545000 0.238852 0
7.550000 0.211863 0
7.555000 0.185204 0
7.560000 0.159246 0
7.565000 0.134309 0
7.570000 0.110658 0
7.575000 0.088501 0
7.580000 0.067992 0
7.585000 0.049227 0
7.590000 0.032255 0
7.595000 0.017079 0
7.600000 0.003662 0
7.605000 -0.008064 0
7.610000 -0.018193 0
7.615000 -0.026837 0
7.620000 -0.034121 0
7.625000 -0.040177 0
7.630000 -0.045137 0
7.635000 -0.049132 0
7.640000 -0.052290 0
7.645000 -0.054726 0
7.650000 -0.056551 0
7.655000 -0.057861 0
7.660000 -0.058743 0
7.665000 -0.059274 0
7.670000 -0.059519 0
7.675000 -0.059535 0
7.680000 -0.059367 0
7.685000 -0.059055 0
7.690000 -0.058632 0
7.695000 -0.057908 0
7.700000 -0.057137 0
7.705000 -0.056370 0
7.710000 -0.055607 0
7.715000 -0.054847 0
7.720000 -0.054091 0
7.725000 -0.053340 0
7.730000 -0.052591 0
7.735000 -0.051847 0
7.740000 -0.051106 0
7.745000 -0.050369 0
7.750000 -0.049636 0
7.755000 -0.048906 0
7.760000 -0.048180 0
7.765000 -0.047457 0
7.770000 -0.046738 0
7.775000 -0.046022 0
7.780000 -0.045309 0
7.785000 -0.044598 0
7.790000 -0.043888 0
7.795000 -0.043177 0
7.800000 -0.042462 0
7.805000 -0.041737 0
7.810000 -0.040992 0
7.815000 -0.040215 0
7.820000 -0.039382 0
7.825000 -0.038461 0
7.830000 -0.037402 0
7.835000 -0.036138 0
7.840000 -0.034574 0
7.845000 -0.032582 0
7.850000 -0.030000 0
7.855000 -0.026621 0
7.860000 -0.022202 0
7.865000 -0.016458 0
7.870000 -0.009082 0
7.875000 0.000241 0
7.880000 0.011808 0
7.885000 0.025858 0
7.890000 0.042537 0
7.895000 0.061852 0
7.900000 0.083633 0
7.905000 0.107502 0
7.910000 0.132856 0
7.915000 0.158878 0
7.920000 0.184565 0
7.925000 0.208783 0
7.930000 0.230349 0
7.935000 0.248122 0
7.940000 0.261102 0
7.945000 0.268524 0
7.950000 0.269927 1
7.955000 0.265208 0
7.960000 0.254627 0
7.965000 0.238784 0
7.970000 0.218565 0
7.975000 0.195053 0
7.980000 0.169440 0
7.985000 0.142920 0
7.990000 0.116596 0
7.995000 0.091401 0
8.000000 0.068004 0
8.005000 0.046690 0
8.010000 0.027144 0
8.015000 0.008151 0
8.020000 -0.012654 0
8.025000 -0.038558 0
8.030000 -0.072504 0
8.035000 -0.114659 0
8.040000 -0.159679 0
8.045000 -0.195454 0
8.050000 -0.204542 2
8.055000 -0.167719 0
8.060000 -0.068001 0
8.065000 0.104904 0
8.070000 0.347681 0
8.075000 0.634177 0
8.080000 0.910854 0
8.085000 1.107227 0
8.090000 1.162961 3
8.095000 1.058063 0
8.100000 0.822795 0
8.105000 0.519198 0
8.110000 0.214623 0
8.115000 -0.040717 0
8.120000 -0.220823 0
8.125000 -0.319891 0
8.130000 -0.346199 4
8.135000 -0.317761 0
8.140000 -0.257958 0
8.145000 -0.189536 0
8.150000 -0.128773 0
8.155000 -0.082900 0
8.160000 -0.051598 0
8.165000 -0.030684 0
8.170000 -0.015446 0
8.175000 -0.002348 0
8.180000 0.010689 0
8.185000 0.024688 0
8.190000 0.040081 0
8.195000 0.057028 0
8.200000 0.075559 0
8.205000 0.095637 0
8.210000 0.117171 0
8.215000 0.140019 0
8.220000 0.163988 0
8.225000 0.188830 0
8.230000 0.214251 0
8.235000 0.239905 0
8.240000 0.265410 0
8.245000 0.290349 0
8.250000 0.314284 0
8.255000 0.336768 0
8.260000 0.357356 0
8.265000 0.375623 0
8.270000 0.391173 0
8.275000 0.403658 0
8.280000 0.412789 0
8.285000 0.418345 0
8.290000 0.420182 5
8.295000 0.418241 0
8.300000 0.412549 0
8.305000 0.403217 0
8.310000 0.390437 0
8.315000 0.374477 0
8.320000 0.355668 0
8.325000 0.334396 0
8.330000 0.311084 0
8.335000 0.286182 0
8.340000 0.260151 0
8.345000 0.233449 0
8.350000 0.206514 0
8.355000 0.179762 0
8.360000 0.153566 0
8.365000 0.128256 0
8.370000 0.104112 0
8.375000 0.081359 0
8.380000 0.060167 0
8.385000 0.040657 0
8.390000 0.022896 0
8.395000 0.006906 0
8.400000 -0.007328 0
8.405000 -0.019858 0
8.410000 -0.030762 0
8.415000 -0.040141 0
8.420000 -0.048109 0
8.425000 -0.054791 0
8.430000 -0.060316 0
8.435000 -0.064811 0
8.440000 -0.068404 0
8.445000 -0.071213 0
8.450000 -0.073349 0
8.455000 -0.074915 0
8.460000 -0.076001 0
8.465000 -0.076690 0
8.470000 -0.077051 0
8.475000 -0.077147 0
8.480000 -0.077028 0
8.485000 -0.076739 0
8.490000 -0.076316 0
8.495000 -0.075740 0
8.500000 -0.074880 0
8.505000 -0.074024 0
8.510000 -0.073173 0
8.515000 -0.072326 0
8.520000 -0.071483 0
8.525000 -0.070644 0
8.530000 -0.069810 0
8.535000 -0.068979 0
8.540000 -0.068153 0
8.545000 -0.067331 0
8.550000 -0.066513 0
8.555000 -0.065699 0
8.560000 -0.064889 0
8.565000 -0.064083 0
8.570000 -0.063281 0
8.575000 -0.062483 0
8.580000 -0.061689 0
8.585000 -0.060898 0
8.590000 -0.060109 0
8.595000 -0.059322 0
8.600000 -0.058535 0
8.605000 -0.057745 0
8.610000 -0.056947 0
8.615000 -0.056132 0
8.620000 -0.055288 0
8.625000 -0.054396 0
8.630000 -0.053426 0
8.635000 -0.052334 0
8.640000 -0.051061 0
8.645000 -0.049522 0
8.650000 -0.047603 0
8.655000 -0.045157 0
8.660000 -0.041999 0
8.665000 -0.037903 0
8.670000 -0.032608 0
8.675000 -0.025821 0
8.680000 -0.017239 0
8.685000 -0.006562 0
8.690000 0.006467 0
8.695000 0.022036 0
8.700000 0.040214 0
8.705000 0.060920 0
8.710000 0.083887 0
8.715000 0.108636 0
8.720000 0.134480 0
8.725000 0.160534 0
8.730000 0.185760 0
8.735000 0.209027 0
8.740000 0.229195 0
8.745000 0.245203 0
8.750000 0.256163 0
8.755000 0.261441 1
8.760000 0.260716 0
8.765000 0.254011 0
8.770000 0.241696 0
8.775000 0.224449 0
8.780000 0.203196 0
8.785000 0.179031 0
8.790000 0.153116 0
8.795000 0.126595 0
8.800000 0.100504 0
8.805000 0.075698 0
8.810000 0.052758 0
8.815000 0.031865 0
8.820000 0.012583 0
8.825000 -0.006440 0
8.830000 -0.027663 0
8.835000 -0.054328 0
8.840000 -0.089120 0
8.845000 -0.131773 0
8.850000 -0.176560 0
8.855000 -0.211293 0
8.860000 -0.218861 2
8.865000 -0.180639 0
8.870000 -0.080260 0
8.875000 0.092186 0
8.880000 0.333642 0
8.885000 0.619371 0
8.890000 0.898408 0
8.895000 1.102684 0
8.900000 1.171927 3
8.905000 1.082558 0
8.910000 0.859322 0
8.915000 0.560405 0
8.920000 0.252379 0
8.925000 -0.012686 0
8.930000 -0.205969 0
8.935000 -0.319040 0
8.940000 -0.357915 4
8.945000 -0.338662 0
8.950000 -0.283468 0
8.955000 -0.215200 0
8.960000 -0.151543 0
8.965000 -0.101658 0
8.970000 -0.066779 0
8.975000 -0.043446 0
8.980000 -0.026960 0
8.985000 -0.013462 0
8.990000 -0.000522 0
8.995000 0.013127 0
9.000000 0.028052 0
9.005000 0.044474 0
9.010000 0.062458 0
9.015000 0.081989 0
9.020000 0.102997 0
9.025000 0.125362 0
9.030000 0.148917 0
9.035000 0.173443 0
9.040000 0.198670 0
9.045000 0.224284 0
9.050000 0.249927 0
9.055000 0.275208 0
9.060000 0.299707 0
9.065000 0.322992 0
9.070000 0.344625 0
9.075000 0.364182 0
9.080000 0.381259 0
9.085000 0.395490 0
9.090000 0.406561 0
9.095000 0.414216 0
9.100000 0.418272 0
9.105000 0.418623 5
9.110000 0.415243 0
9.115000 0.408190 0
9.120000 0.397604 0
9.125000 0.383699 0
9.130000 0.366759 0
9.135000 0.347127 0
9.140000 0.325191 0
9.145000 0.301374 0
9.150000 0.276120 0
9.155000 0.249878 0
9.160000 0.223091 0
9.165000 0.196182 0
9.170000 0.169547 0
9.175000 0.143541 0
9.180000 0.118475 0
9.185000 0.094610 0
9.190000 0.072156 0
9.195000 0.051271 0
9.200000 0.032060 0
9.205000 0.014584 0
9.210000 -0.001142 0
9.215000 -0.015138 0
9.220000 -0.027458 0
9.225000 -0.038182 0
9.230000 -0.047408 0
9.235000 -0.055250 0
9.240000 -0.061830 0
9.245000 -0.067272 0
9.250000 -0.071704 0
9.255000 -0.075247 0
9.260000 -0.078017 0
9.265000 -0.080123 0
9.270000 -0.081664 0
9.275000 -0.082731 0
9.280000 -0.083401 0
9.285000 -0.083746 0
9.290000 -0.083824 0
9.295000 -0.083688 0
9.300000 -0.083381 0
9.305000 -0.082937 0
9.310000 -0.082388 0
9.315000 -0.081545 0
9.320000 -0.080656 0
9.325000 -0.079772 0
9.330000 -0.078892 0
9.335000 -0.078016 0
9.340000 -0.077145 0
9.345000 -0.076278 0
9.350000 -0.075415 0
9.355000 -0.074557 0
9.360000 -0.073703 0
9.365000 -0.072853 0
9.370000 -0.072008 0
9.375000 -0.071166 0
9.380000 -0.070329 0
9.385000 -0.069496 0
9.390000 -0.068667 0
9.395000 -0.067842 0
9.400000 -0.067020 0
9.405000 -0.066202 0
9.410000 -0.065385 0
9.415000 -0.064570 0
9.420000 -0.063753 0
9.425000 -0.062930 0
9.430000 -0.062096 0
9.435000 -0.061238 0
9.440000 -0.060343 0
9.445000 -0.059385 0
9.450000 -0.058330 0
9.455000 -0.057127 0
9.460000 -0.055705 0
9.465000 -0.053969 0
9.470000 -0.051793 0
9.475000 -0.049014 0
9.480000 -0.045436 0
9.485000 -0.040821 0
9.490000 -0.034899 0
9.495000 -0.027380 0
9.500000 -0.017964 0
9.505000 -0.006374 0
9.510000 0.007620 0
9.515000 0.024162 0
9.520000 0.043270 0
9.525000 0.064804 0
9.530000 0.088434 0
9.535000 0.113629 0
9.540000 0.139652 0
9.545000 0.165591 0
9.550000 0.190401 0
9.555000 0.212968 0
9.560000 0.232190 0
9.565000 0.247069 0
9.570000 0.256791 0
9.575000 0.260802 1
9.580000 0.258862 0
9.585000 0.251062 0
9.590000 0.237823 0
9.595000 0.219855 0
9.600000 0.198096 0
9.605000 0.173625 0
9.610000 0.147581 0
9.615000 0.121071 0
9.620000 0.095089 0
9.625000 0.070445 0
9.630000 0.047677 0
9.635000 0.026927 0
9.640000 0.007721 0
9.645000 -0.011311 0
9.650000 -0.032607 0
9.655000 -0.059340 0
9.660000 -0.094113 0
9.665000 -0.136672 0
9.670000 -0.181510 0
9.675000 -0.216884 0
9.680000 -0.226226 2
9.685000 -0.191352 0
9.690000 -0.096053 0
9.695000 0.070002 0
9.700000 0.305288 0
9.705000 0.588154 0
9.710000 0.871630 0
9.715000 1.090289 0
9.720000 1.182465 3
9.725000 1.117930 0
9.730000 0.912865 0
9.735000 0.621469 0
9.740000 0.310772 0
9.745000 0.036153 0
9.750000 -0.169814 0
9.755000 -0.295824 0
9.760000 -0.345901 4
9.765000 -0.334724 0
9.770000 -0.283804 0
9.775000 -0.216311 0
9.780000 -0.151090 0
9.785000 -0.098749 0
9.790000 -0.061629 0
9.795000 -0.036782 0
9.800000 -0.019526 0
9.805000 -0.005791 0
9.810000 0.007080 0
9.815000 0.020511 0
9.820000 0.035156 0
9.825000 0.051277 0
9.830000 0.068956 0
9.835000 0.088187 0
9.840000 0.108910 0
9.845000 0.131014 0
9.850000 0.154339 0
9.855000 0.178674 0
9.860000 0.203759 0
9.865000 0.229286 0
9.870000 0.254904 0
9.875000 0.280227 0
9.880000 0.304841 0
9.885000 0.328313 0
9.890000 0.350207 0
9.895000 0.370095 0
9.900000 0.387569 0
9.905000 0.402256 0
9.910000 0.413832 0
9.915000 0.422032 0
9.920000 0.426659 0
9.925000 0.427594 5
9.930000 0.424798 0
9.935000 0.418315 0
9.940000 0.408270 0
9.945000 0.394865 0
9.950000 0.378374 0
9.955000 0.359130 0
9.960000 0.337513 0
9.965000 0.313943 0
9.970000 0.288860 0
9.975000 0.262713 0
9.980000 0.235947 0
9.985000 0.208990 0
9.990000 0.182240 0
9.995000 0.156063 0
10.000000 0.130775 0
10.005000 0.106647 0
10.010000 0.083898 0
10.015000 0.062694 0
10.020000 0.043149 0
10.025000 0.025332 0
10.030000 0.009266 0
10.035000 -0.005065 0
10.040000 -0.017709 0
10.045000 -0.028741 0
10.050000 -0.038257 0
10.055000 -0.046369 0
10.060000 -0.053197 0
10.065000 -0.058866 0
10.070000 -0.063503 0
10.075000 -0.067229 0
10.080000 -0.070163 0
10.085000 -0.072415 0
10.090000 -0.074085 0
10.095000 -0.075266 0
10.100000 -0.076037 0
10.105000 -0.076470 0
10.110000 -0.076628 0
10.115000 -0.076562 0
10.120000 -0.076317 0
10.125000 -0.075931 0
10.130000 -0.075434 0
10.135000 -0.074628 0
10.140000 -0.073774 0
10.145000 -0.072924 0
10.150000 -0.072078 0
10.155000 -0.071236 0
10.160000 -0.070399 0
10.165000 -0.069565 0
10.170000 -0.068736 0
10.175000 -0.067911 0
10.180000 -0.067090 0
10.185000 -0.066274 0
10.190000 -0.065461 0
10.195000 -0.064652 0
10.200000 -0.063848 0
10.205000 -0.063047 0
10.210000 -0.062250 0
10.215000 -0.061457 0
10.220000 -0.060667 0
10.225000 -0.059881 0
10.230000 -0.059096 0
10.235000 -0.058313 0
10.240000 -0.057528 0
10.245000 -0.056739 0
10.250000 -0.055939 0
10.255000 -0.055118 0
10.260000 -0.054262 0
10.265000 -0.053350 0
10.270000 -0.052346 0
10.275000 -0.051206 0
10.280000 -0.049861 0
10.285000 -0.048221 0
10.290000 -0.046166 0
10.295000 -0.043542 0
10.300000 -0.040157 0
10.305000 -0.035781 0
10.310000 -0.030151 0
10.315000 -0.022977 0
10.320000 -0.013962 0
10.325000 -0.002821 0
10.330000 0.010687 0
10.335000 0.026724 0
10.340000 0.045334 0
10.345000 0.066410 0
10.350000 0.089657 0
10.355000 0.114583 0
10.360000 0.140488 0
10.365000 0.166491 0
10.370000 0.191565 0
10.375000 0.214606 0
10.380000 0.234504 0
10.385000 0.250233 0
10.390000 0.260941 0
10.395000 0.266020 1
10.400000 0.265169 0
10.405000 0.258417 0
10.410000 0.246124 0
10.415000 0.228951 0
10.420000 0.207798 0
10.425000 0.183724 0
10.430000 0.157863 0
10.435000 0.131334 0
10.440000 0.105158 0
10.445000 0.080184 0
10.450000 0.057010 0
10.455000 0.035866 0
10.460000 0.016415 0
10.465000 -0.002520 0
10.470000 -0.023179 0
10.475000 -0.048659 0
10.480000 -0.081823 0
10.485000 -0.123162 0
10.490000 -0.168310 0
10.495000 -0.206683 0
10.500000 -0.222429 2
10.505000 -0.197398 0
10.510000 -0.114735 0
10.515000 0.037383 0
10.520000 0.260307 0
10.525000 0.536875 0
10.530000 0.824946 0
10.535000 1.061361 0
10.540000 1.181535 3
10.545000 1.146441 0
10.550000 0.963227 0
10.555000 0.681712 0
10.560000 0.369855 0
10.565000 0.087072 0
10.570000 -0.129837 0
10.575000 -0.266626 0
10.580000 -0.325620 4
10.585000 -0.320604 0
10.590000 -0.272893 0
10.595000 -0.206174 0
10.600000 -0.140282 0
10.605000 -0.086815 0
10.610000 -0.048750 0
10.615000 -0.023348 0
10.620000 -0.005873 0
10.625000 0.007880 0
10.630000 0.020682 0
10.635000 0.034019 0
10.640000 0.048572 0
10.645000 0.064613 0
10.650000 0.082226 0
10.655000 0.101407 0
10.660000 0.122093 0
10.665000 0.144170 0
10.670000 0.167475 0
10.675000 0.191789 0
10.680000 0.216848 0
10.685000 0.242334 0
10.690000 0.267888 0
10.695000 0.293114 0
10.700000 0.317590 0
10.705000 0.340873 0
10.710000 0.362520 0
10.715000 0.382097 0
10.720000 0.399191 0
10.725000 0.413429 0
10.730000 0.424488 0
10.735000 0.432108 0
10.740000 0.436099 0
10.745000 0.436353 5
10.750000 0.432845 0
10.755000 0.425634 0
10.760000 0.414863 0
10.765000 0.400752 0
10.770000 0.383593 0
10.775000 0.363736 0
10.780000 0.341579 0
10.785000 0.317555 0
10.790000 0.292114 0
10.795000 0.265714 0
10.800000 0.238805 0
10.805000 0.211816 0
10.810000 0.185143 0
10.815000 0.159144 0
10.820000 0.134129 0
10.825000 0.110357 0
10.830000 0.088035 0
10.835000 0.067314 0
10.840000 0.048294 0
10.845000 0.031031 0
10.850000 0.015531 0
10.855000 0.001768 0
10.860000 -0.010319 0
10.865000 -0.020814 0
10.870000 -0.029823 0
10.875000 -0.037462 0
10.880000 -0.043857 0
10.885000 -0.049136 0
10.890000 -0.053425 0
10.895000 -0.056850 0
10.900000 -0.059524 0
10.905000 -0.061557 0
10.910000 -0.063047 0
10.915000 -0.064082 0
10.920000 -0.064740 0
10.925000 -0.065088 0
10.930000 -0.065185 0
10.935000 -0.065080 0
10.940000 -0.064814 0
10.945000 -0.064423 0
10.950000 -0.063888 0
10.955000 -0.063087 0
10.960000 -0.062290 0
10.965000 -0.061497 0
10.970000 -0.060708 0
10.975000 -0.059923 0
10.980000 -0.059142 0
10.985000 -0.058365 0
10.990000 -0.057592 0
10.995000 -0.056823 0
11.000000 -0.056057 0
11.005000 -0.055295 0
11.010000 -0.054537 0
11.015000 -0.053783 0
11.020000 -0.053033 0
11.025000 -0.052286 0
11.030000 -0.051542 0
11.035000 -0.050802 0
11.040000 -0.050065 0
11.045000 -0.049330 0
11.050000 -0.048597 0
11.055000 -0.047862 0
11.060000 -0.047124 0
11.065000 -0.046376 0
11.070000 -0.045610 0
11.075000 -0.044813 0
11.080000 -0.043964 0
11.085000 -0.043033 0
11.090000 -0.041974 0
11.095000 -0.040724 0
11.100000 -0.039197 0
11.105000 -0.037277 0
11.110000 -0.034813 0
11.115000 -0.031617 0
11.120000 -0.027462 0
11.125000 -0.022083 0
11.130000 -0.015191 0
11.135000 -0.006481 0
11.140000 0.004339 0
11.145000 0.017522 0
11.150000 0.033245 0
11.155000 0.051566 0
11.160000 0.072393 0
11.165000 0.095445 0
11.170000 0.120235 0
11.175000 0.146067 0
11.180000 0.172054 0
11.185000 0.197157 0
11.190000 0.220254 0
11.195000 0.240214 0
11.200000 0.255990 0
11.205000 0.266710 0
11.210000 0.271754 1
11.215000 0.270814 0
11.220000 0.263924 0
11.225000 0.251457 0
11.230000 0.234091 0
11.235000 0.212751 0
11.240000 0.188520 0
11.245000 0.162553 0
11.250000 0.135984 0
11.255000 0.109843 0
11.260000 0.084977 0
11.265000 0.061967 0
11.270000 0.040998 0
11.275000 0.021650 0
11.280000 0.002603 0
11.285000 -0.018556 0
11.290000 -0.045036 0
11.295000 -0.079554 0
11.300000 -0.122001 0
11.305000 -0.166948 0
11.310000 -0.202570 0
11.315000 -0.212053 2
11.320000 -0.176900 0
11.325000 -0.080649 0
11.330000 0.087074 0
11.335000 0.324313 0
11.340000 0.608231 0
11.345000 0.890024 0
11.350000 1.102712 0
11.355000 1.184746 3
11.360000 1.107372 0
11.365000 0.890767 0
11.370000 0.593653 0
11.375000 0.285104 0
11.380000 0.019577 0
11.385000 -0.172893 0
11.390000 -0.283756 0
11.395000 -0.319592 4
11.400000 -0.297442 0
11.405000 -0.240514 0
11.410000 -0.172241 0
11.415000 -0.110125 0
11.420000 -0.062566 0
11.425000 -0.029953 0
11.430000 -0.008304 0
11.435000 0.007196 0
11.440000 0.020268 0
11.445000 0.033139 0
11.450000 0.046918 0
11.455000 0.062078 0
11.460000 0.078794 0
11.465000 0.097104 0
11.470000 0.116974 0
11.475000 0.138316 0
11.480000 0.160990 0
11.485000 0.184801 0
11.490000 0.209504 0
11.495000 0.234802 0
11.500000 0.260348 0
11.505000 0.285756 0
11.510000 0.310606 0
11.515000 0.334457 0
11.520000 0.356854 0
11.525000 0.377351 0
11.530000 0.395514 0
11.535000 0.410947 0
11.540000 0.423296 0
11.545000 0.432271 0
11.550000 0.437648 0
11.555000 0.439286 5
11.560000 0.437126 0
11.565000 0.431197 0
11.570000 0.421616 0
11.575000 0.408580 0
11.580000 0.392363 0
11.585000 0.373303 0
11.590000 0.351791 0
11.595000 0.328259 0
11.600000 0.303162 0
11.605000 0.276965 0
11.610000 0.250131 0
11.615000 0.223101 0
11.620000 0.196291 0
11.625000 0.170076 0
11.630000 0.144782 0
11.635000 0.120687 0
11.640000 0.098013 0
11.645000 0.076927 0
11.650000 0.057541 0
11.655000 0.039919 0
11.660000 0.024078 0
11.665000 0.009997 0
11.670000 -0.002382 0
11.675000 -0.013140 0
11.680000 -0.022381 0
11.685000 -0.030224 0
11.690000 -0.036795 0
11.695000 -0.042225 0
11.700000 -0.046643 0
11.705000 -0.050175 0
11.710000 -0.052941 0
11.715000 -0.055051 0
11.720000 -0.056606 0
11.725000 -0.057696 0
11.730000 -0.058401 0
11.735000 -0.058792 0
11.740000 -0.058927 0
11.745000 -0.058856 0
11.750000 -0.058623 0
11.755000 -0.058263 0
11.760000 -0.057758 0
11.765000 -0.056988 0
11.770000 -0.056221 0
11.775000 -0.055459 0
11.780000 -0.054700 0
11.785000 -0.053945 0
11.790000 -0.053194 0
11.795000 -0.052446 0
11.800000 -0.051703 0
11.805000 -0.050963 0
11.810000 -0.050226 0
11.815000 -0.049493 0
11.820000 -0.048764 0
11.825000 -0.048039 0
11.830000 -0.047317 0
11.835000 -0.046599 0
11.840000 -0.045884 0
11.845000 -0.045172 0
11.850000 -0.044463 0
11.855000 -0.043756 0
11.860000 -0.043049 0
11.865000 -0.042341 0
11.870000 -0.041628 0
11.875000 -0.040904 0
11.880000 -0.040158 0
11.885000 -0.039377 0
11.890000 -0.038537 0
11.895000 -0.037603 0
11.900000 -0.036526 0
11.905000 -0.035235 0
11.910000 -0.033634 0
11.915000 -0.031596 0
11.920000 -0.028955 0
11.925000 -0.025509 0
11.930000 -0.021012 0
11.935000 -0.015188 0
11.940000 -0.007732 0
11.945000 0.001664 0
11.950000 0.013288 0
11.955000 0.027372 0
11.960000 0.044059 0
11.965000 0.063354 0
11.970000 0.085090 0
11.975000 0.108901 0
11.980000 0.134204 0
11.985000 0.160204 0
11.990000 0.185927 0
11.995000 0.210267 0
12.000000 0.232068 0
12.005000 0.250204 0
12.010000 0.263680 0
12.015000 0.271721 0
12.020000 0.273841 1
12.025000 0.269895 0
12.030000 0.260093 0
12.035000 0.244978 0
12.040000 0.225380 0
12.045000 0.202337 0
12.050000 0.177003 0
12.055000 0.150554 0
12.060000 0.124096 0
12.065000 0.098582 0
12.070000 0.074732 0
12.075000 0.052922 0
12.080000 0.033009 0
12.085000 0.014049 0
12.090000 -0.005978 0
12.095000 -0.030124 0
12.100000 -0.061564 0
12.105000 -0.101540 0
12.110000 -0.146662 0
12.115000 -0.187092 0
12.120000 -0.207098 2
12.125000 -0.187984 0
12.130000 -0.111929 0
12.135000 0.034053 0
12.140000 0.252535 0
12.145000 0.527220 0
12.150000 0.815687 0
12.155000 1.052962 0
12.160000 1.172073 3
12.165000 1.133480 0
12.170000 0.945825 0
12.175000 0.661328 0
12.180000 0.349816 0
12.185000 0.071058 0
12.190000 -0.139038 0
12.195000 -0.267592 0
12.200000 -0.318373 4
12.205000 -0.306625 0
12.210000 -0.254865 0
12.215000 -0.187210 0
12.220000 -0.122903 0
12.225000 -0.072272 0
12.230000 -0.037034 0
12.235000 -0.013709 0
12.240000 0.002601 0
12.245000 0.015913 0
12.250000 0.028726 0
12.255000 0.042316 0
12.260000 0.057240 0
12.265000 0.073710 0
12.270000 0.091781 0
12.275000 0.111427 0
12.280000 0.132568 0
12.285000 0.155071 0
12.290000 0.178747 0
12.295000 0.203358 0
12.300000 0.228608 0
12.305000 0.254158 0
12.310000 0.279620 0
12.315000 0.304577 0
12.320000 0.328584 0
12.325000 0.351186 0
12.330000 0.371929 0
12.335000 0.390376 0
12.340000 0.406120 0
12.345000 0.418802 0
12.350000 0.428121 0
12.355000 0.433845 0
12.360000 0.435824 5
12.365000 0.433992 0
12.370000 0.428370 0
12.375000 0.419069 0
12.380000 0.406283 0
12.385000 0.390281 0
12.390000 0.371401 0
12.395000 0.350035 0
12.400000 0.326614 0
12.405000 0.301598 0
12.410000 0.275455 0
12.415000 0.248651 0
12.420000 0.221634 0
12.425000 0.194822 0
12.430000 0.168596 0
12.435000 0.143286 0
12.440000 0.119173 0
12.445000 0.096482 0
12.450000 0.075383 0
12.455000 0.055989 0
12.460000 0.038366 0
12.465000 0.022531 0
12.470000 0.008461 0
12.475000 -0.003898 0
12.480000 -0.014633 0
12.485000 -0.023846 0
12.490000 -0.031657 0
12.495000 -0.038195 0
12.500000 -0.043589 0
12.505000 -0.047972 0
12.510000 -0.051470 0
12.515000 -0.054202 0
12.520000 -0.056281 0
12.525000 -0.057806 0
12.530000 -0.058869 0
12.535000 -0.059550 0
12.540000 -0.059918 0
12.545000 -0.060033 0
12.550000 -0.059945 0
12.555000 -0.059697 0
12.560000 -0.059322 0
12.565000 -0.058806 0
12.570000 -0.058031 0
12.575000 -0.057259 0
12.580000 -0.056491 0
12.585000 -0.055728 0
12.590000 -0.054967 0
12.595000 -0.054211 0
12.600000 -0.053459 0
12.605000 -0.052710 0
12.610000 -0.051965 0
12.615000 -0.051223 0
12.620000 -0.050486 0
12.625000 -0.049752 0
12.630000 -0.049021 0
12.635000 -0.048295 0
12.640000 -0.047571 0
12.645000 -0.046852 0
12.650000 -0.046135 0
12.655000 -0.045421 0
12.660000 -0.044708 0
12.665000 -0.043996 0
12.670000 -0.043283 0
12.675000 -0.042563 0
12.680000 -0.041830 0
12.685000 -0.041075 0
12.690000 -0.040280 0
12.695000 -0.039420 0
12.700000 -0.038459 0
12.705000 -0.037341 0
12.710000 -0.035993 0
12.715000 -0.034311 0
12.720000 -0.032159 0
12.725000 -0.029364 0
12.730000 -0.025711 0
12.735000 -0.020947 0
12.740000 -0.014785 0
12.745000 -0.006916 0
12.750000 0.002969 0
12.755000 0.015151 0
12.760000 0.029847 0
12.765000 0.047171 0
12.770000 0.067090 0
12.775000 0.089391 0
12.780000 0.113649 0
12.785000 0.139221 0
12.790000 0.165257 0
12.795000 0.190735 0
12.800000 0.214517 0
12.805000 0.235438 0
12.810000 0.252390 0
12.815000 0.264421 0
12.820000 0.270826 0
12.825000 0.271208 1
12.830000 0.265525 0
12.835000 0.254089 0
12.840000 0.237541 0
12.845000 0.216788 0
12.850000 0.192922 0
12.855000 0.167124 0
12.860000 0.140567 0
12.865000 0.114324 0
12.870000 0.089292 0
12.875000 0.066097 0
12.880000 0.044972 0
12.885000 0.025539 0
12.890000 0.006505 0
12.895000 -0.014556 0
12.900000 -0.040924 0
12.905000 -0.075409 0
12.910000 -0.117918 0
12.915000 -0.162825 0
12.920000 -0.197863 0
12.925000 -0.205660 2
12.930000 -0.167246 0
12.935000 -0.065974 0
12.940000 0.108111 0
12.945000 0.351466 0
12.950000 0.638037 0
12.955000 0.914889 0
12.960000 1.112425 0
12.965000 1.170782 3
12.970000 1.068875 0
12.975000 0.834908 0
12.980000 0.531488 0
12.985000 0.226918 0
12.990000 -0.027924 0
12.995000 -0.206859 0
13.000000 -0.304250 0
13.005000 -0.328746 4
13.010000 -0.298836 0
13.015000 -0.238311 0
13.020000 -0.170048 0
13.025000 -0.110115 0
13.030000 -0.065330 0
13.035000 -0.035004 0
13.040000 -0.014769 0
13.045000 0.000100 0
13.050000 0.013054 0
13.055000 0.026084 0
13.060000 0.040148 0
13.065000 0.055645 0
13.070000 0.072715 0
13.075000 0.091381 0
13.080000 0.111595 0
13.085000 0.133261 0
13.090000 0.156226 0
13.095000 0.180285 0
13.100000 0.205182 0
13.105000 0.230607 0
13.110000 0.256205 0
13.115000 0.281580 0
13.120000 0.306304 0
13.125000 0.329932 0
13.130000 0.352008 0
13.135000 0.372085 0
13.140000 0.389736 0
13.145000 0.404570 0
13.150000 0.416245 0
13.155000 0.424484 0
13.160000 0.429081 0
13.165000 0.429910 5
13.170000 0.426934 0
13.175000 0.420202 0
13.180000 0.409849 0
13.185000 0.396092 0
13.190000 0.379221 0
13.195000 0.359590 0
13.200000 0.337602 0
13.205000 0.313697 0
13.210000 0.288335 0
13.215000 0.261985 0
13.220000 0.235105 0
13.225000 0.208134 0
13.230000 0.181480 0
13.235000 0.155506 0
13.240000 0.130531 0
13.245000 0.106817 0
13.250000 0.084574 0
13.255000 0.063954 0
13.260000 0.045058 0
13.265000 0.027938 0
13.270000 0.012600 0
13.275000 -0.000988 0
13.280000 -0.012890 0
13.285000 -0.023195 0
13.290000 -0.032011 0
13.295000 -0.039460 0
13.300000 -0.045671 0
13.305000 -0.050775 0
13.310000 -0.054900 0
13.315000 -0.058172 0
13.320000 -0.060708 0
13.325000 -0.062617 0
13.330000 -0.063997 0
13.335000 -0.064935 0
13.340000 -0.065509 0
13.345000 -0.065785 0
13.350000 -0.065821 0
13.355000 -0.065665 0
13.360000 -0.065357 0
13.365000 -0.064931 0
13.370000 -0.064180 0
13.375000 -0.063377 0
13.380000 -0.062579 0
13.385000 -0.061785 0
13.390000 -0.060995 0
13.395000 -0.060208 0
13.400000 -0.059426 0
13.405000 -0.058647 0
13.410000 -0.057873 0
13.415000 -0.057102 0
13.420000 -0.056335 0
13.425000 -0.055572 0
13.430000 -0.054812 0
13.435000 -0.054057 0
13.440000 -0.053305 0
13.445000 -0.052557 0
13.450000 -0.051812 0
13.455000 -0.051070 0
13.460000 -0.050331 0
13.465000 -0.049594 0
13.470000 -0.048857 0
13.475000 -0.048117 0
13.480000 -0.047371 0
13.485000 -0.046612 0
13.490000 -0.045827 0
13.495000 -0.044999 0
13.500000 -0.044102 0
13.505000 -0.043096 0
13.510000 -0.041925 0
13.515000 -0.040510 0
13.520000 -0.038744 0
13.525000 -0.036487 0
13.530000 -0.033559 0
13.535000 -0.029743 0
13.540000 -0.024779 0
13.545000 -0.018379 0
13.550000 -0.010234 0
13.555000 -0.000038 0
13.560000 0.012482 0
13.565000 0.027532 0
13.570000 0.045208 0
13.575000 0.065458 0
13.580000 0.088042 0
13.585000 0.112515 0
13.590000 0.138209 0
13.595000 0.164256 0
13.600000 0.189621 0
13.605000 0.213167 0
13.610000 0.233732 0
13.615000 0.250227 0
13.620000 0.261727 0
13.625000 0.267558 1
13.630000 0.267360 0
13.635000 0.261125 0
13.640000 0.249197 0
13.645000 0.232242 0
13.650000 0.211184 0
13.655000 0.187122 0
13.660000 0.161233 0
13.665000 0.134682 0
13.670000 0.108524 0
13.675000 0.083635 0
13.680000 0.060613 0
13.685000 0.039653 0
13.690000 0.020323 0
13.695000 0.001261 0
13.700000 -0.020026 0
13.705000 -0.046824 0
13.710000 -0.081830 0
13.715000 -0.124683 0
13.720000 -0.169399 0
13.725000 -0.203411 0
13.730000 -0.209234 2
13.735000 -0.168010 0
13.740000 -0.063385 0
13.745000 0.114092 0
13.750000 0.360074 0
13.755000 0.647483 0
13.760000 0.922617 0
13.765000 1.115987 0
13.770000 1.168934 3
13.775000 1.062596 0
13.780000 0.826355 0
13.785000 0.522428 0
13.790000 0.218077 0
13.795000 -0.036706 0
13.800000 -0.216134 0
13.805000 -0.314551 0
13.810000 -0.340334 4
13.815000 -0.311559 0
13.820000 -0.251625 0
13.825000 -0.183240 0
13.830000 -0.122610 0
13.835000 -0.076890 0
13.840000 -0.045717 0
13.845000 -0.024893 0
13.850000 -0.009711 0
13.855000 0.003353 0
13.860000 0.016366 0
13.865000 0.030345 0
13.870000 0.045722 0
13.875000 0.062653 0
13.880000 0.081167 0
13.885000 0.101228 0
13.890000 0.122745 0
13.895000 0.145574 0
13.900000 0.169522 0
13.905000 0.194343 0
13.910000 0.219739 0
13.915000 0.245367 0
13.920000 0.270843 0
13.925000 0.295751 0
13.930000 0.319653 0
13.935000 0.342101 0
13.940000 0.362651 0
13.945000 0.380878 0
13.950000 0.396386 0
13.955000 0.408829 0
13.960000 0.417916 0
13.965000 0.423428 0
13.970000 0.425221 5
13.975000 0.423237 0
13.980000 0.417502 0
13.985000 0.408128 0
13.990000 0.395308 0
13.995000 0.379310 0
14.000000 0.360466 0
14.005000 0.339159 0
14.010000 0.315816 0
14.015000 0.290884 0
14.020000 0.264826 0
14.025000 0.238098 0
14.030000 0.211140 0
14.035000 0.184365 0
14.040000 0.158148 0
14.045000 0.132819 0
14.050000 0.108655 0
14.055000 0.085884 0
14.060000 0.064674 0
14.065000 0.045146 0
14.070000 0.027367 0
14.075000 0.011360 0
14.080000 -0.002892 0
14.085000 -0.015440 0
14.090000 -0.026363 0
14.095000 -0.035760 0
14.100000 -0.043748 0
14.105000 -0.050449 0
14.110000 -0.055993 0
14.115000 -0.060509 0
14.120000 -0.064121 0
14.125000 -0.066951 0
14.130000 -0.069107 0
14.135000 -0.070693 0
14.140000 -0.071800 0
14.145000 -0.072509 0
14.150000 -0.072891 0
14.155000 -0.073007 0
14.160000 -0.072909 0
14.165000 -0.072641 0
14.170000 -0.072238 0
14.175000 -0.071682 0
14.180000 -0.070842 0
14.185000 -0.070007 0
14.190000 -0.069176 0
14.195000 -0.068348 0
14.200000 -0.067525 0
14.205000 -0.066706 0
14.210000 -0.065892 0
14.215000 -0.065081 0
14.220000 -0.064274 0
14.225000 -0.063471 0
14.230000 -0.062673 0
14.235000 -0.061878 0
14.240000 -0.061087 0
14.245000 -0.060300 0
14.250000 -0.059517 0
14.255000 -0.058738 0
14.260000 -0.057962 0
14.265000 -0.057189 0
14.270000 -0.056419 0
14.275000 -0.055651 0
14.280000 -0.054882 0
14.285000 -0.054110 0
14.290000 -0.053330 0
14.295000 -0.052533 0
14.300000 -0.051708 0
14.305000 -0.050833 0
14.310000 -0.049881 0
14.315000 -0.048808 0
14.320000 -0.047553 0
14.325000 -0.046032 0
14.330000 -0.044132 0
14.335000 -0.041705 0
14.340000 -0.038567 0
14.345000 -0.034492 0
14.350000 -0.029218 0
14.355000 -0.022454 0
14.360000 -0.013896 0
14.365000 -0.003245 0
14.370000 0.009759 0
14.375000 0.025301 0
14.380000 0.043452 0
14.385000 0.064132 0
14.390000 0.087072 0
14.395000 0.111799 0
14.400000 0.137623 0
14.405000 0.163663 0
14.410000 0.188879 0
14.415000 0.212142 0
14.420000 0.232312 0
14.425000 0.248327 0
14.430000 0.259300 0
14.435000 0.264593 1
14.440000 0.263884 0
14.445000 0.257195 0
14.450000 0.244894 0
14.455000 0.227657 0
14.460000 0.206410 0
14.465000 0.182243 0
14.470000 0.156320 0
14.475000 0.129784 0
14.480000 0.103673 0
14.485000 0.078841 0
14.490000 0.055873 0
14.495000 0.034952 0
14.500000 0.015648 0
14.505000 -0.003384 0
14.510000 -0.024596 0
14.515000 -0.051226 0
14.520000 -0.085970 0
14.525000 -0.128593 0
14.530000 -0.173416 0
14.535000 -0.208297 0
14.540000 -0.216156 2
14.545000 -0.178367 0
14.550000 -0.078537 0
14.555000 0.093315 0
14.560000 0.334268 0
14.565000 0.619795 0
14.570000 0.899141 0
14.575000 1.104310 0
14.580000 1.174848 3
14.585000 1.086959 0
14.590000 0.864262 0
14.595000 0.565354 0
14.600000 0.257413 0
14.605000 -0.007104 0
14.610000 -0.199311 0
14.615000 -0.310936 0
14.620000 -0.348271 4
14.625000 -0.327730 0
14.630000 -0.271806 0
14.635000 -0.203491 0
14.640000 -0.140346 0
14.645000 -0.091241 0
14.650000 -0.057114 0
14.655000 -0.034335 0
14.660000 -0.018168 0
14.665000 -0.004806 0
14.670000 0.008116 0
14.675000 0.021809 0
14.680000 0.036813 0
14.685000 0.053331 0
14.690000 0.071420 0
14.695000 0.091059 0
14.700000 0.112173 0
14.705000 0.134638 0
14.710000 0.158277 0
14.715000 0.182864 0
14.720000 0.208122 0
14.725000 0.233728 0
14.730000 0.259317 0
14.735000 0.284487 0
14.740000 0.308816 0
14.745000 0.331863 0
14.750000 0.353189 0
14.755000 0.372366 0
14.760000 0.388992 0
14.765000 0.402705 0
14.770000 0.413197 0
14.775000 0.420222 0
14.780000 0.423605 5
14.785000 0.423256 0
14.790000 0.419163 0
14.795000 0.411399 0
14.800000 0.400122 0
14.805000 0.385560 0
14.810000 0.368015 0
14.815000 0.347840 0
14.820000 0.325439 0
14.825000 0.301243 0
14.830000 0.275702 0
14.835000 0.249269 0
14.840000 0.222389 0
14.845000 0.195483 0
14.850000 0.168941 0
14.855000 0.143111 0
14.860000 0.118296 0
14.865000 0.094746 0
14.870000 0.072658 0
14.875000 0.052180 0
14.880000 0.033404 0
14.885000 0.016380 0
14.890000 0.001112 0
14.895000 -0.012431 0
14.900000 -0.024311 0
14.905000 -0.034614 0
14.910000 -0.043445 0
14.915000 -0.050921 0
14.920000 -0.057168 0
14.925000 -0.062312 0
14.930000 -0.066479 0
14.935000 -0.069792 0
14.940000 -0.072364 0
14.945000 -0.074304 0
14.950000 -0.075707 0
14.955000 -0.076661 0
14.960000 -0.077243 0
14.965000 -0.077519 0
14.970000 -0.077546 0
14.975000 -0.077375 0
14.980000 -0.077044 0
14.985000 -0.076590 0
14.990000 -0.075992 0
14.995000 -0.075131 0
15.000000 -0.074274 0
15.005000 -0.073422 0
15.010000 -0.072574 0
15.015000 -0.071729 0
15.020000 -0.070889 0
15.025000 -0.070054 0
15.030000 -0.069222 0
15.035000 -0.068395 0
15.040000 -0.067572 0
15.045000 -0.066752 0
15.050000 -0.065937 0
15.055000 -0.065126 0
15.060000 -0.064319 0
15.065000 -0.063516 0
15.070000 -0.062717 0
15.075000 -0.061921 0
15.080000 -0.061128 0
15.085000 -0.060339 0
15.090000 -0.059550 0
15.095000 -0.058762 0
15.100000 -0.057970 0
15.105000 -0.057169 0
15.110000 -0.056351 0
15.115000 -0.055504 0
15.120000 -0.054608 0
15.125000 -0.053632 0
15.130000 -0.052535 0
15.135000 -0.051256 0
15.140000 -0.049711 0
15.145000 -0.047787 0
15.150000 -0.045340 0
15.155000 -0.042188 0
15.160000 -0.038108 0
15.165000 -0.032843 0
15.170000 -0.026108 0
15.175000 -0.017602 0
15.180000 -0.007031 0
15.185000 0.005864 0
15.190000 0.021268 0
15.195000 0.039261 0
15.200000 0.059773 0
15.205000 0.082557 0
15.210000 0.107160 0
15.215000 0.132925 0
15.220000 0.158998 0
15.225000 0.184373 0
15.230000 0.207942 0
15.235000 0.228579 0
15.240000 0.245224 0
15.245000 0.256975 0
15.250000 0.263164 0
15.255000 0.263426 1
15.260000 0.257726 0
15.265000 0.246372 0
15.270000 0.229980 0
15.275000 0.209423 0
15.280000 0.185750 0
15.285000 0.160101 0
15.290000 0.133612 0
15.295000 0.107336 0
15.300000 0.082158 0
15.305000 0.058725 0
15.310000 0.037328 0
15.315000 0.017715 0
15.320000 -0.001181 0
15.325000 -0.021492 0
15.330000 -0.046280 0
15.335000 -0.078550 0
15.340000 -0.119167 0
15.345000 -0.164304 0
15.350000 -0.203870 0
15.355000 -0.222234 2
15.360000 -0.201127 0
15.365000 -0.123293 0
15.370000 0.023743 0
15.375000 0.242322 0
15.380000 0.516584 0
15.385000 0.805530 0
15.390000 1.046196 0
15.395000 1.172793 3
15.400000 1.145363 0
15.405000 0.969173 0
15.410000 0.691701 0
15.415000 0.379831 0
15.420000 0.093428 0
15.425000 -0.129415 0
15.430000 -0.273080 0
15.435000 -0.338701 0
15.440000 -0.339021 4
15.445000 -0.294561 0
15.450000 -0.228764 0
15.455000 -0.161918 0
15.460000 -0.106530 0
15.465000 -0.066473 0
15.470000 -0.039553 0
15.475000 -0.021172 0
15.480000 -0.007014 0
15.485000 0.005875 0
15.490000 0.019127 0
15.495000 0.033513 0
15.500000 0.049347 0
15.505000 0.066737 0
15.510000 0.085689 0
15.515000 0.106151 0
15.520000 0.128022 0
15.525000 0.151147 0
15.530000 0.175325 0
15.535000 0.200302 0
15.540000 0.225776 0
15.545000 0.251402 0
15.550000 0.276796 0
15.555000 0.301546 0
15.560000 0.325218 0
15.565000 0.347376 0
15.570000 0.367584 0
15.575000 0.385431 0
15.580000 0.400535 0
15.585000 0.412563 0
15.590000 0.421239 0
15.595000 0.426356 0
15.600000 0.427782 5
15.605000 0.425468 0
15.610000 0.419448 0
15.615000 0.409836 0
15.620000 0.396827 0
15.625000 0.380687 0
15.630000 0.361744 0
15.635000 0.340377 0
15.640000 0.317002 0
15.645000 0.292060 0
15.650000 0.266003 0
15.655000 0.239278 0
15.660000 0.212318 0
15.665000 0.185529 0
15.670000 0.159278 0
15.675000 0.133890 0
15.680000 0.109643 0
15.685000 0.086760 0
15.690000 0.065412 0
15.695000 0.045721 0
15.700000 0.027758 0
15.705000 0.011549 0
15.710000 -0.002918 0
15.715000 -0.015688 0
15.720000 -0.026837 0
15.725000 -0.036460 0
15.730000 -0.044666 0
15.735000 -0.051577 0
15.740000 -0.057319 0
15.745000 -0.062018 0
15.750000 -0.065797 0
15.755000 -0.068777 0
15.760000 -0.071067 0
15.765000 -0.072769 0
15.770000 -0.073975 0
15.775000 -0.074769 0
15.780000 -0.075220 0
15.785000 -0.075393 0
15.790000 -0.075341 0
15.795000 -0.075107 0
15.800000 -0.074731 0
15.805000 -0.074243 0
15.810000 -0.073443 0
15.815000 -0.072595 0
15.820000 -0.071750 0
15.825000 -0.070910 0
15.830000 -0.070075 0
15.835000 -0.069243 0
15.840000 -0.068415 0
15.845000 -0.067592 0
15.850000 -0.066773 0
15.855000 -0.065958 0
15.860000 -0.065146 0
15.865000 -0.064339 0
15.870000 -0.063536 0
15.875000 -0.062737 0
15.880000 -0.061942 0
15.885000 -0.061151 0
15.890000 -0.060363 0
15.895000 -0.059579 0
15.900000 -0.058798 0
15.905000 -0.058019 0
15.910000 -0.057241 0
15.915000 -0.056461 0
15.920000 -0.055677 0
15.925000 -0.054881 0
15.930000 -0.054065 0
15.935000 -0.053212 0
15.940000 -0.052301 0
15.945000 -0.051298 0
15.950000 -0.050154 0
15.955000 -0.048802 0
15.960000 -0.047149 0
15.965000 -0.045072 0
15.970000 -0.042414 0
15.975000 -0.038981 0
15.980000 -0.034539 0
15.985000 -0.028821 0
15.990000 -0.021536 0
15.995000 -0.012384 0
16.000000 -0.001082 0
16.005000 0.012609 0
16.010000 0.028843 0
16.015000 0.047656 0
16.020000 0.068922 0
16.025000 0.092333 0
16.030000 0.117374 0
16.035000 0.143324 0
16.040000 0.169283 0
16.045000 0.194209 0
16.050000 0.216987 0
16.055000 0.236505 0
16.060000 0.251749 0
16.065000 0.261881 0
16.070000 0.266322 1
16.075000 0.264804 0
16.080000 0.257395 0
16.085000 0.244494 0
16.090000 0.226794 0
16.095000 0.205225 0
16.100000 0.180866 0
16.105000 0.154858 0
16.110000 0.128318 0
16.115000 0.102254 0
16.120000 0.077491 0
16.125000 0.054590 0
16.130000 0.033716 0
16.135000 0.014430 0
16.140000 -0.004595 0
16.145000 -0.025763 0
16.150000 -0.052248 0
16.155000 -0.086726 0
16.160000 -0.129097 0
16.165000 -0.174042 0
16.170000 -0.209960 0
16.175000 -0.220314 2
16.180000 -0.186831 0
16.185000 -0.093129 0
16.190000 0.071364 0
16.195000 0.305446 0
16.200000 0.587812 0
16.205000 0.871675 0
16.210000 1.091450 0
16.215000 1.184984 3
16.220000 1.120868 0
16.225000 0.915118 0
16.230000 0.622976 0
16.235000 0.312566 0
16.240000 0.039737 0
16.245000 -0.163127 0
16.250000 -0.285262 0
16.255000 -0.331378 4
16.260000 -0.316917 0
16.265000 -0.264048 0
16.270000 -0.196203 0
16.275000 -0.131947 0
16.280000 -0.081230 0
16.285000 -0.045729 0
16.290000 -0.022092 0
16.295000 -0.005542 0
16.300000 0.007892 0
16.305000 0.020722 0
16.310000 0.034253 0
16.315000 0.049069 0
16.320000 0.065398 0
16.325000 0.083302 0
16.330000 0.102767 0
16.335000 0.123720 0
16.340000 0.146038 0
16.345000 0.169549 0
16.350000 0.194026 0
16.355000 0.219194 0
16.360000 0.244730 0
16.365000 0.270267 0
16.370000 0.295403 0
16.375000 0.319712 0
16.380000 0.342752 0
16.385000 0.364079 0
16.390000 0.383261 0
16.395000 0.399894 0
16.400000 0.413611 0
16.405000 0.424100 0
16.410000 0.431111 0
16.415000 0.434471 5
16.420000 0.434084 0
16.425000 0.429939 0
16.430000 0.422112 0
16.435000 0.410758 0
16.440000 0.396110 0
16.445000 0.378471 0
16.450000 0.358200 0
16.455000 0.335701 0
16.460000 0.311412 0
16.465000 0.285784 0
16.470000 0.259276 0
16.475000 0.232333 0
16.480000 0.205380 0
16.485000 0.178807 0
16.490000 0.152963 0
16.495000 0.128151 0
16.500000 0.104621 0
16.505000 0.082569 0
16.510000 0.062138 0
16.515000 0.043421 0
16.520000 0.026463 0
16.525000 0.011267 0
16.530000 -0.002201 0
16.535000 -0.014005 0
16.540000 -0.024236 0
16.545000 -0.032998 0
16.550000 -0.040412 0
16.555000 -0.046603 0
16.560000 -0.051700 0
16.565000 -0.055829 0
16.570000 -0.059112 0
16.575000 -0.061665 0
16.580000 -0.063593 0
16.585000 -0.064993 0
16.590000 -0.065952 0
16.595000 -0.066546 0
16.600000 -0.066840 0
16.605000 -0.066892 0
16.610000 -0.066750 0
16.615000 -0.066453 0
16.620000 -0.066035 0
16.625000 -0.065480 0
16.630000 -0.064671 0
16.635000 -0.063866 0
16.640000 -0.063066 0
16.645000 -0.062269 0
16.650000 -0.061476 0
16.655000 -0.060688 0
16.660000 -0.059903 0
16.665000 -0.059122 0
16.670000 -0.058345 0
16.675000 -0.057572 0
16.680000 -0.056802 0
16.685000 -0.056037 0
16.690000 -0.055275 0
16.695000 -0.054517 0
16.700000 -0.053763 0
16.705000 -0.053012 0
16.710000 -0.052265 0
16.715000 -0.051520 0
16.720000 -0.050778 0
16.725000 -0.050036 0
16.730000 -0.049294 0
16.735000 -0.048547 0
16.740000 -0.047789 0
16.745000 -0.047012 0
16.750000 -0.046201 0
16.755000 -0.045333 0
16.760000 -0.044377 0
16.765000 -0.043286 0
16.770000 -0.041992 0
16.775000 -0.040405 0
16.780000 -0.038404 0
16.785000 -0.035832 0
16.790000 -0.032496 0
16.795000 -0.028162 0
16.800000 -0.022561 0
16.805000 -0.015401 0
16.810000 -0.006377 0
16.815000 0.004799 0
16.820000 0.018370 0
16.825000 0.034498 0
16.830000 0.053221 0
16.835000 0.074418 0
16.840000 0.097779 0
16.845000 0.122785 0
16.850000 0.148709 0
16.855000 0.174638 0
16.860000 0.199517 0
16.865000 0.222216 0
16.870000 0.241613 0
16.875000 0.256683 0
16.880000 0.266585 0
16.885000 0.270746 1
16.890000 0.268907 0
16.895000 0.261154 0
16.900000 0.247908 0
16.905000 0.229891 0
16.910000 0.208053 0
16.915000 0.183495 0
16.920000 0.157374 0
16.925000 0.130814 0
16.930000 0.104820 0
16.935000 0.080207 0
16.940000 0.057505 0
16.945000 0.036826 0
16.950000 0.017637 0
16.955000 -0.001537 0
16.960000 -0.023263 0
16.965000 -0.050785 0
16.970000 -0.086567 0
16.975000 -0.129865 0
16.980000 -0.174328 0
16.985000 -0.207260 0
16.990000 -0.211382 2
16.995000 -0.168271 0
17.000000 -0.062078 0
17.005000 0.116238 0
17.010000 0.362244 0
17.015000 0.649470 0
17.020000 0.925630 0
17.025000 1.122805 0
17.030000 1.182712 3
17.035000 1.083122 0
17.040000 0.850854 0
17.045000 0.548000 0
17.050000 0.242827 0
17.055000 -0.013463 0
17.060000 -0.194269 0
17.065000 -0.293588 0
17.070000 -0.319766 4
17.075000 -0.291045 0
17.080000 -0.231087 0
17.085000 -0.162823 0
17.090000 -0.102532 0
17.095000 -0.057288 0
17.100000 -0.026586 0
17.105000 -0.006130 0
17.110000 0.008816 0
17.115000 0.021752 0
17.120000 0.034711 0
17.125000 0.048677 0
17.130000 0.064064 0
17.135000 0.081020 0
17.140000 0.099570 0
17.145000 0.119670 0
17.150000 0.141224 0
17.155000 0.164085 0
17.160000 0.188051 0
17.165000 0.212866 0
17.170000 0.238227 0
17.175000 0.263780 0
17.180000 0.289134 0
17.185000 0.313863 0
17.190000 0.337522 0
17.195000 0.359659 0
17.200000 0.379826 0
17.205000 0.397596 0
17.210000 0.412576 0
17.215000 0.424423 0
17.220000 0.432854 0
17.225000 0.437660 0
17.230000 0.438709 5
17.235000 0.435959 0
17.240000 0.429451 0
17.245000 0.419315 0
17.250000 0.405761 0
17.255000 0.389074 0
17.260000 0.369602 0
17.265000 0.347743 0
17.270000 0.323934 0
17.275000 0.298633 0
17.280000 0.272306 0
17.285000 0.245413 0
17.290000 0.218394 0
17.295000 0.191657 0
17.300000 0.165570 0
17.305000 0.140455 0
17.310000 0.116577 0
17.315000 0.094152 0
17.320000 0.073336 0
17.325000 0.054235 0
17.330000 0.036905 0
17.335000 0.021355 0
17.340000 0.007558 0
17.345000 -0.004547 0
17.350000 -0.015047 0
17.355000 -0.024048 0
17.360000 -0.031671 0
17.365000 -0.038043 0
17.370000 -0.043295 0
17.375000 -0.047556 0
17.380000 -0.050952 0
17.385000 -0.053600 0
17.390000 -0.055609 0
17.395000 -0.057079 0
17.400000 -0.058098 0
17.405000 -0.058745 0
17.410000 -0.059087 0
17.415000 -0.059182 0
17.420000 -0.059081 0
17.425000 -0.058823 0
17.430000 -0.058442 0
17.435000 -0.057923 0
17.440000 -0.057152 0
17.445000 -0.056385 0
17.450000 -0.055622 0
17.455000 -0.054862 0
17.460000 -0.054107 0
17.465000 -0.053355 0
17.470000 -0.052606 0
17.475000 -0.051862 0
17.480000 -0.051121 0
17.485000 -0.050384 0
17.490000 -0.049650 0
17.495000 -0.048921 0
17.500000 -0.048194 0
17.505000 -0.047472 0
17.510000 -0.046752 0
17.515000 -0.046037 0
17.520000 -0.045324 0
17.525000 -0.044614 0
17.530000 -0.043905 0
17.535000 -0.043197 0
17.540000 -0.042488 0
17.545000 -0.041772 0
17.550000 -0.041043 0
17.555000 -0.040291 0
17.560000 -0.039500 0
17.565000 -0.038645 0
17.570000 -0.037688 0
17.575000 -0.036577 0
17.580000 -0.035237 0
17.585000 -0.033566 0
17.590000 -0.031431 0
17.595000 -0.028660 0
17.600000 -0.025041 0
17.605000 -0.020323 0
17.610000 -0.014223 0
17.615000 -0.006435 0
17.620000 0.003349 0
17.625000 0.015409 0
17.630000 0.029965 0
17.635000 0.047137 0
17.640000 0.066901 0
17.645000 0.089055 0
17.650000 0.113194 0
17.655000 0.138693 0
17.660000 0.164721 0
17.665000 0.190275 0
17.670000 0.214232 0
17.675000 0.235433 0
17.680000 0.252771 0
17.685000 0.265282 0
17.690000 0.272241 0
17.695000 0.273224 1
17.700000 0.268151 0
17.705000 0.257297 0
17.710000 0.241266 0
17.715000 0.220933 0
17.720000 0.197366 0
17.725000 0.171732 0
17.730000 0.145202 0
17.735000 0.118857 0
17.740000 0.093616 0
17.745000 0.070141 0
17.750000 0.048727 0
17.755000 0.029102 0
17.760000 0.010131 0
17.765000 -0.010429 0
17.770000 -0.035759 0
17.775000 -0.068858 0
17.780000 -0.110281 0
17.785000 -0.155468 0
17.790000 -0.193303 0
17.795000 -0.207181 2
17.800000 -0.178262 0
17.805000 -0.089330 0
17.810000 0.071105 0
17.815000 0.302652 0
17.820000 0.584257 0
17.825000 0.868241 0
17.830000 1.087063 0
17.835000 1.176851 3
17.840000 1.106541 0
17.845000 0.894574 0
17.850000 0.599141 0
17.855000 0.290065 0
17.860000 0.022979 0
17.865000 -0.171163 0
17.870000 -0.283334 0
17.875000 -0.319963 4
17.880000 -0.298146 0
17.885000 -0.241275 0
17.890000 -0.173001 0
17.895000 -0.110967 0
17.900000 -0.063588 0
17.905000 -0.031184 0
17.910000 -0.009703 0
17.915000 0.005704 0
17.920000 0.018754 0
17.925000 0.031654 0
17.930000 0.045491 0
17.935000 0.060729 0
17.940000 0.077534 0
17.945000 0.095941 0
17.950000 0.115912 0
17.955000 0.137355 0
17.960000 0.160124 0
17.965000 0.184022 0
17.970000 0.208796 0
17.975000 0.234141 0
17.980000 0.259705 0
17.985000 0.285095 0
17.990000 0.309884 0
17.995000 0.333624 0
18.000000 0.355858 0
18.005000 0.376135 0
18.010000 0.394021 0
18.015000 0.409120 0
18.020000 0.421082 0
18.025000 0.429621 0
18.030000 0.434523 0
18.035000 0.435655 5
18.040000 0.432970 0
18.045000 0.426510 0
18.050000 0.416405 0
18.055000 0.402867 0
18.060000 0.386182 0
18.065000 0.366702 0
18.070000 0.344829 0
18.075000 0.321003 0
18.080000 0.295687 0
18.085000 0.269351 0
18.090000 0.242459 0
18.095000 0.215454 0
18.100000 0.188745 0
18.105000 0.162703 0
18.110000 0.137649 0
18.115000 0.113850 0
18.120000 0.091518 0
18.125000 0.070810 0
18.130000 0.051829 0
18.135000 0.034628 0
18.140000 0.019214 0
18.145000 0.005556 0
18.150000 -0.006409 0
18.155000 -0.016770 0
18.160000 -0.025637 0
18.165000 -0.033132 0
18.170000 -0.039383 0
18.175000 -0.044522 0
18.180000 -0.048680 0
18.185000 -0.051982 0
18.190000 -0.054546 0
18.195000 -0.056482 0
18.200000 -0.057887 0
18.205000 -0.058850 0
18.210000 -0.059449 0
18.215000 -0.059751 0
18.220000 -0.059812 0
18.225000 -0.059682 0
18.230000 -0.059400 0
18.235000 -0.059000 0
18.240000 -0.058278 0
18.245000 -0.057505 0
18.250000 -0.056736 0
18.255000 -0.055971 0
18.260000 -0.055210 0
18.265000 -0.054452 0
18.270000 -0.053699 0
18.275000 -0.052949 0
18.280000 -0.052202 0
18.285000 -0.051460 0
18.290000 -0.050721 0
18.295000 -0.049986 0
18.300000 -0.049254 0
18.305000 -0.048527 0
18.310000 -0.047802 0
18.315000 -0.047081 0
18.320000 -0.046364 0
18.325000 -0.045649 0
18.330000 -0.044937 0
18.335000 -0.044227 0
18.340000 -0.043516 0
18.345000 -0.042802 0
18.350000 -0.042082 0
18.355000 -0.041346 0
18.360000 -0.040583 0
18.365000 -0.039775 0
18.370000 -0.038894 0
18.375000 -0.037898 0
18.380000 -0.036728 0
18.385000 -0.035303 0
18.390000 -0.033510 0
18.395000 -0.031204 0
18.400000 -0.028200 0
18.405000 -0.024273 0
18.410000 -0.019159 0
18.415000 -0.012562 0
18.420000 -0.004172 0
18.425000 0.006317 0
18.430000 0.019172 0
18.435000 0.034587 0
18.440000 0.052639 0
18.445000 0.073248 0
18.450000 0.096143 0
18.455000 0.120841 0
18.460000 0.146636 0
18.465000 0.172624 0
18.470000 0.197743 0
18.475000 0.220837 0
18.480000 0.240745 0
18.485000 0.256392 0
18.490000 0.266888 0
18.495000 0.271607 1
18.500000 0.270251 0
18.505000 0.262878 0
18.510000 0.249902 0
18.515000 0.232045 0
18.520000 0.210279 0
18.525000 0.185734 0
18.530000 0.159599 0
18.535000 0.133028 0
18.540000 0.107054 0
18.545000 0.082504 0
18.550000 0.059910 0
18.555000 0.039352 0
18.560000 0.020217 0
18.565000 0.000889 0
18.570000 -0.021378 0
18.575000 -0.049923 0
18.580000 -0.086993 0
18.585000 -0.131098 0
18.590000 -0.174642 0
18.595000 -0.203545 2
18.600000 -0.199526 0
18.605000 -0.143879 0
18.610000 -0.021410 0
18.615000 0.174674 0
18.620000 0.434992 0
18.625000 0.725329 0
18.630000 0.985737 0
18.635000 1.146183 0
18.640000 1.155822 3
18.645000 1.008900 0
18.650000 0.746638 0
18.655000 0.436198 0
18.660000 0.142162 0
18.665000 -0.092035 0
18.670000 -0.247024 0
18.675000 -0.321909 0
18.680000 -0.328538 4
18.685000 -0.287374 0
18.690000 -0.222526 0
18.695000 -0.155350 0
18.700000 -0.099311 0
18.705000 -0.058799 0
18.710000 -0.031718 0
18.715000 -0.013354 0
18.720000 0.000739 0
18.725000 0.013586 0
18.730000 0.026840 0
18.735000 0.041270 0
18.740000 0.057183 0
18.745000 0.074680 0
18.750000 0.093761 0
18.755000 0.114368 0
18.760000 0.136389 0
18.765000 0.159661 0
18.770000 0.183965 0
18.775000 0.209033 0
18.780000 0.234546 0
18.785000 0.260138 0
18.790000 0.285409 0
18.795000 0.309926 0
18.800000 0.333243 0
18.805000 0.354905 0
18.810000 0.374473 0
18.815000 0.391526 0
18.820000 0.405688 0
18.825000 0.416629 0
18.830000 0.424090 0
18.835000 0.427882 0
18.840000 0.427899 5
18.845000 0.424123 0
18.850000 0.416620 0
18.855000 0.405543 0
18.860000 0.391125 0
18.865000 0.373668 0
18.870000 0.353535 0
18.875000 0.331137 0
18.880000 0.306916 0
18.885000 0.281333 0
18.890000 0.254855 0
18.895000 0.227934 0
18.900000 0.201004 0
18.905000 0.174460 0
18.910000 0.148659 0
18.915000 0.123907 0
18.920000 0.100455 0
18.925000 0.078502 0
18.930000 0.058191 0
18.935000 0.039613 0
18.940000 0.022810 0
18.945000 0.007782 0
18.950000 -0.005507 0
18.955000 -0.017127 0
18.960000 -0.027171 0
18.965000 -0.035748 0
18.970000 -0.042981 0
18.975000 -0.048999 0
18.980000 -0.053932 0
18.985000 -0.057908 0
18.990000 -0.061051 0
18.995000 -0.063477 0
19.000000 -0.065291 0
19.005000 -0.066591 0
19.010000 -0.067461 0
19.015000 -0.067978 0
19.020000 -0.068207 0
19.025000 -0.068203 0
19.030000 -0.068013 0
19.035000 -0.067676 0
19.040000 -0.067225 0
19.045000 -0.066460 0
19.050000 -0.065647 0
19.055000 -0.064837 0
19.060000 -0.064031 0
19.065000 -0.063230 0
19.070000 -0.062432 0
19.075000 -0.061639 0
19.080000 -0.060849 0
19.085000 -0.060064 0
19.090000 -0.059282 0
19.095000 -0.058504 0
19.100000 -0.057730 0
19.105000 -0.056960 0
19.110000 -0.056194 0
19.115000 -0.055431 0
19.120000 -0.054672 0
19.125000 -0.053917 0
19.130000 -0.053165 0
19.135000 -0.052415 0
19.140000 -0.051667 0
19.145000 -0.050919 0
19.150000 -0.050169 0
19.155000 -0.049412 0
19.160000 -0.048640 0
19.165000 -0.047843 0
19.170000 -0.047001 0
19.175000 -0.046088 0
19.180000 -0.045063 0
19.185000 -0.043869 0
19.190000 -0.042427 0
19.195000 -0.040627 0
19.200000 -0.038327 0
19.205000 -0.035349 0
19.210000 -0.031471 0
19.215000 -0.026436 0
19.220000 -0.019952 0
19.225000 -0.011714 0
19.230000 -0.001417 0
19.235000 0.011209 0
19.240000 0.026364 0
19.245000 0.044141 0
19.250000 0.064481 0
19.255000 0.087139 0
19.260000 0.111664 0
19.265000 0.137387 0
19.270000 0.163437 0
19.275000 0.188783 0
19.280000 0.212288 0
19.285000 0.232799 0
19.290000 0.249232 0
19.295000 0.260670 0
19.300000 0.266445 1
19.305000 0.266202 0
19.310000 0.259937 0
19.315000 0.247995 0
19.320000 0.231038 0
19.325000 0.209988 0
19.330000 0.185939 0
19.335000 0.160064 0
19.340000 0.133519 0
19.345000 0.107361 0
19.350000 0.082459 0
19.355000 0.059416 0
19.360000 0.038431 0
19.365000 0.019088 0
19.370000 0.000051 0
19.375000 -0.021140 0
19.380000 -0.047750 0
19.385000 -0.082506 0
19.390000 -0.125172 0
19.395000 -0.169982 0
19.400000 -0.204622 0
19.405000 -0.211798 2
19.410000 -0.172714 0
19.415000 -0.070922 0
19.420000 0.103385 0
19.425000 0.346658 0
19.430000 0.633128 0
19.435000 0.910485 0
19.440000 1.109788 0
19.445000 1.171294 3
19.450000 1.073845 0
19.455000 0.844101 0
19.460000 0.542492 0
19.465000 0.236226 0
19.470000 -0.023500 0
19.475000 -0.209375 0
19.480000 -0.314443 0
19.485000 -0.346028 4
19.490000 -0.321355 0
19.495000 -0.263365 0
19.500000 -0.194925 0
19.505000 -0.132946 0
19.510000 -0.085466 0
19.515000 -0.052776 0
19.520000 -0.030959 0
19.525000 -0.015282 0
19.530000 -0.002073 0
19.535000 0.010889 0
19.540000 0.024720 0
19.545000 0.039904 0
19.550000 0.056622 0
19.555000 0.074917 0
19.560000 0.094760 0
19.565000 0.116070 0
19.570000 0.138712 0
19.575000 0.162504 0
19.580000 0.187209 0
19.585000 0.212541 0
19.590000 0.238167 0
19.595000 0.263714 0
19.600000 0.288775 0
19.605000 0.312918 0
19.610000 0.335700 0
19.615000 0.356679 0
19.620000 0.375429 0
19.625000 0.391551 0
19.630000 0.404689 0
19.635000 0.414544 0
19.640000 0.420880 0
19.645000 0.423539 5
19.650000 0.422443 0
19.655000 0.417598 0
19.660000 0.409097 0
19.665000 0.397111 0
19.670000 0.381888 0
19.675000 0.363742 0
19.680000 0.343043 0
19.685000 0.320203 0
19.690000 0.295662 0
19.695000 0.269875 0
19.700000 0.243298 0
19.705000 0.216373 0
19.710000 0.189518 0
19.715000 0.163116 0
19.720000 0.137508 0
19.725000 0.112984 0
19.730000 0.089785 0
19.735000 0.068096 0
19.740000 0.048049 0
19.745000 0.029729 0
19.750000 0.013170 0
19.755000 -0.001631 0
19.760000 -0.014716 0
19.765000 -0.026154 0
19.770000 -0.036037 0
19.775000 -0.044477 0
19.780000 -0.051592 0
19.785000 -0.057510 0
19.790000 -0.062360 0
19.795000 -0.066266 0
19.800000 -0.069350 0
19.805000 -0.071725 0
19.810000 -0.073496 0
19.815000 -0.074756 0
19.820000 -0.075592 0
19.825000 -0.076075 0
19.830000 -0.076272 0
19.835000 -0.076236 0
19.840000 -0.076014 0
19.845000 -0.075646 0
19.850000 -0.075162 0
19.855000 -0.074359 0
19.860000 -0.073506 0
19.865000 -0.072657 0
19.870000 -0.071812 0
19.875000 -0.070972 0
19.880000 -0.070136 0
19.885000 -0.069304 0
19.890000 -0.068476 0
19.895000 -0.067653 0
19.900000 -0.066833 0
19.905000 -0.066017 0
19.910000 -0.065206 0
19.915000 -0.064399 0
19.920000 -0.063595 0
19.925000 -0.062796 0
19.930000 -0.062000 0
19.935000 -0.061208 0
19.940000 -0.060420 0
19.945000 -0.059634 0
19.950000 -0.058851 0
19.955000 -0.058069 0
19.960000 -0.057285 0
19.965000 -0.056496 0
19.970000 -0.055695 0
19.975000 -0.054873 0
19.980000 -0.054013 0
19.985000 -0.053093 0
19.990000 -0.052076 0
19.995000 -0.050914 0
20.000000 -0.049535 0
20.005000 -0.047844 0
20.010000 -0.045713 0
20.015000 -0.042979 0
20.020000 -0.039442 0
20.025000 -0.034861 0
20.030000 -0.028963 0
20.035000 -0.021451 0
20.040000 -0.012022 0
20.045000 -0.000394 0
20.050000 0.013665 0
20.055000 0.030297 0
20.060000 0.049513 0
20.065000 0.071163 0
20.070000 0.094898 0
20.075000 0.120162 0
20.080000 0.146195 0
20.085000 0.172053 0
20.090000 0.196664 0
20.095000 0.218895 0
20.100000 0.237632 0
20.105000 0.251879 0
20.110000 0.260838 0
20.115000 0.263987 1
20.120000 0.261128 0
20.125000 0.252406 0
20.130000 0.238300 0
20.135000 0.219575 0
20.140000 0.197214 0
20.145000 0.172334 0
20.150000 0.146092 0
20.155000 0.119596 0
20.160000 0.093823 0
20.165000 0.069545 0
20.170000 0.047231 0
20.175000 0.026903 0
20.180000 0.007884 0
20.185000 -0.011484 0
20.190000 -0.033938 0
20.195000 -0.062721 0
20.200000 -0.099938 0
20.205000 -0.144031 0
20.210000 -0.187558 0
20.215000 -0.216858 2
20.220000 -0.214204 0
20.225000 -0.161362 0
20.230000 -0.043305 0
20.235000 0.147281 0
20.240000 0.402835 0
20.245000 0.692537 0
20.250000 0.960318 0
20.255000 1.137858 0
20.260000 1.171441 3
20.265000 1.048147 0
20.270000 0.801574 0
20.275000 0.494793 0
20.280000 0.193075 0
20.285000 -0.056441 0
20.290000 -0.230192 0
20.295000 -0.323776 0
20.300000 -0.346128 4
20.305000 -0.315424 0
20.310000 -0.254782 0
20.315000 -0.186396 0
20.320000 -0.125975 0
20.325000 -0.080390 0
20.330000 -0.049217 0
20.335000 -0.028322 0
20.340000 -0.013067 0
20.345000 0.000031 0
20.350000 0.013039 0
20.355000 0.026981 0
20.360000 0.042295 0
20.365000 0.059145 0
20.370000 0.077565 0
20.375000 0.097522 0
20.380000 0.118930 0
20.385000 0.141653 0
20.390000 0.165506 0
20.395000 0.190251 0
20.400000 0.215601 0
20.405000 0.241225 0
20.410000 0.266749 0
20.415000 0.291769 0
20.420000 0.315855 0
20.425000 0.338569 0
20.430000 0.359472 0
20.435000 0.378143 0
20.440000 0.394186 0
20.445000 0.407252 0
20.450000 0.417042 0
20.455000 0.423326 0
20.460000 0.425947 5
20.465000 0.424829 0
20.470000 0.419979 0
20.475000 0.411486 0
20.480000 0.399522 0
20.485000 0.384332 0
20.490000 0.366226 0
20.495000 0.345571 0
20.500000 0.322772 0
20.505000 0.298268 0
20.510000 0.272508 0
20.515000 0.245946 0
20.520000 0.219020 0
20.525000 0.192146 0
20.530000 0.165705 0
20.535000 0.140038 0
20.540000 0.115436 0
20.545000 0.092140 0
20.550000 0.070338 0
20.555000 0.050164 0
20.560000 0.031705 0
20.565000 0.014999 0
20.570000 0.000045 0
20.575000 -0.013194 0
20.580000 -0.024785 0
20.585000 -0.034819 0
20.590000 -0.043403 0
20.595000 -0.050656 0
20.600000 -0.056702 0
20.605000 -0.061669 0
20.610000 -0.065683 0
20.615000 -0.068863 0
20.620000 -0.071323 0
20.625000 -0.073169 0
20.630000 -0.074495 0
20.635000 -0.075386 0
20.640000 -0.075917 0
20.645000 -0.076153 0
20.650000 -0.076150 0
20.655000 -0.075956 0
20.660000 -0.075609 0
20.665000 -0.075143 0
20.670000 -0.074540 0
20.675000 -0.073686 0
20.680000 -0.072837 0
20.685000 -0.071991 0
20.690000 -0.071150 0
20.695000 -0.070313 0
20.700000 -0.069480 0
20.705000 -0.068652 0
20.710000 -0.067827 0
20.715000 -0.067007 0
20.720000 -0.066190 0
20.725000 -0.065378 0
20.730000 -0.064570 0
20.735000 -0.063765 0
20.740000 -0.062965 0
20.745000 -0.062169 0
20.750000 -0.061376 0
20.755000 -0.060587 0
20.760000 -0.059801 0
20.765000 -0.059017 0
20.770000 -0.058235 0
20.775000 -0.057452 0
20.780000 -0.056665 0
20.785000 -0.055869 0
20.790000 -0.055054 0
20.795000 -0.054206 0
20.800000 -0.053306 0
20.805000 -0.052322 0
20.810000 -0.051208 0
20.815000 -0.049902 0
20.820000 -0.048316 0
20.825000 -0.046333 0
20.830000 -0.043803 0
20.835000 -0.040539 0
20.840000 -0.036315 0
20.845000 -0.030869 0
20.850000 -0.023911 0
20.855000 -0.015142 0
20.860000 -0.004272 0
20.865000 0.008950 0
20.870000 0.024698 0
20.875000 0.043033 0
20.880000 0.063863 0
20.885000 0.086914 0
20.890000 0.111707 0
20.895000 0.137559 0
20.900000 0.163595 0
20.905000 0.188793 0
20.910000 0.212040 0
20.915000 0.232215 0
20.920000 0.248276 0
20.925000 0.259347 0
20.930000 0.264798 1
20.935000 0.264302 0
20.940000 0.257871 0
20.945000 0.245849 0
20.950000 0.228889 0
20.955000 0.207887 0
20.960000 0.183908 0
20.965000 0.158093 0
20.970000 0.131572 0
20.975000 0.105377 0
20.980000 0.080372 0
20.985000 0.057165 0
20.990000 0.035995 0
20.995000 0.016533 0
21.000000 -0.002401 0
21.005000 -0.023059 0
21.010000 -0.048563 0
21.015000 -0.081793 0
21.020000 -0.123214 0
21.025000 -0.168354 0
21.030000 -0.206443 0
21.035000 -0.221420 2
21.040000 -0.194977 0
21.045000 -0.110211 0
21.050000 0.044553 0
21.055000 0.270144 0
21.060000 0.548315 0
21.065000 0.835433 0
21.070000 1.067187 0
21.075000 1.179192 3
21.080000 1.134908 0
21.085000 0.944469 0
21.090000 0.659433 0
21.095000 0.347831 0
21.100000 0.067967 0
21.105000 -0.144747 0
21.110000 -0.277148 0
21.115000 -0.332284 4
21.120000 -0.324425 0
21.125000 -0.275127 0
21.130000 -0.207999 0
21.135000 -0.142507 0
21.140000 -0.089774 0
21.145000 -0.052400 0
21.150000 -0.027471 0
21.155000 -0.010235 0
21.160000 0.003448 0
21.165000 0.016275 0
21.170000 0.029682 0
21.175000 0.044324 0
21.180000 0.060459 0
21.185000 0.078166 0
21.190000 0.097438 0
21.195000 0.118210 0
21.200000 0.140367 0
21.205000 0.163741 0
21.210000 0.188115 0
21.215000 0.213220 0
21.220000 0.238739 0
21.225000 0.264311 0
21.230000 0.289540 0
21.235000 0.314001 0
21.240000 0.337254 0
21.245000 0.358856 0
21.250000 0.378372 0
21.255000 0.395395 0
21.260000 0.409550 0
21.265000 0.420519 0
21.270000 0.428042 0
21.275000 0.431935 0
21.280000 0.432091 5
21.285000 0.428487 0
21.290000 0.421186 0
21.295000 0.410333 0
21.300000 0.396150 0
21.305000 0.378930 0
21.310000 0.359024 0
21.315000 0.336831 0
21.320000 0.312783 0
21.325000 0.287332 0
21.330000 0.260935 0
21.335000 0.234040 0
21.340000 0.207074 0
21.345000 0.180433 0
21.350000 0.154473 0
21.355000 0.129504 0
21.360000 0.105782 0
21.365000 0.083511 0
21.370000 0.062844 0
21.375000 0.043879 0
21.380000 0.026669 0
21.385000 0.011221 0
21.390000 -0.002492 0
21.395000 -0.014531 0
21.400000 -0.024981 0
21.405000 -0.033948 0
21.410000 -0.041547 0
21.415000 -0.047905 0
21.420000 -0.053150 0
21.425000 -0.057408 0
21.430000 -0.060803 0
21.435000 -0.063450 0
21.440000 -0.065457 0
21.445000 -0.066922 0
21.450000 -0.067934 0
21.455000 -0.068569 0
21.460000 -0.068896 0
21.465000 -0.068972 0
21.470000 -0.068847 0
21.475000 -0.068562 0
21.480000 -0.068151 0
21.485000 -0.067596 0
21.490000 -0.066777 0
21.495000 -0.065962 0
21.500000 -0.065151 0
21.505000 -0.064344 0
21.510000 -0.063541 0
21.515000 -0.062742 0
21.520000 -0.061946 0
21.525000 -0.061155 0
21.530000 -0.060368 0
21.535000 -0.059585 0
21.540000 -0.058806 0
21.545000 -0.058030 0
21.550000 -0.057258 0
21.555000 -0.056491 0
21.560000 -0.055727 0
21.565000 -0.054966 0
21.570000 -0.054209 0
21.575000 -0.053455 0
21.580000 -0.052703 0
21.585000 -0.051953 0
21.590000 -0.051202 0
21.595000 -0.050447 0
21.600000 -0.049683 0
21.605000 -0.048901 0
21.610000 -0.048088 0
21.615000 -0.047223 0
21.620000 -0.046276 0
21.625000 -0.045203 0
21.630000 -0.043941 0
21.635000 -0.042403 0
21.640000 -0.040474 0
21.645000 -0.038004 0
21.650000 -0.034805 0
21.655000 -0.030652 0
21.660000 -0.025282 0
21.665000 -0.018405 0
21.670000 -0.009717 0
21.675000 0.001075 0
21.680000 0.014224 0
21.685000 0.029908 0
21.690000 0.048189 0
21.695000 0.068978 0
21.700000 0.091999 0
21.705000 0.116770 0
21.710000 0.142601 0
21.715000 0.168610 0
21.720000 0.193764 0
21.725000 0.216941 0
21.730000 0.237011 0
21.735000 0.252927 0
21.740000 0.263811 0
21.745000 0.269035 1
21.750000 0.268284 0
21.755000 0.261580 0
21.760000 0.249287 0
21.765000 0.232074 0
21.770000 0.210856 0
21.775000 0.186713 0
21.780000 0.160798 0
21.785000 0.134246 0
21.790000 0.108088 0
21.795000 0.083179 0
21.800000 0.060110 0
21.805000 0.039083 0
21.810000 0.019706 0
21.815000 0.000698 0
21.820000 -0.020311 0
21.825000 -0.046511 0
21.830000 -0.080673 0
21.835000 -0.122852 0
21.840000 -0.167874 0
21.845000 -0.204177 0
21.850000 -0.215120 2
21.855000 -0.182223 0
21.860000 -0.088882 0
21.865000 0.075632 0
21.870000 0.310084 0
21.875000 0.592765 0
21.880000 0.876064 0
21.885000 1.093505 0
21.890000 1.182697 3
21.895000 1.113442 0
21.900000 0.903127 0
21.905000 0.608723 0
21.910000 0.299095 0
21.915000 0.029695 0
21.920000 -0.168086 0
21.925000 -0.284536 0
21.930000 -0.325326 4
21.935000 -0.306771 0
21.940000 -0.251660 0
21.945000 -0.183513 0
21.950000 -0.120384 0
21.955000 -0.071405 0
21.960000 -0.037532 0
21.965000 -0.015039 0
21.970000 0.000895 0
21.975000 0.014111 0
21.980000 0.026961 0
21.985000 0.040636 0
21.990000 0.055656 0
21.995000 0.072216 0
22.000000 0.090365 0
22.005000 0.110076 0
22.010000 0.131267 0
22.015000 0.153805 0
22.020000 0.177505 0
22.025000 0.202128 0
22.030000 0.227385 0
22.035000 0.252938 0
22.040000 0.278410 0
22.045000 0.303386 0
22.050000 0.327429 0
22.055000 0.350090 0
22.060000 0.370922 0
22.065000 0.389493 0
22.070000 0.405401 0
22.075000 0.418287 0
22.080000 0.427851 0
22.085000 0.433860 0
22.090000 0.436160 5
22.095000 0.434676 0
22.100000 0.429425 0
22.105000 0.420505 0
22.110000 0.408100 0
22.115000 0.392467 0
22.120000 0.373933 0
22.125000 0.352877 0
22.130000 0.329721 0
22.135000 0.304914 0
22.140000 0.278919 0
22.145000 0.252195 0
22.150000 0.225188 0
22.155000 0.198317 0
22.160000 0.171963 0
22.165000 0.146463 0
22.170000 0.122102 0
22.175000 0.099114 0
22.180000 0.077676 0
22.185000 0.057912 0
22.190000 0.039897 0
22.195000 0.023657 0
22.200000 0.009180 0
22.205000 -0.003582 0
22.210000 -0.014708 0
22.215000 -0.024294 0
22.220000 -0.032455 0
22.225000 -0.039317 0
22.230000 -0.045007 0
22.235000 -0.049655 0
22.240000 -0.053388 0
22.245000 -0.056326 0
22.250000 -0.058582 0
22.255000 -0.060258 0
22.260000 -0.061448 0
22.265000 -0.062233 0
22.270000 -0.062686 0
22.275000 -0.062868 0
22.280000 -0.062832 0
22.285000 -0.062623 0
22.290000 -0.062277 0
22.295000 -0.061776 0
22.300000 -0.060985 0
22.305000 -0.060199 0
22.310000 -0.059417 0
22.315000 -0.058638 0
22.320000 -0.057864 0
22.325000 -0.057093 0
22.330000 -0.056326 0
22.335000 -0.055563 0
22.340000 -0.054804 0
22.345000 -0.054048 0
22.350000 -0.053296 0
22.355000 -0.052548 0
22.360000 -0.051804 0
22.365000 -0.051063 0
22.370000 -0.050326 0
22.375000 -0.049593 0
22.380000 -0.048863 0
22.385000 -0.048135 0
22.390000 -0.047411 0
22.395000 -0.046687 0
22.400000 -0.045963 0
22.405000 -0.045236 0
22.410000 -0.044500 0
22.415000 -0.043747 0
22.420000 -0.042965 0
22.425000 -0.042134 0
22.430000 -0.041224 0
22.435000 -0.040193 0
22.440000 -0.038978 0
22.445000 -0.037495 0
22.450000 -0.035630 0
22.455000 -0.033234 0
22.460000 -0.030119 0
22.465000 -0.026061 0
22.470000 -0.020793 0
22.475000 -0.014024 0
22.480000 -0.005446 0
22.485000 0.005239 0
22.490000 0.018290 0
22.495000 0.033889 0
22.500000 0.052105 0
22.505000 0.072848 0
22.510000 0.095842 0
22.515000 0.120598 0
22.520000 0.146418 0
22.525000 0.172404 0
22.530000 0.197507 0
22.535000 0.220590 0
22.540000 0.240509 0
22.545000 0.256205 0
22.550000 0.266800 0
22.555000 0.271671 1
22.560000 0.270518 0
22.565000 0.263386 0
22.570000 0.250668 0
22.575000 0.233063 0
22.580000 0.211516 0
22.585000 0.187133 0
22.590000 0.161083 0
22.595000 0.134510 0
22.600000 0.108444 0
22.605000 0.083724 0
22.610000 0.060906 0
22.615000 0.040131 0
22.620000 0.020892 0
22.625000 0.001736 0
22.630000 -0.019902 0
22.635000 -0.047303 0
22.640000 -0.082994 0
22.645000 -0.126272 0
22.650000 -0.170744 0
22.655000 -0.203551 0
22.660000 -0.207173 2
22.665000 -0.162968 0
22.670000 -0.054977 0
22.675000 0.125692 0
22.680000 0.373947 0
22.685000 0.661959 0
22.690000 0.935716 0
22.695000 1.126248 0
22.700000 1.176068 3
22.705000 1.066631 0
22.710000 0.827884 0
22.715000 0.523022 0
22.720000 0.219607 0
22.725000 -0.032723 0
22.730000 -0.208827 0
22.735000 -0.303694 0
22.740000 -0.326305 4
22.745000 -0.295275 0
22.750000 -0.234327 0
22.755000 -0.166114 0
22.760000 -0.106432 0
22.765000 -0.061901 0
22.770000 -0.031747 0
22.775000 -0.011600 0
22.780000 0.003230 0
22.785000 0.016166 0
22.790000 0.029181 0
22.795000 0.043227 0
22.800000 0.058702 0
22.805000 0.075744 0
22.810000 0.094377 0
22.815000 0.114557 0
22.820000 0.136184 0
22.825000 0.159110 0
22.830000 0.183132 0
22.835000 0.207994 0
22.840000 0.233392 0
22.845000 0.258973 0
22.850000 0.284344 0
22.855000 0.309081 0
22.860000 0.332740 0
22.865000 0.354871 0
22.870000 0.375026 0
22.875000 0.392780 0
22.880000 0.407742 0
22.885000 0.419571 0
22.890000 0.427986 0
22.895000 0.432778 0
22.900000 0.433819 5
22.905000 0.431065 0
22.910000 0.424559 0
22.915000 0.414431 0
22.920000 0.400892 0
22.925000 0.384224 0
22.930000 0.364775 0
22.935000 0.342943 0
22.940000 0.319163 0
22.945000 0.293891 0
22.950000 0.267593 0
22.955000 0.240727 0
22.960000 0.213732 0
22.965000 0.187015 0
22.970000 0.160943 0
22.975000 0.135838 0
22.980000 0.111967 0
22.985000 0.089542 0
22.990000 0.068723 0
22.995000 0.049615 0
23.000000 0.032274 0
23.005000 0.016712 0
23.010000 0.002900 0
23.015000 -0.009220 0
23.020000 -0.019734 0
23.025000 -0.028750 0
23.030000 -0.036386 0
23.035000 -0.042769 0
23.040000 -0.048029 0
23.045000 -0.052296 0
23.050000 -0.055695 0
23.055000 -0.058343 0
23.060000 -0.060350 0
23.065000 -0.061815 0
23.070000 -0.062826 0
23.075000 -0.063463 0
23.080000 -0.063793 0
23.085000 -0.063875 0
23.090000 -0.063758 0
23.095000 -0.063483 0
23.100000 -0.063085 0
23.105000 -0.062547 0
23.110000 -0.061753 0
23.115000 -0.060963 0
23.120000 -0.060176 0
23.125000 -0.059394 0
23.130000 -0.058616 0
23.135000 -0.057841 0
23.140000 -0.057071 0
23.145000 -0.056304 0
23.150000 -0.055541 0
23.155000 -0.054782 0
23.160000 -0.054026 0
23.165000 -0.053275 0
23.170000 -0.052527 0
23.175000 -0.051782 0
23.180000 -0.051042 0
23.185000 -0.050305 0
23.190000 -0.049571 0
23.195000 -0.048839 0
23.200000 -0.048110 0
23.205000 -0.047381 0
23.210000 -0.046651 0
23.215000 -0.045915 0
23.220000 -0.045168 0
23.225000 -0.044399 0
23.230000 -0.043592 0
23.235000 -0.042723 0
23.240000 -0.041757 0
23.245000 -0.040643 0
23.250000 -0.039308 0
23.255000 -0.037653 0
23.260000 -0.035549 0
23.265000 -0.032827 0
23.270000 -0.029281 0
23.275000 -0.024665 0
23.280000 -0.018697 0
23.285000 -0.011075 0
23.290000 -0.001490 0
23.295000 0.010340 0
23.300000 0.024644 0
23.305000 0.041552 0
23.310000 0.061060 0
23.315000 0.082986 0
23.320000 0.106948 0
23.325000 0.132349 0
23.330000 0.158383 0
23.335000 0.184063 0
23.340000 0.208283 0
23.345000 0.229887 0
23.350000 0.247757 0
23.355000 0.260913 0
23.360000 0.268597 0
23.365000 0.270347 1
23.370000 0.266041 0
23.375000 0.255908 0
23.380000 0.240513 0
23.385000 0.220696 0
23.390000 0.197503 0
23.395000 0.172091 0
23.400000 0.145630 0
23.405000 0.119218 0
23.410000 0.093796 0
23.415000 0.070065 0
23.420000 0.048381 0
23.425000 0.028565 0
23.430000 0.009627 0
23.435000 -0.010507 0
23.440000 -0.034916 0
23.445000 -0.066734 0
23.450000 -0.107045 0
23.455000 -0.152199 0
23.460000 -0.192089 0
23.465000 -0.210813 2
23.470000 -0.189672 0
23.475000 -0.111002 0
23.480000 0.037865 0
23.485000 0.258940 0
23.490000 0.535072 0
23.495000 0.822939 0
23.500000 1.057184 0
23.505000 1.171431 3
23.510000 1.128219 0
23.515000 0.937973 0
23.520000 0.652732 0
23.525000 0.341235 0
23.530000 0.062211 0
23.535000 -0.148912 0
23.540000 -0.279218 0
23.545000 -0.332127 4
23.550000 -0.322349 0
23.555000 -0.271846 0
23.560000 -0.204421 0
23.565000 -0.139412 0
23.570000 -0.087573 0
23.575000 -0.051111 0
23.580000 -0.026863 0
23.585000 -0.010011 0
23.590000 0.003529 0
23.595000 0.016370 0
23.600000 0.029876 0
23.605000 0.044659 0
23.610000 0.060958 0
23.615000 0.078841 0
23.620000 0.098292 0
23.625000 0.119242 0
23.630000 0.141566 0
23.635000 0.165091 0
23.640000 0.189589 0
23.645000 0.214781 0
23.650000 0.240342 0
23.655000 0.265899 0
23.660000 0.291048 0
23.665000 0.315357 0
23.670000 0.338379 0
23.675000 0.359667 0
23.680000 0.378785 0
23.685000 0.395325 0
23.690000 0.408919 0
23.695000 0.419255 0
23.700000 0.426084 0
23.705000 0.429236 5
23.710000 0.428618 0
23.715000 0.424227 0
23.720000 0.416143 0
23.725000 0.404531 0
23.730000 0.389633 0
23.735000 0.371757 0
23.740000 0.351273 0
23.745000 0.328593 0
23.750000 0.304160 0
23.755000 0.278432 0
23.760000 0.251871 0
23.765000 0.224925 0
23.770000 0.198019 0
23.775000 0.171543 0
23.780000 0.145844 0
23.785000 0.121219 0
23.790000 0.097913 0
23.795000 0.076117 0
23.800000 0.055967 0
23.805000 0.037550 0
23.810000 0.020904 0
23.815000 0.006024 0
23.820000 -0.007129 0
23.825000 -0.018625 0
23.830000 -0.028559 0
23.835000 -0.037039 0
23.840000 -0.044188 0
23.845000 -0.050135 0
23.850000 -0.055009 0
23.855000 -0.058936 0
23.860000 -0.062039 0
23.865000 -0.064432 0
23.870000 -0.066220 0
23.875000 -0.067499 0
23.880000 -0.068354 0
23.885000 -0.068858 0
23.890000 -0.069077 0
23.895000 -0.069064 0
23.900000 -0.068867 0
23.905000 -0.068525 0
23.910000 -0.068069 0
23.915000 -0.067300 0
23.920000 -0.066482 0
23.925000 -0.065669 0
23.930000 -0.064859 0
23.935000 -0.064053 0
23.940000 -0.063252 0
23.945000 -0.062454 0
23.950000 -0.061660 0
23.955000 -0.060871 0
23.960000 -0.060085 0
23.965000 -0.059303 0
23.970000 -0.058525 0
23.975000 -0.057751 0
23.980000 -0.056981 0
23.985000 -0.056214 0
23.990000 -0.055451 0
23.995000 -0.054692 0
24.000000 -0.053936 0
24.005000 -0.053183 0
24.010000 -0.052431 0
24.015000 -0.051680 0
24.020000 -0.050927 0
24.025000 -0.050167 0
24.030000 -0.049393 0
24.035000 -0.048595 0
24.040000 -0.047756 0
24.045000 -0.046848 0
24.050000 -0.045834 0
24.055000 -0.044659 0
24.060000 -0.043246 0
24.065000 -0.041491 0
24.070000 -0.039258 0
24.075000 -0.036372 0
24.080000 -0.032621 0
24.085000 -0.027752 0
24.090000 -0.021482 0
24.095000 -0.013506 0
24.100000 -0.003522 0
24.105000 0.008745 0
24.110000 0.023508 0
24.115000 0.040875 0
24.120000 0.060816 0
24.125000 0.083120 0
24.130000 0.107372 0
24.135000 0.132945 0
24.140000 0.159008 0
24.145000 0.184562 0
24.150000 0.208493 0
24.155000 0.229652 0
24.160000 0.246944 0
24.165000 0.259421 0
24.170000 0.266366 0
24.175000 0.267360 1
24.180000 0.262328 0
24.185000 0.251542 0
24.190000 0.235595 0
24.195000 0.215355 0
24.200000 0.191875 0
24.205000 0.166310 0
24.210000 0.139821 0
24.215000 0.113484 0
24.220000 0.088214 0
24.225000 0.064682 0
24.230000 0.043198 0
24.235000 0.023528 0
24.240000 0.004604 0
24.245000 -0.015728 0
24.250000 -0.040582 0
24.255000 -0.073003 0
24.260000 -0.113818 0
24.265000 -0.158993 0
24.270000 -0.198060 0
24.275000 -0.214943 2
24.280000 -0.191025 0
24.285000 -0.108926 0
24.290000 0.043554 0
24.295000 0.267700 0
24.300000 0.545410 0
24.305000 0.832537 0
24.310000 1.063620 0
24.315000 1.173214 3
24.320000 1.125394 0
24.325000 0.931883 0
24.330000 0.645242 0
24.335000 0.333880 0
24.340000 0.055808 0
24.345000 -0.154171 0
24.350000 -0.283506 0
24.355000 -0.335757 4
24.360000 -0.325637 0
24.365000 -0.275019 0
24.370000 -0.207570 0
24.375000 -0.142521 0
24.380000 -0.090587 0
24.385000 -0.053997 0
24.390000 -0.029629 0
24.395000 -0.012696 0
24.400000 0.000886 0
24.405000 0.013735 0
24.410000 0.027230 0
24.415000 0.041989 0
24.420000 0.058255 0
24.425000 0.076100 0
24.430000 0.095510 0
24.435000 0.116417 0
24.440000 0.138701 0
24.445000 0.162189 0
24.450000 0.186658 0
24.455000 0.211833 0
24.460000 0.237392 0
24.465000 0.262967 0
24.470000 0.288158 0
24.475000 0.312536 0
24.480000 0.335658 0
24.485000 0.357077 0
24.490000 0.376361 0
24.495000 0.393100 0
24.500000 0.406927 0
24.505000 0.417525 0
24.510000 0.424644 0
24.515000 0.428105 5
24.520000 0.427812 0
24.525000 0.423753 0
24.530000 0.416002 0
24.535000 0.404714 0
24.540000 0.390122 0
24.545000 0.372531 0
24.550000 0.352299 0
24.555000 0.329833 0
24.560000 0.305572 0
24.565000 0.279971 0
24.570000 0.253488 0
24.575000 0.226571 0
24.580000 0.199647 0
24.585000 0.173108 0
24.590000 0.147303 0
24.595000 0.122535 0
24.600000 0.099056 0
24.605000 0.077060 0
24.610000 0.056691 0
24.615000 0.038041 0
24.620000 0.021154 0
24.625000 0.006032 0
24.630000 -0.007360 0
24.635000 -0.019089 0
24.640000 -0.029242 0
24.645000 -0.037930 0
24.650000 -0.045271 0
24.655000 -0.051391 0
24.660000 -0.056421 0
24.665000 -0.060486 0
24.670000 -0.063710 0
24.675000 -0.066206 0
24.680000 -0.068083 0
24.685000 -0.069435 0
24.690000 -0.070350 0
24.695000 -0.070902 0
24.700000 -0.071159 0
24.705000 -0.071176 0
24.710000 -0.071001 0
24.715000 -0.070674 0
24.720000 -0.070228 0
24.725000 -0.069451 0
24.730000 -0.068623 0
24.735000 -0.067798 0
24.740000 -0.066978 0
24.745000 -0.066162 0
24.750000 -0.065350 0
24.755000 -0.064542 0
24.760000 -0.063737 0
24.765000 -0.062937 0
24.770000 -0.062141 0
24.775000 -0.061349 0
24.780000 -0.060561 0
24.785000 -0.059777 0
24.790000 -0.058997 0
24.795000 -0.058220 0
24.800000 -0.057447 0
24.805000 -0.056678 0
24.810000 -0.055912 0
24.815000 -0.055149 0
24.820000 -0.054389 0
24.825000 -0.053629 0
24.830000 -0.052868 0
24.835000 -0.052101 0
24.840000 -0.051324 0
24.845000 -0.050525 0
24.850000 -0.049690 0
24.855000 -0.048796 0
24.860000 -0.047808 0
24.865000 -0.046676 0
24.870000 -0.045331 0
24.875000 -0.043678 0
24.880000 -0.041591 0
24.885000 -0.038907 0
24.890000 -0.035427 0
24.895000 -0.030910 0
24.900000 -0.025083 0
24.905000 -0.017648 0
24.910000 -0.008300 0
24.915000 0.003245 0
24.920000 0.017222 0
24.925000 0.033776 0
24.930000 0.052923 0
24.935000 0.074514 0
24.940000 0.098202 0
24.945000 0.123434 0
24.950000 0.149445 0
24.955000 0.175291 0
24.960000 0.199895 0
24.965000 0.222117 0
24.970000 0.240840 0
24.975000 0.255061 0
24.980000 0.263979 0
24.985000 0.267071 1
24.990000 0.264140 0
24.995000 0.255337 0
25.000000 0.241144 0
25.005000 0.222334 0
25.010000 0.199899 0
25.015000 0.174962 0
25.020000 0.148685 0
25.025000 0.122180 0
25.030000 0.096424 0
25.035000 0.072185 0
25.040000 0.049924 0
25.045000 0.029643 0
25.050000 0.010631 0
25.055000 -0.008822 0
25.060000 -0.031502 0
25.065000 -0.060663 0
25.070000 -0.098307 0
25.075000 -0.142623 0
25.080000 -0.185802 0
25.085000 -0.213827 2
25.090000 -0.208759 0
25.095000 -0.152361 0
25.100000 -0.029857 0
25.105000 0.165403 0
25.110000 0.424527 0
25.115000 0.714756 0
25.120000 0.978259 0
25.125000 1.146457 0
25.130000 1.167680 3
25.135000 1.032203 0
25.140000 0.777188 0
25.145000 0.468153 0
25.150000 0.170317 0
25.155000 -0.070989 0
25.160000 -0.234427 0
25.165000 -0.317536 0
25.170000 -0.330912 4
25.175000 -0.294087 0
25.180000 -0.230852 0
25.185000 -0.163031 0
25.190000 -0.105108 0
25.195000 -0.062521 0
25.200000 -0.033831 0
25.205000 -0.014516 0
25.210000 -0.000023 0
25.215000 0.012871 0
25.220000 0.025986 0
25.225000 0.040188 0
25.230000 0.055835 0
25.235000 0.073049 0
25.240000 0.091845 0
25.245000 0.112174 0
25.250000 0.133934 0
25.255000 0.156972 0
25.260000 0.181085 0
25.265000 0.206014 0
25.270000 0.231454 0
25.275000 0.257051 0
25.280000 0.282414 0
25.285000 0.307121 0
25.290000 0.330732 0
25.295000 0.352798 0
25.300000 0.372877 0
25.305000 0.390548 0
25.310000 0.405426 0
25.315000 0.417173 0
25.320000 0.425513 0
25.325000 0.430241 0
25.330000 0.431231 5
25.335000 0.428441 0
25.340000 0.421916 0
25.345000 0.411785 0
25.350000 0.398256 0
25.355000 0.381612 0
25.360000 0.362196 0
25.365000 0.340403 0
25.370000 0.316663 0
25.375000 0.291431 0
25.380000 0.265167 0
25.385000 0.238326 0
25.390000 0.211345 0
25.395000 0.184628 0
25.400000 0.158541 0
25.405000 0.133405 0
25.410000 0.109487 0
25.415000 0.087002 0
25.420000 0.066108 0
25.425000 0.046914 0
25.430000 0.029478 0
25.435000 0.013815 0
25.440000 -0.000101 0
25.445000 -0.012328 0
25.450000 -0.022948 0
25.455000 -0.032065 0
25.460000 -0.039798 0
25.465000 -0.046271 0
25.470000 -0.051613 0
25.475000 -0.055954 0
25.480000 -0.059418 0
25.485000 -0.062122 0
25.490000 -0.064175 0
25.495000 -0.065678 0
25.500000 -0.066721 0
25.505000 -0.067380 0
25.510000 -0.067727 0
25.515000 -0.067819 0
25.520000 -0.067707 0
25.525000 -0.067432 0
25.530000 -0.067030 0
25.535000 -0.066484 0
25.540000 -0.065670 0
25.545000 -0.064860 0
25.550000 -0.064055 0
25.555000 -0.063253 0
25.560000 -0.062455 0
25.565000 -0.061662 0
25.570000 -0.060872 0
25.575000 -0.060086 0
25.580000 -0.059304 0
25.585000 -0.058527 0
25.590000 -0.057752 0
25.595000 -0.056982 0
25.600000 -0.056216 0
25.605000 -0.055453 0
25.610000 -0.054694 0
25.615000 -0.053939 0
25.620000 -0.053187 0
25.625000 -0.052438 0
25.630000 -0.051691 0
25.635000 -0.050946 0
25.640000 -0.050199 0
25.645000 -0.049448 0
25.650000 -0.048688 0
25.655000 -0.047908 0
25.660000 -0.047096 0
25.665000 -0.046229 0
25.670000 -0.045277 0
25.675000 -0.044191 0
25.680000 -0.042907 0
25.685000 -0.041334 0
25.690000 -0.039353 0
25.695000 -0.036806 0
25.700000 -0.033501 0
25.705000 -0.029204 0
25.710000 -0.023645 0
25.715000 -0.016527 0
25.720000 -0.007546 0
25.725000 0.003591 0
25.730000 0.017130 0
25.735000 0.033236 0
25.740000 0.051948 0
25.745000 0.073147 0
25.750000 0.096519 0
25.755000 0.121541 0
25.760000 0.147477 0
25.765000 0.173406 0
25.770000 0.198262 0
25.775000 0.220903 0
25.780000 0.240200 0
25.785000 0.255122 0
25.790000 0.264830 0
25.795000 0.268756 1
25.800000 0.266652 0
25.805000 0.258621 0
25.810000 0.245106 0
25.815000 0.226845 0
25.820000 0.204812 0
25.825000 0.180121 0
25.830000 0.153940 0
25.835000 0.127397 0
25.840000 0.101494 0
25.845000 0.077033 0
25.850000 0.054519 0
25.855000 0.034019 0
25.860000 0.014918 0
25.865000 -0.004378 0
25.870000 -0.026562 0
25.875000 -0.054909 0
25.880000 -0.091679 0
25.885000 -0.135572 0
25.890000 -0.179412 0
25.895000 -0.209677 2
25.900000 -0.208581 0
25.905000 -0.157678 0
25.910000 -0.041637 0
25.915000 0.147223 0
25.920000 0.401715 0
25.925000 0.691234 0
25.930000 0.959520 0
25.935000 1.137656 0
25.940000 1.171306 3
25.945000 1.046839 0
25.950000 0.798375 0
25.955000 0.490810 0
25.960000 0.190632 0
25.965000 -0.054941 0
25.970000 -0.223049 0
25.975000 -0.310299 0
25.980000 -0.326770 4
25.985000 -0.291780 0
25.990000 -0.229216 0
25.995000 -0.161270 0
26.000000 -0.102877 0
26.005000 -0.059818 0
26.010000 -0.030811 0
26.015000 -0.011342 0
26.020000 0.003197 0
26.025000 0.016083 0
26.030000 0.029171 0
26.035000 0.043344 0
26.040000 0.058965 0
26.045000 0.076158 0
26.050000 0.094940 0
26.055000 0.115261 0
26.060000 0.137017 0
26.065000 0.160055 0
26.070000 0.184169 0
26.075000 0.209097 0
26.080000 0.234532 0
26.085000 0.260116 0
26.090000 0.285454 0
26.095000 0.310121 0
26.100000 0.333672 0
26.105000 0.355656 0
26.110000 0.375627 0
26.115000 0.393164 0
26.120000 0.407880 0
26.125000 0.419438 0
26.130000 0.427563 0
26.135000 0.432052 0
26.140000 0.432786 5
26.145000 0.429726 0
26.150000 0.422924 0
26.155000 0.412515 0
26.160000 0.398717 0
26.165000 0.381817 0
26.170000 0.362168 0
26.175000 0.340170 0
26.180000 0.316260 0
26.185000 0.290896 0
26.190000 0.264542 0
26.195000 0.237656 0
26.200000 0.210673 0
26.205000 0.183998 0
26.210000 0.157995 0
26.215000 0.132979 0
26.220000 0.109215 0
26.225000 0.086910 0
26.230000 0.066221 0
26.235000 0.047247 0
26.240000 0.030042 0
26.245000 0.014614 0
26.250000 0.000933 0
26.255000 -0.011063 0
26.260000 -0.021462 0
26.265000 -0.030370 0
26.270000 -0.037908 0
26.275000 -0.044203 0
26.280000 -0.049384 0
26.285000 -0.053582 0
26.290000 -0.056920 0
26.295000 -0.059516 0
26.300000 -0.061478 0
26.305000 -0.062904 0
26.310000 -0.063884 0
26.315000 -0.064493 0
26.320000 -0.064800 0
26.325000 -0.064863 0
26.330000 -0.064729 0
26.335000 -0.064440 0
26.340000 -0.064030 0
26.345000 -0.063483 0
26.350000 -0.062684 0
26.355000 -0.061889 0
26.360000 -0.061098 0
26.365000 -0.060311 0
26.370000 -0.059528 0
26.375000 -0.058749 0
26.380000 -0.057974 0
26.385000 -0.057203 0
26.390000 -0.056435 0
26.395000 -0.055672 0
26.400000 -0.054912 0
26.405000 -0.054156 0
26.410000 -0.053404 0
26.415000 -0.052655 0
26.420000 -0.051910 0
26.425000 -0.051168 0
26.430000 -0.050430 0
26.435000 -0.049694 0
26.440000 -0.048961 0
26.445000 -0.048228 0
26.450000 -0.047493 0
26.455000 -0.046752 0
26.460000 -0.046000 0
26.465000 -0.045224 0
26.470000 -0.044410 0
26.475000 -0.043533 0
26.480000 -0.042557 0
26.485000 -0.041429 0
26.490000 -0.040076 0
26.495000 -0.038398 0
26.500000 -0.036263 0
26.505000 -0.033501 0
26.510000 -0.029905 0
26.515000 -0.025226 0
26.520000 -0.019181 0
26.525000 -0.011468 0
26.530000 -0.001780 0
26.535000 0.010165 0
26.540000 0.024592 0
26.545000 0.041625 0
26.550000 0.061251 0
26.555000 0.083282 0
26.560000 0.107327 0
26.565000 0.132778 0
26.570000 0.158821 0
26.575000 0.184465 0
26.580000 0.208601 0
26.585000 0.230071 0
26.590000 0.247766 0
26.595000 0.260712 0
26.600000 0.268164 0
26.605000 0.269672 1
26.610000 0.265129 0
26.615000 0.254779 0
26.620000 0.239196 0
26.625000 0.219231 0
26.630000 0.195935 0
26.635000 0.170465 0
26.640000 0.143991 0
26.645000 0.117603 0
26.650000 0.092235 0
26.655000 0.068577 0
26.660000 0.046969 0
26.665000 0.027210 0
26.670000 0.008276 0
26.675000 -0.011945 0
26.680000 -0.036554 0
26.685000 -0.068652 0
26.690000 -0.109209 0
26.695000 -0.154384 0
26.700000 -0.193865 0
26.705000 -0.211622 2
26.710000 -0.188946 0
26.715000 -0.108280 0
26.720000 0.042806 0
26.725000 0.265880 0
26.730000 0.543105 0
26.735000 0.830418 0
26.740000 1.062119 0
26.745000 1.172294 3
26.750000 1.124624 0
26.755000 0.930810 0
26.760000 0.643831 0
26.765000 0.332554 0
26.770000 0.055193 0
26.775000 -0.153523 0
26.780000 -0.281267 0
26.785000 -0.331883 4
26.790000 -0.320397 0
26.795000 -0.268957 0
26.800000 -0.201342 0
26.805000 -0.136668 0
26.810000 -0.085381 0
26.815000 -0.049437 0
26.820000 -0.025547 0
26.825000 -0.008886 0
26.830000 0.004588 0
26.835000 0.017432 0
26.840000 0.030977 0
26.845000 0.045815 0
26.850000 0.062174 0
26.855000 0.080119 0
26.860000 0.099633 0
26.865000 0.120641 0
26.870000 0.143018 0
26.875000 0.166588 0
26.880000 0.191121 0
26.885000 0.216335 0
26.890000 0.241901 0
26.895000 0.267447 0
26.900000 0.292565 0
26.905000 0.316821 0
26.910000 0.339769 0
26.915000 0.360960 0
26.920000 0.379959 0
26.925000 0.396359 0
26.930000 0.409795 0
26.935000 0.419956 0
26.940000 0.426598 0
26.945000 0.429553 5
26.950000 0.428734 0
26.955000 0.424141 0
26.960000 0.415861 0
26.965000 0.404060 0
26.970000 0.388987 0
26.975000 0.370954 0
26.980000 0.350333 0
26.985000 0.327539 0
26.990000 0.303016 0
26.995000 0.277226 0
27.000000 0.250628 0
27.005000 0.223671 0
27.010000 0.196779 0
27.015000 0.170338 0
27.020000 0.144695 0
27.025000 0.120143 0
27.030000 0.096925 0
27.035000 0.075228 0
27.040000 0.055185 0
27.045000 0.036880 0
27.050000 0.020347 0
27.055000 0.005580 0
27.060000 -0.007462 0
27.065000 -0.018853 0
27.070000 -0.028686 0
27.075000 -0.037074 0
27.080000 -0.044139 0
27.085000 -0.050009 0
27.090000 -0.054814 0
27.095000 -0.058681 0
27.100000 -0.061732 0
27.105000 -0.064081 0
27.110000 -0.065832 0
27.115000 -0.067079 0
27.120000 -0.067908 0
27.125000 -0.068391 0
27.130000 -0.068593 0
27.135000 -0.068567 0
27.140000 -0.068360 0
27.145000 -0.068011 0
27.150000 -0.067549 0
27.155000 -0.066782 0
27.160000 -0.065966 0
27.165000 -0.065155 0
27.170000 -0.064348 0
27.175000 -0.063545 0
27.180000 -0.062746 0
27.185000 -0.061951 0
27.190000 -0.061160 0
27.195000 -0.060373 0
27.200000 -0.059589 0
27.205000 -0.058810 0
27.210000 -0.058034 0
27.215000 -0.057263 0
27.220000 -0.056495 0
27.225000 -0.055731 0
27.230000 -0.054971 0
27.235000 -0.054214 0
27.240000 -0.053460 0
27.245000 -0.052709 0
27.250000 -0.051959 0
27.255000 -0.051210 0
27.260000 -0.050458 0
27.265000 -0.049700 0
27.270000 -0.048926 0
27.275000 -0.048127 0
27.280000 -0.047284 0
27.285000 -0.046370 0
27.290000 -0.045346 0
27.295000 -0.044153 0
27.300000 -0.042714 0
27.305000 -0.040921 0
27.310000 -0.038634 0
27.315000 -0.035675 0
27.320000 -0.031827 0
27.325000 -0.026833 0
27.330000 -0.020408 0
27.335000 -0.012245 0
27.340000 -0.002042 0
27.345000 0.010471 0
27.350000 0.025497 0
27.355000 0.043134 0
27.360000 0.063332 0
27.365000 0.085861 0
27.370000 0.110285 0
27.375000 0.135951 0
27.380000 0.162009 0
27.385000 0.187442 0
27.390000 0.211128 0
27.395000 0.231918 0
27.400000 0.248726 0
27.405000 0.260625 0
27.410000 0.266926 0
27.415000 0.267249 1
27.420000 0.261553 0
27.425000 0.250151 0
27.430000 0.233672 0
27.435000 0.213007 0
27.440000 0.189228 0
27.445000 0.163498 0
27.450000 0.136973 0
27.455000 0.110716 0
27.460000 0.085619 0
27.465000 0.062318 0
27.470000 0.041073 0
27.475000 0.021565 0
27.480000 0.002606 0
27.485000 -0.018093 0
27.490000 -0.043718 0
27.495000 -0.077185 0
27.500000 -0.118869 0
27.505000 -0.163992 0
27.510000 -0.201286 0
27.515000 -0.214149 2
27.520000 -0.183887 0
27.525000 -0.093515 0
27.530000 0.068191 0
27.535000 0.300584 0
27.540000 0.582482 0
27.545000 0.866382 0
27.550000 1.085239 0
27.555000 1.175685 3
27.560000 1.107600 0
27.565000 0.899241 0
27.570000 0.606138 0
27.575000 0.295997 0
27.580000 0.023998 0
27.585000 -0.177991 0
27.590000 -0.299468 0
27.595000 -0.345211 4
27.600000 -0.330611 0
27.605000 -0.277714 0
27.610000 -0.209819 0
27.615000 -0.145417 0
27.620000 -0.094468 0
27.625000 -0.058710 0
27.630000 -0.034852 0
27.635000 -0.018143 0
27.640000 -0.004611 0
27.645000 0.008274 0
27.650000 0.021834 0
27.655000 0.036665 0
27.660000 0.052997 0
27.665000 0.070901 0
27.670000 0.090361 0
27.675000 0.111308 0
27.680000 0.133622 0
27.685000 0.157134 0
27.690000 0.181622 0
27.695000 0.206815 0
27.700000 0.232393 0
27.705000 0.257995 0
27.710000 0.283223 0
27.715000 0.307655 0
27.720000 0.330851 0
27.725000 0.352372 0
27.730000 0.371785 0
27.735000 0.388687 0
27.740000 0.402709 0
27.745000 0.413536 0
27.750000 0.420916 0
27.755000 0.424666 0
27.760000 0.424686 5
27.765000 0.420957 0
27.770000 0.413545 0
27.775000 0.402597 0
27.780000 0.388338 0
27.785000 0.371060 0
27.790000 0.351116 0
27.795000 0.328902 0
27.800000 0.304851 0
27.805000 0.279410 0
27.810000 0.253036 0
27.815000 0.226173 0
27.820000 0.199246 0
27.825000 0.172649 0
27.830000 0.146735 0
27.835000 0.121810 0
27.840000 0.098131 0
27.845000 0.075901 0
27.850000 0.055270 0
27.855000 0.036336 0
27.860000 0.019153 0
27.865000 0.003728 0
27.870000 -0.009967 0
27.875000 -0.021991 0
27.880000 -0.032430 0
27.885000 -0.041386 0
27.890000 -0.048976 0
27.895000 -0.055326 0
27.900000 -0.060561 0
27.905000 -0.064809 0
27.910000 -0.068193 0
27.915000 -0.070827 0
27.920000 -0.072819 0
27.925000 -0.074267 0
27.930000 -0.075260 0
27.935000 -0.075874 0
27.940000 -0.076178 0
27.945000 -0.076229 0
27.950000 -0.076077 0
27.955000 -0.075764 0
27.960000 -0.075324 0
27.965000 -0.074739 0
27.970000 -0.073884 0
27.975000 -0.073033 0
27.980000 -0.072187 0
27.985000 -0.071344 0
27.990000 -0.070506 0
27.995000 -0.069673 0
28.000000 -0.068843 0
28.005000 -0.068017 0
28.010000 -0.067196 0
28.015000 -0.066379 0
28.020000 -0.065566 0
28.025000 -0.064756 0
28.030000 -0.063951 0
28.035000 -0.063150 0
28.040000 -0.062353 0
28.045000 -0.061559 0
28.050000 -0.060769 0
28.055000 -0.059983 0
28.060000 -0.059198 0
28.065000 -0.058416 0
28.070000 -0.057633 0
28.075000 -0.056847 0
28.080000 -0.056053 0
28.085000 -0.055243 0
28.090000 -0.054404 0
28.095000 -0.053516 0
28.100000 -0.052552 0
28.105000 -0.051468 0
28.110000 -0.050206 0
28.115000 -0.048682 0
28.120000 -0.046787 0
28.125000 -0.044376 0
28.130000 -0.041269 0
28.135000 -0.037246 0
28.140000 -0.032051 0
28.145000 -0.025398 0
28.150000 -0.016987 0
28.155000 -0.006523 0
28.160000 0.006254 0
28.165000 0.021538 0
28.170000 0.039411 0
28.175000 0.059812 0
28.180000 0.082500 0
28.185000 0.107034 0
28.190000 0.132761 0
28.195000 0.158836 0
28.200000 0.184255 0
28.205000 0.207913 0
28.210000 0.228681 0
28.215000 0.245493 0
28.220000 0.257438 0
28.225000 0.263837 0
28.230000 0.264312 1
28.235000 0.258818 0
28.240000 0.247648 0
28.245000 0.231412 0
28.250000 0.210974 0
28.255000 0.187382 0
28.260000 0.161774 0
28.265000 0.135291 0
28.270000 0.108989 0
28.275000 0.083764 0
28.280000 0.060269 0
28.285000 0.038809 0
28.290000 0.019151 0
28.295000 0.000254 0
28.300000 -0.019987 0
28.305000 -0.044622 0
28.310000 -0.076681 0
28.315000 -0.117118 0
28.320000 -0.162244 0
28.325000 -0.202105 0
28.330000 -0.221153 2
28.335000 -0.201114 0
28.340000 -0.124648 0
28.345000 0.020885 0
28.350000 0.238111 0
28.355000 0.511596 0
28.360000 0.800790 0
28.365000 1.042927 0
28.370000 1.171940 3
28.375000 1.147150 0
28.380000 0.973336 0
28.385000 0.697228 0
28.390000 0.385402 0
