0.000000 1.145646 3
0.005000 1.044702 0
0.010000 0.789179 0
0.015000 0.455204 0
0.020000 0.125546 0
0.025000 -0.140688 0
0.030000 -0.315949 0
0.035000 -0.397619 0
0.040000 -0.400000 4
0.045000 -0.348504 0
0.050000 -0.272682 0
0.055000 -0.197469 0
0.060000 -0.136897 0
0.065000 -0.093762 0
0.070000 -0.063973 0
0.075000 -0.041633 0
0.080000 -0.022066 0
0.085000 -0.002546 0
0.090000 0.018170 0
0.095000 0.040501 0
0.100000 0.064485 0
0.105000 0.089981 0
0.110000 0.116752 0
0.115000 0.144480 0
0.120000 0.172784 0
0.125000 0.201219 0
0.130000 0.229293 0
0.135000 0.256474 0
0.140000 0.282209 0
0.145000 0.305942 0
0.150000 0.327133 0
0.155000 0.345275 0
0.160000 0.359920 0
0.165000 0.370692 0
0.170000 0.377305 0
0.175000 0.379574 5
0.180000 0.377425 0
0.185000 0.370897 0
0.190000 0.360142 0
0.195000 0.345415 0
0.200000 0.327072 0
0.205000 0.305545 0
0.210000 0.281333 0
0.215000 0.254980 0
0.220000 0.227052 0
0.225000 0.198122 0
0.230000 0.168747 0
0.235000 0.139450 0
0.240000 0.110709 0
0.245000 0.082946 0
0.250000 0.056513 0
0.255000 0.031694 0
0.260000 0.008703 0
0.265000 -0.012320 0
0.270000 -0.031297 0
0.275000 -0.048209 0
0.280000 -0.063090 0
0.285000 -0.076015 0
0.290000 -0.087092 0
0.295000 -0.096454 0
0.300000 -0.104252 0
0.305000 -0.110642 0
0.310000 -0.115785 0
0.315000 -0.119838 0
0.320000 -0.122951 0
0.325000 -0.125264 0
0.330000 -0.126903 0
0.335000 -0.127984 0
0.340000 -0.128607 0
0.345000 -0.128857 0
0.350000 -0.128810 0
0.355000 -0.128416 0
0.360000 -0.127370 0
0.365000 -0.126330 0
0.370000 -0.125296 0
0.375000 -0.124266 0
0.380000 -0.123241 0
0.385000 -0.122222 0
0.390000 -0.121207 0
0.395000 -0.120198 0
0.400000 -0.119194 0
0.405000 -0.118194 0
0.410000 -0.117199 0
0.415000 -0.116208 0
0.420000 -0.115221 0
0.425000 -0.114237 0
0.430000 -0.113252 0
0.435000 -0.112264 0
0.440000 -0.111266 0
0.445000 -0.110248 0
0.450000 -0.109191 0
0.455000 -0.108070 0
0.460000 -0.106843 0
0.465000 -0.105448 0
0.470000 -0.103799 0
0.475000 -0.101772 0
0.480000 -0.099204 0
0.485000 -0.095881 0
0.490000 -0.091540 0
0.495000 -0.085865 0
0.500000 -0.078499 0
0.505000 -0.069063 0
0.510000 -0.057185 0
0.515000 -0.042544 0
0.520000 -0.024916 0
0.525000 -0.004237 0
0.530000 0.019352 0
0.535000 0.045451 0
0.540000 0.073384 0
0.545000 0.102196 0
0.550000 0.130697 0
0.555000 0.157526 0
0.560000 0.181258 0
0.565000 0.200526 0
0.570000 0.214150 0
0.575000 0.221260 0
0.580000 0.221383 1
0.585000 0.214502 0
0.590000 0.201052 0
0.595000 0.181882 0
0.600000 0.158160 0
0.605000 0.131262 0
0.610000 0.102632 0
0.615000 0.073653 0
0.620000 0.045502 0
0.625000 0.018977 0
0.630000 -0.005769 0
0.635000 -0.029631 0
0.640000 -0.054946 0
0.645000 -0.085379 0
0.650000 -0.124503 0
0.655000 -0.172746 0
0.660000 -0.223792 0
0.665000 -0.262870 0
0.670000 -0.268735 2
0.675000 -0.218395 0
0.680000 -0.092423 0
0.685000 0.118773 0
0.690000 0.404918 0
0.695000 0.724270 0
0.700000 1.002705 0
0.705000 1.156008 3
0.710000 1.129353 0
0.715000 0.928185 0
0.720000 0.614888 0
0.725000 0.274616 0
0.730000 -0.021661 0
0.735000 -0.234124 0
0.740000 -0.351430 0
0.745000 -0.382091 4
0.750000 -0.347996 0
0.755000 -0.278225 0
0.760000 -0.200585 0
0.765000 -0.133724 0
0.770000 -0.084381 0
0.775000 -0.050406 0
0.780000 -0.026060 0
0.785000 -0.006001 0
0.790000 0.013213 0
0.795000 0.033298 0
0.800000 0.054911 0
0.805000 0.078195 0
0.810000 0.103060 0
0.815000 0.129297 0
0.820000 0.156616 0
0.825000 0.184655 0
0.830000 0.212989 0
0.835000 0.241139 0
0.840000 0.268583 0
0.845000 0.294771 0
0.850000 0.319144 0
0.855000 0.341151 0
0.860000 0.360269 0
0.865000 0.376027 0
0.870000 0.388021 0
0.875000 0.395931 0
0.880000 0.399538 5
0.885000 0.398730 0
0.890000 0.393508 0
0.895000 0.383989 0
0.900000 0.370398 0
0.905000 0.353059 0
0.910000 0.332385 0
0.915000 0.308858 0
0.920000 0.283012 0
0.925000 0.255411 0
0.930000 0.226630 0
0.935000 0.197234 0
0.940000 0.167763 0
0.945000 0.138712 0
0.950000 0.110520 0
0.955000 0.083564 0
0.960000 0.058150 0
0.965000 0.034512 0
0.970000 0.012813 0
0.975000 -0.006851 0
0.980000 -0.024446 0
0.985000 -0.039990 0
0.990000 -0.053549 0
0.995000 -0.065222 0
1.000000 -0.075138 0
1.005000 -0.083443 0
1.010000 -0.090293 0
1.015000 -0.095850 0
1.020000 -0.100272 0
1.025000 -0.103713 0
1.030000 -0.106316 0
1.035000 -0.108211 0
1.040000 -0.109518 0
1.045000 -0.110340 0
1.050000 -0.110768 0
1.055000 -0.110879 0
1.060000 -0.110621 0
1.065000 -0.109664 0
1.070000 -0.108712 0
1.075000 -0.107765 0
1.080000 -0.106823 0
1.085000 -0.105886 0
1.090000 -0.104953 0
1.095000 -0.104024 0
1.100000 -0.103101 0
1.105000 -0.102182 0
1.110000 -0.101267 0
1.115000 -0.100356 0
1.120000 -0.099450 0
1.125000 -0.098547 0
1.130000 -0.097646 0
1.135000 -0.096746 0
1.140000 -0.095842 0
1.145000 -0.094930 0
1.150000 -0.094000 0
1.155000 -0.093035 0
1.160000 -0.092012 0
1.165000 -0.090892 0
1.170000 -0.089618 0
1.175000 -0.088108 0
1.180000 -0.086247 0
1.185000 -0.083879 0
1.190000 -0.080801 0
1.195000 -0.076756 0
1.200000 -0.071437 0
1.205000 -0.064492 0
1.210000 -0.055544 0
1.215000 -0.044214 0
1.220000 -0.030167 0
1.225000 -0.013156 0
1.230000 0.006916 0
1.235000 0.029946 0
1.240000 0.055581 0
1.245000 0.083190 0
1.250000 0.111860 0
1.255000 0.140430 0
1.260000 0.167556 0
1.265000 0.191809 0
1.270000 0.211798 0
1.275000 0.226300 0
1.280000 0.234385 0
1.285000 0.235512 1
1.290000 0.229593 0
1.295000 0.217000 0
1.300000 0.198526 0
1.305000 0.175307 0
1.310000 0.148702 0
1.315000 0.120159 0
1.320000 0.091085 0
1.325000 0.062698 0
1.330000 0.035864 0
1.335000 0.010843 0
1.340000 -0.013102 0
1.345000 -0.038122 0
1.350000 -0.067773 0
1.355000 -0.105790 0
1.360000 -0.153185 0
1.365000 -0.204571 0
1.370000 -0.246080 0
1.375000 -0.256909 2
1.380000 -0.213900 0
1.385000 -0.096879 0
1.390000 0.105254 0
1.395000 0.384881 0
1.400000 0.703718 0
1.405000 0.990044 0
1.410000 1.158645 3
1.415000 1.150110 0
1.420000 0.963426 0
1.425000 0.656650 0
1.430000 0.315510 0
1.435000 0.013959 0
1.440000 -0.205209 0
1.445000 -0.328745 0
1.450000 -0.364162 4
1.455000 -0.332944 0
1.460000 -0.264305 0
1.465000 -0.186633 0
1.470000 -0.119280 0
1.475000 -0.069482 0
1.480000 -0.035269 0
1.485000 -0.010871 0
1.490000 0.009142 0
1.495000 0.028280 0
1.500000 0.048287 0
1.505000 0.069833 0
1.510000 0.093060 0
1.515000 0.117877 0
1.520000 0.144070 0
1.525000 0.171344 0
1.530000 0.199331 0
1.535000 0.227599 0
1.540000 0.255662 0
1.545000 0.282990 0
1.550000 0.309026 0
1.555000 0.333203 0
1.560000 0.354966 0
1.565000 0.373790 0
1.570000 0.389200 0
1.575000 0.400795 0
1.580000 0.408260 0
1.585000 0.411382 5
1.590000 0.410058 0
1.595000 0.404303 0
1.600000 0.394245 0
1.605000 0.380124 0
1.610000 0.362282 0
1.615000 0.341143 0
1.620000 0.317205 0
1.625000 0.291012 0
1.630000 0.263138 0
1.635000 0.234165 0
1.640000 0.204661 0
1.645000 0.175165 0
1.650000 0.146170 0
1.655000 0.118111 0
1.660000 0.091356 0
1.665000 0.066200 0
1.670000 0.042868 0
1.675000 0.021510 0
1.680000 0.002210 0
1.685000 -0.015009 0
1.690000 -0.030176 0
1.695000 -0.043365 0
1.700000 -0.054686 0
1.705000 -0.064272 0
1.710000 -0.072274 0
1.715000 -0.078853 0
1.720000 -0.084171 0
1.725000 -0.088388 0
1.730000 -0.091657 0
1.735000 -0.094119 0
1.740000 -0.095904 0
1.745000 -0.097127 0
1.750000 -0.097890 0
1.755000 -0.098280 0
1.760000 -0.098372 0
1.765000 -0.098120 0
1.770000 -0.097226 0
1.775000 -0.096336 0
1.780000 -0.095451 0
1.785000 -0.094570 0
1.790000 -0.093693 0
1.795000 -0.092821 0
1.800000 -0.091954 0
1.805000 -0.091090 0
1.810000 -0.090231 0
1.815000 -0.089376 0
1.820000 -0.088524 0
1.825000 -0.087677 0
1.830000 -0.086831 0
1.835000 -0.085988 0
1.840000 -0.085143 0
1.845000 -0.084293 0
1.850000 -0.083431 0
1.855000 -0.082544 0
1.860000 -0.081614 0
1.865000 -0.080610 0
1.870000 -0.079487 0
1.875000 -0.078177 0
1.880000 -0.076583 0
1.885000 -0.074571 0
1.890000 -0.071964 0
1.895000 -0.068531 0
1.900000 -0.063989 0
1.905000 -0.058005 0
1.910000 -0.050209 0
1.915000 -0.040212 0
1.920000 -0.027648 0
1.925000 -0.012215 0
1.930000 0.006270 0
1.935000 0.027813 0
1.940000 0.052184 0
1.945000 0.078887 0
1.950000 0.107134 0
1.955000 0.135864 0
1.960000 0.163796 0
1.965000 0.189509 0
1.970000 0.211563 0
1.975000 0.228626 0
1.980000 0.239610 0
1.985000 0.243783 1
1.990000 0.240851 0
1.995000 0.230990 0
2.000000 0.214829 0
2.005000 0.193384 0
2.010000 0.167950 0
2.015000 0.139974 0
2.020000 0.110910 0
2.025000 0.082085 0
2.030000 0.054539 0
2.035000 0.028809 0
2.040000 0.004585 0
2.045000 -0.019736 0
2.050000 -0.047288 0
2.055000 -0.082031 0
2.060000 -0.126395 0
2.065000 -0.177577 0
2.070000 -0.224535 0
2.075000 -0.248198 2
2.080000 -0.225339 0
2.085000 -0.133970 0
2.090000 0.040919 0
2.095000 0.298919 0
2.100000 0.611967 0
2.105000 0.916903 0
2.110000 1.128032 0
2.115000 1.173298 3
2.120000 1.032753 0
2.125000 0.750422 0
2.130000 0.410145 0
2.135000 0.093093 0
2.140000 -0.148695 0
2.145000 -0.295120 0
2.150000 -0.349495 4
2.155000 -0.330859 0
2.160000 -0.267788 0
2.165000 -0.190086 0
2.170000 -0.119787 0
2.175000 -0.066626 0
2.180000 -0.029992 0
2.185000 -0.004356 0
2.190000 0.016043 0
2.195000 0.035117 0
2.200000 0.054882 0
2.205000 0.076142 0
2.210000 0.099096 0
2.215000 0.123674 0
2.220000 0.149672 0
2.225000 0.176798 0
2.230000 0.204688 0
2.235000 0.232910 0
2.240000 0.260972 0
2.245000 0.288341 0
2.250000 0.314453 0
2.255000 0.338731 0
2.260000 0.360611 0
2.265000 0.379555 0
2.270000 0.395080 0
2.275000 0.406773 0
2.280000 0.414312 0
2.285000 0.417477 5
2.290000 0.416162 0
2.295000 0.410380 0
2.300000 0.400263 0
2.305000 0.386053 0
2.310000 0.368098 0
2.315000 0.346834 0
2.320000 0.322766 0
2.325000 0.296448 0
2.330000 0.268465 0
2.335000 0.239407 0
2.340000 0.209850 0
2.345000 0.180340 0
2.350000 0.151371 0
2.355000 0.123381 0
2.360000 0.096737 0
2.365000 0.071732 0
2.370000 0.048585 0
2.375000 0.027440 0
2.380000 0.008376 0
2.385000 -0.008592 0
2.390000 -0.023500 0
2.395000 -0.036431 0
2.400000 -0.047499 0
2.405000 -0.056843 0
2.410000 -0.064620 0
2.415000 -0.070992 0
2.420000 -0.076126 0
2.425000 -0.080181 0
2.430000 -0.083311 0
2.435000 -0.085657 0
2.440000 -0.087348 0
2.445000 -0.088498 0
2.450000 -0.089206 0
2.455000 -0.089558 0
2.460000 -0.089627 0
2.465000 -0.088908 0
2.470000 -0.088060 0
2.475000 -0.087216 0
2.480000 -0.086376 0
2.485000 -0.085540 0
2.490000 -0.084709 0
2.495000 -0.083882 0
2.500000 -0.083059 0
2.505000 -0.082239 0
2.510000 -0.081424 0
2.515000 -0.080613 0
2.520000 -0.079805 0
2.525000 -0.079000 0
2.530000 -0.078198 0
2.535000 -0.077395 0
2.540000 -0.076590 0
2.545000 -0.075778 0
2.550000 -0.074948 0
2.555000 -0.074087 0
2.560000 -0.073170 0
2.565000 -0.072162 0
2.570000 -0.071007 0
2.575000 -0.069624 0
2.580000 -0.067900 0
2.585000 -0.065679 0
2.590000 -0.062756 0
2.595000 -0.058872 0
2.600000 -0.053716 0
2.605000 -0.046927 0
2.610000 -0.038117 0
2.615000 -0.026897 0
2.620000 -0.012923 0
2.625000 0.004059 0
2.630000 0.024147 0
2.635000 0.047225 0
2.640000 0.072919 0
2.645000 0.100563 0
2.650000 0.129198 0
2.655000 0.157612 0
2.660000 0.184409 0
2.665000 0.208120 0
2.670000 0.227329 0
2.675000 0.240814 0
2.680000 0.247678 1
2.685000 0.247439 0
2.690000 0.240095 0
2.695000 0.226116 0
2.700000 0.206402 0
2.705000 0.182180 0
2.710000 0.154882 0
2.715000 0.125999 0
2.720000 0.096938 0
2.725000 0.068869 0
2.730000 0.042531 0
2.735000 0.017921 0
2.740000 -0.006146 0
2.745000 -0.032410 0
2.750000 -0.064815 0
2.755000 -0.106598 0
2.760000 -0.156724 0
2.765000 -0.206318 0
2.770000 -0.237840 2
2.775000 -0.228249 0
2.780000 -0.154413 0
2.785000 0.001145 0
2.790000 0.242469 0
2.795000 0.548107 0
2.800000 0.861112 0
2.805000 1.096734 0
2.810000 1.175775 3
2.815000 1.066200 0
2.820000 0.802200 0
2.825000 0.465228 0
2.830000 0.140530 0
2.835000 -0.113902 0
2.840000 -0.273448 0
2.845000 -0.338778 4
2.850000 -0.327523 0
2.855000 -0.267924 0
2.860000 -0.190575 0
2.865000 -0.118990 0
2.870000 -0.064263 0
2.875000 -0.026507 0
2.880000 -0.000310 0
2.885000 0.020260 0
2.890000 0.039315 0
2.895000 0.058996 0
2.900000 0.080164 0
2.905000 0.103039 0
2.910000 0.127554 0
2.915000 0.153508 0
2.920000 0.180605 0
2.925000 0.208474 0
2.930000 0.236678 0
2.935000 0.264717 0
2.940000 0.292049 0
2.945000 0.318100 0
2.950000 0.342285 0
2.955000 0.364030 0
2.960000 0.382793 0
2.965000 0.398084 0
2.970000 0.409491 0
2.975000 0.416692 0
2.980000 0.419472 5
2.985000 0.417733 0
2.990000 0.411501 0
2.995000 0.400918 0
3.000000 0.386246 0
3.005000 0.367847 0
3.010000 0.346173 0
3.015000 0.321745 0
3.020000 0.295133 0
3.025000 0.266931 0
3.030000 0.237738 0
3.035000 0.208135 0
3.040000 0.178669 0
3.045000 0.149833 0
3.050000 0.122058 0
3.055000 0.095703 0
3.060000 0.071050 0
3.065000 0.048305 0
3.070000 0.027602 0
3.075000 0.009003 0
3.080000 -0.007488 0
3.085000 -0.021921 0
3.090000 -0.034388 0
3.095000 -0.045012 0
3.100000 -0.053939 0
3.105000 -0.061332 0
3.110000 -0.067358 0
3.115000 -0.072182 0
3.120000 -0.075968 0
3.125000 -0.078866 0
3.130000 -0.081016 0
3.135000 -0.082544 0
3.140000 -0.083562 0
3.145000 -0.084165 0
3.150000 -0.084436 0
3.155000 -0.084445 0
3.160000 -0.083739 0
3.165000 -0.082917 0
3.170000 -0.082099 0
3.175000 -0.081284 0
3.180000 -0.080474 0
3.185000 -0.079668 0
3.190000 -0.078866 0
3.195000 -0.078068 0
3.200000 -0.077273 0
3.205000 -0.076483 0
3.210000 -0.075696 0
3.215000 -0.074912 0
3.220000 -0.074131 0
3.225000 -0.073351 0
3.230000 -0.072571 0
3.235000 -0.071785 0
3.240000 -0.070987 0
3.245000 -0.070166 0
3.250000 -0.069302 0
3.255000 -0.068365 0
3.260000 -0.067310 0
3.265000 -0.066067 0
3.270000 -0.064539 0
3.275000 -0.062586 0
3.280000 -0.060025 0
3.285000 -0.056619 0
3.290000 -0.052072 0
3.295000 -0.046039 0
3.300000 -0.038135 0
3.305000 -0.027960 0
3.310000 -0.015141 0
3.315000 0.000625 0
3.320000 0.019504 0
3.325000 0.041471 0
3.330000 0.066249 0
3.335000 0.093271 0
3.340000 0.121670 0
3.345000 0.150297 0
3.350000 0.177790 0
3.355000 0.202667 0
3.360000 0.223457 0
3.365000 0.238840 0
3.370000 0.247790 0
3.375000 0.249680 1
3.380000 0.244359 0
3.385000 0.232169 0
3.390000 0.213909 0
3.395000 0.190746 0
3.400000 0.164091 0
3.405000 0.135457 0
3.410000 0.106309 0
3.415000 0.077908 0
3.420000 0.051130 0
3.425000 0.026179 0
3.430000 0.002154 0
3.435000 -0.023386 0
3.440000 -0.054289 0
3.445000 -0.094222 0
3.450000 -0.143254 0
3.455000 -0.193981 0
3.460000 -0.229984 2
3.465000 -0.228436 0
3.470000 -0.165487 0
3.475000 -0.022134 0
3.480000 0.208286 0
3.485000 0.508186 0
3.490000 0.824351 0
3.495000 1.072782 0
3.500000 1.170304 3
3.505000 1.078138 0
3.510000 0.825032 0
3.515000 0.490733 0
3.520000 0.162556 0
3.525000 -0.098219 0
3.530000 -0.264436 0
3.535000 -0.335325 4
3.540000 -0.327803 0
3.545000 -0.269975 0
3.550000 -0.192866 0
3.555000 -0.120736 0
3.560000 -0.065341 0
3.565000 -0.027121 0
3.570000 -0.000700 0
3.575000 0.019939 0
3.580000 0.038998 0
3.585000 0.058667 0
3.590000 0.079828 0
3.595000 0.102704 0
3.600000 0.127230 0
3.605000 0.153200 0
3.610000 0.180316 0
3.615000 0.208201 0
3.620000 0.236412 0
3.625000 0.264443 0
3.630000 0.291744 0
3.635000 0.317736 0
3.640000 0.341826 0
3.645000 0.363436 0
3.650000 0.382020 0
3.655000 0.397087 0
3.660000 0.408226 0
3.665000 0.415118 0
3.670000 0.417555 5
3.675000 0.415447 0
3.680000 0.408829 0
3.685000 0.397858 0
3.690000 0.382806 0
3.695000 0.364050 0
3.700000 0.342055 0
3.705000 0.317353 0
3.710000 0.290524 0
3.715000 0.262171 0
3.720000 0.232897 0
3.725000 0.203286 0
3.730000 0.173884 0
3.735000 0.145181 0
3.740000 0.117602 0
3.745000 0.091498 0
3.750000 0.067144 0
3.755000 0.044734 0
3.760000 0.024390 0
3.765000 0.006167 0
3.770000 -0.009944 0
3.775000 -0.024000 0
3.780000 -0.036102 0
3.785000 -0.046378 0
3.790000 -0.054983 0
3.795000 -0.062078 0
3.800000 -0.067835 0
3.805000 -0.072421 0
3.810000 -0.075998 0
3.815000 -0.078715 0
3.820000 -0.080712 0
3.825000 -0.082111 0
3.830000 -0.083022 0
3.835000 -0.083538 0
3.840000 -0.083740 0
3.845000 -0.083581 0
3.850000 -0.082759 0
3.855000 -0.081942 0
3.860000 -0.081128 0
3.865000 -0.080319 0
3.870000 -0.079513 0
3.875000 -0.078712 0
3.880000 -0.077915 0
3.885000 -0.077121 0
3.890000 -0.076332 0
3.895000 -0.075546 0
3.900000 -0.074763 0
3.905000 -0.073984 0
3.910000 -0.073207 0
3.915000 -0.072430 0
3.920000 -0.071652 0
3.925000 -0.070866 0
3.930000 -0.070065 0
3.935000 -0.069234 0
3.940000 -0.068351 0
3.945000 -0.067381 0
3.950000 -0.066268 0
3.955000 -0.064934 0
3.960000 -0.063265 0
3.965000 -0.061104 0
3.970000 -0.058246 0
3.975000 -0.054426 0
3.980000 -0.049327 0
3.985000 -0.042580 0
3.990000 -0.033787 0
3.995000 -0.022549 0
4.000000 -0.008512 0
4.005000 0.008578 0
4.010000 0.028816 0
4.015000 0.052069 0
4.020000 0.077934 0
4.025000 0.105701 0
4.030000 0.134363 0
4.035000 0.162649 0
4.040000 0.189113 0
4.045000 0.212245 0
4.050000 0.230612 0
4.055000 0.243008 0
4.060000 0.248575 1
4.065000 0.246909 0
4.070000 0.238105 0
4.075000 0.222744 0
4.080000 0.201835 0
4.085000 0.176698 0
4.090000 0.148832 0
4.095000 0.119758 0
4.100000 0.090869 0
4.105000 0.063261 0
4.110000 0.037501 0
4.115000 0.013256 0
4.120000 -0.011197 0
4.125000 -0.039194 0
4.130000 -0.074842 0
4.135000 -0.120317 0
4.140000 -0.171813 0
4.145000 -0.216580 0
4.150000 -0.233737 2
4.155000 -0.198902 0
4.160000 -0.090108 0
4.165000 0.105638 0
4.170000 0.382110 0
4.175000 0.700596 0
4.180000 0.986148 0
4.185000 1.149210 3
4.190000 1.129006 0
4.195000 0.928928 0
4.200000 0.614312 0
4.205000 0.274864 0
4.210000 -0.015968 0
4.215000 -0.218669 0
4.220000 -0.323799 0
4.225000 -0.342519 4
4.230000 -0.299619 0
4.235000 -0.226236 0
4.240000 -0.150173 0
4.245000 -0.088046 0
4.250000 -0.043948 0
4.255000 -0.013931 0
4.260000 0.008240 0
4.265000 0.027550 0
4.270000 0.046866 0
4.275000 0.067458 0
4.280000 0.089732 0
4.285000 0.113702 0
4.290000 0.139204 0
4.295000 0.165969 0
4.300000 0.193648 0
4.305000 0.221820 0
4.310000 0.249999 0
4.315000 0.277648 0
4.320000 0.304196 0
4.325000 0.329051 0
4.330000 0.351627 0
4.335000 0.371363 0
4.340000 0.387745 0
4.345000 0.400331 0
4.350000 0.408766 0
4.355000 0.412803 5
4.360000 0.412308 0
4.365000 0.407274 0
4.370000 0.397815 0
4.375000 0.384164 0
4.380000 0.366664 0
4.385000 0.345753 0
4.390000 0.321943 0
4.395000 0.295799 0
4.400000 0.267921 0
4.405000 0.238916 0
4.410000 0.209377 0
4.415000 0.179866 0
4.420000 0.150894 0
4.425000 0.122910 0
4.430000 0.096291 0
4.435000 0.071339 0
4.440000 0.048275 0
4.445000 0.027247 0
4.450000 0.008329 0
4.455000 -0.008466 0
4.460000 -0.023181 0
4.465000 -0.035902 0
4.470000 -0.046751 0
4.475000 -0.055874 0
4.480000 -0.063433 0
4.485000 -0.069595 0
4.490000 -0.074530 0
4.495000 -0.078404 0
4.500000 -0.081369 0
4.505000 -0.083570 0
4.510000 -0.085134 0
4.515000 -0.086176 0
4.520000 -0.086794 0
4.525000 -0.087072 0
4.530000 -0.087082 0
4.535000 -0.086366 0
4.540000 -0.085530 0
4.545000 -0.084699 0
4.550000 -0.083871 0
4.555000 -0.083048 0
4.560000 -0.082229 0
4.565000 -0.081414 0
4.570000 -0.080603 0
4.575000 -0.079796 0
4.580000 -0.078993 0
4.585000 -0.078194 0
4.590000 -0.077398 0
4.595000 -0.076604 0
4.600000 -0.075812 0
4.605000 -0.075019 0
4.610000 -0.074221 0
4.615000 -0.073410 0
4.620000 -0.072575 0
4.625000 -0.071696 0
4.630000 -0.070742 0
4.635000 -0.069664 0
4.640000 -0.068393 0
4.645000 -0.066825 0
4.650000 -0.064818 0
4.655000 -0.062181 0
4.660000 -0.058668 0
4.665000 -0.053977 0
4.670000 -0.047752 0
4.675000 -0.039600 0
4.680000 -0.029119 0
4.685000 -0.015935 0
4.690000 0.000244 0
4.695000 0.019564 0
4.700000 0.041969 0
4.705000 0.067137 0
4.710000 0.094451 0
4.715000 0.122986 0
4.720000 0.151541 0
4.725000 0.178707 0
4.730000 0.202978 0
4.735000 0.222881 0
4.740000 0.237127 0
4.745000 0.244744 0
4.750000 0.245189 1
4.755000 0.238411 0
4.760000 0.224857 0
4.765000 0.205423 0
4.770000 0.181357 0
4.775000 0.154124 0
4.780000 0.125257 0
4.785000 0.096202 0
4.790000 0.068161 0
4.795000 0.041882 0
4.800000 0.017330 0
4.805000 -0.006783 0
4.810000 -0.033367 0
4.815000 -0.066508 0
4.820000 -0.109298 0
4.825000 -0.159989 0
4.830000 -0.208395 0
4.835000 -0.235509 2
4.840000 -0.217289 0
4.845000 -0.130484 0
4.850000 0.041173 0
4.855000 0.297994 0
4.860000 0.611144 0
4.865000 0.914487 0
4.870000 1.118535 0
4.875000 1.150201 3
4.880000 0.994306 0
4.885000 0.702321 0
4.890000 0.361148 0
4.895000 0.051064 0
4.900000 -0.178987 0
4.905000 -0.312095 0
4.910000 -0.354214 4
4.915000 -0.326579 0
4.920000 -0.259120 0
4.925000 -0.181445 0
4.930000 -0.113937 0
4.935000 -0.064252 0
4.940000 -0.030343 0
4.945000 -0.006227 0
4.950000 0.013648 0
4.955000 0.032795 0
4.960000 0.052916 0
4.965000 0.074635 0
4.970000 0.098064 0
4.975000 0.123089 0
4.980000 0.149475 0
4.985000 0.176904 0
4.990000 0.204982 0
4.995000 0.233250 0
5.000000 0.261194 0
5.005000 0.288257 0
5.010000 0.313858 0
5.015000 0.337411 0
5.020000 0.358347 0
5.025000 0.376137 0
5.030000 0.390312 0
5.035000 0.400483 0
5.040000 0.406361 0
5.045000 0.407766 5
5.050000 0.404639 0
5.055000 0.397044 0
5.060000 0.385163 0
5.065000 0.369292 0
5.070000 0.349826 0
5.075000 0.327243 0
5.080000 0.302085 0
5.085000 0.274933 0
5.090000 0.246389 0
5.095000 0.217050 0
5.100000 0.187488 0
5.105000 0.158236 0
5.110000 0.129769 0
5.115000 0.102495 0
5.120000 0.076748 0
5.125000 0.052786 0
5.130000 0.030790 0
5.135000 0.010867 0
5.140000 -0.006941 0
5.145000 -0.022649 0
5.150000 -0.036325 0
5.155000 -0.048071 0
5.160000 -0.058023 0
5.165000 -0.066332 0
5.170000 -0.073165 0
5.175000 -0.078688 0
5.180000 -0.083069 0
5.185000 -0.086465 0
5.190000 -0.089026 0
5.195000 -0.090887 0
5.200000 -0.092167 0
5.205000 -0.092974 0
5.210000 -0.093399 0
5.215000 -0.093518 0
5.220000 -0.093289 0
5.225000 -0.092419 0
5.230000 -0.091554 0
5.235000 -0.090692 0
5.240000 -0.089835 0
5.245000 -0.088982 0
5.250000 -0.088134 0
5.255000 -0.087289 0
5.260000 -0.086449 0
5.265000 -0.085613 0
5.270000 -0.084781 0
5.275000 -0.083952 0
5.280000 -0.083127 0
5.285000 -0.082304 0
5.290000 -0.081482 0
5.295000 -0.080658 0
5.300000 -0.079826 0
5.305000 -0.078979 0
5.310000 -0.078101 0
5.315000 -0.077171 0
5.320000 -0.076151 0
5.325000 -0.074987 0
5.330000 -0.073599 0
5.335000 -0.071872 0
5.340000 -0.069649 0
5.345000 -0.066725 0
5.350000 -0.062836 0
5.355000 -0.057664 0
5.360000 -0.050843 0
5.365000 -0.041977 0
5.370000 -0.030671 0
5.375000 -0.016574 0
5.380000 0.000568 0
5.385000 0.020844 0
5.390000 0.044126 0
5.395000 0.070013 0
5.400000 0.097803 0
5.405000 0.126498 0
5.410000 0.154841 0
5.415000 0.181395 0
5.420000 0.204664 0
5.425000 0.223220 0
5.430000 0.235855 0
5.435000 0.241708 1
5.440000 0.240359 0
5.445000 0.231882 0
5.450000 0.216836 0
5.455000 0.196205 0
5.460000 0.171290 0
5.465000 0.143571 0
5.470000 0.114562 0
5.475000 0.085659 0
5.480000 0.057976 0
5.485000 0.032119 0
5.490000 0.007837 0
5.495000 -0.016462 0
5.500000 -0.043980 0
5.505000 -0.078807 0
5.510000 -0.123417 0
5.515000 -0.174715 0
5.520000 -0.220885 0
5.525000 -0.241802 2
5.530000 -0.213334 0
5.535000 -0.113149 0
5.540000 0.072992 0
5.545000 0.341647 0
5.550000 0.658535 0
5.555000 0.952857 0
5.560000 1.135337 0
5.565000 1.139704 3
5.570000 0.960943 0
5.575000 0.657505 0
5.580000 0.316288 0
5.585000 0.013334 0
5.590000 -0.207036 0
5.595000 -0.330969 0
5.600000 -0.366022 4
5.605000 -0.334101 0
5.610000 -0.264974 0
5.615000 -0.187394 0
5.620000 -0.120676 0
5.625000 -0.071726 0
5.630000 -0.038229 0
5.635000 -0.014252 0
5.640000 0.005624 0
5.645000 0.024814 0
5.650000 0.044977 0
5.655000 0.066723 0
5.660000 0.090164 0
5.665000 0.115189 0
5.670000 0.141571 0
5.675000 0.168999 0
5.680000 0.197088 0
5.685000 0.225391 0
5.690000 0.253403 0
5.695000 0.280580 0
5.700000 0.306353 0
5.705000 0.330144 0
5.710000 0.351392 0
5.715000 0.369572 0
5.720000 0.384214 0
5.725000 0.394928 0
5.730000 0.401415 0
5.735000 0.403484 5
5.740000 0.401061 0
5.745000 0.394189 0
5.750000 0.383030 0
5.755000 0.367857 0
5.760000 0.349043 0
5.765000 0.327045 0
5.770000 0.302383 0
5.775000 0.275626 0
5.780000 0.247360 0
5.785000 0.218177 0
5.790000 0.188647 0
5.795000 0.159303 0
5.800000 0.130628 0
5.805000 0.103040 0
5.810000 0.076887 0
5.815000 0.052443 0
5.820000 0.029905 0
5.825000 0.009401 0
5.830000 -0.009011 0
5.835000 -0.025331 0
5.840000 -0.039609 0
5.845000 -0.051937 0
5.850000 -0.062438 0
5.855000 -0.071257 0
5.860000 -0.078554 0
5.865000 -0.084493 0
5.870000 -0.089239 0
5.875000 -0.092952 0
5.880000 -0.095781 0
5.885000 -0.097865 0
5.890000 -0.099327 0
5.895000 -0.100280 0
5.900000 -0.100817 0
5.905000 -0.101021 0
5.910000 -0.100961 0
5.915000 -0.100175 0
5.920000 -0.099271 0
5.925000 -0.098371 0
5.930000 -0.097475 0
5.935000 -0.096584 0
5.940000 -0.095698 0
5.945000 -0.094816 0
5.950000 -0.093938 0
5.955000 -0.093064 0
5.960000 -0.092195 0
5.965000 -0.091330 0
5.970000 -0.090469 0
5.975000 -0.089610 0
5.980000 -0.088754 0
5.985000 -0.087897 0
5.990000 -0.087037 0
5.995000 -0.086167 0
6.000000 -0.085276 0
6.005000 -0.084347 0
6.010000 -0.083354 0
6.015000 -0.082253 0
6.020000 -0.080984 0
6.025000 -0.079454 0
6.030000 -0.077537 0
6.035000 -0.075063 0
6.040000 -0.071809 0
6.045000 -0.067498 0
6.050000 -0.061800 0
6.055000 -0.054344 0
6.060000 -0.044736 0
6.065000 -0.032595 0
6.070000 -0.017600 0
6.075000 0.000457 0
6.080000 0.021612 0
6.085000 0.045666 0
6.090000 0.072149 0
6.095000 0.100294 0
6.100000 0.129050 0
6.105000 0.157130 0
6.110000 0.183098 0
6.115000 0.205482 0
6.120000 0.222917 0
6.125000 0.234274 0
6.130000 0.238787 1
6.135000 0.236134 0
6.140000 0.226478 0
6.145000 0.210446 0
6.150000 0.189067 0
6.155000 0.163656 0
6.160000 0.135684 0
6.165000 0.106634 0
6.170000 0.077850 0
6.175000 0.050380 0
6.180000 0.024746 0
6.185000 0.000584 0
6.190000 -0.023822 0
6.195000 -0.051751 0
6.200000 -0.087217 0
6.205000 -0.132404 0
6.210000 -0.183791 0
6.215000 -0.229255 0
6.220000 -0.248697 2
6.225000 -0.218340 0
6.230000 -0.116362 0
6.235000 0.070992 0
6.240000 0.340043 0
6.245000 0.656921 0
6.250000 0.952088 0
6.255000 1.137687 0
6.260000 1.147576 3
6.265000 0.974959 0
6.270000 0.675535 0
6.275000 0.334119 0
6.280000 0.026693 0
6.285000 -0.201050 0
6.290000 -0.333520 0
6.295000 -0.376589 4
6.300000 -0.350584 0
6.305000 -0.284230 0
6.310000 -0.206332 0
6.315000 -0.137340 0
6.320000 -0.085648 0
6.325000 -0.049993 0
6.330000 -0.024782 0
6.335000 -0.004445 0
6.340000 0.014734 0
6.345000 0.034656 0
6.350000 0.056073 0
6.355000 0.079168 0
6.360000 0.103866 0
6.365000 0.129969 0
6.370000 0.157188 0
6.375000 0.185166 0
6.380000 0.213479 0
6.385000 0.241648 0
6.390000 0.269149 0
6.395000 0.295429 0
6.400000 0.319924 0
6.405000 0.342076 0
6.410000 0.361357 0
6.415000 0.377287 0
6.420000 0.389455 0
6.425000 0.397534 0
6.430000 0.401297 5
6.435000 0.400629 0
6.440000 0.395526 0
6.445000 0.386102 0
6.450000 0.372582 0
6.455000 0.355290 0
6.460000 0.334643 0
6.465000 0.311125 0
6.470000 0.285274 0
6.475000 0.257659 0
6.480000 0.228861 0
6.485000 0.199450 0
6.490000 0.169968 0
6.495000 0.140915 0
6.500000 0.112734 0
6.505000 0.085803 0
6.510000 0.060427 0
6.515000 0.036842 0
6.520000 0.015208 0
6.525000 -0.004379 0
6.530000 -0.021888 0
6.535000 -0.037340 0
6.540000 -0.050803 0
6.545000 -0.062380 0
6.550000 -0.072200 0
6.555000 -0.080414 0
6.560000 -0.087178 0
6.565000 -0.092656 0
6.570000 -0.097007 0
6.575000 -0.100386 0
6.580000 -0.102935 0
6.585000 -0.104786 0
6.590000 -0.106056 0
6.595000 -0.106850 0
6.600000 -0.107257 0
6.605000 -0.107354 0
6.610000 -0.107091 0
6.615000 -0.106152 0
6.620000 -0.105218 0
6.625000 -0.104288 0
6.630000 -0.103363 0
6.635000 -0.102443 0
6.640000 -0.101527 0
6.645000 -0.100616 0
6.650000 -0.099709 0
6.655000 -0.098807 0
6.660000 -0.097909 0
6.665000 -0.097015 0
6.670000 -0.096125 0
6.675000 -0.095238 0
6.680000 -0.094354 0
6.685000 -0.093468 0
6.690000 -0.092579 0
6.695000 -0.091680 0
6.700000 -0.090760 0
6.705000 -0.089801 0
6.710000 -0.088776 0
6.715000 -0.087644 0
6.720000 -0.086342 0
6.725000 -0.084781 0
6.730000 -0.082836 0
6.735000 -0.080339 0
6.740000 -0.077074 0
6.745000 -0.072769 0
6.750000 -0.067104 0
6.755000 -0.059714 0
6.760000 -0.050216 0
6.765000 -0.038234 0
6.770000 -0.023448 0
6.775000 -0.005643 0
6.780000 0.015231 0
6.785000 0.039008 0
6.790000 0.065255 0
6.795000 0.093256 0
6.800000 0.122015 0
6.805000 0.150301 0
6.810000 0.176720 0
6.815000 0.199829 0
6.820000 0.218262 0
6.825000 0.230862 0
6.830000 0.236803 1
6.835000 0.235679 0
6.840000 0.227547 0
6.845000 0.212926 0
6.850000 0.192741 0
6.855000 0.168224 0
6.860000 0.140792 0
6.865000 0.111907 0
6.870000 0.082938 0
6.875000 0.055014 0
6.880000 0.028828 0
6.885000 0.004335 0
6.890000 -0.019683 0
6.895000 -0.045960 0
6.900000 -0.078381 0
6.905000 -0.120108 0
6.910000 -0.170127 0
6.915000 -0.219800 0
6.920000 -0.252037 2
6.925000 -0.244287 0
6.930000 -0.173746 0
6.935000 -0.022858 0
6.940000 0.213362 0
6.945000 0.515864 0
6.950000 0.831336 0
6.955000 1.077843 0
6.960000 1.175234 3
6.965000 1.086834 0
6.970000 0.840141 0
6.975000 0.508875 0
6.980000 0.176210 0
6.985000 -0.096651 0
6.990000 -0.279934 0
6.995000 -0.369334 0
7.000000 -0.377887 4
7.005000 -0.330152 0
7.010000 -0.255522 0
7.015000 -0.179573 0
7.020000 -0.117412 0
7.025000 -0.072769 0
7.030000 -0.042008 0
7.035000 -0.019261 0
7.040000 0.000318 0
7.045000 0.019639 0
7.050000 0.040066 0
7.055000 0.062083 0
7.060000 0.085755 0
7.065000 0.110960 0
7.070000 0.137469 0
7.075000 0.164977 0
7.080000 0.193111 0
7.085000 0.221436 0
7.090000 0.249468 0
7.095000 0.276683 0
7.100000 0.302531 0
7.105000 0.326460 0
7.110000 0.347928 0
7.115000 0.366425 0
7.120000 0.381495 0
7.125000 0.392753 0
7.130000 0.399900 0
7.135000 0.402736 5
7.140000 0.401170 0
7.145000 0.395223 0
7.150000 0.385027 0
7.155000 0.370822 0
7.160000 0.352945 0
7.165000 0.331815 0
7.170000 0.307918 0
7.175000 0.281790 0
7.180000 0.253991 0
7.185000 0.225092 0
7.190000 0.195649 0
7.195000 0.166193 0
7.200000 0.137208 0
7.205000 0.109123 0
7.210000 0.082304 0
7.215000 0.057048 0
7.220000 0.033578 0
7.225000 0.012050 0
7.230000 -0.007447 0
7.235000 -0.024884 0
7.240000 -0.040282 0
7.245000 -0.053710 0
7.250000 -0.065269 0
7.255000 -0.075087 0
7.260000 -0.083310 0
7.265000 -0.090094 0
7.270000 -0.095597 0
7.275000 -0.099978 0
7.280000 -0.103388 0
7.285000 -0.105968 0
7.290000 -0.107848 0
7.295000 -0.109145 0
7.300000 -0.109961 0
7.305000 -0.110387 0
7.310000 -0.110498 0
7.315000 -0.110240 0
7.320000 -0.109285 0
7.325000 -0.108335 0
7.330000 -0.107390 0
7.335000 -0.106450 0
7.340000 -0.105514 0
7.345000 -0.104583 0
7.350000 -0.103657 0
7.355000 -0.102735 0
7.360000 -0.101818 0
7.365000 -0.100905 0
7.370000 -0.099996 0
7.375000 -0.099091 0
7.380000 -0.098190 0
7.385000 -0.097291 0
7.390000 -0.096393 0
7.395000 -0.095492 0
7.400000 -0.094583 0
7.405000 -0.093657 0
7.410000 -0.092698 0
7.415000 -0.091683 0
7.420000 -0.090577 0
7.425000 -0.089323 0
7.430000 -0.087845 0
7.435000 -0.086031 0
7.440000 -0.083733 0
7.445000 -0.080752 0
7.450000 -0.076844 0
7.455000 -0.071708 0
7.460000 -0.065003 0
7.465000 -0.056354 0
7.470000 -0.045386 0
7.475000 -0.031756 0
7.480000 -0.015207 0
7.485000 0.004387 0
7.490000 0.026956 0
7.495000 0.052193 0
7.500000 0.079518 0
7.505000 0.108075 0
7.510000 0.136751 0
7.515000 0.164241 0
7.520000 0.189137 0
7.525000 0.210042 0
7.530000 0.225704 0
7.535000 0.235135 0
7.540000 0.237715 1
7.545000 0.233262 0
7.550000 0.222049 0
7.555000 0.204778 0
7.560000 0.182508 0
7.565000 0.156547 0
7.570000 0.128322 0
7.575000 0.099248 0
7.580000 0.070591 0
7.585000 0.043312 0
7.590000 0.017850 0
7.595000 -0.006232 0
7.600000 -0.030675 0
7.605000 -0.058690 0
7.610000 -0.094146 0
7.615000 -0.139149 0
7.620000 -0.190445 0
7.625000 -0.236680 0
7.630000 -0.258835 2
7.635000 -0.234095 0
7.640000 -0.141044 0
7.645000 0.034816 0
7.650000 0.292890 0
7.655000 0.605709 0
7.660000 0.911722 0
7.665000 1.127076 0
7.670000 1.180056 3
7.675000 1.049159 0
7.680000 0.775015 0
7.685000 0.436457 0
7.690000 0.112954 0
7.695000 -0.141796 0
7.700000 -0.304602 0
7.705000 -0.375486 4
7.710000 -0.370211 0
7.715000 -0.314723 0
7.720000 -0.238086 0
7.725000 -0.163984 0
7.730000 -0.105108 0
7.735000 -0.063396 0
7.740000 -0.034493 0
7.745000 -0.012601 0
7.750000 0.006765 0
7.755000 0.026187 0
7.760000 0.046830 0
7.765000 0.069084 0
7.770000 0.092977 0
7.775000 0.118366 0
7.780000 0.145014 0
7.785000 0.172609 0
7.790000 0.200773 0
7.795000 0.229069 0
7.800000 0.257011 0
7.805000 0.284075 0
7.810000 0.309718 0
7.815000 0.333390 0
7.820000 0.354559 0
7.825000 0.372723 0
7.830000 0.387438 0
7.835000 0.398329 0
7.840000 0.405107 0
7.845000 0.407583 5
7.850000 0.405676 0
7.855000 0.399414 0
7.860000 0.388936 0
7.865000 0.374487 0
7.870000 0.356404 0
7.875000 0.335107 0
7.880000 0.311081 0
7.885000 0.284857 0
7.890000 0.256992 0
7.895000 0.228049 0
7.900000 0.198582 0
7.905000 0.169113 0
7.910000 0.140121 0
7.915000 0.112031 0
7.920000 0.085205 0
7.925000 0.059934 0
7.930000 0.036442 0
7.935000 0.014883 0
7.940000 -0.004655 0
7.945000 -0.022142 0
7.950000 -0.037599 0
7.955000 -0.051093 0
7.960000 -0.062722 0
7.965000 -0.072614 0
7.970000 -0.080911 0
7.975000 -0.087769 0
7.980000 -0.093345 0
7.985000 -0.097796 0
7.990000 -0.101271 0
7.995000 -0.103911 0
8.000000 -0.105846 0
8.005000 -0.107192 0
8.010000 -0.108053 0
8.015000 -0.108518 0
8.020000 -0.108663 0
8.025000 -0.108555 0
8.030000 -0.107730 0
8.035000 -0.106788 0
8.040000 -0.105851 0
8.045000 -0.104918 0
8.050000 -0.103990 0
8.055000 -0.103066 0
8.060000 -0.102147 0
8.065000 -0.101233 0
8.070000 -0.100323 0
8.075000 -0.099418 0
8.080000 -0.098517 0
8.085000 -0.097620 0
8.090000 -0.096726 0
8.095000 -0.095835 0
8.100000 -0.094945 0
8.105000 -0.094052 0
8.110000 -0.093153 0
8.115000 -0.092239 0
8.120000 -0.091296 0
8.125000 -0.090302 0
8.130000 -0.089225 0
8.135000 -0.088014 0
8.140000 -0.086597 0
8.145000 -0.084873 0
8.150000 -0.082700 0
8.155000 -0.079896 0
8.160000 -0.076227 0
8.165000 -0.071408 0
8.170000 -0.065109 0
8.175000 -0.056964 0
8.180000 -0.046600 0
8.185000 -0.033665 0
8.190000 -0.017878 0
8.195000 0.000923 0
8.200000 0.022724 0
8.205000 0.047286 0
8.210000 0.074109 0
8.215000 0.102416 0
8.220000 0.131172 0
8.225000 0.159130 0
8.230000 0.184911 0
8.235000 0.207118 0
8.240000 0.224454 0
8.245000 0.235850 0
8.250000 0.240573 1
8.255000 0.238304 0
8.260000 0.229172 0
8.265000 0.213744 0
8.270000 0.192966 0
8.275000 0.168064 0
8.280000 0.140429 0
8.285000 0.111481 0
8.290000 0.082540 0
8.295000 0.054683 0
8.300000 0.028560 0
8.305000 0.004094 0
8.310000 -0.019925 0
8.315000 -0.046170 0
8.320000 -0.078422 0
8.325000 -0.119811 0
8.330000 -0.169562 0
8.335000 -0.219675 0
8.340000 -0.253971 2
8.345000 -0.250734 0
8.350000 -0.187573 0
8.355000 -0.046604 0
8.360000 0.178975 0
8.365000 0.474414 0
8.370000 0.792831 0
8.375000 1.057443 0
8.380000 1.186952 3
8.385000 1.134736 0
8.390000 0.914755 0
8.395000 0.593583 0
8.400000 0.255090 0
8.405000 -0.033885 0
8.410000 -0.237413 0
8.415000 -0.346580 0
8.420000 -0.371156 4
8.425000 -0.333514 0
8.430000 -0.262503 0
8.435000 -0.185131 0
8.440000 -0.119105 0
8.445000 -0.070528 0
8.450000 -0.037026 0
8.455000 -0.012909 0
8.460000 0.007048 0
8.465000 0.026199 0
8.470000 0.046219 0
8.475000 0.067755 0
8.480000 0.090948 0
8.485000 0.115712 0
8.490000 0.141844 0
8.495000 0.169059 0
8.500000 0.197005 0
8.505000 0.225266 0
8.510000 0.253373 0
8.515000 0.280814 0
8.520000 0.307050 0
8.525000 0.331531 0
8.530000 0.353711 0
8.535000 0.373075 0
8.540000 0.389152 0
8.545000 0.401536 0
8.550000 0.409903 0
8.555000 0.414023 5
8.560000 0.413771 0
8.565000 0.409134 0
8.570000 0.400209 0
8.575000 0.387201 0
8.580000 0.370416 0
8.585000 0.350244 0
8.590000 0.327150 0
8.595000 0.301651 0
8.600000 0.274298 0
8.605000 0.245656 0
8.610000 0.216286 0
8.615000 0.186725 0
8.620000 0.157471 0
8.625000 0.128973 0
8.630000 0.101615 0
8.635000 0.075717 0
8.640000 0.051528 0
8.645000 0.029226 0
8.650000 0.008924 0
8.655000 -0.009328 0
8.660000 -0.025534 0
8.665000 -0.039745 0
8.670000 -0.052051 0
8.675000 -0.062570 0
8.680000 -0.071440 0
8.685000 -0.078814 0
8.690000 -0.084849 0
8.695000 -0.089703 0
8.700000 -0.093530 0
8.705000 -0.096473 0
8.710000 -0.098667 0
8.715000 -0.100233 0
8.720000 -0.101280 0
8.725000 -0.101901 0
8.730000 -0.102177 0
8.735000 -0.102179 0
8.740000 -0.101397 0
8.745000 -0.100487 0
8.750000 -0.099581 0
8.755000 -0.098679 0
8.760000 -0.097782 0
8.765000 -0.096890 0
8.770000 -0.096002 0
8.775000 -0.095118 0
8.780000 -0.094239 0
8.785000 -0.093364 0
8.790000 -0.092493 0
8.795000 -0.091626 0
8.800000 -0.090763 0
8.805000 -0.089902 0
8.810000 -0.089043 0
8.815000 -0.088183 0
8.820000 -0.087317 0
8.825000 -0.086439 0
8.830000 -0.085536 0
8.835000 -0.084591 0
8.840000 -0.083573 0
8.845000 -0.082439 0
8.850000 -0.081122 0
8.855000 -0.079531 0
8.860000 -0.077537 0
8.865000 -0.074969 0
8.870000 -0.071609 0
8.875000 -0.067185 0
8.880000 -0.061378 0
8.885000 -0.053830 0
8.890000 -0.044166 0
8.895000 -0.032022 0
8.900000 -0.017092 0
8.905000 0.000827 0
8.910000 0.021775 0
8.915000 0.045581 0
8.920000 0.071817 0
8.925000 0.099782 0
8.930000 0.128505 0
8.935000 0.156787 0
8.940000 0.183272 0
8.945000 0.206550 0
8.950000 0.225281 0
8.955000 0.238321 0
8.960000 0.244835 1
8.965000 0.244388 0
8.970000 0.236990 0
8.975000 0.223100 0
8.980000 0.203574 0
8.985000 0.179580 0
8.990000 0.152484 0
8.995000 0.123714 0
9.000000 0.094633 0
9.005000 0.066398 0
9.010000 0.039789 0
9.015000 0.014949 0
9.020000 -0.009015 0
9.025000 -0.034415 0
9.030000 -0.064870 0
9.035000 -0.103931 0
9.040000 -0.152110 0
9.045000 -0.203343 0
9.050000 -0.243254 0
9.055000 -0.250983 2
9.060000 -0.203766 0
9.065000 -0.082115 0
9.070000 0.124162 0
9.075000 0.406374 0
9.080000 0.725434 0
9.085000 1.009815 0
9.090000 1.175697 3
9.095000 1.164364 0
9.100000 0.975661 0
9.105000 0.668294 0
9.110000 0.327059 0
9.115000 0.025046 0
9.120000 -0.195279 0
9.125000 -0.320545 0
9.130000 -0.357889 4
9.135000 -0.328281 0
9.140000 -0.260483 0
9.145000 -0.182743 0
9.150000 -0.114669 0
9.155000 -0.063953 0
9.160000 -0.028996 0
9.165000 -0.004177 0
9.170000 0.015967 0
9.175000 0.035049 0
9.180000 0.054905 0
9.185000 0.076258 0
9.190000 0.099282 0
9.195000 0.123901 0
9.200000 0.149915 0
9.205000 0.177038 0
9.210000 0.204916 0
9.215000 0.233130 0
9.220000 0.261203 0
9.225000 0.288619 0
9.230000 0.314829 0
9.235000 0.339275 0
9.240000 0.361403 0
9.245000 0.380689 0
9.250000 0.396656 0
9.255000 0.408893 0
9.260000 0.417073 0
9.265000 0.420967 5
9.270000 0.420453 0
9.275000 0.415522 0
9.280000 0.406280 0
9.285000 0.392942 0
9.290000 0.375825 0
9.295000 0.355333 0
9.300000 0.331943 0
9.305000 0.306184 0
9.310000 0.278618 0
9.315000 0.249819 0
9.320000 0.220356 0
9.325000 0.190768 0
9.330000 0.161557 0
9.335000 0.133167 0
9.340000 0.105981 0
9.345000 0.080311 0
9.350000 0.056398 0
9.355000 0.034411 0
9.360000 0.014454 0
9.365000 -0.003435 0
9.370000 -0.019270 0
9.375000 -0.033112 0
9.380000 -0.045057 0
9.385000 -0.055231 0
9.390000 -0.063779 0
9.395000 -0.070857 0
9.400000 -0.076626 0
9.405000 -0.081246 0
9.410000 -0.084869 0
9.415000 -0.087640 0
9.420000 -0.089691 0
9.425000 -0.091142 0
9.430000 -0.092099 0
9.435000 -0.092653 0
9.440000 -0.092883 0
9.445000 -0.092855 0
9.450000 -0.092109 0
9.455000 -0.091244 0
9.460000 -0.090384 0
9.465000 -0.089529 0
9.470000 -0.088678 0
9.475000 -0.087830 0
9.480000 -0.086988 0
9.485000 -0.086149 0
9.490000 -0.085314 0
9.495000 -0.084484 0
9.500000 -0.083657 0
9.505000 -0.082834 0
9.510000 -0.082014 0
9.515000 -0.081196 0
9.520000 -0.080378 0
9.525000 -0.079557 0
9.530000 -0.078728 0
9.535000 -0.077881 0
9.540000 -0.077002 0
9.545000 -0.076067 0
9.550000 -0.075039 0
9.555000 -0.073865 0
9.560000 -0.072464 0
9.565000 -0.070725 0
9.570000 -0.068498 0
9.575000 -0.065584 0
9.580000 -0.061732 0
9.585000 -0.056642 0
9.590000 -0.049965 0
9.595000 -0.041325 0
9.600000 -0.030343 0
9.605000 -0.016676 0
9.610000 -0.000067 0
9.615000 0.019601 0
9.620000 0.042250 0
9.625000 0.067555 0
9.630000 0.094915 0
9.635000 0.123448 0
9.640000 0.152018 0
9.645000 0.179297 0
9.650000 0.203861 0
9.655000 0.224309 0
9.660000 0.239393 0
9.665000 0.248146 0
9.670000 0.249982 1
9.675000 0.244761 0
9.680000 0.232804 0
9.685000 0.214862 0
9.690000 0.192037 0
9.695000 0.165668 0
9.700000 0.137201 0
9.705000 0.108052 0
9.710000 0.079468 0
9.715000 0.052365 0
9.720000 0.027086 0
9.725000 0.003031 0
9.730000 -0.021778 0
9.735000 -0.050765 0
9.740000 -0.087762 0
9.745000 -0.134277 0
9.750000 -0.185814 0
9.755000 -0.229475 0
9.760000 -0.245068 2
9.765000 -0.209442 0
9.770000 -0.101818 0
9.775000 0.090348 0
9.780000 0.362232 0
9.785000 0.679577 0
9.790000 0.974048 0
9.795000 1.160225 0
9.800000 1.173611 3
9.805000 1.004616 0
9.810000 0.706454 0
9.815000 0.364946 0
9.820000 0.057339 0
9.825000 -0.169973 0
9.830000 -0.301318 0
9.835000 -0.342877 4
9.840000 -0.315508 0
9.845000 -0.248464 0
9.850000 -0.170785 0
9.855000 -0.102719 0
9.860000 -0.052201 0
9.865000 -0.017554 0
9.870000 0.006991 0
9.875000 0.026981 0
9.880000 0.046023 0
9.885000 0.065918 0
9.890000 0.087357 0
9.895000 0.110487 0
9.900000 0.135217 0
9.905000 0.161333 0
9.910000 0.188533 0
9.915000 0.216446 0
9.920000 0.244633 0
9.925000 0.272601 0
9.930000 0.299813 0
9.935000 0.325704 0
9.940000 0.349702 0
9.945000 0.371245 0
9.950000 0.389805 0
9.955000 0.404905 0
9.960000 0.416144 0
9.965000 0.423209 0
9.970000 0.425895 5
9.975000 0.424106 0
9.980000 0.417867 0
9.985000 0.407320 0
9.990000 0.392717 0
9.995000 0.374412 0
10.000000 0.352847 0
10.005000 0.328529 0
10.010000 0.302014 0
10.015000 0.273885 0
10.020000 0.244730 0
10.025000 0.215120 0
10.030000 0.185596 0
10.035000 0.156647 0
10.040000 0.128703 0
10.045000 0.102125 0
10.050000 0.077199 0
10.055000 0.054139 0
10.060000 0.033085 0
10.065000 0.014110 0
10.070000 -0.002773 0
10.075000 -0.017605 0
10.080000 -0.030468 0
10.085000 -0.041479 0
10.090000 -0.050776 0
10.095000 -0.058516 0
10.100000 -0.064863 0
10.105000 -0.069979 0
10.110000 -0.074026 0
10.115000 -0.077156 0
10.120000 -0.079508 0
10.125000 -0.081209 0
10.130000 -0.082374 0
10.135000 -0.083102 0
10.140000 -0.083476 0
10.145000 -0.083568 0
10.150000 -0.082879 0
10.155000 -0.082061 0
10.160000 -0.081247 0
10.165000 -0.080437 0
10.170000 -0.079631 0
10.175000 -0.078829 0
10.180000 -0.078031 0
10.185000 -0.077237 0
10.190000 -0.076447 0
10.195000 -0.075660 0
10.200000 -0.074878 0
10.205000 -0.074099 0
10.210000 -0.073322 0
10.215000 -0.072548 0
10.220000 -0.071774 0
10.225000 -0.070997 0
10.230000 -0.070212 0
10.235000 -0.069411 0
10.240000 -0.068578 0
10.245000 -0.067690 0
10.250000 -0.066712 0
10.255000 -0.065587 0
10.260000 -0.064238 0
10.265000 -0.062551 0
10.270000 -0.060373 0
10.275000 -0.057500 0
10.280000 -0.053678 0
10.285000 -0.048596 0
10.290000 -0.041897 0
10.295000 -0.033196 0
10.300000 -0.022106 0
10.305000 -0.008278 0
10.310000 0.008543 0
10.315000 0.028463 0
10.320000 0.051378 0
10.325000 0.076929 0
10.330000 0.104465 0
10.335000 0.133049 0
10.340000 0.161484 0
10.345000 0.188389 0
10.350000 0.212299 0
10.355000 0.231800 0
10.360000 0.245658 0
10.365000 0.252954 0
10.370000 0.253181 1
10.375000 0.246301 0
10.380000 0.232753 0
10.385000 0.213402 0
10.390000 0.189451 0
10.395000 0.162316 0
10.400000 0.133481 0
10.405000 0.104360 0
10.410000 0.076145 0
10.415000 0.049617 0
10.420000 0.024857 0
10.425000 0.000807 0
10.430000 -0.025117 0
10.435000 -0.056783 0
10.440000 -0.097616 0
10.445000 -0.147181 0
10.450000 -0.197524 0
10.455000 -0.231973 2
10.460000 -0.227914 0
10.465000 -0.162052 0
10.470000 -0.016066 0
10.475000 0.216074 0
10.480000 0.516521 0
10.485000 0.832696 0
10.490000 1.082146 0
10.495000 1.183016 3
10.500000 1.094919 0
10.505000 0.844922 0
10.510000 0.511568 0
10.515000 0.182033 0
10.520000 -0.081710 0
10.525000 -0.251608 0
10.530000 -0.326109 4
10.535000 -0.321461 0
10.540000 -0.265278 0
10.545000 -0.188493 0
10.550000 -0.115742 0
10.555000 -0.059380 0
10.560000 -0.020332 0
10.565000 0.006577 0
10.570000 0.027391 0
10.575000 0.046423 0
10.580000 0.065967 0
10.585000 0.086963 0
10.590000 0.109666 0
10.595000 0.134025 0
10.600000 0.159843 0
10.605000 0.186831 0
10.610000 0.214622 0
10.615000 0.242778 0
10.620000 0.270804 0
10.625000 0.298156 0
10.630000 0.324258 0
10.635000 0.348525 0
10.640000 0.370376 0
10.645000 0.389266 0
10.650000 0.404701 0
10.655000 0.416260 0
10.660000 0.423617 0
10.665000 0.426550 5
10.670000 0.424956 0
10.675000 0.418854 0
10.680000 0.408386 0
10.685000 0.393809 0
10.690000 0.375483 0
10.695000 0.353860 0
10.700000 0.329463 0
10.705000 0.302860 0
10.710000 0.274651 0
10.715000 0.245436 0
10.720000 0.215800 0
10.725000 0.186292 0
10.730000 0.157409 0
10.735000 0.129585 0
10.740000 0.103180 0
10.745000 0.078480 0
10.750000 0.055691 0
10.755000 0.034948 0
10.760000 0.016314 0
10.765000 -0.000207 0
10.770000 -0.014666 0
10.775000 -0.027155 0
10.780000 -0.037798 0
10.785000 -0.046743 0
10.790000 -0.054151 0
10.795000 -0.060192 0
10.800000 -0.065031 0
10.805000 -0.068833 0
10.810000 -0.071748 0
10.815000 -0.073916 0
10.820000 -0.075465 0
10.825000 -0.076504 0
10.830000 -0.077131 0
10.835000 -0.077427 0
10.840000 -0.077342 0
10.845000 -0.076552 0
10.850000 -0.075765 0
10.855000 -0.074982 0
10.860000 -0.074204 0
10.865000 -0.073429 0
10.870000 -0.072658 0
10.875000 -0.071891 0
10.880000 -0.071127 0
10.885000 -0.070367 0
10.890000 -0.069611 0
10.895000 -0.068859 0
10.900000 -0.068109 0
10.905000 -0.067362 0
10.910000 -0.066616 0
10.915000 -0.065868 0
10.920000 -0.065115 0
10.925000 -0.064349 0
10.930000 -0.063558 0
10.935000 -0.062722 0
10.940000 -0.061810 0
10.945000 -0.060774 0
10.950000 -0.059543 0
10.955000 -0.058015 0
10.960000 -0.056047 0
10.965000 -0.053450 0
10.970000 -0.049979 0
10.975000 -0.045334 0
10.980000 -0.039163 0
10.985000 -0.031075 0
10.990000 -0.020671 0
10.995000 -0.007580 0
11.000000 0.008490 0
11.005000 0.027690 0
11.010000 0.049966 0
11.015000 0.075010 0
11.020000 0.102217 0
11.025000 0.130681 0
11.030000 0.159218 0
11.035000 0.186439 0
11.040000 0.210850 0
11.045000 0.230983 0
11.050000 0.245545 0
11.055000 0.253550 0
11.060000 0.254430 1
11.065000 0.248102 0
11.070000 0.234976 0
11.075000 0.215912 0
11.080000 0.192125 0
11.085000 0.165057 0
11.090000 0.136231 0
11.095000 0.107096 0
11.100000 0.078875 0
11.105000 0.052366 0
11.110000 0.027631 0
11.115000 0.003543 0
11.120000 -0.022612 0
11.125000 -0.054830 0
11.130000 -0.096471 0
11.135000 -0.146589 0
11.140000 -0.196209 0
11.145000 -0.227433 2
11.150000 -0.216731 0
11.155000 -0.140574 0
11.160000 0.018563 0
11.165000 0.263966 0
11.170000 0.572017 0
11.175000 0.882387 0
11.180000 1.107696 0
11.185000 1.169730 3
11.190000 1.041293 0
11.195000 0.764304 0
11.200000 0.424603 0
11.205000 0.106948 0
11.210000 -0.134227 0
11.215000 -0.278211 0
11.220000 -0.328913 4
11.225000 -0.306658 0
11.230000 -0.241438 0
11.235000 -0.163802 0
11.240000 -0.095403 0
11.245000 -0.044842 0
11.250000 -0.010439 0
11.255000 0.013823 0
11.260000 0.033655 0
11.265000 0.052696 0
11.270000 0.072706 0
11.275000 0.094329 0
11.280000 0.117679 0
11.285000 0.142637 0
11.290000 0.168965 0
11.295000 0.196334 0
11.300000 0.224341 0
11.305000 0.252517 0
11.310000 0.280332 0
11.315000 0.307220 0
11.320000 0.332585 0
11.325000 0.355833 0
11.330000 0.376387 0
11.335000 0.393711 0
11.340000 0.407337 0
11.345000 0.416881 0
11.350000 0.422060 0
11.355000 0.422710 5
11.360000 0.418788 0
11.365000 0.410378 0
11.370000 0.397686 0
11.375000 0.381033 0
11.380000 0.360838 0
11.385000 0.337602 0
11.390000 0.311888 0
11.395000 0.284293 0
11.400000 0.255431 0
11.405000 0.225906 0
11.410000 0.196293 0
11.415000 0.167121 0
11.420000 0.138857 0
11.425000 0.111897 0
11.430000 0.086560 0
11.435000 0.063085 0
11.440000 0.041633 0
11.445000 0.022294 0
11.450000 0.005090 0
11.455000 -0.010013 0
11.460000 -0.023096 0
11.465000 -0.034277 0
11.470000 -0.043700 0
11.475000 -0.051526 0
11.480000 -0.057926 0
11.485000 -0.063069 0
11.490000 -0.067124 0
11.495000 -0.070247 0
11.500000 -0.072585 0
11.505000 -0.074269 0
11.510000 -0.075416 0
11.515000 -0.076126 0
11.520000 -0.076488 0
11.525000 -0.076573 0
11.530000 -0.075912 0
11.535000 -0.075128 0
11.540000 -0.074349 0
11.545000 -0.073573 0
11.550000 -0.072802 0
11.555000 -0.072034 0
11.560000 -0.071270 0
11.565000 -0.070509 0
11.570000 -0.069753 0
11.575000 -0.069000 0
11.580000 -0.068250 0
11.585000 -0.067504 0
11.590000 -0.066760 0
11.595000 -0.066017 0
11.600000 -0.065272 0
11.605000 -0.064523 0
11.610000 -0.063761 0
11.615000 -0.062974 0
11.620000 -0.062142 0
11.625000 -0.061235 0
11.630000 -0.060204 0
11.635000 -0.058976 0
11.640000 -0.057447 0
11.645000 -0.055472 0
11.650000 -0.052858 0
11.655000 -0.049354 0
11.660000 -0.044653 0
11.665000 -0.038393 0
11.670000 -0.030176 0
11.675000 -0.019597 0
11.680000 -0.006282 0
11.685000 0.010058 0
11.690000 0.029560 0
11.695000 0.052147 0
11.700000 0.077474 0
11.705000 0.104893 0
11.710000 0.133443 0
11.715000 0.161889 0
11.720000 0.188794 0
11.725000 0.212634 0
11.730000 0.231933 0
11.735000 0.245419 0
11.740000 0.252155 1
11.745000 0.251651 0
11.750000 0.243918 0
11.755000 0.229471 0
11.760000 0.209271 0
11.765000 0.184615 0
11.770000 0.157004 0
11.775000 0.127980 0
11.780000 0.098979 0
11.785000 0.071157 0
11.790000 0.045164 0
11.795000 0.020787 0
11.800000 -0.003548 0
11.805000 -0.031068 0
11.810000 -0.065935 0
11.815000 -0.110669 0
11.820000 -0.162060 0
11.825000 -0.207925 0
11.830000 -0.227607 2
11.835000 -0.196496 0
11.840000 -0.092071 0
11.845000 0.099493 0
11.850000 0.373098 0
11.855000 0.691143 0
11.860000 0.978948 0
11.865000 1.145846 3
11.870000 1.129236 0
11.875000 0.931060 0
11.880000 0.616813 0
11.885000 0.277443 0
11.890000 -0.012631 0
11.895000 -0.213651 0
11.900000 -0.316462 0
11.905000 -0.332798 4
11.910000 -0.288141 0
11.915000 -0.214131 0
11.920000 -0.138571 0
11.925000 -0.077594 0
11.930000 -0.034688 0
11.935000 -0.005521 0
11.940000 0.016218 0
11.945000 0.035410 0
11.950000 0.054786 0
11.955000 0.075519 0
11.960000 0.097962 0
11.965000 0.122101 0
11.970000 0.147756 0
11.975000 0.174643 0
11.980000 0.202396 0
11.985000 0.230578 0
11.990000 0.258689 0
11.995000 0.286175 0
12.000000 0.312453 0
12.005000 0.336922 0
12.010000 0.358989 0
12.015000 0.378092 0
12.020000 0.393722 0
12.025000 0.405448 0
12.030000 0.412930 0
12.035000 0.415941 5
12.040000 0.414375 0
12.045000 0.408252 0
12.050000 0.397717 0
12.055000 0.383036 0
12.060000 0.364583 0
12.065000 0.342823 0
12.070000 0.318292 0
12.075000 0.291578 0
12.080000 0.263291 0
12.085000 0.234046 0
12.090000 0.204437 0
12.095000 0.175021 0
12.100000 0.146298 0
12.105000 0.118701 0
12.110000 0.092588 0
12.115000 0.068238 0
12.120000 0.045848 0
12.125000 0.025543 0
12.130000 0.007375 0
12.135000 -0.008665 0
12.140000 -0.022638 0
12.145000 -0.034647 0
12.150000 -0.044825 0
12.155000 -0.053327 0
12.160000 -0.060322 0
12.165000 -0.065982 0
12.170000 -0.070477 0
12.175000 -0.073969 0
12.180000 -0.076611 0
12.185000 -0.078541 0
12.190000 -0.079884 0
12.195000 -0.080748 0
12.200000 -0.081226 0
12.205000 -0.081397 0
12.210000 -0.081221 0
12.215000 -0.080411 0
12.220000 -0.079605 0
12.225000 -0.078803 0
12.230000 -0.078006 0
12.235000 -0.077212 0
12.240000 -0.076422 0
12.245000 -0.075636 0
12.250000 -0.074854 0
12.255000 -0.074075 0
12.260000 -0.073301 0
12.265000 -0.072529 0
12.270000 -0.071761 0
12.275000 -0.070994 0
12.280000 -0.070227 0
12.285000 -0.069457 0
12.290000 -0.068678 0
12.295000 -0.067879 0
12.300000 -0.067045 0
12.305000 -0.066149 0
12.310000 -0.065148 0
12.315000 -0.063982 0
12.320000 -0.062557 0
12.325000 -0.060745 0
12.330000 -0.058370 0
12.335000 -0.055202 0
12.340000 -0.050953 0
12.345000 -0.045278 0
12.350000 -0.037788 0
12.355000 -0.028074 0
12.360000 -0.015743 0
12.365000 -0.000469 0
12.370000 0.017948 0
12.375000 0.039512 0
12.380000 0.063976 0
12.385000 0.090796 0
12.390000 0.119110 0
12.395000 0.147767 0
12.400000 0.175379 0
12.405000 0.200429 0
12.410000 0.221403 0
12.415000 0.236937 0
12.420000 0.245967 0
12.425000 0.247845 1
12.430000 0.242417 0
12.435000 0.230042 0
12.440000 0.211552 0
12.445000 0.188159 0
12.450000 0.161321 0
12.455000 0.132594 0
12.460000 0.103469 0
12.465000 0.075213 0
12.470000 0.048665 0
12.475000 0.023919 0
12.480000 -0.000147 0
12.485000 -0.026293 0
12.490000 -0.058600 0
12.495000 -0.100462 0
12.500000 -0.150748 0
12.505000 -0.199949 0
12.510000 -0.229408 2
12.515000 -0.214915 0
12.520000 -0.132647 0
12.525000 0.034505 0
12.530000 0.287955 0
12.535000 0.599971 0
12.540000 0.904744 0
12.545000 1.111746 0
12.550000 1.146042 3
12.555000 0.991583 0
12.560000 0.699776 0
12.565000 0.358627 0
12.570000 0.049341 0
12.575000 -0.178899 0
12.580000 -0.309475 0
12.585000 -0.348900 4
12.590000 -0.319101 0
12.595000 -0.250582 0
12.600000 -0.173080 0
12.605000 -0.106585 0
12.610000 -0.058125 0
12.615000 -0.025179 0
12.620000 -0.001604 0
12.625000 0.018083 0
12.630000 0.037260 0
12.635000 0.057516 0
12.640000 0.079410 0
12.645000 0.103022 0
12.650000 0.128219 0
12.655000 0.154751 0
12.660000 0.182285 0
12.665000 0.210413 0
12.670000 0.238661 0
12.675000 0.266498 0
12.680000 0.293357 0
12.685000 0.318646 0
12.690000 0.341771 0
12.695000 0.362162 0
12.700000 0.379292 0
12.705000 0.392698 0
12.710000 0.402007 0
12.715000 0.406945 0
12.720000 0.407358 5
12.725000 0.403210 0
12.730000 0.394595 0
12.735000 0.381725 0
12.740000 0.364925 0
12.745000 0.344618 0
12.750000 0.321308 0
12.755000 0.295556 0
12.760000 0.267958 0
12.765000 0.239126 0
12.770000 0.209660 0
12.775000 0.180130 0
12.780000 0.151061 0
12.785000 0.122914 0
12.790000 0.096081 0
12.795000 0.070876 0
12.800000 0.047534 0
12.805000 0.026215 0
12.810000 0.007005 0
12.815000 -0.010075 0
12.820000 -0.025061 0
12.825000 -0.038035 0
12.830000 -0.049112 0
12.835000 -0.058439 0
12.840000 -0.066175 0
12.845000 -0.072490 0
12.850000 -0.077553 0
12.855000 -0.081532 0
12.860000 -0.084582 0
12.865000 -0.086848 0
12.870000 -0.088463 0
12.875000 -0.089541 0
12.880000 -0.090185 0
12.885000 -0.090479 0
12.890000 -0.090498 0
12.895000 -0.089767 0
12.900000 -0.088915 0
12.905000 -0.088067 0
12.910000 -0.087223 0
12.915000 -0.086383 0
12.920000 -0.085547 0
12.925000 -0.084716 0
12.930000 -0.083888 0
12.935000 -0.083065 0
12.940000 -0.082246 0
12.945000 -0.081430 0
12.950000 -0.080618 0
12.955000 -0.079808 0
12.960000 -0.079001 0
12.965000 -0.078192 0
12.970000 -0.077378 0
12.975000 -0.076553 0
12.980000 -0.075705 0
12.985000 -0.074814 0
12.990000 -0.073849 0
12.995000 -0.072765 0
13.000000 -0.071490 0
13.005000 -0.069924 0
13.010000 -0.067924 0
13.015000 -0.065303 0
13.020000 -0.061815 0
13.025000 -0.057157 0
13.030000 -0.050975 0
13.035000 -0.042875 0
13.040000 -0.032451 0
13.045000 -0.019327 0
13.050000 -0.003206 0
13.055000 0.016063 0
13.060000 0.038428 0
13.065000 0.063572 0
13.070000 0.090879 0
13.075000 0.119422 0
13.080000 0.147999 0
13.085000 0.175194 0
13.090000 0.199492 0
13.095000 0.219415 0
13.100000 0.233666 0
13.105000 0.241268 0
13.110000 0.241678 1
13.115000 0.234849 0
13.120000 0.221233 0
13.125000 0.201738 0
13.130000 0.177621 0
13.135000 0.150357 0
13.140000 0.121486 0
13.145000 0.092458 0
13.150000 0.064473 0
13.155000 0.038266 0
13.160000 0.013772 0
13.165000 -0.010356 0
13.170000 -0.037100 0
13.175000 -0.070578 0
13.180000 -0.113783 0
13.185000 -0.164650 0
13.190000 -0.212512 0
13.195000 -0.237904 2
13.200000 -0.216562 0
13.205000 -0.125327 0
13.210000 0.051532 0
13.215000 0.312995 0
13.220000 0.627876 0
13.225000 0.927487 0
13.230000 1.121559 0
13.235000 1.139518 3
13.240000 0.972056 0
13.245000 0.674146 0
13.250000 0.332835 0
13.255000 0.026337 0
13.260000 -0.198745 0
13.265000 -0.327080 0
13.270000 -0.365470 4
13.275000 -0.335529 0
13.280000 -0.267138 0
13.285000 -0.189482 0
13.290000 -0.122388 0
13.295000 -0.073102 0
13.300000 -0.039418 0
13.305000 -0.015370 0
13.310000 0.004523 0
13.315000 0.023719 0
13.320000 0.043893 0
13.325000 0.065659 0
13.330000 0.089129 0
13.335000 0.114187 0
13.340000 0.140604 0
13.345000 0.168062 0
13.350000 0.196174 0
13.355000 0.224485 0
13.360000 0.252484 0
13.365000 0.279622 0
13.370000 0.305321 0
13.375000 0.329001 0
13.380000 0.350097 0
13.385000 0.368079 0
13.390000 0.382481 0
13.395000 0.392913 0
13.400000 0.399081 0
13.405000 0.400802 5
13.410000 0.398008 0
13.415000 0.390755 0
13.420000 0.379216 0
13.425000 0.363677 0
13.430000 0.344522 0
13.435000 0.322221 0
13.440000 0.297306 0
13.445000 0.270352 0
13.450000 0.241953 0
13.455000 0.212704 0
13.460000 0.183177 0
13.465000 0.153904 0
13.470000 0.125364 0
13.475000 0.097970 0
13.480000 0.072062 0
13.485000 0.047904 0
13.490000 0.025685 0
13.495000 0.005522 0
13.500000 -0.012536 0
13.505000 -0.028498 0
13.510000 -0.042422 0
13.515000 -0.054408 0
13.520000 -0.064584 0
13.525000 -0.073100 0
13.530000 -0.080119 0
13.535000 -0.085806 0
13.540000 -0.090329 0
13.545000 -0.093844 0
13.550000 -0.096503 0
13.555000 -0.098441 0
13.560000 -0.099781 0
13.565000 -0.100631 0
13.570000 -0.101083 0
13.575000 -0.101219 0
13.580000 -0.100988 0
13.585000 -0.100080 0
13.590000 -0.099176 0
13.595000 -0.098277 0
13.600000 -0.097382 0
13.605000 -0.096491 0
13.610000 -0.095605 0
13.615000 -0.094723 0
13.620000 -0.093846 0
13.625000 -0.092973 0
13.630000 -0.092104 0
13.635000 -0.091239 0
13.640000 -0.090378 0
13.645000 -0.089520 0
13.650000 -0.088662 0
13.655000 -0.087804 0
13.660000 -0.086941 0
13.665000 -0.086065 0
13.670000 -0.085163 0
13.675000 -0.084216 0
13.680000 -0.083192 0
13.685000 -0.082042 0
13.690000 -0.080695 0
13.695000 -0.079047 0
13.700000 -0.076957 0
13.705000 -0.074235 0
13.710000 -0.070637 0
13.715000 -0.065863 0
13.720000 -0.059564 0
13.725000 -0.051354 0
13.730000 -0.040836 0
13.735000 -0.027641 0
13.740000 -0.011483 0
13.745000 0.007790 0
13.750000 0.030126 0
13.755000 0.055224 0
13.760000 0.082489 0
13.765000 0.111029 0
13.770000 0.139678 0
13.775000 0.167064 0
13.780000 0.191706 0
13.785000 0.212148 0
13.790000 0.227097 0
13.795000 0.235558 0
13.800000 0.236945 1
13.805000 0.231146 0
13.810000 0.218537 0
13.815000 0.199946 0
13.820000 0.176555 0
13.825000 0.149782 0
13.830000 0.121134 0
13.835000 0.092060 0
13.840000 0.063800 0
13.845000 0.037193 0
13.850000 0.012393 0
13.855000 -0.011574 0
13.860000 -0.037224 0
13.865000 -0.068436 0
13.870000 -0.108776 0
13.875000 -0.158048 0
13.880000 -0.208484 0
13.885000 -0.243388 2
13.890000 -0.239878 0
13.895000 -0.174287 0
13.900000 -0.027981 0
13.905000 0.205090 0
13.910000 0.506454 0
13.915000 0.822060 0
13.920000 1.067772 0
13.925000 1.161342 3
13.930000 1.067494 0
13.935000 0.815838 0
13.940000 0.482694 0
13.945000 0.152325 0
13.950000 -0.114741 0
13.955000 -0.290247 0
13.960000 -0.371488 0
13.965000 -0.373063 4
13.970000 -0.320873 0
13.975000 -0.244901 0
13.980000 -0.170189 0
13.985000 -0.110531 0
13.990000 -0.068348 0
13.995000 -0.039283 0
14.000000 -0.017368 0
14.005000 0.002012 0
14.010000 0.021488 0
14.015000 0.042230 0
14.020000 0.064617 0
14.025000 0.088661 0
14.030000 0.114210 0
14.035000 0.141010 0
14.040000 0.168732 0
14.045000 0.196979 0
14.050000 0.225293 0
14.055000 0.253167 0
14.060000 0.280057 0
14.065000 0.305400 0
14.070000 0.328631 0
14.075000 0.349208 0
14.080000 0.366625 0
14.085000 0.380439 0
14.090000 0.390286 0
14.095000 0.395894 0
14.100000 0.397101 5
14.105000 0.393854 0
14.110000 0.386221 0
14.115000 0.374381 0
14.120000 0.358620 0
14.125000 0.339318 0
14.130000 0.316935 0
14.135000 0.291991 0
14.140000 0.265046 0
14.145000 0.236680 0
14.150000 0.207470 0
14.155000 0.177973 0
14.160000 0.148710 0
14.165000 0.120148 0
14.170000 0.092693 0
14.175000 0.066681 0
14.180000 0.042376 0
14.185000 0.019969 0
14.190000 -0.000420 0
14.195000 -0.018734 0
14.200000 -0.034974 0
14.205000 -0.049192 0
14.210000 -0.061478 0
14.215000 -0.071952 0
14.220000 -0.080758 0
14.225000 -0.088050 0
14.230000 -0.093991 0
14.235000 -0.098744 0
14.240000 -0.102464 0
14.245000 -0.105299 0
14.250000 -0.107387 0
14.255000 -0.108851 0
14.260000 -0.109799 0
14.265000 -0.110328 0
14.270000 -0.110518 0
14.275000 -0.110440 0
14.280000 -0.109611 0
14.285000 -0.108660 0
14.290000 -0.107713 0
14.295000 -0.106771 0
14.300000 -0.105834 0
14.305000 -0.104901 0
14.310000 -0.103973 0
14.315000 -0.103050 0
14.320000 -0.102131 0
14.325000 -0.101216 0
14.330000 -0.100306 0
14.335000 -0.099400 0
14.340000 -0.098498 0
14.345000 -0.097598 0
14.350000 -0.096698 0
14.355000 -0.095797 0
14.360000 -0.094888 0
14.365000 -0.093962 0
14.370000 -0.093005 0
14.375000 -0.091993 0
14.380000 -0.090891 0
14.385000 -0.089644 0
14.390000 -0.088172 0
14.395000 -0.086365 0
14.400000 -0.084070 0
14.405000 -0.081088 0
14.410000 -0.077167 0
14.415000 -0.072000 0
14.420000 -0.065237 0
14.425000 -0.056498 0
14.430000 -0.045398 0
14.435000 -0.031592 0
14.440000 -0.014822 0
14.445000 0.005026 0
14.450000 0.027864 0
14.455000 0.053353 0
14.460000 0.080873 0
14.465000 0.109518 0
14.470000 0.138126 0
14.475000 0.165345 0
14.480000 0.189730 0
14.485000 0.209873 0
14.490000 0.224531 0
14.495000 0.232753 0
14.500000 0.233985 1
14.505000 0.228132 0
14.510000 0.215563 0
14.515000 0.197083 0
14.520000 0.173838 0
14.525000 0.147202 0
14.530000 0.118642 0
14.535000 0.089576 0
14.540000 0.061229 0
14.545000 0.034463 0
14.550000 0.009510 0
14.555000 -0.014425 0
14.560000 -0.039591 0
14.565000 -0.069633 0
14.570000 -0.108260 0
14.575000 -0.156192 0
14.580000 -0.207424 0
14.585000 -0.247317 0
14.590000 -0.254466 2
14.595000 -0.205511 0
14.600000 -0.080608 0
14.605000 0.130139 0
14.610000 0.416394 0
14.615000 0.735658 0
14.620000 1.012432 0
14.625000 1.161457 3
14.630000 1.130295 0
14.635000 0.926586 0
14.640000 0.612586 0
14.645000 0.272305 0
14.650000 -0.024334 0
14.655000 -0.237935 0
14.660000 -0.357043 0
14.665000 -0.389747 4
14.670000 -0.357350 0
14.675000 -0.288411 0
14.680000 -0.210584 0
14.685000 -0.142803 0
14.690000 -0.092326 0
14.695000 -0.057422 0
14.700000 -0.032519 0
14.705000 -0.012237 0
14.710000 0.006983 0
14.715000 0.026960 0
14.720000 0.048418 0
14.725000 0.071533 0
14.730000 0.096234 0
14.735000 0.122328 0
14.740000 0.149537 0
14.745000 0.177514 0
14.750000 0.205848 0
14.755000 0.234074 0
14.760000 0.261684 0
14.765000 0.288140 0
14.770000 0.312889 0
14.775000 0.335387 0
14.780000 0.355112 0
14.785000 0.371588 0
14.790000 0.384402 0
14.795000 0.393221 0
14.800000 0.397806 0
14.805000 0.398023 5
14.810000 0.393848 0
14.815000 0.385368 0
14.820000 0.372781 0
14.825000 0.356383 0
14.830000 0.336560 0
14.835000 0.313771 0
14.840000 0.288528 0
14.845000 0.261384 0
14.850000 0.232903 0
14.855000 0.203647 0
14.860000 0.174157 0
14.865000 0.144936 0
14.870000 0.116437 0
14.875000 0.089050 0
14.880000 0.063102 0
14.885000 0.038846 0
14.890000 0.016467 0
14.895000 -0.003918 0
14.900000 -0.022254 0
14.905000 -0.038540 0
14.910000 -0.052826 0
14.915000 -0.065198 0
14.920000 -0.075772 0
14.925000 -0.084687 0
14.930000 -0.092093 0
14.935000 -0.098149 0
14.940000 -0.103012 0
14.945000 -0.106837 0
14.950000 -0.109768 0
14.955000 -0.111942 0
14.960000 -0.113480 0
14.965000 -0.114491 0
14.970000 -0.115071 0
14.975000 -0.115302 0
14.980000 -0.115254 0
14.985000 -0.114410 0
14.990000 -0.113435 0
14.995000 -0.112464 0
15.000000 -0.111498 0
15.005000 -0.110537 0
15.010000 -0.109581 0
15.015000 -0.108630 0
15.020000 -0.107683 0
15.025000 -0.106741 0
15.030000 -0.105804 0
15.035000 -0.104871 0
15.040000 -0.103943 0
15.045000 -0.103018 0
15.050000 -0.102096 0
15.055000 -0.101176 0
15.060000 -0.100256 0
15.065000 -0.099330 0
15.070000 -0.098394 0
15.075000 -0.097433 0
15.080000 -0.096432 0
15.085000 -0.095360 0
15.090000 -0.094174 0
15.095000 -0.092810 0
15.100000 -0.091176 0
15.105000 -0.089147 0
15.110000 -0.086553 0
15.115000 -0.083177 0
15.120000 -0.078750 0
15.125000 -0.072955 0
15.130000 -0.065435 0
15.135000 -0.055813 0
15.140000 -0.043726 0
15.145000 -0.028860 0
15.150000 -0.011010 0
15.155000 0.009873 0
15.160000 0.033627 0
15.165000 0.059835 0
15.170000 0.087805 0
15.175000 0.116575 0
15.180000 0.144950 0
15.185000 0.171578 0
15.190000 0.195047 0
15.195000 0.214010 0
15.200000 0.227312 0
15.205000 0.234106 1
15.210000 0.233941 0
15.215000 0.226814 0
15.220000 0.213167 0
15.225000 0.193849 0
15.230000 0.170022 0
15.235000 0.143047 0
15.240000 0.114356 0
15.245000 0.085318 0
15.250000 0.057098 0
15.255000 0.030491 0
15.260000 0.005661 0
15.265000 -0.018254 0
15.270000 -0.043531 0
15.275000 -0.073772 0
15.280000 -0.112564 0
15.285000 -0.160528 0
15.290000 -0.211768 0
15.295000 -0.252065 0
15.300000 -0.260623 2
15.305000 -0.214635 0
15.310000 -0.094473 0
15.315000 0.110319 0
15.320000 0.391486 0
15.325000 0.710484 0
15.330000 0.996142 0
15.335000 1.164448 3
15.340000 1.157843 0
15.345000 0.975321 0
15.350000 0.672225 0
15.355000 0.330688 0
15.360000 0.023385 0
15.365000 -0.205838 0
15.370000 -0.341629 0
15.375000 -0.389075 4
15.380000 -0.367144 0
15.385000 -0.303157 0
15.390000 -0.225238 0
15.395000 -0.154277 0
15.400000 -0.099840 0
15.405000 -0.061777 0
15.410000 -0.035037 0
15.415000 -0.014039 0
15.420000 0.005204 0
15.425000 0.024862 0
15.430000 0.045869 0
15.435000 0.068504 0
15.440000 0.092749 0
15.445000 0.118439 0
15.450000 0.145325 0
15.455000 0.173084 0
15.460000 0.201331 0
15.465000 0.229623 0
15.470000 0.257472 0
15.475000 0.284357 0
15.480000 0.309737 0
15.485000 0.333070 0
15.490000 0.353833 0
15.495000 0.371539 0
15.500000 0.385756 0
15.505000 0.396123 0
15.510000 0.402371 0
15.515000 0.404323 5
15.520000 0.401914 0
15.525000 0.395185 0
15.530000 0.384286 0
15.535000 0.369467 0
15.540000 0.351073 0
15.545000 0.329527 0
15.550000 0.305311 0
15.555000 0.278955 0
15.560000 0.251010 0
15.565000 0.222035 0
15.570000 0.192573 0
15.575000 0.163140 0
15.580000 0.134206 0
15.585000 0.106190 0
15.590000 0.079445 0
15.595000 0.054257 0
15.600000 0.030844 0
15.605000 0.009357 0
15.610000 -0.010118 0
15.615000 -0.027553 0
15.620000 -0.042969 0
15.625000 -0.056433 0
15.630000 -0.068043 0
15.635000 -0.077923 0
15.640000 -0.086217 0
15.645000 -0.093075 0
15.650000 -0.098656 0
15.655000 -0.103112 0
15.660000 -0.106594 0
15.665000 -0.109240 0
15.670000 -0.111179 0
15.675000 -0.112528 0
15.680000 -0.113388 0
15.685000 -0.113849 0
15.690000 -0.113988 0
15.695000 -0.113870 0
15.700000 -0.113021 0
15.705000 -0.112053 0
15.710000 -0.111089 0
15.715000 -0.110130 0
15.720000 -0.109176 0
15.725000 -0.108227 0
15.730000 -0.107282 0
15.735000 -0.106342 0
15.740000 -0.105407 0
15.745000 -0.104476 0
15.750000 -0.103550 0
15.755000 -0.102628 0
15.760000 -0.101710 0
15.765000 -0.100794 0
15.770000 -0.099880 0
15.775000 -0.098964 0
15.780000 -0.098043 0
15.785000 -0.097109 0
15.790000 -0.096148 0
15.795000 -0.095143 0
15.800000 -0.094062 0
15.805000 -0.092860 0
15.810000 -0.091469 0
15.815000 -0.089797 0
15.820000 -0.087712 0
15.825000 -0.085044 0
15.830000 -0.081571 0
15.835000 -0.077025 0
15.840000 -0.071087 0
15.845000 -0.063404 0
15.850000 -0.053604 0
15.855000 -0.041332 0
15.860000 -0.026286 0
15.865000 -0.008271 0
15.870000 0.012751 0
15.875000 0.036607 0
15.880000 0.062878 0
15.885000 0.090871 0
15.890000 0.119633 0
15.895000 0.147984 0
15.900000 0.174591 0
15.905000 0.198064 0
15.910000 0.217076 0
15.915000 0.230486 0
15.920000 0.237454 0
15.925000 0.237523 1
15.930000 0.230674 0
15.935000 0.217327 0
15.940000 0.198296 0
15.945000 0.174713 0
15.950000 0.147908 0
15.955000 0.119292 0
15.960000 0.090220 0
15.965000 0.061867 0
15.970000 0.035059 0
15.975000 0.010041 0
15.980000 -0.013900 0
15.985000 -0.038826 0
15.990000 -0.068159 0
15.995000 -0.105574 0
16.000000 -0.152335 0
16.005000 -0.203800 0
16.010000 -0.247254 0
16.015000 -0.263030 2
16.020000 -0.228638 0
16.025000 -0.123789 0
16.030000 0.064129 0
16.035000 0.331599 0
16.040000 0.647533 0
16.045000 0.947895 0
16.050000 1.149814 0
16.055000 1.186351 3
16.060000 1.041655 0
16.065000 0.759666 0
16.070000 0.419724 0
16.075000 0.099261 0
16.080000 -0.150601 0
16.085000 -0.308505 0
16.090000 -0.375445 4
16.095000 -0.367596 0
16.100000 -0.310895 0
16.105000 -0.234043 0
16.110000 -0.160200 0
16.115000 -0.101642 0
16.120000 -0.060126 0
16.125000 -0.031299 0
16.130000 -0.009425 0
16.135000 0.009930 0
16.140000 0.029324 0
16.145000 0.049924 0
16.150000 0.072123 0
16.155000 0.095951 0
16.160000 0.121274 0
16.165000 0.147857 0
16.170000 0.175397 0
16.175000 0.203521 0
16.180000 0.231800 0
16.185000 0.259757 0
16.190000 0.286876 0
16.195000 0.312620 0
16.200000 0.336446 0
16.205000 0.357825 0
16.210000 0.376260 0
16.215000 0.391303 0
16.220000 0.402577 0
16.225000 0.409788 0
16.230000 0.412737 5
16.235000 0.411332 0
16.240000 0.405588 0
16.245000 0.395629 0
16.250000 0.381683 0
16.255000 0.364072 0
16.260000 0.343201 0
16.265000 0.319540 0
16.270000 0.293609 0
16.275000 0.265956 0
16.280000 0.237138 0
16.285000 0.207705 0
16.290000 0.178180 0
16.295000 0.149046 0
16.300000 0.120733 0
16.305000 0.093612 0
16.310000 0.067985 0
16.315000 0.044086 0
16.320000 0.022082 0
16.325000 0.002075 0
16.330000 -0.015894 0
16.335000 -0.031835 0
16.340000 -0.045805 0
16.345000 -0.057893 0
16.350000 -0.068220 0
16.355000 -0.076925 0
16.360000 -0.084157 0
16.365000 -0.090072 0
16.370000 -0.094826 0
16.375000 -0.098569 0
16.380000 -0.101444 0
16.385000 -0.103581 0
16.390000 -0.105101 0
16.395000 -0.106107 0
16.400000 -0.106694 0
16.405000 -0.106941 0
16.410000 -0.106917 0
16.415000 -0.106111 0
16.420000 -0.105177 0
16.425000 -0.104248 0
16.430000 -0.103323 0
16.435000 -0.102403 0
16.440000 -0.101487 0
16.445000 -0.100576 0
16.450000 -0.099670 0
16.455000 -0.098768 0
16.460000 -0.097870 0
16.465000 -0.096977 0
16.470000 -0.096088 0
16.475000 -0.095202 0
16.480000 -0.094320 0
16.485000 -0.093439 0
16.490000 -0.092557 0
16.495000 -0.091671 0
16.500000 -0.090774 0
16.505000 -0.089854 0
16.510000 -0.088895 0
16.515000 -0.087869 0
16.520000 -0.086735 0
16.525000 -0.085431 0
16.530000 -0.083872 0
16.535000 -0.081937 0
16.540000 -0.079465 0
16.545000 -0.076249 0
16.550000 -0.072032 0
16.555000 -0.066508 0
16.560000 -0.059330 0
16.565000 -0.050129 0
16.570000 -0.038542 0
16.575000 -0.024250 0
16.580000 -0.007025 0
16.585000 0.013215 0
16.590000 0.036354 0
16.595000 0.062038 0
16.600000 0.089646 0
16.605000 0.118287 0
16.610000 0.146834 0
16.615000 0.173985 0
16.620000 0.198354 0
16.625000 0.218587 0
16.630000 0.233486 0
16.635000 0.242123 0
16.640000 0.243938 1
16.645000 0.238800 0
16.650000 0.227018 0
16.655000 0.209312 0
16.660000 0.186742 0
16.665000 0.160599 0
16.670000 0.132284 0
16.675000 0.103180 0
16.680000 0.074519 0
16.685000 0.047236 0
16.690000 0.021754 0
16.695000 -0.002353 0
16.700000 -0.026774 0
16.705000 -0.054626 0
16.710000 -0.089713 0
16.715000 -0.134245 0
16.720000 -0.185408 0
16.725000 -0.232609 0
16.730000 -0.257673 2
16.735000 -0.238368 0
16.740000 -0.153366 0
16.745000 0.012562 0
16.750000 0.261115 0
16.755000 0.569353 0
16.760000 0.881399 0
16.765000 1.116588 0
16.770000 1.200000 3
16.775000 1.099393 0
16.780000 0.844652 0
16.785000 0.510896 0
16.790000 0.180200 0
16.795000 -0.088352 0
16.800000 -0.266786 0
16.805000 -0.351901 0
16.810000 -0.357349 4
16.815000 -0.307936 0
16.820000 -0.232906 0
16.825000 -0.157369 0
16.830000 -0.095901 0
16.835000 -0.051869 0
16.840000 -0.021516 0
16.845000 0.000999 0
16.850000 0.020448 0
16.855000 0.039682 0
16.860000 0.060035 0
16.865000 0.081976 0
16.870000 0.105567 0
16.875000 0.130685 0
16.880000 0.157102 0
16.885000 0.184513 0
16.890000 0.212549 0
16.895000 0.240777 0
16.900000 0.268715 0
16.905000 0.295844 0
16.910000 0.321617 0
16.915000 0.345485 0
16.920000 0.366907 0
16.925000 0.385378 0
16.930000 0.400443 0
16.935000 0.411717 0
16.940000 0.418899 0
16.945000 0.421788 5
16.950000 0.420290 0
16.955000 0.414421 0
16.960000 0.404309 0
16.965000 0.390188 0
16.970000 0.372388 0
16.975000 0.351323 0
16.980000 0.327473 0
16.985000 0.301368 0
16.990000 0.273565 0
16.995000 0.244629 0
17.000000 0.215118 0
17.005000 0.185560 0
17.010000 0.156439 0
17.015000 0.128188 0
17.020000 0.101174 0
17.025000 0.075697 0
17.030000 0.051987 0
17.035000 0.030202 0
17.040000 0.010439 0
17.045000 -0.007270 0
17.050000 -0.022943 0
17.055000 -0.036641 0
17.060000 -0.048465 0
17.065000 -0.058537 0
17.070000 -0.067003 0
17.075000 -0.074015 0
17.080000 -0.079733 0
17.085000 -0.084314 0
17.090000 -0.087908 0
17.095000 -0.090659 0
17.100000 -0.092695 0
17.105000 -0.094135 0
17.110000 -0.095083 0
17.115000 -0.095630 0
17.120000 -0.095854 0
17.125000 -0.095820 0
17.130000 -0.095060 0
17.135000 -0.094181 0
17.140000 -0.093307 0
17.145000 -0.092436 0
17.150000 -0.091571 0
17.155000 -0.090709 0
17.160000 -0.089852 0
17.165000 -0.088999 0
17.170000 -0.088150 0
17.175000 -0.087305 0
17.180000 -0.086465 0
17.185000 -0.085628 0
17.190000 -0.084794 0
17.195000 -0.083962 0
17.200000 -0.083131 0
17.205000 -0.082298 0
17.210000 -0.081458 0
17.215000 -0.080602 0
17.220000 -0.079717 0
17.225000 -0.078782 0
17.230000 -0.077763 0
17.235000 -0.076611 0
17.240000 -0.075252 0
17.245000 -0.073585 0
17.250000 -0.071470 0
17.255000 -0.068721 0
17.260000 -0.065105 0
17.265000 -0.060336 0
17.270000 -0.054081 0
17.275000 -0.045975 0
17.280000 -0.035642 0
17.285000 -0.022730 0
17.290000 -0.006956 0
17.295000 0.011838 0
17.300000 0.033636 0
17.305000 0.058194 0
17.310000 0.085004 0
17.315000 0.113282 0
17.320000 0.141983 0
17.325000 0.169851 0
17.330000 0.195502 0
17.335000 0.217533 0
17.340000 0.234648 0
17.345000 0.245784 0
17.350000 0.250217 1
17.355000 0.247641 0
17.360000 0.238205 0
17.365000 0.222493 0
17.370000 0.201467 0
17.375000 0.176368 0
17.380000 0.148594 0
17.385000 0.119571 0
17.390000 0.090613 0
17.395000 0.062787 0
17.400000 0.036714 0
17.405000 0.012269 0
17.410000 -0.011839 0
17.415000 -0.038374 0
17.420000 -0.071157 0
17.425000 -0.113196 0
17.430000 -0.163345 0
17.435000 -0.213043 0
17.440000 -0.245569 2
17.445000 -0.238923 0
17.450000 -0.170778 0
17.455000 -0.023724 0
17.460000 0.207886 0
17.465000 0.507137 0
17.470000 0.824339 0
17.475000 1.080865 0
17.480000 1.196466 3
17.485000 1.127283 0
17.490000 0.892941 0
17.495000 0.565454 0
17.500000 0.230273 0
17.505000 -0.047884 0
17.510000 -0.236620 0
17.515000 -0.330313 0
17.520000 -0.341577 4
17.525000 -0.295127 0
17.530000 -0.220901 0
17.535000 -0.145093 0
17.540000 -0.083182 0
17.545000 -0.038937 0
17.550000 -0.008601 0
17.555000 0.013809 0
17.560000 0.033171 0
17.565000 0.052370 0
17.570000 0.072735 0
17.575000 0.094720 0
17.580000 0.118375 0
17.585000 0.143562 0
17.590000 0.170042 0
17.595000 0.197494 0
17.600000 0.225530 0
17.605000 0.253703 0
17.610000 0.281509 0
17.615000 0.308410 0
17.620000 0.333845 0
17.625000 0.357248 0
17.630000 0.378073 0
17.635000 0.395807 0
17.640000 0.409999 0
17.645000 0.420271 0
17.650000 0.426339 0
17.655000 0.428022 5
17.660000 0.425255 0
17.665000 0.418087 0
17.670000 0.406681 0
17.675000 0.391308 0
17.680000 0.372337 0
17.685000 0.350215 0
17.690000 0.325457 0
17.695000 0.298616 0
17.700000 0.270271 0
17.705000 0.241001 0
17.710000 0.211367 0
17.715000 0.181894 0
17.720000 0.153059 0
17.725000 0.125277 0
17.730000 0.098894 0
17.735000 0.074184 0
17.740000 0.051349 0
17.745000 0.030520 0
17.750000 0.011760 0
17.755000 -0.004922 0
17.760000 -0.019571 0
17.765000 -0.032272 0
17.770000 -0.043142 0
17.775000 -0.052321 0
17.780000 -0.059962 0
17.785000 -0.066229 0
17.790000 -0.071282 0
17.795000 -0.075279 0
17.800000 -0.078371 0
17.805000 -0.080694 0
17.810000 -0.082375 0
17.815000 -0.083525 0
17.820000 -0.084242 0
17.825000 -0.084608 0
17.830000 -0.084695 0
17.835000 -0.084000 0
17.840000 -0.083177 0
17.845000 -0.082357 0
17.850000 -0.081541 0
17.855000 -0.080730 0
17.860000 -0.079922 0
17.865000 -0.079119 0
17.870000 -0.078320 0
17.875000 -0.077524 0
17.880000 -0.076732 0
17.885000 -0.075944 0
17.890000 -0.075160 0
17.895000 -0.074379 0
17.900000 -0.073599 0
17.905000 -0.072820 0
17.910000 -0.072039 0
17.915000 -0.071251 0
17.920000 -0.070447 0
17.925000 -0.069614 0
17.930000 -0.068731 0
17.935000 -0.067762 0
17.940000 -0.066658 0
17.945000 -0.065344 0
17.950000 -0.063713 0
17.955000 -0.061620 0
17.960000 -0.058874 0
17.965000 -0.055232 0
17.970000 -0.050395 0
17.975000 -0.044019 0
17.980000 -0.035727 0
17.985000 -0.025133 0
17.990000 -0.011883 0
17.995000 0.004298 0
18.000000 0.023551 0
18.005000 0.045822 0
18.010000 0.070817 0
18.015000 0.097961 0
18.020000 0.126392 0
18.025000 0.154985 0
18.030000 0.182414 0
18.035000 0.207242 0
18.040000 0.228046 0
18.045000 0.243547 0
18.050000 0.252743 0
18.055000 0.255010 1
18.060000 0.250177 0
18.065000 0.238541 0
18.070000 0.220839 0
18.075000 0.198171 0
18.080000 0.171883 0
18.085000 0.143434 0
18.090000 0.114259 0
18.095000 0.085625 0
18.100000 0.058467 0
18.105000 0.033142 0
18.110000 0.009054 0
18.115000 -0.015789 0
18.120000 -0.044852 0
18.125000 -0.081998 0
18.130000 -0.128697 0
18.135000 -0.180258 0
18.140000 -0.223444 0
18.145000 -0.237686 2
18.150000 -0.199578 0
18.155000 -0.088324 0
18.160000 0.108183 0
18.165000 0.383831 0
18.170000 0.702012 0
18.175000 0.991825 0
18.180000 1.167038 3
18.185000 1.165668 0
18.190000 0.982978 0
18.195000 0.677119 0
18.200000 0.335978 0
18.205000 0.035428 0
18.210000 -0.181073 0
18.215000 -0.300639 0
18.220000 -0.331718 4
18.225000 -0.297011 0
18.230000 -0.226766 0
18.235000 -0.149618 0
18.240000 -0.084247 0
18.245000 -0.036797 0
18.250000 -0.004462 0
18.255000 0.018821 0
18.260000 0.038371 0
18.265000 0.057451 0
18.270000 0.077603 0
18.275000 0.099376 0
18.280000 0.122848 0
18.285000 0.147893 0
18.290000 0.174270 0
18.295000 0.201656 0
18.300000 0.229654 0
18.305000 0.257804 0
18.310000 0.285592 0
18.315000 0.312462 0
18.320000 0.337838 0
18.325000 0.361137 0
18.330000 0.381797 0
18.335000 0.399296 0
18.340000 0.413171 0
18.345000 0.423041 0
18.350000 0.428625 0
18.355000 0.429747 5
18.360000 0.426356 0
18.365000 0.418516 0
18.370000 0.406415 0
18.375000 0.390348 0
18.380000 0.370709 0
18.385000 0.347975 0
18.390000 0.322684 0
18.395000 0.295415 0
18.400000 0.266762 0
18.405000 0.237320 0
18.410000 0.207658 0
18.415000 0.178302 0
18.420000 0.149726 0
18.425000 0.122336 0
18.430000 0.096463 0
18.435000 0.072366 0
18.440000 0.050224 0
18.445000 0.030147 0
18.450000 0.012179 0
18.455000 -0.003697 0
18.460000 -0.017542 0
18.465000 -0.029461 0
18.470000 -0.039583 0
18.475000 -0.048062 0
18.480000 -0.055059 0
18.485000 -0.060742 0
18.490000 -0.065277 0
18.495000 -0.068821 0
18.500000 -0.071522 0
18.505000 -0.073516 0
18.510000 -0.074923 0
18.515000 -0.075849 0
18.520000 -0.076388 0
18.525000 -0.076616 0
18.530000 -0.076488 0
18.535000 -0.075702 0
18.540000 -0.074919 0
18.545000 -0.074141 0
18.550000 -0.073366 0
18.555000 -0.072596 0
18.560000 -0.071829 0
18.565000 -0.071066 0
18.570000 -0.070306 0
18.575000 -0.069551 0
18.580000 -0.068799 0
18.585000 -0.068050 0
18.590000 -0.067304 0
18.595000 -0.066561 0
18.600000 -0.065818 0
18.605000 -0.065073 0
18.610000 -0.064321 0
18.615000 -0.063555 0
18.620000 -0.062761 0
18.625000 -0.061918 0
18.630000 -0.060993 0
18.635000 -0.059935 0
18.640000 -0.058669 0
18.645000 -0.057087 0
18.650000 -0.055044 0
18.655000 -0.052341 0
18.660000 -0.048730 0
18.665000 -0.043905 0
18.670000 -0.037510 0
18.675000 -0.029156 0
18.680000 -0.018448 0
18.685000 -0.005023 0
18.690000 0.011393 0
18.695000 0.030930 0
18.700000 0.053511 0
18.705000 0.078799 0
18.710000 0.106165 0
18.715000 0.134683 0
18.720000 0.163156 0
18.725000 0.190193 0
18.730000 0.214307 0
18.735000 0.234055 0
18.740000 0.248171 0
18.745000 0.255704 0
18.750000 0.256123 1
18.755000 0.249373 0
18.760000 0.235891 0
18.765000 0.216552 0
18.770000 0.192574 0
18.775000 0.165396 0
18.780000 0.136526 0
18.785000 0.107397 0
18.790000 0.079211 0
18.795000 0.052743 0
18.800000 0.028032 0
18.805000 0.003935 0
18.810000 -0.022269 0
18.815000 -0.054548 0
18.820000 -0.096222 0
18.825000 -0.146338 0
18.830000 -0.196008 0
18.835000 -0.227523 2
18.840000 -0.217576 0
18.845000 -0.142793 0
18.850000 0.014377 0
18.855000 0.257645 0
18.860000 0.564483 0
18.865000 0.876181 0
18.870000 1.106525 0
18.875000 1.176688 3
18.880000 1.056524 0
18.885000 0.784795 0
18.890000 0.445996 0
18.895000 0.125546 0
18.900000 -0.120499 0
18.905000 -0.269923 0
18.910000 -0.325520 4
18.915000 -0.306783 0
18.920000 -0.243259 0
18.925000 -0.165646 0
18.930000 -0.096272 0
18.935000 -0.044518 0
18.940000 -0.009208 0
18.945000 0.015539 0
18.950000 0.035525 0
18.955000 0.054529 0
18.960000 0.074417 0
18.965000 0.095891 0
18.970000 0.119090 0
18.975000 0.143909 0
18.980000 0.170118 0
18.985000 0.197397 0
18.990000 0.225350 0
18.995000 0.253513 0
19.000000 0.281367 0
19.005000 0.308346 0
19.010000 0.333862 0
19.015000 0.357320 0
19.020000 0.378142 0
19.025000 0.395790 0
19.030000 0.409791 0
19.035000 0.419751 0
19.040000 0.425379 0
19.045000 0.426498 5
19.050000 0.423051 0
19.055000 0.415110 0
19.060000 0.402867 0
19.065000 0.386628 0
19.070000 0.366801 0
19.075000 0.343878 0
19.080000 0.318412 0
19.085000 0.290996 0
19.090000 0.262241 0
19.095000 0.232751 0
19.100000 0.203103 0
19.105000 0.173832 0
19.110000 0.145411 0
19.115000 0.118244 0
19.120000 0.092659 0
19.125000 0.068905 0
19.130000 0.047154 0
19.135000 0.027504 0
19.140000 0.009985 0
19.145000 -0.005428 0
19.150000 -0.018810 0
19.155000 -0.030275 0
19.160000 -0.039962 0
19.165000 -0.048030 0
19.170000 -0.054648 0
19.175000 -0.059986 0
19.180000 -0.064212 0
19.185000 -0.067485 0
19.190000 -0.069950 0
19.195000 -0.071743 0
19.200000 -0.072982 0
19.205000 -0.073770 0
19.210000 -0.074196 0
19.215000 -0.074334 0
19.220000 -0.073690 0
19.225000 -0.072918 0
19.230000 -0.072150 0
19.235000 -0.071385 0
19.240000 -0.070624 0
19.245000 -0.069867 0
19.250000 -0.069114 0
19.255000 -0.068364 0
19.260000 -0.067618 0
19.265000 -0.066876 0
19.270000 -0.066137 0
19.275000 -0.065401 0
19.280000 -0.064668 0
19.285000 -0.063936 0
19.290000 -0.063204 0
19.295000 -0.062466 0
19.300000 -0.061719 0
19.305000 -0.060949 0
19.310000 -0.060140 0
19.315000 -0.059263 0
19.320000 -0.058273 0
19.325000 -0.057104 0
19.330000 -0.055660 0
19.335000 -0.053806 0
19.340000 -0.051360 0
19.345000 -0.048084 0
19.350000 -0.043684 0
19.355000 -0.037812 0
19.360000 -0.030077 0
19.365000 -0.020074 0
19.370000 -0.007418 0
19.375000 0.008203 0
19.380000 0.026964 0
19.385000 0.048845 0
19.390000 0.073568 0
19.395000 0.100558 0
19.400000 0.128930 0
19.405000 0.157515 0
19.410000 0.184918 0
19.415000 0.209630 0
19.420000 0.230156 0
19.425000 0.245165 0
19.430000 0.253630 0
19.435000 0.254945 1
19.440000 0.248993 0
19.445000 0.236164 0
19.450000 0.217311 0
19.455000 0.193653 0
19.460000 0.166647 0
19.465000 0.137836 0
19.470000 0.108691 0
19.475000 0.080457 0
19.480000 0.053943 0
19.485000 0.029211 0
19.490000 0.005105 0
19.495000 -0.021154 0
19.500000 -0.053626 0
19.505000 -0.095644 0
19.510000 -0.146003 0
19.515000 -0.195198 0
19.520000 -0.224692 2
19.525000 -0.210478 0
19.530000 -0.128911 0
19.535000 0.037066 0
19.540000 0.289149 0
19.545000 0.600454 0
19.550000 0.906493 0
19.555000 1.117675 0
19.560000 1.158495 3
19.565000 1.009561 0
19.570000 0.720306 0
19.575000 0.379241 0
19.580000 0.068936 0
19.585000 -0.160326 0
19.590000 -0.291441 0
19.595000 -0.330892 4
19.600000 -0.300849 0
19.605000 -0.232162 0
19.610000 -0.154813 0
19.615000 -0.088783 0
19.620000 -0.040907 0
19.625000 -0.008459 0
19.630000 0.014796 0
19.635000 0.034329 0
19.640000 0.053458 0
19.645000 0.073721 0
19.650000 0.095647 0
19.655000 0.119298 0
19.660000 0.144528 0
19.665000 0.171079 0
19.670000 0.198609 0
19.675000 0.226698 0
19.680000 0.254862 0
19.685000 0.282561 0
19.690000 0.309217 0
19.695000 0.334230 0
19.700000 0.357003 0
19.705000 0.376962 0
19.710000 0.393580 0
19.715000 0.406401 0
19.720000 0.415060 0
19.725000 0.419295 5
19.730000 0.418967 0
19.735000 0.414061 0
19.740000 0.404688 0
19.745000 0.391084 0
19.750000 0.373593 0
19.755000 0.352658 0
19.760000 0.328801 0
19.765000 0.302596 0
19.770000 0.274652 0
19.775000 0.245586 0
19.780000 0.216000 0
19.785000 0.186463 0
19.790000 0.157492 0
19.795000 0.129540 0
19.800000 0.102986 0
19.805000 0.078130 0
19.810000 0.055191 0
19.815000 0.034313 0
19.820000 0.015565 0
19.825000 -0.001045 0
19.830000 -0.015566 0
19.835000 -0.028091 0
19.840000 -0.038747 0
19.845000 -0.047685 0
19.850000 -0.055071 0
19.855000 -0.061075 0
19.860000 -0.065870 0
19.865000 -0.069622 0
19.870000 -0.072485 0
19.875000 -0.074602 0
19.880000 -0.076100 0
19.885000 -0.077093 0
19.890000 -0.077678 0
19.895000 -0.077937 0
19.900000 -0.077825 0
19.905000 -0.077032 0
19.910000 -0.076243 0
19.915000 -0.075458 0
19.920000 -0.074677 0
19.925000 -0.073899 0
19.930000 -0.073126 0
19.935000 -0.072357 0
19.940000 -0.071591 0
19.945000 -0.070829 0
19.950000 -0.070070 0
19.955000 -0.069315 0
19.960000 -0.068563 0
19.965000 -0.067813 0
19.970000 -0.067063 0
19.975000 -0.066311 0
19.980000 -0.065551 0
19.985000 -0.064775 0
19.990000 -0.063968 0
19.995000 -0.063106 0
20.000000 -0.062151 0
20.005000 -0.061047 0
20.010000 -0.059710 0
20.015000 -0.058019 0
20.020000 -0.055811 0
20.025000 -0.052869 0
20.030000 -0.048917 0
20.035000 -0.043623 0
20.040000 -0.036607 0
20.045000 -0.027461 0
20.050000 -0.015783 0
20.055000 -0.001225 0
20.060000 0.016446 0
20.065000 0.037285 0
20.070000 0.061109 0
20.075000 0.087441 0
20.080000 0.115493 0
20.085000 0.144172 0
20.090000 0.172136 0
20.095000 0.197883 0
20.100000 0.219885 0
20.105000 0.236728 0
20.110000 0.247268 0
20.115000 0.250756 1
20.120000 0.246922 0
20.125000 0.236014 0
20.130000 0.218767 0
20.135000 0.196319 0
20.140000 0.170091 0
20.145000 0.141632 0
20.150000 0.112461 0
20.155000 0.083913 0
20.160000 0.056942 0
20.165000 0.031839 0
20.170000 0.007787 0
20.175000 -0.017612 0
20.180000 -0.048257 0
20.185000 -0.087970 0
20.190000 -0.136950 0
20.195000 -0.187670 0
20.200000 -0.223224 2
20.205000 -0.220082 0
20.210000 -0.153798 0
20.215000 -0.005235 0
20.220000 0.231310 0
20.225000 0.535293 0
20.230000 0.848625 0
20.235000 1.083195 0
20.240000 1.156752 3
20.245000 1.038687 0
20.250000 0.768049 0
20.255000 0.429494 0
20.260000 0.108938 0
20.265000 -0.137163 0
20.270000 -0.286433 0
20.275000 -0.341690 4
20.280000 -0.322553 0
20.285000 -0.258733 0
20.290000 -0.181037 0
20.295000 -0.111770 0
20.300000 -0.060203 0
20.305000 -0.025044 0
20.310000 -0.000356 0
20.315000 0.019658 0
20.320000 0.038750 0
20.325000 0.058756 0
20.330000 0.080360 0
20.335000 0.103692 0
20.340000 0.128643 0
20.345000 0.154977 0
20.350000 0.182369 0
20.355000 0.210421 0
20.360000 0.238662 0
20.365000 0.266569 0
20.370000 0.293573 0
20.375000 0.319080 0
20.380000 0.342495 0
20.385000 0.363238 0
20.390000 0.380772 0
20.395000 0.394624 0
20.400000 0.404405 0
20.405000 0.409829 0
20.410000 0.410726 5
20.415000 0.407047 0
20.420000 0.398872 0
20.425000 0.386403 0
20.430000 0.369956 0
20.435000 0.349947 0
20.440000 0.326875 0
20.445000 0.301301 0
20.450000 0.273822 0
20.455000 0.245053 0
20.460000 0.215598 0
20.465000 0.186036 0
20.470000 0.156897 0
20.475000 0.128651 0
20.480000 0.101696 0
20.485000 0.076355 0
20.490000 0.052871 0
20.495000 0.031406 0
20.500000 0.012052 0
20.505000 -0.005165 0
20.510000 -0.020279 0
20.515000 -0.033369 0
20.520000 -0.044552 0
20.525000 -0.053972 0
20.530000 -0.061790 0
20.535000 -0.068176 0
20.540000 -0.073301 0
20.545000 -0.077331 0
20.550000 -0.080427 0
20.555000 -0.082733 0
20.560000 -0.084382 0
20.565000 -0.085490 0
20.570000 -0.086160 0
20.575000 -0.086479 0
20.580000 -0.086521 0
20.585000 -0.085811 0
20.590000 -0.084978 0
20.595000 -0.084149 0
20.600000 -0.083325 0
20.605000 -0.082505 0
20.610000 -0.081688 0
20.615000 -0.080876 0
20.620000 -0.080068 0
20.625000 -0.079264 0
20.630000 -0.078463 0
20.635000 -0.077666 0
20.640000 -0.076873 0
20.645000 -0.076082 0
20.650000 -0.075293 0
20.655000 -0.074502 0
20.660000 -0.073707 0
20.665000 -0.072899 0
20.670000 -0.072068 0
20.675000 -0.071192 0
20.680000 -0.070241 0
20.685000 -0.069167 0
20.690000 -0.067897 0
20.695000 -0.066329 0
20.700000 -0.064317 0
20.705000 -0.061668 0
20.710000 -0.058133 0
20.715000 -0.053403 0
20.720000 -0.047119 0
20.725000 -0.038882 0
20.730000 -0.028285 0
20.735000 -0.014954 0
20.740000 0.001400 0
20.745000 0.020917 0
20.750000 0.043523 0
20.755000 0.068874 0
20.760000 0.096323 0
20.765000 0.124911 0
20.770000 0.153404 0
20.775000 0.180363 0
20.780000 0.204264 0
20.785000 0.223628 0
20.790000 0.237181 0
20.795000 0.243984 1
20.800000 0.243544 0
20.805000 0.235870 0
20.810000 0.221478 0
20.815000 0.201326 0
20.820000 0.176715 0
20.825000 0.149145 0
20.830000 0.120161 0
20.835000 0.091199 0
20.840000 0.063416 0
20.845000 0.037465 0
20.850000 0.013127 0
20.855000 -0.011173 0
20.860000 -0.038669 0
20.865000 -0.073527 0
20.870000 -0.118258 0
20.875000 -0.169620 0
20.880000 -0.215382 0
20.885000 -0.234832 2
20.890000 -0.203337 0
20.895000 -0.098382 0
20.900000 0.093794 0
20.905000 0.367919 0
20.910000 0.686088 0
20.915000 0.973321 0
20.920000 1.138899 3
20.925000 1.121787 0
20.930000 0.924775 0
20.935000 0.611833 0
20.940000 0.271987 0
20.945000 -0.021062 0
20.950000 -0.227050 0
20.955000 -0.335753 0
20.960000 -0.357611 4
20.965000 -0.316793 0
20.970000 -0.244123 0
20.975000 -0.167590 0
20.980000 -0.104380 0
20.985000 -0.059180 0
20.990000 -0.028377 0
20.995000 -0.005789 0
21.000000 0.013670 0
21.005000 0.032987 0
21.010000 0.053516 0
21.015000 0.075706 0
21.020000 0.099592 0
21.025000 0.125023 0
21.030000 0.151740 0
21.035000 0.179404 0
21.040000 0.207603 0
21.045000 0.235862 0
21.050000 0.263653 0
21.055000 0.290410 0
21.060000 0.315549 0
21.065000 0.338486 0
21.070000 0.358659 0
21.075000 0.375552 0
21.080000 0.388716 0
21.085000 0.397786 0
21.090000 0.402501 0
21.095000 0.402714 5
21.100000 0.398397 0
21.105000 0.389646 0
21.110000 0.376676 0
21.115000 0.359812 0
21.120000 0.339474 0
21.125000 0.316158 0
21.130000 0.290421 0
21.135000 0.262852 0
21.140000 0.234054 0
21.145000 0.204620 0
21.150000 0.175114 0
21.155000 0.146054 0
21.160000 0.117899 0
21.165000 0.091037 0
21.170000 0.065782 0
21.175000 0.042370 0
21.180000 0.020962 0
21.185000 0.001645 0
21.190000 -0.015553 0
21.195000 -0.030666 0
21.200000 -0.043771 0
21.205000 -0.054980 0
21.210000 -0.064435 0
21.215000 -0.072293 0
21.220000 -0.078721 0
21.225000 -0.083886 0
21.230000 -0.087954 0
21.235000 -0.091080 0
21.240000 -0.093410 0
21.245000 -0.095075 0
21.250000 -0.096192 0
21.255000 -0.096862 0
21.260000 -0.097174 0
21.265000 -0.097200 0
21.270000 -0.096443 0
21.275000 -0.095557 0
21.280000 -0.094675 0
21.285000 -0.093798 0
21.290000 -0.092926 0
21.295000 -0.092058 0
21.300000 -0.091194 0
21.305000 -0.090334 0
21.310000 -0.089479 0
21.315000 -0.088627 0
21.320000 -0.087780 0
21.325000 -0.086936 0
21.330000 -0.086096 0
21.335000 -0.085257 0
21.340000 -0.084419 0
21.345000 -0.083577 0
21.350000 -0.082727 0
21.355000 -0.081856 0
21.360000 -0.080951 0
21.365000 -0.079982 0
21.370000 -0.078911 0
21.375000 -0.077675 0
21.380000 -0.076184 0
21.385000 -0.074312 0
21.390000 -0.071888 0
21.395000 -0.068690 0
21.400000 -0.064436 0
21.405000 -0.058793 0
21.410000 -0.051384 0
21.415000 -0.041807 0
21.420000 -0.029675 0
21.425000 -0.014661 0
21.430000 0.003446 0
21.435000 0.024676 0
21.440000 0.048822 0
21.445000 0.075393 0
21.450000 0.103593 0
21.455000 0.132338 0
21.460000 0.160305 0
21.465000 0.186024 0
21.470000 0.208002 0
21.475000 0.224863 0
21.480000 0.235492 0
21.485000 0.239154 1
21.490000 0.235581 0
21.495000 0.224999 0
21.500000 0.208110 0
21.505000 0.186008 0
21.510000 0.160069 0
21.515000 0.131801 0
21.520000 0.102699 0
21.525000 0.074091 0
21.530000 0.046961 0
21.535000 0.021694 0
21.540000 -0.002333 0
21.545000 -0.027219 0
21.550000 -0.056599 0
21.555000 -0.094423 0
21.560000 -0.141851 0
21.565000 -0.193233 0
21.570000 -0.233843 0
21.575000 -0.241663 2
21.580000 -0.192475 0
21.585000 -0.065746 0
21.590000 0.148412 0
21.595000 0.438081 0
21.600000 0.756978 0
21.605000 1.024920 0
21.610000 1.154857 3
21.615000 1.097973 0
21.620000 0.872033 0
21.625000 0.547578 0
21.630000 0.211205 0
21.635000 -0.070206 0
21.640000 -0.262520 0
21.645000 -0.359161 0
21.650000 -0.372352 4
21.655000 -0.326784 0
21.660000 -0.252667 0
21.665000 -0.176604 0
21.670000 -0.114398 0
21.675000 -0.069948 0
21.680000 -0.039477 0
21.685000 -0.016948 0
21.690000 0.002554 0
21.695000 0.021921 0
21.700000 0.042473 0
21.705000 0.064660 0
21.710000 0.088522 0
21.715000 0.113917 0
21.720000 0.140599 0
21.725000 0.168242 0
21.730000 0.196451 0
21.735000 0.224769 0
21.740000 0.252687 0
21.745000 0.279658 0
21.750000 0.305114 0
21.755000 0.328486 0
21.760000 0.349221 0
21.765000 0.366807 0
21.770000 0.380794 0
21.775000 0.390808 0
21.780000 0.396573 0
21.785000 0.397917 5
21.790000 0.394787 0
21.795000 0.387246 0
21.800000 0.375472 0
21.805000 0.359752 0
21.810000 0.340470 0
21.815000 0.318089 0
21.820000 0.293134 0
21.825000 0.266170 0
21.830000 0.237782 0
21.835000 0.208555 0
21.840000 0.179050 0
21.845000 0.149790 0
21.850000 0.121248 0
21.855000 0.093830 0
21.860000 0.067874 0
21.865000 0.043642 0
21.870000 0.021325 0
21.875000 0.001040 0
21.880000 -0.017159 0
21.885000 -0.033277 0
21.890000 -0.047368 0
21.895000 -0.059525 0
21.900000 -0.069873 0
21.905000 -0.078556 0
21.910000 -0.085733 0
21.915000 -0.091568 0
21.920000 -0.096224 0
21.925000 -0.099858 0
21.930000 -0.102620 0
21.935000 -0.104644 0
21.940000 -0.106055 0
21.945000 -0.106960 0
21.950000 -0.107455 0
21.955000 -0.107620 0
21.960000 -0.107523 0
21.965000 -0.106704 0
21.970000 -0.105767 0
21.975000 -0.104835 0
21.980000 -0.103907 0
21.985000 -0.102984 0
21.990000 -0.102066 0
21.995000 -0.101152 0
22.000000 -0.100242 0
22.005000 -0.099337 0
22.010000 -0.098437 0
22.015000 -0.097541 0
22.020000 -0.096648 0
22.025000 -0.095759 0
22.030000 -0.094872 0
22.035000 -0.093985 0
22.040000 -0.093095 0
22.045000 -0.092196 0
22.050000 -0.091277 0
22.055000 -0.090322 0
22.060000 -0.089305 0
22.065000 -0.088185 0
22.070000 -0.086903 0
22.075000 -0.085370 0
22.080000 -0.083465 0
22.085000 -0.081022 0
22.090000 -0.077827 0
22.095000 -0.073609 0
22.100000 -0.068046 0
22.105000 -0.060774 0
22.110000 -0.051404 0
22.115000 -0.039555 0
22.120000 -0.024898 0
22.125000 -0.007210 0
22.130000 0.013568 0
22.135000 0.037275 0
22.140000 0.063482 0
22.145000 0.091469 0
22.150000 0.120234 0
22.155000 0.148531 0
22.160000 0.174951 0
22.165000 0.198034 0
22.170000 0.216398 0
22.175000 0.228876 0
22.180000 0.234642 1
22.185000 0.233294 0
22.190000 0.224908 0
22.195000 0.210026 0
22.200000 0.189599 0
22.205000 0.164886 0
22.210000 0.137328 0
22.215000 0.108403 0
22.220000 0.079485 0
22.225000 0.051690 0
22.230000 0.025672 0
22.235000 0.001300 0
22.240000 -0.022793 0
22.245000 -0.049524 0
22.250000 -0.082866 0
22.255000 -0.125736 0
22.260000 -0.176354 0
22.265000 -0.224889 0
22.270000 -0.253090 2
22.275000 -0.237785 0
22.280000 -0.156304 0
22.285000 0.007792 0
22.290000 0.256648 0
22.295000 0.565926 0
22.300000 0.875842 0
22.305000 1.101021 0
22.310000 1.165233 3
22.315000 1.042972 0
22.320000 0.773634 0
22.325000 0.436047 0
22.330000 0.111196 0
22.335000 -0.145591 0
22.340000 -0.310129 0
22.345000 -0.382065 4
22.350000 -0.377183 0
22.355000 -0.321685 0
22.360000 -0.244979 0
22.365000 -0.170975 0
22.370000 -0.112378 0
22.375000 -0.070997 0
22.380000 -0.042343 0
22.385000 -0.020563 0
22.390000 -0.001189 0
22.395000 0.018318 0
22.400000 0.039089 0
22.405000 0.061489 0
22.410000 0.085533 0
22.415000 0.111069 0
22.420000 0.137851 0
22.425000 0.165558 0
22.430000 0.193800 0
22.435000 0.222132 0
22.440000 0.250057 0
22.445000 0.277041 0
22.450000 0.302534 0
22.455000 0.325980 0
22.460000 0.346841 0
22.465000 0.364619 0
22.470000 0.378870 0
22.475000 0.389226 0
22.480000 0.395410 0
22.485000 0.397246 5
22.490000 0.394668 0
22.495000 0.387724 0
22.500000 0.376574 0
22.505000 0.361482 0
22.510000 0.342806 0
22.515000 0.320986 0
22.520000 0.296521 0
22.525000 0.269957 0
22.530000 0.241859 0
22.535000 0.212800 0
22.540000 0.183331 0
22.545000 0.153973 0
22.550000 0.125201 0
22.555000 0.097429 0
22.560000 0.071006 0
22.565000 0.046210 0
22.570000 0.023250 0
22.575000 0.002263 0
22.580000 -0.016677 0
22.585000 -0.033555 0
22.590000 -0.048407 0
22.595000 -0.061309 0
22.600000 -0.072372 0
22.605000 -0.081729 0
22.610000 -0.089530 0
22.615000 -0.095933 0
22.620000 -0.101097 0
22.625000 -0.105179 0
22.630000 -0.108328 0
22.635000 -0.110683 0
22.640000 -0.112371 0
22.645000 -0.113504 0
22.650000 -0.114183 0
22.655000 -0.114493 0
22.660000 -0.114508 0
22.665000 -0.114179 0
22.670000 -0.113204 0
22.675000 -0.112235 0
22.680000 -0.111270 0
22.685000 -0.110311 0
22.690000 -0.109356 0
22.695000 -0.108405 0
22.700000 -0.107460 0
22.705000 -0.106519 0
22.710000 -0.105583 0
22.715000 -0.104651 0
22.720000 -0.103724 0
22.725000 -0.102800 0
22.730000 -0.101880 0
22.735000 -0.100962 0
22.740000 -0.100044 0
22.745000 -0.099121 0
22.750000 -0.098189 0
22.755000 -0.097235 0
22.760000 -0.096243 0
22.765000 -0.095185 0
22.770000 -0.094021 0
22.775000 -0.092688 0
22.780000 -0.091100 0
22.785000 -0.089133 0
22.790000 -0.086624 0
22.795000 -0.083361 0
22.800000 -0.079079 0
22.805000 -0.073463 0
22.810000 -0.066158 0
22.815000 -0.056785 0
22.820000 -0.044973 0
22.825000 -0.030402 0
22.830000 -0.012848 0
22.835000 0.007755 0
22.840000 0.031265 0
22.845000 0.057286 0
22.850000 0.085146 0
22.855000 0.113895 0
22.860000 0.142347 0
22.865000 0.169146 0
22.870000 0.192871 0
22.875000 0.212155 0
22.880000 0.225819 0
22.885000 0.232988 0
22.890000 0.233184 1
22.895000 0.226379 0
22.900000 0.213002 0
22.905000 0.193889 0
22.910000 0.170201 0
22.915000 0.143306 0
22.920000 0.114646 0
22.925000 0.085604 0
22.930000 0.057360 0
22.935000 0.030727 0
22.940000 0.005879 0
22.945000 -0.018038 0
22.950000 -0.043306 0
22.955000 -0.073551 0
22.960000 -0.112384 0
22.965000 -0.160409 0
22.970000 -0.211618 0
22.975000 -0.251584 0
22.980000 -0.259281 2
22.985000 -0.211741 0
22.990000 -0.089325 0
22.995000 0.118125 0
23.000000 0.401487 0
23.005000 0.720686 0
23.010000 1.002964 0
23.015000 1.163936 3
23.020000 1.147466 0
23.025000 0.956550 0
23.030000 0.649101 0
23.035000 0.307820 0
23.040000 0.004229 0
23.045000 -0.219536 0
23.050000 -0.349548 0
23.055000 -0.391927 4
23.060000 -0.366395 0
23.065000 -0.300654 0
23.070000 -0.222655 0
23.075000 -0.152643 0
23.080000 -0.099434 0
23.085000 -0.062362 0
23.090000 -0.036203 0
23.095000 -0.015434 0
23.100000 0.003798 0
23.105000 0.023554 0
23.110000 0.044699 0
23.115000 0.067481 0
23.120000 0.091865 0
23.125000 0.117681 0
23.130000 0.144669 0
23.135000 0.172500 0
23.140000 0.200784 0
23.145000 0.229073 0
23.150000 0.256872 0
23.155000 0.283658 0
23.160000 0.308885 0
23.165000 0.332014 0
23.170000 0.352520 0
23.175000 0.369920 0
23.180000 0.383787 0
23.185000 0.393770 0
23.190000 0.399603 0
23.195000 0.401124 5
23.200000 0.398276 0
23.205000 0.391113 0
23.210000 0.379795 0
23.215000 0.364586 0
23.220000 0.345838 0
23.225000 0.323984 0
23.230000 0.299515 0
23.235000 0.272963 0
23.240000 0.244885 0
23.245000 0.215839 0
23.250000 0.186368 0
23.255000 0.156984 0
23.260000 0.128154 0
23.265000 0.100289 0
23.270000 0.073735 0
23.275000 0.048772 0
23.280000 0.025609 0
23.285000 0.004389 0
23.290000 -0.014810 0
23.295000 -0.031966 0
23.300000 -0.047108 0
23.305000 -0.060306 0
23.310000 -0.071662 0
23.315000 -0.081306 0
23.320000 -0.089381 0
23.325000 -0.096041 0
23.330000 -0.101442 0
23.335000 -0.105741 0
23.340000 -0.109083 0
23.345000 -0.111608 0
23.350000 -0.113444 0
23.355000 -0.114703 0
23.360000 -0.115488 0
23.365000 -0.115886 0
23.370000 -0.115972 0
23.375000 -0.115690 0
23.380000 -0.114708 0
23.385000 -0.113732 0
23.390000 -0.112760 0
23.395000 -0.111792 0
23.400000 -0.110830 0
23.405000 -0.109872 0
23.410000 -0.108920 0
23.415000 -0.107972 0
23.420000 -0.107028 0
23.425000 -0.106089 0
23.430000 -0.105155 0
23.435000 -0.104225 0
23.440000 -0.103298 0
23.445000 -0.102374 0
23.450000 -0.101451 0
23.455000 -0.100526 0
23.460000 -0.099595 0
23.465000 -0.098648 0
23.470000 -0.097673 0
23.475000 -0.096648 0
23.480000 -0.095540 0
23.485000 -0.094300 0
23.490000 -0.092857 0
23.495000 -0.091110 0
23.500000 -0.088921 0
23.505000 -0.086109 0
23.510000 -0.082444 0
23.515000 -0.077646 0
23.520000 -0.071388 0
23.525000 -0.063309 0
23.530000 -0.053039 0
23.535000 -0.040226 0
23.540000 -0.024587 0
23.545000 -0.005952 0
23.550000 0.015678 0
23.555000 0.040081 0
23.560000 0.066782 0
23.565000 0.095031 0
23.570000 0.123820 0
23.575000 0.151927 0
23.580000 0.177994 0
23.585000 0.200629 0
23.590000 0.218534 0
23.595000 0.230618 0
23.600000 0.236116 1
23.605000 0.234663 0
23.610000 0.226338 0
23.615000 0.211655 0
23.620000 0.191508 0
23.625000 0.167088 0
23.630000 0.139759 0
23.635000 0.110932 0
23.640000 0.081940 0
23.645000 0.053895 0
23.650000 0.027517 0
23.655000 0.002866 0
23.660000 -0.021059 0
23.665000 -0.046673 0
23.670000 -0.077623 0
23.675000 -0.117318 0
23.680000 -0.165917 0
23.685000 -0.216912 0
23.690000 -0.255620 0
23.695000 -0.261178 2
23.700000 -0.211112 0
23.705000 -0.086399 0
23.710000 0.122557 0
23.715000 0.406403 0
23.720000 0.725625 0
23.725000 1.008956 0
23.730000 1.173540 3
23.735000 1.162870 0
23.740000 0.977338 0
23.745000 0.672875 0
23.750000 0.331329 0
23.755000 0.024691 0
23.760000 -0.203770 0
23.765000 -0.339002 0
23.770000 -0.386174 4
23.775000 -0.364198 0
23.780000 -0.300265 0
23.785000 -0.222365 0
23.790000 -0.151326 0
23.795000 -0.096740 0
23.800000 -0.058525 0
23.805000 -0.031682 0
23.810000 -0.010644 0
23.815000 0.008587 0
23.820000 0.028204 0
23.825000 0.049152 0
23.830000 0.071723 0
23.835000 0.095901 0
23.840000 0.121528 0
23.845000 0.148357 0
23.850000 0.176070 0
23.855000 0.204284 0
23.860000 0.232563 0
23.865000 0.260423 0
23.870000 0.287346 0
23.875000 0.312794 0
23.880000 0.336228 0
23.885000 0.357127 0
23.890000 0.375002 0
23.895000 0.389421 0
23.900000 0.400022 0
23.905000 0.406527 0
23.910000 0.408757 5
23.915000 0.406638 0
23.920000 0.400204 0
23.925000 0.389595 0
23.930000 0.375054 0
23.935000 0.356917 0
23.940000 0.335598 0
23.945000 0.311575 0
23.950000 0.285368 0
23.955000 0.257527 0
23.960000 0.228606 0
23.965000 0.199150 0
23.970000 0.169673 0
23.975000 0.140651 0
23.980000 0.112503 0
23.985000 0.085589 0
23.990000 0.060201 0
23.995000 0.036563 0
24.000000 0.014832 0
24.005000 -0.004898 0
24.010000 -0.022594 0
24.015000 -0.038272 0
24.020000 -0.051991 0
24.025000 -0.063847 0
24.030000 -0.073960 0
24.035000 -0.082470 0
24.040000 -0.089529 0
24.045000 -0.095291 0
24.050000 -0.099910 0
24.055000 -0.103537 0
24.060000 -0.106310 0
24.065000 -0.108360 0
24.070000 -0.109804 0
24.075000 -0.110746 0
24.080000 -0.111277 0
24.085000 -0.111475 0
24.090000 -0.111408 0
24.095000 -0.110577 0
24.100000 -0.109620 0
24.105000 -0.108669 0
24.110000 -0.107722 0
24.115000 -0.106780 0
24.120000 -0.105843 0
24.125000 -0.104910 0
24.130000 -0.103982 0
24.135000 -0.103058 0
24.140000 -0.102139 0
24.145000 -0.101225 0
24.150000 -0.100314 0
24.155000 -0.099408 0
24.160000 -0.098504 0
24.165000 -0.097602 0
24.170000 -0.096699 0
24.175000 -0.095792 0
24.180000 -0.094873 0
24.185000 -0.093932 0
24.190000 -0.092951 0
24.195000 -0.091901 0
24.200000 -0.090743 0
24.205000 -0.089413 0
24.210000 -0.087826 0
24.215000 -0.085860 0
24.220000 -0.083355 0
24.225000 -0.080103 0
24.230000 -0.075848 0
24.235000 -0.070283 0
24.240000 -0.063064 0
24.245000 -0.053824 0
24.250000 -0.042200 0
24.255000 -0.027877 0
24.260000 -0.010628 0
24.265000 0.009629 0
24.270000 0.032778 0
24.275000 0.058468 0
24.280000 0.086081 0
24.285000 0.114733 0
24.290000 0.143306 0
24.295000 0.170503 0
24.300000 0.194947 0
24.305000 0.215289 0
24.310000 0.230330 0
24.315000 0.239143 0
24.320000 0.241160 1
24.325000 0.236237 0
24.330000 0.224669 0
24.335000 0.207164 0
24.340000 0.184763 0
24.345000 0.158748 0
24.350000 0.130509 0
24.355000 0.101427 0
24.360000 0.072737 0
24.365000 0.045388 0
24.370000 0.019832 0
24.375000 -0.004303 0
24.380000 -0.028619 0
24.385000 -0.056150 0
24.390000 -0.090686 0
24.395000 -0.134620 0
24.400000 -0.185565 0
24.405000 -0.233522 0
24.410000 -0.260831 2
24.415000 -0.245490 0
24.420000 -0.166038 0
24.425000 -0.006654 0
24.430000 0.235764 0
24.435000 0.540766 0
24.440000 0.855439 0
24.445000 1.100673 0
24.450000 1.199811 3
24.455000 1.116381 0
24.460000 0.874326 0
24.465000 0.544938 0
24.470000 0.210287 0
24.475000 -0.067893 0
24.480000 -0.258462 0
24.485000 -0.355630 0
24.490000 -0.370988 4
24.495000 -0.327811 0
24.500000 -0.254841 0
24.505000 -0.178026 0
24.510000 -0.113637 0
24.515000 -0.066656 0
24.520000 -0.034212 0
24.525000 -0.010607 0
24.530000 0.009193 0
24.535000 0.028361 0
24.540000 0.048458 0
24.545000 0.070078 0
24.550000 0.093345 0
24.555000 0.118165 0
24.560000 0.144334 0
24.565000 0.171568 0
24.570000 0.199517 0
24.575000 0.227770 0
24.580000 0.255861 0
24.585000 0.283287 0
24.590000 0.309514 0
24.595000 0.333998 0
24.600000 0.356203 0
24.605000 0.375618 0
24.610000 0.391776 0
24.615000 0.404275 0
24.620000 0.412793 0
24.625000 0.417098 5
24.630000 0.417063 0
24.635000 0.412669 0
24.640000 0.404004 0
24.645000 0.391266 0
24.650000 0.374749 0
24.655000 0.354833 0
24.660000 0.331971 0
24.665000 0.306670 0
24.670000 0.279471 0
24.675000 0.250932 0
24.680000 0.221609 0
24.685000 0.192035 0
24.690000 0.162708 0
24.695000 0.134076 0
24.700000 0.106530 0
24.705000 0.080393 0
24.710000 0.055923 0
24.715000 0.033305 0
24.720000 0.012661 0
24.725000 -0.005950 0
24.730000 -0.022523 0
24.735000 -0.037101 0
24.740000 -0.049766 0
24.745000 -0.060630 0
24.750000 -0.069826 0
24.755000 -0.077503 0
24.760000 -0.083815 0
24.765000 -0.088920 0
24.770000 -0.092969 0
24.775000 -0.096107 0
24.780000 -0.098471 0
24.785000 -0.100182 0
24.790000 -0.101350 0
24.795000 -0.102073 0
24.800000 -0.102433 0
24.805000 -0.102503 0
24.810000 -0.102232 0
24.815000 -0.101317 0
24.820000 -0.100407 0
24.825000 -0.099502 0
24.830000 -0.098601 0
24.835000 -0.097704 0
24.840000 -0.096812 0
24.845000 -0.095924 0
24.850000 -0.095041 0
24.855000 -0.094162 0
24.860000 -0.093287 0
24.865000 -0.092417 0
24.870000 -0.091550 0
24.875000 -0.090686 0
24.880000 -0.089824 0
24.885000 -0.088962 0
24.890000 -0.088097 0
24.895000 -0.087222 0
24.900000 -0.086329 0
24.905000 -0.085402 0
24.910000 -0.084416 0
24.915000 -0.083335 0
24.920000 -0.082102 0
24.925000 -0.080640 0
24.930000 -0.078838 0
24.935000 -0.076545 0
24.940000 -0.073567 0
24.945000 -0.069660 0
24.950000 -0.064530 0
24.955000 -0.057838 0
24.960000 -0.049220 0
24.965000 -0.038305 0
24.970000 -0.024759 0
24.975000 -0.008324 0
24.980000 0.011123 0
24.985000 0.033524 0
24.990000 0.058588 0
24.995000 0.085763 0
25.000000 0.114223 0
25.005000 0.142895 0
25.010000 0.170512 0
25.015000 0.195696 0
25.020000 0.217072 0
25.025000 0.233387 0
25.030000 0.243636 0
25.035000 0.247158 1
25.040000 0.243713 0
25.045000 0.233500 0
25.050000 0.217147 0
25.055000 0.195640 0
25.060000 0.170225 0
25.065000 0.142293 0
25.070000 0.113244 0
25.075000 0.084361 0
25.080000 0.056670 0
25.085000 0.030741 0
25.090000 0.006390 0
25.095000 -0.017740 0
25.100000 -0.044452 0
25.105000 -0.077538 0
25.110000 -0.119876 0
25.115000 -0.170140 0
25.120000 -0.219663 0
25.125000 -0.251796 2
25.130000 -0.244783 0
25.135000 -0.176605 0
25.140000 -0.030074 0
25.145000 0.200501 0
25.150000 0.498819 0
25.155000 0.816512 0
25.160000 1.076462 0
25.165000 1.198843 3
25.170000 1.139198 0
25.175000 0.913204 0
25.180000 0.589388 0
25.185000 0.251953 0
25.190000 -0.033254 0
25.195000 -0.231684 0
25.200000 -0.335600 0
25.205000 -0.355711 4
25.210000 -0.315117 0
25.215000 -0.242983 0
25.220000 -0.166040 0
25.225000 -0.101286 0
25.230000 -0.054082 0
25.235000 -0.021608 0
25.240000 0.001927 0
25.245000 0.021647 0
25.250000 0.040764 0
25.255000 0.060843 0
25.260000 0.082471 0
25.265000 0.105760 0
25.270000 0.130611 0
25.275000 0.156808 0
25.280000 0.184059 0
25.285000 0.212001 0
25.290000 0.240210 0
25.295000 0.268208 0
25.300000 0.295477 0
25.305000 0.321472 0
25.310000 0.345638 0
25.315000 0.367431 0
25.320000 0.386336 0
25.325000 0.401886 0
25.330000 0.413683 0
25.335000 0.421413 0
25.340000 0.424859 5
25.345000 0.423912 0
25.350000 0.418574 0
25.355000 0.408960 0
25.360000 0.395292 0
25.365000 0.377890 0
25.370000 0.357162 0
25.375000 0.333584 0
25.380000 0.307683 0
25.385000 0.280018 0
25.390000 0.251158 0
25.395000 0.221663 0
25.400000 0.192068 0
25.405000 0.162868 0
25.410000 0.134500 0
25.415000 0.107341 0
25.420000 0.081700 0
25.425000 0.057812 0
25.430000 0.035845 0
25.435000 0.015898 0
25.440000 -0.001990 0
25.445000 -0.017832 0
25.450000 -0.031690 0
25.455000 -0.043659 0
25.460000 -0.053863 0
25.465000 -0.062447 0
25.470000 -0.069563 0
25.475000 -0.075373 0
25.480000 -0.080033 0
25.485000 -0.083696 0
25.490000 -0.086505 0
25.495000 -0.088592 0
25.500000 -0.090077 0
25.505000 -0.091064 0
25.510000 -0.091645 0
25.515000 -0.091899 0
25.520000 -0.091892 0
25.525000 -0.091153 0
25.530000 -0.090293 0
25.535000 -0.089438 0
25.540000 -0.088587 0
25.545000 -0.087741 0
25.550000 -0.086898 0
25.555000 -0.086060 0
25.560000 -0.085226 0
25.565000 -0.084396 0
25.570000 -0.083570 0
25.575000 -0.082748 0
25.580000 -0.081929 0
25.585000 -0.081114 0
25.590000 -0.080301 0
25.595000 -0.079488 0
25.600000 -0.078673 0
25.605000 -0.077851 0
25.610000 -0.077013 0
25.615000 -0.076145 0
25.620000 -0.075226 0
25.625000 -0.074222 0
25.630000 -0.073083 0
25.635000 -0.071734 0
25.640000 -0.070073 0
25.645000 -0.067955 0
25.650000 -0.065196 0
25.655000 -0.061556 0
25.660000 -0.056747 0
25.665000 -0.050433 0
25.670000 -0.042244 0
25.675000 -0.031803 0
25.680000 -0.018758 0
25.685000 -0.002833 0
25.690000 0.016127 0
25.695000 0.038091 0
25.700000 0.062798 0
25.705000 0.089721 0
25.710000 0.118052 0
25.715000 0.146723 0
25.720000 0.174459 0
25.725000 0.199863 0
25.730000 0.221529 0
25.735000 0.238167 0
25.740000 0.248733 0
25.745000 0.252534 1
25.750000 0.249302 0
25.755000 0.239228 0
25.760000 0.222939 0
25.765000 0.201433 0
25.770000 0.175980 0
25.775000 0.147996 0
25.780000 0.118907 0
25.785000 0.090016 0
25.790000 0.062356 0
25.795000 0.036484 0
25.800000 0.012161 0
25.805000 -0.012080 0
25.810000 -0.039194 0
25.815000 -0.073056 0
25.820000 -0.116363 0
25.825000 -0.167146 0
25.830000 -0.215667 0
25.835000 -0.244153 2
25.840000 -0.230128 0
25.845000 -0.151521 0
25.850000 0.007974 0
25.855000 0.251466 0
25.860000 0.557505 0
25.865000 0.870904 0
25.870000 1.110013 0
25.875000 1.197591 3
25.880000 1.099550 0
25.885000 0.844725 0
25.890000 0.510452 0
25.895000 0.181040 0
25.900000 -0.083636 0
25.905000 -0.256121 0
25.910000 -0.334390 4
25.915000 -0.333604 0
25.920000 -0.280085 0
25.925000 -0.203916 0
25.930000 -0.129865 0
25.935000 -0.071231 0
25.940000 -0.030008 0
25.945000 -0.001633 0
25.950000 0.019867 0
25.955000 0.039019 0
25.960000 0.058368 0
25.965000 0.079027 0
25.970000 0.101342 0
25.975000 0.125315 0
25.980000 0.150782 0
25.985000 0.177484 0
25.990000 0.205085 0
25.995000 0.233183 0
26.000000 0.261312 0
26.005000 0.288960 0
26.010000 0.315578 0
26.015000 0.340601 0
26.020000 0.363462 0
26.025000 0.383617 0
26.030000 0.400565 0
26.035000 0.413866 0
26.040000 0.423162 0
26.045000 0.428191 0
26.050000 0.428799 5
26.055000 0.424946 0
26.060000 0.416711 0
26.065000 0.404285 0
26.070000 0.387966 0
26.075000 0.368146 0
26.080000 0.345293 0
26.085000 0.319936 0
26.090000 0.292641 0
26.095000 0.263990 0
26.100000 0.234562 0
26.105000 0.204914 0
26.110000 0.175562 0
26.115000 0.146968 0
26.120000 0.119531 0
26.125000 0.093581 0
26.130000 0.069371 0
26.135000 0.047084 0
26.140000 0.026833 0
26.145000 0.008664 0
26.150000 -0.007431 0
26.155000 -0.021509 0
26.160000 -0.033665 0
26.165000 -0.044026 0
26.170000 -0.052736 0
26.175000 -0.059954 0
26.180000 -0.065843 0
26.185000 -0.070565 0
26.190000 -0.074276 0
26.195000 -0.077124 0
26.200000 -0.079242 0
26.205000 -0.080753 0
26.210000 -0.081765 0
26.215000 -0.082370 0
26.220000 -0.082648 0
26.225000 -0.082667 0
26.230000 -0.081971 0
26.235000 -0.081157 0
26.240000 -0.080348 0
26.245000 -0.079542 0
26.250000 -0.078741 0
26.255000 -0.077943 0
26.260000 -0.077150 0
26.265000 -0.076360 0
26.270000 -0.075574 0
26.275000 -0.074792 0
26.280000 -0.074014 0
26.285000 -0.073239 0
26.290000 -0.072466 0
26.295000 -0.071696 0
26.300000 -0.070924 0
26.305000 -0.070149 0
26.310000 -0.069365 0
26.315000 -0.068560 0
26.320000 -0.067719 0
26.325000 -0.066816 0
26.330000 -0.065811 0
26.335000 -0.064644 0
26.340000 -0.063230 0
26.345000 -0.061448 0
26.350000 -0.059134 0
26.355000 -0.056076 0
26.360000 -0.052007 0
26.365000 -0.046610 0
26.370000 -0.039522 0
26.375000 -0.030357 0
26.380000 -0.018735 0
26.385000 -0.004325 0
26.390000 0.013100 0
26.395000 0.033610 0
26.400000 0.057056 0
26.405000 0.083028 0
26.410000 0.110827 0
26.415000 0.139472 0
26.420000 0.167737 0
26.425000 0.194229 0
26.430000 0.217494 0
26.435000 0.236148 0
26.440000 0.249010 0
26.445000 0.255227 1
26.450000 0.254365 0
26.455000 0.246459 0
26.460000 0.232011 0
26.465000 0.211934 0
26.470000 0.187459 0
26.475000 0.160009 0
26.480000 0.131055 0
26.485000 0.101981 0
26.490000 0.073932 0
26.495000 0.047617 0
26.500000 0.023011 0
26.505000 -0.001092 0
26.510000 -0.027422 0
26.515000 -0.059884 0
26.520000 -0.101673 0
26.525000 -0.151783 0
26.530000 -0.201516 0
26.535000 -0.233640 2
26.540000 -0.225438 0
26.545000 -0.153981 0
26.550000 -0.001717 0
26.555000 0.236060 0
26.560000 0.539536 0
26.565000 0.854202 0
26.570000 1.097139 0
26.575000 1.188421 3
26.580000 1.091931 0
26.585000 0.836704 0
26.590000 0.501966 0
26.595000 0.173794 0
26.600000 -0.087429 0
26.605000 -0.254793 0
26.610000 -0.327318 4
26.615000 -0.321450 0
26.620000 -0.264744 0
26.625000 -0.187882 0
26.630000 -0.115211 0
26.635000 -0.058905 0
26.640000 -0.019847 0
26.645000 0.007098 0
26.650000 0.027938 0
26.655000 0.046971 0
26.660000 0.066491 0
26.665000 0.087450 0
26.670000 0.110107 0
26.675000 0.134417 0
26.680000 0.160187 0
26.685000 0.187134 0
26.690000 0.214894 0
26.695000 0.243038 0
26.700000 0.271074 0
26.705000 0.298465 0
26.710000 0.324641 0
26.715000 0.349021 0
26.720000 0.371030 0
26.725000 0.390121 0
26.730000 0.405800 0
26.735000 0.417646 0
26.740000 0.425325 0
26.745000 0.428611 5
26.750000 0.427392 0
26.755000 0.421676 0
26.760000 0.411592 0
26.765000 0.397386 0
26.770000 0.379406 0
26.775000 0.358094 0
26.780000 0.333959 0
26.785000 0.307565 0
26.790000 0.279502 0
26.795000 0.250369 0
26.800000 0.220747 0
26.805000 0.191188 0
26.810000 0.162192 0
26.815000 0.134198 0
26.820000 0.107574 0
26.825000 0.082613 0
26.830000 0.059533 0
26.835000 0.038475 0
26.840000 0.019513 0
26.845000 0.002660 0
26.850000 -0.012128 0
26.855000 -0.024935 0
26.860000 -0.035881 0
26.865000 -0.045109 0
26.870000 -0.052777 0
26.875000 -0.059053 0
26.880000 -0.064101 0
26.885000 -0.068086 0
26.890000 -0.071160 0
26.895000 -0.073465 0
26.900000 -0.075128 0
26.905000 -0.076263 0
26.910000 -0.076968 0
26.915000 -0.077328 0
26.920000 -0.077414 0
26.925000 -0.076749 0
26.930000 -0.075962 0
26.935000 -0.075178 0
26.940000 -0.074398 0
26.945000 -0.073623 0
26.950000 -0.072851 0
26.955000 -0.072082 0
26.960000 -0.071318 0
26.965000 -0.070557 0
26.970000 -0.069800 0
26.975000 -0.069047 0
26.980000 -0.068297 0
26.985000 -0.067549 0
26.990000 -0.066803 0
26.995000 -0.066056 0
27.000000 -0.065305 0
27.005000 -0.064543 0
27.010000 -0.063761 0
27.015000 -0.062941 0
27.020000 -0.062056 0
27.025000 -0.061063 0
27.030000 -0.059899 0
27.035000 -0.058474 0
27.040000 -0.056659 0
27.045000 -0.054281 0
27.050000 -0.051114 0
27.055000 -0.046879 0
27.060000 -0.041239 0
27.065000 -0.033820 0
27.070000 -0.024222 0
27.075000 -0.012064 0
27.080000 0.002977 0
27.085000 0.021104 0
27.090000 0.042340 0
27.095000 0.066471 0
27.100000 0.093002 0
27.105000 0.121138 0
27.110000 0.149797 0
27.115000 0.177663 0
27.120000 0.203276 0
27.125000 0.225154 0
27.130000 0.241934 0
27.135000 0.252507 0
27.140000 0.256144 1
27.145000 0.252572 0
27.150000 0.242013 0
27.155000 0.225153 0
27.160000 0.203076 0
27.165000 0.177139 0
27.170000 0.148839 0
27.175000 0.119662 0
27.180000 0.090934 0
27.185000 0.063650 0
27.190000 0.038224 0
27.195000 0.014096 0
27.200000 -0.010737 0
27.205000 -0.039818 0
27.210000 -0.077115 0
27.215000 -0.124072 0
27.220000 -0.175625 0
27.225000 -0.217773 0
27.230000 -0.229040 2
27.235000 -0.185345 0
27.240000 -0.065792 0
27.245000 0.140682 0
27.250000 0.424712 0
27.255000 0.743802 0
27.260000 1.020844 0
27.265000 1.168191 3
27.270000 1.130313 0
27.275000 0.916197 0
27.280000 0.595431 0
27.285000 0.257846 0
27.290000 -0.025843 0
27.295000 -0.219279 0
27.300000 -0.315366 0
27.305000 -0.326875 4
27.310000 -0.279629 0
27.315000 -0.204941 0
27.320000 -0.129818 0
27.325000 -0.069583 0
27.330000 -0.027255 0
27.335000 0.001600 0
27.340000 0.023212 0
27.345000 0.042358 0
27.350000 0.061706 0
27.355000 0.082405 0
27.360000 0.104804 0
27.365000 0.128888 0
27.370000 0.154482 0
27.375000 0.181305 0
27.380000 0.209000 0
27.385000 0.237137 0
27.390000 0.265223 0
27.395000 0.292716 0
27.400000 0.319039 0
27.405000 0.343599 0
27.410000 0.365811 0
27.415000 0.385116 0
27.420000 0.401008 0
27.425000 0.413053 0
27.430000 0.420909 0
27.435000 0.424339 5
27.440000 0.423226 0
27.445000 0.417578 0
27.450000 0.407522 0
27.455000 0.393309 0
27.460000 0.375295 0
27.465000 0.353927 0
27.470000 0.329728 0
27.475000 0.303270 0
27.480000 0.275155 0
27.485000 0.245991 0
27.490000 0.216370 0
27.495000 0.186847 0
27.500000 0.157929 0
27.505000 0.130056 0
27.510000 0.103594 0
27.515000 0.078836 0
27.520000 0.055993 0
27.525000 0.035202 0
27.530000 0.016529 0
27.535000 -0.000022 0
27.540000 -0.014500 0
27.545000 -0.026998 0
27.550000 -0.037642 0
27.555000 -0.046580 0
27.560000 -0.053977 0
27.565000 -0.060000 0
27.570000 -0.064821 0
27.575000 -0.068601 0
27.580000 -0.071494 0
27.585000 -0.073642 0
27.590000 -0.075171 0
27.595000 -0.076193 0
27.600000 -0.076804 0
27.605000 -0.077087 0
27.610000 -0.076993 0
27.615000 -0.076204 0
27.620000 -0.075419 0
27.625000 -0.074639 0
27.630000 -0.073861 0
27.635000 -0.073088 0
27.640000 -0.072319 0
27.645000 -0.071553 0
27.650000 -0.070792 0
27.655000 -0.070034 0
27.660000 -0.069279 0
27.665000 -0.068528 0
27.670000 -0.067780 0
27.675000 -0.067034 0
27.680000 -0.066289 0
27.685000 -0.065542 0
27.690000 -0.064789 0
27.695000 -0.064022 0
27.700000 -0.063227 0
27.705000 -0.062383 0
27.710000 -0.061457 0
27.715000 -0.060397 0
27.720000 -0.059127 0
27.725000 -0.057538 0
27.730000 -0.055479 0
27.735000 -0.052750 0
27.740000 -0.049093 0
27.745000 -0.044195 0
27.750000 -0.037693 0
27.755000 -0.029189 0
27.760000 -0.018281 0
27.765000 -0.004605 0
27.770000 0.012109 0
27.775000 0.031974 0
27.780000 0.054888 0
27.785000 0.080476 0
27.790000 0.108060 0
27.795000 0.136657 0
27.800000 0.165019 0
27.805000 0.191706 0
27.810000 0.215204 0
27.815000 0.234061 0
27.820000 0.247038 0
27.825000 0.253237 1
27.830000 0.252208 0
27.835000 0.243998 0
27.840000 0.229152 0
27.845000 0.208645 0
27.850000 0.183783 0
27.855000 0.156059 0
27.860000 0.127003 0
27.865000 0.098030 0
27.870000 0.070270 0
27.875000 0.044344 0
27.880000 0.020001 0
27.885000 -0.004369 0
27.890000 -0.032009 0
27.895000 -0.067048 0
27.900000 -0.111925 0
27.905000 -0.163339 0
27.910000 -0.209103 0
27.915000 -0.228671 2
27.920000 -0.197623 0
27.925000 -0.093607 0
27.930000 0.097161 0
27.935000 0.369869 0
27.940000 0.687704 0
27.945000 0.977102 0
27.950000 1.147999 3
27.955000 1.137009 0
27.960000 0.944107 0
27.965000 0.632514 0
27.970000 0.292469 0
27.975000 -0.000909 0
27.980000 -0.206610 0
27.985000 -0.314331 0
27.990000 -0.334852 4
27.995000 -0.292902 0
28.000000 -0.219805 0
28.005000 -0.143693 0
28.010000 -0.081461 0
28.015000 -0.037326 0
28.020000 -0.007336 0
28.025000 0.014787 0
28.030000 0.034059 0
28.035000 0.053353 0
28.040000 0.073937 0
28.045000 0.096213 0
28.050000 0.120190 0
28.055000 0.145699 0
28.060000 0.172468 0
28.065000 0.200143 0
28.070000 0.228297 0
28.075000 0.256438 0
28.080000 0.284025 0
28.085000 0.310478 0
28.090000 0.335203 0
28.095000 0.357610 0
28.100000 0.377134 0
28.105000 0.393262 0
28.110000 0.405554 0
28.115000 0.413660 0
28.120000 0.417336 5
28.125000 0.416460 0
28.130000 0.411031 0
28.135000 0.401176 0
28.140000 0.387140 0
28.145000 0.369277 0
28.150000 0.348035 0
28.155000 0.323938 0
28.160000 0.297560 0
28.165000 0.269506 0
28.170000 0.240387 0
28.175000 0.210799 0
28.180000 0.181302 0
28.185000 0.152404 0
28.190000 0.124550 0
28.195000 0.098110 0
28.200000 0.073377 0
28.205000 0.050564 0
28.210000 0.029807 0
28.215000 0.011175 0
28.220000 -0.005330 0
28.225000 -0.019757 0
28.230000 -0.032201 0
28.235000 -0.042787 0
28.240000 -0.051667 0
28.245000 -0.059004 0
28.250000 -0.064969 0
28.255000 -0.069733 0
28.260000 -0.073458 0
28.265000 -0.076299 0
28.270000 -0.078398 0
28.275000 -0.079881 0
28.280000 -0.080860 0
28.285000 -0.081431 0
28.290000 -0.081676 0
28.295000 -0.081550 0
28.300000 -0.080738 0
28.305000 -0.079931 0
28.310000 -0.079127 0
28.315000 -0.078328 0
28.320000 -0.077532 0
28.325000 -0.076741 0
28.330000 -0.075953 0
28.335000 -0.075170 0
28.340000 -0.074390 0
28.345000 -0.073613 0
28.350000 -0.072841 0
28.355000 -0.072071 0
28.360000 -0.071304 0
28.365000 -0.070537 0
28.370000 -0.069768 0
28.375000 -0.068992 0
