0.000000 1.165452 3
0.005000 1.040948 0
0.010000 0.731319 0
0.015000 0.349689 0
0.020000 0.005969 0
0.025000 -0.235314 0
0.030000 -0.355990 0
0.035000 -0.369654 4
0.040000 -0.310034 0
0.045000 -0.218956 0
0.050000 -0.130948 0
0.055000 -0.062830 0
0.060000 -0.014969 0
0.065000 0.020035 0
0.070000 0.049624 0
0.075000 0.078275 0
0.080000 0.107810 0
0.085000 0.138582 0
0.090000 0.170300 0
0.095000 0.202414 0
0.100000 0.234247 0
0.105000 0.265050 0
0.110000 0.294032 0
0.115000 0.320397 0
0.120000 0.343378 0
0.125000 0.362273 0
0.130000 0.376480 0
0.135000 0.385529 0
0.140000 0.389107 5
0.145000 0.387076 0
0.150000 0.379480 0
0.155000 0.366542 0
0.160000 0.348655 0
0.165000 0.326361 0
0.170000 0.300324 0
0.175000 0.271293 0
0.180000 0.240071 0
0.185000 0.207475 0
0.190000 0.174302 0
0.195000 0.141297 0
0.200000 0.109129 0
0.205000 0.078370 0
0.210000 0.049480 0
0.215000 0.022808 0
0.220000 -0.001412 0
0.225000 -0.023054 0
0.230000 -0.042085 0
0.235000 -0.058556 0
0.240000 -0.072585 0
0.245000 -0.084338 0
0.250000 -0.094016 0
0.255000 -0.101839 0
0.260000 -0.108036 0
0.265000 -0.112831 0
0.270000 -0.116438 0
0.275000 -0.119055 0
0.280000 -0.120860 0
0.285000 -0.121697 0
0.290000 -0.120702 0
0.295000 -0.119711 0
0.300000 -0.118726 0
0.305000 -0.117745 0
0.310000 -0.116769 0
0.315000 -0.115797 0
0.320000 -0.114828 0
0.325000 -0.113860 0
0.330000 -0.112889 0
0.335000 -0.111909 0
0.340000 -0.110907 0
0.345000 -0.109862 0
0.350000 -0.108739 0
0.355000 -0.107479 0
0.360000 -0.105993 0
0.365000 -0.104147 0
0.370000 -0.101748 0
0.375000 -0.098532 0
0.380000 -0.094151 0
0.385000 -0.088178 0
0.390000 -0.080110 0
0.395000 -0.069405 0
0.400000 -0.055536 0
0.405000 -0.038061 0
0.410000 -0.016724 0
0.415000 0.008448 0
0.420000 0.037049 0
0.425000 0.068238 0
0.430000 0.100723 0
0.435000 0.132820 0
0.440000 0.162574 0
0.445000 0.187952 0
0.450000 0.207066 0
0.455000 0.218405 0
0.460000 0.221036 1
0.465000 0.214726 0
0.470000 0.199982 0
0.475000 0.177979 0
0.480000 0.150408 0
0.485000 0.119254 0
0.490000 0.086527 0
0.495000 0.053919 0
0.500000 0.022304 0
0.505000 -0.009033 0
0.510000 -0.043139 0
0.515000 -0.085006 0
0.520000 -0.138367 0
0.525000 -0.199604 0
0.530000 -0.252470 0
0.535000 -0.268815 2
0.540000 -0.215894 0
0.545000 -0.065912 0
0.550000 0.192404 0
0.555000 0.535166 0
0.560000 0.885589 0
0.565000 1.126257 0
0.570000 1.156783 3
0.575000 0.960704 0
0.580000 0.614130 0
0.585000 0.234215 0
0.590000 -0.082821 0
0.595000 -0.288747 0
0.600000 -0.376425 4
0.605000 -0.365867 0
0.610000 -0.293758 0
0.615000 -0.200734 0
0.620000 -0.116782 0
0.625000 -0.053869 0
0.630000 -0.009668 0
0.635000 0.023618 0
0.640000 0.052758 0
0.645000 0.081514 0
0.650000 0.111295 0
0.655000 0.142279 0
0.660000 0.174117 0
0.665000 0.206241 0
0.670000 0.237974 0
0.675000 0.268571 0
0.680000 0.297256 0
0.685000 0.323248 0
0.690000 0.345801 0
0.695000 0.364236 0
0.700000 0.377974 0
0.705000 0.386569 0
0.710000 0.389728 5
0.715000 0.387328 0
0.720000 0.379424 0
0.725000 0.366245 0
0.730000 0.348185 0
0.735000 0.325780 0
0.740000 0.299683 0
0.745000 0.270633 0
0.750000 0.239417 0
0.755000 0.206837 0
0.760000 0.173674 0
0.765000 0.140662 0
0.770000 0.108458 0
0.775000 0.077628 0
0.780000 0.048629 0
0.785000 0.021810 0
0.790000 -0.002593 0
0.795000 -0.024447 0
0.800000 -0.043714 0
0.805000 -0.060436 0
0.810000 -0.074723 0
0.815000 -0.086733 0
0.820000 -0.096660 0
0.825000 -0.104718 0
0.830000 -0.111131 0
0.835000 -0.116121 0
0.840000 -0.119900 0
0.845000 -0.122664 0
0.850000 -0.124592 0
0.855000 -0.125841 0
0.860000 -0.125152 0
0.865000 -0.124140 0
0.870000 -0.123132 0
0.875000 -0.122130 0
0.880000 -0.121132 0
0.885000 -0.120138 0
0.890000 -0.119148 0
0.895000 -0.118160 0
0.900000 -0.117170 0
0.905000 -0.116174 0
0.910000 -0.115161 0
0.915000 -0.114113 0
0.920000 -0.113001 0
0.925000 -0.111776 0
0.930000 -0.110362 0
0.935000 -0.108644 0
0.940000 -0.106454 0
0.945000 -0.103561 0
0.950000 -0.099656 0
0.955000 -0.094348 0
0.960000 -0.087171 0
0.965000 -0.077603 0
0.970000 -0.065114 0
0.975000 -0.049224 0
0.980000 -0.029592 0
0.985000 -0.006109 0
0.990000 0.021003 0
0.995000 0.051122 0
1.000000 0.083185 0
1.005000 0.115712 0
1.010000 0.146896 0
1.015000 0.174755 0
1.020000 0.197334 0
1.025000 0.212932 0
1.030000 0.220315 1
1.035000 0.218876 0
1.040000 0.208716 0
1.045000 0.190639 0
1.050000 0.166043 0
1.055000 0.136738 0
1.060000 0.104717 0
1.065000 0.071873 0
1.070000 0.039623 0
1.075000 0.008323 0
1.080000 -0.023529 0
1.085000 -0.059784 0
1.090000 -0.105447 0
1.095000 -0.162432 0
1.100000 -0.223374 0
1.105000 -0.268026 2
1.110000 -0.266334 0
1.115000 -0.186649 0
1.120000 -0.005123 0
1.125000 0.281515 0
1.130000 0.636354 0
1.135000 0.970019 0
1.140000 1.164664 3
1.145000 1.137611 0
1.150000 0.896257 0
1.155000 0.531295 0
1.160000 0.158841 0
1.165000 -0.135780 0
1.170000 -0.315145 0
1.175000 -0.379174 4
1.180000 -0.352145 0
1.185000 -0.272499 0
1.190000 -0.179450 0
1.195000 -0.099318 0
1.200000 -0.040557 0
1.205000 0.000907 0
1.210000 0.032970 0
1.215000 0.061824 0
1.220000 0.090688 0
1.225000 0.120667 0
1.230000 0.151808 0
1.235000 0.183715 0
1.240000 0.215802 0
1.245000 0.247384 0
1.250000 0.277717 0
1.255000 0.306026 0
1.260000 0.331541 0
1.265000 0.353529 0
1.270000 0.371330 0
1.275000 0.384385 0
1.280000 0.392272 0
1.285000 0.394720 5
1.290000 0.391629 0
1.295000 0.383075 0
1.300000 0.369306 0
1.305000 0.350728 0
1.310000 0.327888 0
1.315000 0.301443 0
1.320000 0.272131 0
1.325000 0.240737 0
1.330000 0.208056 0
1.335000 0.174859 0
1.340000 0.141868 0
1.345000 0.109729 0
1.350000 0.078995 0
1.355000 0.050113 0
1.360000 0.023420 0
1.365000 -0.000856 0
1.370000 -0.022589 0
1.375000 -0.041744 0
1.380000 -0.058370 0
1.385000 -0.072575 0
1.390000 -0.084520 0
1.395000 -0.094397 0
1.400000 -0.102419 0
1.405000 -0.108809 0
1.410000 -0.113785 0
1.415000 -0.117559 0
1.420000 -0.120325 0
1.425000 -0.122260 0
1.430000 -0.123519 0
1.435000 -0.122842 0
1.440000 -0.121841 0
1.445000 -0.120845 0
1.450000 -0.119854 0
1.455000 -0.118867 0
1.460000 -0.117885 0
1.465000 -0.116906 0
1.470000 -0.115929 0
1.475000 -0.114951 0
1.480000 -0.113967 0
1.485000 -0.112966 0
1.490000 -0.111931 0
1.495000 -0.110835 0
1.500000 -0.109629 0
1.505000 -0.108240 0
1.510000 -0.106557 0
1.515000 -0.104418 0
1.520000 -0.101597 0
1.525000 -0.097794 0
1.530000 -0.092628 0
1.535000 -0.085641 0
1.540000 -0.076322 0
1.545000 -0.064140 0
1.550000 -0.048614 0
1.555000 -0.029386 0
1.560000 -0.006322 0
1.565000 0.020399 0
1.570000 0.050206 0
1.575000 0.082093 0
1.580000 0.114642 0
1.585000 0.146091 0
1.590000 0.174487 0
1.595000 0.197875 0
1.600000 0.214521 0
1.605000 0.223126 1
1.610000 0.222990 0
1.615000 0.214108 0
1.620000 0.197177 0
1.625000 0.173499 0
1.630000 0.144820 0
1.635000 0.113105 0
1.640000 0.080269 0
1.645000 0.047834 0
1.650000 0.016396 0
1.655000 -0.015141 0
1.660000 -0.050178 0
1.665000 -0.093690 0
1.670000 -0.148643 0
1.675000 -0.210012 0
1.680000 -0.260299 0
1.685000 -0.271134 2
1.690000 -0.210698 0
1.695000 -0.052808 0
1.700000 0.211749 0
1.705000 0.557063 0
1.710000 0.905950 0
1.715000 1.143436 0
1.720000 1.172654 3
1.725000 0.976659 0
1.730000 0.630119 0
1.735000 0.250088 0
1.740000 -0.067225 0
1.745000 -0.273528 0
1.750000 -0.361609 4
1.755000 -0.351399 0
1.760000 -0.279516 0
1.765000 -0.186577 0
1.770000 -0.102613 0
1.775000 -0.039664 0
1.780000 0.004547 0
1.785000 0.037803 0
1.790000 0.066883 0
1.795000 0.095563 0
1.800000 0.125265 0
1.805000 0.156169 0
1.810000 0.187931 0
1.815000 0.219986 0
1.820000 0.251655 0
1.825000 0.282197 0
1.830000 0.310835 0
1.835000 0.336790 0
1.840000 0.359314 0
1.845000 0.377729 0
1.850000 0.391456 0
1.855000 0.400046 0
1.860000 0.403205 5
1.865000 0.400809 0
1.870000 0.392909 0
1.875000 0.379733 0
1.880000 0.361672 0
1.885000 0.339259 0
1.890000 0.313147 0
1.895000 0.284071 0
1.900000 0.252818 0
1.905000 0.220189 0
1.910000 0.186966 0
1.915000 0.153882 0
1.920000 0.121596 0
1.925000 0.090674 0
1.930000 0.061576 0
1.935000 0.034652 0
1.940000 0.010140 0
1.945000 -0.011826 0
1.950000 -0.031205 0
1.955000 -0.048039 0
1.960000 -0.062436 0
1.965000 -0.074552 0
1.970000 -0.084581 0
1.975000 -0.092738 0
1.980000 -0.099245 0
1.985000 -0.104323 0
1.990000 -0.108186 0
1.995000 -0.111030 0
2.000000 -0.113035 0
2.005000 -0.114356 0
2.010000 -0.113727 0
2.015000 -0.112772 0
2.020000 -0.111821 0
2.025000 -0.110875 0
2.030000 -0.109933 0
2.035000 -0.108995 0
2.040000 -0.108061 0
2.045000 -0.107128 0
2.050000 -0.106193 0
2.055000 -0.105252 0
2.060000 -0.104295 0
2.065000 -0.103303 0
2.070000 -0.102247 0
2.075000 -0.101080 0
2.080000 -0.099727 0
2.085000 -0.098074 0
2.090000 -0.095956 0
2.095000 -0.093143 0
2.100000 -0.089329 0
2.105000 -0.084127 0
2.110000 -0.077072 0
2.115000 -0.067647 0
2.120000 -0.055319 0
2.125000 -0.039606 0
2.130000 -0.020160 0
2.135000 0.003136 0
2.140000 0.030075 0
2.145000 0.060049 0
2.150000 0.092014 0
2.155000 0.124504 0
2.160000 0.155725 0
2.165000 0.183698 0
2.170000 0.206466 0
2.175000 0.222315 0
2.180000 0.229991 1
2.185000 0.228858 0
2.190000 0.218991 0
2.195000 0.201165 0
2.200000 0.176756 0
2.205000 0.147560 0
2.210000 0.115566 0
2.215000 0.082677 0
2.220000 0.050336 0
2.225000 0.018963 0
2.230000 -0.012846 0
2.235000 -0.048844 0
2.240000 -0.094046 0
2.245000 -0.150635 0
2.250000 -0.211784 0
2.255000 -0.257841 0
2.260000 -0.259068 2
2.265000 -0.183710 0
2.270000 -0.007341 0
2.275000 0.274680 0
2.280000 0.627839 0
2.285000 0.965189 0
2.290000 1.169099 3
2.295000 1.151898 0
2.300000 0.914262 0
2.305000 0.549299 0
2.310000 0.177934 0
2.315000 -0.111954 0
2.320000 -0.283318 0
2.325000 -0.338097 4
2.330000 -0.303374 0
2.335000 -0.220082 0
2.340000 -0.128008 0
2.345000 -0.051734 0
2.350000 0.002831 0
2.355000 0.041376 0
2.360000 0.072049 0
2.365000 0.100548 0
2.370000 0.129533 0
2.375000 0.159749 0
2.380000 0.191057 0
2.385000 0.222960 0
2.390000 0.254805 0
2.395000 0.285847 0
2.400000 0.315294 0
2.405000 0.342333 0
2.410000 0.366173 0
2.415000 0.386079 0
2.420000 0.401408 0
2.425000 0.411646 0
2.430000 0.416433 5
2.435000 0.415582 0
2.440000 0.409096 0
2.445000 0.397160 0
2.450000 0.380137 0
2.455000 0.358548 0
2.460000 0.333045 0
2.465000 0.304374 0
2.470000 0.273345 0
2.475000 0.240787 0
2.480000 0.207517 0
2.485000 0.174301 0
2.490000 0.141832 0
2.495000 0.110708 0
2.500000 0.081411 0
2.505000 0.054312 0
2.510000 0.029663 0
2.515000 0.007603 0
2.520000 -0.011825 0
2.525000 -0.028665 0
2.530000 -0.043030 0
2.535000 -0.055086 0
2.540000 -0.065035 0
2.545000 -0.073101 0
2.550000 -0.079514 0
2.555000 -0.084504 0
2.560000 -0.088288 0
2.565000 -0.091068 0
2.570000 -0.093024 0
2.575000 -0.094005 0
2.580000 -0.093148 0
2.585000 -0.092295 0
2.590000 -0.091446 0
2.595000 -0.090602 0
2.600000 -0.089761 0
2.605000 -0.088923 0
2.610000 -0.088088 0
2.615000 -0.087253 0
2.620000 -0.086415 0
2.625000 -0.085565 0
2.630000 -0.084692 0
2.635000 -0.083772 0
2.640000 -0.082768 0
2.645000 -0.081618 0
2.650000 -0.080228 0
2.655000 -0.078454 0
2.660000 -0.076094 0
2.665000 -0.072867 0
2.670000 -0.068410 0
2.675000 -0.062276 0
2.680000 -0.053945 0
2.685000 -0.042866 0
2.690000 -0.028509 0
2.695000 -0.010454 0
2.700000 0.011515 0
2.705000 0.037303 0
2.710000 0.066412 0
2.715000 0.097892 0
2.720000 0.130336 0
2.725000 0.161957 0
2.730000 0.190732 0
2.735000 0.214608 0
2.740000 0.231742 0
2.745000 0.240733 0
2.750000 0.240810 1
2.755000 0.231945 0
2.760000 0.214851 0
2.765000 0.190896 0
2.770000 0.161912 0
2.775000 0.129952 0
2.780000 0.097001 0
2.785000 0.064578 0
2.790000 0.033134 0
2.795000 0.001202 0
2.800000 -0.035152 0
2.805000 -0.081095 0
2.810000 -0.138496 0
2.815000 -0.199319 0
2.820000 -0.241978 2
2.825000 -0.234976 0
2.830000 -0.145860 0
2.835000 0.048570 0
2.840000 0.347781 0
2.845000 0.706226 0
2.850000 1.023985 0
2.855000 1.180236 3
2.860000 1.104836 0
2.865000 0.826813 0
2.870000 0.450372 0
2.875000 0.090723 0
2.880000 -0.176667 0
2.885000 -0.324563 0
2.890000 -0.360487 4
2.895000 -0.314301 0
2.900000 -0.227067 0
2.905000 -0.136139 0
2.910000 -0.062771 0
2.915000 -0.010601 0
2.920000 0.026715 0
2.925000 0.057033 0
2.930000 0.085590 0
2.935000 0.114755 0
2.940000 0.145147 0
2.945000 0.176593 0
2.950000 0.208592 0
2.955000 0.240497 0
2.960000 0.271578 0
2.965000 0.301058 0
2.970000 0.328141 0
2.975000 0.352054 0
2.980000 0.372076 0
2.985000 0.387579 0
2.990000 0.398054 0
2.995000 0.403146 5
3.000000 0.402665 0
3.005000 0.396601 0
3.010000 0.385128 0
3.015000 0.368587 0
3.020000 0.347476 0
3.025000 0.322423 0
3.030000 0.294151 0
3.035000 0.263447 0
3.040000 0.231122 0
3.045000 0.197979 0
3.050000 0.164780 0
3.055000 0.132214 0
3.060000 0.100883 0
3.065000 0.071281 0
3.070000 0.043793 0
3.075000 0.018686 0
3.080000 -0.003878 0
3.085000 -0.023840 0
3.090000 -0.041223 0
3.095000 -0.056123 0
3.100000 -0.068692 0
3.105000 -0.079119 0
3.110000 -0.087619 0
3.115000 -0.094417 0
3.120000 -0.099738 0
3.125000 -0.103801 0
3.130000 -0.106808 0
3.135000 -0.108943 0
3.140000 -0.110369 0
3.145000 -0.109772 0
3.150000 -0.108836 0
3.155000 -0.107905 0
3.160000 -0.106979 0
3.165000 -0.106056 0
3.170000 -0.105138 0
3.175000 -0.104223 0
3.180000 -0.103310 0
3.185000 -0.102395 0
3.190000 -0.101474 0
3.195000 -0.100536 0
3.200000 -0.099566 0
3.205000 -0.098532 0
3.210000 -0.097389 0
3.215000 -0.096061 0
3.220000 -0.094433 0
3.225000 -0.092340 0
3.230000 -0.089549 0
3.235000 -0.085749 0
3.240000 -0.080548 0
3.245000 -0.073473 0
3.250000 -0.063998 0
3.255000 -0.051583 0
3.260000 -0.035743 0
3.265000 -0.016131 0
3.270000 0.007358 0
3.275000 0.034494 0
3.280000 0.064632 0
3.285000 0.096682 0
3.290000 0.129128 0
3.295000 0.160126 0
3.300000 0.187660 0
3.305000 0.209760 0
3.310000 0.224726 0
3.315000 0.231349 1
3.320000 0.229070 0
3.325000 0.218056 0
3.330000 0.199186 0
3.335000 0.173927 0
3.340000 0.144149 0
3.345000 0.111875 0
3.350000 0.078988 0
3.355000 0.046822 0
3.360000 0.015530 0
3.365000 -0.016747 0
3.370000 -0.054232 0
3.375000 -0.101866 0
3.380000 -0.160458 0
3.385000 -0.220388 0
3.390000 -0.258920 2
3.395000 -0.244589 0
3.400000 -0.146080 0
3.405000 0.057861 0
3.410000 0.363855 0
3.415000 0.723320 0
3.420000 1.035513 0
3.425000 1.182703 3
3.430000 1.099116 0
3.435000 0.816026 0
3.440000 0.438529 0
3.445000 0.080552 0
3.450000 -0.184195 0
3.455000 -0.329633 0
3.460000 -0.363804 4
3.465000 -0.316700 0
3.470000 -0.229210 0
3.475000 -0.138349 0
3.480000 -0.065086 0
3.485000 -0.012952 0
3.490000 0.024379 0
3.495000 0.054720 0
3.500000 0.083288 0
3.505000 0.112452 0
3.510000 0.142840 0
3.515000 0.174282 0
3.520000 0.206285 0
3.525000 0.238207 0
3.530000 0.269326 0
3.535000 0.298866 0
3.540000 0.326040 0
3.545000 0.350077 0
3.550000 0.370257 0
3.555000 0.385952 0
3.560000 0.396653 0
3.565000 0.401998 5
3.570000 0.401791 0
3.575000 0.396015 0
3.580000 0.384831 0
3.585000 0.368572 0
3.590000 0.347724 0
3.595000 0.322904 0
3.600000 0.294826 0
3.605000 0.264270 0
3.610000 0.232041 0
3.615000 0.198940 0
3.620000 0.165727 0
3.625000 0.133095 0
3.630000 0.101649 0
3.635000 0.071891 0
3.640000 0.044210 0
3.645000 0.018884 0
3.650000 -0.003917 0
3.655000 -0.024124 0
3.660000 -0.041754 0
3.665000 -0.056896 0
3.670000 -0.069696 0
3.675000 -0.080338 0
3.680000 -0.089033 0
3.685000 -0.096006 0
3.690000 -0.101480 0
3.695000 -0.105674 0
3.700000 -0.108791 0
3.705000 -0.111017 0
3.710000 -0.112516 0
3.715000 -0.111921 0
3.720000 -0.110974 0
3.725000 -0.110032 0
3.730000 -0.109095 0
3.735000 -0.108162 0
3.740000 -0.107234 0
3.745000 -0.106308 0
3.750000 -0.105385 0
3.755000 -0.104461 0
3.760000 -0.103532 0
3.765000 -0.102589 0
3.770000 -0.101616 0
3.775000 -0.100587 0
3.780000 -0.099457 0
3.785000 -0.098159 0
3.790000 -0.096586 0
3.795000 -0.094584 0
3.800000 -0.091933 0
3.805000 -0.088342 0
3.810000 -0.083433 0
3.815000 -0.076752 0
3.820000 -0.067783 0
3.825000 -0.055988 0
3.830000 -0.040867 0
3.835000 -0.022040 0
3.840000 0.000655 0
3.845000 0.027066 0
3.850000 0.056645 0
3.855000 0.088401 0
3.860000 0.120915 0
3.865000 0.152413 0
3.870000 0.180914 0
3.875000 0.204427 0
3.880000 0.221182 0
3.885000 0.229847 1
3.890000 0.229703 0
3.895000 0.220743 0
3.900000 0.203678 0
3.905000 0.179839 0
3.910000 0.151006 0
3.915000 0.119178 0
3.920000 0.086296 0
3.925000 0.053873 0
3.930000 0.022441 0
3.935000 -0.009247 0
3.940000 -0.044814 0
3.945000 -0.089322 0
3.950000 -0.145323 0
3.955000 -0.206615 0
3.960000 -0.254069 0
3.965000 -0.258033 2
3.970000 -0.186372 0
3.975000 -0.013950 0
3.980000 0.264934 0
3.985000 0.617028 0
3.990000 0.956030 0
3.995000 1.163460 3
4.000000 1.152293 0
4.005000 0.924527 0
4.010000 0.565132 0
4.015000 0.189143 0
4.020000 -0.115292 0
4.025000 -0.307009 0
4.030000 -0.382840 4
4.035000 -0.364592 0
4.040000 -0.289155 0
4.045000 -0.195945 0
4.050000 -0.113120 0
4.055000 -0.051300 0
4.060000 -0.007698 0
4.065000 0.025379 0
4.070000 0.054480 0
4.075000 0.083230 0
4.080000 0.112996 0
4.085000 0.143952 0
4.090000 0.175761 0
4.095000 0.207872 0
4.100000 0.239626 0
4.105000 0.270298 0
4.110000 0.299128 0
4.115000 0.325354 0
4.120000 0.348241 0
4.125000 0.367117 0
4.130000 0.381407 0
4.135000 0.390656 0
4.140000 0.394558 5
4.145000 0.392969 0
4.150000 0.385918 0
4.155000 0.373603 0
4.160000 0.356381 0
4.165000 0.334753 0
4.170000 0.309339 0
4.175000 0.280846 0
4.180000 0.250037 0
4.185000 0.217695 0
4.190000 0.184594 0
4.195000 0.151463 0
4.200000 0.118969 0
4.205000 0.087689 0
4.210000 0.058101 0
4.215000 0.030579 0
4.220000 0.005386 0
4.225000 -0.017316 0
4.230000 -0.037463 0
4.235000 -0.055069 0
4.240000 -0.070221 0
4.245000 -0.083058 0
4.250000 -0.093758 0
4.255000 -0.102527 0
4.260000 -0.109578 0
4.265000 -0.115132 0
4.270000 -0.119401 0
4.275000 -0.122584 0
4.280000 -0.124864 0
4.285000 -0.126404 0
4.290000 -0.127061 0
4.295000 -0.126039 0
4.300000 -0.125022 0
4.305000 -0.124010 0
4.310000 -0.123003 0
4.315000 -0.122000 0
4.320000 -0.121002 0
4.325000 -0.120006 0
4.330000 -0.119012 0
4.335000 -0.118014 0
4.340000 -0.117006 0
4.345000 -0.115975 0
4.350000 -0.114901 0
4.355000 -0.113747 0
4.360000 -0.112457 0
4.365000 -0.110944 0
4.370000 -0.109079 0
4.375000 -0.106677 0
4.380000 -0.103489 0
4.385000 -0.099185 0
4.390000 -0.093360 0
4.395000 -0.085539 0
4.400000 -0.075203 0
4.405000 -0.061841 0
4.410000 -0.045011 0
4.415000 -0.024428 0
4.420000 -0.000058 0
4.425000 0.027796 0
4.430000 0.058430 0
4.435000 0.090714 0
4.440000 0.123128 0
4.445000 0.153858 0
4.450000 0.180954 0
4.455000 0.202531 0
4.460000 0.216986 0
4.465000 0.223190 1
4.470000 0.220642 0
4.475000 0.209530 0
4.480000 0.190710 0
4.485000 0.165601 0
4.490000 0.135999 0
4.495000 0.103858 0
4.500000 0.071011 0
4.505000 0.038803 0
4.510000 0.007522 0
4.515000 -0.024374 0
4.520000 -0.060703 0
4.525000 -0.106363 0
4.530000 -0.163243 0
4.535000 -0.224276 0
4.540000 -0.269929 0
4.545000 -0.270999 2
4.550000 -0.196395 0
4.555000 -0.022082 0
4.560000 0.257070 0
4.565000 0.608771 0
4.570000 0.949881 0
4.575000 1.165413 0
4.580000 1.166863 3
4.585000 0.948231 0
4.590000 0.591260 0
4.595000 0.214846 0
4.600000 -0.089227 0
4.605000 -0.278473 0
4.610000 -0.350238 4
4.615000 -0.327861 0
4.620000 -0.250020 0
4.625000 -0.157039 0
4.630000 -0.076468 0
4.635000 -0.017443 0
4.640000 0.024017 0
4.645000 0.055957 0
4.650000 0.084686 0
4.655000 0.113459 0
4.660000 0.143372 0
4.665000 0.174451 0
4.670000 0.206279 0
4.675000 0.238252 0
4.680000 0.269666 0
4.685000 0.299756 0
4.690000 0.327732 0
4.695000 0.352810 0
4.700000 0.374246 0
4.705000 0.391377 0
4.710000 0.403650 0
4.715000 0.410651 0
4.720000 0.412131 5
4.725000 0.408016 0
4.730000 0.398412 0
4.735000 0.383604 0
4.740000 0.364033 0
4.745000 0.340284 0
4.750000 0.313048 0
4.755000 0.283092 0
4.760000 0.251221 0
4.765000 0.218245 0
4.770000 0.184942 0
4.775000 0.152029 0
4.780000 0.120142 0
4.785000 0.089815 0
4.790000 0.061472 0
4.795000 0.035423 0
4.800000 0.011868 0
4.805000 -0.009098 0
4.810000 -0.027468 0
4.815000 -0.043315 0
4.820000 -0.056770 0
4.825000 -0.068010 0
4.830000 -0.077242 0
4.835000 -0.084688 0
4.840000 -0.090575 0
4.845000 -0.095123 0
4.850000 -0.098542 0
4.855000 -0.101022 0
4.860000 -0.102735 0
4.865000 -0.103540 0
4.870000 -0.102635 0
4.875000 -0.101735 0
4.880000 -0.100839 0
4.885000 -0.099947 0
4.890000 -0.099060 0
4.895000 -0.098176 0
4.900000 -0.097294 0
4.905000 -0.096412 0
4.910000 -0.095526 0
4.915000 -0.094628 0
4.920000 -0.093704 0
4.925000 -0.092730 0
4.930000 -0.091668 0
4.935000 -0.090454 0
4.940000 -0.088990 0
4.945000 -0.087133 0
4.950000 -0.084679 0
4.955000 -0.081348 0
4.960000 -0.076780 0
4.965000 -0.070535 0
4.970000 -0.062103 0
4.975000 -0.050944 0
4.980000 -0.036543 0
4.985000 -0.018487 0
4.990000 0.003437 0
4.995000 0.029142 0
5.000000 0.058157 0
5.005000 0.089572 0
5.010000 0.122036 0
5.015000 0.153823 0
5.020000 0.182967 0
5.025000 0.207453 0
5.030000 0.225449 0
5.035000 0.235526 0
5.040000 0.236848 1
5.045000 0.229285 0
5.050000 0.213436 0
5.055000 0.190545 0
5.060000 0.162342 0
5.065000 0.130818 0
5.070000 0.097951 0
5.075000 0.065358 0
5.080000 0.033771 0
5.085000 0.002256 0
5.090000 -0.032474 0
5.095000 -0.075457 0
5.100000 -0.129978 0
5.105000 -0.191408 0
5.110000 -0.242363 0
5.115000 -0.254108 2
5.120000 -0.194158 0
5.125000 -0.035753 0
5.130000 0.230330 0
5.135000 0.576845 0
5.140000 0.923630 0
5.145000 1.152911 0
5.150000 1.168610 3
5.155000 0.959070 0
5.160000 0.605430 0
5.165000 0.227949 0
5.170000 -0.078904 0
5.175000 -0.270761 0
5.180000 -0.344209 4
5.185000 -0.322548 0
5.190000 -0.244838 0
5.195000 -0.151903 0
5.200000 -0.071560 0
5.205000 -0.012896 0
5.210000 0.028245 0
5.215000 0.060004 0
5.220000 0.088682 0
5.225000 0.117478 0
5.230000 0.147439 0
5.235000 0.178559 0
5.240000 0.210403 0
5.245000 0.242351 0
5.250000 0.273685 0
5.255000 0.303628 0
5.260000 0.331379 0
5.265000 0.356145 0
5.270000 0.377180 0
5.275000 0.393822 0
5.280000 0.405523 0
5.285000 0.411883 0
5.290000 0.412668 5
5.295000 0.407827 0
5.300000 0.397491 0
5.305000 0.381969 0
5.310000 0.361733 0
5.315000 0.337391 0
5.320000 0.309656 0
5.325000 0.279316 0
5.330000 0.247187 0
5.335000 0.214087 0
5.340000 0.180794 0
5.345000 0.148022 0
5.350000 0.116394 0
5.355000 0.086431 0
5.360000 0.058538 0
5.365000 0.033005 0
5.370000 0.010010 0
5.375000 -0.010371 0
5.380000 -0.028151 0
5.385000 -0.043419 0
5.390000 -0.056321 0
5.395000 -0.067045 0
5.400000 -0.075805 0
5.405000 -0.082828 0
5.410000 -0.088344 0
5.415000 -0.092573 0
5.420000 -0.095722 0
5.425000 -0.097978 0
5.430000 -0.099509 0
5.435000 -0.098973 0
5.440000 -0.098091 0
5.445000 -0.097214 0
5.450000 -0.096341 0
5.455000 -0.095471 0
5.460000 -0.094606 0
5.465000 -0.093743 0
5.470000 -0.092882 0
5.475000 -0.092020 0
5.480000 -0.091151 0
5.485000 -0.090266 0
5.490000 -0.089347 0
5.495000 -0.088365 0
5.500000 -0.087273 0
5.505000 -0.085993 0
5.510000 -0.084412 0
5.515000 -0.082360 0
5.520000 -0.079601 0
5.525000 -0.075819 0
5.530000 -0.070614 0
5.535000 -0.063507 0
5.540000 -0.053964 0
5.545000 -0.041440 0
5.550000 -0.025449 0
5.555000 -0.005652 0
5.560000 0.018041 0
5.565000 0.045370 0
5.570000 0.075655 0
5.575000 0.107757 0
5.580000 0.140112 0
5.585000 0.170832 0
5.590000 0.197876 0
5.595000 0.219267 0
5.600000 0.233330 0
5.605000 0.238905 1
5.610000 0.235511 0
5.615000 0.223407 0
5.620000 0.203564 0
5.625000 0.177531 0
5.630000 0.147234 0
5.635000 0.114720 0
5.640000 0.081840 0
5.645000 0.049805 0
5.650000 0.018500 0
5.655000 -0.014353 0
5.660000 -0.053349 0
5.665000 -0.103184 0
5.670000 -0.163196 0
5.675000 -0.221178 0
5.680000 -0.251887 2
5.685000 -0.222788 0
5.690000 -0.103437 0
5.695000 0.123915 0
5.700000 0.447757 0
5.705000 0.806794 0
5.710000 1.090452 0
5.715000 1.185463 3
5.720000 1.046510 0
5.725000 0.728045 0
5.730000 0.345804 0
5.735000 0.008008 0
5.740000 -0.224198 0
5.745000 -0.335517 0
5.750000 -0.341645 4
5.755000 -0.277741 0
5.760000 -0.185873 0
5.765000 -0.099444 0
5.770000 -0.033602 0
5.775000 0.012468 0
5.780000 0.046490 0
5.785000 0.075706 0
5.790000 0.104287 0
5.795000 0.133850 0
5.800000 0.164642 0
5.805000 0.196329 0
5.810000 0.228336 0
5.815000 0.259972 0
5.820000 0.290475 0
5.825000 0.319046 0
5.830000 0.344885 0
5.835000 0.367228 0
5.840000 0.385379 0
5.845000 0.398750 0
5.850000 0.406890 0
5.855000 0.409509 5
5.860000 0.406496 0
5.865000 0.397922 0
5.870000 0.384043 0
5.875000 0.365279 0
5.880000 0.342199 0
5.885000 0.315486 0
5.890000 0.285908 0
5.895000 0.254278 0
5.900000 0.221418 0
5.905000 0.188122 0
5.910000 0.155128 0
5.915000 0.123090 0
5.920000 0.092565 0
5.925000 0.063994 0
5.930000 0.037705 0
5.935000 0.013910 0
5.940000 -0.007283 0
5.945000 -0.025862 0
5.950000 -0.041892 0
5.955000 -0.055505 0
5.960000 -0.066875 0
5.965000 -0.076213 0
5.970000 -0.083741 0
5.975000 -0.089689 0
5.980000 -0.094283 0
5.985000 -0.097733 0
5.990000 -0.100234 0
5.995000 -0.101959 0
6.000000 -0.102771 0
6.005000 -0.101870 0
6.010000 -0.100974 0
6.015000 -0.100082 0
6.020000 -0.099194 0
6.025000 -0.098310 0
6.030000 -0.097430 0
6.035000 -0.096551 0
6.040000 -0.095673 0
6.045000 -0.094790 0
6.050000 -0.093894 0
6.055000 -0.092971 0
6.060000 -0.091996 0
6.065000 -0.090927 0
6.070000 -0.089699 0
6.075000 -0.088208 0
6.080000 -0.086304 0
6.085000 -0.083772 0
6.090000 -0.080322 0
6.095000 -0.075579 0
6.100000 -0.069084 0
6.105000 -0.060318 0
6.110000 -0.048731 0
6.115000 -0.033811 0
6.120000 -0.015164 0
6.125000 0.007386 0
6.130000 0.033694 0
6.135000 0.063210 0
6.140000 0.094931 0
6.145000 0.127411 0
6.150000 0.158844 0
6.155000 0.187211 0
6.160000 0.210488 0
6.165000 0.226885 0
6.170000 0.235070 1
6.175000 0.234349 0
6.180000 0.224759 0
6.185000 0.207073 0
6.190000 0.182688 0
6.195000 0.153447 0
6.200000 0.121391 0
6.205000 0.088468 0
6.210000 0.056137 0
6.215000 0.024759 0
6.220000 -0.007243 0
6.225000 -0.043880 0
6.230000 -0.090250 0
6.235000 -0.147949 0
6.240000 -0.208576 0
6.245000 -0.250355 2
6.250000 -0.241927 0
6.255000 -0.151221 0
6.260000 0.044515 0
6.265000 0.344391 0
6.270000 0.702931 0
6.275000 1.021024 0
6.280000 1.178862 3
6.285000 1.106493 0
6.290000 0.831660 0
6.295000 0.456240 0
6.300000 0.094420 0
6.305000 -0.177690 0
6.310000 -0.331501 0
6.315000 -0.373082 4
6.320000 -0.330899 0
6.325000 -0.245145 0
6.330000 -0.153418 0
6.335000 -0.078128 0
6.340000 -0.024120 0
6.345000 0.014353 0
6.350000 0.045157 0
6.355000 0.073792 0
6.360000 0.102866 0
6.365000 0.133138 0
6.370000 0.164503 0
6.375000 0.196497 0
6.380000 0.228499 0
6.385000 0.259797 0
6.390000 0.289633 0
6.395000 0.317222 0
6.400000 0.341796 0
6.405000 0.362633 0
6.410000 0.379095 0
6.415000 0.390654 0
6.420000 0.396928 0
6.425000 0.397695 5
6.430000 0.392907 0
6.435000 0.382694 0
6.440000 0.367355 0
6.445000 0.347348 0
6.450000 0.323261 0
6.455000 0.295786 0
6.460000 0.265687 0
6.465000 0.233760 0
6.470000 0.200802 0
6.475000 0.167578 0
6.480000 0.134791 0
6.485000 0.103061 0
6.490000 0.072909 0
6.495000 0.044748 0
6.500000 0.018877 0
6.505000 -0.004510 0
6.510000 -0.025323 0
6.515000 -0.043558 0
6.520000 -0.059287 0
6.525000 -0.072643 0
6.530000 -0.083799 0
6.535000 -0.092961 0
6.540000 -0.100346 0
6.545000 -0.106179 0
6.550000 -0.110679 0
6.555000 -0.114051 0
6.560000 -0.116485 0
6.565000 -0.118150 0
6.570000 -0.118901 0
6.575000 -0.117920 0
6.580000 -0.116943 0
6.585000 -0.115972 0
6.590000 -0.115005 0
6.595000 -0.114042 0
6.600000 -0.113083 0
6.605000 -0.112127 0
6.610000 -0.111172 0
6.615000 -0.110214 0
6.620000 -0.109245 0
6.625000 -0.108253 0
6.630000 -0.107216 0
6.635000 -0.106097 0
6.640000 -0.104838 0
6.645000 -0.103349 0
6.650000 -0.101495 0
6.655000 -0.099084 0
6.660000 -0.095854 0
6.665000 -0.091465 0
6.670000 -0.085492 0
6.675000 -0.077445 0
6.680000 -0.066793 0
6.685000 -0.053016 0
6.690000 -0.035681 0
6.695000 -0.014527 0
6.700000 0.010431 0
6.705000 0.038819 0
6.710000 0.069840 0
6.715000 0.102257 0
6.720000 0.134448 0
6.725000 0.164514 0
6.730000 0.190460 0
6.735000 0.210406 0
6.740000 0.222817 0
6.745000 0.226692 1
6.750000 0.221701 0
6.755000 0.208234 0
6.760000 0.187345 0
6.765000 0.160620 0
6.770000 0.129971 0
6.775000 0.097386 0
6.780000 0.064623 0
6.785000 0.032762 0
6.790000 0.001525 0
6.795000 -0.031510 0
6.800000 -0.070942 0
6.805000 -0.121235 0
6.810000 -0.181377 0
6.815000 -0.239052 0
6.820000 -0.269433 2
6.825000 -0.240767 0
6.830000 -0.123314 0
6.835000 0.100630 0
6.840000 0.421153 0
6.845000 0.780963 0
6.850000 1.074139 0
6.855000 1.187948 3
6.860000 1.071220 0
6.865000 0.768821 0
6.870000 0.388119 0
6.875000 0.037154 0
6.880000 -0.217429 0
6.885000 -0.353872 0
6.890000 -0.381977 4
6.895000 -0.331921 0
6.900000 -0.243673 0
6.905000 -0.152900 0
6.910000 -0.079655 0
6.915000 -0.027277 0
6.920000 0.010365 0
6.925000 0.040912 0
6.930000 0.069552 0
6.935000 0.098703 0
6.940000 0.129050 0
6.945000 0.160466 0
6.950000 0.192490 0
6.955000 0.224510 0
6.960000 0.255830 0
6.965000 0.285702 0
6.970000 0.313361 0
6.975000 0.338051 0
6.980000 0.359063 0
6.985000 0.375765 0
6.990000 0.387638 0
6.995000 0.394295 0
7.000000 0.395508 5
7.005000 0.391217 0
7.010000 0.381533 0
7.015000 0.366737 0
7.020000 0.347261 0
7.025000 0.323668 0
7.030000 0.296627 0
7.035000 0.266878 0
7.040000 0.235200 0
7.045000 0.202378 0
7.050000 0.169168 0
7.055000 0.136273 0
7.060000 0.104317 0
7.065000 0.073831 0
7.070000 0.045241 0
7.075000 0.018865 0
7.080000 -0.005085 0
7.085000 -0.026497 0
7.090000 -0.045349 0
7.095000 -0.061694 0
7.100000 -0.075648 0
7.105000 -0.087373 0
7.110000 -0.097061 0
7.115000 -0.104924 0
7.120000 -0.111183 0
7.125000 -0.116054 0
7.130000 -0.119743 0
7.135000 -0.122443 0
7.140000 -0.124325 0
7.145000 -0.125219 0
7.150000 -0.124206 0
7.155000 -0.123199 0
7.160000 -0.122196 0
7.165000 -0.121198 0
7.170000 -0.120205 0
7.175000 -0.119216 0
7.180000 -0.118230 0
7.185000 -0.117247 0
7.190000 -0.116262 0
7.195000 -0.115271 0
7.200000 -0.114264 0
7.205000 -0.113224 0
7.210000 -0.112124 0
7.215000 -0.110916 0
7.220000 -0.109530 0
7.225000 -0.107857 0
7.230000 -0.105740 0
7.235000 -0.102959 0
7.240000 -0.099223 0
7.245000 -0.094158 0
7.250000 -0.087319 0
7.255000 -0.078202 0
7.260000 -0.066283 0
7.265000 -0.051079 0
7.270000 -0.032221 0
7.275000 -0.009550 0
7.280000 0.016792 0
7.285000 0.046285 0
7.290000 0.077989 0
7.295000 0.110545 0
7.300000 0.142252 0
7.305000 0.171194 0
7.310000 0.195425 0
7.315000 0.213188 0
7.320000 0.223119 0
7.325000 0.224427 1
7.330000 0.216993 0
7.335000 0.201391 0
7.340000 0.178813 0
7.345000 0.150921 0
7.350000 0.119635 0
7.355000 0.086881 0
7.360000 0.054276 0
7.365000 0.022651 0
7.370000 -0.008655 0
7.375000 -0.042497 0
7.380000 -0.083642 0
7.385000 -0.135957 0
7.390000 -0.196881 0
7.395000 -0.252216 0
7.400000 -0.276046 2
7.405000 -0.236937 0
7.410000 -0.106673 0
7.415000 0.129747 0
7.420000 0.458188 0
7.425000 0.816837 0
7.430000 1.098556 0
7.435000 1.195193 3
7.440000 1.061517 0
7.445000 0.746819 0
7.450000 0.364696 0
7.455000 0.023316 0
7.460000 -0.214770 0
7.465000 -0.332609 0
7.470000 -0.344349 4
7.475000 -0.283849 0
7.480000 -0.192703 0
7.485000 -0.105008 0
7.490000 -0.037237 0
7.495000 0.010378 0
7.500000 0.045220 0
7.505000 0.074680 0
7.510000 0.103204 0
7.515000 0.132608 0
7.520000 0.163245 0
7.525000 0.194831 0
7.530000 0.226819 0
7.535000 0.258540 0
7.540000 0.289247 0
7.545000 0.318157 0
7.550000 0.344477 0
7.555000 0.367444 0
7.560000 0.386358 0
7.565000 0.400617 0
7.570000 0.409748 0
7.575000 0.413436 5
7.580000 0.411533 0
7.585000 0.404076 0
7.590000 0.391280 0
7.595000 0.373526 0
7.600000 0.351346 0
7.605000 0.325394 0
7.610000 0.296411 0
7.615000 0.265192 0
7.620000 0.232550 0
7.625000 0.199279 0
7.630000 0.166126 0
7.635000 0.133760 0
7.640000 0.102757 0
7.645000 0.073587 0
7.650000 0.046603 0
7.655000 0.022048 0
7.660000 0.000059 0
7.665000 -0.019327 0
7.670000 -0.036153 0
7.675000 -0.050528 0
7.680000 -0.062614 0
7.685000 -0.072608 0
7.690000 -0.080728 0
7.695000 -0.087200 0
7.700000 -0.092248 0
7.705000 -0.096087 0
7.710000 -0.098916 0
7.715000 -0.100913 0
7.720000 -0.101914 0
7.725000 -0.101017 0
7.730000 -0.100125 0
7.735000 -0.099238 0
7.740000 -0.098354 0
7.745000 -0.097475 0
7.750000 -0.096599 0
7.755000 -0.095726 0
7.760000 -0.094854 0
7.765000 -0.093979 0
7.770000 -0.093097 0
7.775000 -0.092194 0
7.780000 -0.091253 0
7.785000 -0.090239 0
7.790000 -0.089102 0
7.795000 -0.087756 0
7.800000 -0.086079 0
7.805000 -0.083889 0
7.810000 -0.080938 0
7.815000 -0.076896 0
7.820000 -0.071353 0
7.825000 -0.063820 0
7.830000 -0.053765 0
7.835000 -0.040654 0
7.840000 -0.024024 0
7.845000 -0.003576 0
7.850000 0.020728 0
7.855000 0.048572 0
7.860000 0.079212 0
7.865000 0.111458 0
7.870000 0.143712 0
7.875000 0.174076 0
7.880000 0.200529 0
7.885000 0.221140 0
7.890000 0.234302 0
7.895000 0.238940 1
7.900000 0.234652 0
7.905000 0.221769 0
7.910000 0.201312 0
7.915000 0.174853 0
7.920000 0.144317 0
7.925000 0.111724 0
7.930000 0.078875 0
7.935000 0.046908 0
7.940000 0.015609 0
7.945000 -0.017406 0
7.950000 -0.056758 0
7.955000 -0.107004 0
7.960000 -0.167192 0
7.965000 -0.224869 0
7.970000 -0.254824 2
7.975000 -0.224844 0
7.980000 -0.104909 0
7.985000 0.122432 0
7.990000 0.445842 0
7.995000 0.805084 0
8.000000 1.091218 0
8.005000 1.191617 3
8.010000 1.059019 0
8.015000 0.744551 0
8.020000 0.362453 0
8.025000 0.021513 0
8.030000 -0.215565 0
8.035000 -0.332026 0
8.040000 -0.342398 4
8.045000 -0.280973 0
8.050000 -0.189606 0
8.055000 -0.102299 0
8.060000 -0.035158 0
8.065000 0.011923 0
8.070000 0.046467 0
8.075000 0.075830 0
8.080000 0.104369 0
8.085000 0.133829 0
8.090000 0.164523 0
8.095000 0.196145 0
8.100000 0.228139 0
8.105000 0.259824 0
8.110000 0.290446 0
8.115000 0.319215 0
8.120000 0.345335 0
8.125000 0.368039 0
8.130000 0.386628 0
8.135000 0.400506 0
8.140000 0.409209 0
8.145000 0.412430 5
8.150000 0.410039 0
8.155000 0.402088 0
8.160000 0.388808 0
8.165000 0.370599 0
8.170000 0.348010 0
8.175000 0.321709 0
8.180000 0.292449 0
8.185000 0.261034 0
8.190000 0.228283 0
8.195000 0.194991 0
8.200000 0.161900 0
8.205000 0.129676 0
8.210000 0.098884 0
8.215000 0.069982 0
8.220000 0.043313 0
8.225000 0.019105 0
8.230000 -0.002519 0
8.235000 -0.021532 0
8.240000 -0.037989 0
8.245000 -0.052009 0
8.250000 -0.063762 0
8.255000 -0.073448 0
8.260000 -0.081290 0
8.265000 -0.087516 0
8.270000 -0.092350 0
8.275000 -0.096006 0
8.280000 -0.098681 0
8.285000 -0.100550 0
8.290000 -0.101464 0
8.295000 -0.100569 0
8.300000 -0.099679 0
8.305000 -0.098794 0
8.310000 -0.097913 0
8.315000 -0.097035 0
8.320000 -0.096161 0
8.325000 -0.095290 0
8.330000 -0.094419 0
8.335000 -0.093545 0
8.340000 -0.092660 0
8.345000 -0.091752 0
8.350000 -0.090800 0
8.355000 -0.089765 0
8.360000 -0.088590 0
8.365000 -0.087182 0
8.370000 -0.085404 0
8.375000 -0.083060 0
8.380000 -0.079880 0
8.385000 -0.075514 0
8.390000 -0.069527 0
8.395000 -0.061414 0
8.400000 -0.050632 0
8.405000 -0.036656 0
8.410000 -0.019051 0
8.415000 0.002424 0
8.420000 0.027722 0
8.425000 0.056415 0
8.430000 0.087633 0
8.435000 0.120059 0
8.440000 0.151985 0
8.445000 0.181448 0
8.450000 0.206414 0
8.455000 0.225010 0
8.460000 0.235756 0
8.465000 0.237755 1
8.470000 0.230822 0
8.475000 0.215507 0
8.480000 0.193023 0
8.485000 0.165087 0
8.490000 0.133695 0
8.495000 0.100848 0
8.500000 0.068208 0
8.505000 0.036572 0
8.510000 0.005095 0
8.515000 -0.029427 0
8.520000 -0.072043 0
8.525000 -0.126216 0
8.530000 -0.187630 0
8.535000 -0.239155 0
8.540000 -0.252054 2
8.545000 -0.193594 0
8.550000 -0.036640 0
8.555000 0.228431 0
8.560000 0.574618 0
8.565000 0.921506 0
8.570000 1.150541 0
8.575000 1.165070 3
8.580000 0.953734 0
8.585000 0.598882 0
8.590000 0.222131 0
8.595000 -0.081946 0
8.600000 -0.269761 0
8.605000 -0.338941 4
8.610000 -0.313880 0
8.615000 -0.234505 0
8.620000 -0.141755 0
8.625000 -0.062723 0
8.630000 -0.005515 0
8.635000 0.034625 0
8.640000 0.065928 0
8.645000 0.094514 0
8.650000 0.123381 0
8.655000 0.153452 0
8.660000 0.184658 0
8.665000 0.216534 0
8.670000 0.248436 0
8.675000 0.279631 0
8.680000 0.309327 0
8.685000 0.336711 0
8.690000 0.360987 0
8.695000 0.381409 0
8.700000 0.397320 0
8.705000 0.408190 0
8.710000 0.413637 5
8.715000 0.413455 0
8.720000 0.407622 0
8.725000 0.396305 0
8.730000 0.379847 0
8.735000 0.358754 0
8.740000 0.333664 0
8.745000 0.305317 0
8.750000 0.274519 0
8.755000 0.242099 0
8.760000 0.208879 0
8.765000 0.175634 0
8.770000 0.143066 0
8.775000 0.111784 0
8.780000 0.082287 0
8.785000 0.054955 0
8.790000 0.030053 0
8.795000 0.007734 0
8.800000 -0.011952 0
8.805000 -0.029040 0
8.810000 -0.043637 0
8.815000 -0.055905 0
8.820000 -0.066044 0
8.825000 -0.074274 0
8.830000 -0.080829 0
8.835000 -0.085937 0
8.840000 -0.089818 0
8.845000 -0.092676 0
8.850000 -0.094693 0
8.855000 -0.095713 0
8.860000 -0.094847 0
8.865000 -0.093986 0
8.870000 -0.093129 0
8.875000 -0.092276 0
8.880000 -0.091427 0
8.885000 -0.090581 0
8.890000 -0.089738 0
8.895000 -0.088895 0
8.900000 -0.088049 0
8.905000 -0.087193 0
8.910000 -0.086315 0
8.915000 -0.085392 0
8.920000 -0.084389 0
8.925000 -0.083247 0
8.930000 -0.081873 0
8.935000 -0.080129 0
8.940000 -0.077817 0
8.945000 -0.074663 0
8.950000 -0.070310 0
8.955000 -0.064315 0
8.960000 -0.056165 0
8.965000 -0.045305 0
8.970000 -0.031203 0
8.975000 -0.013425 0
8.980000 0.008264 0
8.985000 0.033794 0
8.990000 0.062699 0
8.995000 0.094059 0
9.000000 0.126498 0
9.005000 0.158247 0
9.010000 0.187292 0
9.015000 0.211570 0
9.020000 0.229212 0
9.025000 0.238781 0
9.030000 0.239457 1
9.035000 0.231163 0
9.040000 0.214567 0
9.045000 0.191001 0
9.050000 0.162277 0
9.055000 0.130449 0
9.060000 0.097515 0
9.065000 0.065041 0
9.070000 0.033563 0
9.075000 0.001751 0
9.080000 -0.034202 0
9.085000 -0.079486 0
9.090000 -0.136334 0
9.095000 -0.197400 0
9.100000 -0.241785 2
9.105000 -0.238275 0
9.110000 -0.154167 0
9.115000 0.034551 0
9.120000 0.329066 0
9.125000 0.686516 0
9.130000 1.009199 0
9.135000 1.175615 3
9.140000 1.114488 0
9.145000 0.848386 0
9.150000 0.475533 0
9.155000 0.109938 0
9.160000 -0.169986 0
9.165000 -0.332990 0
9.170000 -0.382952 4
9.175000 -0.346569 0
9.180000 -0.263094 0
9.185000 -0.170592 0
9.190000 -0.093025 0
9.195000 -0.036786 0
9.200000 0.003112 0
9.205000 0.034530 0
9.210000 0.063278 0
9.215000 0.092253 0
9.220000 0.122384 0
9.225000 0.153645 0
9.230000 0.185611 0
9.235000 0.217686 0
9.240000 0.249179 0
9.245000 0.279343 0
9.250000 0.307406 0
9.255000 0.332604 0
9.260000 0.354211 0
9.265000 0.371579 0
9.270000 0.384164 0
9.275000 0.391557 0
9.280000 0.393506 5
9.285000 0.389926 0
9.290000 0.380909 0
9.295000 0.366716 0
9.300000 0.347765 0
9.305000 0.324609 0
9.310000 0.297914 0
9.315000 0.268419 0
9.320000 0.236906 0
9.325000 0.204167 0
9.330000 0.170969 0
9.335000 0.138026 0
9.340000 0.105974 0
9.345000 0.075358 0
9.350000 0.046616 0
9.355000 0.020077 0
9.360000 -0.004039 0
9.365000 -0.025611 0
9.370000 -0.044613 0
9.375000 -0.061094 0
9.380000 -0.075166 0
9.385000 -0.086991 0
9.390000 -0.096763 0
9.395000 -0.104694 0
9.400000 -0.111006 0
9.405000 -0.115917 0
9.410000 -0.119636 0
9.415000 -0.122356 0
9.420000 -0.124254 0
9.425000 -0.125482 0
9.430000 -0.124792 0
9.435000 -0.123781 0
9.440000 -0.122776 0
9.445000 -0.121775 0
9.450000 -0.120779 0
9.455000 -0.119787 0
9.460000 -0.118798 0
9.465000 -0.117812 0
9.470000 -0.116824 0
9.475000 -0.115830 0
9.480000 -0.114820 0
9.485000 -0.113776 0
9.490000 -0.112669 0
9.495000 -0.111453 0
9.500000 -0.110053 0
9.505000 -0.108360 0
9.510000 -0.106210 0
9.515000 -0.103380 0
9.520000 -0.099571 0
9.525000 -0.094401 0
9.530000 -0.087418 0
9.535000 -0.078110 0
9.540000 -0.065949 0
9.545000 -0.050455 0
9.550000 -0.031271 0
9.555000 -0.008257 0
9.560000 0.018413 0
9.565000 0.048175 0
9.570000 0.080039 0
9.575000 0.112598 0
9.580000 0.144104 0
9.585000 0.172615 0
9.590000 0.196179 0
9.595000 0.213062 0
9.600000 0.221950 0
9.605000 0.222126 1
9.610000 0.213562 0
9.615000 0.196926 0
9.620000 0.173495 0
9.625000 0.144995 0
9.630000 0.113378 0
9.635000 0.080561 0
9.640000 0.048090 0
9.645000 0.016617 0
9.650000 -0.014844 0
9.655000 -0.049561 0
9.660000 -0.092466 0
9.665000 -0.146780 0
9.670000 -0.208120 0
9.675000 -0.259829 0
9.680000 -0.274140 2
9.685000 -0.219303 0
9.690000 -0.068570 0
9.695000 0.188880 0
9.700000 0.530355 0
9.705000 0.882694 0
9.710000 1.132646 0
9.715000 1.179867 3
9.720000 0.999871 0
9.725000 0.661309 0
9.730000 0.279762 0
9.735000 -0.045703 0
9.740000 -0.262885 0
9.745000 -0.361543 4
9.750000 -0.359426 0
9.755000 -0.291804 0
9.760000 -0.199346 0
9.765000 -0.113519 0
9.770000 -0.048185 0
9.775000 -0.002217 0
9.780000 0.031916 0
9.785000 0.061246 0
9.790000 0.089874 0
9.795000 0.119432 0
9.800000 0.150205 0
9.805000 0.181893 0
9.810000 0.213955 0
9.815000 0.245728 0
9.820000 0.276482 0
9.825000 0.305448 0
9.830000 0.331850 0
9.835000 0.354938 0
9.840000 0.374026 0
9.845000 0.388521 0
9.850000 0.397955 0
9.855000 0.402011 5
9.860000 0.400536 0
9.865000 0.393553 0
9.870000 0.381261 0
9.875000 0.364020 0
9.880000 0.342339 0
9.885000 0.316847 0
9.890000 0.288263 0
9.895000 0.257362 0
9.900000 0.224939 0
9.905000 0.191779 0
9.910000 0.158622 0
9.915000 0.126138 0
9.920000 0.094910 0
9.925000 0.065416 0
9.930000 0.038027 0
9.935000 0.013002 0
9.940000 -0.009504 0
9.945000 -0.029433 0
9.950000 -0.046808 0
9.955000 -0.061725 0
9.960000 -0.074330 0
9.965000 -0.084807 0
9.970000 -0.093368 0
9.975000 -0.100231 0
9.980000 -0.105618 0
9.985000 -0.109744 0
9.990000 -0.112809 0
9.995000 -0.114993 0
10.000000 -0.116460 0
10.005000 -0.115844 0
10.010000 -0.114878 0
10.015000 -0.113917 0
10.020000 -0.112960 0
10.025000 -0.112008 0
10.030000 -0.111061 0
10.035000 -0.110116 0
10.040000 -0.109174 0
10.045000 -0.108232 0
10.050000 -0.107285 0
10.055000 -0.106324 0
10.060000 -0.105336 0
10.065000 -0.104294 0
10.070000 -0.103158 0
10.075000 -0.101861 0
10.080000 -0.100304 0
10.085000 -0.098340 0
10.090000 -0.095760 0
10.095000 -0.092285 0
10.100000 -0.087555 0
10.105000 -0.081131 0
10.110000 -0.072512 0
10.115000 -0.061166 0
10.120000 -0.046591 0
10.125000 -0.028388 0
10.130000 -0.006355 0
10.135000 0.019421 0
10.140000 0.048473 0
10.145000 0.079911 0
10.150000 0.112415 0
10.155000 0.144299 0
10.160000 0.173639 0
10.165000 0.198458 0
10.170000 0.216942 0
10.175000 0.227659 0
10.180000 0.229744 1
10.185000 0.223011 0
10.190000 0.207984 0
10.195000 0.185828 0
10.200000 0.158197 0
10.205000 0.127027 0
10.210000 0.094277 0
10.215000 0.061610 0
10.220000 0.029917 0
10.225000 -0.001401 0
10.230000 -0.035164 0
10.235000 -0.076171 0
10.240000 -0.128391 0
10.245000 -0.189326 0
10.250000 -0.244648 0
10.255000 -0.268084 2
10.260000 -0.227781 0
10.265000 -0.095282 0
10.270000 0.144142 0
10.275000 0.474976 0
10.280000 0.832694 0
10.285000 1.107554 0
10.290000 1.191763 3
10.295000 1.045516 0
10.300000 0.724653 0
10.305000 0.342278 0
10.310000 0.003511 0
10.315000 -0.231731 0
10.320000 -0.347697 0
10.325000 -0.358700 4
10.330000 -0.298166 0
10.335000 -0.207037 0
10.340000 -0.119004 0
10.345000 -0.050594 0
10.350000 -0.002338 0
10.355000 0.032932 0
10.360000 0.062582 0
10.365000 0.091141 0
10.370000 0.120514 0
10.375000 0.151112 0
10.380000 0.182684 0
10.385000 0.214708 0
10.390000 0.246533 0
10.395000 0.277432 0
10.400000 0.306636 0
10.405000 0.333365 0
10.410000 0.356864 0
10.415000 0.376432 0
10.420000 0.391462 0
10.425000 0.401470 0
10.430000 0.406118 5
10.435000 0.405235 0
10.440000 0.398823 0
10.445000 0.387063 0
10.450000 0.370300 0
10.455000 0.349030 0
10.460000 0.323872 0
10.465000 0.295541 0
10.470000 0.264810 0
10.475000 0.232478 0
10.480000 0.199334 0
10.485000 0.166124 0
10.490000 0.133531 0
10.495000 0.102147 0
10.500000 0.072462 0
10.505000 0.044857 0
10.510000 0.019603 0
10.515000 -0.003137 0
10.520000 -0.023297 0
10.525000 -0.040895 0
10.530000 -0.056020 0
10.535000 -0.068816 0
10.540000 -0.079467 0
10.545000 -0.088181 0
10.550000 -0.095179 0
10.555000 -0.100684 0
10.560000 -0.104911 0
10.565000 -0.108061 0
10.570000 -0.110319 0
10.575000 -0.111849 0
10.580000 -0.111262 0
10.585000 -0.110318 0
10.590000 -0.109380 0
10.595000 -0.108446 0
10.600000 -0.107516 0
10.605000 -0.106591 0
10.610000 -0.105669 0
10.615000 -0.104749 0
10.620000 -0.103829 0
10.625000 -0.102905 0
10.630000 -0.101967 0
10.635000 -0.101002 0
10.640000 -0.099985 0
10.645000 -0.098875 0
10.650000 -0.097607 0
10.655000 -0.096082 0
10.660000 -0.094155 0
10.665000 -0.091618 0
10.670000 -0.088195 0
10.675000 -0.083524 0
10.680000 -0.077168 0
10.685000 -0.068626 0
10.690000 -0.057363 0
10.695000 -0.042876 0
10.700000 -0.024760 0
10.705000 -0.002807 0
10.710000 0.022898 0
10.715000 0.051895 0
10.720000 0.083295 0
10.725000 0.115778 0
10.730000 0.147654 0
10.735000 0.176996 0
10.740000 0.201818 0
10.745000 0.220299 0
10.750000 0.231001 0
10.755000 0.233055 1
10.760000 0.226277 0
10.765000 0.211195 0
10.770000 0.188979 0
10.775000 0.161293 0
10.780000 0.130080 0
10.785000 0.097305 0
10.790000 0.064631 0
10.795000 0.032935 0
10.800000 0.001589 0
10.805000 -0.032283 0
10.810000 -0.073512 0
10.815000 -0.126011 0
10.820000 -0.187051 0
10.825000 -0.241933 0
10.830000 -0.264048 2
10.835000 -0.221407 0
10.840000 -0.085696 0
10.845000 0.157201 0
10.850000 0.490348 0
10.855000 0.847124 0
10.860000 1.116406 0
10.865000 1.191513 3
10.870000 1.034012 0
10.875000 0.704981 0
10.880000 0.322852 0
10.885000 -0.006856 0
10.890000 -0.227431 0
10.895000 -0.327140 4
10.900000 -0.324209 0
10.905000 -0.255405 0
10.910000 -0.162862 0
10.915000 -0.078434 0
10.920000 -0.015221 0
10.925000 0.028898 0
10.930000 0.061936 0
10.935000 0.090849 0
10.940000 0.119449 0
10.945000 0.149123 0
10.950000 0.180009 0
10.955000 0.211723 0
10.960000 0.243668 0
10.965000 0.275134 0
10.970000 0.305346 0
10.975000 0.333501 0
10.980000 0.358794 0
10.985000 0.380464 0
10.990000 0.397827 0
10.995000 0.410311 0
11.000000 0.417486 0
11.005000 0.419092 5
11.010000 0.415046 0
11.015000 0.405455 0
11.020000 0.390605 0
11.025000 0.370949 0
11.030000 0.347082 0
11.035000 0.319711 0
11.040000 0.289622 0
11.045000 0.257635 0
11.050000 0.224575 0
11.055000 0.191234 0
11.060000 0.158338 0
11.065000 0.126527 0
11.070000 0.096336 0
11.075000 0.068186 0
11.080000 0.042382 0
11.085000 0.019112 0
11.090000 -0.001537 0
11.095000 -0.019572 0
11.100000 -0.035075 0
11.105000 -0.048191 0
11.110000 -0.059105 0
11.115000 -0.068033 0
11.120000 -0.075201 0
11.125000 -0.080842 0
11.130000 -0.085177 0
11.135000 -0.088417 0
11.140000 -0.090751 0
11.145000 -0.092349 0
11.150000 -0.091853 0
11.155000 -0.091007 0
11.160000 -0.090165 0
11.165000 -0.089327 0
11.170000 -0.088493 0
11.175000 -0.087662 0
11.180000 -0.086834 0
11.185000 -0.086008 0
11.190000 -0.085180 0
11.195000 -0.084345 0
11.200000 -0.083494 0
11.205000 -0.082609 0
11.210000 -0.081661 0
11.215000 -0.080601 0
11.220000 -0.079354 0
11.225000 -0.077801 0
11.230000 -0.075774 0
11.235000 -0.073032 0
11.240000 -0.069256 0
11.245000 -0.064041 0
11.250000 -0.056903 0
11.255000 -0.047303 0
11.260000 -0.034693 0
11.265000 -0.018586 0
11.270000 0.001351 0
11.275000 0.025195 0
11.280000 0.052666 0
11.285000 0.083055 0
11.290000 0.115190 0
11.295000 0.147473 0
11.300000 0.177988 0
11.305000 0.204676 0
11.310000 0.225558 0
11.315000 0.238978 0
11.320000 0.243816 1
11.325000 0.239646 0
11.330000 0.226791 0
11.335000 0.206286 0
11.340000 0.179737 0
11.345000 0.149107 0
11.350000 0.116452 0
11.355000 0.083594 0
11.360000 0.051650 0
11.365000 0.020305 0
11.370000 -0.013025 0
11.375000 -0.053155 0
11.380000 -0.104505 0
11.385000 -0.165254 0
11.390000 -0.221350 0
11.395000 -0.245936 2
11.400000 -0.205958 0
11.405000 -0.071831 0
11.410000 0.171331 0
11.415000 0.505736 0
11.420000 0.861168 0
11.425000 1.121637 0
11.430000 1.179381 3
11.435000 1.005011 0
11.440000 0.667558 0
11.445000 0.286226 0
11.450000 -0.036905 0
11.455000 -0.249032 0
11.460000 -0.341001 4
11.465000 -0.332520 0
11.470000 -0.260985 0
11.475000 -0.168143 0
11.480000 -0.084702 0
11.485000 -0.022639 0
11.490000 0.020736 0
11.495000 0.053474 0
11.500000 0.082358 0
11.505000 0.111039 0
11.510000 0.140816 0
11.515000 0.171792 0
11.520000 0.203575 0
11.525000 0.235562 0
11.530000 0.267044 0
11.535000 0.297250 0
11.540000 0.325377 0
11.545000 0.350628 0
11.550000 0.372246 0
11.555000 0.389551 0
11.560000 0.401978 0
11.565000 0.409102 0
11.570000 0.410667 5
11.575000 0.406594 0
11.580000 0.396990 0
11.585000 0.382143 0
11.590000 0.362504 0
11.595000 0.338668 0
11.600000 0.311338 0
11.605000 0.281294 0
11.610000 0.249355 0
11.615000 0.216342 0
11.620000 0.183042 0
11.625000 0.150180 0
11.630000 0.118393 0
11.635000 0.088216 0
11.640000 0.060069 0
11.645000 0.034256 0
11.650000 0.010970 0
11.655000 -0.009702 0
11.660000 -0.027766 0
11.665000 -0.043300 0
11.670000 -0.056448 0
11.675000 -0.067392 0
11.680000 -0.076346 0
11.685000 -0.083537 0
11.690000 -0.089194 0
11.695000 -0.093540 0
11.700000 -0.096784 0
11.705000 -0.099116 0
11.710000 -0.100706 0
11.715000 -0.100174 0
11.720000 -0.099286 0
11.725000 -0.098403 0
11.730000 -0.097523 0
11.735000 -0.096648 0
11.740000 -0.095777 0
11.745000 -0.094909 0
11.750000 -0.094042 0
11.755000 -0.093175 0
11.760000 -0.092301 0
11.765000 -0.091412 0
11.770000 -0.090492 0
11.775000 -0.089512 0
11.780000 -0.088425 0
11.785000 -0.087160 0
11.790000 -0.085602 0
11.795000 -0.083589 0
11.800000 -0.080889 0
11.805000 -0.077191 0
11.810000 -0.072101 0
11.815000 -0.065145 0
11.820000 -0.055789 0
11.825000 -0.043486 0
11.830000 -0.027740 0
11.835000 -0.008201 0
11.840000 0.015244 0
11.845000 0.042360 0
11.850000 0.072492 0
11.855000 0.104528 0
11.860000 0.136924 0
11.865000 0.167805 0
11.870000 0.195126 0
11.875000 0.216895 0
11.880000 0.231408 0
11.885000 0.237471 1
11.890000 0.234559 0
11.895000 0.222895 0
11.900000 0.203416 0
11.905000 0.177651 0
11.910000 0.147518 0
11.915000 0.115070 0
11.920000 0.082178 0
11.925000 0.050101 0
11.930000 0.018800 0
11.935000 -0.013907 0
11.940000 -0.052550 0
11.945000 -0.101916 0
11.950000 -0.161676 0
11.955000 -0.220095 0
11.960000 -0.252278 2
11.965000 -0.225709 0
11.970000 -0.109640 0
11.975000 0.114343 0
11.980000 0.435925 0
11.985000 0.795313 0
11.990000 1.082642 0
11.995000 1.183496 3
12.000000 1.052200 0
12.005000 0.739890 0
12.010000 0.358014 0
12.015000 0.013979 0
12.020000 -0.228947 0
12.025000 -0.352509 0
12.030000 -0.369436 4
12.035000 -0.312249 0
12.040000 -0.221878 0
12.045000 -0.132913 0
12.050000 -0.063074 0
12.055000 -0.013687 0
12.060000 0.022197 0
12.065000 0.052075 0
12.070000 0.080669 0
12.075000 0.110014 0
12.080000 0.140585 0
12.085000 0.172155 0
12.090000 0.204212 0
12.095000 0.236111 0
12.100000 0.267128 0
12.105000 0.296494 0
12.110000 0.323428 0
12.115000 0.347172 0
12.120000 0.367021 0
12.125000 0.382361 0
12.130000 0.392700 0
12.135000 0.397690 5
12.140000 0.397150 0
12.145000 0.391075 0
12.150000 0.379634 0
12.155000 0.363166 0
12.160000 0.342158 0
12.165000 0.317227 0
12.170000 0.289081 0
12.175000 0.258493 0
12.180000 0.226262 0
12.185000 0.193179 0
12.190000 0.159995 0
12.195000 0.127396 0
12.200000 0.095979 0
12.205000 0.066241 0
12.210000 0.038568 0
12.215000 0.013236 0
12.220000 -0.009586 0
12.225000 -0.029829 0
12.230000 -0.047505 0
12.235000 -0.062703 0
12.240000 -0.075563 0
12.245000 -0.086268 0
12.250000 -0.095027 0
12.255000 -0.102059 0
12.260000 -0.107587 0
12.265000 -0.111829 0
12.270000 -0.114985 0
12.275000 -0.117242 0
12.280000 -0.118763 0
12.285000 -0.118145 0
12.290000 -0.117168 0
12.295000 -0.116195 0
12.300000 -0.115227 0
12.305000 -0.114264 0
12.310000 -0.113305 0
12.315000 -0.112349 0
12.320000 -0.111396 0
12.325000 -0.110444 0
12.330000 -0.109486 0
12.335000 -0.108517 0
12.340000 -0.107521 0
12.345000 -0.106473 0
12.350000 -0.105335 0
12.355000 -0.104042 0
12.360000 -0.102496 0
12.365000 -0.100553 0
12.370000 -0.098008 0
12.375000 -0.094586 0
12.380000 -0.089930 0
12.385000 -0.083602 0
12.390000 -0.075102 0
12.395000 -0.063898 0
12.400000 -0.049480 0
12.405000 -0.031442 0
12.410000 -0.009568 0
12.415000 0.016068 0
12.420000 0.045015 0
12.425000 0.076395 0
12.430000 0.108900 0
12.435000 0.140846 0
12.440000 0.170307 0
12.445000 0.195295 0
12.450000 0.213979 0
12.455000 0.224910 0
12.460000 0.227202 1
12.465000 0.220654 0
12.470000 0.205777 0
12.475000 0.183731 0
12.480000 0.156172 0
12.485000 0.125041 0
12.490000 0.092309 0
12.495000 0.059648 0
12.500000 0.027961 0
12.505000 -0.003345 0
12.510000 -0.037102 0
12.515000 -0.078125 0
12.520000 -0.130392 0
12.525000 -0.191343 0
12.530000 -0.246492 0
12.535000 -0.269365 2
12.540000 -0.227958 0
12.545000 -0.093801 0
12.550000 0.147558 0
12.555000 0.479776 0
12.560000 0.836939 0
12.565000 1.108203 0
12.570000 1.186269 3
12.575000 1.034413 0
12.580000 0.710761 0
12.585000 0.328354 0
12.590000 -0.008952 0
12.595000 -0.242437 0
12.600000 -0.356990 0
12.605000 -0.367132 4
12.610000 -0.306235 0
12.615000 -0.215018 0
12.620000 -0.126948 0
12.625000 -0.058447 0
12.630000 -0.010066 0
12.635000 0.025312 0
12.640000 0.055029 0
12.645000 0.083620 0
12.650000 0.113009 0
12.655000 0.143618 0
12.660000 0.175208 0
12.665000 0.207262 0
12.670000 0.239135 0
12.675000 0.270106 0
12.680000 0.299411 0
12.685000 0.326275 0
12.690000 0.349945 0
12.695000 0.369721 0
12.700000 0.384997 0
12.705000 0.395283 0
12.710000 0.400236 5
12.715000 0.399679 0
12.720000 0.393604 0
12.725000 0.382180 0
12.730000 0.365742 0
12.735000 0.344775 0
12.740000 0.319888 0
12.745000 0.291785 0
12.750000 0.261232 0
12.755000 0.229023 0
12.760000 0.195945 0
12.765000 0.162745 0
12.770000 0.130106 0
12.775000 0.098626 0
12.780000 0.068801 0
12.785000 0.041021 0
12.790000 0.015565 0
12.795000 -0.007396 0
12.800000 -0.027787 0
12.805000 -0.045617 0
12.810000 -0.060969 0
12.815000 -0.073981 0
12.820000 -0.084831 0
12.825000 -0.093726 0
12.830000 -0.100883 0
12.835000 -0.106526 0
12.840000 -0.110868 0
12.845000 -0.114112 0
12.850000 -0.116445 0
12.855000 -0.118031 0
12.860000 -0.118729 0
12.865000 -0.117749 0
12.870000 -0.116773 0
12.875000 -0.115803 0
12.880000 -0.114836 0
12.885000 -0.113875 0
12.890000 -0.112917 0
12.895000 -0.111961 0
12.900000 -0.111006 0
12.905000 -0.110048 0
12.910000 -0.109078 0
12.915000 -0.108084 0
12.920000 -0.107044 0
12.925000 -0.105919 0
12.930000 -0.104651 0
12.935000 -0.103147 0
12.940000 -0.101272 0
12.945000 -0.098833 0
12.950000 -0.095567 0
12.955000 -0.091131 0
12.960000 -0.085104 0
12.965000 -0.076997 0
12.970000 -0.066283 0
12.975000 -0.052448 0
12.980000 -0.035064 0
12.985000 -0.013877 0
12.990000 0.011098 0
12.995000 0.039487 0
13.000000 0.070497 0
13.005000 0.102906 0
13.010000 0.135105 0
13.015000 0.165215 0
13.020000 0.191257 0
13.025000 0.211362 0
13.030000 0.223996 0
13.035000 0.228151 1
13.040000 0.223477 0
13.045000 0.210333 0
13.050000 0.189741 0
13.055000 0.163254 0
13.060000 0.132758 0
13.065000 0.100228 0
13.070000 0.067430 0
13.075000 0.035495 0
13.080000 0.004263 0
13.085000 -0.028501 0
13.090000 -0.067239 0
13.095000 -0.116552 0
13.100000 -0.176137 0
13.105000 -0.234906 0
13.110000 -0.269227 2
13.115000 -0.247890 0
13.120000 -0.140787 0
13.125000 0.071468 0
13.130000 0.383004 0
13.135000 0.742976 0
13.140000 1.050674 0
13.145000 1.191534 3
13.150000 1.103386 0
13.155000 0.818486 0
13.160000 0.440800 0
13.165000 0.082402 0
13.170000 -0.183944 0
13.175000 -0.332051 0
13.180000 -0.369251 4
13.185000 -0.324542 0
13.190000 -0.237998 0
13.195000 -0.146559 0
13.200000 -0.071881 0
13.205000 -0.018352 0
13.210000 0.019873 0
13.215000 0.050583 0
13.220000 0.079187 0
13.225000 0.108242 0
13.230000 0.138492 0
13.235000 0.169830 0
13.240000 0.201795 0
13.245000 0.233772 0
13.250000 0.265057 0
13.255000 0.294895 0
13.260000 0.322511 0
13.265000 0.347140 0
13.270000 0.368067 0
13.275000 0.384653 0
13.280000 0.396373 0
13.285000 0.402841 0
13.290000 0.403831 5
13.295000 0.399286 0
13.300000 0.389327 0
13.305000 0.374243 0
13.310000 0.354478 0
13.315000 0.330611 0
13.320000 0.303320 0
13.325000 0.273361 0
13.330000 0.241521 0
13.335000 0.208593 0
13.340000 0.175338 0
13.345000 0.142461 0
13.350000 0.110584 0
13.355000 0.080235 0
13.360000 0.051833 0
13.365000 0.025687 0
13.370000 0.001999 0
13.375000 -0.019130 0
13.380000 -0.037687 0
13.385000 -0.053736 0
13.390000 -0.067402 0
13.395000 -0.078852 0
13.400000 -0.088287 0
13.405000 -0.095923 0
13.410000 -0.101982 0
13.415000 -0.106681 0
13.420000 -0.110228 0
13.425000 -0.112812 0
13.430000 -0.114606 0
13.435000 -0.115451 0
13.440000 -0.114487 0
13.445000 -0.113528 0
13.450000 -0.112573 0
13.455000 -0.111623 0
13.460000 -0.110678 0
13.465000 -0.109736 0
13.470000 -0.108797 0
13.475000 -0.107860 0
13.480000 -0.106920 0
13.485000 -0.105971 0
13.490000 -0.105003 0
13.495000 -0.103995 0
13.500000 -0.102915 0
13.505000 -0.101711 0
13.510000 -0.100300 0
13.515000 -0.098561 0
13.520000 -0.096317 0
13.525000 -0.093325 0
13.530000 -0.089267 0
13.535000 -0.083741 0
13.540000 -0.076274 0
13.545000 -0.066347 0
13.550000 -0.053435 0
13.555000 -0.037078 0
13.560000 -0.016963 0
13.565000 0.006977 0
13.570000 0.034472 0
13.575000 0.064851 0
13.580000 0.097006 0
13.585000 0.129426 0
13.590000 0.160290 0
13.595000 0.187626 0
13.600000 0.209512 0
13.605000 0.224302 0
13.610000 0.230826 1
13.615000 0.228545 0
13.620000 0.217626 0
13.625000 0.198919 0
13.630000 0.173850 0
13.635000 0.144236 0
13.640000 0.112056 0
13.645000 0.079168 0
13.650000 0.046931 0
13.655000 0.015615 0
13.660000 -0.016386 0
13.665000 -0.052996 0
13.670000 -0.099156 0
13.675000 -0.156523 0
13.680000 -0.217376 0
13.685000 -0.261263 2
13.690000 -0.258228 0
13.695000 -0.176962 0
13.700000 0.005951 0
13.705000 0.293386 0
13.710000 0.648342 0
13.715000 0.982007 0
13.720000 1.177507 3
13.725000 1.148605 0
13.730000 0.901940 0
13.735000 0.533848 0
13.740000 0.164927 0
13.745000 -0.119357 0
13.750000 -0.284315 0
13.755000 -0.333503 4
13.760000 -0.295079 0
13.765000 -0.210392 0
13.770000 -0.118756 0
13.775000 -0.043721 0
13.780000 0.009698 0
13.785000 0.047558 0
13.790000 0.077959 0
13.795000 0.106417 0
13.800000 0.135447 0
13.805000 0.165718 0
13.810000 0.197058 0
13.815000 0.228958 0
13.820000 0.260755 0
13.825000 0.291700 0
13.830000 0.320996 0
13.835000 0.347832 0
13.840000 0.371415 0
13.845000 0.391016 0
13.850000 0.405997 0
13.855000 0.415855 0
13.860000 0.420238 5
13.865000 0.418975 0
13.870000 0.412078 0
13.875000 0.399748 0
13.880000 0.382360 0
13.885000 0.360445 0
13.890000 0.334665 0
13.895000 0.305773 0
13.900000 0.274582 0
13.905000 0.241924 0
13.910000 0.208613 0
13.915000 0.175413 0
13.920000 0.143011 0
13.925000 0.111996 0
13.930000 0.082844 0
13.935000 0.055915 0
13.940000 0.031452 0
13.945000 0.009589 0
13.950000 -0.009641 0
13.955000 -0.026289 0
13.960000 -0.040471 0
13.965000 -0.052360 0
13.970000 -0.062157 0
13.975000 -0.070090 0
13.980000 -0.076389 0
13.985000 -0.081282 0
13.990000 -0.084988 0
13.995000 -0.087705 0
14.000000 -0.089613 0
14.005000 -0.090566 0
14.010000 -0.089726 0
14.015000 -0.088891 0
14.020000 -0.088059 0
14.025000 -0.087231 0
14.030000 -0.086407 0
14.035000 -0.085586 0
14.040000 -0.084767 0
14.045000 -0.083948 0
14.050000 -0.083125 0
14.055000 -0.082290 0
14.060000 -0.081429 0
14.065000 -0.080519 0
14.070000 -0.079519 0
14.075000 -0.078366 0
14.080000 -0.076959 0
14.085000 -0.075152 0
14.090000 -0.072731 0
14.095000 -0.069410 0
14.100000 -0.064815 0
14.105000 -0.058489 0
14.110000 -0.049908 0
14.115000 -0.038517 0
14.120000 -0.023794 0
14.125000 -0.005334 0
14.130000 0.017049 0
14.135000 0.043221 0
14.140000 0.072634 0
14.145000 0.104285 0
14.150000 0.136717 0
14.155000 0.168106 0
14.160000 0.196412 0
14.165000 0.219590 0
14.170000 0.235833 0
14.175000 0.243802 1
14.180000 0.242809 0
14.185000 0.232912 0
14.190000 0.214912 0
14.195000 0.190242 0
14.200000 0.160778 0
14.205000 0.128587 0
14.210000 0.095620 0
14.215000 0.063309 0
14.220000 0.031919 0
14.225000 -0.000312 0
14.230000 -0.037600 0
14.235000 -0.085026 0
14.240000 -0.143582 0
14.245000 -0.203585 0
14.250000 -0.241801 2
14.255000 -0.226018 0
14.260000 -0.124329 0
14.265000 0.084422 0
14.270000 0.395111 0
14.275000 0.754909 0
14.280000 1.057978 0
14.285000 1.185575 3
14.290000 1.079666 0
14.295000 0.781405 0
14.300000 0.401021 0
14.305000 0.050827 0
14.310000 -0.200427 0
14.315000 -0.331235 0
14.320000 -0.353003 4
14.325000 -0.298124 0
14.330000 -0.208283 0
14.335000 -0.119159 0
14.340000 -0.049205 0
14.345000 0.000086 0
14.350000 0.035794 0
14.355000 0.065542 0
14.360000 0.094079 0
14.365000 0.123415 0
14.370000 0.153991 0
14.375000 0.185553 0
14.380000 0.217567 0
14.385000 0.249366 0
14.390000 0.280206 0
14.395000 0.309300 0
14.400000 0.335851 0
14.405000 0.359089 0
14.410000 0.378305 0
14.415000 0.392887 0
14.420000 0.402352 0
14.425000 0.406371 5
14.430000 0.404790 0
14.435000 0.397633 0
14.440000 0.385109 0
14.445000 0.367594 0
14.450000 0.345617 0
14.455000 0.319829 0
14.460000 0.290973 0
14.465000 0.259848 0
14.470000 0.227269 0
14.475000 0.194036 0
14.480000 0.160902 0
14.485000 0.128541 0
14.490000 0.097535 0
14.495000 0.068358 0
14.500000 0.041367 0
14.505000 0.016809 0
14.510000 -0.005180 0
14.515000 -0.024558 0
14.520000 -0.041369 0
14.525000 -0.055723 0
14.530000 -0.067783 0
14.535000 -0.077746 0
14.540000 -0.085831 0
14.545000 -0.092265 0
14.550000 -0.097275 0
14.555000 -0.101075 0
14.560000 -0.103864 0
14.565000 -0.105823 0
14.570000 -0.106789 0
14.575000 -0.105868 0
14.580000 -0.104952 0
14.585000 -0.104040 0
14.590000 -0.103133 0
14.595000 -0.102230 0
14.600000 -0.101330 0
14.605000 -0.100434 0
14.610000 -0.099538 0
14.615000 -0.098640 0
14.620000 -0.097733 0
14.625000 -0.096806 0
14.630000 -0.095838 0
14.635000 -0.094797 0
14.640000 -0.093626 0
14.645000 -0.092242 0
14.650000 -0.090516 0
14.655000 -0.088263 0
14.660000 -0.085227 0
14.665000 -0.081073 0
14.670000 -0.075380 0
14.675000 -0.067655 0
14.680000 -0.057359 0
14.685000 -0.043960 0
14.690000 -0.027001 0
14.695000 -0.006200 0
14.700000 0.018456 0
14.705000 0.046612 0
14.710000 0.077481 0
14.715000 0.109826 0
14.720000 0.142006 0
14.725000 0.172093 0
14.730000 0.198054 0
14.735000 0.217970 0
14.740000 0.230276 0
14.745000 0.233957 1
14.750000 0.228691 0
14.755000 0.214891 0
14.760000 0.193656 0
14.765000 0.166622 0
14.770000 0.135747 0
14.775000 0.103054 0
14.780000 0.070297 0
14.785000 0.038491 0
14.790000 0.007175 0
14.795000 -0.026375 0
14.800000 -0.067004 0
14.805000 -0.118906 0
14.810000 -0.179799 0
14.815000 -0.235226 0
14.820000 -0.258312 2
14.825000 -0.216409 0
14.830000 -0.080525 0
14.835000 0.163688 0
14.840000 0.498322 0
14.845000 0.854004 0
14.850000 1.116386 0
14.855000 1.178550 3
14.860000 1.009590 0
14.865000 0.675568 0
14.870000 0.293731 0
14.875000 -0.033589 0
14.880000 -0.252030 0
14.885000 -0.350718 4
14.890000 -0.347759 0
14.895000 -0.279273 0
14.900000 -0.186699 0
14.905000 -0.101649 0
14.910000 -0.037508 0
14.915000 0.007429 0
14.920000 0.040966 0
14.925000 0.070090 0
14.930000 0.098736 0
14.935000 0.128395 0
14.940000 0.159270 0
14.945000 0.191014 0
14.950000 0.223053 0
14.955000 0.254700 0
14.960000 0.285201 0
14.965000 0.313767 0
14.970000 0.339607 0
14.975000 0.361966 0
14.980000 0.380158 0
14.985000 0.393599 0
14.990000 0.401845 0
14.995000 0.404604 5
15.000000 0.401765 0
15.005000 0.393393 0
15.010000 0.379735 0
15.015000 0.361200 0
15.020000 0.338345 0
15.025000 0.311842 0
15.030000 0.282444 0
15.035000 0.250954 0
15.040000 0.218185 0
15.045000 0.184924 0
15.050000 0.151907 0
15.055000 0.119789 0
15.060000 0.089127 0
15.065000 0.060371 0
15.070000 0.033854 0
15.075000 0.009800 0
15.080000 -0.011674 0
15.085000 -0.030546 0
15.090000 -0.046872 0
15.095000 -0.060773 0
15.100000 -0.072418 0
15.105000 -0.082010 0
15.110000 -0.089769 0
15.115000 -0.095921 0
15.120000 -0.100690 0
15.125000 -0.104288 0
15.130000 -0.106910 0
15.135000 -0.108731 0
15.140000 -0.109600 0
15.145000 -0.108665 0
15.150000 -0.107735 0
15.155000 -0.106809 0
15.160000 -0.105888 0
15.165000 -0.104971 0
15.170000 -0.104058 0
15.175000 -0.103147 0
15.180000 -0.102237 0
15.185000 -0.101324 0
15.190000 -0.100401 0
15.195000 -0.099455 0
15.200000 -0.098466 0
15.205000 -0.097397 0
15.210000 -0.096189 0
15.215000 -0.094754 0
15.220000 -0.092956 0
15.225000 -0.090603 0
15.230000 -0.087430 0
15.235000 -0.083092 0
15.240000 -0.077161 0
15.245000 -0.069137 0
15.250000 -0.058482 0
15.255000 -0.044670 0
15.260000 -0.027262 0
15.265000 -0.006003 0
15.270000 0.019083 0
15.275000 0.047596 0
15.280000 0.078703 0
15.285000 0.111125 0
15.290000 0.143192 0
15.295000 0.172963 0
15.300000 0.198414 0
15.305000 0.217660 0
15.310000 0.229187 0
15.315000 0.232045 1
15.320000 0.225982 0
15.325000 0.211476 0
15.330000 0.189675 0
15.335000 0.162245 0
15.340000 0.131154 0
15.345000 0.098406 0
15.350000 0.065712 0
15.355000 0.033994 0
15.360000 0.002649 0
15.365000 -0.031222 0
15.370000 -0.072529 0
15.375000 -0.125216 0
15.380000 -0.186335 0
15.385000 -0.240600 0
15.390000 -0.260627 2
15.395000 -0.213847 0
15.400000 -0.071911 0
15.405000 0.178190 0
15.410000 0.516214 0
15.415000 0.870153 0
15.420000 1.124859 0
15.425000 1.176073 3
15.430000 0.999687 0
15.435000 0.663642 0
15.440000 0.281714 0
15.445000 -0.047154 0
15.450000 -0.269673 0
15.455000 -0.374207 0
15.460000 -0.377114 4
15.465000 -0.312458 0
15.470000 -0.220473 0
15.475000 -0.133281 0
15.480000 -0.065978 0
15.485000 -0.018413 0
15.490000 0.016612 0
15.495000 0.046266 0
15.500000 0.074913 0
15.505000 0.104381 0
15.510000 0.135063 0
15.515000 0.166709 0
15.520000 0.198809 0
15.525000 0.230723 0
15.530000 0.261738 0
15.535000 0.291100 0
15.540000 0.318042 0
15.545000 0.341819 0
15.550000 0.361740 0
15.555000 0.377202 0
15.560000 0.387716 0
15.565000 0.392940 5
15.570000 0.392689 0
15.575000 0.386949 0
15.580000 0.375877 0
15.585000 0.359795 0
15.590000 0.339173 0
15.595000 0.314604 0
15.600000 0.286780 0
15.605000 0.256454 0
15.610000 0.224408 0
15.615000 0.191422 0
15.620000 0.158241 0
15.625000 0.125547 0
15.630000 0.093942 0
15.635000 0.063929 0
15.640000 0.035906 0
15.645000 0.010162 0
15.650000 -0.013119 0
15.655000 -0.033848 0
15.660000 -0.052026 0
15.665000 -0.067723 0
15.670000 -0.081067 0
15.675000 -0.092231 0
15.680000 -0.101412 0
15.685000 -0.108827 0
15.690000 -0.114695 0
15.695000 -0.119230 0
15.700000 -0.122635 0
15.705000 -0.125097 0
15.710000 -0.126784 0
15.715000 -0.127540 0
15.720000 -0.126516 0
15.725000 -0.125497 0
15.730000 -0.124482 0
15.735000 -0.123473 0
15.740000 -0.122468 0
15.745000 -0.121468 0
15.750000 -0.120470 0
15.755000 -0.119474 0
15.760000 -0.118477 0
15.765000 -0.117470 0
15.770000 -0.116445 0
15.775000 -0.115381 0
15.780000 -0.114246 0
15.785000 -0.112989 0
15.790000 -0.111531 0
15.795000 -0.109751 0
15.800000 -0.107479 0
15.805000 -0.104476 0
15.810000 -0.100432 0
15.815000 -0.094956 0
15.820000 -0.087584 0
15.825000 -0.077803 0
15.830000 -0.065095 0
15.835000 -0.048996 0
15.840000 -0.029183 0
15.845000 -0.005561 0
15.850000 0.021639 0
15.855000 0.051796 0
15.860000 0.083863 0
15.865000 0.116390 0
15.870000 0.147607 0
15.875000 0.175575 0
15.880000 0.198375 0
15.885000 0.214330 0
15.890000 0.222204 1
15.895000 0.221363 0
15.900000 0.211861 0
15.905000 0.194433 0
15.910000 0.170401 0
15.915000 0.141510 0
15.920000 0.109705 0
15.925000 0.076869 0
15.930000 0.044478 0
15.935000 0.013076 0
15.940000 -0.018480 0
15.945000 -0.053604 0
15.950000 -0.097217 0
15.955000 -0.152208 0
15.960000 -0.213568 0
15.965000 -0.264036 0
15.970000 -0.275648 2
15.975000 -0.216955 0
15.980000 -0.061882 0
15.985000 0.199344 0
15.990000 0.542633 0
15.995000 0.893773 0
16.000000 1.139906 0
16.005000 1.182633 3
16.010000 0.998421 0
16.015000 0.657387 0
16.020000 0.276261 0
16.025000 -0.046263 0
16.030000 -0.259133 0
16.035000 -0.353267 4
16.040000 -0.347454 0
16.045000 -0.277771 0
16.050000 -0.185072 0
16.055000 -0.100255 0
16.060000 -0.036276 0
16.065000 0.008641 0
16.070000 0.042211 0
16.075000 0.071349 0
16.080000 0.099974 0
16.085000 0.129592 0
16.090000 0.160421 0
16.095000 0.192129 0
16.100000 0.224157 0
16.105000 0.255829 0
16.110000 0.286403 0
16.115000 0.315103 0
16.120000 0.341148 0
16.125000 0.363786 0
16.130000 0.382335 0
16.135000 0.396210 0
16.140000 0.404958 0
16.145000 0.408276 5
16.150000 0.406036 0
16.155000 0.398283 0
16.160000 0.385239 0
16.165000 0.367292 0
16.170000 0.344972 0
16.175000 0.318929 0
16.180000 0.289899 0
16.185000 0.258667 0
16.190000 0.226038 0
16.195000 0.192796 0
16.200000 0.159675 0
16.205000 0.127340 0
16.210000 0.096357 0
16.215000 0.067192 0
16.220000 0.040197 0
16.225000 0.015612 0
16.230000 -0.006425 0
16.235000 -0.025874 0
16.240000 -0.042774 0
16.245000 -0.057232 0
16.250000 -0.069405 0
16.255000 -0.079486 0
16.260000 -0.087689 0
16.265000 -0.094239 0
16.270000 -0.099357 0
16.275000 -0.103255 0
16.280000 -0.106132 0
16.285000 -0.108167 0
16.290000 -0.109517 0
16.295000 -0.108913 0
16.300000 -0.107981 0
16.305000 -0.107054 0
16.310000 -0.106132 0
16.315000 -0.105214 0
16.320000 -0.104300 0
16.325000 -0.103388 0
16.330000 -0.102479 0
16.335000 -0.101568 0
16.340000 -0.100650 0
16.345000 -0.099715 0
16.350000 -0.098746 0
16.355000 -0.097712 0
16.360000 -0.096567 0
16.365000 -0.095235 0
16.370000 -0.093601 0
16.375000 -0.091501 0
16.380000 -0.088702 0
16.385000 -0.084899 0
16.390000 -0.079700 0
16.395000 -0.072642 0
16.400000 -0.063205 0
16.405000 -0.050854 0
16.410000 -0.035110 0
16.415000 -0.015625 0
16.420000 0.007712 0
16.425000 0.034690 0
16.430000 0.064691 0
16.435000 0.096660 0
16.440000 0.129124 0
16.445000 0.160277 0
16.450000 0.188137 0
16.455000 0.210745 0
16.460000 0.226394 0
16.465000 0.233838 1
16.470000 0.232458 0
16.475000 0.222349 0
16.480000 0.204304 0
16.485000 0.179714 0
16.490000 0.150390 0
16.495000 0.118324 0
16.500000 0.085414 0
16.505000 0.053087 0
16.510000 0.021715 0
16.515000 -0.010181 0
16.520000 -0.046434 0
16.525000 -0.092058 0
16.530000 -0.149025 0
16.535000 -0.210062 0
16.540000 -0.255008 2
16.545000 -0.253829 0
16.550000 -0.174822 0
16.555000 0.005967 0
16.560000 0.291995 0
16.565000 0.646601 0
16.570000 0.980580 0
16.575000 1.175987 3
16.580000 1.147944 0
16.585000 0.903364 0
16.590000 0.536425 0
16.595000 0.166084 0
16.600000 -0.122174 0
16.605000 -0.292585 0
16.610000 -0.347313 4
16.615000 -0.313058 0
16.620000 -0.230113 0
16.625000 -0.137836 0
16.630000 -0.060874 0
16.635000 -0.005521 0
16.640000 0.033593 0
16.645000 0.064537 0
16.650000 0.093093 0
16.655000 0.122034 0
16.660000 0.152181 0
16.665000 0.183439 0
16.670000 0.215338 0
16.675000 0.247243 0
16.680000 0.278429 0
16.685000 0.308117 0
16.690000 0.335509 0
16.695000 0.359820 0
16.700000 0.380317 0
16.705000 0.396354 0
16.710000 0.407403 0
16.715000 0.413085 0
16.720000 0.413190 5
16.725000 0.407688 0
16.730000 0.396731 0
16.735000 0.380648 0
16.740000 0.359923 0
16.745000 0.335175 0
16.750000 0.307125 0
16.755000 0.276559 0
16.760000 0.244294 0
16.765000 0.211139 0
16.770000 0.177865 0
16.775000 0.145174 0
16.780000 0.113677 0
16.785000 0.083883 0
16.790000 0.056184 0
16.795000 0.030859 0
16.800000 0.008076 0
16.805000 -0.012096 0
16.810000 -0.029678 0
16.815000 -0.044763 0
16.820000 -0.057500 0
16.825000 -0.068079 0
16.830000 -0.076713 0
16.835000 -0.083631 0
16.840000 -0.089058 0
16.845000 -0.093215 0
16.850000 -0.096305 0
16.855000 -0.098515 0
16.860000 -0.100010 0
16.865000 -0.099467 0
16.870000 -0.098583 0
16.875000 -0.097703 0
16.880000 -0.096827 0
16.885000 -0.095955 0
16.890000 -0.095087 0
16.895000 -0.094222 0
16.900000 -0.093359 0
16.905000 -0.092494 0
16.910000 -0.091622 0
16.915000 -0.090733 0
16.920000 -0.089811 0
16.925000 -0.088825 0
16.930000 -0.087728 0
16.935000 -0.086442 0
16.940000 -0.084853 0
16.945000 -0.082792 0
16.950000 -0.080023 0
16.955000 -0.076230 0
16.960000 -0.071016 0
16.965000 -0.063903 0
16.970000 -0.054360 0
16.975000 -0.041844 0
16.980000 -0.025871 0
16.985000 -0.006102 0
16.990000 0.017553 0
16.995000 0.044841 0
17.000000 0.075090 0
17.005000 0.107173 0
17.010000 0.139540 0
17.015000 0.170318 0
17.020000 0.197477 0
17.025000 0.219043 0
17.030000 0.233339 0
17.035000 0.239195 1
17.040000 0.236106 0
17.045000 0.224306 0
17.050000 0.204737 0
17.055000 0.178922 0
17.060000 0.148769 0
17.065000 0.116313 0
17.070000 0.083415 0
17.075000 0.051325 0
17.080000 0.020018 0
17.085000 -0.012643 0
17.090000 -0.051130 0
17.095000 -0.100236 0
17.100000 -0.159822 0
17.105000 -0.218585 0
17.110000 -0.252148 2
17.115000 -0.228334 0
17.120000 -0.116379 0
17.125000 0.102760 0
17.130000 0.420582 0
17.135000 0.780402 0
17.140000 1.075006 0
17.145000 1.189140 3
17.150000 1.069264 0
17.155000 0.761830 0
17.160000 0.380267 0
17.165000 0.035741 0
17.170000 -0.206239 0
17.175000 -0.327148 0
17.180000 -0.340657 4
17.185000 -0.280809 0
17.190000 -0.189752 0
17.195000 -0.102117 0
17.200000 -0.034569 0
17.205000 0.012760 0
17.210000 0.047395 0
17.215000 0.076773 0
17.220000 0.105306 0
17.225000 0.134761 0
17.230000 0.165455 0
17.235000 0.197079 0
17.240000 0.229070 0
17.245000 0.260742 0
17.250000 0.291335 0
17.255000 0.320051 0
17.260000 0.346089 0
17.265000 0.368678 0
17.270000 0.387117 0
17.275000 0.400807 0
17.280000 0.409288 0
17.285000 0.412257 5
17.290000 0.409592 0
17.295000 0.401353 0
17.300000 0.387782 0
17.305000 0.369292 0
17.310000 0.346444 0
17.315000 0.319917 0
17.320000 0.290474 0
17.325000 0.258929 0
17.330000 0.226104 0
17.335000 0.192799 0
17.340000 0.159755 0
17.345000 0.127635 0
17.350000 0.096999 0
17.355000 0.068298 0
17.360000 0.041865 0
17.365000 0.017920 0
17.370000 -0.003425 0
17.375000 -0.022152 0
17.380000 -0.038323 0
17.385000 -0.052068 0
17.390000 -0.063559 0
17.395000 -0.073004 0
17.400000 -0.080628 0
17.405000 -0.086660 0
17.410000 -0.091325 0
17.415000 -0.094837 0
17.420000 -0.097390 0
17.425000 -0.099161 0
17.430000 -0.100007 0
17.435000 -0.099120 0
17.440000 -0.098237 0
17.445000 -0.097359 0
17.450000 -0.096485 0
17.455000 -0.095615 0
17.460000 -0.094748 0
17.465000 -0.093883 0
17.470000 -0.093018 0
17.475000 -0.092148 0
17.480000 -0.091267 0
17.485000 -0.090358 0
17.490000 -0.089399 0
17.495000 -0.088347 0
17.500000 -0.087138 0
17.505000 -0.085671 0
17.510000 -0.083796 0
17.515000 -0.081301 0
17.520000 -0.077896 0
17.525000 -0.073210 0
17.530000 -0.066785 0
17.535000 -0.058103 0
17.540000 -0.046613 0
17.545000 -0.031799 0
17.550000 -0.013263 0
17.555000 0.009177 0
17.560000 0.035386 0
17.565000 0.064825 0
17.570000 0.096498 0
17.575000 0.128968 0
17.580000 0.160433 0
17.585000 0.188872 0
17.590000 0.212259 0
17.595000 0.228791 0
17.600000 0.237125 1
17.605000 0.236552 0
17.610000 0.227098 0
17.615000 0.209523 0
17.620000 0.185218 0
17.625000 0.156024 0
17.630000 0.123983 0
17.635000 0.091049 0
17.640000 0.058694 0
17.645000 0.027299 0
17.650000 -0.004690 0
17.655000 -0.041263 0
17.660000 -0.087534 0
17.665000 -0.145161 0
17.670000 -0.205845 0
17.675000 -0.247879 2
17.680000 -0.239901 0
17.685000 -0.149767 0
17.690000 0.045394 0
17.695000 0.344860 0
17.700000 0.703323 0
17.705000 1.021697 0
17.710000 1.179977 3
17.715000 1.107936 0
17.720000 0.832158 0
17.725000 0.456242 0
17.730000 0.095738 0
17.735000 -0.173162 0
17.740000 -0.322642 0
17.745000 -0.359858 4
17.750000 -0.314467 0
17.755000 -0.227493 0
17.760000 -0.136448 0
17.765000 -0.062825 0
17.770000 -0.010438 0
17.775000 0.026997 0
17.780000 0.057355 0
17.785000 0.085911 0
17.790000 0.115061 0
17.795000 0.145438 0
17.800000 0.176872 0
17.805000 0.208865 0
17.810000 0.240772 0
17.815000 0.271862 0
17.820000 0.301356 0
17.825000 0.328462 0
17.830000 0.352403 0
17.835000 0.372458 0
17.840000 0.387997 0
17.845000 0.398511 0
17.850000 0.403643 5
17.855000 0.403200 0
17.860000 0.397174 0
17.865000 0.385734 0
17.870000 0.369223 0
17.875000 0.348138 0
17.880000 0.323104 0
17.885000 0.294846 0
17.890000 0.264151 0
17.895000 0.231830 0
17.900000 0.198687 0
17.905000 0.165483 0
17.910000 0.132910 0
17.915000 0.101570 0
17.920000 0.071957 0
17.925000 0.044457 0
17.930000 0.019338 0
17.935000 -0.003238 0
17.940000 -0.023210 0
17.945000 -0.040604 0
17.950000 -0.055514 0
17.955000 -0.068091 0
17.960000 -0.078525 0
17.965000 -0.087032 0
17.970000 -0.093835 0
17.975000 -0.099162 0
17.980000 -0.103229 0
17.985000 -0.106239 0
17.990000 -0.108378 0
17.995000 -0.109807 0
18.000000 -0.109213 0
18.005000 -0.108280 0
18.010000 -0.107352 0
18.015000 -0.106428 0
18.020000 -0.105508 0
18.025000 -0.104593 0
18.030000 -0.103680 0
18.035000 -0.102769 0
18.040000 -0.101858 0
18.045000 -0.100939 0
18.050000 -0.100004 0
18.055000 -0.099036 0
18.060000 -0.098005 0
18.065000 -0.096864 0
18.070000 -0.095537 0
18.075000 -0.093911 0
18.080000 -0.091818 0
18.085000 -0.089026 0
18.090000 -0.085224 0
18.095000 -0.080018 0
18.100000 -0.072936 0
18.105000 -0.063450 0
18.110000 -0.051021 0
18.115000 -0.035163 0
18.120000 -0.015531 0
18.125000 0.007978 0
18.130000 0.035133 0
18.135000 0.065285 0
18.140000 0.097341 0
18.145000 0.129781 0
18.150000 0.160759 0
18.155000 0.188258 0
18.160000 0.210307 0
18.165000 0.225209 0
18.170000 0.231758 1
18.175000 0.229401 0
18.180000 0.218313 0
18.185000 0.199376 0
18.190000 0.174065 0
18.195000 0.144252 0
18.200000 0.111961 0
18.205000 0.079074 0
18.210000 0.046917 0
18.215000 0.015626 0
18.220000 -0.016683 0
18.225000 -0.054256 0
18.230000 -0.102024 0
18.235000 -0.160712 0
18.240000 -0.220550 0
18.245000 -0.258648 2
18.250000 -0.243473 0
18.255000 -0.143754 0
18.260000 0.061570 0
18.265000 0.368679 0
18.270000 0.728270 0
18.275000 1.038993 0
18.280000 1.183275 3
18.285000 1.098510 0
18.290000 0.816371 0
18.295000 0.439429 0
18.300000 0.079502 0
18.305000 -0.189930 0
18.310000 -0.341722 0
18.315000 -0.382327 4
18.320000 -0.339967 0
18.325000 -0.254280 0
18.330000 -0.162391 0
18.335000 -0.086622 0
18.340000 -0.032039 0
18.345000 0.006870 0
18.350000 0.037894 0
18.355000 0.066582 0
18.360000 0.095625 0
18.365000 0.125843 0
18.370000 0.157168 0
18.375000 0.189157 0
18.380000 0.221208 0
18.385000 0.252627 0
18.390000 0.282668 0
18.395000 0.310561 0
18.400000 0.335545 0
18.405000 0.356901 0
18.410000 0.373988 0
18.415000 0.386272 0
18.420000 0.393354 0
18.425000 0.394992 5
18.430000 0.391111 0
18.435000 0.381812 0
18.440000 0.367363 0
18.445000 0.348188 0
18.450000 0.324846 0
18.455000 0.298002 0
18.460000 0.268396 0
18.465000 0.236811 0
18.470000 0.204033 0
18.475000 0.170827 0
18.480000 0.137900 0
18.485000 0.105885 0
18.490000 0.075319 0
18.495000 0.046637 0
18.500000 0.020163 0
18.505000 -0.003887 0
18.510000 -0.025397 0
18.515000 -0.044339 0
18.520000 -0.060767 0
18.525000 -0.074793 0
18.530000 -0.086580 0
18.535000 -0.096320 0
18.540000 -0.104227 0
18.545000 -0.110520 0
18.550000 -0.115417 0
18.555000 -0.119127 0
18.560000 -0.121842 0
18.565000 -0.123736 0
18.570000 -0.124638 0
18.575000 -0.123628 0
18.580000 -0.122623 0
18.585000 -0.121623 0
18.590000 -0.120628 0
18.595000 -0.119638 0
18.600000 -0.118651 0
18.605000 -0.117669 0
18.610000 -0.116688 0
18.615000 -0.115706 0
18.620000 -0.114718 0
18.625000 -0.113713 0
18.630000 -0.112675 0
18.635000 -0.111575 0
18.640000 -0.110367 0
18.645000 -0.108978 0
18.650000 -0.107298 0
18.655000 -0.105167 0
18.660000 -0.102362 0
18.665000 -0.098588 0
18.670000 -0.093469 0
18.675000 -0.086552 0
18.680000 -0.077331 0
18.685000 -0.065279 0
18.690000 -0.049914 0
18.695000 -0.030874 0
18.700000 -0.008012 0
18.705000 0.018513 0
18.710000 0.048158 0
18.715000 0.079951 0
18.720000 0.112507 0
18.725000 0.144098 0
18.730000 0.172792 0
18.735000 0.196642 0
18.740000 0.213899 0
18.745000 0.223232 0
18.750000 0.223889 1
18.755000 0.215803 0
18.760000 0.199602 0
18.765000 0.176528 0
18.770000 0.148279 0
18.775000 0.116794 0
18.780000 0.083996 0
18.785000 0.051461 0
18.790000 0.019921 0
18.795000 -0.011466 0
18.800000 -0.045796 0
18.805000 -0.087939 0
18.810000 -0.141415 0
18.815000 -0.202644 0
18.820000 -0.256019 0
18.825000 -0.274534 2
18.830000 -0.226533 0
18.835000 -0.084596 0
18.840000 0.163973 0
18.845000 0.500242 0
18.850000 0.855883 0
18.855000 1.119979 0
18.860000 1.188450 3
18.865000 1.027394 0
18.870000 0.698220 0
18.875000 0.315922 0
18.880000 -0.016575 0
18.885000 -0.242804 0
18.890000 -0.349745 0
18.895000 -0.353613 4
18.900000 -0.289048 0
18.905000 -0.197099 0
18.910000 -0.110379 0
18.915000 -0.043901 0
18.920000 0.002850 0
18.925000 0.037328 0
18.930000 0.066726 0
18.935000 0.095306 0
18.940000 0.124788 0
18.945000 0.155493 0
18.950000 0.187131 0
18.955000 0.219160 0
18.960000 0.250918 0
18.965000 0.281668 0
18.970000 0.310637 0
18.975000 0.337042 0
18.980000 0.360128 0
18.985000 0.379204 0
18.990000 0.393671 0
18.995000 0.403059 0
19.000000 0.407048 5
19.005000 0.405485 0
19.010000 0.398397 0
19.015000 0.385985 0
19.020000 0.368615 0
19.025000 0.346802 0
19.030000 0.321183 0
19.035000 0.292484 0
19.040000 0.261487 0
19.045000 0.228993 0
19.050000 0.195791 0
19.055000 0.162623 0
19.060000 0.130162 0
19.065000 0.098989 0
19.070000 0.069580 0
19.075000 0.042301 0
19.080000 0.017408 0
19.085000 -0.004950 0
19.090000 -0.024721 0
19.095000 -0.041935 0
19.100000 -0.056691 0
19.105000 -0.069141 0
19.110000 -0.079474 0
19.115000 -0.087901 0
19.120000 -0.094646 0
19.125000 -0.099931 0
19.130000 -0.103971 0
19.135000 -0.106964 0
19.140000 -0.109094 0
19.145000 -0.110520 0
19.150000 -0.109922 0
19.155000 -0.108986 0
19.160000 -0.108054 0
19.165000 -0.107127 0
19.170000 -0.106204 0
19.175000 -0.105285 0
19.180000 -0.104369 0
19.185000 -0.103455 0
19.190000 -0.102540 0
19.195000 -0.101619 0
19.200000 -0.100683 0
19.205000 -0.099716 0
19.210000 -0.098689 0
19.215000 -0.097559 0
19.220000 -0.096254 0
19.225000 -0.094666 0
19.230000 -0.092638 0
19.235000 -0.089948 0
19.240000 -0.086300 0
19.245000 -0.081317 0
19.250000 -0.074544 0
19.255000 -0.065465 0
19.260000 -0.053548 0
19.265000 -0.038300 0
19.270000 -0.019350 0
19.275000 0.003454 0
19.280000 0.029949 0
19.285000 0.059580 0
19.290000 0.091355 0
19.295000 0.123856 0
19.300000 0.155318 0
19.305000 0.183775 0
19.310000 0.207252 0
19.315000 0.223992 0
19.320000 0.232675 1
19.325000 0.232584 0
19.330000 0.223708 0
19.335000 0.206743 0
19.340000 0.183004 0
19.345000 0.154250 0
19.350000 0.122463 0
19.355000 0.089575 0
19.360000 0.057109 0
19.365000 0.025639 0
19.370000 -0.005990 0
19.375000 -0.041277 0
19.380000 -0.085241 0
19.385000 -0.140686 0
19.390000 -0.202078 0
19.395000 -0.251174 0
19.400000 -0.258988 2
19.405000 -0.193503 0
19.410000 -0.028958 0
19.415000 0.242306 0
19.420000 0.591005 0
19.425000 0.935590 0
19.430000 1.159139 0
19.435000 1.168546 3
19.440000 0.954854 0
19.445000 0.600117 0
19.450000 0.222698 0
19.455000 -0.084666 0
19.460000 -0.278153 0
19.465000 -0.354000 4
19.470000 -0.334666 0
19.475000 -0.258275 0
19.480000 -0.165222 0
19.485000 -0.083707 0
19.490000 -0.023625 0
19.495000 0.018564 0
19.500000 0.050845 0
19.505000 0.079658 0
19.510000 0.108400 0
19.515000 0.138252 0
19.520000 0.169282 0
19.525000 0.201094 0
19.530000 0.233094 0
19.535000 0.264586 0
19.540000 0.294814 0
19.545000 0.322991 0
19.550000 0.348334 0
19.555000 0.370100 0
19.560000 0.387621 0
19.565000 0.400336 0
19.570000 0.407822 0
19.575000 0.409813 5
19.580000 0.406222 0
19.585000 0.397139 0
19.590000 0.382827 0
19.595000 0.363716 0
19.600000 0.340373 0
19.605000 0.313477 0
19.610000 0.283784 0
19.615000 0.252094 0
19.620000 0.219215 0
19.625000 0.185925 0
19.630000 0.152947 0
19.635000 0.120923 0
19.640000 0.090399 0
19.645000 0.061809 0
19.650000 0.035476 0
19.655000 0.011611 0
19.660000 -0.009676 0
19.665000 -0.028371 0
19.670000 -0.044534 0
19.675000 -0.058290 0
19.680000 -0.069810 0
19.685000 -0.079297 0
19.690000 -0.086970 0
19.695000 -0.093054 0
19.700000 -0.097772 0
19.705000 -0.101332 0
19.710000 -0.103928 0
19.715000 -0.105734 0
19.720000 -0.106598 0
19.725000 -0.105678 0
19.730000 -0.104763 0
19.735000 -0.103852 0
19.740000 -0.102945 0
19.745000 -0.102043 0
19.750000 -0.101144 0
19.755000 -0.100248 0
19.760000 -0.099352 0
19.765000 -0.098453 0
19.770000 -0.097544 0
19.775000 -0.096613 0
19.780000 -0.095638 0
19.785000 -0.094582 0
19.790000 -0.093390 0
19.795000 -0.091971 0
19.800000 -0.090192 0
19.805000 -0.087862 0
19.810000 -0.084720 0
19.815000 -0.080424 0
19.820000 -0.074550 0
19.825000 -0.066603 0
19.830000 -0.056049 0
19.835000 -0.042364 0
19.840000 -0.025107 0
19.845000 -0.004016 0
19.850000 0.020896 0
19.855000 0.049251 0
19.860000 0.080242 0
19.865000 0.112618 0
19.870000 0.144738 0
19.875000 0.174684 0
19.880000 0.200443 0
19.885000 0.220127 0
19.890000 0.232201 0
19.895000 0.235679 1
19.900000 0.230257 0
19.905000 0.216358 0
19.910000 0.195074 0
19.915000 0.168028 0
19.920000 0.137159 0
19.925000 0.104469 0
19.930000 0.071698 0
19.935000 0.039867 0
19.940000 0.008560 0
19.945000 -0.024855 0
19.950000 -0.065134 0
19.955000 -0.116545 0
19.960000 -0.177235 0
19.965000 -0.233532 0
19.970000 -0.259362 2
19.975000 -0.222490 0
19.980000 -0.093709 0
19.985000 0.142642 0
19.990000 0.471952 0
19.995000 0.829896 0
20.000000 1.105612 0
20.005000 1.189604 3
20.010000 1.039957 0
20.015000 0.715027 0
20.020000 0.332766 0
20.025000 0.000213 0
20.030000 -0.224122 0
20.035000 -0.327304 4
20.040000 -0.326877 0
20.045000 -0.259314 0
20.050000 -0.166910 0
20.055000 -0.082025 0
20.060000 -0.018272 0
20.065000 0.026213 0
20.070000 0.059418 0
20.075000 0.088377 0
20.080000 0.116974 0
20.085000 0.146634 0
20.090000 0.177511 0
20.095000 0.209226 0
20.100000 0.241183 0
20.105000 0.272670 0
20.110000 0.302914 0
20.115000 0.331107 0
20.120000 0.356444 0
20.125000 0.378162 0
20.130000 0.395572 0
20.135000 0.408102 0
20.140000 0.415319 0
20.145000 0.416961 5
20.150000 0.412946 0
20.155000 0.403377 0
20.160000 0.388543 0
20.165000 0.368897 0
20.170000 0.345035 0
20.175000 0.317667 0
20.180000 0.287579 0
20.185000 0.255595 0
20.190000 0.222541 0
20.195000 0.189209 0
20.200000 0.156328 0
20.205000 0.124538 0
20.210000 0.094375 0
20.215000 0.066260 0
20.220000 0.040494 0
20.225000 0.017269 0
20.230000 -0.003333 0
20.235000 -0.021318 0
20.240000 -0.036772 0
20.245000 -0.049838 0
20.250000 -0.060704 0
20.255000 -0.069585 0
20.260000 -0.076710 0
20.265000 -0.082311 0
20.270000 -0.086611 0
20.275000 -0.089818 0
20.280000 -0.092124 0
20.285000 -0.093697 0
20.290000 -0.093193 0
20.295000 -0.092340 0
20.300000 -0.091491 0
20.305000 -0.090646 0
20.310000 -0.089805 0
20.315000 -0.088968 0
20.320000 -0.088134 0
20.325000 -0.087300 0
20.330000 -0.086466 0
20.335000 -0.085624 0
20.340000 -0.084765 0
20.345000 -0.083872 0
20.350000 -0.082914 0
20.355000 -0.081841 0
20.360000 -0.080576 0
20.365000 -0.079000 0
20.370000 -0.076938 0
20.375000 -0.074147 0
20.380000 -0.070304 0
20.385000 -0.064997 0
20.390000 -0.057738 0
20.395000 -0.047985 0
20.400000 -0.035189 0
20.405000 -0.018870 0
20.410000 0.001296 0
20.415000 0.025368 0
20.420000 0.053042 0
20.425000 0.083581 0
20.430000 0.115781 0
20.435000 0.148020 0
20.440000 0.178360 0
20.445000 0.204737 0
20.450000 0.225180 0
20.455000 0.238059 0
20.460000 0.242295 1
20.465000 0.237510 0
20.470000 0.224081 0
20.475000 0.203091 0
20.480000 0.176183 0
20.485000 0.145340 0
20.490000 0.112619 0
20.495000 0.079811 0
20.500000 0.047956 0
20.505000 0.016587 0
20.510000 -0.017083 0
20.515000 -0.057991 0
20.520000 -0.110311 0
20.525000 -0.171397 0
20.530000 -0.226010 0
20.535000 -0.246371 2
20.540000 -0.199263 0
20.545000 -0.055814 0
20.550000 0.196863 0
20.555000 0.536913 0
20.560000 0.888879 0
20.565000 1.134368 0
20.570000 1.169982 3
20.575000 0.977035 0
20.580000 0.631382 0
20.585000 0.251344 0
20.590000 -0.065615 0
20.595000 -0.270763 0
20.600000 -0.357104 4
20.605000 -0.345143 0
20.610000 -0.272174 0
20.615000 -0.179178 0
20.620000 -0.095976 0
20.625000 -0.034043 0
20.630000 0.009375 0
20.635000 0.042215 0
20.640000 0.071175 0
20.645000 0.099890 0
20.650000 0.129678 0
20.655000 0.160662 0
20.660000 0.192467 0
20.665000 0.224507 0
20.670000 0.256090 0
20.675000 0.286458 0
20.680000 0.314824 0
20.685000 0.340400 0
20.690000 0.362437 0
20.695000 0.380258 0
20.700000 0.393293 0
20.705000 0.401109 0
20.710000 0.403431 5
20.715000 0.400159 0
20.720000 0.391376 0
20.725000 0.377338 0
20.730000 0.358468 0
20.735000 0.335328 0
20.740000 0.308598 0
20.745000 0.279032 0
20.750000 0.247435 0
20.755000 0.214614 0
20.760000 0.181354 0
20.765000 0.148384 0
20.770000 0.116350 0
20.775000 0.085803 0
20.780000 0.057182 0
20.785000 0.030815 0
20.790000 0.006917 0
20.795000 -0.014400 0
20.800000 -0.033120 0
20.805000 -0.049302 0
20.810000 -0.063071 0
20.815000 -0.074596 0
20.820000 -0.084082 0
20.825000 -0.091748 0
20.830000 -0.097821 0
20.835000 -0.102523 0
20.840000 -0.106064 0
20.845000 -0.108639 0
20.850000 -0.110422 0
20.855000 -0.111263 0
20.860000 -0.110319 0
20.865000 -0.109381 0
20.870000 -0.108447 0
20.875000 -0.107518 0
20.880000 -0.106592 0
20.885000 -0.105671 0
20.890000 -0.104752 0
20.895000 -0.103834 0
20.900000 -0.102912 0
20.905000 -0.101981 0
20.910000 -0.101027 0
20.915000 -0.100028 0
20.920000 -0.098948 0
20.925000 -0.097729 0
20.930000 -0.096279 0
20.935000 -0.094465 0
20.940000 -0.092091 0
20.945000 -0.088894 0
20.950000 -0.084526 0
20.955000 -0.078561 0
20.960000 -0.070498 0
20.965000 -0.059801 0
20.970000 -0.045944 0
20.975000 -0.028494 0
20.980000 -0.007196 0
20.985000 0.017922 0
20.990000 0.046458 0
20.995000 0.077580 0
21.000000 0.110010 0
21.005000 0.142080 0
21.010000 0.171857 0
21.015000 0.197319 0
21.020000 0.216588 0
21.025000 0.228152 0
21.030000 0.231061 1
21.035000 0.225059 0
21.040000 0.210620 0
21.045000 0.188883 0
21.050000 0.161507 0
21.055000 0.130452 0
21.060000 0.097720 0
21.065000 0.065021 0
21.070000 0.033294 0
21.075000 0.001965 0
21.080000 -0.031812 0
21.085000 -0.072916 0
21.090000 -0.125352 0
21.095000 -0.186393 0
21.100000 -0.241094 0
21.105000 -0.262365 2
21.110000 -0.217739 0
21.115000 -0.078702 0
21.120000 0.168347 0
21.125000 0.504496 0
21.130000 0.859575 0
21.135000 1.119477 0
21.140000 1.178674 3
21.145000 1.008255 0
21.150000 0.674250 0
21.155000 0.292290 0
21.160000 -0.036436 0
21.165000 -0.257618 0
21.170000 -0.359756 0
21.175000 -0.360010 4
21.180000 -0.293511 0
21.185000 -0.201208 0
21.190000 -0.115082 0
21.195000 -0.049412 0
21.200000 -0.003243 0
21.205000 0.030968 0
21.210000 0.060316 0
21.215000 0.088947 0
21.220000 0.118510 0
21.225000 0.149291 0
21.230000 0.180989 0
21.235000 0.213057 0
21.240000 0.244829 0
21.245000 0.275568 0
21.250000 0.304501 0
21.255000 0.330847 0
21.260000 0.353853 0
21.265000 0.372830 0
21.270000 0.387185 0
21.275000 0.396451 0
21.280000 0.400314 5
21.285000 0.398628 0
21.290000 0.391421 0
21.295000 0.378901 0
21.300000 0.361439 0
21.305000 0.339552 0
21.310000 0.313878 0
21.315000 0.285144 0
21.320000 0.254134 0
21.325000 0.221647 0
21.330000 0.188470 0
21.335000 0.155344 0
21.340000 0.122938 0
21.345000 0.091831 0
21.350000 0.062496 0
21.355000 0.035296 0
21.360000 0.010485 0
21.365000 -0.011792 0
21.370000 -0.031482 0
21.375000 -0.048619 0
21.380000 -0.063301 0
21.385000 -0.075681 0
21.390000 -0.085948 0
21.395000 -0.094316 0
21.400000 -0.101005 0
21.405000 -0.106239 0
21.410000 -0.110232 0
21.415000 -0.113181 0
21.420000 -0.115270 0
21.425000 -0.116657 0
21.430000 -0.116028 0
21.435000 -0.115061 0
21.440000 -0.114099 0
21.445000 -0.113142 0
21.450000 -0.112189 0
21.455000 -0.111240 0
21.460000 -0.110294 0
21.465000 -0.109351 0
21.470000 -0.108406 0
21.475000 -0.107456 0
21.480000 -0.106491 0
21.485000 -0.105494 0
21.490000 -0.104439 0
21.495000 -0.103279 0
21.500000 -0.101945 0
21.505000 -0.100327 0
21.510000 -0.098269 0
21.515000 -0.095549 0
21.520000 -0.091872 0
21.525000 -0.086859 0
21.530000 -0.080057 0
21.535000 -0.070952 0
21.540000 -0.059009 0
21.545000 -0.043738 0
21.550000 -0.024768 0
21.555000 -0.001946 0
21.560000 0.024565 0
21.565000 0.054213 0
21.570000 0.086008 0
21.575000 0.118535 0
21.580000 0.150034 0
21.585000 0.178539 0
21.590000 0.202079 0
21.595000 0.218897 0
21.600000 0.227668 0
21.605000 0.227673 1
21.610000 0.218896 0
21.615000 0.202025 0
21.620000 0.178368 0
21.625000 0.149681 0
21.630000 0.117941 0
21.635000 0.085080 0
21.640000 0.052627 0
21.645000 0.021172 0
21.650000 -0.010414 0
21.655000 -0.045592 0
21.660000 -0.089376 0
21.665000 -0.144638 0
21.670000 -0.206018 0
21.675000 -0.255498 0
21.680000 -0.264241 2
21.685000 -0.200241 0
21.690000 -0.037575 0
21.695000 0.231876 0
21.700000 0.579726 0
21.705000 0.925492 0
21.710000 1.152605 0
21.715000 1.166880 3
21.720000 0.958079 0
21.725000 0.606202 0
21.730000 0.227466 0
21.735000 -0.085164 0
21.740000 -0.286212 0
21.745000 -0.369990 4
21.750000 -0.357048 0
21.755000 -0.283999 0
21.760000 -0.190949 0
21.765000 -0.107263 0
21.770000 -0.044546 0
21.775000 -0.000414 0
21.780000 0.032853 0
21.785000 0.061962 0
21.790000 0.090659 0
21.795000 0.120365 0
21.800000 0.151271 0
21.805000 0.183039 0
21.810000 0.215114 0
21.815000 0.246828 0
21.820000 0.277448 0
21.825000 0.306207 0
21.830000 0.332333 0
21.835000 0.355084 0
21.840000 0.373784 0
21.845000 0.387853 0
21.850000 0.396837 0
21.855000 0.400435 5
21.860000 0.398510 0
21.865000 0.391098 0
21.870000 0.378411 0
21.875000 0.360820 0
21.880000 0.338843 0
21.885000 0.313112 0
21.890000 0.284350 0
21.895000 0.253330 0
21.900000 0.220845 0
21.905000 0.187674 0
21.910000 0.154550 0
21.915000 0.122135 0
21.920000 0.091004 0
21.925000 0.061628 0
21.930000 0.034369 0
21.935000 0.009479 0
21.940000 -0.012892 0
21.945000 -0.032690 0
21.950000 -0.049944 0
21.955000 -0.064748 0
21.960000 -0.077253 0
21.965000 -0.087643 0
21.970000 -0.096127 0
21.975000 -0.102926 0
21.980000 -0.108259 0
21.985000 -0.112339 0
21.990000 -0.115366 0
21.995000 -0.117519 0
22.000000 -0.118959 0
22.005000 -0.118329 0
22.010000 -0.117350 0
22.015000 -0.116377 0
22.020000 -0.115408 0
22.025000 -0.114443 0
22.030000 -0.113483 0
22.035000 -0.112527 0
22.040000 -0.111573 0
22.045000 -0.110619 0
22.050000 -0.109659 0
22.055000 -0.108687 0
22.060000 -0.107687 0
22.065000 -0.106634 0
22.070000 -0.105487 0
22.075000 -0.104181 0
22.080000 -0.102617 0
22.085000 -0.100648 0
22.090000 -0.098070 0
22.095000 -0.094604 0
22.100000 -0.089894 0
22.105000 -0.083505 0
22.110000 -0.074937 0
22.115000 -0.063663 0
22.120000 -0.049181 0
22.125000 -0.031089 0
22.130000 -0.009176 0
22.135000 0.016478 0
22.140000 0.045428 0
22.145000 0.076801 0
22.150000 0.109300 0
22.155000 0.141261 0
22.160000 0.170774 0
22.165000 0.195869 0
22.170000 0.214726 0
22.175000 0.225896 0
22.180000 0.228481 1
22.185000 0.222260 0
22.190000 0.207712 0
22.195000 0.185963 0
22.200000 0.158636 0
22.205000 0.127647 0
22.210000 0.094954 0
22.215000 0.062248 0
22.220000 0.030489 0
22.225000 -0.000779 0
22.230000 -0.034188 0
22.235000 -0.074420 0
22.240000 -0.125676 0
22.245000 -0.186237 0
22.250000 -0.242929 0
22.255000 -0.270441 2
22.260000 -0.237191 0
22.265000 -0.114157 0
22.270000 0.115167 0
22.275000 0.439094 0
22.280000 0.798553 0
22.285000 1.087327 0
22.290000 1.194728 3
22.295000 1.071326 0
22.300000 0.763077 0
22.305000 0.381486 0
22.310000 0.035747 0
22.315000 -0.209194 0
22.320000 -0.334243 0
22.325000 -0.351937 4
22.330000 -0.294983 0
22.335000 -0.204680 0
22.340000 -0.115900 0
22.345000 -0.046401 0
22.350000 0.002619 0
22.355000 0.038230 0
22.360000 0.067954 0
22.365000 0.096477 0
22.370000 0.125791 0
22.375000 0.156336 0
22.380000 0.187869 0
22.385000 0.219864 0
22.390000 0.251664 0
22.395000 0.282536 0
22.400000 0.311702 0
22.405000 0.338374 0
22.410000 0.361789 0
22.415000 0.381240 0
22.420000 0.396117 0
22.425000 0.405934 0
22.430000 0.410354 5
22.435000 0.409211 0
22.440000 0.402515 0
22.445000 0.390456 0
22.450000 0.373392 0
22.455000 0.351832 0
22.460000 0.326409 0
22.465000 0.297850 0
22.470000 0.266939 0
22.475000 0.234484 0
22.480000 0.201279 0
22.485000 0.168075 0
22.490000 0.135553 0
22.495000 0.104300 0
22.500000 0.074802 0
22.505000 0.047431 0
22.510000 0.022447 0
22.515000 0.000003 0
22.520000 -0.019845 0
22.525000 -0.037127 0
22.530000 -0.051940 0
22.535000 -0.064438 0
22.540000 -0.074809 0
22.545000 -0.083267 0
22.550000 -0.090037 0
22.555000 -0.095342 0
22.560000 -0.099399 0
22.565000 -0.102407 0
22.570000 -0.104550 0
22.575000 -0.105988 0
22.580000 -0.105412 0
22.585000 -0.104498 0
22.590000 -0.103589 0
22.595000 -0.102684 0
22.600000 -0.101783 0
22.605000 -0.100886 0
22.610000 -0.099992 0
22.615000 -0.099100 0
22.620000 -0.098206 0
22.625000 -0.097306 0
22.630000 -0.096390 0
22.635000 -0.095441 0
22.640000 -0.094431 0
22.645000 -0.093313 0
22.650000 -0.092014 0
22.655000 -0.090422 0
22.660000 -0.088374 0
22.665000 -0.085643 0
22.670000 -0.081924 0
22.675000 -0.076831 0
22.680000 -0.069900 0
22.685000 -0.060609 0
22.690000 -0.048421 0
22.695000 -0.032849 0
22.700000 -0.013536 0
22.705000 0.009643 0
22.710000 0.036488 0
22.715000 0.066393 0
22.720000 0.098311 0
22.725000 0.130771 0
22.730000 0.161964 0
22.735000 0.189897 0
22.740000 0.212597 0
22.745000 0.228341 0
22.750000 0.235868 1
22.755000 0.234549 0
22.760000 0.224472 0
22.765000 0.206430 0
22.770000 0.181824 0
22.775000 0.152474 0
22.780000 0.120385 0
22.785000 0.087464 0
22.790000 0.055138 0
22.795000 0.023762 0
22.800000 -0.008188 0
22.805000 -0.044610 0
22.810000 -0.090533 0
22.815000 -0.147781 0
22.820000 -0.208699 0
22.825000 -0.252618 2
22.830000 -0.249121 0
22.835000 -0.166439 0
22.840000 0.018987 0
22.845000 0.309328 0
22.850000 0.665377 0
22.855000 0.995053 0
22.860000 1.179788 3
22.865000 1.138880 0
22.870000 0.884129 0
22.875000 0.513723 0
22.880000 0.146658 0
22.885000 -0.134200 0
22.890000 -0.295929 0
22.895000 -0.342847 4
22.900000 -0.303257 0
22.905000 -0.218227 0
22.910000 -0.126593 0
22.915000 -0.051555 0
22.920000 0.001960 0
22.925000 0.039942 0
22.930000 0.070431 0
22.935000 0.098928 0
22.940000 0.127967 0
22.945000 0.158237 0
22.950000 0.189583 0
22.955000 0.221505 0
22.960000 0.253351 0
22.965000 0.284384 0
22.970000 0.313814 0
22.975000 0.340837 0
22.980000 0.364669 0
22.985000 0.384580 0
22.990000 0.399934 0
22.995000 0.410219 0
23.000000 0.415078 5
23.005000 0.414324 0
23.010000 0.407956 0
23.015000 0.396154 0
23.020000 0.379274 0
23.025000 0.357831 0
23.030000 0.332464 0
23.035000 0.303915 0
23.040000 0.272981 0
23.045000 0.240488 0
23.050000 0.207245 0
23.055000 0.174017 0
23.060000 0.141497 0
23.065000 0.110280 0
23.070000 0.080857 0
23.075000 0.053600 0
23.080000 0.028768 0
23.085000 0.006509 0
23.090000 -0.013129 0
23.095000 -0.030182 0
23.100000 -0.044758 0
23.105000 -0.057017 0
23.110000 -0.067156 0
23.115000 -0.075395 0
23.120000 -0.081963 0
23.125000 -0.087089 0
23.130000 -0.090989 0
23.135000 -0.093866 0
23.140000 -0.095902 0
23.145000 -0.096934 0
23.150000 -0.096062 0
23.155000 -0.095195 0
23.160000 -0.094332 0
23.165000 -0.093473 0
23.170000 -0.092618 0
23.175000 -0.091766 0
23.180000 -0.090917 0
23.185000 -0.090069 0
23.190000 -0.089218 0
23.195000 -0.088358 0
23.200000 -0.087477 0
23.205000 -0.086554 0
23.210000 -0.085557 0
23.215000 -0.084427 0
23.220000 -0.083080 0
23.225000 -0.081383 0
23.230000 -0.079147 0
23.235000 -0.076111 0
23.240000 -0.071933 0
23.245000 -0.066185 0
23.250000 -0.058365 0
23.255000 -0.047928 0
23.260000 -0.034339 0
23.265000 -0.017148 0
23.270000 0.003915 0
23.275000 0.028835 0
23.280000 0.057223 0
23.285000 0.088244 0
23.290000 0.120610 0
23.295000 0.152633 0
23.300000 0.182348 0
23.305000 0.207705 0
23.310000 0.226797 0
23.315000 0.238097 0
23.320000 0.240658 1
23.325000 0.234244 0
23.330000 0.219365 0
23.335000 0.197209 0
23.340000 0.169484 0
23.345000 0.138192 0
23.350000 0.105355 0
23.355000 0.072668 0
23.360000 0.040982 0
23.365000 0.009518 0
23.370000 -0.024875 0
23.375000 -0.067257 0
23.380000 -0.121216 0
23.385000 -0.182627 0
23.390000 -0.234462 0
23.395000 -0.247898 2
23.400000 -0.189961 0
23.405000 -0.033267 0
23.410000 0.231923 0
23.415000 0.578327 0
23.420000 0.924683 0
23.425000 1.151513 0
23.430000 1.162254 3
23.435000 0.947793 0
23.440000 0.592260 0
23.445000 0.215458 0
23.450000 -0.089488 0
23.455000 -0.279304 0
23.460000 -0.351140 4
23.465000 -0.328504 0
23.470000 -0.250410 0
23.475000 -0.157453 0
23.480000 -0.077194 0
23.485000 -0.018576 0
23.490000 0.022573 0
23.495000 0.054364 0
23.500000 0.083072 0
23.505000 0.111890 0
23.510000 0.141868 0
23.515000 0.173006 0
23.520000 0.204871 0
23.525000 0.236848 0
23.530000 0.268223 0
23.535000 0.298223 0
23.540000 0.326049 0
23.545000 0.350914 0
23.550000 0.372071 0
23.555000 0.388860 0
23.560000 0.400731 0
23.565000 0.407282 0
23.570000 0.408276 5
23.575000 0.403653 0
23.580000 0.393539 0
23.585000 0.378235 0
23.590000 0.358206 0
23.595000 0.334051 0
23.600000 0.306478 0
23.605000 0.276266 0
23.610000 0.244231 0
23.615000 0.211185 0
23.620000 0.177906 0
23.625000 0.145111 0
23.630000 0.113424 0
23.635000 0.083371 0
23.640000 0.055362 0
23.645000 0.029693 0
23.650000 0.006549 0
23.655000 -0.013989 0
23.660000 -0.031928 0
23.665000 -0.047351 0
23.670000 -0.060402 0
23.675000 -0.071263 0
23.680000 -0.080147 0
23.685000 -0.087280 0
23.690000 -0.092890 0
23.695000 -0.097197 0
23.700000 -0.100409 0
23.705000 -0.102714 0
23.710000 -0.104281 0
23.715000 -0.103731 0
23.720000 -0.102826 0
23.725000 -0.101924 0
23.730000 -0.101028 0
23.735000 -0.100135 0
23.740000 -0.099246 0
23.745000 -0.098361 0
23.750000 -0.097477 0
23.755000 -0.096593 0
23.760000 -0.095703 0
23.765000 -0.094798 0
23.770000 -0.093862 0
23.775000 -0.092868 0
23.780000 -0.091771 0
23.785000 -0.090499 0
23.790000 -0.088943 0
23.795000 -0.086942 0
23.800000 -0.084270 0
23.805000 -0.080625 0
23.810000 -0.075619 0
23.815000 -0.068785 0
23.820000 -0.059597 0
23.825000 -0.047509 0
23.830000 -0.032024 0
23.835000 -0.012778 0
23.840000 0.010361 0
23.845000 0.037194 0
23.850000 0.067108 0
23.855000 0.099039 0
23.860000 0.131491 0
23.865000 0.162625 0
23.870000 0.190420 0
23.875000 0.212880 0
23.880000 0.228272 0
23.885000 0.235344 1
23.890000 0.233495 0
23.895000 0.222859 0
23.900000 0.204284 0
23.905000 0.179229 0
23.910000 0.149561 0
23.915000 0.117317 0
23.920000 0.084403 0
23.925000 0.052186 0
23.930000 0.020862 0
23.935000 -0.011386 0
23.940000 -0.048767 0
23.945000 -0.096270 0
23.950000 -0.154803 0
23.955000 -0.214804 0
23.960000 -0.253463 2
23.965000 -0.239124 0
23.970000 -0.140268 0
23.975000 0.064431 0
23.980000 0.371307 0
23.985000 0.730866 0
23.990000 1.041116 0
23.995000 1.183870 3
24.000000 1.095067 0
24.005000 0.808749 0
24.010000 0.430612 0
24.015000 0.073804 0
24.020000 -0.189085 0
24.025000 -0.332743 0
24.030000 -0.365590 4
24.035000 -0.317755 0
24.040000 -0.230051 0
24.045000 -0.139268 0
24.050000 -0.066151 0
24.055000 -0.014115 0
24.060000 0.023180 0
24.065000 0.053517 0
24.070000 0.082091 0
24.075000 0.111261 0
24.080000 0.141651 0
24.085000 0.173095 0
24.090000 0.205102 0
24.095000 0.237032 0
24.100000 0.268165 0
24.105000 0.297730 0
24.110000 0.324940 0
24.115000 0.349026 0
24.120000 0.369271 0
24.125000 0.385047 0
24.130000 0.395844 0
24.135000 0.401297 5
24.140000 0.401210 0
24.145000 0.395560 0
24.150000 0.384506 0
24.155000 0.368374 0
24.160000 0.347646 0
24.165000 0.322933 0
24.170000 0.294946 0
24.175000 0.264460 0
24.180000 0.232278 0
24.185000 0.199199 0
24.190000 0.165982 0
24.195000 0.133321 0
24.200000 0.101823 0
24.205000 0.071992 0
24.210000 0.044222 0
24.215000 0.018795 0
24.220000 -0.004118 0
24.225000 -0.024441 0
24.230000 -0.042189 0
24.235000 -0.057447 0
24.240000 -0.070357 0
24.245000 -0.081103 0
24.250000 -0.089893 0
24.255000 -0.096950 0
24.260000 -0.102499 0
24.265000 -0.106756 0
24.270000 -0.109927 0
24.275000 -0.112197 0
24.280000 -0.113731 0
24.285000 -0.113137 0
24.290000 -0.112184 0
24.295000 -0.111236 0
24.300000 -0.110293 0
24.305000 -0.109354 0
24.310000 -0.108420 0
24.315000 -0.107489 0
24.320000 -0.106560 0
24.325000 -0.105631 0
24.330000 -0.104697 0
24.335000 -0.103750 0
24.340000 -0.102775 0
24.345000 -0.101746 0
24.350000 -0.100623 0
24.355000 -0.099337 0
24.360000 -0.097789 0
24.365000 -0.095828 0
24.370000 -0.093243 0
24.375000 -0.089749 0
24.380000 -0.084979 0
24.385000 -0.078486 0
24.390000 -0.069761 0
24.395000 -0.058267 0
24.400000 -0.043498 0
24.405000 -0.025060 0
24.410000 -0.002763 0
24.415000 0.023277 0
24.420000 0.052558 0
24.425000 0.084142 0
24.430000 0.116658 0
24.435000 0.148369 0
24.440000 0.177316 0
24.445000 0.201504 0
24.450000 0.219130 0
24.455000 0.228805 0
24.460000 0.229734 1
24.465000 0.221824 0
24.470000 0.205697 0
24.475000 0.182614 0
24.480000 0.154305 0
24.485000 0.122750 0
24.490000 0.089908 0
24.495000 0.057370 0
24.500000 0.025835 0
24.505000 -0.005657 0
24.510000 -0.040405 0
24.515000 -0.083415 0
24.520000 -0.137927 0
24.525000 -0.199322 0
24.530000 -0.250362 0
24.535000 -0.262563 2
24.540000 -0.203668 0
24.545000 -0.046978 0
24.550000 0.217091 0
24.555000 0.562456 0
24.560000 0.910804 0
24.565000 1.145595 0
24.570000 1.169627 3
24.575000 0.968707 0
24.580000 0.620448 0
24.585000 0.240658 0
24.590000 -0.076112 0
24.595000 -0.282457 0
24.600000 -0.371259 4
24.605000 -0.362068 0
24.610000 -0.290918 0
24.615000 -0.198013 0
24.620000 -0.113429 0
24.625000 -0.049612 0
24.630000 -0.004686 0
24.635000 0.028974 0
24.640000 0.058195 0
24.645000 0.086874 0
24.650000 0.116522 0
24.655000 0.147375 0
24.660000 0.179118 0
24.665000 0.211202 0
24.670000 0.242968 0
24.675000 0.273687 0
24.680000 0.302594 0
24.685000 0.328918 0
24.690000 0.351917 0
24.695000 0.370909 0
24.700000 0.385310 0
24.705000 0.394657 0
24.710000 0.398639 5
24.715000 0.397106 0
24.720000 0.390086 0
24.725000 0.377774 0
24.730000 0.360533 0
24.735000 0.338867 0
24.740000 0.313402 0
24.745000 0.284851 0
24.750000 0.253985 0
24.755000 0.221596 0
24.760000 0.188460 0
24.765000 0.155316 0
24.770000 0.122831 0
24.775000 0.091585 0
24.780000 0.062057 0
24.785000 0.034618 0
24.790000 0.009529 0
24.795000 -0.013052 0
24.800000 -0.033065 0
24.805000 -0.050531 0
24.810000 -0.065539 0
24.815000 -0.078234 0
24.820000 -0.088799 0
24.825000 -0.097441 0
24.830000 -0.104377 0
24.835000 -0.109830 0
24.840000 -0.114011 0
24.845000 -0.117121 0
24.850000 -0.119342 0
24.855000 -0.120836 0
24.860000 -0.120206 0
24.865000 -0.119218 0
24.870000 -0.118235 0
24.875000 -0.117257 0
24.880000 -0.116284 0
24.885000 -0.115315 0
24.890000 -0.114349 0
24.895000 -0.113386 0
24.900000 -0.112424 0
24.905000 -0.111457 0
24.910000 -0.110478 0
24.915000 -0.109474 0
24.920000 -0.108420 0
24.925000 -0.107278 0
24.930000 -0.105987 0
24.935000 -0.104451 0
24.940000 -0.102530 0
24.945000 -0.100029 0
24.950000 -0.096678 0
24.955000 -0.092130 0
24.960000 -0.085961 0
24.965000 -0.077679 0
24.970000 -0.066759 0
24.975000 -0.052691 0
24.980000 -0.035059 0
24.985000 -0.013624 0
24.990000 0.011579 0
24.995000 0.040153 0
25.000000 0.071284 0
25.005000 0.103730 0
25.010000 0.135874 0
25.015000 0.165831 0
25.020000 0.191633 0
25.025000 0.211430 0
25.030000 0.223713 0
25.035000 0.227506 1
25.040000 0.222489 0
25.045000 0.209048 0
25.050000 0.188222 0
25.055000 0.161574 0
25.060000 0.130989 0
25.065000 0.098432 0
25.070000 0.065651 0
25.075000 0.033747 0
25.080000 0.002520 0
25.085000 -0.030309 0
25.090000 -0.069197 0
25.095000 -0.118695 0
25.100000 -0.178370 0
25.105000 -0.237007 0
25.110000 -0.270938 2
25.115000 -0.249050 0
25.120000 -0.141402 0
25.125000 0.071225 0
25.130000 0.382878 0
25.135000 0.742863 0
25.140000 1.050912 0
25.145000 1.192858 3
25.150000 1.105863 0
25.155000 0.821033 0
25.160000 0.443227 0
25.165000 0.085419 0
25.170000 -0.179393 0
25.175000 -0.325328 0
25.180000 -0.360273 4
25.185000 -0.313880 0
25.190000 -0.226704 0
25.195000 -0.135667 0
25.200000 -0.061935 0
25.205000 -0.009332 0
25.210000 0.028294 0
25.215000 0.058741 0
25.220000 0.087292 0
25.225000 0.116385 0
25.230000 0.146692 0
25.235000 0.178066 0
25.240000 0.210027 0
25.245000 0.241946 0
25.250000 0.273105 0
25.255000 0.302741 0
25.260000 0.330070 0
25.265000 0.354323 0
25.270000 0.374784 0
25.275000 0.390820 0
25.280000 0.401916 0
25.285000 0.407699 0
25.290000 0.407961 5
25.295000 0.402668 0
25.300000 0.391966 0
25.305000 0.376167 0
25.310000 0.355741 0
25.315000 0.331288 0
25.320000 0.303508 0
25.325000 0.273170 0
25.330000 0.241072 0
25.335000 0.208010 0
25.340000 0.174747 0
25.345000 0.141979 0
25.350000 0.110320 0
25.355000 0.080282 0
25.360000 0.052267 0
25.365000 0.026567 0
25.370000 0.003364 0
25.375000 -0.017258 0
25.380000 -0.035305 0
25.385000 -0.050855 0
25.390000 -0.064044 0
25.395000 -0.075050 0
25.400000 -0.084080 0
25.405000 -0.091355 0
25.410000 -0.097097 0
25.415000 -0.101526 0
25.420000 -0.104845 0
25.425000 -0.107243 0
25.430000 -0.108887 0
25.435000 -0.109638 0
25.440000 -0.108703 0
25.445000 -0.107773 0
25.450000 -0.106847 0
25.455000 -0.105925 0
25.460000 -0.105008 0
25.465000 -0.104094 0
25.470000 -0.103183 0
25.475000 -0.102271 0
25.480000 -0.101356 0
25.485000 -0.100429 0
25.490000 -0.099477 0
25.495000 -0.098476 0
25.500000 -0.097389 0
25.505000 -0.096153 0
25.510000 -0.094673 0
25.515000 -0.092810 0
25.520000 -0.090365 0
25.525000 -0.087066 0
25.530000 -0.082562 0
25.535000 -0.076422 0
25.540000 -0.068146 0
25.545000 -0.057202 0
25.550000 -0.043076 0
25.555000 -0.025347 0
25.560000 -0.003784 0
25.565000 0.021564 0
25.570000 0.050273 0
25.575000 0.081492 0
25.580000 0.113935 0
25.585000 0.145936 0
25.590000 0.175573 0
25.595000 0.200849 0
25.600000 0.219913 0
25.605000 0.231282 0
25.610000 0.234031 1
25.615000 0.227920 0
25.620000 0.213422 0
25.625000 0.191671 0
25.630000 0.164307 0
25.635000 0.133268 0
25.640000 0.100536 0
25.645000 0.067811 0
25.650000 0.036047 0
25.655000 0.004730 0
25.660000 -0.028878 0
25.665000 -0.069561 0
25.670000 -0.121430 0
25.675000 -0.182273 0
25.680000 -0.238032 0
25.685000 -0.262482 2
25.690000 -0.223567 0
25.695000 -0.092482 0
25.700000 0.145879 0
25.705000 0.476264 0
25.710000 0.833987 0
25.715000 1.108588 0
25.720000 1.191585 3
25.725000 1.042947 0
25.730000 0.719334 0
25.735000 0.336991 0
25.740000 0.002254 0
25.745000 -0.225887 0
25.750000 -0.333514 0
25.755000 -0.337027 4
25.760000 -0.271831 0
25.765000 -0.179773 0
25.770000 -0.093726 0
25.775000 -0.028344 0
25.780000 0.017420 0
25.785000 0.051299 0
25.790000 0.080465 0
25.795000 0.109028 0
25.800000 0.138578 0
25.805000 0.169354 0
25.810000 0.201020 0
25.815000 0.233005 0
25.820000 0.264618 0
25.825000 0.295103 0
25.830000 0.323665 0
25.835000 0.349508 0
25.840000 0.371869 0
25.845000 0.390056 0
25.850000 0.403483 0
25.855000 0.411697 0
25.860000 0.414407 5
25.865000 0.411499 0
25.870000 0.403040 0
25.875000 0.389279 0
25.880000 0.370631 0
25.885000 0.347657 0
25.890000 0.321035 0
25.895000 0.291527 0
25.900000 0.259941 0
25.905000 0.227094 0
25.910000 0.193780 0
25.915000 0.160736 0
25.920000 0.128618 0
25.925000 0.097983 0
25.930000 0.069279 0
25.935000 0.042835 0
25.940000 0.018872 0
25.945000 -0.002499 0
25.950000 -0.021260 0
25.955000 -0.037472 0
25.960000 -0.051261 0
25.965000 -0.062801 0
25.970000 -0.072295 0
25.975000 -0.079968 0
25.980000 -0.086047 0
25.985000 -0.090757 0
25.990000 -0.094310 0
25.995000 -0.096900 0
26.000000 -0.098703 0
26.005000 -0.099573 0
26.010000 -0.098688 0
26.015000 -0.097807 0
26.020000 -0.096931 0
26.025000 -0.096059 0
26.030000 -0.095191 0
26.035000 -0.094326 0
26.040000 -0.093464 0
26.045000 -0.092601 0
26.050000 -0.091735 0
26.055000 -0.090857 0
26.060000 -0.089954 0
26.065000 -0.089002 0
26.070000 -0.087963 0
26.075000 -0.086774 0
26.080000 -0.085339 0
26.085000 -0.083514 0
26.090000 -0.081094 0
26.095000 -0.077800 0
26.100000 -0.073271 0
26.105000 -0.067063 0
26.110000 -0.058662 0
26.115000 -0.047524 0
26.120000 -0.033128 0
26.125000 -0.015061 0
26.130000 0.006892 0
26.135000 0.032640 0
26.140000 0.061700 0
26.145000 0.093145 0
26.150000 0.125601 0
26.155000 0.157319 0
26.160000 0.186311 0
26.165000 0.210548 0
26.170000 0.228193 0
26.175000 0.237829 0
26.180000 0.238648 1
26.185000 0.230559 0
26.190000 0.214208 0
26.195000 0.190886 0
26.200000 0.162364 0
26.205000 0.130657 0
26.210000 0.097748 0
26.215000 0.065218 0
26.220000 0.033693 0
26.225000 0.002038 0
26.230000 -0.033287 0
26.235000 -0.077402 0
26.240000 -0.133099 0
26.245000 -0.194482 0
26.250000 -0.242531 0
26.255000 -0.247362 2
26.260000 -0.176401 0
26.265000 -0.004106 0
26.270000 0.275290 0
26.275000 0.627779 0
26.280000 0.965319 0
26.285000 1.167880 3
26.290000 1.147638 0
26.295000 0.908293 0
26.300000 0.542944 0
26.305000 0.171682 0
26.310000 -0.118319 0
26.315000 -0.290228 0
26.320000 -0.345837 4
26.325000 -0.311889 0
26.330000 -0.228964 0
26.335000 -0.136725 0
26.340000 -0.059940 0
26.345000 -0.004830 0
26.350000 0.034091 0
26.355000 0.064942 0
26.360000 0.093488 0
26.365000 0.122460 0
26.370000 0.152651 0
26.375000 0.183946 0
26.380000 0.215862 0
26.385000 0.247754 0
26.390000 0.278890 0
26.395000 0.308482 0
26.400000 0.335724 0
26.405000 0.359829 0
26.410000 0.380061 0
26.415000 0.395774 0
26.420000 0.406447 0
26.425000 0.411710 5
26.430000 0.411364 0
26.435000 0.405393 0
26.440000 0.393968 0
26.445000 0.377433 0
26.450000 0.356292 0
26.455000 0.331179 0
26.460000 0.302830 0
26.465000 0.272042 0
26.470000 0.239639 0
26.475000 0.206435 0
26.480000 0.173200 0
26.485000 0.140631 0
26.490000 0.109332 0
26.495000 0.079801 0
26.500000 0.052418 0
26.505000 0.027448 0
26.510000 0.005047 0
26.515000 -0.014732 0
26.520000 -0.031920 0
26.525000 -0.046622 0
26.530000 -0.058994 0
26.535000 -0.069234 0
26.540000 -0.077560 0
26.545000 -0.084202 0
26.550000 -0.089388 0
26.555000 -0.093337 0
26.560000 -0.096251 0
26.565000 -0.098314 0
26.570000 -0.099689 0
26.575000 -0.099129 0
26.580000 -0.098247 0
26.585000 -0.097368 0
26.590000 -0.096494 0
26.595000 -0.095624 0
26.600000 -0.094758 0
26.605000 -0.093894 0
26.610000 -0.093031 0
26.615000 -0.092166 0
26.620000 -0.091292 0
26.625000 -0.090397 0
26.630000 -0.089463 0
26.635000 -0.088456 0
26.640000 -0.087320 0
26.645000 -0.085970 0
26.650000 -0.084276 0
26.655000 -0.082054 0
26.660000 -0.079043 0
26.665000 -0.074905 0
26.670000 -0.069215 0
26.675000 -0.061472 0
26.680000 -0.051133 0
26.685000 -0.037660 0
26.690000 -0.020596 0
26.695000 0.000336 0
26.700000 0.025136 0
26.705000 0.053425 0
26.710000 0.084386 0
26.715000 0.116746 0
26.720000 0.148825 0
26.725000 0.178664 0
26.730000 0.204207 0
26.735000 0.223539 0
26.740000 0.235114 0
26.745000 0.237964 1
26.750000 0.231830 0
26.755000 0.217200 0
26.760000 0.195246 0
26.765000 0.167664 0
26.770000 0.136456 0
26.775000 0.103649 0
26.780000 0.070955 0
26.785000 0.039256 0
26.790000 0.007827 0
26.795000 -0.026425 0
26.800000 -0.068546 0
26.805000 -0.122227 0
26.810000 -0.183592 0
26.815000 -0.235904 0
26.820000 -0.250497 2
26.825000 -0.194350 0
26.830000 -0.039821 0
26.835000 0.223357 0
26.840000 0.568808 0
26.845000 0.916203 0
26.850000 1.146187 0
26.855000 1.161026 3
26.860000 0.950163 0
26.865000 0.596552 0
26.870000 0.218826 0
26.875000 -0.089519 0
26.880000 -0.284051 0
26.885000 -0.360700 4
26.890000 -0.341823 0
26.895000 -0.265580 0
26.900000 -0.172494 0
26.905000 -0.090900 0
26.910000 -0.030763 0
26.915000 0.011456 0
26.920000 0.043762 0
26.925000 0.072608 0
26.930000 0.101389 0
26.935000 0.131284 0
26.940000 0.162358 0
26.945000 0.194209 0
26.950000 0.226243 0
26.955000 0.257762 0
26.960000 0.288005 0
26.965000 0.316184 0
26.970000 0.341514 0
26.975000 0.363252 0
26.980000 0.380727 0
26.985000 0.393381 0
26.990000 0.400792 0
26.995000 0.402698 5
27.000000 0.399013 0
27.005000 0.389833 0
27.010000 0.375427 0
27.015000 0.356227 0
27.020000 0.332807 0
27.025000 0.305850 0
27.030000 0.276116 0
27.035000 0.244409 0
27.040000 0.211536 0
27.045000 0.178277 0
27.050000 0.145356 0
27.055000 0.113412 0
27.060000 0.082987 0
27.065000 0.054514 0
27.070000 0.028311 0
27.075000 0.004587 0
27.080000 -0.016555 0
27.085000 -0.035101 0
27.090000 -0.051118 0
27.095000 -0.064732 0
27.100000 -0.076117 0
27.105000 -0.085477 0
27.110000 -0.093032 0
27.115000 -0.099009 0
27.120000 -0.103629 0
27.125000 -0.107101 0
27.130000 -0.109619 0
27.135000 -0.111355 0
27.140000 -0.112163 0
27.145000 -0.111215 0
27.150000 -0.110272 0
27.155000 -0.109334 0
27.160000 -0.108400 0
27.165000 -0.107470 0
27.170000 -0.106544 0
27.175000 -0.105621 0
27.180000 -0.104698 0
27.185000 -0.103772 0
27.190000 -0.102835 0
27.195000 -0.101874 0
27.200000 -0.100868 0
27.205000 -0.099778 0
27.210000 -0.098545 0
27.215000 -0.097076 0
27.220000 -0.095234 0
27.225000 -0.092821 0
27.230000 -0.089570 0
27.235000 -0.085130 0
27.240000 -0.079070 0
27.245000 -0.070889 0
27.250000 -0.060048 0
27.255000 -0.046027 0
27.260000 -0.028397 0
27.265000 -0.006916 0
27.270000 0.018373 0
27.275000 0.047051 0
27.280000 0.078265 0
27.285000 0.110720 0
27.290000 0.142737 0
27.295000 0.172373 0
27.300000 0.197613 0
27.305000 0.216591 0
27.310000 0.227815 0
27.315000 0.230365 1
27.320000 0.224013 0
27.325000 0.209262 0
27.330000 0.187275 0
27.335000 0.159722 0
27.340000 0.128571 0
27.345000 0.095815 0
27.350000 0.063146 0
27.355000 0.031459 0
27.360000 0.000111 0
27.365000 -0.033831 0
27.370000 -0.075278 0
27.375000 -0.128107 0
27.380000 -0.189251 0
27.385000 -0.243329 0
27.390000 -0.262966 2
27.395000 -0.215706 0
27.400000 -0.073354 0
27.405000 0.176969 0
27.410000 0.515019 0
27.415000 0.869044 0
27.420000 1.124338 0
27.425000 1.176828 3
27.430000 1.000325 0
27.435000 0.663758 0
27.440000 0.281956 0
27.445000 -0.045624 0
27.450000 -0.265884 0
27.455000 -0.367735 0
27.460000 -0.368213 4
27.465000 -0.302053 0
27.470000 -0.209803 0
27.475000 -0.123322 0
27.480000 -0.057081 0
27.485000 -0.010399 0
27.490000 0.024125 0
27.495000 0.053595 0
27.500000 0.082235 0
27.505000 0.111761 0
27.510000 0.142503 0
27.515000 0.174183 0
27.520000 0.206269 0
27.525000 0.238109 0
27.530000 0.268978 0
27.535000 0.298113 0
27.540000 0.324740 0
27.545000 0.348112 0
27.550000 0.367537 0
27.555000 0.382419 0
27.560000 0.392283 0
27.565000 0.396799 5
27.570000 0.395803 0
27.575000 0.389304 0
27.580000 0.377484 0
27.585000 0.360689 0
27.590000 0.339413 0
27.595000 0.314273 0
27.600000 0.285977 0
27.605000 0.255294 0
27.610000 0.223014 0
27.615000 0.189921 0
27.620000 0.156757 0
27.625000 0.124198 0
27.630000 0.092834 0
27.635000 0.063153 0
27.640000 0.035536 0
27.645000 0.010253 0
27.650000 -0.012529 0
27.655000 -0.032742 0
27.660000 -0.050401 0
27.665000 -0.065592 0
27.670000 -0.078455 0
27.675000 -0.089170 0
27.680000 -0.097944 0
27.685000 -0.104996 0
27.690000 -0.110545 0
27.695000 -0.114807 0
27.700000 -0.117983 0
27.705000 -0.120256 0
27.710000 -0.121792 0
27.715000 -0.121163 0
27.720000 -0.120170 0
27.725000 -0.119183 0
27.730000 -0.118200 0
27.735000 -0.117222 0
27.740000 -0.116248 0
27.745000 -0.115278 0
27.750000 -0.114311 0
27.755000 -0.113344 0
27.760000 -0.112373 0
27.765000 -0.111392 0
27.770000 -0.110385 0
27.775000 -0.109331 0
27.780000 -0.108191 0
27.785000 -0.106906 0
27.790000 -0.105383 0
27.795000 -0.103484 0
27.800000 -0.101016 0
27.805000 -0.097714 0
27.810000 -0.093235 0
27.815000 -0.087156 0
27.820000 -0.078990 0
27.825000 -0.068209 0
27.830000 -0.054302 0
27.835000 -0.036843 0
27.840000 -0.015584 0
27.845000 0.009455 0
27.850000 0.037895 0
27.855000 0.068940 0
27.860000 0.101366 0
27.865000 0.133563 0
27.870000 0.163657 0
27.875000 0.189670 0
27.880000 0.209743 0
27.885000 0.222347 0
27.890000 0.226478 1
27.895000 0.221791 0
27.900000 0.208646 0
27.905000 0.188063 0
27.910000 0.161591 0
27.915000 0.131111 0
27.920000 0.098593 0
27.925000 0.065802 0
27.930000 0.033870 0
27.935000 0.002647 0
27.940000 -0.030077 0
27.945000 -0.068720 0
27.950000 -0.117893 0
27.955000 -0.177383 0
27.960000 -0.236288 0
27.965000 -0.271182 2
27.970000 -0.250982 0
27.975000 -0.145563 0
27.980000 0.064703 0
27.985000 0.374609 0
27.990000 0.734470 0
27.995000 1.044649 0
28.000000 1.190461 3
28.005000 1.107874 0
28.010000 0.826669 0
28.015000 0.449807 0
28.020000 0.089901 0
28.025000 -0.179101 0
28.030000 -0.330027 0
28.035000 -0.369573 4
28.040000 -0.326344 0
28.045000 -0.240314 0
28.050000 -0.148670 0
28.055000 -0.073497 0
28.060000 -0.019525 0
28.065000 0.018960 0
28.070000 0.049770 0
28.075000 0.078385 0
28.080000 0.107417 0
28.085000 0.137641 0
28.090000 0.168959 0
28.095000 0.200918 0
28.100000 0.232902 0
28.105000 0.264211 0
28.110000 0.294090 0
28.115000 0.321763 0
28.120000 0.346467 0
28.125000 0.367481 0
28.130000 0.384167 0
28.135000 0.395996 0
28.140000 0.402580 0
28.145000 0.403687 5
28.150000 0.399259 0
28.155000 0.389412 0
28.160000 0.374431 0
28.165000 0.354759 0
28.170000 0.330970 0
28.175000 0.303743 0
28.180000 0.273831 0
28.185000 0.242022 0
28.190000 0.209109 0
28.195000 0.175854 0
28.200000 0.142964 0
28.205000 0.111063 0
28.210000 0.080680 0
28.215000 0.052237 0
28.220000 0.026045 0
28.225000 0.002309 0
28.230000 -0.018869 0
28.235000 -0.037474 0
28.240000 -0.053570 0
28.245000 -0.067278 0
28.250000 -0.078768 0
28.255000 -0.088238 0
28.260000 -0.095905 0
28.265000 -0.101990 0
28.270000 -0.106712 0
28.275000 -0.110277 0
28.280000 -0.112877 0
28.285000 -0.114683 0
28.290000 -0.115537 0
28.295000 -0.114572 0
28.300000 -0.113612 0
28.305000 -0.112657 0
28.310000 -0.111707 0
28.315000 -0.110761 0
28.320000 -0.109819 0
28.325000 -0.108880 0
28.330000 -0.107942 0
28.335000 -0.107002 0
28.340000 -0.106053 0
28.345000 -0.105085 0
28.350000 -0.104077 0
28.355000 -0.102999 0
28.360000 -0.101797 0
28.365000 -0.100390 0
28.370000 -0.098657 0
28.375000 -0.096422 0
28.380000 -0.093445 0
28.385000 -0.089406 0
28.390000 -0.083906 0
28.395000 -0.076473 0
