0.000000 1.134594 3
0.005000 1.048444 0
0.010000 0.829504 0
0.015000 0.536698 0
0.020000 0.237045 0
0.025000 -0.017872 0
0.030000 -0.200381 0
0.035000 -0.303340 0
0.040000 -0.333984 4
0.045000 -0.309485 0
0.050000 -0.252691 0
0.055000 -0.186247 0
0.060000 -0.126688 0
0.065000 -0.081625 0
0.070000 -0.051044 0
0.075000 -0.030918 0
0.080000 -0.016580 0
0.085000 -0.004492 0
0.090000 0.007443 0
0.095000 0.020263 0
0.100000 0.034418 0
0.105000 0.050082 0
0.110000 0.067309 0
0.115000 0.086084 0
0.120000 0.106344 0
0.125000 0.127977 0
0.130000 0.150819 0
0.135000 0.174657 0
0.140000 0.199224 0
0.145000 0.224206 0
0.150000 0.249246 0
0.155000 0.273948 0
0.160000 0.297891 0
0.165000 0.320638 0
0.170000 0.341746 0
0.175000 0.360785 0
0.180000 0.377350 0
0.185000 0.391071 0
0.190000 0.401634 0
0.195000 0.408787 0
0.200000 0.412351 5
0.205000 0.412227 0
0.210000 0.408401 0
0.215000 0.400944 0
0.220000 0.390008 0
0.225000 0.375826 0
0.230000 0.358695 0
0.235000 0.338974 0
0.240000 0.317064 0
0.245000 0.293400 0
0.250000 0.268432 0
0.255000 0.242615 0
0.260000 0.216390 0
0.265000 0.190178 0
0.270000 0.164364 0
0.275000 0.139293 0
0.280000 0.115260 0
0.285000 0.092508 0
0.290000 0.071229 0
0.295000 0.051558 0
0.300000 0.033582 0
0.305000 0.017339 0
0.310000 0.002828 0
0.315000 -0.009990 0
0.320000 -0.021183 0
0.325000 -0.030844 0
0.330000 -0.039080 0
0.335000 -0.046012 0
0.340000 -0.051765 0
0.345000 -0.056466 0
0.350000 -0.060242 0
0.355000 -0.063211 0
0.360000 -0.065486 0
0.365000 -0.067171 0
0.370000 -0.068358 0
0.375000 -0.069132 0
0.380000 -0.069565 0
0.385000 -0.069720 0
0.390000 -0.069650 0
0.395000 -0.069403 0
0.400000 -0.069014 0
0.405000 -0.068515 0
0.410000 -0.067893 0
0.415000 -0.067046 0
0.420000 -0.066203 0
0.425000 -0.065365 0
0.430000 -0.064531 0
0.435000 -0.063701 0
0.440000 -0.062875 0
0.445000 -0.062053 0
0.450000 -0.061235 0
0.455000 -0.060421 0
0.460000 -0.059612 0
0.465000 -0.058806 0
0.470000 -0.058005 0
0.475000 -0.057207 0
0.480000 -0.056414 0
0.485000 -0.055624 0
0.490000 -0.054838 0
0.495000 -0.054056 0
0.500000 -0.053277 0
0.505000 -0.052501 0
0.510000 -0.051728 0
0.515000 -0.050956 0
0.520000 -0.050183 0
0.525000 -0.049405 0
0.530000 -0.048617 0
0.535000 -0.047808 0
0.540000 -0.046966 0
0.545000 -0.046066 0
0.550000 -0.045075 0
0.555000 -0.043946 0
0.560000 -0.042608 0
0.565000 -0.040970 0
0.570000 -0.038906 0
0.575000 -0.036257 0
0.580000 -0.032824 0
0.585000 -0.028369 0
0.590000 -0.022621 0
0.595000 -0.015286 0
0.600000 -0.006061 0
0.605000 0.005334 0
0.610000 0.019127 0
0.615000 0.035457 0
0.620000 0.054332 0
0.625000 0.075593 0
0.630000 0.098882 0
0.635000 0.123636 0
0.640000 0.149081 0
0.645000 0.174269 0
0.650000 0.198126 0
0.655000 0.219520 0
0.660000 0.237356 0
0.665000 0.250659 0
0.670000 0.258670 0
0.675000 0.260909 1
0.680000 0.257229 0
0.685000 0.247829 0
0.690000 0.233234 0
0.695000 0.214248 0
0.700000 0.191880 0
0.705000 0.167255 0
0.710000 0.141520 0
0.715000 0.115756 0
0.720000 0.090901 0
0.725000 0.067673 0
0.730000 0.046483 0
0.735000 0.027278 0
0.740000 0.009297 0
0.745000 -0.009218 0
0.750000 -0.031085 0
0.755000 -0.059522 0
0.760000 -0.096378 0
0.765000 -0.139547 0
0.770000 -0.180860 0
0.775000 -0.206052 2
0.780000 -0.197204 0
0.785000 -0.136421 0
0.790000 -0.009616 0
0.795000 0.188604 0
0.800000 0.447212 0
0.805000 0.730738 0
0.810000 0.979566 0
0.815000 1.126364 3
0.820000 1.124568 0
0.825000 0.973945 0
0.830000 0.715792 0
0.835000 0.412699 0
0.840000 0.124546 0
0.845000 -0.107842 0
0.850000 -0.265499 0
0.855000 -0.346500 0
0.860000 -0.360783 4
0.865000 -0.326487 0
0.870000 -0.265812 0
0.875000 -0.199473 0
0.880000 -0.141722 0
0.885000 -0.098497 0
0.890000 -0.069074 0
0.895000 -0.049432 0
0.900000 -0.035177 0
0.905000 -0.023018 0
0.910000 -0.010997 0
0.915000 0.001874 0
0.920000 0.016030 0
0.925000 0.031647 0
0.930000 0.048781 0
0.935000 0.067425 0
0.940000 0.087524 0
0.945000 0.108979 0
0.950000 0.131646 0
0.955000 0.155331 0
0.960000 0.179794 0
0.965000 0.204750 0
0.970000 0.229870 0
0.975000 0.254791 0
0.980000 0.279121 0
0.985000 0.302450 0
0.990000 0.324359 0
0.995000 0.344433 0
1.000000 0.362277 0
1.005000 0.377522 0
1.010000 0.389843 0
1.015000 0.398969 0
1.020000 0.404689 0
1.025000 0.406866 5
1.030000 0.405437 0
1.035000 0.400419 0
1.040000 0.391905 0
1.045000 0.380064 0
1.050000 0.365135 0
1.055000 0.347416 0
1.060000 0.327258 0
1.065000 0.305049 0
1.070000 0.281204 0
1.075000 0.256154 0
1.080000 0.230327 0
1.085000 0.204141 0
1.090000 0.177993 0
1.095000 0.152247 0
1.100000 0.127227 0
1.105000 0.103215 0
1.110000 0.080444 0
1.115000 0.059096 0
1.120000 0.039306 0
1.125000 0.021159 0
1.130000 0.004700 0
1.135000 -0.010069 0
1.140000 -0.023178 0
1.145000 -0.034686 0
1.150000 -0.044675 0
1.155000 -0.053245 0
1.160000 -0.060506 0
1.165000 -0.066577 0
1.170000 -0.071579 0
1.175000 -0.075632 0
1.180000 -0.078851 0
1.185000 -0.081347 0
1.190000 -0.083222 0
1.195000 -0.084569 0
1.200000 -0.085472 0
1.205000 -0.086005 0
1.210000 -0.086234 0
1.215000 -0.086215 0
1.220000 -0.085995 0
1.225000 -0.085615 0
1.230000 -0.085109 0
1.235000 -0.084503 0
1.240000 -0.083786 0
1.245000 -0.082859 0
1.250000 -0.081938 0
1.255000 -0.081021 0
1.260000 -0.080109 0
1.265000 -0.079201 0
1.270000 -0.078298 0
1.275000 -0.077399 0
1.280000 -0.076505 0
1.285000 -0.075615 0
1.290000 -0.074729 0
1.295000 -0.073848 0
1.300000 -0.072972 0
1.305000 -0.072100 0
1.310000 -0.071232 0
1.315000 -0.070368 0
1.320000 -0.069509 0
1.325000 -0.068653 0
1.330000 -0.067802 0
1.335000 -0.066954 0
1.340000 -0.066109 0
1.345000 -0.065266 0
1.350000 -0.064424 0
1.355000 -0.063578 0
1.360000 -0.062726 0
1.365000 -0.061859 0
1.370000 -0.060965 0
1.375000 -0.060027 0
1.380000 -0.059019 0
1.385000 -0.057901 0
1.390000 -0.056620 0
1.395000 -0.055101 0
1.400000 -0.053242 0
1.405000 -0.050914 0
1.410000 -0.047950 0
1.415000 -0.044149 0
1.420000 -0.039276 0
1.425000 -0.033065 0
1.430000 -0.025232 0
1.435000 -0.015496 0
1.440000 -0.003597 0
1.445000 0.010668 0
1.450000 0.027411 0
1.455000 0.046620 0
1.460000 0.068123 0
1.465000 0.091565 0
1.470000 0.116399 0
1.475000 0.141885 0
1.480000 0.167124 0
1.485000 0.191096 0
1.490000 0.212732 0
1.495000 0.230987 0
1.500000 0.244922 0
1.505000 0.253787 0
1.510000 0.257087 1
1.515000 0.254624 0
1.520000 0.246521 0
1.525000 0.233209 0
1.530000 0.215389 0
1.535000 0.193973 0
1.540000 0.170002 0
1.545000 0.144567 0
1.550000 0.118726 0
1.555000 0.093429 0
1.560000 0.069453 0
1.565000 0.047328 0
1.570000 0.027234 0
1.575000 0.008818 0
1.580000 -0.009064 0
1.585000 -0.028556 0
1.590000 -0.052630 0
1.595000 -0.084091 0
1.600000 -0.123605 0
1.605000 -0.167339 0
1.610000 -0.205571 0
1.615000 -0.223416 2
1.620000 -0.203520 0
1.625000 -0.129445 0
1.630000 0.010881 0
1.635000 0.220309 0
1.640000 0.485093 0
1.645000 0.768166 0
1.650000 1.011047 0
1.655000 1.150281 3
1.660000 1.143532 0
1.665000 0.990135 0
1.670000 0.730906 0
1.675000 0.427635 0
1.680000 0.139260 0
1.685000 -0.093949 0
1.690000 -0.253114 0
1.695000 -0.336091 0
1.700000 -0.352418 4
1.705000 -0.319747 0
1.710000 -0.259887 0
1.715000 -0.193449 0
1.720000 -0.134921 0
1.725000 -0.090657 0
1.730000 -0.060308 0
1.735000 -0.040048 0
1.740000 -0.025499 0
1.745000 -0.013291 0
1.750000 -0.001373 0
1.755000 0.011311 0
1.760000 0.025236 0
1.765000 0.040596 0
1.770000 0.057458 0
1.775000 0.075821 0
1.780000 0.095640 0
1.785000 0.116823 0
1.790000 0.139235 0
1.795000 0.162694 0
1.800000 0.186972 0
1.805000 0.211796 0
1.810000 0.236851 0
1.815000 0.261784 0
1.820000 0.286217 0
1.825000 0.309747 0
1.830000 0.331963 0
1.835000 0.352456 0
1.840000 0.370829 0
1.845000 0.386712 0
1.850000 0.399773 0
1.855000 0.409730 0
1.860000 0.416358 0
1.865000 0.419502 5
1.870000 0.419078 0
1.875000 0.415080 0
1.880000 0.407576 0
1.885000 0.396712 0
1.890000 0.382700 0
1.895000 0.365816 0
1.900000 0.346390 0
1.905000 0.324794 0
1.910000 0.301428 0
1.915000 0.276711 0
1.920000 0.251068 0
1.925000 0.224917 0
1.930000 0.198656 0
1.935000 0.172657 0
1.940000 0.147257 0
1.945000 0.122751 0
1.950000 0.099386 0
1.955000 0.077364 0
1.960000 0.056837 0
1.965000 0.037910 0
1.970000 0.020645 0
1.975000 0.005061 0
1.980000 -0.008857 0
1.985000 -0.021155 0
1.990000 -0.031904 0
1.995000 -0.041194 0
2.000000 -0.049130 0
2.005000 -0.055826 0
2.010000 -0.061399 0
2.015000 -0.065968 0
2.020000 -0.069650 0
2.025000 -0.072558 0
2.030000 -0.074795 0
2.035000 -0.076458 0
2.040000 -0.077636 0
2.045000 -0.078407 0
2.050000 -0.078840 0
2.055000 -0.078995 0
2.060000 -0.078924 0
2.065000 -0.078671 0
2.070000 -0.078273 0
2.075000 -0.077761 0
2.080000 -0.077159 0
2.085000 -0.076309 0
2.090000 -0.075420 0
2.095000 -0.074536 0
2.100000 -0.073656 0
2.105000 -0.072780 0
2.110000 -0.071909 0
2.115000 -0.071042 0
2.120000 -0.070179 0
2.125000 -0.069321 0
2.130000 -0.068467 0
2.135000 -0.067617 0
2.140000 -0.066772 0
2.145000 -0.065931 0
2.150000 -0.065093 0
2.155000 -0.064260 0
2.160000 -0.063432 0
2.165000 -0.062607 0
2.170000 -0.061786 0
2.175000 -0.060969 0
2.180000 -0.060155 0
2.185000 -0.059343 0
2.190000 -0.058533 0
2.195000 -0.057723 0
2.200000 -0.056910 0
2.205000 -0.056087 0
2.210000 -0.055249 0
2.215000 -0.054381 0
2.220000 -0.053466 0
2.225000 -0.052475 0
2.230000 -0.051369 0
2.235000 -0.050091 0
2.240000 -0.048565 0
2.245000 -0.046686 0
2.250000 -0.044323 0
2.255000 -0.041309 0
2.260000 -0.037441 0
2.265000 -0.032484 0
2.270000 -0.026174 0
2.275000 -0.018231 0
2.280000 -0.008379 0
2.285000 0.003635 0
2.290000 0.018006 0
2.295000 0.034838 0
2.300000 0.054113 0
2.305000 0.075654 0
2.310000 0.099107 0
2.315000 0.123924 0
2.320000 0.149377 0
2.325000 0.174577 0
2.330000 0.198521 0
2.335000 0.220156 0
2.340000 0.238451 0
2.345000 0.252479 0
2.350000 0.261497 0
2.355000 0.265005 1
2.360000 0.262797 0
2.365000 0.254977 0
2.370000 0.241954 0
2.375000 0.224402 0
2.380000 0.203204 0
2.385000 0.179381 0
2.390000 0.154006 0
2.395000 0.128127 0
2.400000 0.102693 0
2.405000 0.078492 0
2.410000 0.056080 0
2.415000 0.035688 0
2.420000 0.017052 0
2.425000 -0.000825 0
2.430000 -0.019902 0
2.435000 -0.043016 0
2.440000 -0.073073 0
2.445000 -0.111271 0
2.450000 -0.154794 0
2.455000 -0.195188 0
2.460000 -0.218630 2
2.465000 -0.208260 0
2.470000 -0.147419 0
2.475000 -0.022935 0
2.480000 0.170641 0
2.485000 0.424374 0
2.490000 0.707663 0
2.495000 0.967263 0
2.500000 1.139621 0
2.505000 1.174950 3
2.510000 1.058948 0
2.515000 0.820611 0
2.520000 0.521588 0
2.525000 0.226346 0
2.530000 -0.018300 0
2.535000 -0.188857 0
2.540000 -0.280847 0
2.545000 -0.303024 4
2.550000 -0.273286 0
2.555000 -0.214407 0
2.560000 -0.148203 0
2.565000 -0.090033 0
2.570000 -0.046515 0
2.575000 -0.017114 0
2.580000 0.002288 0
2.585000 0.016234 0
2.590000 0.028111 0
2.595000 0.039909 0
2.600000 0.052610 0
2.605000 0.066643 0
2.610000 0.082174 0
2.615000 0.099254 0
2.620000 0.117868 0
2.625000 0.137954 0
2.630000 0.159403 0
2.635000 0.182054 0
2.640000 0.205699 0
2.645000 0.230079 0
2.650000 0.254887 0
2.655000 0.279773 0
2.660000 0.304353 0
2.665000 0.328214 0
2.670000 0.350927 0
2.675000 0.372058 0
2.680000 0.391183 0
2.685000 0.407899 0
2.690000 0.421840 0
2.695000 0.432690 0
2.700000 0.440192 0
2.705000 0.444159 0
2.710000 0.444482 5
2.715000 0.441134 0
2.720000 0.434170 0
2.725000 0.423727 0
2.730000 0.410016 0
2.735000 0.393320 0
2.740000 0.373977 0
2.745000 0.352376 0
2.750000 0.328937 0
2.755000 0.304099 0
2.760000 0.278308 0
2.765000 0.252005 0
2.770000 0.225607 0
2.775000 0.199504 0
2.780000 0.174046 0
2.785000 0.149537 0
2.790000 0.126233 0
2.795000 0.104335 0
2.800000 0.083996 0
2.805000 0.065314 0
2.810000 0.048343 0
2.815000 0.033095 0
2.820000 0.019544 0
2.825000 0.007631 0
2.830000 -0.002725 0
2.835000 -0.011626 0
2.840000 -0.019185 0
2.845000 -0.025524 0
2.850000 -0.030768 0
2.855000 -0.035042 0
2.860000 -0.038466 0
2.865000 -0.041153 0
2.870000 -0.043210 0
2.875000 -0.044732 0
2.880000 -0.045807 0
2.885000 -0.046510 0
2.890000 -0.046907 0
2.895000 -0.047057 0
2.900000 -0.047008 0
2.905000 -0.046800 0
2.910000 -0.046468 0
2.915000 -0.046038 0
2.920000 -0.045345 0
2.925000 -0.044610 0
2.930000 -0.043880 0
2.935000 -0.043152 0
2.940000 -0.042429 0
2.945000 -0.041709 0
2.950000 -0.040993 0
2.955000 -0.040280 0
2.960000 -0.039571 0
2.965000 -0.038865 0
2.970000 -0.038163 0
2.975000 -0.037465 0
2.980000 -0.036770 0
2.985000 -0.036078 0
2.990000 -0.035390 0
2.995000 -0.034705 0
3.000000 -0.034023 0
3.005000 -0.033345 0
3.010000 -0.032669 0
3.015000 -0.031996 0
3.020000 -0.031324 0
3.025000 -0.030653 0
3.030000 -0.029979 0
3.035000 -0.029299 0
3.040000 -0.028607 0
3.045000 -0.027891 0
3.050000 -0.027136 0
3.055000 -0.026318 0
3.060000 -0.025402 0
3.065000 -0.024335 0
3.070000 -0.023047 0
3.075000 -0.021440 0
3.080000 -0.019387 0
3.085000 -0.016724 0
3.090000 -0.013251 0
3.095000 -0.008728 0
3.100000 -0.002885 0
3.105000 0.004569 0
3.110000 0.013929 0
3.115000 0.025467 0
3.120000 0.039400 0
3.125000 0.055853 0
3.130000 0.074823 0
3.135000 0.096137 0
3.140000 0.119433 0
3.145000 0.144143 0
3.150000 0.169501 0
3.155000 0.194568 0
3.160000 0.218285 0
3.165000 0.239544 0
3.170000 0.257266 0
3.175000 0.270498 0
3.180000 0.278490 0
3.185000 0.280769 1
3.190000 0.277183 0
3.195000 0.267915 0
3.200000 0.253468 0
3.205000 0.234622 0
3.210000 0.212356 0
3.215000 0.187771 0
3.220000 0.161996 0
3.225000 0.136101 0
3.230000 0.111024 0
3.235000 0.087496 0
3.240000 0.065961 0
3.245000 0.046436 0
3.250000 0.028282 0
3.255000 0.009923 0
3.260000 -0.011267 0
3.265000 -0.038476 0
3.270000 -0.073921 0
3.275000 -0.116414 0
3.280000 -0.159125 0
3.285000 -0.189089 0
3.290000 -0.189158 2
3.295000 -0.141439 0
3.300000 -0.030915 0
3.305000 0.150266 0
3.310000 0.395992 0
3.315000 0.677902 0
3.320000 0.942712 0
3.325000 1.123796 0
3.330000 1.166832 3
3.335000 1.055832 0
3.340000 0.821085 0
3.345000 0.523232 0
3.350000 0.226729 0
3.355000 -0.020913 0
3.360000 -0.195326 0
3.365000 -0.291275 0
3.370000 -0.316882 4
3.375000 -0.289527 0
3.380000 -0.231711 0
3.385000 -0.165356 0
3.390000 -0.106262 0
3.395000 -0.061585 0
3.400000 -0.031189 0
3.405000 -0.011122 0
3.410000 0.003180 0
3.415000 0.015196 0
3.420000 0.027009 0
3.425000 0.039664 0
3.430000 0.053621 0
3.435000 0.069063 0
3.440000 0.086045 0
3.445000 0.104561 0
3.450000 0.124552 0
3.455000 0.145914 0
3.460000 0.168495 0
3.465000 0.192092 0
3.470000 0.216454 0
3.475000 0.241281 0
3.480000 0.266230 0
3.485000 0.290924 0
3.490000 0.314954 0
3.495000 0.337897 0
3.500000 0.359320 0
3.505000 0.378800 0
3.510000 0.395934 0
3.515000 0.410351 0
3.520000 0.421729 0
3.525000 0.429803 0
3.530000 0.434377 0
3.535000 0.435330 5
3.540000 0.432622 0
3.545000 0.426294 0
3.550000 0.416469 0
3.555000 0.403346 0
3.560000 0.387194 0
3.565000 0.368341 0
3.570000 0.347164 0
3.575000 0.324076 0
3.580000 0.299512 0
3.585000 0.273915 0
3.590000 0.247724 0
3.595000 0.221361 0
3.600000 0.195217 0
3.605000 0.169649 0
3.610000 0.144971 0
3.615000 0.121444 0
3.620000 0.099282 0
3.625000 0.078645 0
3.630000 0.059644 0
3.635000 0.042340 0
3.640000 0.026755 0
3.645000 0.012870 0
3.650000 0.000634 0
3.655000 -0.010030 0
3.660000 -0.019217 0
3.665000 -0.027039 0
3.670000 -0.033615 0
3.675000 -0.039070 0
3.680000 -0.043527 0
3.685000 -0.047107 0
3.690000 -0.049925 0
3.695000 -0.052088 0
3.700000 -0.053695 0
3.705000 -0.054834 0
3.710000 -0.055583 0
3.715000 -0.056012 0
3.720000 -0.056178 0
3.725000 -0.056134 0
3.730000 -0.055922 0
3.735000 -0.055577 0
3.740000 -0.055127 0
3.745000 -0.054561 0
3.750000 -0.053781 0
3.755000 -0.053004 0
3.760000 -0.052232 0
3.765000 -0.051463 0
3.770000 -0.050698 0
3.775000 -0.049937 0
3.780000 -0.049180 0
3.785000 -0.048426 0
3.790000 -0.047676 0
3.795000 -0.046930 0
3.800000 -0.046188 0
3.805000 -0.045449 0
3.810000 -0.044714 0
3.815000 -0.043983 0
3.820000 -0.043255 0
3.825000 -0.042531 0
3.830000 -0.041810 0
3.835000 -0.041093 0
3.840000 -0.040378 0
3.845000 -0.039665 0
3.850000 -0.038954 0
3.855000 -0.038241 0
3.860000 -0.037524 0
3.865000 -0.036797 0
3.870000 -0.036052 0
3.875000 -0.035274 0
3.880000 -0.034445 0
3.885000 -0.033531 0
3.890000 -0.032490 0
3.895000 -0.031259 0
3.900000 -0.029750 0
3.905000 -0.027850 0
3.910000 -0.025411 0
3.915000 -0.022247 0
3.920000 -0.018137 0
3.925000 -0.012822 0
3.930000 -0.006020 0
3.935000 0.002563 0
3.940000 0.013211 0
3.945000 0.026166 0
3.950000 0.041594 0
3.955000 0.059551 0
3.960000 0.079938 0
3.965000 0.102479 0
3.970000 0.126698 0
3.975000 0.151914 0
3.980000 0.177265 0
3.985000 0.201743 0
3.990000 0.224259 0
3.995000 0.243716 0
4.000000 0.259101 0
4.005000 0.269568 0
4.010000 0.274516 1
4.015000 0.273645 0
4.020000 0.266983 0
4.025000 0.254890 0
4.030000 0.238019 0
4.035000 0.217260 0
4.040000 0.193663 0
4.045000 0.168347 0
4.050000 0.142412 0
4.055000 0.116865 0
4.060000 0.092538 0
4.065000 0.070026 0
4.070000 0.049575 0
4.075000 0.030905 0
4.080000 0.012946 0
4.085000 -0.006405 0
4.090000 -0.030155 0
4.095000 -0.061254 0
4.100000 -0.100571 0
4.105000 -0.144389 0
4.110000 -0.182868 0
4.115000 -0.200745 2
4.120000 -0.180164 0
4.125000 -0.104255 0
4.130000 0.039189 0
4.135000 0.252476 0
4.140000 0.520125 0
4.145000 0.802087 0
4.150000 1.036841 0
4.155000 1.160126 3
4.160000 1.133383 0
4.165000 0.962681 0
4.170000 0.693142 0
4.175000 0.388690 0
4.180000 0.107108 0
4.185000 -0.114235 0
4.190000 -0.259439 0
4.195000 -0.328789 0
4.200000 -0.333818 4
4.205000 -0.293715 0
4.210000 -0.230900 0
4.215000 -0.165354 0
4.220000 -0.109990 0
4.225000 -0.069434 0
4.230000 -0.042145 0
4.235000 -0.023851 0
4.240000 -0.010277 0
4.245000 0.001636 0
4.250000 0.013645 0
4.255000 0.026614 0
4.260000 0.040917 0
4.265000 0.056700 0
4.270000 0.074005 0
4.275000 0.092816 0
4.280000 0.113070 0
4.285000 0.134660 0
4.290000 0.157430 0
4.295000 0.181179 0
4.300000 0.205655 0
4.305000 0.230565 0
4.310000 0.255571 0
4.315000 0.280304 0
4.320000 0.304364 0
4.325000 0.327339 0
4.330000 0.348808 0
4.335000 0.368358 0
4.340000 0.385596 0
4.345000 0.400162 0
4.350000 0.411738 0
4.355000 0.420065 0
4.360000 0.424947 0
4.365000 0.426262 5
4.370000 0.423963 0
4.375000 0.418082 0
4.380000 0.408732 0
4.385000 0.396097 0
4.390000 0.380430 0
4.395000 0.362044 0
4.400000 0.341298 0
4.405000 0.318590 0
4.410000 0.294342 0
4.415000 0.268983 0
4.420000 0.242944 0
4.425000 0.216640 0
4.430000 0.190462 0
4.435000 0.164765 0
4.440000 0.139867 0
4.445000 0.116038 0
4.450000 0.093499 0
4.455000 0.072423 0
4.460000 0.052932 0
4.465000 0.035102 0
4.470000 0.018966 0
4.475000 0.004519 0
4.480000 -0.008278 0
4.485000 -0.019489 0
4.490000 -0.029202 0
4.495000 -0.037520 0
4.500000 -0.044557 0
4.505000 -0.050433 0
4.510000 -0.055268 0
4.515000 -0.059182 0
4.520000 -0.062290 0
4.525000 -0.064701 0
4.530000 -0.066515 0
4.535000 -0.067822 0
4.540000 -0.068705 0
4.545000 -0.069236 0
4.550000 -0.069478 0
4.555000 -0.069484 0
4.560000 -0.069300 0
4.565000 -0.068965 0
4.570000 -0.068511 0
4.575000 -0.067965 0
4.580000 -0.067161 0
4.585000 -0.066318 0
4.590000 -0.065479 0
4.595000 -0.064644 0
4.600000 -0.063814 0
4.605000 -0.062987 0
4.610000 -0.062165 0
4.615000 -0.061346 0
4.620000 -0.060532 0
4.625000 -0.059722 0
4.630000 -0.058916 0
4.635000 -0.058114 0
4.640000 -0.057316 0
4.645000 -0.056522 0
4.650000 -0.055731 0
4.655000 -0.054945 0
4.660000 -0.054163 0
4.665000 -0.053384 0
4.670000 -0.052608 0
4.675000 -0.051836 0
4.680000 -0.051066 0
4.685000 -0.050297 0
4.690000 -0.049527 0
4.695000 -0.048753 0
4.700000 -0.047970 0
4.705000 -0.047168 0
4.710000 -0.046335 0
4.715000 -0.045449 0
4.720000 -0.044482 0
4.725000 -0.043390 0
4.730000 -0.042112 0
4.735000 -0.040566 0
4.740000 -0.038640 0
4.745000 -0.036193 0
4.750000 -0.033048 0
4.755000 -0.028991 0
4.760000 -0.023775 0
4.765000 -0.017126 0
4.770000 -0.008757 0
4.775000 0.001610 0
4.780000 0.014219 0
4.785000 0.029247 0
4.790000 0.046770 0
4.795000 0.066723 0
4.800000 0.088874 0
4.805000 0.112803 0
4.810000 0.137890 0
4.815000 0.163336 0
4.820000 0.188190 0
4.825000 0.211406 0
4.830000 0.231908 0
4.835000 0.248677 0
4.840000 0.260830 0
4.845000 0.267698 0
4.850000 0.268886 1
4.855000 0.264310 0
4.860000 0.254208 0
4.865000 0.239113 0
4.870000 0.219815 0
4.875000 0.197283 0
4.880000 0.172591 0
4.885000 0.146830 0
4.890000 0.121028 0
4.895000 0.096082 0
4.900000 0.072689 0
4.905000 0.051267 0
4.910000 0.031822 0
4.915000 0.013734 0
4.920000 -0.004508 0
4.925000 -0.025423 0
4.930000 -0.052101 0
4.935000 -0.086816 0
4.940000 -0.128769 0
4.945000 -0.171915 0
4.950000 -0.204292 0
4.955000 -0.209624 2
4.960000 -0.170466 0
4.965000 -0.071592 0
4.970000 0.096206 0
4.975000 0.330232 0
4.980000 0.608005 0
4.985000 0.882862 0
4.990000 1.091405 0
4.995000 1.175228 3
5.000000 1.106459 0
5.005000 0.901676 0
5.010000 0.615042 0
5.015000 0.312214 0
5.020000 0.046616 0
5.025000 -0.150888 0
5.030000 -0.270092 0
5.035000 -0.315579 4
5.040000 -0.302213 0
5.045000 -0.251334 0
5.050000 -0.185575 0
5.055000 -0.122999 0
5.060000 -0.073453 0
5.065000 -0.038787 0
5.070000 -0.015889 0
5.075000 -0.000154 0
5.080000 0.012318 0
5.085000 0.024036 0
5.090000 0.036329 0
5.095000 0.049807 0
5.100000 0.064723 0
5.105000 0.081163 0
5.110000 0.099141 0
5.115000 0.118615 0
5.120000 0.139498 0
5.125000 0.161656 0
5.130000 0.184905 0
5.135000 0.209012 0
5.140000 0.233698 0
5.145000 0.258636 0
5.150000 0.283463 0
5.155000 0.307784 0
5.160000 0.331182 0
5.165000 0.353228 0
5.170000 0.373498 0
5.175000 0.391581 0
5.180000 0.407094 0
5.185000 0.419698 0
5.190000 0.429105 0
5.195000 0.435093 0
5.200000 0.437509 5
5.205000 0.436282 0
5.210000 0.431419 0
5.215000 0.423010 0
5.220000 0.411222 0
5.225000 0.396295 0
5.230000 0.378530 0
5.235000 0.358285 0
5.240000 0.335955 0
5.245000 0.311966 0
5.250000 0.286756 0
5.255000 0.260764 0
5.260000 0.234419 0
5.265000 0.208124 0
5.270000 0.182251 0
5.275000 0.157131 0
5.280000 0.133047 0
5.285000 0.110234 0
5.290000 0.088875 0
5.295000 0.069103 0
5.300000 0.051000 0
5.305000 0.034606 0
5.310000 0.019920 0
5.315000 0.006906 0
5.320000 -0.004501 0
5.325000 -0.014388 0
5.330000 -0.022858 0
5.335000 -0.030029 0
5.340000 -0.036020 0
5.345000 -0.040955 0
5.350000 -0.044958 0
5.355000 -0.048145 0
5.360000 -0.050626 0
5.365000 -0.052504 0
5.370000 -0.053873 0
5.375000 -0.054814 0
5.380000 -0.055402 0
5.385000 -0.055699 0
5.390000 -0.055761 0
5.395000 -0.055634 0
5.400000 -0.055357 0
5.405000 -0.054961 0
5.410000 -0.054474 0
5.415000 -0.053736 0
5.420000 -0.052960 0
5.425000 -0.052188 0
5.430000 -0.051419 0
5.435000 -0.050655 0
5.440000 -0.049894 0
5.445000 -0.049137 0
5.450000 -0.048383 0
5.455000 -0.047634 0
5.460000 -0.046888 0
5.465000 -0.046146 0
5.470000 -0.045407 0
5.475000 -0.044673 0
5.480000 -0.043942 0
5.485000 -0.043214 0
5.490000 -0.042490 0
5.495000 -0.041770 0
5.500000 -0.041053 0
5.505000 -0.040338 0
5.510000 -0.039627 0
5.515000 -0.038917 0
5.520000 -0.038208 0
5.525000 -0.037496 0
5.530000 -0.036778 0
5.535000 -0.036048 0
5.540000 -0.035294 0
5.545000 -0.034502 0
5.550000 -0.033647 0
5.555000 -0.032694 0
5.560000 -0.031592 0
5.565000 -0.030271 0
5.570000 -0.028635 0
5.575000 -0.026559 0
5.580000 -0.023882 0
5.585000 -0.020407 0
5.590000 -0.015899 0
5.595000 -0.010093 0
5.600000 -0.002701 0
5.605000 0.006568 0
5.610000 0.017985 0
5.615000 0.031769 0
5.620000 0.048053 0
5.625000 0.066842 0
5.630000 0.087984 0
5.635000 0.111138 0
5.640000 0.135763 0
5.645000 0.161120 0
5.650000 0.186301 0
5.655000 0.210270 0
5.660000 0.231933 0
5.665000 0.250218 0
5.670000 0.264158 0
5.675000 0.272983 0
5.680000 0.276180 1
5.685000 0.273550 0
5.690000 0.265219 0
5.695000 0.251638 0
5.700000 0.233531 0
5.705000 0.211839 0
5.710000 0.187633 0
5.715000 0.162029 0
5.720000 0.136102 0
5.725000 0.110812 0
5.730000 0.086929 0
5.735000 0.064962 0
5.740000 0.045037 0
5.745000 0.026694 0
5.750000 0.008617 0
5.755000 -0.011554 0
5.760000 -0.036931 0
5.765000 -0.070149 0
5.770000 -0.111154 0
5.775000 -0.154817 0
5.780000 -0.189877 0
5.785000 -0.200227 2
5.790000 -0.168030 0
5.795000 -0.077256 0
5.800000 0.082507 0
5.805000 0.310263 0
5.810000 0.585496 0
5.815000 0.862840 0
5.820000 1.078415 0
5.825000 1.171377 3
5.830000 1.111565 0
5.835000 0.914365 0
5.840000 0.631475 0
5.845000 0.327704 0
5.850000 0.057264 0
5.855000 -0.147436 0
5.860000 -0.274655 0
5.865000 -0.327652 4
5.870000 -0.320131 0
5.875000 -0.272607 0
5.880000 -0.207556 0
5.885000 -0.143664 0
5.890000 -0.091845 0
5.895000 -0.054931 0
5.900000 -0.030373 0
5.905000 -0.013676 0
5.910000 -0.000793 0
5.915000 0.010988 0
5.920000 0.023160 0
5.925000 0.036427 0
5.930000 0.051085 0
5.935000 0.067246 0
5.940000 0.084934 0
5.945000 0.104120 0
5.950000 0.124727 0
5.955000 0.146636 0
5.960000 0.169676 0
5.965000 0.193631 0
5.970000 0.218237 0
5.975000 0.243184 0
5.980000 0.268123 0
5.985000 0.292674 0
5.990000 0.316430 0
5.995000 0.338972 0
6.000000 0.359879 0
6.005000 0.378740 0
6.010000 0.395170 0
6.015000 0.408816 0
6.020000 0.419379 0
6.025000 0.426615 0
6.030000 0.430351 0
6.035000 0.430487 5
6.040000 0.427003 0
6.045000 0.419956 0
6.050000 0.409482 0
6.055000 0.395792 0
6.060000 0.379160 0
6.065000 0.359917 0
6.070000 0.338440 0
6.075000 0.315136 0
6.080000 0.290435 0
6.085000 0.264770 0
6.090000 0.238569 0
6.095000 0.212241 0
6.100000 0.186170 0
6.105000 0.160699 0
6.110000 0.136131 0
6.115000 0.112719 0
6.120000 0.090670 0
6.125000 0.070136 0
6.130000 0.051225 0
6.135000 0.033997 0
6.140000 0.018468 0
6.145000 0.004623 0
6.150000 -0.007590 0
6.155000 -0.018245 0
6.160000 -0.027436 0
6.165000 -0.035271 0
6.170000 -0.041868 0
6.175000 -0.047347 0
6.180000 -0.051831 0
6.185000 -0.055437 0
6.190000 -0.058280 0
6.195000 -0.060465 0
6.200000 -0.062089 0
6.205000 -0.063239 0
6.210000 -0.063995 0
6.215000 -0.064424 0
6.220000 -0.064587 0
6.225000 -0.064533 0
6.230000 -0.064306 0
6.235000 -0.063942 0
6.240000 -0.063470 0
6.245000 -0.062876 0
6.250000 -0.062054 0
6.255000 -0.061236 0
6.260000 -0.060423 0
6.265000 -0.059613 0
6.270000 -0.058808 0
6.275000 -0.058006 0
6.280000 -0.057208 0
6.285000 -0.056415 0
6.290000 -0.055625 0
6.295000 -0.054840 0
6.300000 -0.054058 0
6.305000 -0.053280 0
6.310000 -0.052506 0
6.315000 -0.051736 0
6.320000 -0.050969 0
6.325000 -0.050207 0
6.330000 -0.049448 0
6.335000 -0.048692 0
6.340000 -0.047940 0
6.345000 -0.047190 0
6.350000 -0.046442 0
6.355000 -0.045694 0
6.360000 -0.044944 0
6.365000 -0.044188 0
6.370000 -0.043417 0
6.375000 -0.042623 0
6.380000 -0.041787 0
6.385000 -0.040886 0
6.390000 -0.039883 0
6.395000 -0.038727 0
6.400000 -0.037345 0
6.405000 -0.035641 0
6.410000 -0.033490 0
6.415000 -0.030729 0
6.420000 -0.027162 0
6.425000 -0.022555 0
6.430000 -0.016647 0
6.435000 -0.009152 0
6.440000 0.000216 0
6.445000 0.011722 0
6.450000 0.025582 0
6.455000 0.041922 0
6.460000 0.060749 0
6.465000 0.081910 0
6.470000 0.105071 0
6.475000 0.129701 0
6.480000 0.155078 0
6.485000 0.180308 0
6.490000 0.204376 0
6.495000 0.226203 0
6.500000 0.244731 0
6.505000 0.259000 0
6.510000 0.268236 0
6.515000 0.271913 1
6.520000 0.269809 0
6.525000 0.262023 0
6.530000 0.248968 0
6.535000 0.231334 0
6.540000 0.210028 0
6.545000 0.186096 0
6.550000 0.160637 0
6.555000 0.134719 0
6.560000 0.109307 0
6.565000 0.085193 0
6.570000 0.062923 0
6.575000 0.042695 0
6.580000 0.024170 0
6.585000 0.006220 0
6.590000 -0.013292 0
6.595000 -0.037351 0
6.600000 -0.068799 0
6.605000 -0.108340 0
6.610000 -0.152146 0
6.615000 -0.190431 0
6.620000 -0.208187 2
6.625000 -0.187921 0
6.630000 -0.113087 0
6.635000 0.028394 0
6.640000 0.239164 0
6.645000 0.504910 0
6.650000 0.787634 0
6.655000 1.027940 0
6.660000 1.162158 3
6.665000 1.149264 0
6.670000 0.990641 0
6.675000 0.728020 0
6.680000 0.424175 0
6.685000 0.137948 0
6.690000 -0.091202 0
6.695000 -0.245377 0
6.700000 -0.323314 0
6.705000 -0.335326 4
6.710000 -0.299719 0
6.715000 -0.238631 0
6.720000 -0.172514 0
6.725000 -0.115283 0
6.730000 -0.072601 0
6.735000 -0.043607 0
6.740000 -0.024258 0
6.745000 -0.010197 0
6.750000 0.001822 0
6.755000 0.013728 0
6.760000 0.026489 0
6.765000 0.040537 0
6.770000 0.056043 0
6.775000 0.073062 0
6.780000 0.091587 0
6.785000 0.111564 0
6.790000 0.132895 0
6.795000 0.155434 0
6.800000 0.178992 0
6.805000 0.203328 0
6.810000 0.228160 0
6.815000 0.253161 0
6.820000 0.277971 0
6.825000 0.302200 0
6.830000 0.325441 0
6.835000 0.347276 0
6.840000 0.367294 0
6.845000 0.385100 0
6.850000 0.400325 0
6.855000 0.412646 0
6.860000 0.421789 0
6.865000 0.427544 0
6.870000 0.429769 5
6.875000 0.428401 0
6.880000 0.423450 0
6.885000 0.415006 0
6.890000 0.403234 0
6.895000 0.388366 0
6.900000 0.370698 0
6.905000 0.350575 0
6.910000 0.328380 0
6.915000 0.304527 0
6.920000 0.279441 0
6.925000 0.253551 0
6.930000 0.227272 0
6.935000 0.201002 0
6.940000 0.175106 0
6.945000 0.149910 0
6.950000 0.125697 0
6.955000 0.102704 0
6.960000 0.081117 0
6.965000 0.061073 0
6.970000 0.042663 0
6.975000 0.025934 0
6.980000 0.010894 0
6.985000 -0.002486 0
6.990000 -0.014260 0
6.995000 -0.024510 0
7.000000 -0.033331 0
7.005000 -0.040833 0
7.010000 -0.047134 0
7.015000 -0.052353 0
7.020000 -0.056611 0
7.025000 -0.060022 0
7.030000 -0.062698 0
7.035000 -0.064741 0
7.040000 -0.066245 0
7.045000 -0.067295 0
7.050000 -0.067966 0
7.055000 -0.068325 0
7.060000 -0.068428 0
7.065000 -0.068324 0
7.070000 -0.068054 0
7.075000 -0.067653 0
7.080000 -0.067148 0
7.085000 -0.066527 0
7.090000 -0.065687 0
7.095000 -0.064851 0
7.100000 -0.064019 0
7.105000 -0.063192 0
7.110000 -0.062368 0
7.115000 -0.061549 0
7.120000 -0.060734 0
7.125000 -0.059923 0
7.130000 -0.059115 0
7.135000 -0.058312 0
7.140000 -0.057513 0
7.145000 -0.056718 0
7.150000 -0.055927 0
7.155000 -0.055140 0
7.160000 -0.054356 0
7.165000 -0.053577 0
7.170000 -0.052801 0
7.175000 -0.052029 0
7.180000 -0.051260 0
7.185000 -0.050494 0
7.190000 -0.049729 0
7.195000 -0.048965 0
7.200000 -0.048199 0
7.205000 -0.047426 0
7.210000 -0.046640 0
7.215000 -0.045831 0
7.220000 -0.044982 0
7.225000 -0.044069 0
7.230000 -0.043057 0
7.235000 -0.041896 0
7.240000 -0.040517 0
7.245000 -0.038826 0
7.250000 -0.036701 0
7.255000 -0.033986 0
7.260000 -0.030489 0
7.265000 -0.025985 0
7.270000 -0.020215 0
7.275000 -0.012902 0
7.280000 -0.003761 0
7.285000 0.007473 0
7.290000 0.021020 0
7.295000 0.037021 0
7.300000 0.055498 0
7.305000 0.076328 0
7.310000 0.099210 0
7.315000 0.123650 0
7.320000 0.148965 0
7.325000 0.174303 0
7.330000 0.198676 0
7.335000 0.221028 0
7.340000 0.240303 0
7.345000 0.255529 0
7.350000 0.265897 0
7.355000 0.270832 1
7.360000 0.270046 0
7.365000 0.263564 0
7.370000 0.251724 0
7.375000 0.235147 0
7.380000 0.214681 0
7.385000 0.191331 0
7.390000 0.166178 0
7.395000 0.140291 0
7.400000 0.114657 0
7.405000 0.090112 0
7.410000 0.067273 0
7.415000 0.046449 0
7.420000 0.027492 0
7.425000 0.009555 0
7.430000 -0.009149 0
7.435000 -0.031360 0
7.440000 -0.060100 0
7.445000 -0.097036 0
7.450000 -0.140150 0
7.455000 -0.181860 0
7.460000 -0.208943 2
7.465000 -0.204627 0
7.470000 -0.151852 0
7.475000 -0.036601 0
7.480000 0.148023 0
7.485000 0.395338 0
7.490000 0.677451 0
7.495000 0.942982 0
7.500000 1.127860 0
7.505000 1.178976 3
7.510000 1.077282 0
7.515000 0.847930 0
7.520000 0.551497 0
7.525000 0.253873 0
7.530000 0.004226 0
7.535000 -0.171975 0
7.540000 -0.269040 0
7.545000 -0.295067 4
7.550000 -0.267682 0
7.555000 -0.209762 0
7.560000 -0.143539 0
7.565000 -0.084907 0
7.570000 -0.040896 0
7.575000 -0.011165 0
7.580000 0.008389 0
7.585000 0.022371 0
7.590000 0.034230 0
7.595000 0.045992 0
7.600000 0.058659 0
7.605000 0.072666 0
7.610000 0.088180 0
7.615000 0.105250 0
7.620000 0.123864 0
7.625000 0.143956 0
7.630000 0.165414 0
7.635000 0.188077 0
7.640000 0.211730 0
7.645000 0.236111 0
7.650000 0.260907 0
7.655000 0.285764 0
7.660000 0.310290 0
7.665000 0.334067 0
7.670000 0.356661 0
7.675000 0.377634 0
7.680000 0.396557 0
7.685000 0.413028 0
7.690000 0.426679 0
7.695000 0.437196 0
7.700000 0.444325 0
7.705000 0.447887 5
7.710000 0.447778 0
7.715000 0.443981 0
7.720000 0.436562 0
7.725000 0.425667 0
7.730000 0.411521 0
7.735000 0.394417 0
7.740000 0.374706 0
7.745000 0.352783 0
7.750000 0.329078 0
7.755000 0.304038 0
7.760000 0.278113 0
7.765000 0.251743 0
7.770000 0.225348 0
7.775000 0.199315 0
7.780000 0.173989 0
7.785000 0.149670 0
7.790000 0.126604 0
7.795000 0.104987 0
7.800000 0.084959 0
7.805000 0.066613 0
7.810000 0.049993 0
7.815000 0.035101 0
7.820000 0.021904 0
7.825000 0.010336 0
7.830000 0.000311 0
7.835000 -0.008277 0
7.840000 -0.015547 0
7.845000 -0.021622 0
7.850000 -0.026629 0
7.855000 -0.030693 0
7.860000 -0.033933 0
7.865000 -0.036463 0
7.870000 -0.038387 0
7.875000 -0.039799 0
7.880000 -0.040784 0
7.885000 -0.041416 0
7.890000 -0.041760 0
7.895000 -0.041870 0
7.900000 -0.041793 0
7.905000 -0.041568 0
7.910000 -0.041227 0
7.915000 -0.040755 0
7.920000 -0.040043 0
7.925000 -0.039335 0
7.930000 -0.038631 0
7.935000 -0.037930 0
7.940000 -0.037233 0
7.945000 -0.036539 0
7.950000 -0.035848 0
7.955000 -0.035161 0
7.960000 -0.034478 0
7.965000 -0.033797 0
7.970000 -0.033121 0
7.975000 -0.032447 0
7.980000 -0.031777 0
7.985000 -0.031110 0
7.990000 -0.030447 0
7.995000 -0.029786 0
8.000000 -0.029129 0
8.005000 -0.028475 0
8.010000 -0.027823 0
8.015000 -0.027174 0
8.020000 -0.026525 0
8.025000 -0.025875 0
8.030000 -0.025222 0
8.035000 -0.024559 0
8.040000 -0.023880 0
8.045000 -0.023170 0
8.050000 -0.022411 0
8.055000 -0.021573 0
8.060000 -0.020614 0
8.065000 -0.019471 0
8.070000 -0.018062 0
8.075000 -0.016272 0
8.080000 -0.013957 0
8.085000 -0.010931 0
8.090000 -0.006972 0
8.095000 -0.001822 0
8.100000 0.004806 0
8.105000 0.013211 0
8.110000 0.023682 0
8.115000 0.036469 0
8.120000 0.051747 0
8.125000 0.069574 0
8.130000 0.089859 0
8.135000 0.112323 0
8.140000 0.136484 0
8.145000 0.161654 0
8.150000 0.186953 0
8.155000 0.211355 0
8.160000 0.233753 0
8.165000 0.253032 0
8.170000 0.268167 0
8.175000 0.278307 0
8.180000 0.282857 1
8.185000 0.281530 0
8.190000 0.274381 0
8.195000 0.261799 0
8.200000 0.244472 0
8.205000 0.223325 0
8.210000 0.199435 0
8.215000 0.173944 0
8.220000 0.147962 0
8.225000 0.122493 0
8.230000 0.098356 0
8.235000 0.076110 0
8.240000 0.055938 0
8.245000 0.037444 0
8.250000 0.019370 0
8.255000 -0.000613 0
8.260000 -0.025658 0
8.265000 -0.058539 0
8.270000 -0.099375 0
8.275000 -0.143123 0
8.280000 -0.178403 0
8.285000 -0.188786 2
8.290000 -0.156029 0
8.295000 -0.063785 0
8.300000 0.098395 0
8.305000 0.328923 0
8.310000 0.605683 0
8.315000 0.880860 0
8.320000 1.088519 0
8.325000 1.167998 3
8.330000 1.092246 0
8.335000 0.881513 0
8.340000 0.592079 0
8.345000 0.290386 0
8.350000 0.029238 0
8.355000 -0.161807 0
8.360000 -0.273866 0
8.365000 -0.312705 4
8.370000 -0.294248 0
8.375000 -0.240575 0
8.380000 -0.174406 0
8.385000 -0.113178 0
8.390000 -0.065737 0
8.395000 -0.033054 0
8.400000 -0.011558 0
8.405000 0.003418 0
8.410000 0.015620 0
8.415000 0.027364 0
8.420000 0.039838 0
8.425000 0.053574 0
8.430000 0.068785 0
8.435000 0.085541 0
8.440000 0.103841 0
8.445000 0.123634 0
8.450000 0.144822 0
8.455000 0.167256 0
8.460000 0.190739 0
8.465000 0.215022 0
8.470000 0.239808 0
8.475000 0.264756 0
8.480000 0.289487 0
8.485000 0.313594 0
8.490000 0.336648 0
8.495000 0.358214 0
8.500000 0.377864 0
8.505000 0.395188 0
8.510000 0.409809 0
8.515000 0.421398 0
8.520000 0.429684 0
8.525000 0.434464 0
8.530000 0.435611 5
8.535000 0.433080 0
8.540000 0.426910 0
8.545000 0.417219 0
8.550000 0.404207 0
8.555000 0.388141 0
8.560000 0.369351 0
8.565000 0.348217 0
8.570000 0.325154 0
8.575000 0.300602 0
8.580000 0.275008 0
8.585000 0.248813 0
8.590000 0.222444 0
8.595000 0.196296 0
8.600000 0.170730 0
8.605000 0.146060 0
8.610000 0.122550 0
8.615000 0.100415 0
8.620000 0.079816 0
8.625000 0.060861 0
8.630000 0.043613 0
8.635000 0.028091 0
8.640000 0.014275 0
8.645000 0.002111 0
8.650000 -0.008477 0
8.655000 -0.017589 0
8.660000 -0.025336 0
8.665000 -0.031841 0
8.670000 -0.037228 0
8.675000 -0.041623 0
8.680000 -0.045146 0
8.685000 -0.047913 0
8.690000 -0.050032 0
8.695000 -0.051601 0
8.700000 -0.052708 0
8.705000 -0.053431 0
8.710000 -0.053839 0
8.715000 -0.053990 0
8.720000 -0.053934 0
8.725000 -0.053714 0
8.730000 -0.053365 0
8.735000 -0.052914 0
8.740000 -0.052189 0
8.745000 -0.051420 0
8.750000 -0.050656 0
8.755000 -0.049895 0
8.760000 -0.049138 0
8.765000 -0.048384 0
8.770000 -0.047635 0
8.775000 -0.046889 0
8.780000 -0.046147 0
8.785000 -0.045408 0
8.790000 -0.044674 0
8.795000 -0.043943 0
8.800000 -0.043215 0
8.805000 -0.042491 0
8.810000 -0.041771 0
8.815000 -0.041054 0
8.820000 -0.040341 0
8.825000 -0.039631 0
8.830000 -0.038924 0
8.835000 -0.038220 0
8.840000 -0.037518 0
8.845000 -0.036816 0
8.850000 -0.036112 0
8.855000 -0.035403 0
8.860000 -0.034682 0
8.865000 -0.033940 0
8.870000 -0.033161 0
8.875000 -0.032322 0
8.880000 -0.031390 0
8.885000 -0.030313 0
8.890000 -0.029024 0
8.895000 -0.027428 0
8.900000 -0.025400 0
8.905000 -0.022781 0
8.910000 -0.019373 0
8.915000 -0.014940 0
8.920000 -0.009214 0
8.925000 -0.001903 0
8.930000 0.007287 0
8.935000 0.018634 0
8.940000 0.032363 0
8.945000 0.048608 0
8.950000 0.067380 0
8.955000 0.088523 0
8.960000 0.111692 0
8.965000 0.136335 0
8.970000 0.161700 0
8.975000 0.186859 0
8.980000 0.210758 0
8.985000 0.232286 0
8.990000 0.250356 0
8.995000 0.263999 0
9.000000 0.272444 0
9.005000 0.275193 1
9.010000 0.272067 0
9.015000 0.263227 0
9.020000 0.249155 0
9.025000 0.230613 0
9.030000 0.208575 0
9.035000 0.184137 0
9.040000 0.158432 0
9.045000 0.132541 0
9.050000 0.107414 0
9.055000 0.083801 0
9.060000 0.062166 0
9.065000 0.042559 0
9.070000 0.024383 0
9.075000 0.006120 0
9.080000 -0.014812 0
9.085000 -0.041608 0
9.090000 -0.076597 0
9.095000 -0.118824 0
9.100000 -0.161752 0
9.105000 -0.192653 0
9.110000 -0.194453 2
9.115000 -0.149163 0
9.120000 -0.041519 0
9.125000 0.136775 0
9.130000 0.380330 0
9.135000 0.661712 0
9.140000 0.928338 0
9.145000 1.113493 0
9.150000 1.161776 3
9.155000 1.058403 0
9.160000 0.831345 0
9.165000 0.536884 0
9.170000 0.237028 0
9.175000 -0.020402 0
9.180000 -0.208983 0
9.185000 -0.320912 0
9.190000 -0.361628 4
9.195000 -0.345873 0
9.200000 -0.294205 0
9.205000 -0.228211 0
9.210000 -0.165163 0
9.215000 -0.114669 0
9.220000 -0.078797 0
9.225000 -0.054786 0
9.230000 -0.038249 0
9.235000 -0.025321 0
9.240000 -0.013421 0
9.245000 -0.001126 0
9.250000 0.012243 0
9.255000 0.026977 0
9.260000 0.043185 0
9.265000 0.060895 0
9.270000 0.080079 0
9.275000 0.100669 0
9.280000 0.122550 0
9.285000 0.145565 0
9.290000 0.169510 0
9.295000 0.194134 0
9.300000 0.219145 0
9.305000 0.244211 0
9.310000 0.268968 0
9.315000 0.293028 0
9.320000 0.315987 0
9.325000 0.337437 0
9.330000 0.356976 0
9.335000 0.374222 0
9.340000 0.388826 0
9.345000 0.400480 0
9.350000 0.408930 0
9.355000 0.413986 0
9.360000 0.415525 5
9.365000 0.413499 0
9.370000 0.407937 0
9.375000 0.398939 0
9.380000 0.386681 0
9.385000 0.371403 0
9.390000 0.353403 0
9.395000 0.333026 0
9.400000 0.310654 0
9.405000 0.286695 0
9.410000 0.261568 0
9.415000 0.235691 0
9.420000 0.209472 0
9.425000 0.183298 0
9.430000 0.157523 0
9.435000 0.132465 0
9.440000 0.108399 0
9.445000 0.085553 0
9.450000 0.064108 0
9.455000 0.044196 0
9.460000 0.025905 0
9.465000 0.009280 0
9.470000 -0.005673 0
9.475000 -0.018980 0
9.480000 -0.030696 0
9.485000 -0.040899 0
9.490000 -0.049685 0
9.495000 -0.057160 0
9.500000 -0.063439 0
9.505000 -0.068640 0
9.510000 -0.072881 0
9.515000 -0.076275 0
9.520000 -0.078931 0
9.525000 -0.080951 0
9.530000 -0.082429 0
9.535000 -0.083448 0
9.540000 -0.084083 0
9.545000 -0.084400 0
9.550000 -0.084458 0
9.555000 -0.084303 0
9.560000 -0.083979 0
9.565000 -0.083520 0
9.570000 -0.082954 0
9.575000 -0.082266 0
9.580000 -0.081348 0
9.585000 -0.080434 0
9.590000 -0.079524 0
9.595000 -0.078619 0
9.600000 -0.077719 0
9.605000 -0.076823 0
9.610000 -0.075932 0
9.615000 -0.075045 0
9.620000 -0.074162 0
9.625000 -0.073284 0
9.630000 -0.072410 0
9.635000 -0.071541 0
9.640000 -0.070676 0
9.645000 -0.069815 0
9.650000 -0.068959 0
9.655000 -0.068106 0
9.660000 -0.067258 0
9.665000 -0.066414 0
9.670000 -0.065573 0
9.675000 -0.064736 0
9.680000 -0.063902 0
9.685000 -0.063069 0
9.690000 -0.062235 0
9.695000 -0.061397 0
9.700000 -0.060550 0
9.705000 -0.059685 0
9.710000 -0.058789 0
9.715000 -0.057842 0
9.720000 -0.056816 0
9.725000 -0.055668 0
9.730000 -0.054340 0
9.735000 -0.052753 0
9.740000 -0.050801 0
9.745000 -0.048349 0
9.750000 -0.045228 0
9.755000 -0.041232 0
9.760000 -0.036125 0
9.765000 -0.029643 0
9.770000 -0.021510 0
9.775000 -0.011450 0
9.780000 0.000782 0
9.785000 0.015373 0
9.790000 0.032418 0
9.795000 0.051886 0
9.800000 0.073591 0
9.805000 0.097168 0
9.810000 0.122064 0
9.815000 0.147544 0
9.820000 0.172721 0
9.825000 0.196595 0
9.830000 0.218123 0
9.835000 0.236285 0
9.840000 0.250168 0
9.845000 0.259043 0
9.850000 0.262423 1
9.855000 0.260110 0
9.860000 0.252215 0
9.865000 0.239147 0
9.870000 0.221577 0
9.875000 0.200384 0
9.880000 0.176578 0
9.885000 0.151223 0
9.890000 0.125359 0
9.895000 0.099928 0
9.900000 0.075713 0
9.905000 0.053271 0
9.910000 0.032840 0
9.915000 0.014177 0
9.920000 -0.003681 0
9.925000 -0.022639 0
9.930000 -0.045482 0
9.935000 -0.075120 0
9.940000 -0.112882 0
9.945000 -0.156251 0
9.950000 -0.197188 0
9.955000 -0.222277 2
9.960000 -0.214906 0
9.965000 -0.158438 0
9.970000 -0.039427 0
9.975000 0.148366 0
9.980000 0.397612 0
9.985000 0.680105 0
9.990000 0.944879 0
9.995000 1.128981 0
10.000000 1.180428 3
10.005000 1.080368 0
10.010000 0.854309 0
10.015000 0.559711 0
10.020000 0.260115 0
10.025000 0.004252 0
10.030000 -0.181361 0
10.035000 -0.289361 0
10.040000 -0.325921 4
10.045000 -0.306675 0
10.050000 -0.252987 0
10.055000 -0.186794 0
10.060000 -0.125077 0
10.065000 -0.076701 0
10.070000 -0.042950 0
10.075000 -0.020570 0
10.080000 -0.005043 0
10.085000 0.007391 0
10.090000 0.019136 0
10.095000 0.031468 0
10.100000 0.044977 0
10.105000 0.059907 0
10.110000 0.076344 0
10.115000 0.094302 0
10.120000 0.113740 0
10.125000 0.134576 0
10.130000 0.156681 0
10.135000 0.179877 0
10.140000 0.203940 0
10.145000 0.228600 0
10.150000 0.253542 0
10.155000 0.278412 0
10.160000 0.302828 0
10.165000 0.326384 0
10.170000 0.348661 0
10.175000 0.369243 0
10.180000 0.387723 0
10.185000 0.403724 0
10.190000 0.416903 0
10.195000 0.426969 0
10.200000 0.433691 0
10.205000 0.436905 5
10.210000 0.436524 0
10.215000 0.432537 0
10.220000 0.425013 0
10.225000 0.414097 0
10.230000 0.400005 0
10.235000 0.383018 0
10.240000 0.363470 0
10.245000 0.341740 0
10.250000 0.318237 0
10.255000 0.293386 0
10.260000 0.267620 0
10.265000 0.241362 0
10.270000 0.215017 0
10.275000 0.188961 0
10.280000 0.163532 0
10.285000 0.139028 0
10.290000 0.115696 0
10.295000 0.093737 0
10.300000 0.073298 0
10.305000 0.054484 0
10.310000 0.037348 0
10.315000 0.021909 0
10.320000 0.008144 0
10.325000 -0.003997 0
10.330000 -0.014589 0
10.335000 -0.023728 0
10.340000 -0.031520 0
10.345000 -0.038084 0
10.350000 -0.043539 0
10.355000 -0.048007 0
10.360000 -0.051604 0
10.365000 -0.054444 0
10.370000 -0.056630 0
10.375000 -0.058260 0
10.380000 -0.059421 0
10.385000 -0.060189 0
10.390000 -0.060632 0
10.395000 -0.060811 0
10.400000 -0.060774 0
10.405000 -0.060565 0
10.410000 -0.060219 0
10.415000 -0.059766 0
10.420000 -0.059190 0
10.425000 -0.058387 0
10.430000 -0.057587 0
10.435000 -0.056792 0
10.440000 -0.056000 0
10.445000 -0.055213 0
10.450000 -0.054429 0
10.455000 -0.053649 0
10.460000 -0.052874 0
10.465000 -0.052102 0
10.470000 -0.051334 0
10.475000 -0.050569 0
10.480000 -0.049809 0
10.485000 -0.049052 0
10.490000 -0.048299 0
10.495000 -0.047550 0
10.500000 -0.046804 0
10.505000 -0.046062 0
10.510000 -0.045324 0
10.515000 -0.044588 0
10.520000 -0.043855 0
10.525000 -0.043124 0
10.530000 -0.042393 0
10.535000 -0.041660 0
10.540000 -0.040921 0
10.545000 -0.040169 0
10.550000 -0.039394 0
10.555000 -0.038579 0
10.560000 -0.037702 0
10.565000 -0.036728 0
10.570000 -0.035606 0
10.575000 -0.034269 0
10.580000 -0.032622 0
10.585000 -0.030544 0
10.590000 -0.027879 0
10.595000 -0.024435 0
10.600000 -0.019985 0
10.605000 -0.014272 0
10.610000 -0.007013 0
10.615000 0.002076 0
10.620000 0.013263 0
10.625000 0.026770 0
10.630000 0.042739 0
10.635000 0.061194 0
10.640000 0.082008 0
10.645000 0.104878 0
10.650000 0.129307 0
10.655000 0.154603 0
10.660000 0.179905 0
10.665000 0.204220 0
10.670000 0.226481 0
10.675000 0.245627 0
10.680000 0.260682 0
10.685000 0.270840 0
10.690000 0.275530 1
10.695000 0.274476 0
10.700000 0.267714 0
10.705000 0.255601 0
10.710000 0.238773 0
10.715000 0.218094 0
10.720000 0.194584 0
10.725000 0.169329 0
10.730000 0.143406 0
10.735000 0.117799 0
10.740000 0.093335 0
10.745000 0.070619 0
10.750000 0.049932 0
10.755000 0.031077 0
10.760000 0.013133 0
10.765000 -0.005789 0
10.770000 -0.028513 0
10.775000 -0.058039 0
10.780000 -0.095791 0
10.785000 -0.139240 0
10.790000 -0.180130 0
10.795000 -0.204636 2
10.800000 -0.195676 0
10.805000 -0.136256 0
10.810000 -0.012858 0
10.815000 0.180210 0
10.820000 0.433969 0
10.825000 0.717247 0
10.830000 0.975717 0
10.835000 1.144807 0
10.840000 1.174684 3
10.845000 1.051380 0
10.850000 0.807767 0
10.855000 0.507178 0
10.860000 0.214237 0
10.865000 -0.025273 0
10.870000 -0.189241 0
10.875000 -0.274445 0
10.880000 -0.290739 4
10.885000 -0.256947 0
10.890000 -0.196329 0
10.895000 -0.130496 0
10.900000 -0.074008 0
10.905000 -0.032524 0
10.910000 -0.004819 0
10.915000 0.013493 0
10.920000 0.026906 0
10.925000 0.038628 0
10.930000 0.050483 0
10.935000 0.063349 0
10.940000 0.077598 0
10.945000 0.093371 0
10.950000 0.110706 0
10.955000 0.129577 0
10.960000 0.149913 0
10.965000 0.171592 0
10.970000 0.194442 0
10.975000 0.218239 0
10.980000 0.242712 0
10.985000 0.267537 0
10.990000 0.292353 0
10.995000 0.316760 0
11.000000 0.340336 0
11.005000 0.362644 0
11.010000 0.383244 0
11.015000 0.401712 0
11.020000 0.417648 0
11.025000 0.430695 0
11.030000 0.440547 0
11.035000 0.446965 0
11.040000 0.449784 5
11.045000 0.448917 0
11.050000 0.444363 0
11.055000 0.436205 0
11.060000 0.424607 0
11.065000 0.409809 0
11.070000 0.392118 0
11.075000 0.371896 0
11.080000 0.349549 0
11.085000 0.325511 0
11.090000 0.300234 0
11.095000 0.274166 0
11.100000 0.247747 0
11.105000 0.221391 0
11.110000 0.195477 0
11.115000 0.170342 0
11.120000 0.146274 0
11.125000 0.123511 0
11.130000 0.102234 0
11.135000 0.082574 0
11.140000 0.064612 0
11.145000 0.048383 0
11.150000 0.033879 0
11.155000 0.021059 0
11.160000 0.009853 0
11.165000 0.000168 0
11.170000 -0.008105 0
11.175000 -0.015088 0
11.180000 -0.020904 0
11.185000 -0.025681 0
11.190000 -0.029544 0
11.195000 -0.032610 0
11.200000 -0.034991 0
11.205000 -0.036790 0
11.210000 -0.038098 0
11.215000 -0.038998 0
11.220000 -0.039561 0
11.225000 -0.039851 0
11.230000 -0.039919 0
11.235000 -0.039810 0
11.240000 -0.039562 0
11.245000 -0.039205 0
11.250000 -0.038726 0
11.255000 -0.038025 0
11.260000 -0.037327 0
11.265000 -0.036632 0
11.270000 -0.035941 0
11.275000 -0.035254 0
11.280000 -0.034570 0
11.285000 -0.033889 0
11.290000 -0.033212 0
11.295000 -0.032538 0
11.300000 -0.031867 0
11.305000 -0.031200 0
11.310000 -0.030536 0
11.315000 -0.029876 0
11.320000 -0.029218 0
11.325000 -0.028564 0
11.330000 -0.027913 0
11.335000 -0.027265 0
11.340000 -0.026620 0
11.345000 -0.025978 0
11.350000 -0.025337 0
11.355000 -0.024696 0
11.360000 -0.024054 0
11.365000 -0.023406 0
11.370000 -0.022748 0
11.375000 -0.022069 0
11.380000 -0.021356 0
11.385000 -0.020585 0
11.390000 -0.019723 0
11.395000 -0.018724 0
11.400000 -0.017519 0
11.405000 -0.016015 0
11.410000 -0.014090 0
11.415000 -0.011586 0
11.420000 -0.008306 0
11.425000 -0.004015 0
11.430000 0.001555 0
11.435000 0.008698 0
11.440000 0.017713 0
11.445000 0.028883 0
11.450000 0.042436 0
11.455000 0.058517 0
11.460000 0.077140 0
11.465000 0.098156 0
11.470000 0.121223 0
11.475000 0.145789 0
11.480000 0.171099 0
11.485000 0.196218 0
11.490000 0.220082 0
11.495000 0.241569 0
11.500000 0.259581 0
11.505000 0.273137 0
11.510000 0.281463 0
11.515000 0.284057 1
11.520000 0.280747 0
11.525000 0.271702 0
11.530000 0.257418 0
11.535000 0.238674 0
11.540000 0.216460 0
11.545000 0.191887 0
11.550000 0.166099 0
11.555000 0.140184 0
11.560000 0.115089 0
11.565000 0.091558 0
11.570000 0.070036 0
11.575000 0.050529 0
11.580000 0.032373 0
11.585000 0.013939 0
11.590000 -0.007471 0
11.595000 -0.035081 0
11.600000 -0.071025 0
11.605000 -0.113823 0
11.610000 -0.156151 0
11.615000 -0.184488 2
11.620000 -0.181275 0
11.625000 -0.128485 0
11.630000 -0.011356 0
11.635000 0.177046 0
11.640000 0.428560 0
11.645000 0.711610 0
11.650000 0.969715 0
11.655000 1.135351 0
11.660000 1.157271 3
11.665000 1.026983 0
11.670000 0.780325 0
11.675000 0.479348 0
11.680000 0.186618 0
11.685000 -0.053524 0
11.690000 -0.219410 0
11.695000 -0.307545 0
11.700000 -0.327071 4
11.705000 -0.295886 0
11.710000 -0.236460 0
11.715000 -0.170160 0
11.720000 -0.111964 0
11.725000 -0.068315 0
11.730000 -0.038687 0
11.735000 -0.019044 0
11.740000 -0.004900 0
11.745000 0.007110 0
11.750000 0.018986 0
11.755000 0.031728 0
11.760000 0.045774 0
11.765000 0.061298 0
11.770000 0.078356 0
11.775000 0.096937 0
11.780000 0.116984 0
11.785000 0.138393 0
11.790000 0.161013 0
11.795000 0.184643 0
11.800000 0.209035 0
11.805000 0.233892 0
11.810000 0.258878 0
11.815000 0.283616 0
11.820000 0.307707 0
11.825000 0.330728 0
11.830000 0.352255 0
11.835000 0.371866 0
11.840000 0.389162 0
11.845000 0.403774 0
11.850000 0.415381 0
11.855000 0.423717 0
11.860000 0.428582 0
11.865000 0.429852 5
11.870000 0.427480 0
11.875000 0.421500 0
11.880000 0.412028 0
11.885000 0.399253 0
11.890000 0.383435 0
11.895000 0.364892 0
11.900000 0.343993 0
11.905000 0.321144 0
11.910000 0.296773 0
11.915000 0.271318 0
11.920000 0.245214 0
11.925000 0.218881 0
11.930000 0.192713 0
11.935000 0.167067 0
11.940000 0.142261 0
11.945000 0.118562 0
11.950000 0.096190 0
11.955000 0.075310 0
11.960000 0.056042 0
11.965000 0.038456 0
11.970000 0.022578 0
11.975000 0.008397 0
11.980000 -0.004131 0
11.985000 -0.015077 0
11.990000 -0.024533 0
11.995000 -0.032606 0
12.000000 -0.039414 0
12.005000 -0.045078 0
12.010000 -0.049721 0
12.015000 -0.053465 0
12.020000 -0.056423 0
12.025000 -0.058705 0
12.030000 -0.060409 0
12.035000 -0.061626 0
12.040000 -0.062437 0
12.045000 -0.062911 0
12.050000 -0.063110 0
12.055000 -0.063086 0
12.060000 -0.062883 0
12.065000 -0.062539 0
12.070000 -0.062084 0
12.075000 -0.061503 0
12.080000 -0.060688 0
12.085000 -0.059877 0
12.090000 -0.059070 0
12.095000 -0.058267 0
12.100000 -0.057468 0
12.105000 -0.056673 0
12.110000 -0.055882 0
12.115000 -0.055095 0
12.120000 -0.054312 0
12.125000 -0.053533 0
12.130000 -0.052758 0
12.135000 -0.051987 0
12.140000 -0.051219 0
12.145000 -0.050455 0
12.150000 -0.049695 0
12.155000 -0.048939 0
12.160000 -0.048186 0
12.165000 -0.047437 0
12.170000 -0.046691 0
12.175000 -0.045948 0
12.180000 -0.045206 0
12.185000 -0.044464 0
12.190000 -0.043720 0
12.195000 -0.042969 0
12.200000 -0.042204 0
12.205000 -0.041414 0
12.210000 -0.040582 0
12.215000 -0.039682 0
12.220000 -0.038678 0
12.225000 -0.037515 0
12.230000 -0.036121 0
12.235000 -0.034394 0
12.240000 -0.032207 0
12.245000 -0.029392 0
12.250000 -0.025748 0
12.255000 -0.021037 0
12.260000 -0.014989 0
12.265000 -0.007317 0
12.270000 0.002268 0
12.275000 0.014030 0
12.280000 0.028178 0
12.285000 0.044827 0
12.290000 0.063967 0
12.295000 0.085419 0
12.300000 0.108821 0
12.305000 0.133608 0
12.310000 0.159023 0
12.315000 0.184141 0
12.320000 0.207920 0
12.325000 0.229272 0
12.330000 0.247134 0
12.335000 0.260565 0
12.340000 0.268822 0
12.345000 0.271427 1
12.350000 0.268215 0
12.355000 0.259348 0
12.360000 0.245303 0
12.365000 0.226827 0
12.370000 0.204872 0
12.375000 0.180513 0
12.380000 0.154861 0
12.385000 0.128979 0
12.390000 0.103807 0
12.395000 0.080093 0
12.400000 0.058319 0
12.405000 0.038569 0
12.410000 0.020332 0
12.415000 0.002218 0
12.420000 -0.018194 0
12.425000 -0.044023 0
12.430000 -0.077788 0
12.435000 -0.119163 0
12.440000 -0.162655 0
12.445000 -0.196688 0
12.450000 -0.205023 2
12.455000 -0.169913 0
12.460000 -0.075604 0
12.465000 0.087834 0
12.470000 0.318620 0
12.475000 0.595185 0
12.480000 0.871240 0
12.485000 1.082768 0
12.490000 1.169932 3
12.495000 1.104865 0
12.500000 0.904084 0
12.505000 0.619752 0
12.510000 0.316229 0
12.515000 0.046903 0
12.520000 -0.156510 0
12.525000 -0.282656 0
12.530000 -0.334943 4
12.535000 -0.327064 0
12.540000 -0.279422 0
12.545000 -0.214338 0
12.550000 -0.150375 0
12.555000 -0.098406 0
12.560000 -0.061299 0
12.565000 -0.036558 0
12.570000 -0.019727 0
12.575000 -0.006767 0
12.580000 0.005048 0
12.585000 0.017223 0
12.590000 0.030475 0
12.595000 0.045107 0
12.600000 0.061234 0
12.605000 0.078882 0
12.610000 0.098024 0
12.615000 0.118588 0
12.620000 0.140455 0
12.625000 0.163459 0
12.630000 0.187390 0
12.635000 0.211985 0
12.640000 0.236942 0
12.645000 0.261917 0
12.650000 0.286533 0
12.655000 0.310388 0
12.660000 0.333067 0
12.665000 0.354151 0
12.670000 0.373232 0
12.675000 0.389923 0
12.680000 0.403872 0
12.685000 0.414774 0
12.690000 0.422384 0
12.695000 0.426520 0
12.700000 0.427076 5
12.705000 0.424022 0
12.710000 0.417408 0
12.715000 0.407359 0
12.720000 0.394076 0
12.725000 0.377823 0
12.730000 0.358923 0
12.735000 0.337744 0
12.740000 0.314689 0
12.745000 0.290180 0
12.750000 0.264648 0
12.755000 0.238521 0
12.760000 0.212208 0
12.765000 0.186093 0
12.770000 0.160525 0
12.775000 0.135811 0
12.780000 0.112212 0
12.785000 0.089938 0
12.790000 0.069153 0
12.795000 0.049970 0
12.800000 0.032455 0
12.805000 0.016635 0
12.810000 0.002497 0
12.815000 -0.010002 0
12.820000 -0.020932 0
12.825000 -0.030384 0
12.830000 -0.038462 0
12.835000 -0.045281 0
12.840000 -0.050962 0
12.845000 -0.055625 0
12.850000 -0.059389 0
12.855000 -0.062368 0
12.860000 -0.064668 0
12.865000 -0.066389 0
12.870000 -0.067619 0
12.875000 -0.068438 0
12.880000 -0.068917 0
12.885000 -0.069116 0
12.890000 -0.069089 0
12.895000 -0.068879 0
12.900000 -0.068524 0
12.905000 -0.068055 0
12.910000 -0.067497 0
12.915000 -0.066693 0
12.920000 -0.065853 0
12.925000 -0.065016 0
12.930000 -0.064183 0
12.935000 -0.063355 0
12.940000 -0.062531 0
12.945000 -0.061711 0
12.950000 -0.060895 0
12.955000 -0.060083 0
12.960000 -0.059275 0
12.965000 -0.058471 0
12.970000 -0.057671 0
12.975000 -0.056875 0
12.980000 -0.056083 0
12.985000 -0.055295 0
12.990000 -0.054511 0
12.995000 -0.053731 0
13.000000 -0.052954 0
13.005000 -0.052180 0
13.010000 -0.051410 0
13.015000 -0.050642 0
13.020000 -0.049875 0
13.025000 -0.049106 0
13.030000 -0.048333 0
13.035000 -0.047549 0
13.040000 -0.046745 0
13.045000 -0.045907 0
13.050000 -0.045014 0
13.055000 -0.044035 0
13.060000 -0.042923 0
13.065000 -0.041616 0
13.070000 -0.040027 0
13.075000 -0.038043 0
13.080000 -0.035517 0
13.085000 -0.032267 0
13.090000 -0.028076 0
13.095000 -0.022692 0
13.100000 -0.015841 0
13.105000 -0.007236 0
13.110000 0.003398 0
13.115000 0.016299 0
13.120000 0.031632 0
13.125000 0.049457 0
13.130000 0.069692 0
13.135000 0.092082 0
13.140000 0.116183 0
13.145000 0.141355 0
13.150000 0.166781 0
13.155000 0.191498 0
13.160000 0.214452 0
13.165000 0.234574 0
13.170000 0.250858 0
13.175000 0.262443 0
13.180000 0.268689 0
13.185000 0.269236 1
13.190000 0.264036 0
13.195000 0.253359 0
13.200000 0.237769 0
13.205000 0.218075 0
13.210000 0.195262 0
13.215000 0.170405 0
13.220000 0.144592 0
13.225000 0.118837 0
13.230000 0.094019 0
13.235000 0.070808 0
13.240000 0.049588 0
13.245000 0.030315 0
13.250000 0.012293 0
13.255000 -0.006082 0
13.260000 -0.027413 0
13.265000 -0.054781 0
13.270000 -0.090272 0
13.275000 -0.132681 0
13.280000 -0.175425 0
13.285000 -0.206077 0
13.290000 -0.208147 2
13.295000 -0.164286 0
13.300000 -0.059658 0
13.305000 0.114169 0
13.310000 0.353121 0
13.315000 0.632769 0
13.320000 0.904643 0
13.325000 1.104896 0
13.330000 1.176855 3
13.335000 1.095609 0
13.340000 0.881849 0
13.345000 0.591552 0
13.350000 0.289968 0
13.355000 0.028795 0
13.360000 -0.162944 0
13.365000 -0.276385 0
13.370000 -0.316991 4
13.375000 -0.300191 0
13.380000 -0.247554 0
13.385000 -0.181513 0
13.390000 -0.119599 0
13.395000 -0.071048 0
13.400000 -0.037264 0
13.405000 -0.014954 0
13.410000 0.000481 0
13.415000 0.012851 0
13.420000 0.024576 0
13.425000 0.036926 0
13.430000 0.050482 0
13.435000 0.065479 0
13.440000 0.082003 0
13.445000 0.100061 0
13.450000 0.119609 0
13.455000 0.140558 0
13.460000 0.162773 0
13.465000 0.186067 0
13.470000 0.210207 0
13.475000 0.234910 0
13.480000 0.259850 0
13.485000 0.284664 0
13.490000 0.308955 0
13.495000 0.332307 0
13.500000 0.354294 0
13.505000 0.374491 0
13.510000 0.392491 0
13.515000 0.407912 0
13.520000 0.420417 0
13.525000 0.429722 0
13.530000 0.435607 0
13.535000 0.437922 5
13.540000 0.436597 0
13.545000 0.431644 0
13.550000 0.423152 0
13.555000 0.411291 0
13.560000 0.396300 0
13.565000 0.378483 0
13.570000 0.358195 0
13.575000 0.335833 0
13.580000 0.311821 0
13.585000 0.286596 0
13.590000 0.260597 0
13.595000 0.234250 0
13.600000 0.207957 0
13.605000 0.182089 0
13.610000 0.156974 0
13.615000 0.132897 0
13.620000 0.110090 0
13.625000 0.088735 0
13.630000 0.068966 0
13.635000 0.050863 0
13.640000 0.034468 0
13.645000 0.019778 0
13.650000 0.006758 0
13.655000 -0.004656 0
13.660000 -0.014552 0
13.665000 -0.023032 0
13.670000 -0.030213 0
13.675000 -0.036215 0
13.680000 -0.041162 0
13.685000 -0.045175 0
13.690000 -0.048372 0
13.695000 -0.050863 0
13.700000 -0.052749 0
13.705000 -0.054125 0
13.710000 -0.055073 0
13.715000 -0.055666 0
13.720000 -0.055969 0
13.725000 -0.056035 0
13.730000 -0.055911 0
13.735000 -0.055636 0
13.740000 -0.055242 0
13.745000 -0.054755 0
13.750000 -0.054017 0
13.755000 -0.053239 0
13.760000 -0.052466 0
13.765000 -0.051696 0
13.770000 -0.050930 0
13.775000 -0.050167 0
13.780000 -0.049409 0
13.785000 -0.048654 0
13.790000 -0.047903 0
13.795000 -0.047156 0
13.800000 -0.046413 0
13.805000 -0.045673 0
13.810000 -0.044937 0
13.815000 -0.044204 0
13.820000 -0.043476 0
13.825000 -0.042750 0
13.830000 -0.042029 0
13.835000 -0.041310 0
13.840000 -0.040595 0
13.845000 -0.039882 0
13.850000 -0.039171 0
13.855000 -0.038461 0
13.860000 -0.037748 0
13.865000 -0.037030 0
13.870000 -0.036300 0
13.875000 -0.035547 0
13.880000 -0.034757 0
13.885000 -0.033906 0
13.890000 -0.032960 0
13.895000 -0.031870 0
13.900000 -0.030567 0
13.905000 -0.028957 0
13.910000 -0.026919 0
13.915000 -0.024293 0
13.920000 -0.020888 0
13.925000 -0.016471 0
13.930000 -0.010779 0
13.935000 -0.003528 0
13.940000 0.005574 0
13.945000 0.016799 0
13.950000 0.030373 0
13.955000 0.046436 0
13.960000 0.065006 0
13.965000 0.085946 0
13.970000 0.108935 0
13.975000 0.133451 0
13.980000 0.158776 0
13.985000 0.184017 0
13.990000 0.208151 0
13.995000 0.230089 0
14.000000 0.248756 0
14.005000 0.263176 0
14.010000 0.272554 0
14.015000 0.276351 1
14.020000 0.274333 0
14.025000 0.266595 0
14.030000 0.253550 0
14.035000 0.235896 0
14.040000 0.214549 0
14.045000 0.190569 0
14.050000 0.165068 0
14.055000 0.139127 0
14.060000 0.113718 0
14.065000 0.089637 0
14.070000 0.067427 0
14.075000 0.047266 0
14.080000 0.028782 0
14.085000 0.010779 0
14.090000 -0.008969 0
14.095000 -0.033515 0
14.100000 -0.065654 0
14.105000 -0.105817 0
14.110000 -0.149643 0
14.115000 -0.186676 0
14.120000 -0.201337 2
14.125000 -0.175859 0
14.130000 -0.093812 0
14.135000 0.056223 0
14.140000 0.275265 0
14.145000 0.546021 0
14.150000 0.826683 0
14.155000 1.055155 0
14.160000 1.168608 3
14.165000 1.131547 0
14.170000 0.952244 0
14.175000 0.678087 0
14.180000 0.373523 0
14.185000 0.095357 0
14.190000 -0.120598 0
14.195000 -0.259815 0
14.200000 -0.323600 0
14.205000 -0.324254 4
14.210000 -0.281476 0
14.215000 -0.217780 0
14.220000 -0.152758 0
14.225000 -0.098649 0
14.230000 -0.059436 0
14.235000 -0.033187 0
14.240000 -0.015529 0
14.245000 -0.002252 0
14.250000 0.009577 0
14.255000 0.021619 0
14.260000 0.034675 0
14.265000 0.049089 0
14.270000 0.064994 0
14.275000 0.082425 0
14.280000 0.101360 0
14.285000 0.121732 0
14.290000 0.143427 0
14.295000 0.166286 0
14.300000 0.190098 0
14.305000 0.214609 0
14.310000 0.239518 0
14.315000 0.264482 0
14.320000 0.289126 0
14.325000 0.313048 0
14.330000 0.335831 0
14.335000 0.357055 0
14.340000 0.376306 0
14.345000 0.393194 0
14.350000 0.407361 0
14.355000 0.418496 0
14.360000 0.426348 0
14.365000 0.430728 0
14.370000 0.431523 5
14.375000 0.428699 0
14.380000 0.422299 0
14.385000 0.412444 0
14.390000 0.399332 0
14.395000 0.383224 0
14.400000 0.364441 0
14.405000 0.343352 0
14.410000 0.320360 0
14.415000 0.295888 0
14.420000 0.270371 0
14.425000 0.244238 0
14.430000 0.217901 0
14.435000 0.191749 0
14.440000 0.166133 0
14.445000 0.141364 0
14.450000 0.117705 0
14.455000 0.095370 0
14.460000 0.074524 0
14.465000 0.055281 0
14.470000 0.037711 0
14.475000 0.021839 0
14.480000 0.007655 0
14.485000 -0.004885 0
14.490000 -0.015852 0
14.495000 -0.025335 0
14.500000 -0.033441 0
14.505000 -0.040285 0
14.510000 -0.045987 0
14.515000 -0.050669 0
14.520000 -0.054450 0
14.525000 -0.057446 0
14.530000 -0.059762 0
14.535000 -0.061498 0
14.540000 -0.062744 0
14.545000 -0.063579 0
14.550000 -0.064074 0
14.555000 -0.064291 0
14.560000 -0.064281 0
14.565000 -0.064090 0
14.570000 -0.063754 0
14.575000 -0.063305 0
14.580000 -0.062767 0
14.585000 -0.061987 0
14.590000 -0.061170 0
14.595000 -0.060356 0
14.600000 -0.059547 0
14.605000 -0.058742 0
14.610000 -0.057941 0
14.615000 -0.057143 0
14.620000 -0.056350 0
14.625000 -0.055561 0
14.630000 -0.054776 0
14.635000 -0.053994 0
14.640000 -0.053217 0
14.645000 -0.052443 0
14.650000 -0.051673 0
14.655000 -0.050907 0
14.660000 -0.050145 0
14.665000 -0.049386 0
14.670000 -0.048631 0
14.675000 -0.047879 0
14.680000 -0.047130 0
14.685000 -0.046383 0
14.690000 -0.045637 0
14.695000 -0.044888 0
14.700000 -0.044135 0
14.705000 -0.043370 0
14.710000 -0.042583 0
14.715000 -0.041761 0
14.720000 -0.040880 0
14.725000 -0.039907 0
14.730000 -0.038795 0
14.735000 -0.037477 0
14.740000 -0.035865 0
14.745000 -0.033838 0
14.750000 -0.031246 0
14.755000 -0.027901 0
14.760000 -0.023579 0
14.765000 -0.018023 0
14.770000 -0.010955 0
14.775000 -0.002087 0
14.780000 0.008855 0
14.785000 0.022101 0
14.790000 0.037803 0
14.795000 0.056001 0
14.800000 0.076587 0
14.805000 0.099275 0
14.810000 0.123587 0
14.815000 0.148848 0
14.820000 0.174208 0
14.825000 0.198679 0
14.830000 0.221194 0
14.835000 0.240683 0
14.840000 0.256153 0
14.845000 0.266776 0
14.850000 0.271956 1
14.855000 0.271388 0
14.860000 0.265085 0
14.865000 0.253378 0
14.870000 0.236887 0
14.875000 0.216468 0
14.880000 0.193134 0
14.885000 0.167978 0
14.890000 0.142081 0
14.895000 0.116443 0
14.900000 0.091907 0
14.905000 0.069095 0
14.910000 0.048311 0
14.915000 0.029389 0
14.920000 0.011448 0
14.925000 -0.007359 0
14.930000 -0.029834 0
14.935000 -0.059014 0
14.940000 -0.096441 0
14.945000 -0.139775 0
14.950000 -0.180946 0
14.955000 -0.206228 2
14.960000 -0.198515 0
14.965000 -0.140675 0
14.970000 -0.018985 0
14.975000 0.172547 0
14.980000 0.425313 0
14.985000 0.708490 0
14.990000 0.967837 0
14.995000 1.138469 0
15.000000 1.169961 3
15.005000 1.049837 0
15.010000 0.809989 0
15.015000 0.510861 0
15.020000 0.215347 0
15.025000 -0.030689 0
15.030000 -0.203883 0
15.035000 -0.299357 0
15.040000 -0.325151 4
15.045000 -0.298301 0
15.050000 -0.240866 0
15.055000 -0.174449 0
15.060000 -0.114809 0
15.065000 -0.069317 0
15.070000 -0.038121 0
15.075000 -0.017460 0
15.080000 -0.002823 0
15.085000 0.009316 0
15.090000 0.021112 0
15.095000 0.033669 0
15.100000 0.047482 0
15.105000 0.062751 0
15.110000 0.079542 0
15.115000 0.097855 0
15.120000 0.117641 0
15.125000 0.138803 0
15.130000 0.161201 0
15.135000 0.184644 0
15.140000 0.208894 0
15.145000 0.233665 0
15.150000 0.258631 0
15.155000 0.283427 0
15.160000 0.307657 0
15.165000 0.330910 0
15.170000 0.352762 0
15.175000 0.372794 0
15.180000 0.390604 0
15.185000 0.405818 0
15.190000 0.418108 0
15.195000 0.427194 0
15.200000 0.432865 0
15.205000 0.434977 5
15.210000 0.433467 0
15.215000 0.428349 0
15.220000 0.419718 0
15.225000 0.407742 0
15.230000 0.392664 0
15.235000 0.374784 0
15.240000 0.354457 0
15.245000 0.332076 0
15.250000 0.308060 0
15.255000 0.282844 0
15.260000 0.256861 0
15.265000 0.230532 0
15.270000 0.204257 0
15.275000 0.178402 0
15.280000 0.153293 0
15.285000 0.129211 0
15.290000 0.106389 0
15.295000 0.085008 0
15.300000 0.065200 0
15.305000 0.047050 0
15.310000 0.030597 0
15.315000 0.015842 0
15.320000 0.002751 0
15.325000 -0.008737 0
15.330000 -0.018708 0
15.335000 -0.027264 0
15.340000 -0.034517 0
15.345000 -0.040588 0
15.350000 -0.045598 0
15.355000 -0.049669 0
15.360000 -0.052917 0
15.365000 -0.055451 0
15.370000 -0.057375 0
15.375000 -0.058781 0
15.380000 -0.059751 0
15.385000 -0.060361 0
15.390000 -0.060673 0
15.395000 -0.060745 0
15.400000 -0.060621 0
15.405000 -0.060342 0
15.410000 -0.059941 0
15.415000 -0.059444 0
15.420000 -0.058685 0
15.425000 -0.057884 0
15.430000 -0.057087 0
15.435000 -0.056294 0
15.440000 -0.055505 0
15.445000 -0.054720 0
15.450000 -0.053938 0
15.455000 -0.053161 0
15.460000 -0.052388 0
15.465000 -0.051618 0
15.470000 -0.050853 0
15.475000 -0.050091 0
15.480000 -0.049333 0
15.485000 -0.048578 0
15.490000 -0.047828 0
15.495000 -0.047081 0
15.500000 -0.046337 0
15.505000 -0.045598 0
15.510000 -0.044861 0
15.515000 -0.044127 0
15.520000 -0.043396 0
15.525000 -0.042665 0
15.530000 -0.041934 0
15.535000 -0.041198 0
15.540000 -0.040452 0
15.545000 -0.039687 0
15.550000 -0.038891 0
15.555000 -0.038041 0
15.560000 -0.037109 0
15.565000 -0.036051 0
15.570000 -0.034804 0
15.575000 -0.033285 0
15.580000 -0.031381 0
15.585000 -0.028949 0
15.590000 -0.025809 0
15.595000 -0.021743 0
15.600000 -0.016503 0
15.605000 -0.009810 0
15.610000 -0.001378 0
15.615000 0.009075 0
15.620000 0.021790 0
15.625000 0.036942 0
15.630000 0.054598 0
15.635000 0.074683 0
15.640000 0.096950 0
15.645000 0.120961 0
15.650000 0.146079 0
15.655000 0.171483 0
15.660000 0.196206 0
15.665000 0.219188 0
15.670000 0.239349 0
15.675000 0.255671 0
15.680000 0.267283 0
15.685000 0.273536 0
15.690000 0.274066 1
15.695000 0.268822 0
15.700000 0.258079 0
15.705000 0.242408 0
15.710000 0.222628 0
15.715000 0.199735 0
15.720000 0.174814 0
15.725000 0.148962 0
15.730000 0.123201 0
15.735000 0.098409 0
15.740000 0.075254 0
15.745000 0.054107 0
15.750000 0.034897 0
15.755000 0.016880 0
15.760000 -0.001625 0
15.765000 -0.023295 0
15.770000 -0.051232 0
15.775000 -0.087380 0
15.780000 -0.130170 0
15.785000 -0.172469 0
15.790000 -0.201286 2
15.795000 -0.199766 0
15.800000 -0.150498 0
15.805000 -0.038959 0
15.810000 0.142385 0
15.815000 0.387565 0
15.820000 0.669213 0
15.825000 0.935849 0
15.830000 1.122526 0
15.835000 1.174960 3
15.840000 1.073081 0
15.845000 0.843779 0
15.850000 0.547427 0
15.855000 0.249722 0
15.860000 -0.000244 0
15.865000 -0.176968 0
15.870000 -0.274666 0
15.875000 -0.301313 4
15.880000 -0.274403 0
15.885000 -0.216706 0
15.890000 -0.150438 0
15.895000 -0.091564 0
15.900000 -0.047239 0
15.905000 -0.017225 0
15.910000 0.002526 0
15.915000 0.016621 0
15.920000 0.028529 0
15.925000 0.040304 0
15.930000 0.052965 0
15.935000 0.066954 0
15.940000 0.082445 0
15.945000 0.099489 0
15.950000 0.118075 0
15.955000 0.138140 0
15.960000 0.159573 0
15.965000 0.182216 0
15.970000 0.205858 0
15.975000 0.230237 0
15.980000 0.255046 0
15.985000 0.279932 0
15.990000 0.304506 0
15.995000 0.328354 0
16.000000 0.351042 0
16.005000 0.372135 0
16.010000 0.391204 0
16.015000 0.407845 0
16.020000 0.421691 0
16.025000 0.432425 0
16.030000 0.439790 0
16.035000 0.443601 0
16.040000 0.443753 5
16.045000 0.440221 0
16.050000 0.433066 0
16.055000 0.422428 0
16.060000 0.408526 0
16.065000 0.391647 0
16.070000 0.372138 0
16.075000 0.350390 0
16.080000 0.326830 0
16.085000 0.301900 0
16.090000 0.276051 0
16.095000 0.249723 0
16.100000 0.223336 0
16.105000 0.197279 0
16.110000 0.171900 0
16.115000 0.147500 0
16.120000 0.124333 0
16.125000 0.102596 0
16.130000 0.082435 0
16.135000 0.063946 0
16.140000 0.047178 0
16.145000 0.032137 0
16.150000 0.018792 0
16.155000 0.007083 0
16.160000 -0.003077 0
16.165000 -0.011791 0
16.170000 -0.019175 0
16.175000 -0.025353 0
16.180000 -0.030451 0
16.185000 -0.034593 0
16.190000 -0.037900 0
16.195000 -0.040486 0
16.200000 -0.042454 0
16.205000 -0.043902 0
16.210000 -0.044913 0
16.215000 -0.045564 0
16.220000 -0.045919 0
16.225000 -0.046035 0
16.230000 -0.045959 0
16.235000 -0.045730 0
16.240000 -0.045382 0
16.245000 -0.044941 0
16.250000 -0.044251 0
16.255000 -0.043522 0
16.260000 -0.042797 0
16.265000 -0.042075 0
16.270000 -0.041357 0
16.275000 -0.040643 0
16.280000 -0.039932 0
16.285000 -0.039224 0
16.290000 -0.038520 0
16.295000 -0.037820 0
16.300000 -0.037123 0
16.305000 -0.036430 0
16.310000 -0.035740 0
16.315000 -0.035053 0
16.320000 -0.034370 0
16.325000 -0.033690 0
16.330000 -0.033014 0
16.335000 -0.032340 0
16.340000 -0.031669 0
16.345000 -0.031001 0
16.350000 -0.030333 0
16.355000 -0.029665 0
16.360000 -0.028994 0
16.365000 -0.028316 0
16.370000 -0.027622 0
16.375000 -0.026901 0
16.380000 -0.026134 0
16.385000 -0.025295 0
16.390000 -0.024344 0
16.395000 -0.023223 0
16.400000 -0.021852 0
16.405000 -0.020126 0
16.410000 -0.017904 0
16.415000 -0.015012 0
16.420000 -0.011232 0
16.425000 -0.006316 0
16.430000 0.000019 0
16.435000 0.008070 0
16.440000 0.018129 0
16.445000 0.030455 0
16.450000 0.045241 0
16.455000 0.062571 0
16.460000 0.082387 0
16.465000 0.104451 0
16.470000 0.128327 0
16.475000 0.153368 0
16.480000 0.178735 0
16.485000 0.203433 0
16.490000 0.226368 0
16.495000 0.246424 0
16.500000 0.262551 0
16.505000 0.273858 0
16.510000 0.279689 1
16.515000 0.279687 0
16.520000 0.273831 0
16.525000 0.262436 0
16.530000 0.246125 0
16.535000 0.225774 0
16.540000 0.202429 0
16.545000 0.177220 0
16.550000 0.151272 0
16.555000 0.125614 0
16.560000 0.101114 0
16.565000 0.078398 0
16.570000 0.057753 0
16.575000 0.038945 0
16.580000 0.020956 0
16.585000 0.001727 0
16.590000 -0.021750 0
16.595000 -0.052509 0
16.600000 -0.091576 0
16.605000 -0.135401 0
16.610000 -0.174214 0
16.615000 -0.192660 2
16.620000 -0.172662 0
16.625000 -0.097093 0
16.630000 0.046444 0
16.635000 0.260253 0
16.640000 0.528445 0
16.645000 0.810039 0
16.650000 1.042397 0
16.655000 1.160766 3
16.660000 1.128085 0
16.665000 0.951649 0
16.670000 0.678636 0
16.675000 0.374108 0
16.680000 0.095675 0
16.685000 -0.120308 0
16.690000 -0.259136 0
16.695000 -0.322184 4
16.700000 -0.321983 0
16.705000 -0.278531 0
16.710000 -0.214582 0
16.715000 -0.149781 0
16.720000 -0.096223 0
16.725000 -0.057650 0
16.730000 -0.031934 0
16.735000 -0.014615 0
16.740000 -0.001495 0
16.745000 0.010310 0
16.750000 0.022406 0
16.755000 0.035560 0
16.760000 0.050095 0
16.765000 0.066136 0
16.770000 0.083712 0
16.775000 0.102797 0
16.780000 0.123317 0
16.785000 0.145153 0
16.790000 0.168138 0
16.795000 0.192055 0
16.800000 0.216639 0
16.805000 0.241582 0
16.810000 0.266531 0
16.815000 0.291104 0
16.820000 0.314891 0
16.825000 0.337469 0
16.830000 0.358413 0
16.835000 0.377308 0
16.840000 0.393763 0
16.845000 0.407426 0
16.850000 0.417990 0
16.855000 0.425211 0
16.860000 0.428915 0
16.865000 0.429001 5
16.870000 0.425450 0
16.875000 0.418322 0
16.880000 0.407756 0
16.885000 0.393966 0
16.890000 0.377231 0
16.895000 0.357887 0
16.900000 0.336317 0
16.905000 0.312932 0
16.910000 0.288167 0
16.915000 0.262460 0
16.920000 0.236240 0
16.925000 0.209922 0
16.930000 0.183886 0
16.935000 0.158479 0
16.940000 0.134002 0
16.945000 0.110706 0
16.950000 0.088795 0
16.955000 0.068419 0
16.960000 0.049681 0
16.965000 0.032636 0
16.970000 0.017300 0
16.975000 0.003649 0
16.980000 -0.008370 0
16.985000 -0.018835 0
16.990000 -0.027842 0
16.995000 -0.035503 0
17.000000 -0.041937 0
17.005000 -0.047266 0
17.010000 -0.051613 0
17.015000 -0.055097 0
17.020000 -0.057831 0
17.025000 -0.059921 0
17.030000 -0.061462 0
17.035000 -0.062543 0
17.040000 -0.063239 0
17.045000 -0.063619 0
17.050000 -0.063741 0
17.055000 -0.063655 0
17.060000 -0.063403 0
17.065000 -0.063019 0
17.070000 -0.062532 0
17.075000 -0.061929 0
17.080000 -0.061111 0
17.085000 -0.060298 0
17.090000 -0.059489 0
17.095000 -0.058684 0
17.100000 -0.057884 0
17.105000 -0.057087 0
17.110000 -0.056294 0
17.115000 -0.055505 0
17.120000 -0.054720 0
17.125000 -0.053938 0
17.130000 -0.053161 0
17.135000 -0.052388 0
17.140000 -0.051618 0
17.145000 -0.050852 0
17.150000 -0.050090 0
17.155000 -0.049332 0
17.160000 -0.048577 0
17.165000 -0.047826 0
17.170000 -0.047078 0
17.175000 -0.046332 0
17.180000 -0.045587 0
17.185000 -0.044842 0
17.190000 -0.044094 0
17.195000 -0.043336 0
17.200000 -0.042562 0
17.205000 -0.041759 0
17.210000 -0.040908 0
17.215000 -0.039979 0
17.220000 -0.038932 0
17.225000 -0.037708 0
17.230000 -0.036227 0
17.235000 -0.034379 0
17.240000 -0.032026 0
17.245000 -0.028993 0
17.250000 -0.025065 0
17.255000 -0.019996 0
17.260000 -0.013511 0
17.265000 -0.005319 0
17.270000 0.004865 0
17.275000 0.017291 0
17.280000 0.032146 0
17.285000 0.049512 0
17.290000 0.069335 0
17.295000 0.091386 0
17.300000 0.115248 0
17.305000 0.140298 0
17.310000 0.165731 0
17.315000 0.190584 0
17.320000 0.213796 0
17.325000 0.234276 0
17.330000 0.250991 0
17.335000 0.263046 0
17.340000 0.269767 0
17.345000 0.270761 1
17.350000 0.265952 0
17.355000 0.255594 0
17.360000 0.240242 0
17.365000 0.220707 0
17.370000 0.197982 0
17.375000 0.173160 0
17.380000 0.147345 0
17.385000 0.121572 0
17.390000 0.096736 0
17.395000 0.073519 0
17.400000 0.052310 0
17.405000 0.033056 0
17.410000 0.015035 0
17.415000 -0.003418 0
17.420000 -0.024977 0
17.425000 -0.052768 0
17.430000 -0.088790 0
17.435000 -0.131526 0
17.440000 -0.173853 0
17.445000 -0.202722 2
17.450000 -0.201164 0
17.455000 -0.151641 0
17.460000 -0.039546 0
17.465000 0.142627 0
17.470000 0.388650 0
17.475000 0.670568 0
17.480000 0.936119 0
17.485000 1.119836 0
17.490000 1.167721 3
17.495000 1.063974 0
17.500000 0.836154 0
17.505000 0.541232 0
17.510000 0.241749 0
17.515000 -0.014347 0
17.520000 -0.200847 0
17.525000 -0.310307 0
17.530000 -0.348589 4
17.535000 -0.330875 0
17.540000 -0.278091 0
17.545000 -0.211945 0
17.550000 -0.149521 0
17.555000 -0.100038 0
17.560000 -0.065176 0
17.565000 -0.041935 0
17.570000 -0.025869 0
17.575000 -0.013165 0
17.580000 -0.001328 0
17.585000 0.010995 0
17.590000 0.024438 0
17.595000 0.039271 0
17.600000 0.055594 0
17.605000 0.073425 0
17.610000 0.092733 0
17.615000 0.113443 0
17.620000 0.135435 0
17.625000 0.158541 0
17.630000 0.182551 0
17.635000 0.207204 0
17.640000 0.232199 0
17.645000 0.257196 0
17.650000 0.281822 0
17.655000 0.305682 0
17.660000 0.328365 0
17.665000 0.349461 0
17.670000 0.368565 0
17.675000 0.385297 0
17.680000 0.399311 0
17.685000 0.410306 0
17.690000 0.418037 0
17.695000 0.422325 0
17.700000 0.423062 5
17.705000 0.420216 0
17.710000 0.413831 0
17.715000 0.404027 0
17.720000 0.390996 0
17.725000 0.374996 0
17.730000 0.356339 0
17.735000 0.335386 0
17.740000 0.312529 0
17.745000 0.288184 0
17.750000 0.262776 0
17.755000 0.236726 0
17.760000 0.210441 0
17.765000 0.184304 0
17.770000 0.158662 0
17.775000 0.133825 0
17.780000 0.110057 0
17.785000 0.087575 0
17.790000 0.066545 0
17.795000 0.047089 0
17.800000 0.029281 0
17.805000 0.013153 0
17.810000 -0.001299 0
17.815000 -0.014113 0
17.820000 -0.025352 0
17.825000 -0.035101 0
17.830000 -0.043461 0
17.835000 -0.050544 0
17.840000 -0.056467 0
17.845000 -0.061349 0
17.850000 -0.065308 0
17.855000 -0.068458 0
17.860000 -0.070905 0
17.865000 -0.072750 0
17.870000 -0.074083 0
17.875000 -0.074985 0
17.880000 -0.075529 0
17.885000 -0.075778 0
17.890000 -0.075786 0
17.895000 -0.075600 0
17.900000 -0.075258 0
17.905000 -0.074792 0
17.910000 -0.074231 0
17.915000 -0.073398 0
17.920000 -0.072524 0
17.925000 -0.071654 0
17.930000 -0.070789 0
17.935000 -0.069927 0
17.940000 -0.069070 0
17.945000 -0.068218 0
17.950000 -0.067369 0
17.955000 -0.066525 0
17.960000 -0.065685 0
17.965000 -0.064849 0
17.970000 -0.064017 0
17.975000 -0.063190 0
17.980000 -0.062366 0
17.985000 -0.061547 0
17.990000 -0.060732 0
17.995000 -0.059920 0
18.000000 -0.059113 0
18.005000 -0.058309 0
18.010000 -0.057509 0
18.015000 -0.056711 0
18.020000 -0.055915 0
18.025000 -0.055119 0
18.030000 -0.054321 0
18.035000 -0.053516 0
18.040000 -0.052697 0
18.045000 -0.051853 0
18.050000 -0.050967 0
18.055000 -0.050015 0
18.060000 -0.048959 0
18.065000 -0.047749 0
18.070000 -0.046313 0
18.075000 -0.044556 0
18.080000 -0.042353 0
18.085000 -0.039548 0
18.090000 -0.035947 0
18.095000 -0.031322 0
18.100000 -0.025417 0
18.105000 -0.017955 0
18.110000 -0.008654 0
18.115000 0.002747 0
18.120000 0.016462 0
18.125000 0.032623 0
18.130000 0.051248 0
18.135000 0.072204 0
18.140000 0.095185 0
18.145000 0.119695 0
18.150000 0.145050 0
18.155000 0.170397 0
18.160000 0.194758 0
18.165000 0.217084 0
18.170000 0.236328 0
18.175000 0.251528 0
18.180000 0.261886 0
18.185000 0.266832 1
18.190000 0.266081 0
18.195000 0.259658 0
18.200000 0.247896 0
18.205000 0.231407 0
18.210000 0.211031 0
18.215000 0.187760 0
18.220000 0.162664 0
18.225000 0.136806 0
18.230000 0.111168 0
18.235000 0.086586 0
18.240000 0.063681 0
18.245000 0.042778 0
18.250000 0.023756 0
18.255000 0.005823 0
18.260000 -0.012734 0
18.265000 -0.034580 0
18.270000 -0.062736 0
18.275000 -0.099028 0
18.280000 -0.141818 0
18.285000 -0.184072 0
18.290000 -0.213102 2
18.295000 -0.212472 0
18.300000 -0.165151 0
18.305000 -0.056790 0
18.310000 0.120427 0
18.315000 0.361708 0
18.320000 0.642038 0
18.325000 0.912918 0
18.330000 1.111265 0
18.335000 1.181582 3
18.340000 1.099157 0
18.345000 0.884677 0
18.350000 0.594133 0
18.355000 0.292594 0
18.360000 0.031552 0
18.365000 -0.160102 0
18.370000 -0.273554 0
18.375000 -0.314255 4
18.380000 -0.297584 0
18.385000 -0.245050 0
18.390000 -0.179039 0
18.395000 -0.117075 0
18.400000 -0.068422 0
18.405000 -0.034533 0
18.410000 -0.012145 0
18.415000 0.003328 0
18.420000 0.015704 0
18.425000 0.027412 0
18.430000 0.039732 0
18.435000 0.053250 0
18.440000 0.068206 0
18.445000 0.084685 0
18.450000 0.102696 0
18.455000 0.122198 0
18.460000 0.143101 0
18.465000 0.165272 0
18.470000 0.188526 0
18.475000 0.212632 0
18.480000 0.237308 0
18.485000 0.262231 0
18.490000 0.287038 0
18.495000 0.311337 0
18.500000 0.334711 0
18.505000 0.356736 0
18.510000 0.376988 0
18.515000 0.395059 0
18.520000 0.410569 0
18.525000 0.423179 0
18.530000 0.432603 0
18.535000 0.438618 0
18.540000 0.441074 5
18.545000 0.439896 0
18.550000 0.435091 0
18.555000 0.426747 0
18.560000 0.415028 0
18.565000 0.400170 0
18.570000 0.382473 0
18.575000 0.362289 0
18.580000 0.340012 0
18.585000 0.316065 0
18.590000 0.290882 0
18.595000 0.264901 0
18.600000 0.238549 0
18.605000 0.212228 0
18.610000 0.186311 0
18.615000 0.161128 0
18.620000 0.136964 0
18.625000 0.114056 0
18.630000 0.092588 0
18.635000 0.072696 0
18.640000 0.054466 0
18.645000 0.037939 0
18.650000 0.023117 0
18.655000 0.009966 0
18.660000 -0.001575 0
18.665000 -0.011592 0
18.670000 -0.020188 0
18.675000 -0.027476 0
18.680000 -0.033578 0
18.685000 -0.038616 0
18.690000 -0.042711 0
18.695000 -0.045982 0
18.700000 -0.048538 0
18.705000 -0.050484 0
18.710000 -0.051911 0
18.715000 -0.052904 0
18.720000 -0.053536 0
18.725000 -0.053873 0
18.730000 -0.053968 0
18.735000 -0.053871 0
18.740000 -0.053619 0
18.745000 -0.053245 0
18.750000 -0.052777 0
18.755000 -0.052050 0
18.760000 -0.051282 0
18.765000 -0.050518 0
18.770000 -0.049757 0
18.775000 -0.049001 0
18.780000 -0.048248 0
18.785000 -0.047500 0
18.790000 -0.046754 0
18.795000 -0.046013 0
18.800000 -0.045275 0
18.805000 -0.044541 0
18.810000 -0.043811 0
18.815000 -0.043084 0
18.820000 -0.042361 0
18.825000 -0.041641 0
18.830000 -0.040925 0
18.835000 -0.040213 0
18.840000 -0.039503 0
18.845000 -0.038797 0
18.850000 -0.038093 0
18.855000 -0.037392 0
18.860000 -0.036690 0
18.865000 -0.035988 0
18.870000 -0.035280 0
18.875000 -0.034560 0
18.880000 -0.033821 0
18.885000 -0.033046 0
18.890000 -0.032214 0
18.895000 -0.031292 0
18.900000 -0.030234 0
18.905000 -0.028973 0
18.910000 -0.027421 0
18.915000 -0.025460 0
18.920000 -0.022936 0
18.925000 -0.019662 0
18.930000 -0.015414 0
18.935000 -0.009931 0
18.940000 -0.002933 0
18.945000 0.005872 0
18.950000 0.016760 0
18.955000 0.029965 0
18.960000 0.045641 0
18.965000 0.063827 0
18.970000 0.084413 0
18.975000 0.107107 0
18.980000 0.131419 0
18.985000 0.156663 0
18.990000 0.181973 0
18.995000 0.206345 0
19.000000 0.228699 0
19.005000 0.247955 0
19.010000 0.263115 0
19.015000 0.273354 0
19.020000 0.278088 1
19.025000 0.277031 0
19.030000 0.270222 0
19.035000 0.258022 0
19.040000 0.241083 0
19.045000 0.220288 0
19.050000 0.196675 0
19.055000 0.171350 0
19.060000 0.145403 0
19.065000 0.119828 0
19.070000 0.095454 0
19.075000 0.072875 0
19.080000 0.052344 0
19.085000 0.033609 0
19.090000 0.015646 0
19.095000 -0.003574 0
19.100000 -0.026995 0
19.105000 -0.057585 0
19.110000 -0.096405 0
19.115000 -0.140160 0
19.120000 -0.179573 0
19.125000 -0.199894 2
19.130000 -0.183547 0
19.135000 -0.113615 0
19.140000 0.022602 0
19.145000 0.228715 0
19.150000 0.491727 0
19.155000 0.774905 0
19.160000 1.019258 0
19.165000 1.160095 3
19.170000 1.152969 0
19.175000 0.996591 0
19.180000 0.733740 0
19.185000 0.429718 0
19.190000 0.145392 0
19.195000 -0.079190 0
19.200000 -0.226682 0
19.205000 -0.296972 0
19.210000 -0.301856 4
19.215000 -0.261177 0
19.220000 -0.198092 0
19.225000 -0.133016 0
19.230000 -0.078809 0
19.235000 -0.039697 0
19.240000 -0.013705 0
19.245000 0.003675 0
19.250000 0.016745 0
19.255000 0.028461 0
19.260000 0.040470 0
19.265000 0.053551 0
19.270000 0.068031 0
19.275000 0.084033 0
19.280000 0.101586 0
19.285000 0.120660 0
19.290000 0.141179 0
19.295000 0.163018 0
19.300000 0.186004 0
19.305000 0.209911 0
19.310000 0.234468 0
19.315000 0.259352 0
19.320000 0.284204 0
19.325000 0.308628 0
19.330000 0.332206 0
19.335000 0.354505 0
19.340000 0.375093 0
19.345000 0.393550 0
19.350000 0.409484 0
19.355000 0.422541 0
19.360000 0.432421 0
19.365000 0.438888 0
19.370000 0.441778 5
19.375000 0.441005 0
19.380000 0.436569 0
19.385000 0.428547 0
19.390000 0.417102 0
19.395000 0.402467 0
19.400000 0.384942 0
19.405000 0.364885 0
19.410000 0.342692 0
19.415000 0.318792 0
19.420000 0.293630 0
19.425000 0.267651 0
19.430000 0.241289 0
19.435000 0.214955 0
19.440000 0.189027 0
19.445000 0.163843 0
19.450000 0.139692 0
19.455000 0.116813 0
19.460000 0.095394 0
19.465000 0.075569 0
19.470000 0.057423 0
19.475000 0.040998 0
19.480000 0.026290 0
19.485000 0.013265 0
19.490000 0.001856 0
19.495000 -0.008026 0
19.500000 -0.016485 0
19.505000 -0.023640 0
19.510000 -0.029614 0
19.515000 -0.034531 0
19.520000 -0.038516 0
19.525000 -0.041687 0
19.530000 -0.044155 0
19.535000 -0.046023 0
19.540000 -0.047385 0
19.545000 -0.048324 0
19.550000 -0.048913 0
19.555000 -0.049216 0
19.560000 -0.049288 0
19.565000 -0.049173 0
19.570000 -0.048912 0
19.575000 -0.048535 0
19.580000 -0.048027 0
19.585000 -0.047280 0
19.590000 -0.046536 0
19.595000 -0.045795 0
19.600000 -0.045059 0
19.605000 -0.044326 0
19.610000 -0.043596 0
19.615000 -0.042871 0
19.620000 -0.042149 0
19.625000 -0.041430 0
19.630000 -0.040715 0
19.635000 -0.040004 0
19.640000 -0.039296 0
19.645000 -0.038592 0
19.650000 -0.037891 0
19.655000 -0.037194 0
19.660000 -0.036500 0
19.665000 -0.035809 0
19.670000 -0.035122 0
19.675000 -0.034437 0
19.680000 -0.033754 0
19.685000 -0.033073 0
19.690000 -0.032392 0
19.695000 -0.031707 0
19.700000 -0.031014 0
19.705000 -0.030305 0
19.710000 -0.029570 0
19.715000 -0.028788 0
19.720000 -0.027933 0
19.725000 -0.026965 0
19.730000 -0.025826 0
19.735000 -0.024436 0
19.740000 -0.022690 0
19.745000 -0.020449 0
19.750000 -0.017536 0
19.755000 -0.013738 0
19.760000 -0.008805 0
19.765000 -0.002458 0
19.770000 0.005598 0
19.775000 0.015654 0
19.780000 0.027968 0
19.785000 0.042732 0
19.790000 0.060031 0
19.795000 0.079810 0
19.800000 0.101837 0
19.805000 0.125682 0
19.810000 0.150709 0
19.815000 0.176091 0
19.820000 0.200841 0
19.825000 0.223875 0
19.830000 0.244084 0
19.835000 0.260420 0
19.840000 0.271989 0
19.845000 0.278126 0
19.850000 0.278459 1
19.855000 0.272949 0
19.860000 0.261890 0
19.865000 0.245884 0
19.870000 0.225785 0
19.875000 0.202625 0
19.880000 0.177525 0
19.885000 0.151604 0
19.890000 0.125896 0
19.895000 0.101278 0
19.900000 0.078398 0
19.905000 0.057573 0
19.910000 0.038630 0
19.915000 0.020645 0
19.920000 0.001679 0
19.925000 -0.021189 0
19.930000 -0.051045 0
19.935000 -0.089249 0
19.940000 -0.132894 0
19.945000 -0.172995 0
19.950000 -0.194831 2
19.955000 -0.180576 0
19.960000 -0.112899 0
19.965000 0.021360 0
19.970000 0.226211 0
19.975000 0.488794 0
19.980000 0.771941 0
19.985000 1.015614 0
19.990000 1.154057 3
19.995000 1.144943 0
20.000000 0.988474 0
20.005000 0.726487 0
20.010000 0.422684 0
20.015000 0.136850 0
20.020000 -0.091101 0
20.025000 -0.243302 0
20.030000 -0.318810 0
20.035000 -0.328435 4
20.040000 -0.291039 0
20.045000 -0.229174 0
20.050000 -0.163345 0
20.055000 -0.107141 0
20.060000 -0.065729 0
20.065000 -0.037832 0
20.070000 -0.019215 0
20.075000 -0.005524 0
20.080000 0.006390 0
20.085000 0.018350 0
20.090000 0.031252 0
20.095000 0.045486 0
20.100000 0.061205 0
20.105000 0.078453 0
20.110000 0.097214 0
20.115000 0.117426 0
20.120000 0.138981 0
20.125000 0.161724 0
20.130000 0.185450 0
20.135000 0.209908 0
20.140000 0.234799 0
20.145000 0.259785 0
20.150000 0.284490 0
20.155000 0.308515 0
20.160000 0.331440 0
20.165000 0.352842 0
20.170000 0.372306 0
20.175000 0.389435 0
20.180000 0.403867 0
20.185000 0.415286 0
20.190000 0.423431 0
20.195000 0.428109 0
20.200000 0.429199 5
20.205000 0.426661 0
20.210000 0.420532 0
20.215000 0.410928 0
20.220000 0.398042 0
20.225000 0.382133 0
20.230000 0.363520 0
20.235000 0.342571 0
20.240000 0.319689 0
20.245000 0.295298 0
20.250000 0.269836 0
20.255000 0.243733 0
20.260000 0.217406 0
20.265000 0.191246 0
20.270000 0.165608 0
20.275000 0.140807 0
20.280000 0.117108 0
20.285000 0.094730 0
20.290000 0.073839 0
20.295000 0.054552 0
20.300000 0.036940 0
20.305000 0.021030 0
20.310000 0.006813 0
20.315000 -0.005755 0
20.320000 -0.016745 0
20.325000 -0.026245 0
20.330000 -0.034364 0
20.335000 -0.041215 0
20.340000 -0.046922 0
20.345000 -0.051605 0
20.350000 -0.055384 0
20.355000 -0.058376 0
20.360000 -0.060686 0
20.365000 -0.062415 0
20.370000 -0.063653 0
20.375000 -0.064481 0
20.380000 -0.064968 0
20.385000 -0.065177 0
20.390000 -0.065159 0
20.395000 -0.064961 0
20.400000 -0.064618 0
20.405000 -0.064162 0
20.410000 -0.063618 0
20.415000 -0.062833 0
20.420000 -0.062011 0
20.425000 -0.061194 0
20.430000 -0.060380 0
20.435000 -0.059571 0
20.440000 -0.058766 0
20.445000 -0.057964 0
20.450000 -0.057167 0
20.455000 -0.056374 0
20.460000 -0.055584 0
20.465000 -0.054799 0
20.470000 -0.054017 0
20.475000 -0.053239 0
20.480000 -0.052466 0
20.485000 -0.051696 0
20.490000 -0.050929 0
20.495000 -0.050167 0
20.500000 -0.049408 0
20.505000 -0.048652 0
20.510000 -0.047899 0
20.515000 -0.047148 0
20.520000 -0.046397 0
20.525000 -0.045645 0
20.530000 -0.044887 0
20.535000 -0.044116 0
20.540000 -0.043323 0
20.545000 -0.042492 0
20.550000 -0.041599 0
20.555000 -0.040611 0
20.560000 -0.039477 0
20.565000 -0.038130 0
20.570000 -0.036475 0
20.575000 -0.034391 0
20.580000 -0.031721 0
20.585000 -0.028272 0
20.590000 -0.023815 0
20.595000 -0.018090 0
20.600000 -0.010814 0
20.605000 -0.001698 0
20.610000 0.009528 0
20.615000 0.023089 0
20.620000 0.039125 0
20.625000 0.057658 0
20.630000 0.078557 0
20.635000 0.101510 0
20.640000 0.126007 0
20.645000 0.151345 0
20.650000 0.176645 0
20.655000 0.200899 0
20.660000 0.223029 0
20.665000 0.241966 0
20.670000 0.256734 0
20.675000 0.266531 0
20.680000 0.270801 1
20.685000 0.269290 0
20.690000 0.262062 0
20.695000 0.249502 0
20.700000 0.232278 0
20.705000 0.211282 0
20.710000 0.187553 0
20.715000 0.162191 0
20.720000 0.136277 0
20.725000 0.110790 0
20.730000 0.086541 0
20.735000 0.064105 0
20.740000 0.043713 0
20.745000 0.025081 0
20.750000 0.007153 0
20.755000 -0.012134 0
20.760000 -0.035731 0
20.765000 -0.066558 0
20.770000 -0.105565 0
20.775000 -0.149315 0
20.780000 -0.188425 0
20.785000 -0.208130 2
20.790000 -0.190942 0
20.795000 -0.120092 0
20.800000 0.016951 0
20.805000 0.223640 0
20.810000 0.486902 0
20.815000 0.770111 0
20.820000 1.014611 0
20.825000 1.156089 3
20.830000 1.151106 0
20.835000 0.998113 0
20.840000 0.738069 0
20.845000 0.434507 0
20.850000 0.147625 0
20.855000 -0.082055 0
20.860000 -0.236158 0
20.865000 -0.313404 0
20.870000 -0.324380 4
20.875000 -0.287822 0
20.880000 -0.226280 0
20.885000 -0.160385 0
20.890000 -0.103918 0
20.895000 -0.062218 0
20.900000 -0.034106 0
20.905000 -0.015372 0
20.910000 -0.001641 0
20.915000 0.010266 0
20.920000 0.022194 0
20.925000 0.035055 0
20.930000 0.049244 0
20.935000 0.064917 0
20.940000 0.082120 0
20.945000 0.100837 0
20.950000 0.121008 0
20.955000 0.142525 0
20.960000 0.165232 0
20.965000 0.188927 0
20.970000 0.213358 0
20.975000 0.238227 0
20.980000 0.263195 0
20.985000 0.287888 0
20.990000 0.311904 0
20.995000 0.334825 0
21.000000 0.356228 0
21.005000 0.375696 0
21.010000 0.392832 0
21.015000 0.407274 0
21.020000 0.418703 0
21.025000 0.426859 0
21.030000 0.431547 0
21.035000 0.432648 5
21.040000 0.430117 0
21.045000 0.423994 0
21.050000 0.414394 0
21.055000 0.401508 0
21.060000 0.385597 0
21.065000 0.366980 0
21.070000 0.346023 0
21.075000 0.323130 0
21.080000 0.298727 0
21.085000 0.273250 0
21.090000 0.247131 0
21.095000 0.220787 0
21.100000 0.194610 0
21.105000 0.168955 0
21.110000 0.144137 0
21.115000 0.120422 0
21.120000 0.098028 0
21.125000 0.077121 0
21.130000 0.057820 0
21.135000 0.040195 0
21.140000 0.024273 0
21.145000 0.010045 0
21.150000 -0.002535 0
21.155000 -0.013534 0
21.160000 -0.023045 0
21.165000 -0.031173 0
21.170000 -0.038035 0
21.175000 -0.043751 0
21.180000 -0.048444 0
21.185000 -0.052234 0
21.190000 -0.055236 0
21.195000 -0.057557 0
21.200000 -0.059298 0
21.205000 -0.060548 0
21.210000 -0.061387 0
21.215000 -0.061887 0
21.220000 -0.062108 0
21.225000 -0.062104 0
21.230000 -0.061919 0
21.235000 -0.061590 0
21.240000 -0.061148 0
21.245000 -0.060577 0
21.250000 -0.059766 0
21.255000 -0.058960 0
21.260000 -0.058158 0
21.265000 -0.057359 0
21.270000 -0.056565 0
21.275000 -0.055775 0
21.280000 -0.054988 0
21.285000 -0.054206 0
21.290000 -0.053427 0
21.295000 -0.052652 0
21.300000 -0.051882 0
21.305000 -0.051115 0
21.310000 -0.050351 0
21.315000 -0.049592 0
21.320000 -0.048836 0
21.325000 -0.048084 0
21.330000 -0.047336 0
21.335000 -0.046591 0
21.340000 -0.045849 0
21.345000 -0.045110 0
21.350000 -0.044373 0
21.355000 -0.043636 0
21.360000 -0.042897 0
21.365000 -0.042152 0
21.370000 -0.041395 0
21.375000 -0.040615 0
21.380000 -0.039796 0
21.385000 -0.038915 0
21.390000 -0.037937 0
21.395000 -0.036811 0
21.400000 -0.035470 0
21.405000 -0.033818 0
21.410000 -0.031733 0
21.415000 -0.029057 0
21.420000 -0.025595 0
21.425000 -0.021118 0
21.430000 -0.015364 0
21.435000 -0.008049 0
21.440000 0.001116 0
21.445000 0.012400 0
21.450000 0.026025 0
21.455000 0.042129 0
21.460000 0.060730 0
21.465000 0.081691 0
21.470000 0.104693 0
21.475000 0.129219 0
21.480000 0.154559 0
21.485000 0.179829 0
21.490000 0.204014 0
21.495000 0.226037 0
21.500000 0.244828 0
21.505000 0.259414 0
21.510000 0.269002 0
21.515000 0.273046 1
21.520000 0.271302 0
21.525000 0.263847 0
21.530000 0.251080 0
21.535000 0.233677 0
21.540000 0.212540 0
21.545000 0.188712 0
21.550000 0.163297 0
21.555000 0.137371 0
21.560000 0.111909 0
21.565000 0.087717 0
21.570000 0.065356 0
21.575000 0.045040 0
21.580000 0.026457 0
21.585000 0.008509 0
21.590000 -0.010914 0
21.595000 -0.034792 0
21.600000 -0.066008 0
21.605000 -0.105364 0
21.610000 -0.149164 0
21.615000 -0.187734 0
21.620000 -0.206096 2
21.625000 -0.186701 0
21.630000 -0.112885 0
21.635000 0.027585 0
21.640000 0.237545 0
21.645000 0.502875 0
21.650000 0.785665 0
21.655000 1.026400 0
21.660000 1.161103 3
21.665000 1.147959 0
21.670000 0.987608 0
21.675000 0.723173 0
21.680000 0.419046 0
21.685000 0.134888 0
21.690000 -0.090029 0
21.695000 -0.238574 0
21.700000 -0.310453 0
21.705000 -0.317044 4
21.710000 -0.277669 0
21.715000 -0.215077 0
21.720000 -0.149604 0
21.725000 -0.094388 0
21.730000 -0.054094 0
21.735000 -0.027106 0
21.740000 -0.009070 0
21.745000 0.004332 0
21.750000 0.016151 0
21.755000 0.028125 0
21.760000 0.041098 0
21.765000 0.055429 0
21.770000 0.071259 0
21.775000 0.088624 0
21.780000 0.107504 0
21.785000 0.127831 0
21.790000 0.149491 0
21.795000 0.172323 0
21.800000 0.196114 0
21.805000 0.220605 0
21.810000 0.245490 0
21.815000 0.270424 0
21.820000 0.295025 0
21.825000 0.318885 0
21.830000 0.341583 0
21.835000 0.362692 0
21.840000 0.381796 0
21.845000 0.398499 0
21.850000 0.412444 0
21.855000 0.423319 0
21.860000 0.430872 0
21.865000 0.434921 0
21.870000 0.435358 5
21.875000 0.432154 0
21.880000 0.425361 0
21.885000 0.415111 0
21.890000 0.401610 0
21.895000 0.385131 0
21.900000 0.366006 0
21.905000 0.344612 0
21.910000 0.321361 0
21.915000 0.296685 0
21.920000 0.271021 0
21.925000 0.244804 0
21.930000 0.218448 0
21.935000 0.192339 0
21.940000 0.166827 0
21.945000 0.142218 0
21.950000 0.118769 0
21.955000 0.096688 0
21.960000 0.076131 0
21.965000 0.057205 0
21.970000 0.039970 0
21.975000 0.024445 0
21.980000 0.010609 0
21.985000 -0.001587 0
21.990000 -0.012220 0
21.995000 -0.021385 0
22.000000 -0.029193 0
22.005000 -0.035762 0
22.010000 -0.041214 0
22.015000 -0.045672 0
22.020000 -0.049257 0
22.025000 -0.052081 0
22.030000 -0.054250 0
22.035000 -0.055864 0
22.040000 -0.057009 0
22.045000 -0.057763 0
22.050000 -0.058195 0
22.055000 -0.058364 0
22.060000 -0.058321 0
22.065000 -0.058107 0
22.070000 -0.057760 0
22.075000 -0.057307 0
22.080000 -0.056735 0
22.085000 -0.055944 0
22.090000 -0.055157 0
22.095000 -0.054373 0
22.100000 -0.053594 0
22.105000 -0.052818 0
22.110000 -0.052047 0
22.115000 -0.051279 0
22.120000 -0.050515 0
22.125000 -0.049755 0
22.130000 -0.048998 0
22.135000 -0.048245 0
22.140000 -0.047497 0
22.145000 -0.046751 0
22.150000 -0.046010 0
22.155000 -0.045272 0
22.160000 -0.044538 0
22.165000 -0.043807 0
22.170000 -0.043080 0
22.175000 -0.042355 0
22.180000 -0.041633 0
22.185000 -0.040912 0
22.190000 -0.040191 0
22.195000 -0.039466 0
22.200000 -0.038733 0
22.205000 -0.037984 0
22.210000 -0.037206 0
22.215000 -0.036382 0
22.220000 -0.035482 0
22.225000 -0.034468 0
22.230000 -0.033281 0
22.235000 -0.031842 0
22.240000 -0.030045 0
22.245000 -0.027753 0
22.250000 -0.024792 0
22.255000 -0.020952 0
22.260000 -0.015987 0
22.265000 -0.009623 0
22.270000 -0.001569 0
22.275000 0.008459 0
22.280000 0.020718 0
22.285000 0.035397 0
22.290000 0.052588 0
22.295000 0.072245 0
22.300000 0.094151 0
22.305000 0.117898 0
22.310000 0.142879 0
22.315000 0.168294 0
22.320000 0.193189 0
22.325000 0.216505 0
22.330000 0.237151 0
22.335000 0.254086 0
22.340000 0.266404 0
22.345000 0.273416 0
22.350000 0.274712 1
22.355000 0.270198 0
22.360000 0.260110 0
22.365000 0.244988 0
22.370000 0.225632 0
22.375000 0.203030 0
22.380000 0.178270 0
22.385000 0.152461 0
22.390000 0.126645 0
22.395000 0.101724 0
22.400000 0.078395 0
22.405000 0.057065 0
22.410000 0.037706 0
22.415000 0.019636 0
22.420000 0.001239 0
22.425000 -0.020120 0
22.430000 -0.047575 0
22.435000 -0.083230 0
22.440000 -0.125784 0
22.445000 -0.168390 0
22.450000 -0.198228 0
22.455000 -0.198417 2
22.460000 -0.151356 0
22.465000 -0.042216 0
22.470000 0.136938 0
22.475000 0.380632 0
22.480000 0.661924 0
22.485000 0.929407 0
22.490000 1.117670 0
22.495000 1.171645 3
22.500000 1.072647 0
22.505000 0.847386 0
22.510000 0.553119 0
22.515000 0.253372 0
22.520000 -0.002994 0
22.525000 -0.189297 0
22.530000 -0.298023 0
22.535000 -0.335228 4
22.540000 -0.316446 0
22.545000 -0.262982 0
22.550000 -0.196778 0
22.555000 -0.134884 0
22.560000 -0.086263 0
22.565000 -0.052282 0
22.570000 -0.029726 0
22.575000 -0.014084 0
22.580000 -0.001581 0
22.585000 0.010207 0
22.590000 0.022567 0
22.595000 0.036097 0
22.600000 0.051044 0
22.605000 0.067496 0
22.610000 0.085468 0
22.615000 0.104922 0
22.620000 0.125773 0
22.625000 0.147896 0
22.630000 0.171113 0
22.635000 0.195202 0
22.640000 0.219893 0
22.645000 0.244873 0
22.650000 0.269790 0
22.655000 0.294261 0
22.660000 0.317882 0
22.665000 0.340235 0
22.670000 0.360903 0
22.675000 0.379480 0
22.680000 0.395588 0
22.685000 0.408884 0
22.690000 0.419076 0
22.695000 0.425930 0
22.700000 0.429282 5
22.705000 0.429042 0
22.710000 0.425196 0
22.715000 0.417813 0
22.720000 0.407033 0
22.725000 0.393071 0
22.730000 0.376206 0
22.735000 0.356771 0
22.740000 0.335141 0
22.745000 0.311725 0
22.750000 0.286949 0
22.755000 0.261243 0
22.760000 0.235031 0
22.765000 0.208719 0
22.770000 0.182682 0
22.775000 0.157262 0
22.780000 0.132755 0
22.785000 0.109412 0
22.790000 0.087434 0
22.795000 0.066971 0
22.800000 0.048128 0
22.805000 0.030962 0
22.810000 0.015491 0
22.815000 0.001695 0
22.820000 -0.010476 0
22.825000 -0.021095 0
22.830000 -0.030257 0
22.835000 -0.038070 0
22.840000 -0.044650 0
22.845000 -0.050116 0
22.850000 -0.054590 0
22.855000 -0.058190 0
22.860000 -0.061027 0
22.865000 -0.063208 0
22.870000 -0.064828 0
22.875000 -0.065975 0
22.880000 -0.066727 0
22.885000 -0.067152 0
22.890000 -0.067309 0
22.895000 -0.067250 0
22.900000 -0.067016 0
22.905000 -0.066644 0
22.910000 -0.066164 0
22.915000 -0.065559 0
22.920000 -0.064724 0
22.925000 -0.063893 0
22.930000 -0.063066 0
22.935000 -0.062243 0
22.940000 -0.061425 0
22.945000 -0.060610 0
22.950000 -0.059799 0
22.955000 -0.058993 0
22.960000 -0.058190 0
22.965000 -0.057392 0
22.970000 -0.056597 0
22.975000 -0.055807 0
22.980000 -0.055020 0
22.985000 -0.054238 0
22.990000 -0.053459 0
22.995000 -0.052684 0
23.000000 -0.051912 0
23.005000 -0.051145 0
23.010000 -0.050380 0
23.015000 -0.049619 0
23.020000 -0.048859 0
23.025000 -0.048100 0
23.030000 -0.047339 0
23.035000 -0.046572 0
23.040000 -0.045793 0
23.045000 -0.044991 0
23.050000 -0.044153 0
23.055000 -0.043253 0
23.060000 -0.042259 0
23.065000 -0.041122 0
23.070000 -0.039774 0
23.075000 -0.038125 0
23.080000 -0.036054 0
23.085000 -0.033407 0
23.090000 -0.029998 0
23.095000 -0.025599 0
23.100000 -0.019956 0
23.105000 -0.012790 0
23.110000 -0.003814 0
23.115000 0.007241 0
23.120000 0.020601 0
23.125000 0.036415 0
23.130000 0.054715 0
23.135000 0.075389 0
23.140000 0.098147 0
23.145000 0.122505 0
23.150000 0.147789 0
23.155000 0.173149 0
23.160000 0.197600 0
23.165000 0.220080 0
23.170000 0.239527 0
23.175000 0.254956 0
23.180000 0.265544 0
23.185000 0.270703 1
23.190000 0.270129 0
23.195000 0.263838 0
23.200000 0.252157 0
23.205000 0.235703 0
23.210000 0.215325 0
23.215000 0.192028 0
23.220000 0.166899 0
23.225000 0.141015 0
23.230000 0.115369 0
23.235000 0.090806 0
23.240000 0.067948 0
23.245000 0.047111 0
23.250000 0.028146 0
23.255000 0.010205 0
23.260000 -0.008509 0
23.265000 -0.030753 0
23.270000 -0.059565 0
23.275000 -0.096598 0
23.280000 -0.139763 0
23.285000 -0.181350 0
23.290000 -0.207977 2
23.295000 -0.202740 0
23.300000 -0.148516 0
23.305000 -0.031334 0
23.310000 0.155449 0
23.315000 0.404551 0
23.320000 0.687088 0
23.325000 0.950634 0
23.330000 1.130695 0
23.335000 1.174953 3
23.340000 1.067075 0
23.345000 0.834979 0
23.350000 0.538109 0
23.355000 0.240441 0
23.360000 -0.010206 0
23.365000 -0.188755 0
23.370000 -0.289204 0
23.375000 -0.318932 4
23.380000 -0.294623 0
23.385000 -0.238321 0
23.390000 -0.171948 0
23.395000 -0.111770 0
23.400000 -0.065616 0
23.405000 -0.033905 0
23.410000 -0.012948 0
23.415000 0.001810 0
23.420000 0.013964 0
23.425000 0.025726 0
23.430000 0.038231 0
23.435000 0.051989 0
23.440000 0.067206 0
23.445000 0.083950 0
23.450000 0.102222 0
23.455000 0.121972 0
23.460000 0.143105 0
23.465000 0.165478 0
23.470000 0.188901 0
23.475000 0.213132 0
23.480000 0.237887 0
23.485000 0.262833 0
23.490000 0.287604 0
23.495000 0.311802 0
23.500000 0.335012 0
23.505000 0.356806 0
23.510000 0.376765 0
23.515000 0.394483 0
23.520000 0.409586 0
23.525000 0.421744 0
23.530000 0.430678 0
23.535000 0.436178 0
23.540000 0.438104 5
23.545000 0.436394 0
23.550000 0.431068 0
23.555000 0.422223 0
23.560000 0.410037 0
23.565000 0.394753 0
23.570000 0.376681 0
23.575000 0.356179 0
23.580000 0.333646 0
23.585000 0.309506 0
23.590000 0.284195 0
23.595000 0.258149 0
23.600000 0.231792 0
23.605000 0.205522 0
23.610000 0.179705 0
23.615000 0.154666 0
23.620000 0.130682 0
23.625000 0.107983 0
23.630000 0.086745 0
23.635000 0.067097 0
23.640000 0.049118 0
23.645000 0.032844 0
23.650000 0.018272 0
23.655000 0.005363 0
23.660000 -0.005949 0
23.665000 -0.015750 0
23.670000 -0.024146 0
23.675000 -0.031251 0
23.680000 -0.037186 0
23.685000 -0.042075 0
23.690000 -0.046039 0
23.695000 -0.049193 0
23.700000 -0.051649 0
23.705000 -0.053506 0
23.710000 -0.054857 0
23.715000 -0.055784 0
23.720000 -0.056361 0
23.725000 -0.056649 0
23.730000 -0.056703 0
23.735000 -0.056570 0
23.740000 -0.056287 0
23.745000 -0.055886 0
23.750000 -0.055394 0
23.755000 -0.054652 0
23.760000 -0.053871 0
23.765000 -0.053094 0
23.770000 -0.052321 0
23.775000 -0.051552 0
23.780000 -0.050787 0
23.785000 -0.050025 0
23.790000 -0.049267 0
23.795000 -0.048513 0
23.800000 -0.047763 0
23.805000 -0.047017 0
23.810000 -0.046274 0
23.815000 -0.045535 0
23.820000 -0.044799 0
23.825000 -0.044068 0
23.830000 -0.043339 0
23.835000 -0.042615 0
23.840000 -0.041893 0
23.845000 -0.041175 0
23.850000 -0.040460 0
23.855000 -0.039746 0
23.860000 -0.039032 0
23.865000 -0.038317 0
23.870000 -0.037596 0
23.875000 -0.036863 0
23.880000 -0.036108 0
23.885000 -0.035316 0
23.890000 -0.034464 0
23.895000 -0.033518 0
23.900000 -0.032429 0
23.905000 -0.031130 0
23.910000 -0.029527 0
23.915000 -0.027500 0
23.920000 -0.024892 0
23.925000 -0.021512 0
23.930000 -0.017131 0
23.935000 -0.011487 0
23.940000 -0.004297 0
23.945000 0.004730 0
23.950000 0.015866 0
23.955000 0.029338 0
23.960000 0.045291 0
23.965000 0.063748 0
23.970000 0.084582 0
23.975000 0.107481 0
23.980000 0.131935 0
23.985000 0.157239 0
23.990000 0.182511 0
23.995000 0.206738 0
24.000000 0.228837 0
24.005000 0.247732 0
24.010000 0.262442 0
24.015000 0.272163 0
24.020000 0.276339 1
24.025000 0.274717 0
24.030000 0.267367 0
24.035000 0.254682 0
24.040000 0.237336 0
24.045000 0.216231 0
24.050000 0.192414 0
24.055000 0.166993 0
24.060000 0.141050 0
24.065000 0.115566 0
24.070000 0.091349 0
24.075000 0.068966 0
24.080000 0.048632 0
24.085000 0.030034 0
24.090000 0.012066 0
24.095000 -0.007395 0
24.100000 -0.031346 0
24.105000 -0.062672 0
24.110000 -0.102141 0
24.115000 -0.145968 0
24.120000 -0.184341 0
24.125000 -0.202147 2
24.130000 -0.181744 0
24.135000 -0.106456 0
24.140000 0.035843 0
24.145000 0.247659 0
24.150000 0.514196 0
24.155000 0.796617 0
24.160000 1.034649 0
24.165000 1.164368 3
24.170000 1.144580 0
24.175000 0.977072 0
24.180000 0.707877 0
24.185000 0.403383 0
24.190000 0.123415 0
24.195000 -0.093973 0
24.200000 -0.233310 0
24.205000 -0.295920 4
24.210000 -0.294726 0
24.215000 -0.250350 0
24.220000 -0.186111 0
24.225000 -0.121870 0
24.230000 -0.069499 0
24.235000 -0.032292 0
24.240000 -0.007731 0
24.245000 0.008820 0
24.250000 0.021541 0
24.255000 0.033210 0
24.260000 0.045327 0
24.265000 0.058590 0
24.270000 0.073286 0
24.275000 0.089520 0
24.280000 0.107308 0
24.285000 0.126614 0
24.290000 0.147354 0
24.295000 0.169393 0
24.300000 0.192547 0
24.305000 0.216582 0
24.310000 0.241213 0
24.315000 0.266109 0
24.320000 0.290901 0
24.325000 0.315184 0
24.330000 0.338533 0
24.335000 0.360512 0
24.340000 0.380686 0
24.345000 0.398637 0
24.350000 0.413977 0
24.355000 0.426360 0
24.360000 0.435497 0
24.365000 0.441166 0
24.370000 0.443218 5
24.375000 0.441586 0
24.380000 0.436288 0
24.385000 0.427423 0
24.390000 0.415171 0
24.395000 0.399786 0
24.400000 0.381585 0
24.405000 0.360937 0
24.410000 0.338255 0
24.415000 0.313974 0
24.420000 0.288544 0
24.425000 0.262410 0
24.430000 0.236007 0
24.435000 0.209739 0
24.440000 0.183977 0
24.445000 0.159048 0
24.450000 0.135229 0
24.455000 0.112746 0
24.460000 0.091773 0
24.465000 0.072430 0
24.470000 0.054789 0
24.475000 0.038878 0
24.480000 0.024684 0
24.485000 0.012159 0
24.490000 0.001231 0
24.495000 -0.008196 0
24.500000 -0.016233 0
24.505000 -0.023000 0
24.510000 -0.028623 0
24.515000 -0.033228 0
24.520000 -0.036938 0
24.525000 -0.039869 0
24.530000 -0.042132 0
24.535000 -0.043827 0
24.540000 -0.045044 0
24.545000 -0.045864 0
24.550000 -0.046356 0
24.555000 -0.046582 0
24.560000 -0.046594 0
24.565000 -0.046434 0
24.570000 -0.046139 0
24.575000 -0.045738 0
24.580000 -0.045220 0
24.585000 -0.044486 0
24.590000 -0.043756 0
24.595000 -0.043029 0
24.600000 -0.042307 0
24.605000 -0.041587 0
24.610000 -0.040872 0
24.615000 -0.040160 0
24.620000 -0.039451 0
24.625000 -0.038746 0
24.630000 -0.038044 0
24.635000 -0.037346 0
24.640000 -0.036652 0
24.645000 -0.035961 0
24.650000 -0.035273 0
24.655000 -0.034589 0
24.660000 -0.033908 0
24.665000 -0.033230 0
24.670000 -0.032555 0
24.675000 -0.031883 0
24.680000 -0.031212 0
24.685000 -0.030542 0
24.690000 -0.029871 0
24.695000 -0.029194 0
24.700000 -0.028505 0
24.705000 -0.027797 0
24.710000 -0.027052 0
24.715000 -0.026250 0
24.720000 -0.025357 0
24.725000 -0.024324 0
24.730000 -0.023083 0
24.735000 -0.021542 0
24.740000 -0.019577 0
24.745000 -0.017031 0
24.750000 -0.013707 0
24.755000 -0.009371 0
24.760000 -0.003755 0
24.765000 0.003434 0
24.770000 0.012493 0
24.775000 0.023701 0
24.780000 0.037288 0
24.785000 0.053395 0
24.790000 0.072038 0
24.795000 0.093068 0
24.800000 0.116146 0
24.805000 0.140725 0
24.810000 0.166054 0
24.815000 0.191208 0
24.820000 0.215127 0
24.825000 0.236697 0
24.830000 0.254824 0
24.835000 0.268528 0
24.840000 0.277032 0
24.845000 0.279831 1
24.850000 0.276741 0
24.855000 0.267918 0
24.860000 0.253847 0
24.865000 0.235291 0
24.870000 0.213228 0
24.875000 0.188761 0
24.880000 0.163029 0
24.885000 0.137117 0
24.890000 0.111979 0
24.895000 0.088365 0
24.900000 0.066739 0
24.905000 0.047141 0
24.910000 0.028958 0
24.915000 0.010640 0
24.920000 -0.010430 0
24.925000 -0.037464 0
24.930000 -0.072743 0
24.935000 -0.115161 0
24.940000 -0.157933 0
24.945000 -0.188059 0
24.950000 -0.188275 2
24.955000 -0.140542 0
24.960000 -0.029727 0
24.965000 0.152036 0
24.970000 0.398425 0
24.975000 0.680537 0
24.980000 0.944310 0
24.985000 1.122569 0
24.990000 1.161250 3
24.995000 1.046170 0
25.000000 0.809607 0
25.005000 0.511471 0
25.010000 0.214997 0
25.015000 -0.033175 0
25.020000 -0.208945 0
25.025000 -0.306904 0
25.030000 -0.334735 4
25.035000 -0.309239 0
25.040000 -0.252399 0
25.045000 -0.185936 0
25.050000 -0.125871 0
25.055000 -0.079845 0
25.060000 -0.048194 0
25.065000 -0.027226 0
25.070000 -0.012414 0
25.075000 -0.000191 0
25.080000 0.011641 0
25.085000 0.024211 0
25.090000 0.038027 0
25.095000 0.053295 0
25.100000 0.070085 0
25.105000 0.088398 0
25.110000 0.108186 0
25.115000 0.129354 0
25.120000 0.151763 0
25.125000 0.175222 0
25.130000 0.199496 0
25.135000 0.224301 0
25.140000 0.249310 0
25.145000 0.274158 0
25.150000 0.298453 0
25.155000 0.321780 0
25.160000 0.343718 0
25.165000 0.363846 0
25.170000 0.381762 0
25.175000 0.397091 0
25.180000 0.409502 0
25.185000 0.418716 0
25.190000 0.424517 0
25.195000 0.426762 5
25.200000 0.425384 0
25.205000 0.420396 0
25.210000 0.411890 0
25.215000 0.400034 0
25.220000 0.385067 0
25.225000 0.367290 0
25.230000 0.347056 0
25.235000 0.324757 0
25.240000 0.300814 0
25.245000 0.275660 0
25.250000 0.249728 0
25.255000 0.223441 0
25.260000 0.197199 0
25.265000 0.171369 0
25.270000 0.146278 0
25.275000 0.122210 0
25.280000 0.099396 0
25.285000 0.078021 0
25.290000 0.058216 0
25.295000 0.040068 0
25.300000 0.023617 0
25.305000 0.008864 0
25.310000 -0.004223 0
25.315000 -0.015706 0
25.320000 -0.025670 0
25.325000 -0.034216 0
25.330000 -0.041457 0
25.335000 -0.047513 0
25.340000 -0.052507 0
25.345000 -0.056559 0
25.350000 -0.059786 0
25.355000 -0.062297 0
25.360000 -0.064197 0
25.365000 -0.065576 0
25.370000 -0.066520 0
25.375000 -0.067101 0
25.380000 -0.067384 0
25.385000 -0.067425 0
25.390000 -0.067271 0
25.395000 -0.066961 0
25.400000 -0.066529 0
25.405000 -0.066001 0
25.410000 -0.065208 0
25.415000 -0.064375 0
25.420000 -0.063546 0
25.425000 -0.062720 0
25.430000 -0.061899 0
25.435000 -0.061082 0
25.440000 -0.060270 0
25.445000 -0.059461 0
25.450000 -0.058656 0
25.455000 -0.057855 0
25.460000 -0.057058 0
25.465000 -0.056265 0
25.470000 -0.055477 0
25.475000 -0.054692 0
25.480000 -0.053910 0
25.485000 -0.053133 0
25.490000 -0.052360 0
25.495000 -0.051590 0
25.500000 -0.050823 0
25.505000 -0.050060 0
25.510000 -0.049299 0
25.515000 -0.048539 0
25.520000 -0.047778 0
25.525000 -0.047013 0
25.530000 -0.046238 0
25.535000 -0.045445 0
25.540000 -0.044620 0
25.545000 -0.043743 0
25.550000 -0.042783 0
25.555000 -0.041698 0
25.560000 -0.040425 0
25.565000 -0.038880 0
25.570000 -0.036952 0
25.575000 -0.034496 0
25.580000 -0.031334 0
25.585000 -0.027248 0
25.590000 -0.021989 0
25.595000 -0.015279 0
25.600000 -0.006830 0
25.605000 0.003637 0
25.610000 0.016367 0
25.615000 0.031532 0
25.620000 0.049202 0
25.625000 0.069303 0
25.630000 0.091588 0
25.635000 0.115619 0
25.640000 0.140759 0
25.645000 0.166190 0
25.650000 0.190944 0
25.655000 0.213959 0
25.660000 0.234156 0
25.665000 0.250515 0
25.670000 0.262165 0
25.675000 0.268457 0
25.680000 0.269024 1
25.685000 0.263816 0
25.690000 0.253106 0
25.695000 0.237466 0
25.700000 0.217715 0
25.705000 0.194848 0
25.710000 0.169953 0
25.715000 0.144126 0
25.720000 0.118388 0
25.725000 0.093620 0
25.730000 0.070490 0
25.735000 0.049368 0
25.740000 0.030183 0
25.745000 0.012190 0
25.750000 -0.006294 0
25.755000 -0.027948 0
25.760000 -0.055875 0
25.765000 -0.092018 0
25.770000 -0.134794 0
25.775000 -0.177055 0
25.780000 -0.205790 2
25.785000 -0.204130 0
25.790000 -0.154660 0
25.795000 -0.042865 0
25.800000 0.138758 0
25.805000 0.384174 0
25.810000 0.665904 0
25.815000 0.932353 0
25.820000 1.118533 0
25.825000 1.170249 3
25.830000 1.069750 0
25.835000 0.844114 0
25.840000 0.549947 0
25.845000 0.249984 0
25.850000 -0.007357 0
25.855000 -0.195399 0
25.860000 -0.306367 0
25.865000 -0.345909 4
25.870000 -0.329076 0
25.875000 -0.276744 0
25.880000 -0.210679 0
25.885000 -0.148100 0
25.890000 -0.098380 0
25.895000 -0.063307 0
25.900000 -0.039928 0
25.905000 -0.023794 0
25.910000 -0.011074 0
25.915000 0.000753 0
25.920000 0.013052 0
25.925000 0.026467 0
25.930000 0.041270 0
25.935000 0.057563 0
25.940000 0.075365 0
25.945000 0.094646 0
25.950000 0.115331 0
25.955000 0.137299 0
25.960000 0.160385 0
25.965000 0.184376 0
25.970000 0.209014 0
25.975000 0.233998 0
25.980000 0.258986 0
25.985000 0.283607 0
25.990000 0.307464 0
25.995000 0.330147 0
26.000000 0.351244 0
26.005000 0.370351 0
26.010000 0.387088 0
26.015000 0.401106 0
26.020000 0.412105 0
26.025000 0.419840 0
26.030000 0.424131 0
26.035000 0.424869 5
26.040000 0.422023 0
26.045000 0.415635 0
26.050000 0.405827 0
26.055000 0.392790 0
26.060000 0.376783 0
26.065000 0.358117 0
26.070000 0.337154 0
26.075000 0.314286 0
26.080000 0.289931 0
26.085000 0.264512 0
26.090000 0.238453 0
26.095000 0.212159 0
26.100000 0.186013 0
26.105000 0.160365 0
26.110000 0.135523 0
26.115000 0.111752 0
26.120000 0.089267 0
26.125000 0.068238 0
26.130000 0.048783 0
26.135000 0.030977 0
26.140000 0.014852 0
26.145000 0.000403 0
26.150000 -0.012406 0
26.155000 -0.023641 0
26.160000 -0.033386 0
26.165000 -0.041743 0
26.170000 -0.048822 0
26.175000 -0.054743 0
26.180000 -0.059623 0
26.185000 -0.063581 0
26.190000 -0.066730 0
26.195000 -0.069178 0
26.200000 -0.071024 0
26.205000 -0.072360 0
26.210000 -0.073266 0
26.215000 -0.073814 0
26.220000 -0.074067 0
26.225000 -0.074081 0
26.230000 -0.073900 0
26.235000 -0.073564 0
26.240000 -0.073105 0
26.245000 -0.072550 0
26.250000 -0.071726 0
26.255000 -0.070860 0
26.260000 -0.069999 0
26.265000 -0.069141 0
26.270000 -0.068288 0
26.275000 -0.067439 0
26.280000 -0.066595 0
26.285000 -0.065754 0
26.290000 -0.064918 0
26.295000 -0.064086 0
26.300000 -0.063258 0
26.305000 -0.062434 0
26.310000 -0.061615 0
26.315000 -0.060799 0
26.320000 -0.059988 0
26.325000 -0.059180 0
26.330000 -0.058377 0
26.335000 -0.057577 0
26.340000 -0.056781 0
26.345000 -0.055988 0
26.350000 -0.055198 0
26.355000 -0.054409 0
26.360000 -0.053621 0
26.365000 -0.052830 0
26.370000 -0.052032 0
26.375000 -0.051220 0
26.380000 -0.050382 0
26.385000 -0.049502 0
26.390000 -0.048554 0
26.395000 -0.047501 0
26.400000 -0.046292 0
26.405000 -0.044854 0
26.410000 -0.043092 0
26.415000 -0.040879 0
26.420000 -0.038056 0
26.425000 -0.034431 0
26.430000 -0.029773 0
26.435000 -0.023824 0
26.440000 -0.016307 0
26.445000 -0.006941 0
26.450000 0.004535 0
26.455000 0.018333 0
26.460000 0.034582 0
26.465000 0.053293 0
26.470000 0.074329 0
26.475000 0.097374 0
26.480000 0.121926 0
26.485000 0.147292 0
26.490000 0.172613 0
26.495000 0.196905 0
26.500000 0.219116 0
26.505000 0.238202 0
26.510000 0.253206 0
26.515000 0.263334 0
26.520000 0.268029 1
26.525000 0.267020 0
26.530000 0.260344 0
26.535000 0.248349 0
26.540000 0.231658 0
26.545000 0.211120 0
26.550000 0.187734 0
26.555000 0.162574 0
26.560000 0.136699 0
26.565000 0.111089 0
26.570000 0.086570 0
26.575000 0.063753 0
26.580000 0.042944 0
26.585000 0.023996 0
26.590000 0.006076 0
26.595000 -0.012583 0
26.600000 -0.034688 0
26.605000 -0.063246 0
26.610000 -0.099965 0
26.615000 -0.142960 0
26.620000 -0.184880 0
26.625000 -0.212761 2
26.630000 -0.210033 0
26.635000 -0.159711 0
26.640000 -0.047680 0
26.645000 0.133374 0
26.650000 0.377722 0
26.655000 0.659011 0
26.660000 0.927494 0
26.665000 1.119768 0
26.670000 1.181537 3
26.675000 1.091270 0
26.680000 0.871123 0
26.685000 0.578360 0
26.690000 0.277903 0
26.695000 0.020182 0
26.700000 -0.167121 0
26.705000 -0.276134 0
26.710000 -0.312991 4
26.715000 -0.293569 0
26.720000 -0.239624 0
26.725000 -0.173442 0
26.730000 -0.112130 0
26.735000 -0.064435 0
26.740000 -0.031410 0
26.745000 -0.009611 0
26.750000 0.005552 0
26.755000 0.017817 0
26.760000 0.029530 0
26.765000 0.041911 0
26.770000 0.055516 0
26.775000 0.070570 0
26.780000 0.087151 0
26.785000 0.105265 0
26.790000 0.124864 0
26.795000 0.145860 0
26.800000 0.168111 0
26.805000 0.191432 0
26.810000 0.215585 0
26.815000 0.240287 0
26.820000 0.265209 0
26.825000 0.289986 0
26.830000 0.314221 0
26.835000 0.337499 0
26.840000 0.359392 0
26.845000 0.379477 0
26.850000 0.397347 0
26.855000 0.412624 0
26.860000 0.424972 0
26.865000 0.434110 0
26.870000 0.439821 0
26.875000 0.441960 5
26.880000 0.440459 0
26.885000 0.435333 0
26.890000 0.426677 0
26.895000 0.414661 0
26.900000 0.399528 0
26.905000 0.381583 0
26.910000 0.361185 0
26.915000 0.338730 0
26.920000 0.314642 0
26.925000 0.289360 0
26.930000 0.263321 0
26.935000 0.236950 0
26.940000 0.210648 0
26.945000 0.184784 0
26.950000 0.159685 0
26.955000 0.135632 0
26.960000 0.112857 0
26.965000 0.091539 0
26.970000 0.071809 0
26.975000 0.053749 0
26.980000 0.037395 0
26.985000 0.022745 0
26.990000 0.009763 0
26.995000 -0.001616 0
27.000000 -0.011481 0
27.005000 -0.019935 0
27.010000 -0.027093 0
27.015000 -0.033076 0
27.020000 -0.038009 0
27.025000 -0.042012 0
27.030000 -0.045202 0
27.035000 -0.047690 0
27.040000 -0.049576 0
27.045000 -0.050955 0
27.050000 -0.051908 0
27.055000 -0.052508 0
27.060000 -0.052819 0
27.065000 -0.052894 0
27.070000 -0.052782 0
27.075000 -0.052519 0
27.080000 -0.052138 0
27.085000 -0.051665 0
27.090000 -0.050941 0
27.095000 -0.050179 0
27.100000 -0.049421 0
27.105000 -0.048666 0
27.110000 -0.047915 0
27.115000 -0.047168 0
27.120000 -0.046424 0
27.125000 -0.045684 0
27.130000 -0.044948 0
27.135000 -0.044216 0
27.140000 -0.043487 0
27.145000 -0.042762 0
27.150000 -0.042040 0
27.155000 -0.041322 0
27.160000 -0.040608 0
27.165000 -0.039897 0
27.170000 -0.039190 0
27.175000 -0.038485 0
27.180000 -0.037784 0
27.185000 -0.037085 0
27.190000 -0.036388 0
27.195000 -0.035691 0
27.200000 -0.034993 0
27.205000 -0.034288 0
27.210000 -0.033571 0
27.215000 -0.032832 0
27.220000 -0.032054 0
27.225000 -0.031216 0
27.230000 -0.030282 0
27.235000 -0.029203 0
27.240000 -0.027910 0
27.245000 -0.026309 0
27.250000 -0.024277 0
27.255000 -0.021658 0
27.260000 -0.018255 0
27.265000 -0.013839 0
27.270000 -0.008147 0
27.275000 -0.000893 0
27.280000 0.008215 0
27.285000 0.019447 0
27.290000 0.033029 0
27.295000 0.049098 0
27.300000 0.067674 0
27.305000 0.088617 0
27.310000 0.111605 0
27.315000 0.136116 0
27.320000 0.161430 0
27.325000 0.186656 0
27.330000 0.210769 0
27.335000 0.232683 0
27.340000 0.251322 0
27.345000 0.265712 0
27.350000 0.275061 0
27.355000 0.278830 1
27.360000 0.276786 0
27.365000 0.269025 0
27.370000 0.255961 0
27.375000 0.238290 0
27.380000 0.216929 0
27.385000 0.192937 0
27.390000 0.167424 0
27.395000 0.141471 0
27.400000 0.116050 0
27.405000 0.091955 0
27.410000 0.069729 0
27.415000 0.049552 0
27.420000 0.031054 0
27.425000 0.013042 0
27.430000 -0.006706 0
27.435000 -0.031237 0
27.440000 -0.063350 0
27.445000 -0.103491 0
27.450000 -0.147330 0
27.455000 -0.184453 0
27.460000 -0.199314 2
27.465000 -0.174166 0
27.470000 -0.092569 0
27.475000 0.056934 0
27.480000 0.275467 0
27.485000 0.545925 0
27.490000 0.826737 0
27.495000 1.055973 0
27.500000 1.170735 3
27.505000 1.134082 0
27.510000 0.953360 0
27.515000 0.677605 0
27.520000 0.373137 0
27.525000 0.097650 0
27.530000 -0.113286 0
27.535000 -0.246030 0
27.540000 -0.303016 4
27.545000 -0.297805 0
27.550000 -0.251247 0
27.555000 -0.186436 0
27.560000 -0.122653 0
27.565000 -0.071120 0
27.570000 -0.034670 0
27.575000 -0.010601 0
27.580000 0.005712 0
27.585000 0.018362 0
27.590000 0.030044 0
27.595000 0.042209 0
27.600000 0.055528 0
27.605000 0.070279 0
27.610000 0.086561 0
27.615000 0.104391 0
27.620000 0.123731 0
27.625000 0.144498 0
27.630000 0.166556 0
27.635000 0.189725 0
27.640000 0.213771 0
27.645000 0.238411 0
27.650000 0.263319 0
27.655000 0.288127 0
27.660000 0.312436 0
27.665000 0.335825 0
27.670000 0.357859 0
27.675000 0.378110 0
27.680000 0.396160 0
27.685000 0.411624 0
27.690000 0.424156 0
27.695000 0.433468 0
27.700000 0.439335 0
27.705000 0.441606 5
27.710000 0.440210 0
27.715000 0.435160 0
27.720000 0.426548 0
27.725000 0.414548 0
27.730000 0.399406 0
27.735000 0.381432 0
27.740000 0.360990 0
27.745000 0.338483 0
27.750000 0.314345 0
27.755000 0.289018 0
27.760000 0.262948 0
27.765000 0.236564 0
27.770000 0.210274 0
27.775000 0.184448 0
27.780000 0.159417 0
27.785000 0.135460 0
27.790000 0.112810 0
27.795000 0.091644 0
27.800000 0.072088 0
27.805000 0.054221 0
27.810000 0.038075 0
27.815000 0.023643 0
27.820000 0.010883 0
27.825000 -0.000273 0
27.830000 -0.009919 0
27.835000 -0.018161 0
27.840000 -0.025118 0
27.845000 -0.030914 0
27.850000 -0.035675 0
27.855000 -0.039522 0
27.860000 -0.042573 0
27.865000 -0.044939 0
27.870000 -0.046720 0
27.875000 -0.048009 0
27.880000 -0.048887 0
27.885000 -0.049426 0
27.890000 -0.049688 0
27.895000 -0.049726 0
27.900000 -0.049585 0
27.905000 -0.049301 0
27.910000 -0.048907 0
27.915000 -0.048388 0
27.920000 -0.047638 0
27.925000 -0.046892 0
27.930000 -0.046150 0
27.935000 -0.045412 0
27.940000 -0.044677 0
27.945000 -0.043946 0
27.950000 -0.043218 0
27.955000 -0.042495 0
27.960000 -0.041774 0
27.965000 -0.041058 0
27.970000 -0.040345 0
27.975000 -0.039635 0
27.980000 -0.038929 0
27.985000 -0.038227 0
27.990000 -0.037528 0
27.995000 -0.036832 0
28.000000 -0.036140 0
28.005000 -0.035451 0
28.010000 -0.034764 0
28.015000 -0.034080 0
28.020000 -0.033397 0
28.025000 -0.032713 0
28.030000 -0.032025 0
28.035000 -0.031328 0
28.040000 -0.030615 0
28.045000 -0.029872 0
28.050000 -0.029080 0
28.055000 -0.028210 0
28.060000 -0.027220 0
28.065000 -0.026049 0
28.070000 -0.024616 0
28.075000 -0.022809 0
28.080000 -0.020485 0
28.085000 -0.017463 0
28.090000 -0.013525 0
28.095000 -0.008416 0
28.100000 -0.001854 0
28.105000 0.006456 0
28.110000 0.016803 0
28.115000 0.029436 0
28.120000 0.044536 0
28.125000 0.062172 0
28.130000 0.082267 0
28.135000 0.104565 0
28.140000 0.128607 0
28.145000 0.153733 0
28.150000 0.179092 0
28.155000 0.203683 0
28.160000 0.226415 0
28.165000 0.246183 0
28.170000 0.261954 0
28.175000 0.272860 0
28.180000 0.278271 1
28.185000 0.277858 0
28.190000 0.271624 0
28.195000 0.259902 0
28.200000 0.243330 0
28.205000 0.222790 0
28.210000 0.199327 0
28.215000 0.174066 0
28.220000 0.148119 0
28.225000 0.122504 0
28.230000 0.098072 0
28.235000 0.075435 0
28.240000 0.054864 0
28.245000 0.036107 0
28.250000 0.018129 0
28.255000 -0.001136 0
28.260000 -0.024692 0
28.265000 -0.055536 0
28.270000 -0.094650 0
28.275000 -0.138469 0
28.280000 -0.177263 0
28.285000 -0.195787 2
28.290000 -0.176099 0
28.295000 -0.101176 0
28.300000 0.041363 0
28.305000 0.254003 0
28.310000 0.521376 0
28.315000 0.803359 0
28.320000 1.038126 0
28.325000 1.161045 3
28.330000 1.133208 0
28.335000 0.960693 0
28.340000 0.689707 0
28.345000 0.385193 0
28.350000 0.105292 0
28.355000 -0.112915 0
28.360000 -0.254132 0
28.365000 -0.319333 0
28.370000 -0.320771 4
28.375000 -0.278286 0
28.380000 -0.214642 0
28.385000 -0.149661 0
28.390000 -0.095694 0
28.395000 -0.056705 0
28.400000 -0.030687 0
