0.000000 1.135841 3
0.005000 1.050360 0
0.010000 0.832275 0
0.015000 0.537523 0
0.020000 0.231035 0
0.025000 -0.035521 0
0.030000 -0.232777 0
0.035000 -0.351351 0
0.040000 -0.396150 4
0.045000 -0.382059 0
0.050000 -0.330268 0
0.055000 -0.263246 0
0.060000 -0.199055 0
0.065000 -0.147740 0
0.070000 -0.111432 0
0.075000 -0.087219 0
0.080000 -0.070541 0
0.085000 -0.057428 0
0.090000 -0.045264 0
0.095000 -0.032630 0
0.100000 -0.018859 0
0.105000 -0.003671 0
0.110000 0.013040 0
0.115000 0.031294 0
0.120000 0.051057 0
0.125000 0.072252 0
0.130000 0.094754 0
0.135000 0.118393 0
0.140000 0.142947 0
0.145000 0.168150 0
0.150000 0.193689 0
0.155000 0.219212 0
0.160000 0.244335 0
0.165000 0.268651 0
0.170000 0.291736 0
0.175000 0.313167 0
0.180000 0.332532 0
0.185000 0.349440 0
0.190000 0.363539 0
0.195000 0.374524 0
0.200000 0.382151 0
0.205000 0.386241 0
0.210000 0.386692 5
0.215000 0.383480 0
0.220000 0.376661 0
0.225000 0.366368 0
0.230000 0.352807 0
0.235000 0.336253 0
0.240000 0.317034 0
0.245000 0.295527 0
0.250000 0.272141 0
0.255000 0.247306 0
0.260000 0.221458 0
0.265000 0.195030 0
0.270000 0.168436 0
0.275000 0.142063 0
0.280000 0.116262 0
0.285000 0.091342 0
0.290000 0.067565 0
0.295000 0.045143 0
0.300000 0.024236 0
0.305000 0.004959 0
0.310000 -0.012623 0
0.315000 -0.028487 0
0.320000 -0.042644 0
0.325000 -0.055142 0
0.330000 -0.066051 0
0.335000 -0.075465 0
0.340000 -0.083489 0
0.345000 -0.090241 0
0.350000 -0.095843 0
0.355000 -0.100416 0
0.360000 -0.104082 0
0.365000 -0.106955 0
0.370000 -0.109143 0
0.375000 -0.110746 0
0.380000 -0.111853 0
0.385000 -0.112547 0
0.390000 -0.112897 0
0.395000 -0.112966 0
0.400000 -0.112806 0
0.405000 -0.112462 0
0.410000 -0.111973 0
0.415000 -0.111369 0
0.420000 -0.110675 0
0.425000 -0.109735 0
0.430000 -0.108756 0
0.435000 -0.107783 0
0.440000 -0.106814 0
0.445000 -0.105850 0
0.450000 -0.104891 0
0.455000 -0.103937 0
0.460000 -0.102987 0
0.465000 -0.102042 0
0.470000 -0.101102 0
0.475000 -0.100167 0
0.480000 -0.099236 0
0.485000 -0.098310 0
0.490000 -0.097389 0
0.495000 -0.096472 0
0.500000 -0.095559 0
0.505000 -0.094651 0
0.510000 -0.093748 0
0.515000 -0.092848 0
0.520000 -0.091952 0
0.525000 -0.091059 0
0.530000 -0.090167 0
0.535000 -0.089274 0
0.540000 -0.088378 0
0.545000 -0.087471 0
0.550000 -0.086545 0
0.555000 -0.085585 0
0.560000 -0.084571 0
0.565000 -0.083470 0
0.570000 -0.082237 0
0.575000 -0.080808 0
0.580000 -0.079097 0
0.585000 -0.076989 0
0.590000 -0.074336 0
0.595000 -0.070957 0
0.600000 -0.066631 0
0.605000 -0.061105 0
0.610000 -0.054100 0
0.615000 -0.045328 0
0.620000 -0.034507 0
0.625000 -0.021395 0
0.630000 -0.005821 0
0.635000 0.012282 0
0.640000 0.032837 0
0.645000 0.055594 0
0.650000 0.080112 0
0.655000 0.105755 0
0.660000 0.131699 0
0.665000 0.156975 0
0.670000 0.180521 0
0.675000 0.201250 0
0.680000 0.218137 0
0.685000 0.230300 0
0.690000 0.237075 0
0.695000 0.238079 1
0.700000 0.233244 0
0.705000 0.222824 0
0.710000 0.207374 0
0.715000 0.187699 0
0.720000 0.164787 0
0.725000 0.139726 0
0.730000 0.113618 0
0.735000 0.087501 0
0.740000 0.062276 0
0.745000 0.038640 0
0.750000 0.017008 0
0.755000 -0.002625 0
0.760000 -0.020904 0
0.765000 -0.039375 0
0.770000 -0.060601 0
0.775000 -0.087711 0
0.780000 -0.122981 0
0.785000 -0.165564 0
0.790000 -0.209306 0
0.795000 -0.242081 0
0.800000 -0.247421 2
0.805000 -0.207680 0
0.810000 -0.107449 0
0.815000 0.062630 0
0.820000 0.299949 0
0.825000 0.582002 0
0.830000 0.861872 0
0.835000 1.075545 0
0.840000 1.163624 3
0.845000 1.097571 0
0.850000 0.893709 0
0.855000 0.604921 0
0.860000 0.296493 0
0.865000 0.022632 0
0.870000 -0.184404 0
0.875000 -0.313011 0
0.880000 -0.366575 4
0.885000 -0.358925 0
0.890000 -0.310719 0
0.895000 -0.244607 0
0.900000 -0.179477 0
0.905000 -0.126450 0
0.910000 -0.088516 0
0.915000 -0.063191 0
0.920000 -0.045960 0
0.925000 -0.032712 0
0.930000 -0.020659 0
0.935000 -0.008259 0
0.940000 0.005225 0
0.945000 0.020107 0
0.950000 0.036505 0
0.955000 0.054448 0
0.960000 0.073908 0
0.965000 0.094812 0
0.970000 0.117043 0
0.975000 0.140433 0
0.980000 0.164769 0
0.985000 0.189788 0
0.990000 0.215182 0
0.995000 0.240604 0
1.000000 0.265673 0
1.005000 0.289983 0
1.010000 0.313111 0
1.015000 0.334633 0
1.020000 0.354135 0
1.025000 0.371223 0
1.030000 0.385539 0
1.035000 0.396772 0
1.040000 0.404670 0
1.045000 0.409047 0
1.050000 0.409792 5
1.055000 0.406872 0
1.060000 0.400333 0
1.065000 0.390301 0
1.070000 0.376975 0
1.075000 0.360620 0
1.080000 0.341563 0
1.085000 0.320174 0
1.090000 0.296861 0
1.095000 0.272050 0
1.100000 0.246181 0
1.105000 0.219686 0
1.110000 0.192981 0
1.115000 0.166459 0
1.120000 0.140474 0
1.125000 0.115341 0
1.130000 0.091326 0
1.135000 0.068647 0
1.140000 0.047471 0
1.145000 0.027915 0
1.150000 0.010051 0
1.155000 -0.006094 0
1.160000 -0.020529 0
1.165000 -0.033296 0
1.170000 -0.044466 0
1.175000 -0.054129 0
1.180000 -0.062390 0
1.185000 -0.069367 0
1.190000 -0.075179 0
1.195000 -0.079950 0
1.200000 -0.083800 0
1.205000 -0.086846 0
1.210000 -0.089196 0
1.215000 -0.090950 0
1.220000 -0.092201 0
1.225000 -0.093029 0
1.230000 -0.093507 0
1.235000 -0.093697 0
1.240000 -0.093653 0
1.245000 -0.093421 0
1.250000 -0.093039 0
1.255000 -0.092539 0
1.260000 -0.091947 0
1.265000 -0.091101 0
1.270000 -0.090216 0
1.275000 -0.089334 0
1.280000 -0.088458 0
1.285000 -0.087586 0
1.290000 -0.086718 0
1.295000 -0.085854 0
1.300000 -0.084995 0
1.305000 -0.084140 0
1.310000 -0.083289 0
1.315000 -0.082442 0
1.320000 -0.081600 0
1.325000 -0.080762 0
1.330000 -0.079928 0
1.335000 -0.079098 0
1.340000 -0.078272 0
1.345000 -0.077451 0
1.350000 -0.076633 0
1.355000 -0.075818 0
1.360000 -0.075007 0
1.365000 -0.074199 0
1.370000 -0.073391 0
1.375000 -0.072583 0
1.380000 -0.071771 0
1.385000 -0.070948 0
1.390000 -0.070107 0
1.395000 -0.069233 0
1.400000 -0.068306 0
1.405000 -0.067295 0
1.410000 -0.066156 0
1.415000 -0.064827 0
1.420000 -0.063223 0
1.425000 -0.061232 0
1.430000 -0.058709 0
1.435000 -0.055475 0
1.440000 -0.051311 0
1.445000 -0.045968 0
1.450000 -0.039168 0
1.455000 -0.030622 0
1.460000 -0.020046 0
1.465000 -0.007196 0
1.470000 0.008109 0
1.475000 0.025943 0
1.480000 0.046242 0
1.485000 0.068770 0
1.490000 0.093101 0
1.495000 0.118611 0
1.500000 0.144491 0
1.505000 0.169779 0
1.510000 0.193417 0
1.515000 0.214315 0
1.520000 0.231442 0
1.525000 0.243900 0
1.530000 0.251009 0
1.535000 0.252361 1
1.540000 0.247867 0
1.545000 0.237757 0
1.550000 0.222566 0
1.555000 0.203087 0
1.560000 0.180296 0
1.565000 0.155279 0
1.570000 0.129140 0
1.575000 0.102924 0
1.580000 0.077545 0
1.585000 0.053718 0
1.590000 0.031879 0
1.595000 0.012056 0
1.600000 -0.006342 0
1.605000 -0.024799 0
1.610000 -0.045818 0
1.615000 -0.072522 0
1.620000 -0.107310 0
1.625000 -0.149610 0
1.630000 -0.193645 0
1.635000 -0.227636 0
1.640000 -0.235292 2
1.645000 -0.198924 0
1.650000 -0.102870 0
1.655000 0.062752 0
1.660000 0.296296 0
1.665000 0.576662 0
1.670000 0.858327 0
1.675000 1.077767 0
1.680000 1.174483 3
1.685000 1.117306 0
1.690000 0.919680 0
1.695000 0.633493 0
1.700000 0.324588 0
1.705000 0.048482 0
1.710000 -0.161347 0
1.715000 -0.292535 0
1.720000 -0.348090 4
1.725000 -0.341720 0
1.730000 -0.294151 0
1.735000 -0.228237 0
1.740000 -0.163120 0
1.745000 -0.110100 0
1.750000 -0.072236 0
1.755000 -0.047027 0
1.760000 -0.029922 0
1.765000 -0.016780 0
1.770000 -0.004810 0
1.775000 0.007531 0
1.780000 0.020971 0
1.785000 0.035821 0
1.790000 0.052196 0
1.795000 0.070123 0
1.800000 0.089573 0
1.805000 0.110471 0
1.810000 0.132694 0
1.815000 0.156072 0
1.820000 0.180386 0
1.825000 0.205369 0
1.830000 0.230708 0
1.835000 0.256050 0
1.840000 0.281007 0
1.845000 0.305168 0
1.850000 0.328107 0
1.855000 0.349397 0
1.860000 0.368620 0
1.865000 0.385382 0
1.870000 0.399326 0
1.875000 0.410144 0
1.880000 0.417589 0
1.885000 0.421481 0
1.890000 0.421717 5
1.895000 0.418273 0
1.900000 0.411208 0
1.905000 0.400656 0
1.910000 0.386828 0
1.915000 0.370003 0
1.920000 0.350514 0
1.925000 0.328743 0
1.930000 0.305105 0
1.935000 0.280033 0
1.940000 0.253969 0
1.945000 0.227347 0
1.950000 0.200586 0
1.955000 0.174074 0
1.960000 0.148161 0
1.965000 0.123158 0
1.970000 0.099323 0
1.975000 0.076865 0
1.980000 0.055945 0
1.985000 0.036670 0
1.990000 0.019104 0
1.995000 0.003265 0
2.000000 -0.010863 0
2.005000 -0.023330 0
2.010000 -0.034211 0
2.015000 -0.043601 0
2.020000 -0.051611 0
2.025000 -0.058358 0
2.030000 -0.063965 0
2.035000 -0.068558 0
2.040000 -0.072255 0
2.045000 -0.075172 0
2.050000 -0.077418 0
2.055000 -0.079090 0
2.060000 -0.080279 0
2.065000 -0.081065 0
2.070000 -0.081516 0
2.075000 -0.081695 0
2.080000 -0.081652 0
2.085000 -0.081432 0
2.090000 -0.081071 0
2.095000 -0.080600 0
2.100000 -0.080003 0
2.105000 -0.079173 0
2.110000 -0.078347 0
2.115000 -0.077525 0
2.120000 -0.076707 0
2.125000 -0.075894 0
2.130000 -0.075084 0
2.135000 -0.074278 0
2.140000 -0.073477 0
2.145000 -0.072679 0
2.150000 -0.071886 0
2.155000 -0.071096 0
2.160000 -0.070310 0
2.165000 -0.069528 0
2.170000 -0.068751 0
2.175000 -0.067976 0
2.180000 -0.067206 0
2.185000 -0.066439 0
2.190000 -0.065676 0
2.195000 -0.064916 0
2.200000 -0.064159 0
2.205000 -0.063404 0
2.210000 -0.062649 0
2.215000 -0.061891 0
2.220000 -0.061127 0
2.225000 -0.060349 0
2.230000 -0.059548 0
2.235000 -0.058705 0
2.240000 -0.057797 0
2.245000 -0.056787 0
2.250000 -0.055623 0
2.255000 -0.054234 0
2.260000 -0.052522 0
2.265000 -0.050359 0
2.270000 -0.047585 0
2.275000 -0.043999 0
2.280000 -0.039368 0
2.285000 -0.033424 0
2.290000 -0.025879 0
2.295000 -0.016443 0
2.300000 -0.004842 0
2.305000 0.009142 0
2.310000 0.025643 0
2.315000 0.044674 0
2.320000 0.066085 0
2.325000 0.089546 0
2.330000 0.114525 0
2.335000 0.140294 0
2.340000 0.165954 0
2.345000 0.190474 0
2.350000 0.212762 0
2.355000 0.231739 0
2.360000 0.246425 0
2.365000 0.256023 0
2.370000 0.259990 1
2.375000 0.258085 0
2.380000 0.250397 0
2.385000 0.237333 0
2.390000 0.219582 0
2.395000 0.198060 0
2.400000 0.173825 0
2.405000 0.147991 0
2.410000 0.121649 0
2.415000 0.095783 0
2.420000 0.071207 0
2.425000 0.048488 0
2.430000 0.027844 0
2.435000 0.008960 0
2.440000 -0.009272 0
2.445000 -0.028980 0
2.450000 -0.053171 0
2.455000 -0.084775 0
2.460000 -0.124649 0
2.465000 -0.169141 0
2.470000 -0.208572 0
2.475000 -0.227873 2
2.480000 -0.209309 0
2.485000 -0.135960 0
2.490000 0.004728 0
2.495000 0.215998 0
2.500000 0.484228 0
2.505000 0.771913 0
2.510000 1.019404 0
2.515000 1.161664 3
2.520000 1.155135 0
2.525000 0.998383 0
2.530000 0.732980 0
2.535000 0.424289 0
2.540000 0.133827 0
2.545000 -0.097388 0
2.550000 -0.251113 0
2.555000 -0.326551 0
2.560000 -0.334995 4
2.565000 -0.295985 0
2.570000 -0.232724 0
2.575000 -0.166102 0
2.580000 -0.109728 0
2.585000 -0.068529 0
2.590000 -0.040942 0
2.595000 -0.022542 0
2.600000 -0.008911 0
2.605000 0.003085 0
2.610000 0.015230 0
2.615000 0.028388 0
2.620000 0.042930 0
2.625000 0.058998 0
2.630000 0.076631 0
2.635000 0.095806 0
2.640000 0.116456 0
2.645000 0.138462 0
2.650000 0.161659 0
2.655000 0.185830 0
2.660000 0.210711 0
2.665000 0.235988 0
2.670000 0.261307 0
2.675000 0.286277 0
2.680000 0.310484 0
2.685000 0.333495 0
2.690000 0.354875 0
2.695000 0.374199 0
2.700000 0.391065 0
2.705000 0.405110 0
2.710000 0.416017 0
2.715000 0.423532 0
2.720000 0.427471 0
2.725000 0.427728 5
2.730000 0.424277 0
2.735000 0.417176 0
2.740000 0.406563 0
2.745000 0.392652 0
2.750000 0.375726 0
2.755000 0.356126 0
2.760000 0.334241 0
2.765000 0.310491 0
2.770000 0.285320 0
2.775000 0.259174 0
2.780000 0.232494 0
2.785000 0.205703 0
2.790000 0.179192 0
2.795000 0.153315 0
2.800000 0.128380 0
2.805000 0.104647 0
2.810000 0.082322 0
2.815000 0.061561 0
2.820000 0.042468 0
2.825000 0.025101 0
2.830000 0.009474 0
2.835000 -0.004435 0
2.840000 -0.016680 0
2.845000 -0.027343 0
2.850000 -0.036522 0
2.855000 -0.044331 0
2.860000 -0.050891 0
2.865000 -0.056328 0
2.870000 -0.060767 0
2.875000 -0.064329 0
2.880000 -0.067130 0
2.885000 -0.069277 0
2.890000 -0.070869 0
2.895000 -0.071994 0
2.900000 -0.072731 0
2.905000 -0.073147 0
2.910000 -0.073303 0
2.915000 -0.073249 0
2.920000 -0.073027 0
2.925000 -0.072672 0
2.930000 -0.072214 0
2.935000 -0.071640 0
2.940000 -0.070851 0
2.945000 -0.070067 0
2.950000 -0.069286 0
2.955000 -0.068510 0
2.960000 -0.067737 0
2.965000 -0.066968 0
2.970000 -0.066203 0
2.975000 -0.065441 0
2.980000 -0.064684 0
2.985000 -0.063930 0
2.990000 -0.063180 0
2.995000 -0.062434 0
3.000000 -0.061691 0
3.005000 -0.060953 0
3.010000 -0.060217 0
3.015000 -0.059486 0
3.020000 -0.058757 0
3.025000 -0.058032 0
3.030000 -0.057310 0
3.035000 -0.056590 0
3.040000 -0.055871 0
3.045000 -0.055151 0
3.050000 -0.054426 0
3.055000 -0.053692 0
3.060000 -0.052939 0
3.065000 -0.052154 0
3.070000 -0.051316 0
3.075000 -0.050395 0
3.080000 -0.049345 0
3.085000 -0.048104 0
3.090000 -0.046586 0
3.095000 -0.044675 0
3.100000 -0.042224 0
3.105000 -0.039048 0
3.110000 -0.034922 0
3.115000 -0.029589 0
3.120000 -0.022763 0
3.125000 -0.014148 0
3.130000 -0.003456 0
3.135000 0.009560 0
3.140000 0.025075 0
3.145000 0.043152 0
3.150000 0.063704 0
3.155000 0.086463 0
3.160000 0.110963 0
3.165000 0.136533 0
3.170000 0.162312 0
3.175000 0.187295 0
3.180000 0.210382 0
3.185000 0.230466 0
3.190000 0.246511 0
3.195000 0.257644 0
3.200000 0.263231 1
3.205000 0.262938 0
3.210000 0.256760 0
3.215000 0.245025 0
3.220000 0.228366 0
3.225000 0.207658 0
3.230000 0.183948 0
3.235000 0.158363 0
3.240000 0.132022 0
3.245000 0.105955 0
3.250000 0.081032 0
3.255000 0.057886 0
3.260000 0.036822 0
3.265000 0.017641 0
3.270000 -0.000610 0
3.275000 -0.019904 0
3.280000 -0.043182 0
3.285000 -0.073540 0
3.290000 -0.112329 0
3.295000 -0.156645 0
3.300000 -0.197523 0
3.305000 -0.220261 2
3.310000 -0.207002 0
3.315000 -0.140293 0
3.320000 -0.006720 0
3.325000 0.198250 0
3.330000 0.462712 0
3.335000 0.750758 0
3.340000 1.003179 0
3.345000 1.153531 0
3.350000 1.155508 3
3.355000 1.005068 0
3.360000 0.742673 0
3.365000 0.434339 0
3.370000 0.142998 0
3.375000 -0.089151 0
3.380000 -0.243277 0
3.385000 -0.318490 0
3.390000 -0.326297 4
3.395000 -0.286624 0
3.400000 -0.223058 0
3.405000 -0.156670 0
3.410000 -0.100968 0
3.415000 -0.060602 0
3.420000 -0.033744 0
3.425000 -0.015833 0
3.430000 -0.002448 0
3.435000 0.009481 0
3.440000 0.021670 0
3.445000 0.034933 0
3.450000 0.049614 0
3.455000 0.065844 0
3.460000 0.083652 0
3.465000 0.103010 0
3.470000 0.123841 0
3.475000 0.146019 0
3.480000 0.169369 0
3.485000 0.193661 0
3.490000 0.218618 0
3.495000 0.243914 0
3.500000 0.269182 0
3.505000 0.294018 0
3.510000 0.317997 0
3.515000 0.340677 0
3.520000 0.361617 0
3.525000 0.380390 0
3.530000 0.396594 0
3.535000 0.409870 0
3.540000 0.419911 0
3.545000 0.426477 0
3.550000 0.429401 5
3.555000 0.428597 0
3.560000 0.424063 0
3.565000 0.415881 0
3.570000 0.404216 0
3.575000 0.389308 0
3.580000 0.371464 0
3.585000 0.351048 0
3.590000 0.328467 0
3.595000 0.304157 0
3.600000 0.278573 0
3.605000 0.252168 0
3.610000 0.225384 0
3.615000 0.198640 0
3.620000 0.172321 0
3.625000 0.146768 0
3.630000 0.122276 0
3.635000 0.099087 0
3.640000 0.077389 0
3.645000 0.057318 0
3.650000 0.038959 0
3.655000 0.022351 0
3.660000 0.007491 0
3.665000 -0.005659 0
3.670000 -0.017168 0
3.675000 -0.027127 0
3.680000 -0.035645 0
3.685000 -0.042841 0
3.690000 -0.048841 0
3.695000 -0.053774 0
3.700000 -0.057765 0
3.705000 -0.060934 0
3.710000 -0.063394 0
3.715000 -0.065251 0
3.720000 -0.066598 0
3.725000 -0.067519 0
3.730000 -0.068089 0
3.735000 -0.068373 0
3.740000 -0.068424 0
3.745000 -0.068289 0
3.750000 -0.068007 0
3.755000 -0.067610 0
3.760000 -0.067083 0
3.765000 -0.066317 0
3.770000 -0.065556 0
3.775000 -0.064797 0
3.780000 -0.064043 0
3.785000 -0.063293 0
3.790000 -0.062546 0
3.795000 -0.061803 0
3.800000 -0.061063 0
3.805000 -0.060328 0
3.810000 -0.059596 0
3.815000 -0.058867 0
3.820000 -0.058143 0
3.825000 -0.057421 0
3.830000 -0.056704 0
3.835000 -0.055990 0
3.840000 -0.055279 0
3.845000 -0.054572 0
3.850000 -0.053868 0
3.855000 -0.053167 0
3.860000 -0.052468 0
3.865000 -0.051770 0
3.870000 -0.051071 0
3.875000 -0.050369 0
3.880000 -0.049658 0
3.885000 -0.048930 0
3.890000 -0.048172 0
3.895000 -0.047365 0
3.900000 -0.046478 0
3.905000 -0.045470 0
3.910000 -0.044278 0
3.915000 -0.042819 0
3.920000 -0.040980 0
3.925000 -0.038614 0
3.930000 -0.035537 0
3.935000 -0.031526 0
3.940000 -0.026320 0
3.945000 -0.019632 0
3.950000 -0.011161 0
3.955000 -0.000612 0
3.960000 0.012270 0
3.965000 0.027666 0
3.970000 0.045645 0
3.975000 0.066125 0
3.980000 0.088839 0
3.985000 0.113315 0
3.990000 0.138873 0
3.995000 0.164639 0
4.000000 0.189588 0
4.005000 0.212603 0
4.010000 0.232559 0
4.015000 0.248406 0
4.020000 0.259267 0
4.025000 0.264510 1
4.030000 0.263815 0
4.035000 0.257199 0
4.040000 0.245021 0
4.045000 0.227946 0
4.050000 0.206883 0
4.055000 0.182908 0
4.060000 0.157170 0
4.065000 0.130800 0
4.070000 0.104829 0
4.075000 0.080112 0
4.080000 0.057254 0
4.085000 0.036501 0
4.090000 0.017550 0
4.095000 -0.000727 0
4.100000 -0.020524 0
4.105000 -0.044952 0
4.110000 -0.076994 0
4.115000 -0.117365 0
4.120000 -0.161931 0
4.125000 -0.200209 0
4.130000 -0.216255 2
4.135000 -0.191691 0
4.140000 -0.109418 0
4.145000 0.042509 0
4.150000 0.265233 0
4.155000 0.540767 0
4.160000 0.825500 0
4.165000 1.054870 0
4.170000 1.164295 3
4.175000 1.117712 0
4.180000 0.925822 0
4.185000 0.641202 0
4.190000 0.332328 0
4.195000 0.057110 0
4.200000 -0.149935 0
4.205000 -0.276586 0
4.210000 -0.326717 4
4.215000 -0.315324 0
4.220000 -0.264465 0
4.225000 -0.197783 0
4.230000 -0.134225 0
4.235000 -0.084088 0
4.240000 -0.049235 0
4.245000 -0.026354 0
4.250000 -0.010645 0
4.255000 0.001892 0
4.260000 0.013782 0
4.265000 0.026340 0
4.270000 0.040156 0
4.275000 0.055468 0
4.280000 0.072357 0
4.285000 0.090828 0
4.290000 0.110829 0
4.295000 0.132264 0
4.300000 0.154982 0
4.305000 0.178784 0
4.310000 0.203417 0
4.315000 0.228577 0
4.320000 0.253915 0
4.325000 0.279044 0
4.330000 0.303544 0
4.335000 0.326976 0
4.340000 0.348892 0
4.345000 0.368852 0
4.350000 0.386436 0
4.355000 0.401255 0
4.360000 0.412973 0
4.365000 0.421310 0
4.370000 0.426061 0
4.375000 0.427097 5
4.380000 0.424375 0
4.385000 0.417937 0
4.390000 0.407908 0
4.395000 0.394498 0
4.400000 0.377984 0
4.405000 0.358710 0
4.410000 0.337069 0
4.415000 0.313489 0
4.420000 0.288423 0
4.425000 0.262330 0
4.430000 0.235664 0
4.435000 0.208860 0
4.440000 0.182322 0
4.445000 0.156415 0
4.450000 0.131456 0
4.455000 0.107712 0
4.460000 0.085395 0
4.465000 0.064664 0
4.470000 0.045626 0
4.475000 0.028337 0
4.480000 0.012810 0
4.485000 -0.000980 0
4.490000 -0.013093 0
4.495000 -0.023611 0
4.500000 -0.032640 0
4.505000 -0.040296 0
4.510000 -0.046706 0
4.515000 -0.051997 0
4.520000 -0.056298 0
4.525000 -0.059734 0
4.530000 -0.062419 0
4.535000 -0.064465 0
4.540000 -0.065968 0
4.545000 -0.067018 0
4.550000 -0.067692 0
4.555000 -0.068059 0
4.560000 -0.068176 0
4.565000 -0.068094 0
4.570000 -0.067853 0
4.575000 -0.067487 0
4.580000 -0.067025 0
4.585000 -0.066304 0
4.590000 -0.065542 0
4.595000 -0.064784 0
4.600000 -0.064030 0
4.605000 -0.063279 0
4.610000 -0.062533 0
4.615000 -0.061790 0
4.620000 -0.061050 0
4.625000 -0.060315 0
4.630000 -0.059583 0
4.635000 -0.058854 0
4.640000 -0.058130 0
4.645000 -0.057409 0
4.650000 -0.056691 0
4.655000 -0.055977 0
4.660000 -0.055267 0
4.665000 -0.054560 0
4.670000 -0.053856 0
4.675000 -0.053155 0
4.680000 -0.052456 0
4.685000 -0.051759 0
4.690000 -0.051061 0
4.695000 -0.050361 0
4.700000 -0.049652 0
4.705000 -0.048928 0
4.710000 -0.048176 0
4.715000 -0.047378 0
4.720000 -0.046506 0
4.725000 -0.045518 0
4.730000 -0.044355 0
4.735000 -0.042937 0
4.740000 -0.041152 0
4.745000 -0.038857 0
4.750000 -0.035871 0
4.755000 -0.031972 0
4.760000 -0.026902 0
4.765000 -0.020372 0
4.770000 -0.012078 0
4.775000 -0.001722 0
4.780000 0.010960 0
4.785000 0.026158 0
4.790000 0.043951 0
4.795000 0.064270 0
4.800000 0.086858 0
4.805000 0.111252 0
4.810000 0.136777 0
4.815000 0.162559 0
4.820000 0.187569 0
4.825000 0.210683 0
4.830000 0.230761 0
4.835000 0.246740 0
4.840000 0.257727 0
4.845000 0.263079 1
4.850000 0.262465 0
4.855000 0.255900 0
4.860000 0.243742 0
4.865000 0.226661 0
4.870000 0.205578 0
4.875000 0.181580 0
4.880000 0.155826 0
4.885000 0.129458 0
4.890000 0.103514 0
4.895000 0.078853 0
4.900000 0.056075 0
4.905000 0.035411 0
4.910000 0.016525 0
4.915000 -0.001768 0
4.920000 -0.021744 0
4.925000 -0.046574 0
4.930000 -0.079201 0
4.935000 -0.120091 0
4.940000 -0.164625 0
4.945000 -0.201722 0
4.950000 -0.214941 2
4.955000 -0.185686 0
4.960000 -0.096998 0
4.965000 0.062413 0
4.970000 0.292122 0
4.975000 0.571361 0
4.980000 0.853161 0
4.985000 1.070948 0
4.990000 1.161559 3
4.995000 1.094403 0
5.000000 0.887038 0
5.005000 0.595568 0
5.010000 0.288192 0
5.015000 0.020074 0
5.020000 -0.177388 0
5.025000 -0.294313 0
5.030000 -0.336122 4
5.035000 -0.318825 0
5.040000 -0.264919 0
5.045000 -0.197737 0
5.050000 -0.135310 0
5.055000 -0.086868 0
5.060000 -0.053504 0
5.065000 -0.031589 0
5.070000 -0.016347 0
5.075000 -0.003936 0
5.080000 0.008014 0
5.085000 0.020715 0
5.090000 0.034708 0
5.095000 0.050207 0
5.100000 0.067284 0
5.105000 0.085936 0
5.110000 0.106109 0
5.115000 0.127702 0
5.120000 0.150560 0
5.125000 0.174479 0
5.130000 0.199202 0
5.135000 0.224423 0
5.140000 0.249790 0
5.145000 0.274915 0
5.150000 0.299376 0
5.155000 0.322734 0
5.160000 0.344545 0
5.165000 0.364370 0
5.170000 0.381790 0
5.175000 0.396425 0
5.180000 0.407940 0
5.185000 0.416063 0
5.190000 0.420594 0
5.195000 0.421411 5
5.200000 0.418475 0
5.205000 0.411834 0
5.210000 0.401620 0
5.215000 0.388043 0
5.220000 0.371388 0
5.225000 0.351997 0
5.230000 0.330265 0
5.235000 0.306623 0
5.240000 0.281520 0
5.245000 0.255416 0
5.250000 0.228762 0
5.255000 0.201990 0
5.260000 0.175501 0
5.265000 0.149657 0
5.270000 0.124772 0
5.275000 0.101110 0
5.280000 0.078881 0
5.285000 0.058240 0
5.290000 0.039292 0
5.295000 0.022092 0
5.300000 0.006650 0
5.305000 -0.007059 0
5.310000 -0.019095 0
5.315000 -0.029543 0
5.320000 -0.038506 0
5.325000 -0.046102 0
5.330000 -0.052456 0
5.335000 -0.057697 0
5.340000 -0.061953 0
5.345000 -0.065345 0
5.350000 -0.067992 0
5.355000 -0.070001 0
5.360000 -0.071470 0
5.365000 -0.072488 0
5.370000 -0.073132 0
5.375000 -0.073469 0
5.380000 -0.073558 0
5.385000 -0.073448 0
5.390000 -0.073180 0
5.395000 -0.072787 0
5.400000 -0.072299 0
5.405000 -0.071551 0
5.410000 -0.070763 0
5.415000 -0.069979 0
5.420000 -0.069199 0
5.425000 -0.068422 0
5.430000 -0.067650 0
5.435000 -0.066882 0
5.440000 -0.066117 0
5.445000 -0.065356 0
5.450000 -0.064599 0
5.455000 -0.063846 0
5.460000 -0.063096 0
5.465000 -0.062350 0
5.470000 -0.061608 0
5.475000 -0.060870 0
5.480000 -0.060135 0
5.485000 -0.059403 0
5.490000 -0.058675 0
5.495000 -0.057950 0
5.500000 -0.057228 0
5.505000 -0.056507 0
5.510000 -0.055786 0
5.515000 -0.055062 0
5.520000 -0.054330 0
5.525000 -0.053584 0
5.530000 -0.052810 0
5.535000 -0.051992 0
5.540000 -0.051101 0
5.545000 -0.050096 0
5.550000 -0.048921 0
5.555000 -0.047495 0
5.560000 -0.045710 0
5.565000 -0.043424 0
5.570000 -0.040458 0
5.575000 -0.036595 0
5.580000 -0.031578 0
5.585000 -0.025121 0
5.590000 -0.016921 0
5.595000 -0.006679 0
5.600000 0.005868 0
5.605000 0.020919 0
5.610000 0.038560 0
5.615000 0.058732 0
5.620000 0.081193 0
5.625000 0.105498 0
5.630000 0.130986 0
5.635000 0.156803 0
5.640000 0.181930 0
5.645000 0.205253 0
5.650000 0.225631 0
5.655000 0.241999 0
5.660000 0.253446 0
5.665000 0.259310 1
5.670000 0.259232 0
5.675000 0.253197 0
5.680000 0.241533 0
5.685000 0.224883 0
5.690000 0.204144 0
5.695000 0.180389 0
5.700000 0.154770 0
5.705000 0.128433 0
5.710000 0.102423 0
5.715000 0.077618 0
5.720000 0.054648 0
5.725000 0.033787 0
5.730000 0.014771 0
5.735000 -0.003478 0
5.740000 -0.023109 0
5.745000 -0.047221 0
5.750000 -0.078866 0
5.755000 -0.118917 0
5.760000 -0.163455 0
5.765000 -0.202169 0
5.770000 -0.219156 2
5.775000 -0.195932 0
5.780000 -0.115202 0
5.785000 0.035239 0
5.790000 0.256838 0
5.795000 0.531888 0
5.800000 0.816846 0
5.805000 1.046866 0
5.810000 1.156849 3
5.815000 1.111096 0
5.820000 0.921206 0
5.825000 0.638194 0
5.830000 0.329074 0
5.835000 0.051248 0
5.840000 -0.160347 0
5.845000 -0.292635 0
5.850000 -0.348488 4
5.855000 -0.341836 0
5.860000 -0.293825 0
5.865000 -0.227732 0
5.870000 -0.162900 0
5.875000 -0.110541 0
5.880000 -0.073453 0
5.885000 -0.048890 0
5.890000 -0.032188 0
5.895000 -0.019214 0
5.900000 -0.007239 0
5.905000 0.005210 0
5.910000 0.018819 0
5.915000 0.033874 0
5.920000 0.050476 0
5.925000 0.068645 0
5.930000 0.088344 0
5.935000 0.109490 0
5.940000 0.131949 0
5.945000 0.155541 0
5.950000 0.180032 0
5.955000 0.205140 0
5.960000 0.230537 0
5.965000 0.255856 0
5.970000 0.280696 0
5.975000 0.304632 0
5.980000 0.327229 0
5.985000 0.348051 0
5.990000 0.366678 0
5.995000 0.382717 0
6.000000 0.395816 0
6.005000 0.405679 0
6.010000 0.412072 0
6.015000 0.414837 5
6.020000 0.413893 0
6.025000 0.409244 0
6.030000 0.400974 0
6.035000 0.389251 0
6.040000 0.374315 0
6.045000 0.356470 0
6.050000 0.336078 0
6.055000 0.313541 0
6.060000 0.289293 0
6.065000 0.263780 0
6.070000 0.237451 0
6.075000 0.210743 0
6.080000 0.184071 0
6.085000 0.157814 0
6.090000 0.132311 0
6.095000 0.107855 0
6.100000 0.084686 0
6.105000 0.062993 0
6.110000 0.042911 0
6.115000 0.024528 0
6.120000 0.007885 0
6.125000 -0.007020 0
6.130000 -0.020221 0
6.135000 -0.031784 0
6.140000 -0.041799 0
6.145000 -0.050370 0
6.150000 -0.057616 0
6.155000 -0.063661 0
6.160000 -0.068631 0
6.165000 -0.072650 0
6.170000 -0.075839 0
6.175000 -0.078310 0
6.180000 -0.080167 0
6.185000 -0.081506 0
6.190000 -0.082411 0
6.195000 -0.082956 0
6.200000 -0.083207 0
6.205000 -0.083220 0
6.210000 -0.083040 0
6.215000 -0.082709 0
6.220000 -0.082258 0
6.225000 -0.081715 0
6.230000 -0.080919 0
6.235000 -0.080084 0
6.240000 -0.079253 0
6.245000 -0.078427 0
6.250000 -0.077605 0
6.255000 -0.076787 0
6.260000 -0.075973 0
6.265000 -0.075162 0
6.270000 -0.074356 0
6.275000 -0.073555 0
6.280000 -0.072757 0
6.285000 -0.071963 0
6.290000 -0.071172 0
6.295000 -0.070386 0
6.300000 -0.069604 0
6.305000 -0.068826 0
6.310000 -0.068051 0
6.315000 -0.067280 0
6.320000 -0.066512 0
6.325000 -0.065747 0
6.330000 -0.064984 0
6.335000 -0.064221 0
6.340000 -0.063456 0
6.345000 -0.062684 0
6.350000 -0.061899 0
6.355000 -0.061090 0
6.360000 -0.060240 0
6.365000 -0.059324 0
6.370000 -0.058304 0
6.375000 -0.057127 0
6.380000 -0.055720 0
6.385000 -0.053981 0
6.390000 -0.051781 0
6.395000 -0.048951 0
6.400000 -0.045285 0
6.405000 -0.040543 0
6.410000 -0.034449 0
6.415000 -0.026708 0
6.420000 -0.017024 0
6.425000 -0.005124 0
6.430000 0.009206 0
6.435000 0.026090 0
6.440000 0.045516 0
6.445000 0.067306 0
6.450000 0.091090 0
6.455000 0.116290 0
6.460000 0.142129 0
6.465000 0.167658 0
6.470000 0.191810 0
6.475000 0.213466 0
6.480000 0.231541 0
6.485000 0.245072 0
6.490000 0.253302 0
6.495000 0.255753 1
6.500000 0.252267 0
6.505000 0.243024 0
6.510000 0.228524 0
6.515000 0.209548 0
6.520000 0.187078 0
6.525000 0.162223 0
6.530000 0.136119 0
6.535000 0.109852 0
6.540000 0.084372 0
6.545000 0.060430 0
6.550000 0.038490 0
6.555000 0.018600 0
6.560000 0.000163 0
6.565000 -0.018340 0
6.570000 -0.039493 0
6.575000 -0.066508 0
6.580000 -0.101773 0
6.585000 -0.144466 0
6.590000 -0.188233 0
6.595000 -0.220504 0
6.600000 -0.224243 2
6.605000 -0.181321 0
6.610000 -0.076137 0
6.615000 0.100245 0
6.620000 0.343610 0
6.625000 0.628214 0
6.630000 0.902976 0
6.635000 1.101156 0
6.640000 1.164824 3
6.645000 1.072520 0
6.650000 0.849572 0
6.655000 0.552837 0
6.660000 0.247014 0
6.665000 -0.017148 0
6.670000 -0.211259 0
6.675000 -0.326669 0
6.680000 -0.368778 4
6.685000 -0.352804 0
6.690000 -0.300088 0
6.695000 -0.233012 0
6.700000 -0.169343 0
6.705000 -0.118774 0
6.710000 -0.083162 0
6.715000 -0.059471 0
6.720000 -0.043134 0
6.725000 -0.030232 0
6.730000 -0.018204 0
6.735000 -0.005668 0
6.740000 0.008021 0
6.745000 0.023135 0
6.750000 0.039772 0
6.755000 0.057952 0
6.760000 0.077640 0
6.765000 0.098755 0
6.770000 0.121174 0
6.775000 0.144721 0
6.780000 0.169176 0
6.785000 0.194270 0
6.790000 0.219688 0
6.795000 0.245079 0
6.800000 0.270057 0
6.805000 0.294214 0
6.810000 0.317128 0
6.815000 0.338375 0
6.820000 0.357543 0
6.825000 0.374244 0
6.830000 0.388127 0
6.835000 0.398890 0
6.840000 0.406288 0
6.845000 0.410148 0
6.850000 0.410369 5
6.855000 0.406929 0
6.860000 0.399886 0
6.865000 0.389377 0
6.870000 0.375608 0
6.875000 0.358856 0
6.880000 0.339452 0
6.885000 0.317772 0
6.890000 0.294226 0
6.895000 0.269244 0
6.900000 0.243262 0
6.905000 0.216712 0
6.910000 0.190007 0
6.915000 0.163533 0
6.920000 0.137641 0
6.925000 0.112637 0
6.930000 0.088782 0
6.935000 0.066287 0
6.940000 0.045311 0
6.945000 0.025966 0
6.950000 0.008317 0
6.955000 -0.007612 0
6.960000 -0.021837 0
6.965000 -0.034403 0
6.970000 -0.045382 0
6.975000 -0.054868 0
6.980000 -0.062968 0
6.985000 -0.069797 0
6.990000 -0.075479 0
6.995000 -0.080134 0
7.000000 -0.083884 0
7.005000 -0.086844 0
7.010000 -0.089120 0
7.015000 -0.090812 0
7.020000 -0.092011 0
7.025000 -0.092797 0
7.030000 -0.093240 0
7.035000 -0.093402 0
7.040000 -0.093336 0
7.045000 -0.093087 0
7.050000 -0.092692 0
7.055000 -0.092182 0
7.060000 -0.091583 0
7.065000 -0.090737 0
7.070000 -0.089854 0
7.075000 -0.088974 0
7.080000 -0.088099 0
7.085000 -0.087229 0
7.090000 -0.086363 0
7.095000 -0.085501 0
7.100000 -0.084643 0
7.105000 -0.083790 0
7.110000 -0.082941 0
7.115000 -0.082096 0
7.120000 -0.081256 0
7.125000 -0.080419 0
7.130000 -0.079587 0
7.135000 -0.078759 0
7.140000 -0.077935 0
7.145000 -0.077115 0
7.150000 -0.076298 0
7.155000 -0.075486 0
7.160000 -0.074676 0
7.165000 -0.073869 0
7.170000 -0.073063 0
7.175000 -0.072256 0
7.180000 -0.071444 0
7.185000 -0.070622 0
7.190000 -0.069779 0
7.195000 -0.068903 0
7.200000 -0.067971 0
7.205000 -0.066952 0
7.210000 -0.065800 0
7.215000 -0.064452 0
7.220000 -0.062821 0
7.225000 -0.060792 0
7.230000 -0.058217 0
7.235000 -0.054915 0
7.240000 -0.050664 0
7.245000 -0.045213 0
7.250000 -0.038282 0
7.255000 -0.029583 0
7.260000 -0.018835 0
7.265000 -0.005796 0
7.270000 0.009706 0
7.275000 0.027736 0
7.280000 0.048216 0
7.285000 0.070898 0
7.290000 0.095342 0
7.295000 0.120908 0
7.300000 0.146777 0
7.305000 0.171978 0
7.310000 0.195451 0
7.315000 0.216109 0
7.320000 0.232928 0
7.325000 0.245026 0
7.330000 0.251740 0
7.335000 0.252686 1
7.340000 0.247795 0
7.345000 0.237319 0
7.350000 0.221813 0
7.355000 0.202081 0
7.360000 0.179109 0
7.365000 0.153984 0
7.370000 0.127809 0
7.375000 0.101619 0
7.380000 0.076317 0
7.385000 0.052601 0
7.390000 0.030887 0
7.395000 0.011173 0
7.400000 -0.007179 0
7.405000 -0.025708 0
7.410000 -0.046969 0
7.415000 -0.074087 0
7.420000 -0.109354 0
7.425000 -0.151959 0
7.430000 -0.195801 0
7.435000 -0.228815 0
7.440000 -0.234571 2
7.445000 -0.195427 0
7.450000 -0.095947 0
7.455000 0.073310 0
7.460000 0.309905 0
7.465000 0.591606 0
7.470000 0.871791 0
7.475000 1.086585 0
7.480000 1.176409 3
7.485000 1.112967 0
7.490000 0.912729 0
7.495000 0.626329 0
7.500000 0.317269 0
7.505000 0.039339 0
7.510000 -0.174464 0
7.515000 -0.311307 0
7.520000 -0.373212 4
7.525000 -0.372597 0
7.530000 -0.328890 0
7.535000 -0.264177 0
7.540000 -0.197758 0
7.545000 -0.141910 0
7.550000 -0.100907 0
7.555000 -0.073138 0
7.560000 -0.054391 0
7.565000 -0.040443 0
7.570000 -0.028248 0
7.575000 -0.016026 0
7.580000 -0.002886 0
7.585000 0.011565 0
7.590000 0.027484 0
7.595000 0.044923 0
7.600000 0.063869 0
7.605000 0.084269 0
7.610000 0.106024 0
7.615000 0.128989 0
7.620000 0.152974 0
7.625000 0.177745 0
7.630000 0.203020 0
7.635000 0.228479 0
7.640000 0.253764 0
7.645000 0.278492 0
7.650000 0.302259 0
7.655000 0.324653 0
7.660000 0.345265 0
7.665000 0.363700 0
7.670000 0.379590 0
7.675000 0.392607 0
7.680000 0.402473 0
7.685000 0.408969 0
7.690000 0.411942 5
7.695000 0.411314 0
7.700000 0.407082 0
7.705000 0.399319 0
7.710000 0.388172 0
7.715000 0.373857 0
7.720000 0.356651 0
7.725000 0.336885 0
7.730000 0.314931 0
7.735000 0.291191 0
7.740000 0.266085 0
7.745000 0.240037 0
7.750000 0.213466 0
7.755000 0.186771 0
7.760000 0.160328 0
7.765000 0.134474 0
7.770000 0.109506 0
7.775000 0.085677 0
7.780000 0.063190 0
7.785000 0.042201 0
7.790000 0.022821 0
7.795000 0.005112 0
7.800000 -0.010900 0
7.805000 -0.025227 0
7.810000 -0.037914 0
7.815000 -0.049027 0
7.820000 -0.058656 0
7.825000 -0.066904 0
7.830000 -0.073883 0
7.835000 -0.079710 0
7.840000 -0.084507 0
7.845000 -0.088389 0
7.850000 -0.091471 0
7.855000 -0.093857 0
7.860000 -0.095647 0
7.865000 -0.096931 0
7.870000 -0.097788 0
7.875000 -0.098290 0
7.880000 -0.098500 0
7.885000 -0.098471 0
7.890000 -0.098249 0
7.895000 -0.097872 0
7.900000 -0.097372 0
7.905000 -0.096777 0
7.910000 -0.095910 0
7.915000 -0.095000 0
7.920000 -0.094095 0
7.925000 -0.093195 0
7.930000 -0.092299 0
7.935000 -0.091407 0
7.940000 -0.090520 0
7.945000 -0.089638 0
7.950000 -0.088760 0
7.955000 -0.087886 0
7.960000 -0.087016 0
7.965000 -0.086151 0
7.970000 -0.085290 0
7.975000 -0.084434 0
7.980000 -0.083582 0
7.985000 -0.082734 0
7.990000 -0.081890 0
7.995000 -0.081050 0
8.000000 -0.080214 0
8.005000 -0.079381 0
8.010000 -0.078552 0
8.015000 -0.077724 0
8.020000 -0.076898 0
8.025000 -0.076069 0
8.030000 -0.075235 0
8.035000 -0.074387 0
8.040000 -0.073517 0
8.045000 -0.072609 0
8.050000 -0.071640 0
8.055000 -0.070575 0
8.060000 -0.069366 0
8.065000 -0.067948 0
8.070000 -0.066231 0
8.075000 -0.064097 0
8.080000 -0.061396 0
8.085000 -0.057946 0
8.090000 -0.053527 0
8.095000 -0.047889 0
8.100000 -0.040759 0
8.105000 -0.031856 0
8.110000 -0.020909 0
8.115000 -0.007688 0
8.120000 0.007969 0
8.125000 0.026117 0
8.130000 0.046676 0
8.135000 0.069398 0
8.140000 0.093851 0
8.145000 0.119414 0
8.150000 0.145292 0
8.155000 0.170544 0
8.160000 0.194140 0
8.165000 0.215024 0
8.170000 0.232192 0
8.175000 0.244771 0
8.180000 0.252095 0
8.185000 0.253758 1
8.190000 0.249654 0
8.195000 0.239989 0
8.200000 0.225258 0
8.205000 0.206209 0
8.210000 0.183776 0
8.215000 0.159005 0
8.220000 0.132969 0
8.225000 0.106700 0
8.230000 0.081110 0
8.235000 0.056934 0
8.240000 0.034659 0
8.245000 0.014411 0
8.250000 -0.004223 0
8.255000 -0.022450 0
8.260000 -0.042454 0
8.265000 -0.067194 0
8.270000 -0.099403 0
8.275000 -0.139657 0
8.280000 -0.184124 0
8.285000 -0.223240 0
8.290000 -0.242398 2
8.295000 -0.224509 0
8.300000 -0.153235 0
8.305000 -0.016269 0
8.310000 0.190181 0
8.315000 0.454471 0
8.320000 0.742704 0
8.325000 0.999216 0
8.330000 1.160579 0
8.335000 1.180108 3
8.340000 1.049482 0
8.345000 0.802447 0
8.350000 0.498105 0
8.355000 0.197290 0
8.360000 -0.055311 0
8.365000 -0.236319 0
8.370000 -0.340083 0
8.375000 -0.373468 4
8.380000 -0.352151 0
8.385000 -0.297105 0
8.390000 -0.229718 0
8.395000 -0.166604 0
8.400000 -0.116624 0
8.405000 -0.081306 0
8.410000 -0.057647 0
8.415000 -0.041240 0
8.420000 -0.028284 0
8.425000 -0.016268 0
8.430000 -0.003812 0
8.435000 0.009742 0
8.440000 0.024676 0
8.445000 0.041099 0
8.450000 0.059034 0
8.455000 0.078456 0
8.460000 0.099295 0
8.465000 0.121439 0
8.470000 0.144728 0
8.475000 0.168960 0
8.480000 0.193887 0
8.485000 0.219217 0
8.490000 0.244620 0
8.495000 0.269734 0
8.500000 0.294171 0
8.505000 0.317528 0
8.510000 0.339397 0
8.515000 0.359374 0
8.520000 0.377076 0
8.525000 0.392148 0
8.530000 0.404279 0
8.535000 0.413208 0
8.540000 0.418734 0
8.545000 0.420728 5
8.550000 0.419130 0
8.555000 0.413956 0
8.560000 0.405299 0
8.565000 0.393320 0
8.570000 0.378250 0
8.575000 0.360377 0
8.580000 0.340039 0
8.585000 0.317612 0
8.590000 0.293499 0
8.595000 0.268118 0
8.600000 0.241890 0
8.605000 0.215226 0
8.610000 0.188517 0
8.615000 0.162129 0
8.620000 0.136387 0
8.625000 0.111579 0
8.630000 0.087945 0
8.635000 0.065678 0
8.640000 0.044926 0
8.645000 0.025789 0
8.650000 0.008322 0
8.655000 -0.007455 0
8.660000 -0.021560 0
8.665000 -0.034039 0
8.670000 -0.044965 0
8.675000 -0.054426 0
8.680000 -0.062526 0
8.685000 -0.069379 0
8.690000 -0.075101 0
8.695000 -0.079810 0
8.700000 -0.083623 0
8.705000 -0.086650 0
8.710000 -0.088996 0
8.715000 -0.090757 0
8.720000 -0.092023 0
8.725000 -0.092871 0
8.730000 -0.093371 0
8.735000 -0.093585 0
8.740000 -0.093565 0
8.745000 -0.093355 0
8.750000 -0.092993 0
8.755000 -0.092512 0
8.760000 -0.091936 0
8.765000 -0.091092 0
8.770000 -0.090207 0
8.775000 -0.089326 0
8.780000 -0.088449 0
8.785000 -0.087577 0
8.790000 -0.086709 0
8.795000 -0.085845 0
8.800000 -0.084986 0
8.805000 -0.084131 0
8.810000 -0.083280 0
8.815000 -0.082434 0
8.820000 -0.081591 0
8.825000 -0.080753 0
8.830000 -0.079919 0
8.835000 -0.079090 0
8.840000 -0.078264 0
8.845000 -0.077442 0
8.850000 -0.076625 0
8.855000 -0.075811 0
8.860000 -0.075000 0
8.865000 -0.074193 0
8.870000 -0.073387 0
8.875000 -0.072582 0
8.880000 -0.071776 0
8.885000 -0.070963 0
8.890000 -0.070139 0
8.895000 -0.069293 0
8.900000 -0.068410 0
8.905000 -0.067468 0
8.910000 -0.066434 0
8.915000 -0.065263 0
8.920000 -0.063890 0
8.925000 -0.062230 0
8.930000 -0.060168 0
8.935000 -0.057562 0
8.940000 -0.054232 0
8.945000 -0.049965 0
8.950000 -0.044518 0
8.955000 -0.037623 0
8.960000 -0.029000 0
8.965000 -0.018380 0
8.970000 -0.005526 0
8.975000 0.009734 0
8.980000 0.027472 0
8.985000 0.047633 0
8.990000 0.069999 0
8.995000 0.094172 0
9.000000 0.119571 0
9.005000 0.145434 0
9.010000 0.170854 0
9.015000 0.194821 0
9.020000 0.216289 0
9.025000 0.234247 0
9.030000 0.247800 0
9.035000 0.256240 0
9.040000 0.259107 1
9.045000 0.256231 0
9.050000 0.247749 0
9.055000 0.234091 0
9.060000 0.215945 0
9.065000 0.194201 0
9.070000 0.169873 0
9.075000 0.144029 0
9.080000 0.117704 0
9.085000 0.091839 0
9.090000 0.067214 0
9.095000 0.044382 0
9.100000 0.023578 0
9.105000 0.004562 0
9.110000 -0.013619 0
9.115000 -0.032853 0
9.120000 -0.055912 0
9.125000 -0.085729 0
9.130000 -0.123746 0
9.135000 -0.167688 0
9.140000 -0.209844 0
9.145000 -0.237090 2
9.150000 -0.232929 0
9.155000 -0.180596 0
9.160000 -0.066214 0
9.165000 0.117391 0
9.170000 0.364667 0
9.175000 0.649993 0
9.180000 0.924797 0
9.185000 1.126484 0
9.190000 1.200000 3
9.195000 1.120859 0
9.200000 0.908309 0
9.205000 0.616083 0
9.210000 0.308140 0
9.215000 0.036610 0
9.220000 -0.167890 0
9.225000 -0.294615 0
9.230000 -0.347201 4
9.235000 -0.339350 0
9.240000 -0.291353 0
9.245000 -0.225434 0
9.250000 -0.160208 0
9.255000 -0.106783 0
9.260000 -0.068322 0
9.265000 -0.042541 0
9.270000 -0.025043 0
9.275000 -0.011726 0
9.280000 0.000242 0
9.285000 0.012459 0
9.290000 0.025702 0
9.295000 0.040307 0
9.300000 0.056406 0
9.305000 0.074033 0
9.310000 0.093169 0
9.315000 0.113749 0
9.320000 0.135663 0
9.325000 0.158755 0
9.330000 0.182824 0
9.335000 0.207621 0
9.340000 0.232852 0
9.345000 0.258184 0
9.350000 0.283250 0
9.355000 0.307657 0
9.360000 0.330992 0
9.365000 0.352841 0
9.370000 0.372791 0
9.375000 0.390452 0
9.380000 0.405462 0
9.385000 0.417502 0
9.390000 0.426306 0
9.395000 0.431674 0
9.400000 0.433472 5
9.405000 0.431643 0
9.410000 0.426208 0
9.415000 0.417264 0
9.420000 0.404980 0
9.425000 0.389597 0
9.430000 0.371412 0
9.435000 0.350774 0
9.440000 0.328069 0
9.445000 0.303711 0
9.450000 0.278127 0
9.455000 0.251744 0
9.460000 0.224979 0
9.465000 0.198228 0
9.470000 0.171857 0
9.475000 0.146193 0
9.480000 0.121518 0
9.485000 0.098070 0
9.490000 0.076036 0
9.495000 0.055556 0
9.500000 0.036721 0
9.505000 0.019581 0
9.510000 0.004145 0
9.515000 -0.009613 0
9.520000 -0.021747 0
9.525000 -0.032335 0
9.530000 -0.041473 0
9.535000 -0.049269 0
9.540000 -0.055841 0
9.545000 -0.061309 0
9.550000 -0.065792 0
9.555000 -0.069406 0
9.560000 -0.072264 0
9.565000 -0.074470 0
9.570000 -0.076118 0
9.575000 -0.077294 0
9.580000 -0.078077 0
9.585000 -0.078534 0
9.590000 -0.078722 0
9.595000 -0.078693 0
9.600000 -0.078489 0
9.605000 -0.078146 0
9.610000 -0.077693 0
9.615000 -0.077114 0
9.620000 -0.076298 0
9.625000 -0.075487 0
9.630000 -0.074679 0
9.635000 -0.073876 0
9.640000 -0.073076 0
9.645000 -0.072280 0
9.650000 -0.071489 0
9.655000 -0.070701 0
9.660000 -0.069917 0
9.665000 -0.069138 0
9.670000 -0.068362 0
9.675000 -0.067590 0
9.680000 -0.066821 0
9.685000 -0.066057 0
9.690000 -0.065296 0
9.695000 -0.064539 0
9.700000 -0.063786 0
9.705000 -0.063036 0
9.710000 -0.062290 0
9.715000 -0.061546 0
9.720000 -0.060804 0
9.725000 -0.060064 0
9.730000 -0.059322 0
9.735000 -0.058575 0
9.740000 -0.057819 0
9.745000 -0.057043 0
9.750000 -0.056235 0
9.755000 -0.055374 0
9.760000 -0.054431 0
9.765000 -0.053363 0
9.770000 -0.052109 0
9.775000 -0.050589 0
9.780000 -0.048693 0
9.785000 -0.046283 0
9.790000 -0.043184 0
9.795000 -0.039188 0
9.800000 -0.034051 0
9.805000 -0.027504 0
9.810000 -0.019264 0
9.815000 -0.009051 0
9.820000 0.003382 0
9.825000 0.018224 0
9.830000 0.035566 0
9.835000 0.055371 0
9.840000 0.077440 0
9.845000 0.101390 0
9.850000 0.126648 0
9.855000 0.152457 0
9.860000 0.177903 0
9.865000 0.201964 0
9.870000 0.223572 0
9.875000 0.241694 0
9.880000 0.255409 0
9.885000 0.263985 0
9.890000 0.266945 1
9.895000 0.264109 0
9.900000 0.255610 0
9.905000 0.241886 0
9.910000 0.223640 0
9.915000 0.201779 0
9.920000 0.177341 0
9.925000 0.151412 0
9.930000 0.125046 0
9.935000 0.099194 0
9.940000 0.074638 0
9.945000 0.051923 0
9.950000 0.031255 0
9.955000 0.012332 0
9.960000 -0.005905 0
9.965000 -0.025492 0
9.970000 -0.049329 0
9.975000 -0.080318 0
9.980000 -0.119534 0
9.985000 -0.163906 0
9.990000 -0.204641 0
9.995000 -0.227594 2
10.000000 -0.215668 0
10.005000 -0.152089 0
10.010000 -0.023706 0
10.015000 0.174688 0
10.020000 0.433590 0
10.025000 0.721521 0
10.030000 0.984273 0
10.035000 1.157604 0
10.040000 1.191578 3
10.045000 1.071397 0
10.050000 0.828292 0
10.055000 0.524281 0
10.060000 0.224043 0
10.065000 -0.025358 0
10.070000 -0.200119 0
10.075000 -0.295484 0
10.080000 -0.319974 4
10.085000 -0.291326 0
10.090000 -0.232309 0
10.095000 -0.164985 0
10.100000 -0.105179 0
10.105000 -0.060007 0
10.110000 -0.029283 0
10.115000 -0.009004 0
10.120000 0.005438 0
10.125000 0.017557 0
10.130000 0.029460 0
10.135000 0.042210 0
10.140000 0.056275 0
10.145000 0.071842 0
10.150000 0.088969 0
10.155000 0.107650 0
10.160000 0.127827 0
10.165000 0.149398 0
10.170000 0.172208 0
10.175000 0.196057 0
10.180000 0.220691 0
10.185000 0.245811 0
10.190000 0.271072 0
10.195000 0.296094 0
10.200000 0.320468 0
10.205000 0.343765 0
10.210000 0.365551 0
10.215000 0.385395 0
10.220000 0.402891 0
10.225000 0.417660 0
10.230000 0.429375 0
10.235000 0.437762 0
10.240000 0.442619 0
10.245000 0.443816 5
10.250000 0.441305 0
10.255000 0.435123 0
10.260000 0.425384 0
10.265000 0.412283 0
10.270000 0.396083 0
10.275000 0.377112 0
10.280000 0.355744 0
10.285000 0.332394 0
10.290000 0.307498 0
10.295000 0.281504 0
10.300000 0.254856 0
10.305000 0.227980 0
10.310000 0.201280 0
10.315000 0.175118 0
10.320000 0.149818 0
10.325000 0.125651 0
10.330000 0.102839 0
10.335000 0.081552 0
10.340000 0.061908 0
10.345000 0.043979 0
10.350000 0.027790 0
10.355000 0.013327 0
10.360000 0.000546 0
10.365000 -0.010627 0
10.370000 -0.020286 0
10.375000 -0.028543 0
10.380000 -0.035515 0
10.385000 -0.041329 0
10.390000 -0.046108 0
10.395000 -0.049977 0
10.400000 -0.053052 0
10.405000 -0.055443 0
10.410000 -0.057252 0
10.415000 -0.058569 0
10.420000 -0.059476 0
10.425000 -0.060043 0
10.430000 -0.060334 0
10.435000 -0.060401 0
10.440000 -0.060288 0
10.445000 -0.060032 0
10.450000 -0.059665 0
10.455000 -0.059172 0
10.460000 -0.058446 0
10.465000 -0.057723 0
10.470000 -0.057004 0
10.475000 -0.056289 0
10.480000 -0.055577 0
10.485000 -0.054869 0
10.490000 -0.054164 0
10.495000 -0.053463 0
10.500000 -0.052765 0
10.505000 -0.052071 0
10.510000 -0.051380 0
10.515000 -0.050692 0
10.520000 -0.050008 0
10.525000 -0.049328 0
10.530000 -0.048651 0
10.535000 -0.047977 0
10.540000 -0.047306 0
10.545000 -0.046638 0
10.550000 -0.045973 0
10.555000 -0.045310 0
10.560000 -0.044648 0
10.565000 -0.043986 0
10.570000 -0.043320 0
10.575000 -0.042646 0
10.580000 -0.041956 0
10.585000 -0.041238 0
10.590000 -0.040475 0
10.595000 -0.039638 0
10.600000 -0.038688 0
10.605000 -0.037567 0
10.610000 -0.036199 0
10.615000 -0.034476 0
10.620000 -0.032261 0
10.625000 -0.029381 0
10.630000 -0.025625 0
10.635000 -0.020743 0
10.640000 -0.014458 0
10.645000 -0.006475 0
10.650000 0.003498 0
10.655000 0.015726 0
10.660000 0.030408 0
10.665000 0.047646 0
10.670000 0.067403 0
10.675000 0.089470 0
10.680000 0.113443 0
10.685000 0.138715 0
10.690000 0.164480 0
10.695000 0.189774 0
10.700000 0.213520 0
10.705000 0.234604 0
10.710000 0.251959 0
10.715000 0.264654 0
10.720000 0.271974 0
10.725000 0.273485 1
10.730000 0.269080 0
10.735000 0.258983 0
10.740000 0.243735 0
10.745000 0.224145 0
10.750000 0.201211 0
10.755000 0.176046 0
10.760000 0.149779 0
10.765000 0.123476 0
10.770000 0.098063 0
10.775000 0.074258 0
10.780000 0.052481 0
10.785000 0.032719 0
10.790000 0.014288 0
10.795000 -0.004439 0
10.800000 -0.026138 0
10.805000 -0.054005 0
10.810000 -0.090211 0
10.815000 -0.133472 0
10.820000 -0.176853 0
10.825000 -0.207308 0
10.830000 -0.207629 2
10.835000 -0.159858 0
10.840000 -0.048870 0
10.845000 0.133408 0
10.850000 0.381318 0
10.855000 0.667228 0
10.860000 0.938528 0
10.865000 1.128470 0
10.870000 1.181182 3
10.875000 1.075520 0
10.880000 0.839775 0
10.885000 0.537356 0
10.890000 0.236357 0
10.895000 -0.013310 0
10.900000 -0.186587 0
10.905000 -0.278769 0
10.910000 -0.299241 4
10.915000 -0.267048 0
10.920000 -0.206195 0
10.925000 -0.139266 0
10.930000 -0.081634 0
10.935000 -0.039357 0
10.940000 -0.011237 0
10.945000 0.007261 0
10.950000 0.020785 0
10.955000 0.032630 0
10.960000 0.044655 0
10.965000 0.057743 0
10.970000 0.072263 0
10.975000 0.088354 0
10.980000 0.106047 0
10.985000 0.125315 0
10.990000 0.146077 0
10.995000 0.168203 0
11.000000 0.191509 0
11.005000 0.215757 0
11.010000 0.240657 0
11.015000 0.265870 0
11.020000 0.291013 0
11.025000 0.315669 0
11.030000 0.339396 0
11.035000 0.361739 0
11.040000 0.382244 0
11.045000 0.400476 0
11.050000 0.416028 0
11.055000 0.428540 0
11.060000 0.437710 0
11.065000 0.443307 0
11.070000 0.445179 5
11.075000 0.443260 0
11.080000 0.437572 0
11.085000 0.428224 0
11.090000 0.415411 0
11.095000 0.399401 0
11.100000 0.380533 0
11.105000 0.359197 0
11.110000 0.335826 0
11.115000 0.310876 0
11.120000 0.284817 0
11.125000 0.258113 0
11.130000 0.231209 0
11.135000 0.204523 0
11.140000 0.178432 0
11.145000 0.153265 0
11.150000 0.129300 0
11.155000 0.106758 0
11.160000 0.085806 0
11.165000 0.066556 0
11.170000 0.049069 0
11.175000 0.033361 0
11.180000 0.019408 0
11.185000 0.007152 0
11.190000 -0.003494 0
11.195000 -0.012634 0
11.200000 -0.020388 0
11.205000 -0.026884 0
11.210000 -0.032253 0
11.215000 -0.036625 0
11.220000 -0.040127 0
11.225000 -0.042877 0
11.230000 -0.044986 0
11.235000 -0.046553 0
11.240000 -0.047668 0
11.245000 -0.048410 0
11.250000 -0.048846 0
11.255000 -0.049036 0
11.260000 -0.049029 0
11.265000 -0.048865 0
11.270000 -0.048579 0
11.275000 -0.048199 0
11.280000 -0.047570 0
11.285000 -0.046901 0
11.290000 -0.046236 0
11.295000 -0.045575 0
11.300000 -0.044916 0
11.305000 -0.044261 0
11.310000 -0.043609 0
11.315000 -0.042961 0
11.320000 -0.042315 0
11.325000 -0.041673 0
11.330000 -0.041034 0
11.335000 -0.040398 0
11.340000 -0.039766 0
11.345000 -0.039136 0
11.350000 -0.038510 0
11.355000 -0.037886 0
11.360000 -0.037266 0
11.365000 -0.036648 0
11.370000 -0.036033 0
11.375000 -0.035419 0
11.380000 -0.034805 0
11.385000 -0.034190 0
11.390000 -0.033570 0
11.395000 -0.032939 0
11.400000 -0.032288 0
11.405000 -0.031603 0
11.410000 -0.030860 0
11.415000 -0.030026 0
11.420000 -0.029052 0
11.425000 -0.027870 0
11.430000 -0.026384 0
11.435000 -0.024468 0
11.440000 -0.021957 0
11.445000 -0.018648 0
11.450000 -0.014297 0
11.455000 -0.008625 0
11.460000 -0.001327 0
11.465000 0.007907 0
11.470000 0.019367 0
11.475000 0.033288 0
11.480000 0.049810 0
11.485000 0.068936 0
11.490000 0.090494 0
11.495000 0.114108 0
11.500000 0.139183 0
11.505000 0.164909 0
11.510000 0.190299 0
11.515000 0.214236 0
11.520000 0.235553 0
11.525000 0.253127 0
11.530000 0.265971 0
11.535000 0.273328 0
11.540000 0.274742 1
11.545000 0.270103 0
11.550000 0.259661 0
11.555000 0.244000 0
11.560000 0.223984 0
11.565000 0.200679 0
11.570000 0.175254 0
11.575000 0.148888 0
11.580000 0.122676 0
11.585000 0.097549 0
11.590000 0.074197 0
11.595000 0.052963 0
11.600000 0.033670 0
11.605000 0.015335 0
11.610000 -0.004107 0
11.615000 -0.027749 0
11.620000 -0.058785 0
11.625000 -0.098387 0
11.630000 -0.142962 0
11.635000 -0.182363 0
11.640000 -0.200552 2
11.645000 -0.178671 0
11.650000 -0.098962 0
11.655000 0.051153 0
11.660000 0.273183 0
11.665000 0.548814 0
11.670000 0.833027 0
11.675000 1.059176 0
11.680000 1.161418 3
11.685000 1.103762 0
11.690000 0.900792 0
11.695000 0.610056 0
11.700000 0.302870 0
11.705000 0.036732 0
11.710000 -0.156291 0
11.715000 -0.266899 0
11.720000 -0.301796 4
11.725000 -0.278661 0
11.730000 -0.221505 0
11.735000 -0.154273 0
11.740000 -0.094361 0
11.745000 -0.049564 0
11.750000 -0.019590 0
11.755000 -0.000061 0
11.760000 0.013890 0
11.765000 0.025836 0
11.770000 0.037823 0
11.775000 0.050830 0
11.780000 0.065270 0
11.785000 0.081294 0
11.790000 0.098942 0
11.795000 0.118187 0
11.800000 0.138948 0
11.805000 0.161094 0
11.810000 0.184436 0
11.815000 0.208732 0
11.820000 0.233682 0
11.825000 0.258939 0
11.830000 0.284108 0
11.835000 0.308761 0
11.840000 0.332443 0
11.845000 0.354688 0
11.850000 0.375032 0
11.855000 0.393030 0
11.860000 0.408271 0
11.865000 0.420391 0
11.870000 0.429092 0
11.875000 0.434146 0
11.880000 0.435413 5
11.885000 0.432840 0
11.890000 0.426465 0
11.895000 0.416418 0
11.900000 0.402915 0
11.905000 0.386248 0
11.910000 0.366776 0
11.915000 0.344913 0
11.920000 0.321108 0
11.925000 0.295836 0
11.930000 0.269576 0
11.935000 0.242799 0
11.940000 0.215955 0
11.945000 0.189459 0
11.950000 0.163683 0
11.955000 0.138944 0
11.960000 0.115509 0
11.965000 0.093583 0
11.970000 0.073315 0
11.975000 0.054799 0
11.980000 0.038079 0
11.985000 0.023153 0
11.990000 0.009980 0
11.995000 -0.001513 0
12.000000 -0.011423 0
12.005000 -0.019865 0
12.010000 -0.026967 0
12.015000 -0.032862 0
12.020000 -0.037684 0
12.025000 -0.041566 0
12.030000 -0.044632 0
12.035000 -0.046999 0
12.040000 -0.048776 0
12.045000 -0.050057 0
12.050000 -0.050929 0
12.055000 -0.051465 0
12.060000 -0.051730 0
12.065000 -0.051777 0
12.070000 -0.051652 0
12.075000 -0.051392 0
12.080000 -0.051027 0
12.085000 -0.050388 0
12.090000 -0.049706 0
12.095000 -0.049027 0
12.100000 -0.048351 0
12.105000 -0.047679 0
12.110000 -0.047010 0
12.115000 -0.046344 0
12.120000 -0.045682 0
12.125000 -0.045023 0
12.130000 -0.044367 0
12.135000 -0.043715 0
12.140000 -0.043066 0
12.145000 -0.042420 0
12.150000 -0.041777 0
12.155000 -0.041137 0
12.160000 -0.040501 0
12.165000 -0.039867 0
12.170000 -0.039237 0
12.175000 -0.038608 0
12.180000 -0.037982 0
12.185000 -0.037356 0
12.190000 -0.036729 0
12.195000 -0.036096 0
12.200000 -0.035454 0
12.205000 -0.034791 0
12.210000 -0.034093 0
12.215000 -0.033338 0
12.220000 -0.032491 0
12.225000 -0.031502 0
12.230000 -0.030299 0
12.235000 -0.028784 0
12.240000 -0.026825 0
12.245000 -0.024253 0
12.250000 -0.020855 0
12.255000 -0.016380 0
12.260000 -0.010535 0
12.265000 -0.003010 0
12.270000 0.006515 0
12.275000 0.018331 0
12.280000 0.032666 0
12.285000 0.049646 0
12.290000 0.069245 0
12.295000 0.091253 0
12.300000 0.115241 0
12.305000 0.140553 0
12.310000 0.166317 0
12.315000 0.191484 0
12.320000 0.214890 0
12.325000 0.235341 0
12.330000 0.251715 0
12.335000 0.263056 0
12.340000 0.268672 1
12.345000 0.268200 0
12.350000 0.261643 0
12.355000 0.249374 0
12.360000 0.232095 0
12.365000 0.210776 0
12.370000 0.186557 0
12.375000 0.160652 0
12.380000 0.134245 0
12.385000 0.108400 0
12.390000 0.083979 0
12.395000 0.061554 0
12.400000 0.041271 0
12.405000 0.022615 0
12.410000 0.004093 0
12.415000 -0.016961 0
12.420000 -0.043957 0
12.425000 -0.079462 0
12.430000 -0.122505 0
12.435000 -0.165975 0
12.440000 -0.195971 2
12.445000 -0.193999 0
12.450000 -0.140884 0
12.455000 -0.020913 0
12.460000 0.173085 0
12.465000 0.431639 0
12.470000 0.719573 0
12.475000 0.975242 0
12.480000 1.127394 3
12.485000 1.126078 0
12.490000 0.968962 0
12.495000 0.701253 0
12.500000 0.392272 0
12.505000 0.106054 0
12.510000 -0.116266 0
12.515000 -0.257906 0
12.520000 -0.320217 4
12.525000 -0.316995 0
12.530000 -0.270175 0
12.535000 -0.204295 0
12.540000 -0.139773 0
12.545000 -0.088246 0
12.550000 -0.052323 0
12.555000 -0.028862 0
12.560000 -0.012925 0
12.565000 -0.000330 0
12.570000 0.011571 0
12.575000 0.024146 0
12.580000 0.038004 0
12.585000 0.053387 0
12.590000 0.070374 0
12.595000 0.088966 0
12.600000 0.109110 0
12.605000 0.130700 0
12.610000 0.153575 0
12.615000 0.177524 0
12.620000 0.202279 0
12.625000 0.227518 0
12.630000 0.252876 0
12.635000 0.277945 0
12.640000 0.302288 0
12.645000 0.325448 0
12.650000 0.346964 0
12.655000 0.366386 0
12.660000 0.383285 0
12.665000 0.397276 0
12.670000 0.408025 0
12.675000 0.415268 0
12.680000 0.418816 5
12.685000 0.418565 0
12.690000 0.414501 0
12.695000 0.406701 0
12.700000 0.395326 0
12.705000 0.380623 0
12.710000 0.362906 0
12.715000 0.342554 0
12.720000 0.319990 0
12.725000 0.295670 0
12.730000 0.270066 0
12.735000 0.243650 0
12.740000 0.216883 0
12.745000 0.190197 0
12.750000 0.163989 0
12.755000 0.138608 0
12.760000 0.114353 0
12.765000 0.091466 0
12.770000 0.070132 0
12.775000 0.050482 0
12.780000 0.032591 0
12.785000 0.016490 0
12.790000 0.002164 0
12.795000 -0.010438 0
12.800000 -0.021394 0
12.805000 -0.030807 0
12.810000 -0.038795 0
12.815000 -0.045485 0
12.820000 -0.051010 0
12.825000 -0.055503 0
12.830000 -0.059092 0
12.835000 -0.061899 0
12.840000 -0.064039 0
12.845000 -0.065613 0
12.850000 -0.066716 0
12.855000 -0.067429 0
12.860000 -0.067822 0
12.865000 -0.067958 0
12.870000 -0.067888 0
12.875000 -0.067655 0
12.880000 -0.067293 0
12.885000 -0.066833 0
12.890000 -0.066113 0
12.895000 -0.065352 0
12.900000 -0.064595 0
12.905000 -0.063842 0
12.910000 -0.063092 0
12.915000 -0.062346 0
12.920000 -0.061604 0
12.925000 -0.060866 0
12.930000 -0.060131 0
12.935000 -0.059400 0
12.940000 -0.058673 0
12.945000 -0.057949 0
12.950000 -0.057229 0
12.955000 -0.056512 0
12.960000 -0.055799 0
12.965000 -0.055090 0
12.970000 -0.054383 0
12.975000 -0.053680 0
12.980000 -0.052980 0
12.985000 -0.052282 0
12.990000 -0.051584 0
12.995000 -0.050886 0
13.000000 -0.050182 0
13.005000 -0.049469 0
13.010000 -0.048735 0
13.015000 -0.047967 0
13.020000 -0.047142 0
13.025000 -0.046225 0
13.030000 -0.045167 0
13.035000 -0.043897 0
13.040000 -0.042318 0
13.045000 -0.040301 0
13.050000 -0.037678 0
13.055000 -0.034241 0
13.060000 -0.029741 0
13.065000 -0.023894 0
13.070000 -0.016388 0
13.075000 -0.006912 0
13.080000 0.004825 0
13.085000 0.019055 0
13.090000 0.035909 0
13.095000 0.055374 0
13.100000 0.077256 0
13.105000 0.101152 0
13.110000 0.126431 0
13.115000 0.152253 0
13.120000 0.177594 0
13.125000 0.201315 0
13.130000 0.222234 0
13.135000 0.239228 0
13.140000 0.251328 0
13.145000 0.257810 0
13.150000 0.258269 1
13.155000 0.252656 0
13.160000 0.241285 0
13.165000 0.224806 0
13.170000 0.204137 0
13.175000 0.180386 0
13.180000 0.154746 0
13.185000 0.128400 0
13.190000 0.102428 0
13.195000 0.077725 0
13.200000 0.054921 0
13.205000 0.034262 0
13.210000 0.015400 0
13.215000 -0.002906 0
13.220000 -0.023038 0
13.225000 -0.048291 0
13.230000 -0.081607 0
13.235000 -0.123136 0
13.240000 -0.167503 0
13.245000 -0.202561 0
13.250000 -0.210864 2
13.255000 -0.173241 0
13.260000 -0.072826 0
13.265000 0.100447 0
13.270000 0.342844 0
13.275000 0.627578 0
13.280000 0.900541 0
13.285000 1.091302 0
13.290000 1.140639 3
13.295000 1.031896 0
13.300000 0.795742 0
13.305000 0.493803 0
13.310000 0.192197 0
13.315000 -0.060101 0
13.320000 -0.237874 0
13.325000 -0.335623 0
13.330000 -0.361603 4
13.335000 -0.333589 0
13.340000 -0.274614 0
13.345000 -0.207085 0
13.350000 -0.147091 0
13.355000 -0.101840 0
13.360000 -0.071100 0
13.365000 -0.050787 0
13.370000 -0.036244 0
13.375000 -0.023951 0
13.380000 -0.011817 0
13.385000 0.001201 0
13.390000 0.015558 0
13.395000 0.031432 0
13.400000 0.048879 0
13.405000 0.067887 0
13.410000 0.088396 0
13.415000 0.110294 0
13.420000 0.133425 0
13.425000 0.157576 0
13.430000 0.182487 0
13.435000 0.207848 0
13.440000 0.233306 0
13.445000 0.258470 0
13.450000 0.282922 0
13.455000 0.306227 0
13.460000 0.327942 0
13.465000 0.347635 0
13.470000 0.364896 0
13.475000 0.379351 0
13.480000 0.390674 0
13.485000 0.398603 0
13.490000 0.402944 0
13.495000 0.403582 5
13.500000 0.400487 0
13.505000 0.393711 0
13.510000 0.383389 0
13.515000 0.369735 0
13.520000 0.353032 0
13.525000 0.333625 0
13.530000 0.311904 0
13.535000 0.288296 0
13.540000 0.263250 0
13.545000 0.237217 0
13.550000 0.210646 0
13.555000 0.183964 0
13.560000 0.157567 0
13.565000 0.131813 0
13.570000 0.107014 0
13.575000 0.083430 0
13.580000 0.061270 0
13.585000 0.040688 0
13.590000 0.021789 0
13.595000 0.004628 0
13.600000 -0.010782 0
13.605000 -0.024468 0
13.610000 -0.036485 0
13.615000 -0.046918 0
13.620000 -0.055869 0
13.625000 -0.063452 0
13.630000 -0.069793 0
13.635000 -0.075017 0
13.640000 -0.079252 0
13.645000 -0.082621 0
13.650000 -0.085238 0
13.655000 -0.087212 0
13.660000 -0.088641 0
13.665000 -0.089613 0
13.670000 -0.090206 0
13.675000 -0.090489 0
13.680000 -0.090518 0
13.685000 -0.090345 0
13.690000 -0.090010 0
13.695000 -0.089548 0
13.700000 -0.088987 0
13.705000 -0.088158 0
13.710000 -0.087287 0
13.715000 -0.086421 0
13.720000 -0.085559 0
13.725000 -0.084701 0
13.730000 -0.083847 0
13.735000 -0.082998 0
13.740000 -0.082153 0
13.745000 -0.081312 0
13.750000 -0.080475 0
13.755000 -0.079643 0
13.760000 -0.078815 0
13.765000 -0.077990 0
13.770000 -0.077170 0
13.775000 -0.076354 0
13.780000 -0.075542 0
13.785000 -0.074734 0
13.790000 -0.073930 0
13.795000 -0.073129 0
13.800000 -0.072331 0
13.805000 -0.071535 0
13.810000 -0.070740 0
13.815000 -0.069943 0
13.820000 -0.069141 0
13.825000 -0.068326 0
13.830000 -0.067489 0
13.835000 -0.066613 0
13.840000 -0.065673 0
13.845000 -0.064634 0
13.850000 -0.063443 0
13.855000 -0.062029 0
13.860000 -0.060291 0
13.865000 -0.058102 0
13.870000 -0.055294 0
13.875000 -0.051664 0
13.880000 -0.046969 0
13.885000 -0.040934 0
13.890000 -0.033262 0
13.895000 -0.023655 0
13.900000 -0.011834 0
13.905000 0.002421 0
13.910000 0.019237 0
13.915000 0.038611 0
13.920000 0.060368 0
13.925000 0.084141 0
13.930000 0.109351 0
13.935000 0.135219 0
13.940000 0.160790 0
13.945000 0.184988 0
13.950000 0.206684 0
13.955000 0.224782 0
13.960000 0.238313 0
13.965000 0.246515 0
13.970000 0.248907 1
13.975000 0.245335 0
13.980000 0.235987 0
13.985000 0.221378 0
13.990000 0.202300 0
13.995000 0.179751 0
14.000000 0.154851 0
14.005000 0.128747 0
14.010000 0.102529 0
14.015000 0.077147 0
14.020000 0.053345 0
14.025000 0.031572 0
14.030000 0.011838 0
14.035000 -0.006513 0
14.040000 -0.025092 0
14.045000 -0.046585 0
14.050000 -0.074230 0
14.055000 -0.110259 0
14.060000 -0.153409 0
14.065000 -0.196655 0
14.070000 -0.226740 2
14.075000 -0.226189 0
14.080000 -0.176817 0
14.085000 -0.063418 0
14.090000 0.121847 0
14.095000 0.372481 0
14.100000 0.659243 0
14.105000 0.927585 0
14.110000 1.109710 0
14.115000 1.150831 3
14.120000 1.038039 0
14.125000 0.801863 0
14.130000 0.500724 0
14.135000 0.197495 0
14.140000 -0.060268 0
14.145000 -0.246927 0
14.150000 -0.355540 0
14.155000 -0.392392 4
14.160000 -0.373050 0
14.165000 -0.318742 0
14.170000 -0.251348 0
14.175000 -0.187983 0
14.180000 -0.137815 0
14.185000 -0.102445 0
14.190000 -0.078809 0
14.195000 -0.062413 0
14.200000 -0.049413 0
14.205000 -0.037291 0
14.210000 -0.024679 0
14.215000 -0.010935 0
14.220000 0.004215 0
14.225000 0.020873 0
14.230000 0.039058 0
14.235000 0.058740 0
14.240000 0.079843 0
14.245000 0.102248 0
14.250000 0.125786 0
14.255000 0.150245 0
14.260000 0.175366 0
14.265000 0.200844 0
14.270000 0.226337 0
14.275000 0.251470 0
14.280000 0.275846 0
14.285000 0.299049 0
14.290000 0.320664 0
14.295000 0.340283 0
14.300000 0.357520 0
14.305000 0.372023 0
14.310000 0.383485 0
14.315000 0.391654 0
14.320000 0.396345 0
14.325000 0.397444 5
14.330000 0.394912 0
14.335000 0.388788 0
14.340000 0.379188 0
14.345000 0.366299 0
14.350000 0.350376 0
14.355000 0.331730 0
14.360000 0.310722 0
14.365000 0.287744 0
14.370000 0.263217 0
14.375000 0.237567 0
14.380000 0.211222 0
14.385000 0.184594 0
14.390000 0.158073 0
14.395000 0.132016 0
14.400000 0.106739 0
14.405000 0.082514 0
14.410000 0.059567 0
14.415000 0.038073 0
14.420000 0.018159 0
14.425000 -0.000093 0
14.430000 -0.016645 0
14.435000 -0.031496 0
14.440000 -0.044681 0
14.445000 -0.056260 0
14.450000 -0.066315 0
14.455000 -0.074948 0
14.460000 -0.082268 0
14.465000 -0.088394 0
14.470000 -0.093447 0
14.475000 -0.097545 0
14.480000 -0.100804 0
14.485000 -0.103334 0
14.490000 -0.105237 0
14.495000 -0.106606 0
14.500000 -0.107526 0
14.505000 -0.108070 0
14.510000 -0.108303 0
14.515000 -0.108284 0
14.520000 -0.108059 0
14.525000 -0.107669 0
14.530000 -0.107149 0
14.535000 -0.106527 0
14.540000 -0.105788 0
14.545000 -0.104829 0
14.550000 -0.103875 0
14.555000 -0.102926 0
14.560000 -0.101982 0
14.565000 -0.101042 0
14.570000 -0.100107 0
14.575000 -0.099177 0
14.580000 -0.098251 0
14.585000 -0.097330 0
14.590000 -0.096413 0
14.595000 -0.095501 0
14.600000 -0.094594 0
14.605000 -0.093691 0
14.610000 -0.092792 0
14.615000 -0.091898 0
14.620000 -0.091009 0
14.625000 -0.090123 0
14.630000 -0.089242 0
14.635000 -0.088365 0
14.640000 -0.087491 0
14.645000 -0.086619 0
14.650000 -0.085749 0
14.655000 -0.084877 0
14.660000 -0.084000 0
14.665000 -0.083111 0
14.670000 -0.082201 0
14.675000 -0.081255 0
14.680000 -0.080250 0
14.685000 -0.079153 0
14.690000 -0.077917 0
14.695000 -0.076477 0
14.700000 -0.074744 0
14.705000 -0.072603 0
14.710000 -0.069904 0
14.715000 -0.066464 0
14.720000 -0.062065 0
14.725000 -0.056454 0
14.730000 -0.049358 0
14.735000 -0.040492 0
14.740000 -0.029582 0
14.745000 -0.016393 0
14.750000 -0.000759 0
14.755000 0.017379 0
14.760000 0.037943 0
14.765000 0.060686 0
14.770000 0.085174 0
14.775000 0.110780 0
14.780000 0.136700 0
14.785000 0.161985 0
14.790000 0.185593 0
14.795000 0.206457 0
14.800000 0.223565 0
14.805000 0.236041 0
14.810000 0.243217 0
14.815000 0.244694 1
14.820000 0.240377 0
14.825000 0.230487 0
14.830000 0.215540 0
14.835000 0.196303 0
14.840000 0.173727 0
14.845000 0.148873 0
14.850000 0.122827 0
14.855000 0.096621 0
14.860000 0.071165 0
14.865000 0.047185 0
14.870000 0.025143 0
14.875000 0.005125 0
14.880000 -0.013356 0
14.885000 -0.031620 0
14.890000 -0.051981 0
14.895000 -0.077471 0
14.900000 -0.110703 0
14.905000 -0.151813 0
14.910000 -0.196208 0
14.915000 -0.233440 0
14.920000 -0.248212 2
14.925000 -0.223171 0
14.930000 -0.142214 0
14.935000 0.006096 0
14.940000 0.223587 0
14.945000 0.495120 0
14.950000 0.782302 0
14.955000 1.026085 0
14.960000 1.163534 3
14.965000 1.155463 0
14.970000 1.002064 0
14.975000 0.741743 0
14.980000 0.434372 0
14.985000 0.138127 0
14.990000 -0.106019 0
14.995000 -0.277689 0
15.000000 -0.373067 0
15.005000 -0.400000 4
15.010000 -0.374570 0
15.015000 -0.317617 0
15.020000 -0.249928 0
15.025000 -0.187325 0
15.030000 -0.138005 0
15.035000 -0.103149 0
15.040000 -0.079688 0
15.045000 -0.063290 0
15.050000 -0.050252 0
15.055000 -0.038127 0
15.060000 -0.025568 0
15.065000 -0.011927 0
15.070000 0.003078 0
15.075000 0.019553 0
15.080000 0.037525 0
15.085000 0.056971 0
15.090000 0.077824 0
15.095000 0.099976 0
15.100000 0.123276 0
15.105000 0.147527 0
15.110000 0.172490 0
15.115000 0.197884 0
15.120000 0.223388 0
15.125000 0.248651 0
15.130000 0.273296 0
15.135000 0.296927 0
15.140000 0.319145 0
15.145000 0.339554 0
15.150000 0.357772 0
15.155000 0.373447 0
15.160000 0.386263 0
15.165000 0.395954 0
15.170000 0.402312 0
15.175000 0.405192 5
15.180000 0.404522 0
15.185000 0.400300 0
15.190000 0.392598 0
15.195000 0.381558 0
15.200000 0.367389 0
15.205000 0.350359 0
15.210000 0.330786 0
15.215000 0.309030 0
15.220000 0.285480 0
15.225000 0.260542 0
15.230000 0.234630 0
15.235000 0.208151 0
15.240000 0.181497 0
15.245000 0.155035 0
15.250000 0.129101 0
15.255000 0.103991 0
15.260000 0.079958 0
15.265000 0.057210 0
15.270000 0.035909 0
15.275000 0.016172 0
15.280000 -0.001928 0
15.285000 -0.018357 0
15.290000 -0.033119 0
15.295000 -0.046247 0
15.300000 -0.057800 0
15.305000 -0.067859 0
15.310000 -0.076519 0
15.315000 -0.083888 0
15.320000 -0.090078 0
15.325000 -0.095206 0
15.330000 -0.099387 0
15.335000 -0.102732 0
15.340000 -0.105349 0
15.345000 -0.107335 0
15.350000 -0.108783 0
15.355000 -0.109774 0
15.360000 -0.110383 0
15.365000 -0.110673 0
15.370000 -0.110702 0
15.375000 -0.110518 0
15.380000 -0.110162 0
15.385000 -0.109668 0
15.390000 -0.109066 0
15.395000 -0.108379 0
15.400000 -0.107449 0
15.405000 -0.106482 0
15.410000 -0.105520 0
15.415000 -0.104562 0
15.420000 -0.103610 0
15.425000 -0.102662 0
15.430000 -0.101719 0
15.435000 -0.100780 0
15.440000 -0.099847 0
15.445000 -0.098918 0
15.450000 -0.097993 0
15.455000 -0.097073 0
15.460000 -0.096158 0
15.465000 -0.095247 0
15.470000 -0.094341 0
15.475000 -0.093439 0
15.480000 -0.092542 0
15.485000 -0.091649 0
15.490000 -0.090760 0
15.495000 -0.089875 0
15.500000 -0.088993 0
15.505000 -0.088113 0
15.510000 -0.087234 0
15.515000 -0.086354 0
15.520000 -0.085467 0
15.525000 -0.084568 0
15.530000 -0.083647 0
15.535000 -0.082689 0
15.540000 -0.081670 0
15.545000 -0.080558 0
15.550000 -0.079308 0
15.555000 -0.077855 0
15.560000 -0.076114 0
15.565000 -0.073972 0
15.570000 -0.071289 0
15.575000 -0.067888 0
15.580000 -0.063561 0
15.585000 -0.058068 0
15.590000 -0.051147 0
15.595000 -0.042524 0
15.600000 -0.031934 0
15.605000 -0.019143 0
15.610000 -0.003979 0
15.615000 0.013639 0
15.620000 0.033664 0
15.625000 0.055898 0
15.630000 0.079969 0
15.635000 0.105322 0
15.640000 0.131230 0
15.645000 0.156819 0
15.650000 0.181109 0
15.655000 0.203072 0
15.660000 0.221709 0
15.665000 0.236117 0
15.670000 0.245567 0
15.675000 0.249559 1
15.680000 0.247872 0
15.685000 0.240581 0
15.690000 0.228049 0
15.695000 0.210902 0
15.700000 0.189971 0
15.705000 0.166233 0
15.710000 0.140726 0
15.715000 0.114482 0
15.720000 0.088456 0
15.725000 0.063462 0
15.730000 0.040113 0
15.735000 0.018745 0
15.740000 -0.000713 0
15.745000 -0.018949 0
15.750000 -0.037501 0
15.755000 -0.058839 0
15.760000 -0.085923 0
15.765000 -0.120926 0
15.770000 -0.163193 0
15.775000 -0.207259 0
15.780000 -0.242134 0
15.785000 -0.252593 2
15.790000 -0.221913 0
15.795000 -0.134934 0
15.800000 0.018722 0
15.805000 0.239875 0
15.810000 0.512851 0
15.815000 0.799857 0
15.820000 1.043783 0
15.825000 1.183974 3
15.830000 1.180072 0
15.835000 1.030300 0
15.840000 0.772127 0
15.845000 0.465126 0
15.850000 0.167779 0
15.855000 -0.078360 0
15.860000 -0.252363 0
15.865000 -0.350012 0
15.870000 -0.378864 4
15.875000 -0.354800 0
15.880000 -0.298574 0
15.885000 -0.231047 0
15.890000 -0.168236 0
15.895000 -0.118573 0
15.900000 -0.083414 0
15.905000 -0.059773 0
15.910000 -0.043322 0
15.915000 -0.030325 0
15.920000 -0.018299 0
15.925000 -0.005866 0
15.930000 0.007636 0
15.935000 0.022495 0
15.940000 0.038824 0
15.945000 0.056651 0
15.950000 0.075952 0
15.955000 0.096664 0
15.960000 0.118679 0
15.965000 0.141847 0
15.970000 0.165974 0
15.975000 0.190823 0
15.980000 0.216111 0
15.985000 0.241523 0
15.990000 0.266705 0
15.995000 0.291282 0
16.000000 0.314860 0
16.005000 0.337039 0
16.010000 0.357422 0
16.015000 0.375627 0
16.020000 0.391302 0
16.025000 0.404128 0
16.030000 0.413839 0
16.035000 0.420224 0
16.040000 0.423137 5
16.045000 0.422501 0
16.050000 0.418313 0
16.055000 0.410642 0
16.060000 0.399628 0
16.065000 0.385477 0
16.070000 0.368455 0
16.075000 0.348880 0
16.080000 0.327110 0
16.085000 0.303531 0
16.090000 0.278551 0
16.095000 0.252581 0
16.100000 0.226031 0
16.105000 0.199292 0
16.110000 0.172734 0
16.115000 0.146691 0
16.120000 0.121463 0
16.125000 0.097303 0
16.130000 0.074422 0
16.135000 0.052983 0
16.140000 0.033104 0
16.145000 0.014861 0
16.150000 -0.001713 0
16.155000 -0.016618 0
16.160000 -0.029887 0
16.165000 -0.041579 0
16.170000 -0.051772 0
16.175000 -0.060563 0
16.180000 -0.068058 0
16.185000 -0.074370 0
16.190000 -0.079615 0
16.195000 -0.083907 0
16.200000 -0.087360 0
16.205000 -0.090080 0
16.210000 -0.092165 0
16.215000 -0.093708 0
16.220000 -0.094791 0
16.225000 -0.095488 0
16.230000 -0.095865 0
16.235000 -0.095977 0
16.240000 -0.095874 0
16.245000 -0.095597 0
16.250000 -0.095182 0
16.255000 -0.094656 0
16.260000 -0.094044 0
16.265000 -0.093186 0
16.270000 -0.092290 0
16.275000 -0.091399 0
16.280000 -0.090512 0
16.285000 -0.089629 0
16.290000 -0.088751 0
16.295000 -0.087877 0
16.300000 -0.087008 0
16.305000 -0.086143 0
16.310000 -0.085282 0
16.315000 -0.084425 0
16.320000 -0.083573 0
16.325000 -0.082725 0
16.330000 -0.081882 0
16.335000 -0.081042 0
16.340000 -0.080207 0
16.345000 -0.079375 0
16.350000 -0.078548 0
16.355000 -0.077724 0
16.360000 -0.076904 0
16.365000 -0.076087 0
16.370000 -0.075272 0
16.375000 -0.074457 0
16.380000 -0.073641 0
16.385000 -0.072818 0
16.390000 -0.071983 0
16.395000 -0.071127 0
16.400000 -0.070233 0
16.405000 -0.069280 0
16.410000 -0.068235 0
16.415000 -0.067054 0
16.420000 -0.065674 0
16.425000 -0.064009 0
16.430000 -0.061950 0
16.435000 -0.059356 0
16.440000 -0.056054 0
16.445000 -0.051835 0
16.450000 -0.046463 0
16.455000 -0.039675 0
16.460000 -0.031198 0
16.465000 -0.020766 0
16.470000 -0.008144 0
16.475000 0.006846 0
16.480000 0.024288 0
16.485000 0.044143 0
16.490000 0.066220 0
16.495000 0.090155 0
16.500000 0.115404 0
16.505000 0.141249 0
16.510000 0.166819 0
16.515000 0.191140 0
16.520000 0.213187 0
16.525000 0.231955 0
16.530000 0.246537 0
16.535000 0.256192 0
16.540000 0.260410 1
16.545000 0.258954 0
16.550000 0.251884 0
16.555000 0.239550 0
16.560000 0.222563 0
16.565000 0.201749 0
16.570000 0.178075 0
16.575000 0.152580 0
16.580000 0.126298 0
16.585000 0.100187 0
16.590000 0.075071 0
16.595000 0.051574 0
16.600000 0.030050 0
16.605000 0.010452 0
16.610000 -0.007868 0
16.615000 -0.026401 0
16.620000 -0.047570 0
16.625000 -0.074333 0
16.630000 -0.108950 0
16.635000 -0.150972 0
16.640000 -0.195220 0
16.645000 -0.230990 0
16.650000 -0.243221 2
16.655000 -0.215201 0
16.660000 -0.131613 0
16.665000 0.018275 0
16.670000 0.235959 0
16.675000 0.506843 0
16.680000 0.794377 0
16.685000 1.042228 0
16.690000 1.189361 0
16.695000 1.193719 3
16.700000 1.049507 0
16.705000 0.793147 0
16.710000 0.486188 0
16.715000 0.189361 0
16.720000 -0.054516 0
16.725000 -0.224391 0
16.730000 -0.316654 0
16.735000 -0.339903 4
16.740000 -0.311274 0
16.745000 -0.252600 0
16.750000 -0.185134 0
16.755000 -0.124402 0
16.760000 -0.077775 0
16.765000 -0.045553 0
16.770000 -0.024114 0
16.775000 -0.008986 0
16.780000 0.003406 0
16.785000 0.015299 0
16.790000 0.027868 0
16.795000 0.041650 0
16.800000 0.056871 0
16.805000 0.073609 0
16.810000 0.091873 0
16.815000 0.111623 0
16.820000 0.132772 0
16.825000 0.155191 0
16.830000 0.178705 0
16.835000 0.203088 0
16.840000 0.228073 0
16.845000 0.253348 0
16.850000 0.278562 0
16.855000 0.303337 0
16.860000 0.327268 0
16.865000 0.349942 0
16.870000 0.370942 0
16.875000 0.389866 0
16.880000 0.406334 0
16.885000 0.420001 0
16.890000 0.430572 0
16.895000 0.437809 0
16.900000 0.441541 0
16.905000 0.441668 5
16.910000 0.438169 0
16.915000 0.431098 0
16.920000 0.420585 0
16.925000 0.406834 0
16.930000 0.390109 0
16.935000 0.370735 0
16.940000 0.349077 0
16.945000 0.325536 0
16.950000 0.300533 0
16.955000 0.274496 0
16.960000 0.247850 0
16.965000 0.221004 0
16.970000 0.194341 0
16.975000 0.168209 0
16.980000 0.142917 0
16.985000 0.118727 0
16.990000 0.095855 0
16.995000 0.074465 0
17.000000 0.054676 0
17.005000 0.036560 0
17.010000 0.020147 0
17.015000 0.005431 0
17.020000 -0.007628 0
17.025000 -0.019095 0
17.030000 -0.029057 0
17.035000 -0.037617 0
17.040000 -0.044887 0
17.045000 -0.050985 0
17.050000 -0.056033 0
17.055000 -0.060149 0
17.060000 -0.063448 0
17.065000 -0.066037 0
17.070000 -0.068017 0
17.075000 -0.069480 0
17.080000 -0.070507 0
17.085000 -0.071172 0
17.090000 -0.071537 0
17.095000 -0.071657 0
17.100000 -0.071580 0
17.105000 -0.071345 0
17.110000 -0.070984 0
17.115000 -0.070525 0
17.120000 -0.069789 0
17.125000 -0.069010 0
17.130000 -0.068235 0
17.135000 -0.067463 0
17.140000 -0.066696 0
17.145000 -0.065932 0
17.150000 -0.065172 0
17.155000 -0.064416 0
17.160000 -0.063664 0
17.165000 -0.062915 0
17.170000 -0.062170 0
17.175000 -0.061429 0
17.180000 -0.060691 0
17.185000 -0.059957 0
17.190000 -0.059227 0
17.195000 -0.058501 0
17.200000 -0.057778 0
17.205000 -0.057058 0
17.210000 -0.056341 0
17.215000 -0.055628 0
17.220000 -0.054917 0
17.225000 -0.054207 0
17.230000 -0.053498 0
17.235000 -0.052785 0
17.240000 -0.052066 0
17.245000 -0.051333 0
17.250000 -0.050575 0
17.255000 -0.049777 0
17.260000 -0.048914 0
17.265000 -0.047952 0
17.270000 -0.046839 0
17.275000 -0.045507 0
17.280000 -0.043864 0
17.285000 -0.041786 0
17.290000 -0.039121 0
17.295000 -0.035678 0
17.300000 -0.031232 0
17.305000 -0.025527 0
17.310000 -0.018287 0
17.315000 -0.009226 0
17.320000 0.001925 0
17.325000 0.015389 0
17.330000 0.031317 0
17.335000 0.049747 0
17.340000 0.070571 0
17.345000 0.093513 0
17.350000 0.118103 0
17.355000 0.143684 0
17.360000 0.169424 0
17.365000 0.194353 0
17.370000 0.217421 0
17.375000 0.237566 0
17.380000 0.253795 0
17.385000 0.265261 0
17.390000 0.271341 0
17.395000 0.271686 1
17.400000 0.266256 0
17.405000 0.255323 0
17.410000 0.239450 0
17.415000 0.219440 0
17.420000 0.196268 0
17.425000 0.171004 0
17.430000 0.144728 0
17.435000 0.118458 0
17.440000 0.093075 0
17.445000 0.069267 0
17.450000 0.047441 0
17.455000 0.027604 0
17.460000 0.009149 0
17.465000 -0.009404 0
17.470000 -0.030525 0
17.475000 -0.057280 0
17.480000 -0.092031 0
17.485000 -0.134277 0
17.490000 -0.178489 0
17.495000 -0.213301 0
17.500000 -0.222867 2
17.505000 -0.189827 0
17.510000 -0.098602 0
17.515000 0.061075 0
17.520000 0.288816 0
17.525000 0.566017 0
17.530000 0.850442 0
17.535000 1.080956 0
17.540000 1.196392 3
17.545000 1.158521 0
17.550000 0.974495 0
17.555000 0.694100 0
17.560000 0.384585 0
17.565000 0.104455 0
17.570000 -0.110196 0
17.575000 -0.245490 0
17.580000 -0.303848 4
17.585000 -0.298974 0
17.590000 -0.251979 0
17.595000 -0.186286 0
17.600000 -0.121497 0
17.605000 -0.069074 0
17.610000 -0.031969 0
17.615000 -0.007483 0
17.620000 0.009069 0
17.625000 0.021854 0
17.630000 0.033624 0
17.635000 0.045868 0
17.640000 0.059276 0
17.645000 0.074134 0
17.650000 0.090546 0
17.655000 0.108531 0
17.660000 0.128050 0
17.665000 0.149019 0
17.670000 0.171304 0
17.675000 0.194722 0
17.680000 0.219038 0
17.685000 0.243966 0
17.690000 0.269177 0
17.695000 0.294298 0
17.700000 0.318927 0
17.705000 0.342635 0
17.710000 0.364985 0
17.715000 0.385540 0
17.720000 0.403876 0
17.725000 0.419601 0
17.730000 0.432364 0
17.735000 0.441869 0
17.740000 0.447885 0
17.745000 0.450257 5
17.750000 0.448908 0
17.755000 0.443848 0
17.760000 0.435168 0
17.765000 0.423039 0
17.770000 0.407708 0
17.775000 0.389486 0
17.780000 0.368740 0
17.785000 0.345878 0
17.790000 0.321337 0
17.795000 0.295566 0
17.800000 0.269016 0
17.805000 0.242125 0
17.810000 0.215307 0
17.815000 0.188940 0
17.820000 0.163362 0
17.825000 0.138860 0
17.830000 0.115671 0
17.835000 0.093979 0
17.840000 0.073916 0
17.845000 0.055564 0
17.850000 0.038958 0
17.855000 0.024095 0
17.860000 0.010933 0
17.865000 -0.000596 0
17.870000 -0.010583 0
17.875000 -0.019137 0
17.880000 -0.026377 0
17.885000 -0.032430 0
17.890000 -0.037420 0
17.895000 -0.041474 0
17.900000 -0.044711 0
17.905000 -0.047243 0
17.910000 -0.049174 0
17.915000 -0.050598 0
17.920000 -0.051597 0
17.925000 -0.052247 0
17.930000 -0.052610 0
17.935000 -0.052741 0
17.940000 -0.052685 0
17.945000 -0.052483 0
17.950000 -0.052165 0
17.955000 -0.051716 0
17.960000 -0.051027 0
17.965000 -0.050342 0
17.970000 -0.049659 0
17.975000 -0.048981 0
17.980000 -0.048305 0
17.985000 -0.047633 0
17.990000 -0.046964 0
17.995000 -0.046299 0
18.000000 -0.045637 0
18.005000 -0.044978 0
18.010000 -0.044323 0
18.015000 -0.043671 0
18.020000 -0.043022 0
18.025000 -0.042376 0
18.030000 -0.041733 0
18.035000 -0.041094 0
18.040000 -0.040458 0
18.045000 -0.039824 0
18.050000 -0.039193 0
18.055000 -0.038564 0
18.060000 -0.037935 0
18.065000 -0.037306 0
18.070000 -0.036674 0
18.075000 -0.036032 0
18.080000 -0.035375 0
18.085000 -0.034689 0
18.090000 -0.033956 0
18.095000 -0.033147 0
18.100000 -0.032223 0
18.105000 -0.031123 0
18.110000 -0.029769 0
18.115000 -0.028051 0
18.120000 -0.025829 0
18.125000 -0.022923 0
18.130000 -0.019118 0
18.135000 -0.014160 0
18.140000 -0.007766 0
18.145000 0.000363 0
18.150000 0.010521 0
18.155000 0.022969 0
18.160000 0.037902 0
18.165000 0.055408 0
18.170000 0.075431 0
18.175000 0.097738 0
18.180000 0.121895 0
18.185000 0.147260 0
18.190000 0.172996 0
18.195000 0.198107 0
18.200000 0.221495 0
18.205000 0.242036 0
18.210000 0.258669 0
18.215000 0.270481 0
18.220000 0.276793 0
18.225000 0.277224 1
18.230000 0.271723 0
18.235000 0.260580 0
18.240000 0.244396 0
18.245000 0.224031 0
18.250000 0.200526 0
18.255000 0.175015 0
18.260000 0.148631 0
18.265000 0.122428 0
18.270000 0.097301 0
18.275000 0.073917 0
18.280000 0.052614 0
18.285000 0.033242 0
18.290000 0.014905 0
18.295000 -0.004311 0
18.300000 -0.027328 0
18.305000 -0.057302 0
18.310000 -0.095759 0
18.315000 -0.140038 0
18.320000 -0.181380 0
18.325000 -0.205142 2
18.330000 -0.193348 0
18.335000 -0.128311 0
18.340000 0.003669 0
18.345000 0.207426 0
18.350000 0.471275 0
18.355000 0.759262 0
18.360000 1.011744 0
18.365000 1.161649 0
18.370000 1.162346 3
18.375000 1.008667 0
18.380000 0.743093 0
18.385000 0.434180 0
18.390000 0.146051 0
18.395000 -0.079516 0
18.400000 -0.224989 0
18.405000 -0.291051 4
18.410000 -0.290895 0
18.415000 -0.245995 0
18.420000 -0.180742 0
18.425000 -0.115819 0
18.430000 -0.063383 0
18.435000 -0.026549 0
18.440000 -0.002463 0
18.445000 0.013755 0
18.450000 0.026365 0
18.455000 0.038119 0
18.460000 0.050462 0
18.465000 0.064048 0
18.470000 0.079139 0
18.475000 0.095826 0
18.480000 0.114115 0
18.485000 0.133958 0
18.490000 0.155256 0
18.495000 0.177856 0
18.500000 0.201554 0
18.505000 0.226090 0
18.510000 0.251152 0
18.515000 0.276382 0
18.520000 0.301382 0
18.525000 0.325718 0
18.530000 0.348942 0
18.535000 0.370595 0
18.540000 0.390227 0
18.545000 0.407410 0
18.550000 0.421752 0
18.555000 0.432914 0
18.560000 0.440622 0
18.565000 0.444675 0
18.570000 0.444956 5
18.575000 0.441434 0
18.580000 0.434171 0
18.585000 0.423312 0
18.590000 0.409086 0
18.595000 0.391795 0
18.600000 0.371802 0
18.605000 0.349519 0
18.610000 0.325395 0
18.615000 0.299896 0
18.620000 0.273491 0
18.625000 0.246642 0
18.630000 0.219783 0
18.635000 0.193319 0
18.640000 0.167605 0
18.645000 0.142951 0
18.650000 0.119611 0
18.655000 0.097780 0
18.660000 0.077601 0
18.665000 0.059163 0
18.670000 0.042504 0
18.675000 0.027622 0
18.680000 0.014475 0
18.685000 0.002991 0
18.690000 -0.006927 0
18.695000 -0.015392 0
18.700000 -0.022528 0
18.705000 -0.028467 0
18.710000 -0.033340 0
18.715000 -0.037277 0
18.720000 -0.040400 0
18.725000 -0.042826 0
18.730000 -0.044660 0
18.735000 -0.045997 0
18.740000 -0.046921 0
18.745000 -0.047507 0
18.750000 -0.047818 0
18.755000 -0.047907 0
18.760000 -0.047821 0
18.765000 -0.047597 0
18.770000 -0.047265 0
18.775000 -0.046814 0
18.780000 -0.046150 0
18.785000 -0.045488 0
18.790000 -0.044830 0
18.795000 -0.044176 0
18.800000 -0.043524 0
18.805000 -0.042876 0
18.810000 -0.042231 0
18.815000 -0.041589 0
18.820000 -0.040951 0
18.825000 -0.040315 0
18.830000 -0.039683 0
18.835000 -0.039054 0
18.840000 -0.038428 0
18.845000 -0.037805 0
18.850000 -0.037185 0
18.855000 -0.036569 0
18.860000 -0.035954 0
18.865000 -0.035343 0
18.870000 -0.034733 0
18.875000 -0.034125 0
18.880000 -0.033515 0
18.885000 -0.032903 0
18.890000 -0.032282 0
18.895000 -0.031645 0
18.900000 -0.030981 0
18.905000 -0.030270 0
18.910000 -0.029484 0
18.915000 -0.028580 0
18.920000 -0.027498 0
18.925000 -0.026155 0
18.930000 -0.024436 0
18.935000 -0.022192 0
18.940000 -0.019237 0
18.945000 -0.015339 0
18.950000 -0.010233 0
18.955000 -0.003620 0
18.960000 0.004812 0
18.965000 0.015365 0
18.970000 0.028303 0
18.975000 0.043808 0
18.980000 0.061940 0
18.985000 0.082600 0
18.990000 0.105490 0
18.995000 0.130095 0
19.000000 0.155682 0
19.005000 0.181320 0
19.010000 0.205927 0
19.015000 0.228340 0
19.020000 0.247403 0
19.025000 0.262062 0
19.030000 0.271465 0
19.035000 0.275036 1
19.040000 0.272538 0
19.045000 0.264094 0
19.050000 0.250177 0
19.055000 0.231564 0
19.060000 0.209267 0
19.065000 0.184435 0
19.070000 0.158260 0
19.075000 0.131880 0
19.080000 0.106294 0
19.085000 0.082289 0
19.090000 0.060339 0
19.095000 0.040467 0
19.100000 0.021985 0
19.105000 0.003196 0
19.110000 -0.018722 0
19.115000 -0.047121 0
19.120000 -0.084119 0
19.125000 -0.127902 0
19.130000 -0.170412 0
19.135000 -0.197145 2
19.140000 -0.189617 0
19.145000 -0.129231 0
19.150000 -0.001268 0
19.155000 0.199975 0
19.160000 0.463066 0
19.165000 0.750982 0
19.170000 1.001607 0
19.175000 1.145409 3
19.180000 1.135619 0
19.185000 0.971624 0
19.190000 0.700032 0
19.195000 0.390747 0
19.200000 0.107062 0
19.205000 -0.111157 0
19.210000 -0.248253 0
19.215000 -0.306408 4
19.220000 -0.300037 0
19.225000 -0.251463 0
19.230000 -0.185229 0
19.235000 -0.121360 0
19.240000 -0.070913 0
19.245000 -0.036015 0
19.250000 -0.013285 0
19.255000 0.002236 0
19.260000 0.014643 0
19.265000 0.026488 0
19.270000 0.039072 0
19.275000 0.052968 0
19.280000 0.068401 0
19.285000 0.085443 0
19.290000 0.104091 0
19.295000 0.124286 0
19.300000 0.145919 0
19.305000 0.168824 0
19.310000 0.192785 0
19.315000 0.217528 0
19.320000 0.242728 0
19.325000 0.268012 0
19.330000 0.292970 0
19.335000 0.317161 0
19.340000 0.340127 0
19.345000 0.361404 0
19.350000 0.380543 0
19.355000 0.397117 0
19.360000 0.410745 0
19.365000 0.421099 0
19.370000 0.427919 0
19.375000 0.431025 5
19.380000 0.430322 0
19.385000 0.425805 0
19.390000 0.417559 0
19.395000 0.405757 0
19.400000 0.390652 0
19.405000 0.372569 0
19.410000 0.351891 0
19.415000 0.329048 0
19.420000 0.304500 0
19.425000 0.278720 0
19.430000 0.252182 0
19.435000 0.225345 0
19.440000 0.198638 0
19.445000 0.172454 0
19.450000 0.147137 0
19.455000 0.122981 0
19.460000 0.100220 0
19.465000 0.079035 0
19.470000 0.059548 0
19.475000 0.041830 0
19.480000 0.025904 0
19.485000 0.011751 0
19.490000 -0.000684 0
19.495000 -0.011483 0
19.500000 -0.020752 0
19.505000 -0.028611 0
19.510000 -0.035188 0
19.515000 -0.040617 0
19.520000 -0.045030 0
19.525000 -0.048555 0
19.530000 -0.051314 0
19.535000 -0.053420 0
19.540000 -0.054974 0
19.545000 -0.056069 0
19.550000 -0.056783 0
19.555000 -0.057188 0
19.560000 -0.057343 0
19.565000 -0.057298 0
19.570000 -0.057095 0
19.575000 -0.056769 0
19.580000 -0.056348 0
19.585000 -0.055678 0
19.590000 -0.054969 0
19.595000 -0.054264 0
19.600000 -0.053562 0
19.605000 -0.052864 0
19.610000 -0.052169 0
19.615000 -0.051478 0
19.620000 -0.050790 0
19.625000 -0.050106 0
19.630000 -0.049425 0
19.635000 -0.048747 0
19.640000 -0.048073 0
19.645000 -0.047402 0
19.650000 -0.046734 0
19.655000 -0.046070 0
19.660000 -0.045409 0
19.665000 -0.044751 0
19.670000 -0.044095 0
19.675000 -0.043443 0
19.680000 -0.042792 0
19.685000 -0.042141 0
19.690000 -0.041488 0
19.695000 -0.040830 0
19.700000 -0.040159 0
19.705000 -0.039466 0
19.710000 -0.038735 0
19.715000 -0.037940 0
19.720000 -0.037045 0
19.725000 -0.035996 0
19.730000 -0.034718 0
19.735000 -0.033108 0
19.740000 -0.031028 0
19.745000 -0.028302 0
19.750000 -0.024713 0
19.755000 -0.020004 0
19.760000 -0.013883 0
19.765000 -0.006036 0
19.770000 0.003848 0
19.775000 0.016052 0
19.780000 0.030790 0
19.785000 0.048166 0
19.790000 0.068132 0
19.795000 0.090451 0
19.800000 0.114668 0
19.805000 0.140104 0
19.810000 0.165873 0
19.815000 0.190917 0
19.820000 0.214075 0
19.825000 0.234169 0
19.830000 0.250096 0
19.835000 0.260934 0
19.840000 0.266026 1
19.845000 0.265042 0
19.850000 0.258019 0
19.855000 0.245353 0
19.860000 0.227765 0
19.865000 0.206229 0
19.870000 0.181885 0
19.875000 0.155935 0
19.880000 0.129549 0
19.885000 0.103771 0
19.890000 0.079445 0
19.895000 0.057123 0
19.900000 0.036928 0
19.905000 0.018322 0
19.910000 -0.000207 0
19.915000 -0.021326 0
19.920000 -0.048419 0
19.925000 -0.084001 0
19.930000 -0.127059 0
19.935000 -0.170501 0
19.940000 -0.200548 2
19.945000 -0.198879 0
19.950000 -0.146484 0
19.955000 -0.027722 0
19.960000 0.164717 0
19.965000 0.421923 0
19.970000 0.709788 0
19.975000 0.967880 0
19.980000 1.125427 0
19.985000 1.131459 3
19.990000 0.981605 0
19.995000 0.718575 0
20.000000 0.410135 0
20.005000 0.120475 0
20.010000 -0.107999 0
20.015000 -0.257000 0
20.020000 -0.326537 0
20.025000 -0.329200 4
20.030000 -0.285986 0
20.035000 -0.221119 0
20.040000 -0.155522 0
20.045000 -0.101869 0
20.050000 -0.063788 0
20.055000 -0.038731 0
20.060000 -0.021889 0
20.065000 -0.008934 0
20.070000 0.002992 0
20.075000 0.015416 0
20.080000 0.029038 0
20.085000 0.044142 0
20.090000 0.060831 0
20.095000 0.079117 0
20.100000 0.098957 0
20.105000 0.120259 0
20.110000 0.142877 0
20.115000 0.166615 0
20.120000 0.191221 0
20.125000 0.216393 0
20.130000 0.241780 0
20.135000 0.266991 0
20.140000 0.291602 0
20.145000 0.315168 0
20.150000 0.337234 0
20.155000 0.357352 0
20.160000 0.375092 0
20.165000 0.390060 0
20.170000 0.401910 0
20.175000 0.410358 0
20.180000 0.415192 0
20.185000 0.416282 5
20.190000 0.413582 0
20.195000 0.407137 0
20.200000 0.397075 0
20.205000 0.383611 0
20.210000 0.367029 0
20.215000 0.347680 0
20.220000 0.325965 0
20.225000 0.302322 0
20.230000 0.277212 0
20.235000 0.251102 0
20.240000 0.224451 0
20.245000 0.197699 0
20.250000 0.171253 0
20.255000 0.145479 0
20.260000 0.120694 0
20.265000 0.097163 0
20.270000 0.075095 0
20.275000 0.054642 0
20.280000 0.035907 0
20.285000 0.018939 0
20.290000 0.003745 0
20.295000 -0.009708 0
20.300000 -0.021484 0
20.305000 -0.031671 0
20.310000 -0.040381 0
20.315000 -0.047732 0
20.320000 -0.053856 0
20.325000 -0.058881 0
20.330000 -0.062939 0
20.335000 -0.066152 0
20.340000 -0.068638 0
20.345000 -0.070505 0
20.350000 -0.071850 0
20.355000 -0.072761 0
20.360000 -0.073314 0
20.365000 -0.073575 0
20.370000 -0.073600 0
20.375000 -0.073438 0
20.380000 -0.073127 0
20.385000 -0.072700 0
20.390000 -0.072145 0
20.395000 -0.071354 0
20.400000 -0.070567 0
20.405000 -0.069784 0
20.410000 -0.069004 0
20.415000 -0.068229 0
20.420000 -0.067458 0
20.425000 -0.066690 0
20.430000 -0.065926 0
20.435000 -0.065166 0
20.440000 -0.064410 0
20.445000 -0.063658 0
20.450000 -0.062909 0
20.455000 -0.062164 0
20.460000 -0.061423 0
20.465000 -0.060686 0
20.470000 -0.059952 0
20.475000 -0.059221 0
20.480000 -0.058494 0
20.485000 -0.057769 0
20.490000 -0.057046 0
20.495000 -0.056325 0
20.500000 -0.055601 0
20.505000 -0.054873 0
20.510000 -0.054133 0
20.515000 -0.053371 0
20.520000 -0.052573 0
20.525000 -0.051714 0
20.530000 -0.050759 0
20.535000 -0.049656 0
20.540000 -0.048333 0
20.545000 -0.046692 0
20.550000 -0.044600 0
20.555000 -0.041890 0
20.560000 -0.038352 0
20.565000 -0.033738 0
20.570000 -0.027765 0
20.575000 -0.020127 0
20.580000 -0.010516 0
20.585000 0.001351 0
20.590000 0.015700 0
20.595000 0.032654 0
20.600000 0.052196 0
20.605000 0.074131 0
20.610000 0.098057 0
20.615000 0.123353 0
20.620000 0.149189 0
20.625000 0.174560 0
20.630000 0.198343 0
20.635000 0.219375 0
20.640000 0.236546 0
20.645000 0.248895 0
20.650000 0.255697 0
20.655000 0.256534 1
20.660000 0.251336 0
20.665000 0.240390 0
20.670000 0.224312 0
20.675000 0.203990 0
20.680000 0.180500 0
20.685000 0.155015 0
20.690000 0.128705 0
20.695000 0.102650 0
20.700000 0.077756 0
20.705000 0.054686 0
20.710000 0.033740 0
20.715000 0.014678 0
20.720000 -0.003568 0
20.725000 -0.023163 0
20.730000 -0.047256 0
20.735000 -0.078955 0
20.740000 -0.119124 0
20.745000 -0.163665 0
20.750000 -0.201900 0
20.755000 -0.217465 2
20.760000 -0.191496 0
20.765000 -0.106540 0
20.770000 0.049331 0
20.775000 0.276441 0
20.780000 0.554674 0
20.785000 0.837158 0
20.790000 1.056544 0
20.795000 1.148400 3
20.800000 1.082896 0
20.805000 0.877516 0
20.810000 0.587248 0
20.815000 0.279502 0
20.820000 0.009360 0
20.825000 -0.191331 0
20.830000 -0.312057 0
20.835000 -0.357564 4
20.840000 -0.343186 0
20.845000 -0.290888 0
20.850000 -0.223861 0
20.855000 -0.160472 0
20.860000 -0.110562 0
20.865000 -0.075794 0
20.870000 -0.052854 0
20.875000 -0.037012 0
20.880000 -0.024332 0
20.885000 -0.012315 0
20.890000 0.000345 0
20.895000 0.014242 0
20.900000 0.029617 0
20.905000 0.046554 0
20.910000 0.065059 0
20.915000 0.085086 0
20.920000 0.106541 0
20.925000 0.129282 0
20.930000 0.153115 0
20.935000 0.177796 0
20.940000 0.203031 0
20.945000 0.228481 0
20.950000 0.253769 0
20.955000 0.278485 0
20.960000 0.302199 0
20.965000 0.324470 0
20.970000 0.344865 0
20.975000 0.362964 0
20.980000 0.378380 0
20.985000 0.390773 0
20.990000 0.399857 0
20.995000 0.405415 0
21.000000 0.407307 5
21.005000 0.405471 0
21.010000 0.399933 0
21.015000 0.390798 0
21.020000 0.378254 0
21.025000 0.362561 0
21.030000 0.344040 0
21.035000 0.323068 0
21.040000 0.300060 0
21.045000 0.275455 0
21.050000 0.249706 0
21.055000 0.223261 0
21.060000 0.196556 0
21.065000 0.169998 0
21.070000 0.143958 0
21.075000 0.118765 0
21.080000 0.094697 0
21.085000 0.071981 0
21.090000 0.050791 0
21.095000 0.031249 0
21.100000 0.013427 0
21.105000 -0.002647 0
21.110000 -0.016984 0
21.115000 -0.029631 0
21.120000 -0.040662 0
21.125000 -0.050172 0
21.130000 -0.058271 0
21.135000 -0.065083 0
21.140000 -0.070731 0
21.145000 -0.075343 0
21.150000 -0.079043 0
21.155000 -0.081949 0
21.160000 -0.084172 0
21.165000 -0.085814 0
21.170000 -0.086966 0
21.175000 -0.087711 0
21.180000 -0.088120 0
21.185000 -0.088254 0
21.190000 -0.088168 0
21.195000 -0.087904 0
21.200000 -0.087500 0
21.205000 -0.086987 0
21.210000 -0.086352 0
21.215000 -0.085490 0
21.220000 -0.084632 0
21.225000 -0.083779 0
21.230000 -0.082930 0
21.235000 -0.082086 0
21.240000 -0.081245 0
21.245000 -0.080409 0
21.250000 -0.079577 0
21.255000 -0.078749 0
21.260000 -0.077925 0
21.265000 -0.077105 0
21.270000 -0.076289 0
21.275000 -0.075478 0
21.280000 -0.074670 0
21.285000 -0.073866 0
21.290000 -0.073067 0
21.295000 -0.072271 0
21.300000 -0.071478 0
21.305000 -0.070689 0
21.310000 -0.069902 0
21.315000 -0.069117 0
21.320000 -0.068332 0
21.325000 -0.067542 0
21.330000 -0.066744 0
21.335000 -0.065928 0
21.340000 -0.065081 0
21.345000 -0.064182 0
21.350000 -0.063202 0
21.355000 -0.062096 0
21.360000 -0.060801 0
21.365000 -0.059232 0
21.370000 -0.057274 0
21.375000 -0.054777 0
21.380000 -0.051557 0
21.385000 -0.047387 0
21.390000 -0.042008 0
21.395000 -0.035131 0
21.400000 -0.026457 0
21.405000 -0.015696 0
21.410000 -0.002597 0
21.415000 0.013016 0
21.420000 0.031203 0
21.425000 0.051874 0
21.430000 0.074754 0
21.435000 0.099365 0
21.440000 0.125023 0
21.445000 0.150852 0
21.450000 0.175830 0
21.455000 0.198844 0
21.460000 0.218776 0
21.465000 0.234588 0
21.470000 0.245411 0
21.475000 0.250624 1
21.480000 0.249915 0
21.485000 0.243305 0
21.490000 0.231154 0
21.495000 0.214126 0
21.500000 0.193125 0
21.505000 0.169222 0
21.510000 0.143558 0
21.515000 0.117257 0
21.520000 0.091346 0
21.525000 0.066676 0
21.530000 0.043853 0
21.535000 0.023128 0
21.540000 0.004214 0
21.545000 -0.013989 0
21.550000 -0.033631 0
21.555000 -0.057790 0
21.560000 -0.089463 0
21.565000 -0.129487 0
21.570000 -0.173975 0
21.575000 -0.212772 0
21.580000 -0.230214 2
21.585000 -0.208065 0
21.590000 -0.129179 0
21.595000 0.018712 0
21.600000 0.237557 0
21.605000 0.510857 0
21.610000 0.796886 0
21.615000 1.032358 0
21.620000 1.152146 3
21.625000 1.118559 0
21.630000 0.939903 0
21.635000 0.663304 0
21.640000 0.353894 0
21.645000 0.069703 0
21.650000 -0.152245 0
21.655000 -0.296577 0
21.660000 -0.364121 0
21.665000 -0.366966 4
21.670000 -0.324824 0
21.675000 -0.260484 0
21.680000 -0.194031 0
21.685000 -0.138254 0
21.690000 -0.097556 0
21.695000 -0.070200 0
21.700000 -0.051808 0
21.705000 -0.038069 0
21.710000 -0.025930 0
21.715000 -0.013647 0
21.720000 -0.000370 0
21.725000 0.014271 0
21.730000 0.030418 0
21.735000 0.048112 0
21.740000 0.067334 0
21.745000 0.088019 0
21.750000 0.110055 0
21.755000 0.133284 0
21.760000 0.157499 0
21.765000 0.182444 0
21.770000 0.207817 0
21.775000 0.233276 0
21.780000 0.258443 0
21.785000 0.282914 0
21.790000 0.306267 0
21.795000 0.328076 0
21.800000 0.347922 0
21.805000 0.365406 0
21.810000 0.380164 0
21.815000 0.391876 0
21.820000 0.400279 0
21.825000 0.405177 0
21.830000 0.406447 5
21.835000 0.404046 0
21.840000 0.398009 0
21.845000 0.388451 0
21.850000 0.375562 0
21.855000 0.359602 0
21.860000 0.340889 0
21.865000 0.319790 0
21.870000 0.296710 0
21.875000 0.272076 0
21.880000 0.246328 0
21.885000 0.219900 0
21.890000 0.193214 0
21.895000 0.166666 0
21.900000 0.140617 0
21.905000 0.115387 0
21.910000 0.091249 0
21.915000 0.068428 0
21.920000 0.047096 0
21.925000 0.027376 0
21.930000 0.009346 0
21.935000 -0.006963 0
21.940000 -0.021557 0
21.945000 -0.034476 0
21.950000 -0.045787 0
21.955000 -0.055578 0
21.960000 -0.063955 0
21.965000 -0.071034 0
21.970000 -0.076935 0
21.975000 -0.081783 0
21.980000 -0.085698 0
21.985000 -0.088797 0
21.990000 -0.091191 0
21.995000 -0.092980 0
22.000000 -0.094257 0
22.005000 -0.095105 0
22.010000 -0.095597 0
22.015000 -0.095796 0
22.020000 -0.095757 0
22.025000 -0.095527 0
22.030000 -0.095144 0
22.035000 -0.094641 0
22.040000 -0.094044 0
22.045000 -0.093188 0
22.050000 -0.092292 0
22.055000 -0.091401 0
22.060000 -0.090514 0
22.065000 -0.089631 0
22.070000 -0.088753 0
22.075000 -0.087879 0
22.080000 -0.087010 0
22.085000 -0.086145 0
22.090000 -0.085284 0
22.095000 -0.084428 0
22.100000 -0.083575 0
22.105000 -0.082727 0
22.110000 -0.081884 0
22.115000 -0.081044 0
22.120000 -0.080209 0
22.125000 -0.079377 0
22.130000 -0.078550 0
22.135000 -0.077726 0
22.140000 -0.076905 0
22.145000 -0.076087 0
22.150000 -0.075271 0
22.155000 -0.074453 0
22.160000 -0.073632 0
22.165000 -0.072800 0
22.170000 -0.071951 0
22.175000 -0.071069 0
22.180000 -0.070134 0
22.185000 -0.069116 0
22.190000 -0.067970 0
22.195000 -0.066635 0
22.200000 -0.065025 0
22.205000 -0.063030 0
22.210000 -0.060503 0
22.215000 -0.057265 0
22.220000 -0.053098 0
22.225000 -0.047750 0
22.230000 -0.040943 0
22.235000 -0.032387 0
22.240000 -0.021799 0
22.245000 -0.008930 0
22.250000 0.006398 0
22.255000 0.024259 0
22.260000 0.044588 0
22.265000 0.067148 0
22.270000 0.091508 0
22.275000 0.117039 0
22.280000 0.142926 0
22.285000 0.168205 0
22.290000 0.191810 0
22.295000 0.212650 0
22.300000 0.229690 0
22.305000 0.242035 0
22.310000 0.249007 0
22.315000 0.250207 1
22.320000 0.245552 0
22.325000 0.235284 0
22.330000 0.219949 0
22.335000 0.200347 0
22.340000 0.177465 0
22.345000 0.152395 0
22.350000 0.126243 0
22.355000 0.100054 0
22.360000 0.074738 0
22.365000 0.051002 0
22.370000 0.029268 0
22.375000 0.009543 0
22.380000 -0.008807 0
22.385000 -0.027320 0
22.390000 -0.048556 0
22.395000 -0.075655 0
22.400000 -0.110920 0
22.405000 -0.153534 0
22.410000 -0.197345 0
22.415000 -0.230196 0
22.420000 -0.235553 2
22.425000 -0.195696 0
22.430000 -0.095165 0
22.435000 0.075390 0
22.440000 0.313226 0
22.445000 0.595514 0
22.450000 0.874864 0
22.455000 1.086889 0
22.460000 1.172251 3
22.465000 1.103579 0
22.470000 0.898651 0
22.475000 0.609769 0
22.480000 0.301211 0
22.485000 0.026471 0
22.490000 -0.182365 0
22.495000 -0.313477 0
22.500000 -0.369814 4
22.505000 -0.364647 0
22.510000 -0.318082 0
22.515000 -0.252456 0
22.520000 -0.186753 0
22.525000 -0.132527 0
22.530000 -0.093290 0
22.535000 -0.066924 0
22.540000 -0.049051 0
22.545000 -0.035513 0
22.550000 -0.023414 0
22.555000 -0.011107 0
22.560000 0.002208 0
22.565000 0.016881 0
22.570000 0.033047 0
22.575000 0.050743 0
22.580000 0.069951 0
22.585000 0.090608 0
22.590000 0.112604 0
22.595000 0.135785 0
22.600000 0.159948 0
22.605000 0.184845 0
22.610000 0.210183 0
22.615000 0.235628 0
22.620000 0.260811 0
22.625000 0.285337 0
22.630000 0.308796 0
22.635000 0.330768 0
22.640000 0.350842 0
22.645000 0.368623 0
22.650000 0.383750 0
22.655000 0.395901 0
22.660000 0.404812 0
22.665000 0.410278 0
22.670000 0.412168 5
22.675000 0.410424 0
22.680000 0.405067 0
22.685000 0.396195 0
22.690000 0.383980 0
22.695000 0.368663 0
22.700000 0.350542 0
22.705000 0.329969 0
22.710000 0.307332 0
22.715000 0.283046 0
22.720000 0.257540 0
22.725000 0.231243 0
22.730000 0.204573 0
22.735000 0.177926 0
22.740000 0.151669 0
22.745000 0.126127 0
22.750000 0.101585 0
22.755000 0.078278 0
22.760000 0.056392 0
22.765000 0.036067 0
22.770000 0.017392 0
22.775000 0.000415 0
22.780000 -0.014856 0
22.785000 -0.028448 0
22.790000 -0.040417 0
22.795000 -0.050842 0
22.800000 -0.059821 0
22.805000 -0.067462 0
22.810000 -0.073883 0
22.815000 -0.079204 0
22.820000 -0.083546 0
22.825000 -0.087026 0
22.830000 -0.089754 0
22.835000 -0.091836 0
22.840000 -0.093365 0
22.845000 -0.094428 0
22.850000 -0.095102 0
22.855000 -0.095453 0
22.860000 -0.095540 0
22.865000 -0.095413 0
22.870000 -0.095114 0
22.875000 -0.094678 0
22.880000 -0.094135 0
22.885000 -0.093469 0
22.890000 -0.092572 0
22.895000 -0.091679 0
22.900000 -0.090791 0
22.905000 -0.089907 0
22.910000 -0.089027 0
22.915000 -0.088152 0
22.920000 -0.087281 0
22.925000 -0.086415 0
22.930000 -0.085553 0
22.935000 -0.084695 0
22.940000 -0.083841 0
22.945000 -0.082992 0
22.950000 -0.082147 0
22.955000 -0.081306 0
22.960000 -0.080469 0
22.965000 -0.079637 0
22.970000 -0.078808 0
22.975000 -0.077983 0
22.980000 -0.077162 0
22.985000 -0.076344 0
22.990000 -0.075529 0
22.995000 -0.074714 0
23.000000 -0.073898 0
23.005000 -0.073078 0
23.010000 -0.072246 0
23.015000 -0.071395 0
23.020000 -0.070510 0
23.025000 -0.069568 0
23.030000 -0.068540 0
23.035000 -0.067380 0
23.040000 -0.066025 0
23.045000 -0.064390 0
23.050000 -0.062362 0
23.055000 -0.059797 0
23.060000 -0.056515 0
23.065000 -0.052301 0
23.070000 -0.046907 0
23.075000 -0.040060 0
23.080000 -0.031474 0
23.085000 -0.020873 0
23.090000 -0.008015 0
23.095000 0.007278 0
23.100000 0.025078 0
23.105000 0.045325 0
23.110000 0.067792 0
23.115000 0.092064 0
23.120000 0.117536 0
23.125000 0.143418 0
23.130000 0.168772 0
23.135000 0.192560 0
23.140000 0.213712 0
23.145000 0.231202 0
23.150000 0.244135 0
23.155000 0.251817 0
23.160000 0.253818 1
23.165000 0.250013 0
23.170000 0.240592 0
23.175000 0.226046 0
23.180000 0.207124 0
23.185000 0.184765 0
23.190000 0.160026 0
23.195000 0.133998 0
23.200000 0.107723 0
23.205000 0.082128 0
23.210000 0.057958 0
23.215000 0.035703 0
23.220000 0.015485 0
23.225000 -0.003127 0
23.230000 -0.021381 0
23.235000 -0.041523 0
23.240000 -0.066564 0
23.245000 -0.099219 0
23.250000 -0.139888 0
23.255000 -0.184368 0
23.260000 -0.222593 0
23.265000 -0.239483 2
23.270000 -0.217673 0
23.275000 -0.140827 0
23.280000 0.002952 0
23.285000 0.216309 0
23.290000 0.485354 0
23.295000 0.773061 0
23.300000 1.021123 0
23.305000 1.165982 3
23.310000 1.164445 0
23.315000 1.014137 0
23.320000 0.754322 0
23.325000 0.446779 0
23.330000 0.151510 0
23.335000 -0.089707 0
23.340000 -0.256664 0
23.345000 -0.346280 0
23.350000 -0.367458 4
23.355000 -0.337482 0
23.360000 -0.278160 0
23.365000 -0.210566 0
23.370000 -0.149975 0
23.375000 -0.103538 0
23.380000 -0.071432 0
23.385000 -0.050008 0
23.390000 -0.034814 0
23.395000 -0.022311 0
23.400000 -0.010287 0
23.405000 0.002419 0
23.410000 0.016338 0
23.415000 0.031693 0
23.420000 0.048561 0
23.425000 0.066952 0
23.430000 0.086823 0
23.435000 0.108092 0
23.440000 0.130627 0
23.445000 0.154255 0
23.450000 0.178753 0
23.455000 0.203853 0
23.460000 0.229245 0
23.465000 0.254581 0
23.470000 0.279484 0
23.475000 0.303553 0
23.480000 0.326374 0
23.485000 0.347534 0
23.490000 0.366630 0
23.495000 0.383284 0
23.500000 0.397152 0
23.505000 0.407938 0
23.510000 0.415402 0
23.515000 0.419373 0
23.520000 0.419748 5
23.525000 0.416503 0
23.530000 0.409689 0
23.535000 0.399433 0
23.540000 0.385933 0
23.545000 0.369453 0
23.550000 0.350310 0
23.555000 0.328869 0
23.560000 0.305526 0
23.565000 0.280701 0
23.570000 0.254819 0
23.575000 0.228304 0
23.580000 0.201565 0
23.585000 0.174984 0
23.590000 0.148912 0
23.595000 0.123659 0
23.600000 0.099488 0
23.605000 0.076618 0
23.610000 0.055217 0
23.615000 0.035406 0
23.620000 0.017260 0
23.625000 0.000813 0
23.630000 -0.013940 0
23.635000 -0.027034 0
23.640000 -0.038534 0
23.645000 -0.048525 0
23.650000 -0.057106 0
23.655000 -0.064390 0
23.660000 -0.070494 0
23.665000 -0.075539 0
23.670000 -0.079642 0
23.675000 -0.082920 0
23.680000 -0.085479 0
23.685000 -0.087420 0
23.690000 -0.088837 0
23.695000 -0.089811 0
23.700000 -0.090415 0
23.705000 -0.090715 0
23.710000 -0.090766 0
23.715000 -0.090614 0
23.720000 -0.090301 0
23.725000 -0.089860 0
23.730000 -0.089318 0
23.735000 -0.088660 0
23.740000 -0.087787 0
23.745000 -0.086918 0
23.750000 -0.086053 0
23.755000 -0.085193 0
23.760000 -0.084337 0
23.765000 -0.083485 0
23.770000 -0.082638 0
23.775000 -0.081795 0
23.780000 -0.080956 0
23.785000 -0.080121 0
23.790000 -0.079290 0
23.795000 -0.078463 0
23.800000 -0.077641 0
23.805000 -0.076822 0
23.810000 -0.076008 0
23.815000 -0.075198 0
23.820000 -0.074391 0
23.825000 -0.073588 0
23.830000 -0.072789 0
23.835000 -0.071993 0
23.840000 -0.071198 0
23.845000 -0.070405 0
23.850000 -0.069609 0
23.855000 -0.068808 0
23.860000 -0.067995 0
23.865000 -0.067161 0
23.870000 -0.066290 0
23.875000 -0.065359 0
23.880000 -0.064337 0
23.885000 -0.063176 0
23.890000 -0.061812 0
23.895000 -0.060156 0
23.900000 -0.058094 0
23.905000 -0.055478 0
23.910000 -0.052126 0
23.915000 -0.047821 0
23.920000 -0.042314 0
23.925000 -0.035331 0
23.930000 -0.026590 0
23.935000 -0.015817 0
23.940000 -0.002776 0
23.945000 0.012699 0
23.950000 0.030673 0
23.955000 0.051073 0
23.960000 0.073661 0
23.965000 0.098013 0
23.970000 0.123513 0
23.975000 0.149369 0
23.980000 0.174643 0
23.985000 0.198300 0
23.990000 0.219278 0
23.995000 0.236566 0
24.000000 0.249280 0
24.005000 0.256741 0
24.010000 0.258534 1
24.015000 0.254544 0
24.020000 0.244969 0
24.025000 0.230303 0
24.030000 0.211293 0
24.035000 0.188875 0
24.040000 0.164098 0
24.045000 0.138045 0
24.050000 0.111750 0
24.055000 0.086132 0
24.060000 0.061931 0
24.065000 0.039636 0
24.070000 0.019373 0
24.075000 0.000723 0
24.080000 -0.017535 0
24.085000 -0.037609 0
24.090000 -0.062477 0
24.095000 -0.094868 0
24.100000 -0.135297 0
24.105000 -0.179796 0
24.110000 -0.218611 0
24.115000 -0.236951 2
24.120000 -0.217613 0
24.125000 -0.144252 0
24.130000 -0.004705 0
24.135000 0.204393 0
24.140000 0.470547 0
24.145000 0.758650 0
24.150000 1.011979 0
24.155000 1.166990 0
24.160000 1.178290 3
24.165000 1.039643 0
24.170000 0.786866 0
24.175000 0.480832 0
24.180000 0.182570 0
24.185000 -0.064270 0
24.190000 -0.237767 0
24.195000 -0.333629 0
24.200000 -0.359923 4
24.205000 -0.333385 0
24.210000 -0.275657 0
24.215000 -0.208102 0
24.220000 -0.146614 0
24.225000 -0.099002 0
24.230000 -0.065901 0
24.235000 -0.043837 0
24.240000 -0.028337 0
24.245000 -0.015758 0
24.250000 -0.003785 0
24.255000 0.008806 0
24.260000 0.022585 0
24.265000 0.037790 0
24.270000 0.054506 0
24.275000 0.072747 0
24.280000 0.092474 0
24.285000 0.113607 0
24.290000 0.136019 0
24.295000 0.159539 0
24.300000 0.183946 0
24.305000 0.208978 0
24.310000 0.234326 0
24.315000 0.259644 0
24.320000 0.284556 0
24.325000 0.308663 0
24.330000 0.331551 0
24.335000 0.352806 0
24.340000 0.372024 0
24.345000 0.388823 0
24.350000 0.402857 0
24.355000 0.413827 0
24.360000 0.421487 0
24.365000 0.425662 0
24.370000 0.426244 5
24.375000 0.423203 0
24.380000 0.416586 0
24.385000 0.406516 0
24.390000 0.393185 0
24.395000 0.376854 0
24.400000 0.357838 0
24.405000 0.336498 0
24.410000 0.313231 0
24.415000 0.288453 0
24.420000 0.262593 0
24.425000 0.236074 0
24.430000 0.209307 0
24.435000 0.182676 0
24.440000 0.156534 0
24.445000 0.131194 0
24.450000 0.106924 0
24.455000 0.083943 0
24.460000 0.062424 0
24.465000 0.042490 0
24.470000 0.024219 0
24.475000 0.007646 0
24.480000 -0.007229 0
24.485000 -0.020443 0
24.490000 -0.032058 0
24.495000 -0.042157 0
24.500000 -0.050840 0
24.505000 -0.058219 0
24.510000 -0.064412 0
24.515000 -0.069537 0
24.520000 -0.073715 0
24.525000 -0.077061 0
24.530000 -0.079682 0
24.535000 -0.081681 0
24.540000 -0.083150 0
24.545000 -0.084172 0
24.550000 -0.084821 0
24.555000 -0.085162 0
24.560000 -0.085251 0
24.565000 -0.085135 0
24.570000 -0.084856 0
24.575000 -0.084447 0
24.580000 -0.083937 0
24.585000 -0.083309 0
24.590000 -0.082462 0
24.595000 -0.081620 0
24.600000 -0.080782 0
24.605000 -0.079948 0
24.610000 -0.079118 0
24.615000 -0.078292 0
24.620000 -0.077470 0
24.625000 -0.076653 0
24.630000 -0.075839 0
24.635000 -0.075030 0
24.640000 -0.074225 0
24.645000 -0.073423 0
24.650000 -0.072626 0
24.655000 -0.071833 0
24.660000 -0.071043 0
24.665000 -0.070258 0
24.670000 -0.069476 0
24.675000 -0.068697 0
24.680000 -0.067923 0
24.685000 -0.067150 0
24.690000 -0.066380 0
24.695000 -0.065611 0
24.700000 -0.064840 0
24.705000 -0.064063 0
24.710000 -0.063274 0
24.715000 -0.062464 0
24.720000 -0.061618 0
24.725000 -0.060714 0
24.730000 -0.059718 0
24.735000 -0.058586 0
24.740000 -0.057252 0
24.745000 -0.055630 0
24.750000 -0.053604 0
24.755000 -0.051029 0
24.760000 -0.047724 0
24.765000 -0.043472 0
24.770000 -0.038023 0
24.775000 -0.031107 0
24.780000 -0.022438 0
24.785000 -0.011743 0
24.790000 0.001215 0
24.795000 0.016606 0
24.800000 0.034497 0
24.805000 0.054819 0
24.810000 0.077338 0
24.815000 0.101633 0
24.820000 0.127094 0
24.825000 0.152932 0
24.830000 0.178208 0
24.835000 0.201890 0
24.840000 0.222915 0
24.845000 0.240267 0
24.850000 0.253060 0
24.855000 0.260608 0
24.860000 0.262491 1
24.865000 0.258588 0
24.870000 0.249091 0
24.875000 0.234489 0
24.880000 0.215526 0
24.885000 0.193136 0
24.890000 0.168370 0
24.895000 0.142309 0
24.900000 0.115991 0
24.905000 0.090338 0
24.910000 0.066094 0
24.915000 0.043752 0
24.920000 0.023445 0
24.925000 0.004760 0
24.930000 -0.013511 0
24.935000 -0.033565 0
24.940000 -0.058381 0
24.945000 -0.090701 0
24.950000 -0.131076 0
24.955000 -0.175592 0
24.960000 -0.214541 0
24.965000 -0.233156 2
24.970000 -0.214225 0
24.975000 -0.141367 0
24.980000 -0.002359 0
24.985000 0.206256 0
24.990000 0.472107 0
24.995000 0.760212 0
25.000000 1.013895 0
25.005000 1.169527 0
25.010000 1.181518 3
25.015000 1.043262 0
25.020000 0.790368 0
25.025000 0.484214 0
25.030000 0.186266 0
25.035000 -0.059673 0
25.040000 -0.231778 0
25.045000 -0.325986 0
25.050000 -0.350664 4
25.055000 -0.322870 0
25.060000 -0.264501 0
25.065000 -0.196982 0
25.070000 -0.136042 0
25.075000 -0.089200 0
25.080000 -0.056819 0
25.085000 -0.035280 0
25.090000 -0.020084 0
25.095000 -0.007636 0
25.100000 0.004313 0
25.105000 0.016942 0
25.110000 0.030791 0
25.115000 0.046082 0
25.120000 0.062897 0
25.125000 0.081240 0
25.130000 0.101071 0
25.135000 0.122304 0
25.140000 0.144807 0
25.145000 0.168402 0
25.150000 0.192862 0
25.155000 0.217917 0
25.160000 0.243250 0
25.165000 0.268510 0
25.170000 0.293314 0
25.175000 0.317255 0
25.180000 0.339916 0
25.185000 0.360881 0
25.190000 0.379744 0
25.195000 0.396124 0
25.200000 0.409680 0
25.205000 0.420115 0
25.210000 0.427195 0
25.215000 0.430752 5
25.220000 0.430691 0
25.225000 0.426994 0
25.230000 0.419722 0
25.235000 0.409012 0
25.240000 0.395072 0
25.245000 0.378175 0
25.250000 0.358648 0
25.255000 0.336864 0
25.260000 0.313228 0
25.265000 0.288163 0
25.270000 0.262101 0
25.275000 0.235468 0
25.280000 0.208672 0
25.285000 0.182095 0
25.290000 0.156085 0
25.295000 0.130946 0
25.300000 0.106937 0
25.305000 0.084270 0
25.310000 0.063104 0
25.315000 0.043554 0
25.320000 0.025687 0
25.325000 0.009528 0
25.330000 -0.004934 0
25.335000 -0.017741 0
25.340000 -0.028963 0
25.345000 -0.038689 0
25.350000 -0.047024 0
25.355000 -0.054082 0
25.360000 -0.059983 0
25.365000 -0.064848 0
25.370000 -0.068796 0
25.375000 -0.071941 0
25.380000 -0.074391 0
25.385000 -0.076245 0
25.390000 -0.077594 0
25.395000 -0.078519 0
25.400000 -0.079091 0
25.405000 -0.079373 0
25.410000 -0.079418 0
25.415000 -0.079273 0
25.420000 -0.078975 0
25.425000 -0.078557 0
25.430000 -0.078044 0
25.435000 -0.077269 0
25.440000 -0.076452 0
25.445000 -0.075640 0
25.450000 -0.074831 0
25.455000 -0.074027 0
25.460000 -0.073227 0
25.465000 -0.072430 0
25.470000 -0.071638 0
25.475000 -0.070850 0
25.480000 -0.070065 0
25.485000 -0.069285 0
25.490000 -0.068508 0
25.495000 -0.067735 0
25.500000 -0.066966 0
25.505000 -0.066201 0
25.510000 -0.065440 0
25.515000 -0.064682 0
25.520000 -0.063928 0
25.525000 -0.063177 0
25.530000 -0.062429 0
25.535000 -0.061684 0
25.540000 -0.060940 0
25.545000 -0.060195 0
25.550000 -0.059447 0
25.555000 -0.058691 0
25.560000 -0.057919 0
25.565000 -0.057120 0
25.570000 -0.056274 0
25.575000 -0.055356 0
25.580000 -0.054327 0
25.585000 -0.053131 0
25.590000 -0.051694 0
25.595000 -0.049914 0
25.600000 -0.047662 0
25.605000 -0.044772 0
25.610000 -0.041044 0
25.615000 -0.036242 0
25.620000 -0.030102 0
25.625000 -0.022341 0
25.630000 -0.012676 0
25.635000 -0.000845 0
25.640000 0.013359 0
25.645000 0.030057 0
25.650000 0.049249 0
25.655000 0.070778 0
25.660000 0.094308 0
25.665000 0.119311 0
25.670000 0.145070 0
25.675000 0.170700 0
25.680000 0.195194 0
25.685000 0.217486 0
25.690000 0.236520 0
25.695000 0.251335 0
25.700000 0.261147 0
25.705000 0.265412 1
25.710000 0.263879 0
25.715000 0.256611 0
25.720000 0.243983 0
25.725000 0.226649 0
25.730000 0.205480 0
25.735000 0.181501 0
25.740000 0.155798 0
25.745000 0.129446 0
25.750000 0.103425 0
25.755000 0.078562 0
25.760000 0.055459 0
25.765000 0.034401 0
25.770000 0.015201 0
25.775000 -0.003038 0
25.780000 -0.022171 0
25.785000 -0.044987 0
25.790000 -0.074514 0
25.795000 -0.112335 0
25.800000 -0.156264 0
25.805000 -0.198511 0
25.810000 -0.225664 2
25.815000 -0.220818 0
25.820000 -0.166825 0
25.825000 -0.049618 0
25.830000 0.137730 0
25.835000 0.388569 0
25.840000 0.675050 0
25.845000 0.945768 0
25.850000 1.136297 0
25.855000 1.192610 3
25.860000 1.095043 0
25.865000 0.868087 0
25.870000 0.569664 0
25.875000 0.264586 0
25.880000 0.002986 0
25.885000 -0.187594 0
25.890000 -0.299251 0
25.895000 -0.337993 4
25.900000 -0.319542 0
25.905000 -0.265556 0
25.910000 -0.198407 0
25.915000 -0.135528 0
25.920000 -0.086114 0
25.925000 -0.051601 0
25.930000 -0.028734 0
25.935000 -0.012916 0
25.940000 -0.000300 0
25.945000 0.011587 0
25.950000 0.024056 0
25.955000 0.037717 0
25.960000 0.052819 0
25.965000 0.069455 0
25.970000 0.087636 0
25.975000 0.107325 0
25.980000 0.128437 0
25.985000 0.150840 0
25.990000 0.174357 0
25.995000 0.198757 0
26.000000 0.223768 0
26.005000 0.249068 0
26.010000 0.274300 0
26.015000 0.299072 0
26.020000 0.322973 0
26.025000 0.345577 0
26.030000 0.366459 0
26.035000 0.385208 0
26.040000 0.401436 0
26.045000 0.414796 0
26.050000 0.424992 0
26.055000 0.431788 0
26.060000 0.435018 5
26.065000 0.434592 0
26.070000 0.430500 0
26.075000 0.422811 0
26.080000 0.411673 0
26.085000 0.397307 0
26.090000 0.379997 0
26.095000 0.360085 0
26.100000 0.337956 0
26.105000 0.314025 0
26.110000 0.288726 0
26.115000 0.262500 0
26.120000 0.235776 0
26.125000 0.208966 0
26.130000 0.182453 0
26.135000 0.156581 0
26.140000 0.131652 0
26.145000 0.107918 0
26.150000 0.085580 0
26.155000 0.064791 0
26.160000 0.045654 0
26.165000 0.028226 0
26.170000 0.012521 0
26.175000 -0.001480 0
26.180000 -0.013831 0
26.185000 -0.024609 0
26.190000 -0.033910 0
26.195000 -0.041844 0
26.200000 -0.048530 0
26.205000 -0.054091 0
26.210000 -0.058650 0
26.215000 -0.062326 0
26.220000 -0.065233 0
26.225000 -0.067479 0
26.230000 -0.069160 0
26.235000 -0.070365 0
26.240000 -0.071173 0
26.245000 -0.071653 0
26.250000 -0.071863 0
26.255000 -0.071856 0
26.260000 -0.071675 0
26.265000 -0.071355 0
26.270000 -0.070927 0
26.275000 -0.070374 0
26.280000 -0.069592 0
26.285000 -0.068814 0
26.290000 -0.068040 0
26.295000 -0.067269 0
26.300000 -0.066502 0
26.305000 -0.065740 0
26.310000 -0.064981 0
26.315000 -0.064225 0
26.320000 -0.063474 0
26.325000 -0.062726 0
26.330000 -0.061982 0
26.335000 -0.061242 0
26.340000 -0.060506 0
26.345000 -0.059773 0
26.350000 -0.059043 0
26.355000 -0.058317 0
26.360000 -0.057595 0
26.365000 -0.056876 0
26.370000 -0.056160 0
26.375000 -0.055447 0
26.380000 -0.054735 0
26.385000 -0.054023 0
26.390000 -0.053308 0
26.395000 -0.052587 0
26.400000 -0.051852 0
26.405000 -0.051093 0
26.410000 -0.050293 0
26.415000 -0.049428 0
26.420000 -0.048462 0
26.425000 -0.047343 0
26.430000 -0.046000 0
26.435000 -0.044338 0
26.440000 -0.042230 0
26.445000 -0.039516 0
26.450000 -0.035999 0
26.455000 -0.031446 0
26.460000 -0.025594 0
26.465000 -0.018155 0
26.470000 -0.008840 0
26.475000 0.002623 0
26.480000 0.016456 0
26.485000 0.032797 0
26.490000 0.051662 0
26.495000 0.072915 0
26.500000 0.096235 0
26.505000 0.121104 0
26.510000 0.146810 0
26.515000 0.172465 0
26.520000 0.197052 0
26.525000 0.219484 0
26.530000 0.238686 0
26.535000 0.253672 0
26.540000 0.263633 0
26.545000 0.268008 1
26.550000 0.266534 0
26.555000 0.259271 0
26.560000 0.246600 0
26.565000 0.229187 0
26.570000 0.207923 0
26.575000 0.183852 0
26.580000 0.158084 0
26.585000 0.131708 0
26.590000 0.105718 0
26.595000 0.080942 0
26.600000 0.057975 0
26.605000 0.037076 0
26.610000 0.018000 0
26.615000 -0.000253 0
26.620000 -0.019684 0
26.625000 -0.043215 0
26.630000 -0.073854 0
26.635000 -0.112834 0
26.640000 -0.157185 0
26.645000 -0.198040 0
26.650000 -0.220968 2
26.655000 -0.208473 0
26.660000 -0.143411 0
26.665000 -0.012472 0
26.670000 0.189241 0
26.675000 0.451028 0
26.680000 0.739147 0
26.685000 0.996763 0
26.690000 1.158354 0
26.695000 1.175684 3
26.700000 1.039961 0
26.705000 0.786661 0
26.710000 0.480015 0
26.715000 0.183972 0
26.720000 -0.056815 0
26.725000 -0.221092 0
26.730000 -0.306099 0
26.735000 -0.321904 4
26.740000 -0.287397 0
26.745000 -0.225831 0
26.750000 -0.158830 0
26.755000 -0.101067 0
26.760000 -0.058384 0
26.765000 -0.029711 0
26.770000 -0.010720 0
26.775000 0.003123 0
26.780000 0.015107 0
26.785000 0.027134 0
26.790000 0.040133 0
26.795000 0.054504 0
26.800000 0.070403 0
26.805000 0.087873 0
26.810000 0.106895 0
26.815000 0.127403 0
26.820000 0.149283 0
26.825000 0.172368 0
26.830000 0.196444 0
26.835000 0.221244 0
26.840000 0.246456 0
26.845000 0.271723 0
26.850000 0.296652 0
26.855000 0.320827 0
26.860000 0.343810 0
26.865000 0.365164 0
26.870000 0.384459 0
26.875000 0.401291 0
26.880000 0.415290 0
26.885000 0.426140 0
26.890000 0.433584 0
26.895000 0.437436 0
26.900000 0.437590 5
26.905000 0.434022 0
26.910000 0.426790 0
26.915000 0.416036 0
26.920000 0.401979 0
26.925000 0.384904 0
26.930000 0.365158 0
26.935000 0.343133 0
26.940000 0.319256 0
26.945000 0.293974 0
26.950000 0.267736 0
26.955000 0.240988 0
26.960000 0.214152 0
26.965000 0.187623 0
26.970000 0.161753 0
26.975000 0.136850 0
26.980000 0.113171 0
26.985000 0.090921 0
26.990000 0.070252 0
26.995000 0.051266 0
27.000000 0.034015 0
27.005000 0.018512 0
27.010000 0.004729 0
27.015000 -0.007392 0
27.020000 -0.017934 0
27.025000 -0.026998 0
27.030000 -0.034700 0
27.035000 -0.041164 0
27.040000 -0.046517 0
27.045000 -0.050883 0
27.050000 -0.054385 0
27.055000 -0.057138 0
27.060000 -0.059249 0
27.065000 -0.060816 0
27.070000 -0.061927 0
27.075000 -0.062659 0
27.080000 -0.063080 0
27.085000 -0.063248 0
27.090000 -0.063212 0
27.095000 -0.063015 0
27.100000 -0.062689 0
27.105000 -0.062264 0
27.110000 -0.061568 0
27.115000 -0.060830 0
27.120000 -0.060096 0
27.125000 -0.059365 0
27.130000 -0.058638 0
27.135000 -0.057914 0
27.140000 -0.057194 0
27.145000 -0.056478 0
27.150000 -0.055765 0
27.155000 -0.055056 0
27.160000 -0.054350 0
27.165000 -0.053648 0
27.170000 -0.052949 0
27.175000 -0.052254 0
27.180000 -0.051562 0
27.185000 -0.050874 0
27.190000 -0.050189 0
27.195000 -0.049507 0
27.200000 -0.048827 0
27.205000 -0.048151 0
27.210000 -0.047476 0
27.215000 -0.046801 0
27.220000 -0.046125 0
27.225000 -0.045442 0
27.230000 -0.044747 0
27.235000 -0.044030 0
27.240000 -0.043275 0
27.245000 -0.042459 0
27.250000 -0.041547 0
27.255000 -0.040488 0
27.260000 -0.039213 0
27.265000 -0.037627 0
27.270000 -0.035603 0
27.275000 -0.032980 0
27.280000 -0.029558 0
27.285000 -0.025101 0
27.290000 -0.019338 0
27.295000 -0.011975 0
27.300000 -0.002713 0
27.305000 0.008728 0
27.310000 0.022575 0
27.315000 0.038969 0
27.320000 0.057923 0
27.325000 0.079287 0
27.330000 0.102720 0
27.335000 0.127674 0
27.340000 0.153398 0
27.345000 0.178962 0
27.350000 0.203309 0
27.355000 0.225318 0
27.360000 0.243888 0
27.365000 0.258030 0
27.370000 0.266952 0
27.375000 0.270131 1
27.380000 0.267363 0
27.385000 0.258782 0
27.390000 0.244854 0
27.395000 0.226326 0
27.400000 0.204165 0
27.405000 0.179472 0
27.410000 0.153390 0
27.415000 0.127018 0
27.420000 0.101332 0
27.425000 0.077113 0
27.430000 0.054864 0
27.435000 0.034691 0
27.440000 0.016080 0
27.445000 -0.002381 0
27.450000 -0.023176 0
27.455000 -0.049513 0
27.460000 -0.083974 0
27.465000 -0.126178 0
27.470000 -0.170366 0
27.475000 -0.204487 0
27.480000 -0.211732 2
27.485000 -0.173848 0
27.490000 -0.074791 0
27.495000 0.095230 0
27.500000 0.333462 0
27.505000 0.616179 0
27.510000 0.894081 0
27.515000 1.100684 0
27.520000 1.176066 3
27.525000 1.093733 0
27.530000 0.874418 0
27.535000 0.577762 0
27.540000 0.272573 0
27.545000 0.012213 0
27.550000 -0.174530 0
27.555000 -0.280088 0
27.560000 -0.311764 4
27.565000 -0.287114 0
27.570000 -0.229547 0
27.575000 -0.162253 0
27.580000 -0.102106 0
27.585000 -0.056794 0
27.590000 -0.026204 0
27.595000 -0.006167 0
27.600000 0.008082 0
27.605000 0.020126 0
27.610000 0.032069 0
27.615000 0.044943 0
27.620000 0.059192 0
27.625000 0.074989 0
27.630000 0.092382 0
27.635000 0.111355 0
27.640000 0.131838 0
27.645000 0.153715 0
27.650000 0.176814 0
27.655000 0.200911 0
27.660000 0.225730 0
27.665000 0.250946 0
27.670000 0.276187 0
27.675000 0.301047 0
27.680000 0.325091 0
27.685000 0.347870 0
27.690000 0.368931 0
27.695000 0.387835 0
27.700000 0.404169 0
27.705000 0.417563 0
27.710000 0.427699 0
27.715000 0.434328 0
27.720000 0.437277 5
27.725000 0.436457 0
27.730000 0.431864 0
27.735000 0.423584 0
27.740000 0.411785 0
27.745000 0.396715 0
27.750000 0.378690 0
27.755000 0.358085 0
27.760000 0.335319 0
27.765000 0.310840 0
27.770000 0.285112 0
27.775000 0.258599 0
27.780000 0.231751 0
27.785000 0.204993 0
27.790000 0.178713 0
27.795000 0.153253 0
27.800000 0.128908 0
27.805000 0.105915 0
27.810000 0.084458 0
27.815000 0.064666 0
27.820000 0.046617 0
27.825000 0.030340 0
27.830000 0.015825 0
27.835000 0.003025 0
27.840000 -0.008137 0
27.845000 -0.017759 0
27.850000 -0.025955 0
27.855000 -0.032851 0
27.860000 -0.038576 0
27.865000 -0.043261 0
27.870000 -0.047032 0
27.875000 -0.050010 0
27.880000 -0.052309 0
27.885000 -0.054032 0
27.890000 -0.055271 0
27.895000 -0.056109 0
27.900000 -0.056618 0
27.905000 -0.056859 0
27.910000 -0.056886 0
27.915000 -0.056742 0
27.920000 -0.056463 0
27.925000 -0.056079 0
27.930000 -0.055416 0
27.935000 -0.054708 0
27.940000 -0.054004 0
27.945000 -0.053304 0
27.950000 -0.052607 0
27.955000 -0.051914 0
27.960000 -0.051224 0
27.965000 -0.050537 0
27.970000 -0.049854 0
27.975000 -0.049174 0
27.980000 -0.048498 0
27.985000 -0.047825 0
27.990000 -0.047155 0
27.995000 -0.046489 0
28.000000 -0.045826 0
28.005000 -0.045166 0
28.010000 -0.044509 0
28.015000 -0.043855 0
28.020000 -0.043204 0
28.025000 -0.042556 0
28.030000 -0.041908 0
28.035000 -0.041260 0
28.040000 -0.040609 0
28.045000 -0.039951 0
28.050000 -0.039278 0
28.055000 -0.038578 0
28.060000 -0.037834 0
28.065000 -0.037017 0
28.070000 -0.036088 0
28.075000 -0.034989 0
28.080000 -0.033639 0
28.085000 -0.031928 0
28.090000 -0.029713 0
28.095000 -0.026813 0
28.100000 -0.023006 0
28.105000 -0.018031 0
28.110000 -0.011597 0
28.115000 -0.003395 0
28.120000 0.006875 0
28.125000 0.019483 0
28.130000 0.034621 0
28.135000 0.052373 0
28.140000 0.072665 0
28.145000 0.095239 0
28.150000 0.119622 0
28.155000 0.145125 0
28.160000 0.170861 0
28.165000 0.195783 0
28.170000 0.218750 0
28.175000 0.238609 0
28.180000 0.254291 0
28.185000 0.264903 0
28.190000 0.269813 1
28.195000 0.268708 0
28.200000 0.261631 0
28.205000 0.248973 0
28.210000 0.231436 0
28.215000 0.209973 0
28.220000 0.185695 0
28.225000 0.159781 0
28.230000 0.133377 0
28.235000 0.107517 0
28.240000 0.083042 0
28.245000 0.060518 0
28.250000 0.040113 0
28.255000 0.021380 0
28.260000 0.002961 0
28.265000 -0.017623 0
28.270000 -0.043656 0
28.275000 -0.077869 0
28.280000 -0.119998 0
28.285000 -0.164203 0
28.290000 -0.198062 0
28.295000 -0.204206 2
28.300000 -0.163835 0
28.305000 -0.060611 0
28.310000 0.114963 0
28.315000 0.358665 0
28.320000 0.643628 0
28.325000 0.916408 0
28.330000 1.107806 0
28.335000 1.159479 3
28.340000 1.051728 0
28.345000 0.814038 0
28.350000 0.510944 0
28.355000 0.211074 0
28.360000 -0.035864 0
