0.000000 1.161874 3
0.005000 1.031007 0
0.010000 0.706440 0
0.015000 0.311371 0
0.020000 -0.037315 0
0.025000 -0.273931 0
0.030000 -0.382818 4
0.035000 -0.381886 0
0.040000 -0.309800 0
0.045000 -0.211651 0
0.050000 -0.121739 0
0.055000 -0.054099 0
0.060000 -0.006374 0
0.065000 0.029945 0
0.070000 0.062045 0
0.075000 0.093694 0
0.080000 0.126124 0
0.085000 0.159301 0
0.090000 0.192685 0
0.095000 0.225537 0
0.100000 0.257031 0
0.105000 0.286305 0
0.110000 0.312503 0
0.115000 0.334815 0
0.120000 0.352519 0
0.125000 0.365020 0
0.130000 0.371880 0
0.135000 0.372848 5
0.140000 0.367867 0
0.145000 0.357086 0
0.150000 0.340846 0
0.155000 0.319665 0
0.160000 0.294211 0
0.165000 0.265262 0
0.170000 0.233670 0
0.175000 0.200320 0
0.180000 0.166086 0
0.185000 0.131796 0
0.190000 0.098202 0
0.195000 0.065952 0
0.200000 0.035576 0
0.205000 0.007480 0
0.210000 -0.018059 0
0.215000 -0.040881 0
0.220000 -0.060939 0
0.225000 -0.078274 0
0.230000 -0.093007 0
0.235000 -0.105314 0
0.240000 -0.115409 0
0.245000 -0.123531 0
0.250000 -0.129927 0
0.255000 -0.134840 0
0.260000 -0.138501 0
0.265000 -0.141123 0
0.270000 -0.142486 0
0.275000 -0.141428 0
0.280000 -0.140375 0
0.285000 -0.139327 0
0.290000 -0.138284 0
0.295000 -0.137245 0
0.300000 -0.136208 0
0.305000 -0.135170 0
0.310000 -0.134125 0
0.315000 -0.133063 0
0.320000 -0.131965 0
0.325000 -0.130797 0
0.330000 -0.129506 0
0.335000 -0.128006 0
0.340000 -0.126166 0
0.345000 -0.123792 0
0.350000 -0.120618 0
0.355000 -0.116286 0
0.360000 -0.110345 0
0.365000 -0.102263 0
0.370000 -0.091457 0
0.375000 -0.077347 0
0.380000 -0.059445 0
0.385000 -0.037455 0
0.390000 -0.011392 0
0.395000 0.018315 0
0.400000 0.050755 0
0.405000 0.084519 0
0.410000 0.117766 0
0.415000 0.148366 0
0.420000 0.174120 0
0.425000 0.193017 0
0.430000 0.203491 0
0.435000 0.204641 1
0.440000 0.196356 0
0.445000 0.179337 0
0.450000 0.154997 0
0.455000 0.125266 0
0.460000 0.092316 0
0.465000 0.058211 0
0.470000 0.024399 0
0.475000 -0.009083 0
0.480000 -0.044566 0
0.485000 -0.086891 0
0.490000 -0.140813 0
0.495000 -0.204756 0
0.500000 -0.264117 0
0.505000 -0.290373 2
0.510000 -0.248209 0
0.515000 -0.106156 0
0.520000 0.150927 0
0.525000 0.501799 0
0.530000 0.867776 0
0.535000 1.123109 0
0.540000 1.157634 3
0.545000 0.951169 0
0.550000 0.588082 0
0.555000 0.197603 0
0.560000 -0.118099 0
0.565000 -0.311684 0
0.570000 -0.380474 4
0.575000 -0.350683 0
0.580000 -0.265048 0
0.585000 -0.166856 0
0.590000 -0.083963 0
0.595000 -0.023903 0
0.600000 0.018916 0
0.605000 0.053110 0
0.610000 0.084731 0
0.615000 0.116534 0
0.620000 0.149197 0
0.625000 0.182460 0
0.630000 0.215692 0
0.635000 0.248118 0
0.640000 0.278892 0
0.645000 0.307151 0
0.650000 0.332047 0
0.655000 0.352797 0
0.660000 0.368716 0
0.665000 0.379261 0
0.670000 0.384055 5
0.675000 0.382911 0
0.680000 0.375845 0
0.685000 0.363073 0
0.690000 0.345002 0
0.695000 0.322203 0
0.700000 0.295389 0
0.705000 0.265368 0
0.710000 0.233010 0
0.715000 0.199201 0
0.720000 0.164803 0
0.725000 0.130623 0
0.730000 0.097377 0
0.735000 0.065676 0
0.740000 0.036006 0
0.745000 0.008729 0
0.750000 -0.015920 0
0.755000 -0.037823 0
0.760000 -0.056965 0
0.765000 -0.073419 0
0.770000 -0.087324 0
0.775000 -0.098875 0
0.780000 -0.108295 0
0.785000 -0.115829 0
0.790000 -0.121722 0
0.795000 -0.126215 0
0.800000 -0.129533 0
0.805000 -0.131883 0
0.810000 -0.131365 0
0.815000 -0.130363 0
0.820000 -0.129365 0
0.825000 -0.128372 0
0.830000 -0.127383 0
0.835000 -0.126397 0
0.840000 -0.125413 0
0.845000 -0.124425 0
0.850000 -0.123428 0
0.855000 -0.122407 0
0.860000 -0.121339 0
0.865000 -0.120186 0
0.870000 -0.118882 0
0.875000 -0.117327 0
0.880000 -0.115370 0
0.885000 -0.112791 0
0.890000 -0.109293 0
0.895000 -0.104482 0
0.900000 -0.097876 0
0.905000 -0.088919 0
0.910000 -0.077021 0
0.915000 -0.061623 0
0.920000 -0.042295 0
0.925000 -0.018841 0
0.930000 0.008584 0
0.935000 0.039379 0
0.940000 0.072448 0
0.945000 0.106208 0
0.950000 0.138691 0
0.955000 0.167710 0
0.960000 0.191104 0
0.965000 0.206995 0
0.970000 0.214040 1
0.975000 0.211621 0
0.980000 0.199931 0
0.985000 0.179953 0
0.990000 0.153321 0
0.995000 0.122091 0
1.000000 0.088446 0
1.005000 0.054292 0
1.010000 0.020662 0
1.015000 -0.013189 0
1.020000 -0.050616 0
1.025000 -0.096944 0
1.030000 -0.155436 0
1.035000 -0.220234 0
1.040000 -0.271128 0
1.045000 -0.275860 2
1.050000 -0.199255 0
1.055000 -0.014232 0
1.060000 0.283483 0
1.065000 0.652591 0
1.070000 0.992445 0
1.075000 1.173492 3
1.080000 1.111786 0
1.085000 0.829113 0
1.090000 0.439612 0
1.095000 0.071097 0
1.100000 -0.194888 0
1.105000 -0.331720 0
1.110000 -0.351345 4
1.115000 -0.289914 0
1.120000 -0.193694 0
1.125000 -0.100965 0
1.130000 -0.029770 0
1.135000 0.020251 0
1.140000 0.057473 0
1.145000 0.089669 0
1.150000 0.121120 0
1.155000 0.153309 0
1.160000 0.186288 0
1.165000 0.219532 0
1.170000 0.252295 0
1.175000 0.283735 0
1.180000 0.312968 0
1.185000 0.339116 0
1.190000 0.361348 0
1.195000 0.378922 0
1.200000 0.391228 0
1.205000 0.397820 0
1.210000 0.398442 5
1.215000 0.393046 0
1.220000 0.381793 0
1.225000 0.365045 0
1.230000 0.343343 0
1.235000 0.317382 0
1.240000 0.287970 0
1.245000 0.255985 0
1.250000 0.222333 0
1.255000 0.187906 0
1.260000 0.153544 0
1.265000 0.120001 0
1.270000 0.087920 0
1.275000 0.057824 0
1.280000 0.030101 0
1.285000 0.005010 0
1.290000 -0.017312 0
1.295000 -0.036838 0
1.300000 -0.053633 0
1.305000 -0.067836 0
1.310000 -0.079640 0
1.315000 -0.089273 0
1.320000 -0.096983 0
1.325000 -0.103024 0
1.330000 -0.107640 0
1.335000 -0.111064 0
1.340000 -0.113506 0
1.345000 -0.113079 0
1.350000 -0.112168 0
1.355000 -0.111261 0
1.360000 -0.110358 0
1.365000 -0.109459 0
1.370000 -0.108562 0
1.375000 -0.107666 0
1.380000 -0.106766 0
1.385000 -0.105854 0
1.390000 -0.104916 0
1.395000 -0.103927 0
1.400000 -0.102843 0
1.405000 -0.101593 0
1.410000 -0.100069 0
1.415000 -0.098103 0
1.420000 -0.095459 0
1.425000 -0.091813 0
1.430000 -0.086745 0
1.435000 -0.079741 0
1.440000 -0.070220 0
1.445000 -0.057578 0
1.450000 -0.041267 0
1.455000 -0.020897 0
1.460000 0.003646 0
1.465000 0.032081 0
1.470000 0.063645 0
1.475000 0.097058 0
1.480000 0.130559 0
1.485000 0.162034 0
1.490000 0.189226 0
1.495000 0.209992 0
1.500000 0.222586 0
1.505000 0.225897 1
1.510000 0.219610 0
1.515000 0.204261 0
1.520000 0.181152 0
1.525000 0.152175 0
1.530000 0.119531 0
1.535000 0.085387 0
1.540000 0.051372 0
1.545000 0.017808 0
1.550000 -0.017309 0
1.555000 -0.058675 0
1.560000 -0.111420 0
1.565000 -0.174933 0
1.570000 -0.235628 0
1.575000 -0.265244 2
1.580000 -0.227759 0
1.585000 -0.090452 0
1.590000 0.163177 0
1.595000 0.512752 0
1.600000 0.878743 0
1.605000 1.132616 0
1.610000 1.162166 3
1.615000 0.949027 0
1.620000 0.582074 0
1.625000 0.193603 0
1.630000 -0.114679 0
1.635000 -0.297908 0
1.640000 -0.356207 4
1.645000 -0.318517 0
1.650000 -0.229497 0
1.655000 -0.132305 0
1.660000 -0.052736 0
1.665000 0.004017 0
1.670000 0.044739 0
1.675000 0.078042 0
1.680000 0.109476 0
1.685000 0.141352 0
1.690000 0.174096 0
1.695000 0.207327 0
1.700000 0.240355 0
1.705000 0.272361 0
1.710000 0.302473 0
1.715000 0.329803 0
1.720000 0.353499 0
1.725000 0.372781 0
1.730000 0.386990 0
1.735000 0.395617 0
1.740000 0.398339 5
1.745000 0.395033 0
1.750000 0.385788 0
1.755000 0.370897 0
1.760000 0.350844 0
1.765000 0.326275 0
1.770000 0.297962 0
1.775000 0.266767 0
1.780000 0.233590 0
1.785000 0.199335 0
1.790000 0.164863 0
1.795000 0.130962 0
1.800000 0.098316 0
1.805000 0.067490 0
1.810000 0.038921 0
1.815000 0.012910 0
1.820000 -0.010365 0
1.825000 -0.030841 0
1.830000 -0.048553 0
1.835000 -0.063618 0
1.840000 -0.076211 0
1.845000 -0.086553 0
1.850000 -0.094886 0
1.855000 -0.101462 0
1.860000 -0.106532 0
1.865000 -0.110333 0
1.870000 -0.113083 0
1.875000 -0.114570 0
1.880000 -0.113651 0
1.885000 -0.112737 0
1.890000 -0.111827 0
1.895000 -0.110921 0
1.900000 -0.110018 0
1.905000 -0.109116 0
1.910000 -0.108212 0
1.915000 -0.107300 0
1.920000 -0.106367 0
1.925000 -0.105393 0
1.930000 -0.104341 0
1.935000 -0.103151 0
1.940000 -0.101727 0
1.945000 -0.099924 0
1.950000 -0.097531 0
1.955000 -0.094252 0
1.960000 -0.089700 0
1.965000 -0.083391 0
1.970000 -0.074760 0
1.975000 -0.063204 0
1.980000 -0.048145 0
1.985000 -0.029129 0
1.990000 -0.005938 0
1.995000 0.021288 0
2.000000 0.051951 0
2.005000 0.084938 0
2.010000 0.118634 0
2.015000 0.151020 0
2.020000 0.179856 0
2.025000 0.202930 0
2.030000 0.218337 0
2.035000 0.224734 1
2.040000 0.221539 0
2.045000 0.209014 0
2.050000 0.188231 0
2.055000 0.160918 0
2.060000 0.129213 0
2.065000 0.095340 0
2.070000 0.061172 0
2.075000 0.027556 0
2.080000 -0.006667 0
2.085000 -0.045405 0
2.090000 -0.094145 0
2.095000 -0.154962 0
2.100000 -0.218981 0
2.105000 -0.262221 2
2.110000 -0.249968 0
2.115000 -0.147183 0
2.120000 0.069540 0
2.125000 0.394285 0
2.130000 0.767476 0
2.135000 1.071378 0
2.140000 1.179137 3
2.145000 1.037412 0
2.150000 0.705543 0
2.155000 0.310339 0
2.160000 -0.031855 0
2.165000 -0.258285 0
2.170000 -0.356344 4
2.175000 -0.346615 0
2.180000 -0.269797 0
2.185000 -0.171367 0
2.190000 -0.084046 0
2.195000 -0.019588 0
2.200000 0.025837 0
2.205000 0.061011 0
2.210000 0.092741 0
2.215000 0.124359 0
2.220000 0.156821 0
2.225000 0.189963 0
2.230000 0.223183 0
2.235000 0.255707 0
2.240000 0.286683 0
2.245000 0.315231 0
2.250000 0.340487 0
2.255000 0.361643 0
2.260000 0.377992 0
2.265000 0.388965 0
2.270000 0.394164 5
2.275000 0.393383 0
2.280000 0.386623 0
2.285000 0.374092 0
2.290000 0.356193 0
2.295000 0.333500 0
2.300000 0.306733 0
2.305000 0.276712 0
2.310000 0.244320 0
2.315000 0.210457 0
2.320000 0.176002 0
2.325000 0.141772 0
2.330000 0.108496 0
2.335000 0.076792 0
2.340000 0.047151 0
2.345000 0.019934 0
2.350000 -0.004625 0
2.355000 -0.026412 0
2.360000 -0.045417 0
2.365000 -0.061720 0
2.370000 -0.075470 0
2.375000 -0.086865 0
2.380000 -0.096138 0
2.385000 -0.103534 0
2.390000 -0.109307 0
2.395000 -0.113697 0
2.400000 -0.116933 0
2.405000 -0.119219 0
2.410000 -0.118745 0
2.415000 -0.117806 0
2.420000 -0.116871 0
2.425000 -0.115940 0
2.430000 -0.115013 0
2.435000 -0.114088 0
2.440000 -0.113163 0
2.445000 -0.112235 0
2.450000 -0.111293 0
2.455000 -0.110323 0
2.460000 -0.109298 0
2.465000 -0.108173 0
2.470000 -0.106874 0
2.475000 -0.105287 0
2.480000 -0.103241 0
2.485000 -0.100493 0
2.490000 -0.096712 0
2.495000 -0.091472 0
2.500000 -0.084258 0
2.505000 -0.074486 0
2.510000 -0.061559 0
2.515000 -0.044941 0
2.520000 -0.024258 0
2.525000 0.000577 0
2.530000 0.029257 0
2.535000 0.060993 0
2.540000 0.094483 0
2.545000 0.127955 0
2.550000 0.159297 0
2.555000 0.186265 0
2.560000 0.206744 0
2.565000 0.219020 0
2.570000 0.222018 1
2.575000 0.215455 0
2.580000 0.199887 0
2.585000 0.176630 0
2.590000 0.147572 0
2.595000 0.114904 0
2.600000 0.080772 0
2.605000 0.046785 0
2.610000 0.013242 0
2.615000 -0.021865 0
2.620000 -0.063211 0
2.625000 -0.115895 0
2.630000 -0.179346 0
2.635000 -0.240168 0
2.640000 -0.270407 2
2.645000 -0.234311 0
2.650000 -0.099226 0
2.655000 0.151740 0
2.660000 0.499527 0
2.665000 0.866818 0
2.670000 1.126669 0
2.675000 1.165612 3
2.680000 0.960997 0
2.685000 0.597742 0
2.690000 0.207735 0
2.695000 -0.105354 0
2.700000 -0.294419 0
2.705000 -0.357974 4
2.710000 -0.323852 0
2.715000 -0.236217 0
2.720000 -0.138629 0
2.725000 -0.057881 0
2.730000 -0.000048 0
2.735000 0.041300 0
2.740000 0.074836 0
2.745000 0.106297 0
2.750000 0.138131 0
2.755000 0.170837 0
2.760000 0.204063 0
2.765000 0.237132 0
2.770000 0.269233 0
2.775000 0.299496 0
2.780000 0.327036 0
2.785000 0.351000 0
2.790000 0.370604 0
2.795000 0.385179 0
2.800000 0.394209 0
2.805000 0.397357 5
2.810000 0.394486 0
2.815000 0.385670 0
2.820000 0.371187 0
2.825000 0.351507 0
2.830000 0.327261 0
2.835000 0.299214 0
2.840000 0.268218 0
2.845000 0.235172 0
2.850000 0.200978 0
2.855000 0.166499 0
2.860000 0.132528 0
2.865000 0.099758 0
2.870000 0.068763 0
2.875000 0.039989 0
2.880000 0.013750 0
2.885000 -0.009768 0
2.890000 -0.030491 0
2.895000 -0.048447 0
2.900000 -0.063745 0
2.905000 -0.076557 0
2.910000 -0.087097 0
2.915000 -0.095606 0
2.920000 -0.102337 0
2.925000 -0.107538 0
2.930000 -0.111449 0
2.935000 -0.114290 0
2.940000 -0.115837 0
2.945000 -0.114912 0
2.950000 -0.113992 0
2.955000 -0.113076 0
2.960000 -0.112163 0
2.965000 -0.111254 0
2.970000 -0.110347 0
2.975000 -0.109438 0
2.980000 -0.108521 0
2.985000 -0.107586 0
2.990000 -0.106613 0
2.995000 -0.105567 0
3.000000 -0.104392 0
3.005000 -0.102997 0
3.010000 -0.101244 0
3.015000 -0.098931 0
3.020000 -0.095774 0
3.025000 -0.091399 0
3.030000 -0.085334 0
3.035000 -0.077024 0
3.040000 -0.065870 0
3.045000 -0.051286 0
3.050000 -0.032798 0
3.055000 -0.010151 0
3.060000 0.016569 0
3.065000 0.046830 0
3.070000 0.079592 0
3.075000 0.113307 0
3.080000 0.146006 0
3.085000 0.175473 0
3.090000 0.199480 0
3.095000 0.216067 0
3.100000 0.223802 1
3.105000 0.221989 0
3.110000 0.210768 0
3.115000 0.191097 0
3.120000 0.164620 0
3.125000 0.133427 0
3.130000 0.099748 0
3.135000 0.065538 0
3.140000 0.031855 0
3.145000 -0.002087 0
3.150000 -0.039769 0
3.155000 -0.086641 0
3.160000 -0.145784 0
3.165000 -0.210505 0
3.170000 -0.259206 2
3.175000 -0.258340 0
3.180000 -0.172238 0
3.185000 0.025275 0
3.190000 0.334695 0
3.195000 0.706732 0
3.200000 1.031742 0
3.205000 1.179066 3
3.210000 1.078542 0
3.215000 0.771513 0
3.220000 0.377849 0
3.225000 0.019634 0
3.230000 -0.230452 0
3.235000 -0.352000 0
3.240000 -0.360306 4
3.245000 -0.292937 0
3.250000 -0.195562 0
3.255000 -0.104311 0
3.260000 -0.035039 0
3.265000 0.013719 0
3.270000 0.050421 0
3.275000 0.082525 0
3.280000 0.114040 0
3.285000 0.146315 0
3.290000 0.179359 0
3.295000 0.212641 0
3.300000 0.245419 0
3.305000 0.276863 0
3.310000 0.306100 0
3.315000 0.332266 0
3.320000 0.354542 0
3.325000 0.372196 0
3.330000 0.384625 0
3.335000 0.391387 0
3.340000 0.392227 5
3.345000 0.387089 0
3.350000 0.376126 0
3.355000 0.359684 0
3.360000 0.338290 0
3.365000 0.312622 0
3.370000 0.283467 0
3.375000 0.251691 0
3.380000 0.218185 0
3.385000 0.183831 0
3.390000 0.149464 0
3.395000 0.115836 0
3.400000 0.083595 0
3.405000 0.053270 0
3.410000 0.025260 0
3.415000 -0.000162 0
3.420000 -0.022847 0
3.425000 -0.042754 0
3.430000 -0.059933 0
3.435000 -0.074511 0
3.440000 -0.086672 0
3.445000 -0.096635 0
3.450000 -0.104642 0
3.455000 -0.110944 0
3.460000 -0.115784 0
3.465000 -0.119395 0
3.470000 -0.121988 0
3.475000 -0.123358 0
3.480000 -0.122396 0
3.485000 -0.121438 0
3.490000 -0.120484 0
3.495000 -0.119535 0
3.500000 -0.118589 0
3.505000 -0.117644 0
3.510000 -0.116697 0
3.515000 -0.115741 0
3.520000 -0.114765 0
3.525000 -0.113747 0
3.530000 -0.112650 0
3.535000 -0.111414 0
3.540000 -0.109945 0
3.545000 -0.108098 0
3.550000 -0.105664 0
3.555000 -0.102353 0
3.560000 -0.097785 0
3.565000 -0.091482 0
3.570000 -0.082893 0
3.575000 -0.071421 0
3.580000 -0.056496 0
3.585000 -0.037662 0
3.590000 -0.014689 0
3.595000 0.012310 0
3.600000 0.042778 0
3.605000 0.075660 0
3.610000 0.109402 0
3.615000 0.142046 0
3.620000 0.171397 0
3.625000 0.195260 0
3.630000 0.211709 0
3.635000 0.219344 1
3.640000 0.217488 0
3.645000 0.206284 0
3.650000 0.186681 0
3.655000 0.160297 0
3.660000 0.129195 0
3.665000 0.095576 0
3.670000 0.061386 0
3.675000 0.027709 0
3.680000 -0.006139 0
3.685000 -0.043476 0
3.690000 -0.089658 0
3.695000 -0.148054 0
3.700000 -0.212887 0
3.705000 -0.263860 0
3.710000 -0.268441 2
3.715000 -0.191149 0
3.720000 -0.004770 0
3.725000 0.294581 0
3.730000 0.664252 0
3.735000 1.001553 0
3.740000 1.175980 3
3.745000 1.107116 0
3.750000 0.821997 0
3.755000 0.432425 0
3.760000 0.062725 0
3.765000 -0.207027 0
3.770000 -0.349626 0
3.775000 -0.375356 4
3.780000 -0.318278 0
3.785000 -0.223228 0
3.790000 -0.128781 0
3.795000 -0.054658 0
3.800000 -0.002138 0
3.805000 0.036499 0
3.810000 0.069203 0
3.815000 0.100689 0
3.820000 0.132773 0
3.825000 0.165688 0
3.830000 0.198999 0
3.835000 0.232015 0
3.840000 0.263934 0
3.845000 0.293904 0
3.850000 0.321067 0
3.855000 0.344600 0
3.860000 0.363753 0
3.865000 0.377890 0
3.870000 0.386523 0
3.875000 0.389339 5
3.880000 0.386219 0
3.885000 0.377244 0
3.890000 0.362692 0
3.895000 0.343022 0
3.900000 0.318853 0
3.905000 0.290924 0
3.910000 0.260065 0
3.915000 0.227147 0
3.920000 0.193049 0
3.925000 0.158615 0
3.930000 0.124621 0
3.935000 0.091751 0
3.940000 0.060575 0
3.945000 0.031543 0
3.950000 0.004976 0
3.955000 -0.018926 0
3.960000 -0.040077 0
3.965000 -0.058486 0
3.970000 -0.074247 0
3.975000 -0.087516 0
3.980000 -0.098494 0
3.985000 -0.107411 0
3.990000 -0.114511 0
3.995000 -0.120038 0
4.000000 -0.124228 0
4.005000 -0.127301 0
4.010000 -0.129455 0
4.015000 -0.128918 0
4.020000 -0.127928 0
4.025000 -0.126943 0
4.030000 -0.125962 0
4.035000 -0.124984 0
4.040000 -0.124010 0
4.045000 -0.123036 0
4.050000 -0.122058 0
4.055000 -0.121067 0
4.060000 -0.120049 0
4.065000 -0.118978 0
4.070000 -0.117810 0
4.075000 -0.116475 0
4.080000 -0.114863 0
4.085000 -0.112812 0
4.090000 -0.110090 0
4.095000 -0.106381 0
4.100000 -0.101278 0
4.105000 -0.094287 0
4.110000 -0.084843 0
4.115000 -0.072361 0
4.120000 -0.056300 0
4.125000 -0.036267 0
4.130000 -0.012119 0
4.135000 0.015918 0
4.140000 0.047168 0
4.145000 0.080456 0
4.150000 0.114140 0
4.155000 0.146215 0
4.160000 0.174496 0
4.165000 0.196859 0
4.170000 0.211504 0
4.175000 0.217192 1
4.180000 0.213423 0
4.185000 0.200503 0
4.190000 0.179508 0
4.195000 0.152134 0
4.200000 0.120460 0
4.205000 0.086645 0
4.210000 0.052514 0
4.215000 0.018931 0
4.220000 -0.015119 0
4.225000 -0.053279 0
4.230000 -0.100889 0
4.235000 -0.160570 0
4.240000 -0.225135 0
4.245000 -0.273004 2
4.250000 -0.271346 0
4.255000 -0.185490 0
4.260000 0.010097 0
4.265000 0.316581 0
4.270000 0.687899 0
4.275000 1.019584 0
4.280000 1.183492 3
4.285000 1.103782 0
4.290000 0.810977 0
4.295000 0.419703 0
4.300000 0.053616 0
4.305000 -0.209685 0
4.310000 -0.345295 0
4.315000 -0.365176 4
4.320000 -0.304568 0
4.325000 -0.208629 0
4.330000 -0.115178 0
4.335000 -0.042668 0
4.340000 0.008557 0
4.345000 0.046495 0
4.350000 0.078953 0
4.355000 0.110412 0
4.360000 0.142531 0
4.365000 0.175464 0
4.370000 0.208744 0
4.375000 0.241664 0
4.380000 0.273410 0
4.385000 0.303127 0
4.390000 0.329953 0
4.395000 0.353066 0
4.400000 0.371722 0
4.405000 0.385295 0
4.410000 0.393311 0
4.415000 0.395475 5
4.420000 0.391688 0
4.425000 0.382053 0
4.430000 0.366871 0
4.435000 0.346622 0
4.440000 0.321943 0
4.445000 0.293589 0
4.450000 0.262402 0
4.455000 0.229259 0
4.460000 0.195042 0
4.465000 0.160590 0
4.470000 0.126675 0
4.475000 0.093968 0
4.480000 0.063027 0
4.485000 0.034286 0
4.490000 0.008050 0
4.495000 -0.015496 0
4.500000 -0.036279 0
4.505000 -0.054324 0
4.510000 -0.069734 0
4.515000 -0.082674 0
4.520000 -0.093352 0
4.525000 -0.102001 0
4.530000 -0.108867 0
4.535000 -0.114196 0
4.540000 -0.118222 0
4.545000 -0.121162 0
4.550000 -0.123212 0
4.555000 -0.122686 0
4.560000 -0.121727 0
4.565000 -0.120773 0
4.570000 -0.119822 0
4.575000 -0.118875 0
4.580000 -0.117931 0
4.585000 -0.116986 0
4.590000 -0.116035 0
4.595000 -0.115070 0
4.600000 -0.114073 0
4.605000 -0.113016 0
4.610000 -0.111851 0
4.615000 -0.110499 0
4.620000 -0.108842 0
4.625000 -0.106704 0
4.630000 -0.103835 0
4.635000 -0.099899 0
4.640000 -0.094470 0
4.645000 -0.087032 0
4.650000 -0.077009 0
4.655000 -0.063816 0
4.660000 -0.046934 0
4.665000 -0.026012 0
4.670000 -0.000980 0
4.675000 0.027839 0
4.680000 0.059654 0
4.685000 0.093171 0
4.690000 0.126644 0
4.695000 0.157996 0
4.700000 0.185023 0
4.705000 0.205647 0
4.710000 0.218174 0
4.715000 0.221528 1
4.720000 0.215402 0
4.725000 0.200306 0
4.730000 0.177494 0
4.735000 0.148792 0
4.740000 0.116342 0
4.745000 0.082272 0
4.750000 0.048237 0
4.755000 0.014706 0
4.760000 -0.020000 0
4.765000 -0.060210 0
4.770000 -0.111147 0
4.775000 -0.173484 0
4.780000 -0.236217 0
4.785000 -0.273861 2
4.790000 -0.251845 0
4.795000 -0.136757 0
4.800000 0.092030 0
4.805000 0.424561 0
4.810000 0.797301 0
4.815000 1.092265 0
4.820000 1.187741 3
4.825000 1.036738 0
4.830000 0.700969 0
4.835000 0.305716 0
4.840000 -0.035648 0
4.845000 -0.262147 0
4.850000 -0.361449 4
4.855000 -0.353495 0
4.860000 -0.277953 0
4.865000 -0.179579 0
4.870000 -0.091224 0
4.875000 -0.025391 0
4.880000 0.021084 0
4.885000 0.056780 0
4.890000 0.088640 0
4.895000 0.120203 0
4.900000 0.152572 0
4.905000 0.185661 0
4.910000 0.218914 0
4.915000 0.251583 0
4.920000 0.282843 0
4.925000 0.311831 0
4.930000 0.337696 0
4.935000 0.359632 0
4.940000 0.376928 0
4.945000 0.388996 0
4.950000 0.395412 0
4.955000 0.395933 5
4.960000 0.390517 0
4.965000 0.379320 0
4.970000 0.362695 0
4.975000 0.341166 0
4.980000 0.315406 0
4.985000 0.286196 0
4.990000 0.254389 0
4.995000 0.220868 0
5.000000 0.186504 0
5.005000 0.152121 0
5.010000 0.118463 0
5.015000 0.086173 0
5.020000 0.055775 0
5.025000 0.027669 0
5.030000 0.002126 0
5.035000 -0.020699 0
5.040000 -0.040762 0
5.045000 -0.058108 0
5.050000 -0.072859 0
5.055000 -0.085193 0
5.060000 -0.095325 0
5.065000 -0.103492 0
5.070000 -0.109942 0
5.075000 -0.114917 0
5.080000 -0.118648 0
5.085000 -0.121345 0
5.090000 -0.122791 0
5.095000 -0.121831 0
5.100000 -0.120876 0
5.105000 -0.119926 0
5.110000 -0.118979 0
5.115000 -0.118036 0
5.120000 -0.117095 0
5.125000 -0.116152 0
5.130000 -0.115202 0
5.135000 -0.114234 0
5.140000 -0.113229 0
5.145000 -0.112154 0
5.150000 -0.110954 0
5.155000 -0.109544 0
5.160000 -0.107791 0
5.165000 -0.105505 0
5.170000 -0.102416 0
5.175000 -0.098167 0
5.180000 -0.092309 0
5.185000 -0.084310 0
5.190000 -0.073587 0
5.195000 -0.059564 0
5.200000 -0.041753 0
5.205000 -0.019859 0
5.210000 0.006105 0
5.215000 0.035712 0
5.220000 0.068054 0
5.225000 0.101728 0
5.230000 0.134899 0
5.235000 0.165444 0
5.240000 0.191169 0
5.245000 0.210062 0
5.250000 0.220558 0
5.255000 0.221746 1
5.260000 0.213507 0
5.265000 0.196529 0
5.270000 0.172210 0
5.275000 0.142471 0
5.280000 0.109479 0
5.285000 0.075298 0
5.290000 0.041391 0
5.295000 0.007835 0
5.300000 -0.027633 0
5.305000 -0.069803 0
5.310000 -0.123485 0
5.315000 -0.187362 0
5.320000 -0.247263 0
5.325000 -0.275048 2
5.330000 -0.235532 0
5.335000 -0.097037 0
5.340000 0.156310 0
5.345000 0.504889 0
5.350000 0.872230 0
5.355000 1.133705 0
5.360000 1.177379 3
5.365000 0.979000 0
5.370000 0.619503 0
5.375000 0.227754 0
5.380000 -0.092262 0
5.385000 -0.291140 0
5.390000 -0.364751 4
5.395000 -0.338340 0
5.400000 -0.254195 0
5.405000 -0.155895 0
5.410000 -0.072128 0
5.415000 -0.011205 0
5.420000 0.032114 0
5.425000 0.066464 0
5.430000 0.098047 0
5.435000 0.129742 0
5.440000 0.162294 0
5.445000 0.195467 0
5.450000 0.228645 0
5.455000 0.261056 0
5.460000 0.291860 0
5.465000 0.320191 0
5.470000 0.345203 0
5.475000 0.366108 0
5.480000 0.382218 0
5.485000 0.392981 0
5.490000 0.398011 5
5.495000 0.397113 0
5.500000 0.390290 0
5.505000 0.377748 0
5.510000 0.359883 0
5.515000 0.337259 0
5.520000 0.310580 0
5.525000 0.280649 0
5.530000 0.248333 0
5.535000 0.214516 0
5.540000 0.180064 0
5.545000 0.145783 0
5.550000 0.112398 0
5.555000 0.080525 0
5.560000 0.050656 0
5.565000 0.023162 0
5.570000 -0.001718 0
5.575000 -0.023856 0
5.580000 -0.043233 0
5.585000 -0.059915 0
5.590000 -0.074040 0
5.595000 -0.085797 0
5.600000 -0.095411 0
5.605000 -0.103121 0
5.610000 -0.109176 0
5.615000 -0.113816 0
5.620000 -0.117267 0
5.625000 -0.119737 0
5.630000 -0.121028 0
5.635000 -0.120078 0
5.640000 -0.119131 0
5.645000 -0.118189 0
5.650000 -0.117251 0
5.655000 -0.116316 0
5.660000 -0.115382 0
5.665000 -0.114445 0
5.670000 -0.113499 0
5.675000 -0.112531 0
5.680000 -0.111517 0
5.685000 -0.110422 0
5.690000 -0.109181 0
5.695000 -0.107699 0
5.700000 -0.105827 0
5.705000 -0.103355 0
5.710000 -0.099988 0
5.715000 -0.095343 0
5.720000 -0.088946 0
5.725000 -0.080244 0
5.730000 -0.068649 0
5.735000 -0.053597 0
5.740000 -0.034644 0
5.745000 -0.011572 0
5.750000 0.015497 0
5.755000 0.046003 0
5.760000 0.078890 0
5.765000 0.112617 0
5.770000 0.145244 0
5.775000 0.174598 0
5.780000 0.198505 0
5.785000 0.215056 0
5.790000 0.222857 1
5.795000 0.221220 0
5.800000 0.210269 0
5.805000 0.190920 0
5.810000 0.164754 0
5.815000 0.133802 0
5.820000 0.100244 0
5.825000 0.066032 0
5.830000 0.032308 0
5.835000 -0.001468 0
5.840000 -0.038398 0
5.845000 -0.083727 0
5.850000 -0.141180 0
5.855000 -0.206054 0
5.860000 -0.259549 0
5.865000 -0.270257 2
5.870000 -0.202854 0
5.875000 -0.028995 0
5.880000 0.258670 0
5.885000 0.624306 0
5.890000 0.972733 0
5.895000 1.174451 3
5.900000 1.137741 0
5.905000 0.873377 0
5.910000 0.488638 0
5.915000 0.112712 0
5.920000 -0.167149 0
5.925000 -0.319057 0
5.930000 -0.351256 4
5.935000 -0.297406 0
5.940000 -0.203160 0
5.945000 -0.108479 0
5.950000 -0.034108 0
5.955000 0.018388 0
5.960000 0.056860 0
5.965000 0.089414 0
5.970000 0.120809 0
5.975000 0.152836 0
5.980000 0.185694 0
5.985000 0.218919 0
5.990000 0.251794 0
5.995000 0.283491 0
6.000000 0.313139 0
6.005000 0.339862 0
6.010000 0.362823 0
6.015000 0.381267 0
6.020000 0.394562 0
6.025000 0.402232 0
6.030000 0.403988 5
6.035000 0.399740 0
6.040000 0.389607 0
6.045000 0.373912 0
6.050000 0.353157 0
6.055000 0.328004 0
6.060000 0.299234 0
6.065000 0.267709 0
6.070000 0.234325 0
6.075000 0.199975 0
6.080000 0.165508 0
6.085000 0.131692 0
6.090000 0.099196 0
6.095000 0.068565 0
6.100000 0.040219 0
6.105000 0.014445 0
6.110000 -0.008593 0
6.115000 -0.028842 0
6.120000 -0.046345 0
6.125000 -0.061223 0
6.130000 -0.073655 0
6.135000 -0.083861 0
6.140000 -0.092084 0
6.145000 -0.098573 0
6.150000 -0.103577 0
6.155000 -0.107330 0
6.160000 -0.110047 0
6.165000 -0.111518 0
6.170000 -0.110614 0
6.175000 -0.109715 0
6.180000 -0.108820 0
6.185000 -0.107929 0
6.190000 -0.107041 0
6.195000 -0.106154 0
6.200000 -0.105265 0
6.205000 -0.104367 0
6.210000 -0.103449 0
6.215000 -0.102488 0
6.220000 -0.101451 0
6.225000 -0.100275 0
6.230000 -0.098867 0
6.235000 -0.097083 0
6.240000 -0.094713 0
6.245000 -0.091466 0
6.250000 -0.086959 0
6.255000 -0.080714 0
6.260000 -0.072173 0
6.265000 -0.060737 0
6.270000 -0.045831 0
6.275000 -0.026998 0
6.280000 -0.004009 0
6.285000 0.023014 0
6.290000 0.053504 0
6.295000 0.086381 0
6.300000 0.120072 0
6.305000 0.152592 0
6.310000 0.181727 0
6.315000 0.205273 0
6.320000 0.221306 0
6.325000 0.228445 1
6.330000 0.226047 0
6.335000 0.214300 0
6.340000 0.194201 0
6.345000 0.167413 0
6.350000 0.136031 0
6.355000 0.102270 0
6.360000 0.068051 0
6.365000 0.034368 0
6.370000 0.000352 0
6.375000 -0.037562 0
6.380000 -0.084809 0
6.385000 -0.144277 0
6.390000 -0.208946 0
6.395000 -0.256964 2
6.400000 -0.254801 0
6.405000 -0.167048 0
6.410000 0.032064 0
6.415000 0.342539 0
6.420000 0.714709 0
6.425000 1.039107 0
6.430000 1.185835 3
6.435000 1.084706 0
6.440000 0.776507 0
6.445000 0.382601 0
6.450000 0.025868 0
6.455000 -0.221296 0
6.460000 -0.339291 0
6.465000 -0.344377 4
6.470000 -0.275050 0
6.475000 -0.177392 0
6.480000 -0.087118 0
6.485000 -0.019199 0
6.490000 0.028509 0
6.495000 0.064654 0
6.500000 0.096565 0
6.505000 0.128057 0
6.510000 0.160349 0
6.515000 0.193384 0
6.520000 0.226597 0
6.525000 0.259229 0
6.530000 0.290432 0
6.535000 0.319326 0
6.540000 0.345038 0
6.545000 0.366749 0
6.550000 0.383733 0
6.555000 0.395399 0
6.560000 0.401324 5
6.565000 0.401275 0
6.570000 0.395227 0
6.575000 0.383361 0
6.580000 0.366059 0
6.585000 0.343878 0
6.590000 0.317522 0
6.595000 0.287805 0
6.600000 0.255607 0
6.605000 0.221832 0
6.610000 0.187364 0
6.615000 0.153033 0
6.620000 0.119582 0
6.625000 0.087642 0
6.630000 0.057720 0
6.635000 0.030195 0
6.640000 0.005312 0
6.645000 -0.016800 0
6.650000 -0.036124 0
6.655000 -0.052730 0
6.660000 -0.066761 0
6.665000 -0.078412 0
6.670000 -0.087914 0
6.675000 -0.095514 0
6.680000 -0.101463 0
6.685000 -0.106006 0
6.690000 -0.109373 0
6.695000 -0.111772 0
6.700000 -0.111346 0
6.705000 -0.110443 0
6.710000 -0.109545 0
6.715000 -0.108651 0
6.720000 -0.107760 0
6.725000 -0.106872 0
6.730000 -0.105984 0
6.735000 -0.105092 0
6.740000 -0.104187 0
6.745000 -0.103256 0
6.750000 -0.102272 0
6.755000 -0.101191 0
6.760000 -0.099942 0
6.765000 -0.098414 0
6.770000 -0.096439 0
6.775000 -0.093779 0
6.780000 -0.090107 0
6.785000 -0.085003 0
6.790000 -0.077954 0
6.795000 -0.068379 0
6.800000 -0.055676 0
6.805000 -0.039301 0
6.810000 -0.018870 0
6.815000 0.005724 0
6.820000 0.034197 0
6.825000 0.065780 0
6.830000 0.099193 0
6.835000 0.132678 0
6.840000 0.164128 0
6.845000 0.191292 0
6.850000 0.212038 0
6.855000 0.224625 0
6.860000 0.227947 1
6.865000 0.221690 0
6.870000 0.206382 0
6.875000 0.183318 0
6.880000 0.154378 0
6.885000 0.121755 0
6.890000 0.087609 0
6.895000 0.053577 0
6.900000 0.020006 0
6.905000 -0.015051 0
6.910000 -0.056232 0
6.915000 -0.108692 0
6.920000 -0.172046 0
6.925000 -0.233137 0
6.930000 -0.264143 2
6.935000 -0.229245 0
6.940000 -0.095570 0
6.945000 0.154118 0
6.950000 0.501221 0
6.955000 0.868775 0
6.960000 1.129676 0
6.965000 1.169785 3
6.970000 0.966058 0
6.975000 0.603328 0
6.980000 0.213033 0
6.985000 -0.101106 0
6.990000 -0.291642 0
6.995000 -0.356692 4
7.000000 -0.323704 0
7.005000 -0.236567 0
7.010000 -0.138858 0
7.015000 -0.057664 0
7.020000 0.000610 0
7.025000 0.042228 0
7.030000 0.075864 0
7.035000 0.107326 0
7.040000 0.139127 0
7.045000 0.171800 0
7.050000 0.205009 0
7.055000 0.238086 0
7.060000 0.270225 0
7.065000 0.300562 0
7.070000 0.328213 0
7.075000 0.352327 0
7.080000 0.372119 0
7.085000 0.386917 0
7.090000 0.396198 0
7.095000 0.399619 5
7.100000 0.397034 0
7.105000 0.388505 0
7.110000 0.374299 0
7.115000 0.354876 0
7.120000 0.330857 0
7.125000 0.302997 0
7.130000 0.272142 0
7.135000 0.239186 0
7.140000 0.205028 0
7.145000 0.170533 0
7.150000 0.136497 0
7.155000 0.103617 0
7.160000 0.072474 0
7.165000 0.043520 0
7.170000 0.017079 0
7.175000 -0.006654 0
7.180000 -0.027600 0
7.185000 -0.045777 0
7.190000 -0.061290 0
7.195000 -0.074305 0
7.200000 -0.085033 0
7.205000 -0.093712 0
7.210000 -0.100594 0
7.215000 -0.105928 0
7.220000 -0.109953 0
7.225000 -0.112890 0
7.230000 -0.114938 0
7.235000 -0.114446 0
7.240000 -0.113528 0
7.245000 -0.112614 0
7.250000 -0.111704 0
7.255000 -0.110798 0
7.260000 -0.109893 0
7.265000 -0.108987 0
7.270000 -0.108074 0
7.275000 -0.107145 0
7.280000 -0.106180 0
7.285000 -0.105147 0
7.290000 -0.103994 0
7.295000 -0.102633 0
7.300000 -0.100935 0
7.305000 -0.098705 0
7.310000 -0.095672 0
7.315000 -0.091474 0
7.320000 -0.085653 0
7.325000 -0.077664 0
7.330000 -0.066913 0
7.335000 -0.052811 0
7.340000 -0.034864 0
7.345000 -0.012782 0
7.350000 0.013402 0
7.355000 0.043223 0
7.360000 0.075715 0
7.365000 0.109402 0
7.370000 0.142374 0
7.375000 0.172444 0
7.380000 0.197377 0
7.385000 0.215162 0
7.390000 0.224282 1
7.395000 0.223921 0
7.400000 0.214092 0
7.405000 0.195632 0
7.410000 0.170086 0
7.415000 0.139486 0
7.420000 0.106056 0
7.425000 0.071823 0
7.430000 0.038042 0
7.435000 0.004303 0
7.440000 -0.032400 0
7.445000 -0.077358 0
7.450000 -0.134519 0
7.455000 -0.199394 0
7.460000 -0.253065 0
7.465000 -0.263581 2
7.470000 -0.194947 0
7.475000 -0.018459 0
7.480000 0.272598 0
7.485000 0.639779 0
7.490000 0.983652 0
7.495000 1.172298 3
7.500000 1.117987 0
7.505000 0.840377 0
7.510000 0.452028 0
7.515000 0.081524 0
7.520000 -0.187890 0
7.525000 -0.328240 0
7.530000 -0.350641 4
7.535000 -0.290779 0
7.540000 -0.194918 0
7.545000 -0.101785 0
7.550000 -0.029996 0
7.555000 0.020457 0
7.560000 0.057882 0
7.565000 0.090129 0
7.570000 0.121566 0
7.575000 0.153728 0
7.580000 0.186687 0
7.585000 0.219928 0
7.590000 0.252705 0
7.595000 0.284177 0
7.600000 0.313461 0
7.605000 0.339678 0
7.610000 0.361993 0
7.615000 0.379663 0
7.620000 0.392073 0
7.625000 0.398774 0
7.630000 0.399506 5
7.635000 0.394217 0
7.640000 0.383063 0
7.645000 0.366403 0
7.650000 0.344778 0
7.655000 0.318878 0
7.660000 0.289511 0
7.665000 0.257555 0
7.670000 0.223918 0
7.675000 0.189492 0
7.680000 0.155117 0
7.685000 0.121551 0
7.690000 0.089441 0
7.695000 0.059308 0
7.700000 0.031546 0
7.705000 0.006414 0
7.710000 -0.015949 0
7.715000 -0.035515 0
7.720000 -0.052348 0
7.725000 -0.066585 0
7.730000 -0.078420 0
7.735000 -0.088081 0
7.740000 -0.095816 0
7.745000 -0.101877 0
7.750000 -0.106511 0
7.755000 -0.109951 0
7.760000 -0.112406 0
7.765000 -0.111986 0
7.770000 -0.111080 0
7.775000 -0.110178 0
7.780000 -0.109281 0
7.785000 -0.108387 0
7.790000 -0.107496 0
7.795000 -0.106605 0
7.800000 -0.105710 0
7.805000 -0.104804 0
7.810000 -0.103872 0
7.815000 -0.102888 0
7.820000 -0.101809 0
7.825000 -0.100566 0
7.830000 -0.099047 0
7.835000 -0.097088 0
7.840000 -0.094452 0
7.845000 -0.090813 0
7.850000 -0.085753 0
7.855000 -0.078757 0
7.860000 -0.069244 0
7.865000 -0.056608 0
7.870000 -0.040303 0
7.875000 -0.019936 0
7.880000 0.004605 0
7.885000 0.033039 0
7.890000 0.064602 0
7.895000 0.098012 0
7.900000 0.131506 0
7.905000 0.162969 0
7.910000 0.190140 0
7.915000 0.210877 0
7.920000 0.223434 0
7.925000 0.226700 1
7.930000 0.220366 0
7.935000 0.204970 0
7.940000 0.181820 0
7.945000 0.152811 0
7.950000 0.120148 0
7.955000 0.085996 0
7.960000 0.051981 0
7.965000 0.018412 0
7.970000 -0.016737 0
7.975000 -0.058182 0
7.980000 -0.111040 0
7.985000 -0.174615 0
7.990000 -0.235174 0
7.995000 -0.264319 2
8.000000 -0.225977 0
8.005000 -0.087495 0
8.010000 0.167376 0
8.015000 0.517697 0
8.020000 0.883163 0
8.025000 1.134867 0
8.030000 1.161252 3
8.035000 0.945785 0
8.040000 0.578359 0
8.045000 0.189809 0
8.050000 -0.119277 0
8.055000 -0.304207 0
8.060000 -0.364658 4
8.065000 -0.328815 0
8.070000 -0.240628 0
8.075000 -0.143090 0
8.080000 -0.062485 0
8.085000 -0.004685 0
8.090000 0.036708 0
8.095000 0.070293 0
8.100000 0.101779 0
8.105000 0.133619 0
8.110000 0.166328 0
8.115000 0.199567 0
8.120000 0.232670 0
8.125000 0.264837 0
8.130000 0.295207 0
8.135000 0.322905 0
8.140000 0.347081 0
8.145000 0.366957 0
8.150000 0.381862 0
8.155000 0.391274 0
8.160000 0.394849 5
8.165000 0.392436 0
8.170000 0.384094 0
8.175000 0.370082 0
8.180000 0.350850 0
8.185000 0.327013 0
8.190000 0.299316 0
8.195000 0.268596 0
8.200000 0.235742 0
8.205000 0.201648 0
8.210000 0.167176 0
8.215000 0.133121 0
8.220000 0.100183 0
8.225000 0.068945 0
8.230000 0.039866 0
8.235000 0.013275 0
8.240000 -0.010626 0
8.245000 -0.031750 0
8.250000 -0.050110 0
8.255000 -0.065802 0
8.260000 -0.078988 0
8.265000 -0.089875 0
8.270000 -0.098699 0
8.275000 -0.105708 0
8.280000 -0.111151 0
8.285000 -0.115266 0
8.290000 -0.118275 0
8.295000 -0.120379 0
8.300000 -0.119873 0
8.305000 -0.118928 0
8.310000 -0.117987 0
8.315000 -0.117050 0
8.320000 -0.116117 0
8.325000 -0.115186 0
8.330000 -0.114255 0
8.335000 -0.113318 0
8.340000 -0.112366 0
8.345000 -0.111382 0
8.350000 -0.110336 0
8.355000 -0.109179 0
8.360000 -0.107830 0
8.365000 -0.106167 0
8.370000 -0.104008 0
8.375000 -0.101096 0
8.380000 -0.097084 0
8.385000 -0.091532 0
8.390000 -0.083913 0
8.395000 -0.073638 0
8.400000 -0.060118 0
8.405000 -0.042837 0
8.410000 -0.021464 0
8.415000 0.004032 0
8.420000 0.033272 0
8.425000 0.065389 0
8.430000 0.099007 0
8.435000 0.132299 0
8.440000 0.163127 0
8.445000 0.189258 0
8.450000 0.208629 0
8.455000 0.219615 0
8.460000 0.221249 1
8.465000 0.213373 0
8.470000 0.196651 0
8.475000 0.172487 0
8.480000 0.142818 0
8.485000 0.109843 0
8.490000 0.075661 0
8.495000 0.041756 0
8.500000 0.008189 0
8.505000 -0.027382 0
8.510000 -0.069862 0
8.515000 -0.124039 0
8.520000 -0.188165 0
8.525000 -0.247142 0
8.530000 -0.271772 2
8.535000 -0.226241 0
8.540000 -0.079066 0
8.545000 0.183877 0
8.550000 0.538365 0
8.555000 0.901027 0
8.560000 1.143133 0
8.565000 1.157638 3
8.570000 0.933594 0
8.575000 0.563205 0
8.580000 0.175730 0
8.585000 -0.130945 0
8.590000 -0.313861 0
8.595000 -0.373259 4
8.600000 -0.337175 0
8.605000 -0.249045 0
8.610000 -0.151379 0
8.615000 -0.070350 0
8.620000 -0.012036 0
8.625000 0.029739 0
8.630000 0.063511 0
8.635000 0.095042 0
8.640000 0.126868 0
8.645000 0.159558 0
8.650000 0.192806 0
8.655000 0.225965 0
8.660000 0.258253 0
8.665000 0.288823 0
8.670000 0.316809 0
8.675000 0.341371 0
8.680000 0.361729 0
8.685000 0.377210 0
8.690000 0.387283 0
8.695000 0.391585 5
8.700000 0.389946 0
8.705000 0.382396 0
8.710000 0.369166 0
8.715000 0.350676 0
8.720000 0.327510 0
8.725000 0.300388 0
8.730000 0.270125 0
8.735000 0.237591 0
8.740000 0.203673 0
8.745000 0.169230 0
8.750000 0.135060 0
8.755000 0.101875 0
8.760000 0.070274 0
8.765000 0.040735 0
8.770000 0.013610 0
8.775000 -0.010875 0
8.780000 -0.032610 0
8.785000 -0.051587 0
8.790000 -0.067884 0
8.795000 -0.081647 0
8.800000 -0.093069 0
8.805000 -0.102380 0
8.810000 -0.109821 0
8.815000 -0.115639 0
8.820000 -0.120074 0
8.825000 -0.123350 0
8.830000 -0.125671 0
8.835000 -0.125175 0
8.840000 -0.124203 0
8.845000 -0.123236 0
8.850000 -0.122274 0
8.855000 -0.121315 0
8.860000 -0.120359 0
8.865000 -0.119405 0
8.870000 -0.118446 0
8.875000 -0.117477 0
8.880000 -0.116483 0
8.885000 -0.115441 0
8.890000 -0.114309 0
8.895000 -0.113021 0
8.900000 -0.111473 0
8.905000 -0.109511 0
8.910000 -0.106911 0
8.915000 -0.103367 0
8.920000 -0.098483 0
8.925000 -0.091770 0
8.930000 -0.082668 0
8.935000 -0.070588 0
8.940000 -0.054976 0
8.945000 -0.035414 0
8.950000 -0.011725 0
8.955000 0.015909 0
8.960000 0.046859 0
8.965000 0.079995 0
8.970000 0.113710 0
8.975000 0.146014 0
8.980000 0.174719 0
8.985000 0.197671 0
8.990000 0.213022 0
8.995000 0.219469 1
9.000000 0.216443 0
9.005000 0.204186 0
9.010000 0.183727 0
9.015000 0.156730 0
9.020000 0.125268 0
9.025000 0.091518 0
9.030000 0.057354 0
9.035000 0.023729 0
9.040000 -0.010237 0
9.045000 -0.048058 0
9.050000 -0.095084 0
9.055000 -0.154255 0
9.060000 -0.218967 0
9.065000 -0.268177 0
9.070000 -0.269189 2
9.075000 -0.187005 0
9.080000 0.004608 0
9.085000 0.307994 0
9.090000 0.678628 0
9.095000 1.012931 0
9.100000 1.181815 3
9.105000 1.106911 0
9.110000 0.816952 0
9.115000 0.426188 0
9.120000 0.059191 0
9.125000 -0.205376 0
9.130000 -0.342011 0
9.135000 -0.362490 4
9.140000 -0.302103 0
9.145000 -0.206200 0
9.150000 -0.112781 0
9.155000 -0.040362 0
9.160000 0.010753 0
9.165000 0.048613 0
9.170000 0.081036 0
9.175000 0.112489 0
9.180000 0.144613 0
9.185000 0.177549 0
9.190000 0.210822 0
9.195000 0.243718 0
9.200000 0.275420 0
9.205000 0.305066 0
9.210000 0.331791 0
9.215000 0.354772 0
9.220000 0.373263 0
9.225000 0.386642 0
9.230000 0.394436 0
9.235000 0.396359 5
9.240000 0.392317 0
9.245000 0.382423 0
9.250000 0.366987 0
9.255000 0.346500 0
9.260000 0.321607 0
9.265000 0.293075 0
9.270000 0.261749 0
9.275000 0.228514 0
9.280000 0.194253 0
9.285000 0.159807 0
9.290000 0.125943 0
9.295000 0.093331 0
9.300000 0.062523 0
9.305000 0.033945 0
9.310000 0.007896 0
9.315000 -0.015449 0
9.320000 -0.036024 0
9.325000 -0.053859 0
9.330000 -0.069066 0
9.335000 -0.081813 0
9.340000 -0.092312 0
9.345000 -0.100800 0
9.350000 -0.107523 0
9.355000 -0.112729 0
9.360000 -0.116649 0
9.365000 -0.119502 0
9.370000 -0.121055 0
9.375000 -0.120104 0
9.380000 -0.119158 0
9.385000 -0.118216 0
9.390000 -0.117278 0
9.395000 -0.116344 0
9.400000 -0.115412 0
9.405000 -0.114478 0
9.410000 -0.113539 0
9.415000 -0.112583 0
9.420000 -0.111592 0
9.425000 -0.110536 0
9.430000 -0.109364 0
9.435000 -0.107991 0
9.440000 -0.106293 0
9.445000 -0.104083 0
9.450000 -0.101100 0
9.455000 -0.096994 0
9.460000 -0.091323 0
9.465000 -0.083558 0
9.470000 -0.073115 0
9.475000 -0.059411 0
9.480000 -0.041943 0
9.485000 -0.020394 0
9.490000 0.005252 0
9.495000 0.034603 0
9.500000 0.066782 0
9.505000 0.100413 0
9.510000 0.133675 0
9.515000 0.164448 0
9.520000 0.190518 0
9.525000 0.209846 0
9.530000 0.220821 0
9.535000 0.222491 1
9.540000 0.214691 0
9.545000 0.198075 0
9.550000 0.174024 0
9.555000 0.144452 0
9.560000 0.111534 0
9.565000 0.077359 0
9.570000 0.043429 0
9.575000 0.009875 0
9.580000 -0.025510 0
9.585000 -0.067498 0
9.590000 -0.120974 0
9.595000 -0.184776 0
9.600000 -0.244852 0
9.605000 -0.273023 2
9.610000 -0.233909 0
9.615000 -0.095600 0
9.620000 0.157898 0
9.625000 0.506760 0
9.630000 0.873773 0
9.635000 1.133396 0
9.640000 1.173652 3
9.645000 0.972240 0
9.650000 0.611527 0
9.655000 0.220098 0
9.660000 -0.098905 0
9.665000 -0.296739 0
9.670000 -0.369583 4
9.675000 -0.342754 0
9.680000 -0.258467 0
9.685000 -0.160147 0
9.690000 -0.076363 0
9.695000 -0.015390 0
9.700000 0.027985 0
9.705000 0.062378 0
9.710000 0.093985 0
9.715000 0.125693 0
9.720000 0.158257 0
9.725000 0.191445 0
9.730000 0.224645 0
9.735000 0.257090 0
9.740000 0.287942 0
9.745000 0.316339 0
9.750000 0.341436 0
9.755000 0.362446 0
9.760000 0.378681 0
9.765000 0.389588 0
9.770000 0.394777 5
9.775000 0.394049 0
9.780000 0.387403 0
9.785000 0.375039 0
9.790000 0.357345 0
9.795000 0.334880 0
9.800000 0.308341 0
9.805000 0.278526 0
9.810000 0.246298 0
9.815000 0.212539 0
9.820000 0.178113 0
9.825000 0.143827 0
9.830000 0.110407 0
9.835000 0.078472 0
9.840000 0.048519 0
9.845000 0.020923 0
9.850000 -0.004071 0
9.855000 -0.026332 0
9.860000 -0.045834 0
9.865000 -0.062640 0
9.870000 -0.076884 0
9.875000 -0.088753 0
9.880000 -0.098466 0
9.885000 -0.106266 0
9.890000 -0.112398 0
9.895000 -0.117102 0
9.900000 -0.120606 0
9.905000 -0.123117 0
9.910000 -0.124432 0
9.915000 -0.123464 0
9.920000 -0.122501 0
9.925000 -0.121542 0
9.930000 -0.120588 0
9.935000 -0.119636 0
9.940000 -0.118686 0
9.945000 -0.117734 0
9.950000 -0.116772 0
9.955000 -0.115790 0
9.960000 -0.114766 0
9.965000 -0.113664 0
9.970000 -0.112423 0
9.975000 -0.110952 0
9.980000 -0.109107 0
9.985000 -0.106684 0
9.990000 -0.103399 0
9.995000 -0.098878 0
10.000000 -0.092656 0
10.005000 -0.084188 0
10.010000 -0.072888 0
10.015000 -0.058190 0
10.020000 -0.039634 0
10.025000 -0.016973 0
10.030000 0.009710 0
10.035000 0.039906 0
10.040000 0.072616 0
10.045000 0.106354 0
10.050000 0.139220 0
10.055000 0.169064 0
10.060000 0.193707 0
10.065000 0.211202 0
10.070000 0.220088 1
10.075000 0.219590 0
10.080000 0.209735 0
10.085000 0.191344 0
10.090000 0.165927 0
10.095000 0.135463 0
10.100000 0.102129 0
10.105000 0.067925 0
10.110000 0.034135 0
10.115000 0.000495 0
10.120000 -0.035730 0
10.125000 -0.079611 0
10.130000 -0.135419 0
10.135000 -0.200035 0
10.140000 -0.256753 0
10.145000 -0.275594 2
10.150000 -0.221241 0
10.155000 -0.063746 0
10.160000 0.208394 0
10.165000 0.567182 0
10.170000 0.926152 0
10.175000 1.157452 0
10.180000 1.159427 3
10.185000 0.926629 0
10.190000 0.553040 0
10.195000 0.167103 0
10.200000 -0.135767 0
10.205000 -0.314627 0
10.210000 -0.370804 4
10.215000 -0.332802 0
10.220000 -0.244018 0
10.225000 -0.146509 0
10.230000 -0.065886 0
10.235000 -0.007889 0
10.240000 0.033728 0
10.245000 0.067441 0
10.250000 0.098950 0
10.255000 0.130759 0
10.260000 0.163430 0
10.265000 0.196657 0
10.270000 0.229799 0
10.275000 0.262078 0
10.280000 0.292651 0
10.285000 0.320659 0
10.290000 0.345263 0
10.295000 0.365690 0
10.300000 0.381267 0
10.305000 0.391461 0
10.310000 0.395908 5
10.315000 0.394432 0
10.320000 0.387058 0
10.325000 0.374010 0
10.330000 0.355697 0
10.335000 0.332696 0
10.340000 0.305716 0
10.345000 0.275565 0
10.350000 0.243106 0
10.355000 0.209222 0
10.360000 0.174768 0
10.365000 0.140544 0
10.370000 0.107261 0
10.375000 0.075524 0
10.380000 0.045817 0
10.385000 0.018496 0
10.390000 -0.006204 0
10.395000 -0.028166 0
10.400000 -0.047375 0
10.405000 -0.063901 0
10.410000 -0.077886 0
10.415000 -0.089519 0
10.420000 -0.099025 0
10.425000 -0.106643 0
10.430000 -0.112620 0
10.435000 -0.117195 0
10.440000 -0.120592 0
10.445000 -0.123017 0
10.450000 -0.124274 0
10.455000 -0.123307 0
10.460000 -0.122344 0
10.465000 -0.121386 0
10.470000 -0.120432 0
10.475000 -0.119481 0
10.480000 -0.118531 0
10.485000 -0.117579 0
10.490000 -0.116617 0
10.495000 -0.115632 0
10.500000 -0.114603 0
10.505000 -0.113492 0
10.510000 -0.112236 0
10.515000 -0.110740 0
10.520000 -0.108856 0
10.525000 -0.106374 0
10.530000 -0.103004 0
10.535000 -0.098364 0
10.540000 -0.091983 0
10.545000 -0.083314 0
10.550000 -0.071770 0
10.555000 -0.056791 0
10.560000 -0.037929 0
10.565000 -0.014960 0
10.570000 0.012004 0
10.575000 0.042422 0
10.580000 0.075261 0
10.585000 0.109002 0
10.590000 0.141727 0
10.595000 0.171281 0
10.600000 0.195495 0
10.605000 0.212452 0
10.610000 0.220733 1
10.615000 0.219617 0
10.620000 0.209183 0
10.625000 0.190298 0
10.630000 0.164506 0
10.635000 0.133804 0
10.640000 0.100364 0
10.645000 0.066158 0
10.650000 0.032402 0
10.655000 -0.001285 0
10.660000 -0.037790 0
10.665000 -0.082247 0
10.670000 -0.138710 0
10.675000 -0.203462 0
10.680000 -0.259046 0
10.685000 -0.275022 2
10.690000 -0.216153 0
10.695000 -0.053111 0
10.700000 0.224225 0
10.705000 0.585426 0
10.710000 0.941463 0
10.715000 1.164153 3
10.720000 1.155112 0
10.725000 0.912504 0
10.730000 0.534727 0
10.735000 0.152128 0
10.740000 -0.141787 0
10.745000 -0.309287 0
10.750000 -0.354677 4
10.755000 -0.309066 0
10.760000 -0.217385 0
10.765000 -0.121138 0
10.770000 -0.043734 0
10.775000 0.011259 0
10.780000 0.051066 0
10.785000 0.084061 0
10.790000 0.115461 0
10.795000 0.147372 0
10.800000 0.180139 0
10.805000 0.213357 0
10.810000 0.246334 0
10.815000 0.278257 0
10.820000 0.308261 0
10.825000 0.335470 0
10.830000 0.359041 0
10.835000 0.378208 0
10.840000 0.392320 0
10.845000 0.400878 0
10.850000 0.403561 5
10.855000 0.400251 0
10.860000 0.391035 0
10.865000 0.376200 0
10.870000 0.356222 0
10.875000 0.331738 0
10.880000 0.303508 0
10.885000 0.272382 0
10.890000 0.239251 0
10.895000 0.205007 0
10.900000 0.170507 0
10.905000 0.136532 0
10.910000 0.103768 0
10.915000 0.072781 0
10.920000 0.044010 0
10.925000 0.017765 0
10.930000 -0.005768 0
10.935000 -0.026519 0
10.940000 -0.044514 0
10.945000 -0.059861 0
10.950000 -0.072730 0
10.955000 -0.083332 0
10.960000 -0.091907 0
10.965000 -0.098704 0
10.970000 -0.103970 0
10.975000 -0.107943 0
10.980000 -0.110842 0
10.985000 -0.112437 0
10.990000 -0.111529 0
10.995000 -0.110626 0
11.000000 -0.109726 0
11.005000 -0.108831 0
11.010000 -0.107939 0
11.015000 -0.107048 0
11.020000 -0.106156 0
11.025000 -0.105257 0
11.030000 -0.104341 0
11.035000 -0.103389 0
11.040000 -0.102369 0
11.045000 -0.101226 0
11.050000 -0.099876 0
11.055000 -0.098188 0
11.060000 -0.095967 0
11.065000 -0.092944 0
11.070000 -0.088758 0
11.075000 -0.082953 0
11.080000 -0.074988 0
11.085000 -0.064272 0
11.090000 -0.050218 0
11.095000 -0.032334 0
11.100000 -0.010327 0
11.105000 0.015773 0
11.110000 0.045513 0
11.115000 0.077944 0
11.120000 0.111608 0
11.125000 0.144614 0
11.130000 0.174793 0
11.135000 0.199918 0
11.140000 0.217977 0
11.145000 0.227440 0
11.150000 0.227465 1
11.155000 0.218029 0
11.160000 0.199930 0
11.165000 0.174676 0
11.170000 0.144270 0
11.175000 0.110924 0
11.180000 0.076679 0
11.185000 0.042845 0
11.190000 0.009150 0
11.195000 -0.027220 0
11.200000 -0.071446 0
11.205000 -0.127751 0
11.210000 -0.192525 0
11.215000 -0.248084 0
11.220000 -0.263388 2
11.225000 -0.202545 0
11.230000 -0.035940 0
11.235000 0.245765 0
11.240000 0.609267 0
11.245000 0.960857 0
11.250000 1.169511 3
11.255000 1.140135 0
11.260000 0.881232 0
11.265000 0.498115 0
11.270000 0.120380 0
11.275000 -0.163091 0
11.280000 -0.318933 0
11.285000 -0.354412 4
11.290000 -0.302563 0
11.295000 -0.208889 0
11.300000 -0.113771 0
11.305000 -0.038628 0
11.310000 0.014489 0
11.315000 0.053291 0
11.320000 0.085957 0
11.325000 0.117360 0
11.330000 0.149369 0
11.335000 0.182216 0
11.340000 0.215451 0
11.345000 0.248363 0
11.350000 0.280128 0
11.355000 0.309875 0
11.360000 0.336729 0
11.365000 0.359851 0
11.370000 0.378483 0
11.375000 0.391987 0
11.380000 0.399883 0
11.385000 0.401874 5
11.390000 0.397862 0
11.395000 0.387960 0
11.400000 0.372481 0
11.405000 0.351921 0
11.410000 0.326937 0
11.415000 0.298304 0
11.420000 0.266881 0
11.425000 0.233565 0
11.430000 0.199249 0
11.435000 0.164781 0
11.440000 0.130935 0
11.445000 0.098383 0
11.450000 0.067676 0
11.455000 0.039238 0
11.460000 0.013362 0
11.465000 -0.009784 0
11.470000 -0.030142 0
11.475000 -0.047752 0
11.480000 -0.062730 0
11.485000 -0.075255 0
11.490000 -0.085545 0
11.495000 -0.093840 0
11.500000 -0.100392 0
11.505000 -0.105447 0
11.510000 -0.109242 0
11.515000 -0.111992 0
11.520000 -0.113482 0
11.525000 -0.112569 0
11.530000 -0.111660 0
11.535000 -0.110756 0
11.540000 -0.109855 0
11.545000 -0.108957 0
11.550000 -0.108061 0
11.555000 -0.107163 0
11.560000 -0.106256 0
11.565000 -0.105330 0
11.570000 -0.104364 0
11.575000 -0.103322 0
11.580000 -0.102146 0
11.585000 -0.100743 0
11.590000 -0.098974 0
11.595000 -0.096631 0
11.600000 -0.093430 0
11.605000 -0.088990 0
11.610000 -0.082840 0
11.615000 -0.074426 0
11.620000 -0.063149 0
11.625000 -0.048432 0
11.630000 -0.029809 0
11.635000 -0.007036 0
11.640000 0.019788 0
11.645000 0.050120 0
11.650000 0.082911 0
11.655000 0.116614 0
11.660000 0.149264 0
11.665000 0.178655 0
11.670000 0.202577 0
11.675000 0.219085 0
11.680000 0.226762 1
11.685000 0.224919 0
11.690000 0.213696 0
11.695000 0.194047 0
11.700000 0.167600 0
11.705000 0.136433 0
11.710000 0.102761 0
11.715000 0.068536 0
11.720000 0.034830 0
11.725000 0.000913 0
11.730000 -0.036611 0
11.735000 -0.083146 0
11.740000 -0.141929 0
11.745000 -0.206746 0
11.750000 -0.256666 0
11.755000 -0.258652 2
11.760000 -0.177110 0
11.765000 0.014692 0
11.770000 0.319018 0
11.775000 0.689987 0
11.780000 1.021433 0
11.785000 1.182607 3
11.790000 1.097628 0
11.795000 0.800203 0
11.800000 0.407920 0
11.805000 0.045159 0
11.810000 -0.211823 0
11.815000 -0.340058 0
11.820000 -0.353385 4
11.825000 -0.288683 0
11.830000 -0.191816 0
11.835000 -0.099842 0
11.840000 -0.029620 0
11.845000 0.019776 0
11.850000 0.056744 0
11.855000 0.088887 0
11.860000 0.120352 0
11.865000 0.152562 0
11.870000 0.185553 0
11.875000 0.218802 0
11.880000 0.251568 0
11.885000 0.283018 0
11.890000 0.312279 0
11.895000 0.338479 0
11.900000 0.360795 0
11.905000 0.378492 0
11.910000 0.390961 0
11.915000 0.397756 0
11.920000 0.398617 5
11.925000 0.393489 0
11.930000 0.382521 0
11.935000 0.366063 0
11.940000 0.344641 0
11.945000 0.318935 0
11.950000 0.289739 0
11.955000 0.257918 0
11.960000 0.224370 0
11.965000 0.189980 0
11.970000 0.155585 0
11.975000 0.121939 0
11.980000 0.089692 0
11.985000 0.059372 0
11.990000 0.031379 0
11.995000 0.005983 0
12.000000 -0.016669 0
12.005000 -0.036536 0
12.010000 -0.053673 0
12.015000 -0.068208 0
12.020000 -0.080327 0
12.025000 -0.090252 0
12.030000 -0.098226 0
12.035000 -0.104500 0
12.040000 -0.109319 0
12.045000 -0.112914 0
12.050000 -0.115500 0
12.055000 -0.116873 0
12.060000 -0.115943 0
12.065000 -0.115017 0
12.070000 -0.114096 0
12.075000 -0.113178 0
12.080000 -0.112263 0
12.085000 -0.111350 0
12.090000 -0.110434 0
12.095000 -0.109508 0
12.100000 -0.108561 0
12.105000 -0.107569 0
12.110000 -0.106495 0
12.115000 -0.105276 0
12.120000 -0.103815 0
12.125000 -0.101961 0
12.130000 -0.099500 0
12.135000 -0.096133 0
12.140000 -0.091470 0
12.145000 -0.085026 0
12.150000 -0.076239 0
12.155000 -0.064511 0
12.160000 -0.049276 0
12.165000 -0.030091 0
12.170000 -0.006752 0
12.175000 0.020588 0
12.180000 0.051325 0
12.185000 0.084345 0
12.190000 0.118044 0
12.195000 0.150420 0
12.200000 0.179259 0
12.205000 0.202371 0
12.210000 0.217869 0
12.215000 0.224420 1
12.220000 0.221434 0
12.225000 0.209153 0
12.230000 0.188616 0
12.235000 0.161517 0
12.240000 0.129959 0
12.245000 0.096148 0
12.250000 0.061965 0
12.255000 0.028330 0
12.260000 -0.005754 0
12.265000 -0.043980 0
12.270000 -0.091781 0
12.275000 -0.151738 0
12.280000 -0.216218 0
12.285000 -0.262765 2
12.290000 -0.257631 0
12.295000 -0.165679 0
12.300000 0.038111 0
12.305000 0.352265 0
12.310000 0.724964 0
12.315000 1.045249 0
12.320000 1.184243 3
12.325000 1.074200 0
12.330000 0.759942 0
12.335000 0.365384 0
12.340000 0.012812 0
12.345000 -0.227633 0
12.350000 -0.338514 4
12.355000 -0.337820 0
12.360000 -0.265294 0
12.365000 -0.167238 0
12.370000 -0.078376 0
12.375000 -0.012266 0
12.380000 0.034147 0
12.385000 0.069681 0
12.390000 0.101438 0
12.395000 0.132973 0
12.400000 0.165343 0
12.405000 0.198418 0
12.410000 0.231600 0
12.415000 0.264110 0
12.420000 0.295087 0
12.425000 0.323642 0
12.430000 0.348900 0
12.435000 0.370043 0
12.440000 0.386356 0
12.445000 0.397262 0
12.450000 0.402360 5
12.455000 0.401443 0
12.460000 0.394516 0
12.465000 0.381793 0
12.470000 0.363685 0
12.475000 0.340781 0
12.480000 0.313811 0
12.485000 0.283609 0
12.490000 0.251069 0
12.495000 0.217102 0
12.500000 0.182593 0
12.505000 0.148364 0
12.510000 0.115144 0
12.515000 0.083549 0
12.520000 0.054065 0
12.525000 0.027045 0
12.530000 0.002714 0
12.535000 -0.018824 0
12.540000 -0.037570 0
12.545000 -0.053613 0
12.550000 -0.067110 0
12.555000 -0.078268 0
12.560000 -0.087322 0
12.565000 -0.094526 0
12.570000 -0.100131 0
12.575000 -0.104381 0
12.580000 -0.107504 0
12.585000 -0.109703 0
12.590000 -0.109256 0
12.595000 -0.108363 0
12.600000 -0.107475 0
12.605000 -0.106591 0
12.610000 -0.105710 0
12.615000 -0.104832 0
12.620000 -0.103952 0
12.625000 -0.103066 0
12.630000 -0.102165 0
12.635000 -0.101230 0
12.640000 -0.100232 0
12.645000 -0.099118 0
12.650000 -0.097807 0
12.655000 -0.096170 0
12.660000 -0.094018 0
12.665000 -0.091086 0
12.670000 -0.087014 0
12.675000 -0.081346 0
12.680000 -0.073540 0
12.685000 -0.062996 0
12.690000 -0.049117 0
12.695000 -0.031396 0
12.700000 -0.009528 0
12.705000 0.016471 0
12.710000 0.046152 0
12.715000 0.078559 0
12.720000 0.112218 0
12.725000 0.145211 0
12.730000 0.175333 0
12.735000 0.200326 0
12.740000 0.218158 0
12.745000 0.227289 1
12.750000 0.226897 0
12.755000 0.216994 0
12.760000 0.198429 0
12.765000 0.172770 0
12.770000 0.142072 0
12.775000 0.108582 0
12.780000 0.074333 0
12.785000 0.040554 0
12.790000 0.006754 0
12.795000 -0.030218 0
12.800000 -0.075747 0
12.805000 -0.133575 0
12.810000 -0.198482 0
12.815000 -0.250463 0
12.820000 -0.256691 2
12.825000 -0.180969 0
12.830000 0.004632 0
12.835000 0.304234 0
12.840000 0.674145 0
12.845000 1.009114 0
12.850000 1.176538 3
12.855000 1.097555 0
12.860000 0.803577 0
12.865000 0.411848 0
12.870000 0.048001 0
12.875000 -0.210387 0
12.880000 -0.339662 0
12.885000 -0.353499 4
12.890000 -0.288912 0
12.895000 -0.192040 0
12.900000 -0.100143 0
12.905000 -0.030094 0
12.910000 0.019128 0
12.915000 0.055992 0
12.920000 0.088106 0
12.925000 0.119586 0
12.930000 0.151825 0
12.935000 0.184839 0
12.940000 0.218093 0
12.945000 0.250838 0
12.950000 0.282234 0
12.955000 0.311400 0
12.960000 0.337462 0
12.965000 0.359594 0
12.970000 0.377060 0
12.975000 0.389255 0
12.980000 0.395740 0
12.985000 0.396264 5
12.990000 0.390783 0
12.995000 0.379460 0
13.000000 0.362657 0
13.005000 0.340919 0
13.010000 0.314937 0
13.015000 0.285516 0
13.020000 0.253533 0
13.025000 0.219890 0
13.030000 0.185475 0
13.035000 0.151125 0
13.040000 0.117590 0
13.045000 0.085513 0
13.050000 0.055414 0
13.055000 0.027681 0
13.060000 0.002574 0
13.065000 -0.019771 0
13.070000 -0.039325 0
13.075000 -0.056152 0
13.080000 -0.070388 0
13.085000 -0.082226 0
13.090000 -0.091891 0
13.095000 -0.099632 0
13.100000 -0.105700 0
13.105000 -0.110339 0
13.110000 -0.113782 0
13.115000 -0.116239 0
13.120000 -0.116663 0
13.125000 -0.115733 0
13.130000 -0.114809 0
13.135000 -0.113888 0
13.140000 -0.112972 0
13.145000 -0.112058 0
13.150000 -0.111144 0
13.155000 -0.110227 0
13.160000 -0.109299 0
13.165000 -0.108347 0
13.170000 -0.107344 0
13.175000 -0.106250 0
13.180000 -0.104996 0
13.185000 -0.103475 0
13.190000 -0.101526 0
13.195000 -0.098918 0
13.200000 -0.095334 0
13.205000 -0.090360 0
13.210000 -0.083494 0
13.215000 -0.074157 0
13.220000 -0.061748 0
13.225000 -0.045715 0
13.230000 -0.025651 0
13.235000 -0.001420 0
13.240000 0.026735 0
13.245000 0.058096 0
13.250000 0.091428 0
13.255000 0.125014 0
13.260000 0.156774 0
13.265000 0.184461 0
13.270000 0.205919 0
13.275000 0.219359 0
13.280000 0.223607 1
13.285000 0.218270 0
13.290000 0.203797 0
13.295000 0.181417 0
13.300000 0.152965 0
13.305000 0.120617 0
13.310000 0.086554 0
13.315000 0.052490 0
13.320000 0.018938 0
13.325000 -0.015795 0
13.330000 -0.056123 0
13.335000 -0.107356 0
13.340000 -0.169975 0
13.345000 -0.232257 0
13.350000 -0.267618 2
13.355000 -0.240555 0
13.360000 -0.117422 0
13.365000 0.121220 0
13.370000 0.461318 0
13.375000 0.831958 0
13.380000 1.108934 0
13.385000 1.173124 3
13.390000 0.991984 0
13.395000 0.640560 0
13.400000 0.247004 0
13.405000 -0.080936 0
13.410000 -0.289651 0
13.415000 -0.372160 4
13.420000 -0.351930 0
13.425000 -0.270476 0
13.430000 -0.171945 0
13.435000 -0.086533 0
13.440000 -0.023952 0
13.445000 0.020405 0
13.450000 0.055202 0
13.455000 0.086899 0
13.460000 0.118587 0
13.465000 0.151123 0
13.470000 0.184314 0
13.475000 0.217559 0
13.480000 0.250095 0
13.485000 0.281083 0
13.490000 0.309657 0
13.495000 0.334969 0
13.500000 0.356223 0
13.505000 0.372724 0
13.510000 0.383907 0
13.515000 0.389375 5
13.520000 0.388919 0
13.525000 0.382529 0
13.530000 0.370398 0
13.535000 0.352910 0
13.540000 0.330619 0
13.545000 0.304220 0
13.550000 0.274515 0
13.555000 0.242366 0
13.560000 0.208659 0
13.565000 0.174261 0
13.570000 0.139988 0
13.575000 0.106567 0
13.580000 0.074623 0
13.585000 0.044659 0
13.590000 0.017049 0
13.595000 -0.007955 0
13.600000 -0.030222 0
13.605000 -0.049725 0
13.610000 -0.066526 0
13.615000 -0.080760 0
13.620000 -0.092613 0
13.625000 -0.102307 0
13.630000 -0.110084 0
13.635000 -0.116190 0
13.640000 -0.120868 0
13.645000 -0.124344 0
13.650000 -0.126827 0
13.655000 -0.128117 0
13.660000 -0.127131 0
13.665000 -0.126149 0
13.670000 -0.125172 0
13.675000 -0.124199 0
13.680000 -0.123230 0
13.685000 -0.122262 0
13.690000 -0.121291 0
13.695000 -0.120312 0
13.700000 -0.119311 0
13.705000 -0.118267 0
13.710000 -0.117143 0
13.715000 -0.115879 0
13.720000 -0.114379 0
13.725000 -0.112498 0
13.730000 -0.110028 0
13.735000 -0.106681 0
13.740000 -0.102076 0
13.745000 -0.095742 0
13.750000 -0.087130 0
13.755000 -0.075652 0
13.760000 -0.060740 0
13.765000 -0.041943 0
13.770000 -0.019028 0
13.775000 0.007900 0
13.780000 0.038302 0
13.785000 0.071144 0
13.790000 0.104904 0
13.795000 0.137654 0
13.800000 0.167226 0
13.805000 0.191439 0
13.810000 0.208365 0
13.815000 0.216581 1
13.820000 0.215369 0
13.825000 0.204818 0
13.830000 0.185812 0
13.835000 0.159914 0
13.840000 0.129140 0
13.845000 0.095674 0
13.850000 0.061488 0
13.855000 0.027770 0
13.860000 -0.005936 0
13.865000 -0.042631 0
13.870000 -0.087526 0
13.875000 -0.144514 0
13.880000 -0.209327 0
13.885000 -0.263689 0
13.890000 -0.276496 2
13.895000 -0.212349 0
13.900000 -0.042439 0
13.905000 0.241642 0
13.910000 0.605896 0
13.915000 0.956976 0
13.920000 1.165423 3
13.925000 1.137083 0
13.930000 0.879821 0
13.935000 0.497464 0
13.940000 0.118651 0
13.945000 -0.167544 0
13.950000 -0.326955 0
13.955000 -0.365898 4
13.960000 -0.316464 0
13.965000 -0.223576 0
13.970000 -0.127812 0
13.975000 -0.051396 0
13.980000 0.002847 0
13.985000 0.042310 0
13.990000 0.075233 0
13.995000 0.106679 0
14.000000 0.138661 0
14.005000 0.171493 0
14.010000 0.204760 0
14.015000 0.237772 0
14.020000 0.269721 0
14.025000 0.299747 0
14.030000 0.326980 0
14.035000 0.350584 0
14.040000 0.369798 0
14.045000 0.383976 0
14.050000 0.392621 0
14.055000 0.395414 5
14.060000 0.392235 0
14.065000 0.383166 0
14.070000 0.368490 0
14.075000 0.348677 0
14.080000 0.324354 0
14.085000 0.296274 0
14.090000 0.265278 0
14.095000 0.232250 0
14.100000 0.198078 0
14.105000 0.163614 0
14.110000 0.129639 0
14.115000 0.096838 0
14.120000 0.065780 0
14.125000 0.036909 0
14.130000 0.010540 0
14.135000 -0.013136 0
14.140000 -0.034040 0
14.145000 -0.052193 0
14.150000 -0.067696 0
14.155000 -0.080714 0
14.160000 -0.091455 0
14.165000 -0.100154 0
14.170000 -0.107059 0
14.175000 -0.112417 0
14.180000 -0.116463 0
14.185000 -0.119419 0
14.190000 -0.121480 0
14.195000 -0.120963 0
14.200000 -0.120012 0
14.205000 -0.119066 0
14.210000 -0.118124 0
14.215000 -0.117186 0
14.220000 -0.116249 0
14.225000 -0.115313 0
14.230000 -0.114370 0
14.235000 -0.113413 0
14.240000 -0.112422 0
14.245000 -0.111370 0
14.250000 -0.110206 0
14.255000 -0.108851 0
14.260000 -0.107182 0
14.265000 -0.105019 0
14.270000 -0.102105 0
14.275000 -0.098097 0
14.280000 -0.092559 0
14.285000 -0.084966 0
14.290000 -0.074736 0
14.295000 -0.061280 0
14.300000 -0.044085 0
14.305000 -0.022816 0
14.310000 0.002568 0
14.315000 0.031702 0
14.320000 0.063741 0
14.325000 0.097335 0
14.330000 0.130683 0
14.335000 0.161670 0
14.340000 0.188075 0
14.345000 0.207835 0
14.350000 0.219303 0
14.355000 0.221484 1
14.360000 0.214169 0
14.365000 0.197972 0
14.370000 0.174247 0
14.375000 0.144891 0
14.380000 0.112083 0
14.385000 0.077930 0
14.390000 0.043978 0
14.395000 0.010437 0
14.400000 -0.024798 0
14.405000 -0.066432 0
14.410000 -0.119450 0
14.415000 -0.183038 0
14.420000 -0.243615 0
14.425000 -0.273311 2
14.430000 -0.236712 0
14.435000 -0.101547 0
14.440000 0.148904 0
14.445000 0.496035 0
14.450000 0.863956 0
14.455000 1.127383 0
14.460000 1.172809 3
14.465000 0.975458 0
14.470000 0.616371 0
14.475000 0.224563 0
14.480000 -0.095679 0
14.485000 -0.294748 0
14.490000 -0.368443 4
14.495000 -0.342026 0
14.500000 -0.257844 0
14.505000 -0.159532 0
14.510000 -0.075793 0
14.515000 -0.014912 0
14.520000 0.028380 0
14.525000 0.062727 0
14.530000 0.094325 0
14.535000 0.126044 0
14.540000 0.158621 0
14.545000 0.191816 0
14.550000 0.225011 0
14.555000 0.257431 0
14.560000 0.288234 0
14.565000 0.316555 0
14.570000 0.341545 0
14.575000 0.362417 0
14.580000 0.378483 0
14.585000 0.389191 0
14.590000 0.394158 5
14.595000 0.393190 0
14.600000 0.386295 0
14.605000 0.373682 0
14.610000 0.355750 0
14.615000 0.333067 0
14.620000 0.306338 0
14.625000 0.276371 0
14.630000 0.244035 0
14.635000 0.210214 0
14.640000 0.175775 0
14.645000 0.141524 0
14.650000 0.108185 0
14.655000 0.076371 0
14.660000 0.046574 0
14.665000 0.019160 0
14.670000 -0.005633 0
14.675000 -0.027681 0
14.680000 -0.046966 0
14.685000 -0.063557 0
14.690000 -0.077595 0
14.695000 -0.089269 0
14.700000 -0.098805 0
14.705000 -0.106445 0
14.710000 -0.112435 0
14.715000 -0.117017 0
14.720000 -0.120417 0
14.725000 -0.122842 0
14.730000 -0.124097 0
14.735000 -0.123131 0
14.740000 -0.122169 0
14.745000 -0.121212 0
14.750000 -0.120259 0
14.755000 -0.119308 0
14.760000 -0.118359 0
14.765000 -0.117407 0
14.770000 -0.116445 0
14.775000 -0.115461 0
14.780000 -0.114430 0
14.785000 -0.113315 0
14.790000 -0.112051 0
14.795000 -0.110541 0
14.800000 -0.108632 0
14.805000 -0.106111 0
14.810000 -0.102679 0
14.815000 -0.097948 0
14.820000 -0.091438 0
14.825000 -0.082593 0
14.830000 -0.070824 0
14.835000 -0.055570 0
14.840000 -0.036394 0
14.845000 -0.013093 0
14.850000 0.014191 0
14.855000 0.044870 0
14.860000 0.077861 0
14.865000 0.111595 0
14.870000 0.144112 0
14.875000 0.173228 0
14.880000 0.196776 0
14.885000 0.212865 0
14.890000 0.220135 1
14.895000 0.217946 0
14.900000 0.206469 0
14.905000 0.186666 0
14.910000 0.160156 0
14.915000 0.128991 0
14.920000 0.095353 0
14.925000 0.061164 0
14.930000 0.027490 0
14.935000 -0.006355 0
14.940000 -0.043655 0
14.945000 -0.089721 0
14.950000 -0.147952 0
14.955000 -0.212805 0
14.960000 -0.264437 0
14.965000 -0.270788 2
14.970000 -0.196612 0
14.975000 -0.014470 0
14.980000 0.280720 0
14.985000 0.649033 0
14.990000 0.991096 0
14.995000 1.177225 3
15.000000 1.123559 0
15.005000 0.849643 0
15.010000 0.462949 0
15.015000 0.088368 0
15.020000 -0.190632 0
15.025000 -0.343506 0
15.030000 -0.378051 4
15.035000 -0.326523 0
15.040000 -0.233129 0
15.045000 -0.137415 0
15.050000 -0.060951 0
15.055000 -0.006478 0
15.060000 0.033227 0
15.065000 0.066291 0
15.070000 0.097777 0
15.075000 0.129753 0
15.080000 0.162576 0
15.085000 0.195866 0
15.090000 0.228959 0
15.095000 0.261069 0
15.100000 0.291355 0
15.105000 0.318965 0
15.110000 0.343074 0
15.115000 0.362924 0
15.120000 0.377866 0
15.125000 0.387390 0
15.130000 0.391157 5
15.135000 0.389017 0
15.140000 0.381018 0
15.145000 0.367402 0
15.150000 0.348596 0
15.155000 0.325187 0
15.160000 0.297890 0
15.165000 0.267514 0
15.170000 0.234920 0
15.175000 0.200982 0
15.180000 0.166545 0
15.185000 0.132396 0
15.190000 0.099235 0
15.195000 0.067653 0
15.200000 0.038120 0
15.205000 0.010984 0
15.210000 -0.013532 0
15.215000 -0.035316 0
15.220000 -0.054360 0
15.225000 -0.070737 0
15.230000 -0.084589 0
15.235000 -0.096107 0
15.240000 -0.105513 0
15.245000 -0.113048 0
15.250000 -0.118955 0
15.255000 -0.123470 0
15.260000 -0.126817 0
15.265000 -0.129199 0
15.270000 -0.130418 0
15.275000 -0.129421 0
15.280000 -0.128428 0
15.285000 -0.127439 0
15.290000 -0.126455 0
15.295000 -0.125474 0
15.300000 -0.124494 0
15.305000 -0.123512 0
15.310000 -0.122521 0
15.315000 -0.121508 0
15.320000 -0.120452 0
15.325000 -0.119315 0
15.330000 -0.118037 0
15.335000 -0.116524 0
15.340000 -0.114633 0
15.345000 -0.112158 0
15.350000 -0.108815 0
15.355000 -0.104231 0
15.360000 -0.097943 0
15.365000 -0.089411 0
15.370000 -0.078054 0
15.375000 -0.063312 0
15.380000 -0.044730 0
15.385000 -0.022065 0
15.390000 0.004605 0
15.395000 0.034779 0
15.400000 0.067476 0
15.405000 0.101232 0
15.410000 0.134175 0
15.415000 0.164180 0
15.420000 0.189087 0
15.425000 0.206952 0
15.430000 0.216303 0
15.435000 0.216336 1
15.440000 0.207034 0
15.445000 0.189168 0
15.450000 0.164191 0
15.455000 0.134044 0
15.460000 0.100877 0
15.465000 0.066701 0
15.470000 0.032876 0
15.475000 -0.000682 0
15.480000 -0.036430 0
15.485000 -0.079240 0
15.490000 -0.133690 0
15.495000 -0.197846 0
15.500000 -0.256831 0
15.505000 -0.282203 2
15.510000 -0.239068 0
15.515000 -0.096466 0
15.520000 0.160442 0
15.525000 0.510790 0
15.530000 0.877379 0
15.535000 1.136348 0
15.540000 1.177680 3
15.545000 0.976950 0
15.550000 0.615980 0
15.555000 0.224841 0
15.560000 -0.092551 0
15.565000 -0.287656 0
15.570000 -0.357361 4
15.575000 -0.327920 0
15.580000 -0.242372 0
15.585000 -0.144326 0
15.590000 -0.061751 0
15.595000 -0.002079 0
15.600000 0.040418 0
15.605000 0.074405 0
15.610000 0.105907 0
15.615000 0.137631 0
15.620000 0.170223 0
15.625000 0.203398 0
15.630000 0.236515 0
15.635000 0.268787 0
15.640000 0.299362 0
15.645000 0.327366 0
15.650000 0.351950 0
15.655000 0.372326 0
15.660000 0.387815 0
15.665000 0.397877 0
15.670000 0.402145 5
15.675000 0.400446 0
15.680000 0.392812 0
15.685000 0.379477 0
15.690000 0.360864 0
15.695000 0.337567 0
15.700000 0.310312 0
15.705000 0.279923 0
15.710000 0.247280 0
15.715000 0.213274 0
15.720000 0.178773 0
15.725000 0.144578 0
15.730000 0.111400 0
15.735000 0.079842 0
15.740000 0.050376 0
15.745000 0.023351 0
15.750000 -0.001012 0
15.755000 -0.022611 0
15.760000 -0.041443 0
15.765000 -0.057592 0
15.770000 -0.071210 0
15.775000 -0.082497 0
15.780000 -0.091683 0
15.785000 -0.099015 0
15.790000 -0.104742 0
15.795000 -0.109103 0
15.800000 -0.112322 0
15.805000 -0.114604 0
15.810000 -0.114148 0
15.815000 -0.113232 0
15.820000 -0.112320 0
15.825000 -0.111411 0
15.830000 -0.110507 0
15.835000 -0.109605 0
15.840000 -0.108702 0
15.845000 -0.107796 0
15.850000 -0.106877 0
15.855000 -0.105929 0
15.860000 -0.104927 0
15.865000 -0.103827 0
15.870000 -0.102554 0
15.875000 -0.100999 0
15.880000 -0.098992 0
15.885000 -0.096296 0
15.890000 -0.092585 0
15.895000 -0.087442 0
15.900000 -0.080359 0
15.905000 -0.070759 0
15.910000 -0.058051 0
15.915000 -0.041694 0
15.920000 -0.021308 0
15.925000 0.003217 0
15.930000 0.031609 0
15.935000 0.063122 0
15.940000 0.096504 0
15.945000 0.130034 0
15.950000 0.161640 0
15.955000 0.189100 0
15.960000 0.210292 0
15.965000 0.223465 0
15.970000 0.227478 1
15.975000 0.221961 0
15.980000 0.207373 0
15.985000 0.184937 0
15.990000 0.156469 0
15.995000 0.124121 0
16.000000 0.090051 0
16.005000 0.055963 0
16.010000 0.022394 0
16.015000 -0.012263 0
16.020000 -0.052305 0
16.025000 -0.103030 0
16.030000 -0.165272 0
16.035000 -0.228135 0
16.040000 -0.266032 2
16.045000 -0.244091 0
16.050000 -0.128590 0
16.055000 0.101199 0
16.060000 0.434808 0
16.065000 0.807236 0
16.070000 1.098718 0
16.075000 1.187354 3
16.080000 1.027754 0
16.085000 0.686029 0
16.090000 0.291331 0
16.095000 -0.043025 0
16.100000 -0.258706 0
16.105000 -0.346451 4
16.110000 -0.329118 0
16.115000 -0.248668 0
16.120000 -0.150264 0
16.125000 -0.064947 0
16.130000 -0.002674 0
16.135000 0.041317 0
16.140000 0.075850 0
16.145000 0.107412 0
16.150000 0.139043 0
16.155000 0.171538 0
16.160000 0.204665 0
16.165000 0.237794 0
16.170000 0.270136 0
16.175000 0.300829 0
16.180000 0.328992 0
16.185000 0.353760 0
16.190000 0.374333 0
16.195000 0.390015 0
16.200000 0.400254 0
16.205000 0.404672 5
16.210000 0.403089 0
16.215000 0.395530 0
16.220000 0.382231 0
16.225000 0.363618 0
16.230000 0.340291 0
16.235000 0.312987 0
16.240000 0.282539 0
16.245000 0.249840 0
16.250000 0.215792 0
16.255000 0.181269 0
16.260000 0.147083 0
16.265000 0.113950 0
16.270000 0.082471 0
16.275000 0.053121 0
16.280000 0.026244 0
16.285000 0.002054 0
16.290000 -0.019351 0
16.295000 -0.037976 0
16.300000 -0.053913 0
16.305000 -0.067321 0
16.310000 -0.078405 0
16.315000 -0.087402 0
16.320000 -0.094562 0
16.325000 -0.100135 0
16.330000 -0.104363 0
16.335000 -0.107471 0
16.340000 -0.109662 0
16.345000 -0.109214 0
16.350000 -0.108322 0
16.355000 -0.107434 0
16.360000 -0.106550 0
16.365000 -0.105669 0
16.370000 -0.104791 0
16.375000 -0.103911 0
16.380000 -0.103026 0
16.385000 -0.102126 0
16.390000 -0.101193 0
16.395000 -0.100197 0
16.400000 -0.099089 0
16.405000 -0.097788 0
16.410000 -0.096168 0
16.415000 -0.094046 0
16.420000 -0.091160 0
16.425000 -0.087160 0
16.430000 -0.081598 0
16.435000 -0.073940 0
16.440000 -0.063593 0
16.445000 -0.049961 0
16.450000 -0.032532 0
16.455000 -0.010985 0
16.460000 0.014693 0
16.465000 0.044094 0
16.470000 0.076312 0
16.475000 0.109927 0
16.480000 0.143071 0
16.485000 0.173572 0
16.490000 0.199185 0
16.495000 0.217854 0
16.500000 0.227990 0
16.505000 0.228688 1
16.510000 0.219866 0
16.515000 0.202273 0
16.520000 0.177388 0
16.525000 0.147208 0
16.530000 0.113956 0
16.535000 0.079709 0
16.540000 0.045840 0
16.545000 0.012165 0
16.550000 -0.024032 0
16.555000 -0.067913 0
16.560000 -0.123858 0
16.565000 -0.188574 0
16.570000 -0.244648 0
16.575000 -0.261051 2
16.580000 -0.201623 0
16.585000 -0.036354 0
16.590000 0.244492 0
16.595000 0.607777 0
16.600000 0.959364 0
16.605000 1.167331 3
16.610000 1.137345 0
16.615000 0.878548 0
16.620000 0.495629 0
16.625000 0.117493 0
16.630000 -0.167134 0
16.635000 -0.324621 0
16.640000 -0.361782 4
16.645000 -0.311145 0
16.650000 -0.217866 0
16.655000 -0.122389 0
16.660000 -0.046545 0
16.665000 0.007198 0
16.670000 0.046370 0
16.675000 0.079183 0
16.680000 0.110612 0
16.685000 0.142609 0
16.690000 0.175450 0
16.695000 0.208707 0
16.700000 0.241681 0
16.705000 0.273558 0
16.710000 0.303473 0
16.715000 0.330556 0
16.720000 0.353969 0
16.725000 0.372952 0
16.730000 0.386864 0
16.735000 0.395214 0
16.740000 0.397691 5
16.745000 0.394185 0
16.750000 0.384789 0
16.755000 0.369799 0
16.760000 0.349694 0
16.765000 0.325112 0
16.770000 0.296817 0
16.775000 0.265654 0
16.780000 0.232513 0
16.785000 0.198283 0
16.790000 0.163816 0
16.795000 0.129889 0
16.800000 0.097182 0
16.805000 0.066258 0
16.810000 0.037552 0
16.815000 0.011371 0
16.820000 -0.012102 0
16.825000 -0.032797 0
16.830000 -0.050741 0
16.835000 -0.066043 0
16.840000 -0.078872 0
16.845000 -0.089440 0
16.850000 -0.097984 0
16.855000 -0.104753 0
16.860000 -0.109994 0
16.865000 -0.113943 0
16.870000 -0.116818 0
16.875000 -0.118389 0
16.880000 -0.117452 0
16.885000 -0.116519 0
16.890000 -0.115590 0
16.895000 -0.114665 0
16.900000 -0.113744 0
16.905000 -0.112824 0
16.910000 -0.111904 0
16.915000 -0.110977 0
16.920000 -0.110033 0
16.925000 -0.109054 0
16.930000 -0.108008 0
16.935000 -0.106842 0
16.940000 -0.105473 0
16.945000 -0.103771 0
16.950000 -0.101546 0
16.955000 -0.098532 0
16.960000 -0.094372 0
16.965000 -0.088616 0
16.970000 -0.080729 0
16.975000 -0.070121 0
16.980000 -0.056207 0
16.985000 -0.038490 0
16.990000 -0.016666 0
16.995000 0.009256 0
17.000000 0.038846 0
17.005000 0.071187 0
17.010000 0.104852 0
17.015000 0.137980 0
17.020000 0.168417 0
17.025000 0.193943 0
17.030000 0.212531 0
17.035000 0.222617 0
17.040000 0.223314 1
17.045000 0.214541 0
17.050000 0.197040 0
17.055000 0.172267 0
17.060000 0.142193 0
17.065000 0.109018 0
17.070000 0.074804 0
17.075000 0.040943 0
17.080000 0.007327 0
17.085000 -0.028619 0
17.090000 -0.071930 0
17.095000 -0.127131 0
17.100000 -0.191617 0
17.105000 -0.249119 0
17.110000 -0.269653 2
17.115000 -0.217437 0
17.120000 -0.061865 0
17.125000 0.209157 0
17.130000 0.567726 0
17.135000 0.926383 0
17.140000 1.155575 3
17.145000 1.153111 0
17.150000 0.914323 0
17.155000 0.537488 0
17.160000 0.154635 0
17.165000 -0.139209 0
17.170000 -0.305819 0
17.175000 -0.349765 4
17.180000 -0.302821 0
17.185000 -0.210584 0
17.190000 -0.114736 0
17.195000 -0.038271 0
17.200000 0.015819 0
17.205000 0.055074 0
17.210000 0.087859 0
17.215000 0.119247 0
17.220000 0.151214 0
17.225000 0.184030 0
17.230000 0.217251 0
17.235000 0.250161 0
17.240000 0.281932 0
17.245000 0.311682 0
17.250000 0.338527 0
17.255000 0.361619 0
17.260000 0.380193 0
17.265000 0.393607 0
17.270000 0.401376 0
17.275000 0.403206 5
17.280000 0.399002 0
17.285000 0.388885 0
17.290000 0.373178 0
17.295000 0.352390 0
17.300000 0.327189 0
17.305000 0.298366 0
17.310000 0.266791 0
17.315000 0.233370 0
17.320000 0.199003 0
17.325000 0.164545 0
17.330000 0.130770 0
17.335000 0.098346 0
17.340000 0.067820 0
17.345000 0.039608 0
17.350000 0.013992 0
17.355000 -0.008869 0
17.360000 -0.028927 0
17.365000 -0.046234 0
17.370000 -0.060915 0
17.375000 -0.073156 0
17.380000 -0.083181 0
17.385000 -0.091236 0
17.390000 -0.097574 0
17.395000 -0.102445 0
17.400000 -0.106082 0
17.405000 -0.108702 0
17.410000 -0.110105 0
17.415000 -0.109209 0
17.420000 -0.108317 0
17.425000 -0.107429 0
17.430000 -0.106544 0
17.435000 -0.105663 0
17.440000 -0.104782 0
17.445000 -0.103898 0
17.450000 -0.103004 0
17.455000 -0.102087 0
17.460000 -0.101123 0
17.465000 -0.100072 0
17.470000 -0.098869 0
17.475000 -0.097411 0
17.480000 -0.095541 0
17.485000 -0.093034 0
17.490000 -0.089578 0
17.495000 -0.084768 0
17.500000 -0.078102 0
17.505000 -0.069005 0
17.510000 -0.056870 0
17.515000 -0.041134 0
17.520000 -0.021377 0
17.525000 0.002564 0
17.530000 0.030470 0
17.535000 0.061648 0
17.540000 0.094886 0
17.545000 0.128481 0
17.550000 0.160353 0
17.555000 0.188243 0
17.560000 0.209973 0
17.565000 0.223721 0
17.570000 0.228278 1
17.575000 0.223220 0
17.580000 0.208971 0
17.585000 0.186749 0
17.590000 0.158385 0
17.595000 0.126067 0
17.600000 0.091992 0
17.605000 0.057897 0
17.610000 0.024317 0
17.615000 -0.010424 0
17.620000 -0.050753 0
17.625000 -0.102014 0
17.630000 -0.164683 0
17.635000 -0.226913 0
17.640000 -0.261870 2
17.645000 -0.233797 0
17.650000 -0.108942 0
17.655000 0.131891 0
17.660000 0.473645 0
17.665000 0.843540 0
17.670000 1.115800 0
17.675000 1.172031 3
17.680000 0.981411 0
17.685000 0.624030 0
17.690000 0.232296 0
17.695000 -0.086470 0
17.700000 -0.281895 0
17.705000 -0.350661 4
17.710000 -0.319761 0
17.715000 -0.233310 0
17.720000 -0.135543 0
17.725000 -0.054162 0
17.730000 0.004174 0
17.735000 0.045755 0
17.740000 0.079344 0
17.745000 0.110787 0
17.750000 0.142589 0
17.755000 0.175267 0
17.760000 0.208470 0
17.765000 0.241516 0
17.770000 0.273588 0
17.775000 0.303809 0
17.780000 0.331287 0
17.785000 0.355162 0
17.790000 0.374648 0
17.795000 0.389073 0
17.800000 0.397919 0
17.805000 0.400854 5
17.810000 0.397746 0
17.815000 0.388677 0
17.820000 0.373935 0
17.825000 0.354001 0
17.830000 0.329521 0
17.835000 0.301268 0
17.840000 0.270105 0
17.845000 0.236940 0
17.850000 0.202680 0
17.855000 0.168191 0
17.860000 0.134267 0
17.865000 0.101596 0
17.870000 0.070748 0
17.875000 0.042161 0
17.880000 0.016139 0
17.885000 -0.007140 0
17.890000 -0.027612 0
17.895000 -0.045315 0
17.900000 -0.060364 0
17.905000 -0.072940 0
17.910000 -0.083261 0
17.915000 -0.091573 0
17.920000 -0.098129 0
17.925000 -0.103181 0
17.930000 -0.106967 0
17.935000 -0.109705 0
17.940000 -0.111187 0
17.945000 -0.110285 0
17.950000 -0.109388 0
17.955000 -0.108494 0
17.960000 -0.107605 0
17.965000 -0.106718 0
17.970000 -0.105833 0
17.975000 -0.104945 0
17.980000 -0.104048 0
17.985000 -0.103129 0
17.990000 -0.102168 0
17.995000 -0.101125 0
18.000000 -0.099938 0
18.005000 -0.098510 0
18.010000 -0.096688 0
18.015000 -0.094257 0
18.020000 -0.090912 0
18.025000 -0.086255 0
18.030000 -0.079794 0
18.035000 -0.070957 0
18.040000 -0.059135 0
18.045000 -0.043754 0
18.050000 -0.024374 0
18.055000 -0.000804 0
18.060000 0.026776 0
18.065000 0.057715 0
18.070000 0.090844 0
18.075000 0.124491 0
18.080000 0.156592 0
18.085000 0.184888 0
18.090000 0.207174 0
18.095000 0.221587 0
18.100000 0.226856 1
18.105000 0.222495 0
18.110000 0.208870 0
18.115000 0.187149 0
18.120000 0.159136 0
18.125000 0.127013 0
18.130000 0.092995 0
18.135000 0.058874 0
18.140000 0.025289 0
18.145000 -0.009285 0
18.150000 -0.049148 0
18.155000 -0.099725 0
18.160000 -0.161954 0
18.165000 -0.224726 0
18.170000 -0.261792 2
18.175000 -0.237463 0
18.180000 -0.117516 0
18.185000 0.118304 0
18.190000 0.456886 0
18.195000 0.827816 0
18.200000 1.106191 0
18.205000 1.171370 3
18.210000 0.990885 0
18.215000 0.639872 0
18.220000 0.246230 0
18.225000 -0.082256 0
18.230000 -0.291774 0
18.235000 -0.375119 4
18.240000 -0.355547 0
18.245000 -0.274415 0
18.250000 -0.175854 0
18.255000 -0.090203 0
18.260000 -0.027355 0
18.265000 0.017186 0
18.270000 0.052072 0
18.275000 0.083798 0
18.280000 0.115489 0
18.285000 0.148024 0
18.290000 0.181221 0
18.295000 0.214485 0
18.300000 0.247053 0
18.305000 0.278091 0
18.310000 0.306734 0
18.315000 0.332134 0
18.320000 0.353496 0
18.325000 0.370122 0
18.330000 0.381447 0
18.335000 0.387068 5
18.340000 0.386773 0
18.345000 0.380547 0
18.350000 0.368577 0
18.355000 0.351241 0
18.360000 0.329090 0
18.365000 0.302812 0
18.370000 0.273206 0
18.375000 0.241130 0
18.380000 0.207471 0
18.385000 0.173095 0
18.390000 0.138816 0
18.395000 0.105367 0
18.400000 0.073373 0
18.405000 0.043341 0
18.410000 0.015651 0
18.415000 -0.009444 0
18.420000 -0.031806 0
18.425000 -0.051406 0
18.430000 -0.068302 0
18.435000 -0.082627 0
18.440000 -0.094564 0
18.445000 -0.104334 0
18.450000 -0.112178 0
18.455000 -0.118342 0
18.460000 -0.123068 0
18.465000 -0.126583 0
18.470000 -0.129097 0
18.475000 -0.130405 0
18.480000 -0.129407 0
18.485000 -0.128414 0
18.490000 -0.127426 0
18.495000 -0.126442 0
18.500000 -0.125462 0
18.505000 -0.124482 0
18.510000 -0.123501 0
18.515000 -0.122512 0
18.520000 -0.121502 0
18.525000 -0.120451 0
18.530000 -0.119323 0
18.535000 -0.118058 0
18.540000 -0.116565 0
18.545000 -0.114702 0
18.550000 -0.112265 0
18.555000 -0.108972 0
18.560000 -0.104448 0
18.565000 -0.098230 0
18.570000 -0.089773 0
18.575000 -0.078490 0
18.580000 -0.063812 0
18.585000 -0.045275 0
18.590000 -0.022631 0
18.595000 0.004043 0
18.600000 0.034240 0
18.605000 0.066963 0
18.610000 0.100727 0
18.615000 0.133630 0
18.620000 0.163517 0
18.625000 0.188205 0
18.630000 0.205740 0
18.635000 0.214658 1
18.640000 0.214183 0
18.645000 0.204339 0
18.650000 0.185953 0
18.655000 0.160539 0
18.660000 0.130082 0
18.665000 0.096763 0
18.670000 0.062584 0
18.675000 0.028824 0
18.680000 -0.004799 0
18.685000 -0.041051 0
18.690000 -0.085030 0
18.695000 -0.140971 0
18.700000 -0.205602 0
18.705000 -0.261973 0
18.710000 -0.279885 2
18.715000 -0.223946 0
18.720000 -0.064338 0
18.725000 0.209953 0
18.730000 0.569845 0
18.735000 0.927469 0
18.740000 1.154417 3
18.745000 1.150391 0
18.750000 0.912522 0
18.755000 0.536939 0
18.760000 0.152400 0
18.765000 -0.146872 0
18.770000 -0.321374 0
18.775000 -0.373562 4
18.780000 -0.332803 0
18.785000 -0.242934 0
18.790000 -0.145753 0
18.795000 -0.066109 0
18.800000 -0.009028 0
18.805000 0.032051 0
18.810000 0.065567 0
18.815000 0.097071 0
18.820000 0.128942 0
18.825000 0.161674 0
18.830000 0.194933 0
18.835000 0.228065 0
18.840000 0.260282 0
18.845000 0.290736 0
18.850000 0.318564 0
18.855000 0.342929 0
18.860000 0.363057 0
18.865000 0.378283 0
18.870000 0.388084 0
18.875000 0.392105 5
18.880000 0.390187 0
18.885000 0.382370 0
18.890000 0.368893 0
18.895000 0.350182 0
18.900000 0.326829 0
18.905000 0.299556 0
18.910000 0.269180 0
18.915000 0.236572 0
18.920000 0.202615 0
18.925000 0.168167 0
18.930000 0.134021 0
18.935000 0.100883 0
18.940000 0.069348 0
18.945000 0.039889 0
18.950000 0.012851 0
18.955000 -0.011544 0
18.960000 -0.033189 0
18.965000 -0.052080 0
18.970000 -0.068296 0
18.975000 -0.081985 0
18.980000 -0.093342 0
18.985000 -0.102596 0
18.990000 -0.109989 0
18.995000 -0.115767 0
19.000000 -0.120170 0
19.005000 -0.123419 0
19.010000 -0.125719 0
19.015000 -0.125220 0
19.020000 -0.124248 0
19.025000 -0.123281 0
19.030000 -0.122318 0
19.035000 -0.121360 0
19.040000 -0.120404 0
19.045000 -0.119448 0
19.050000 -0.118490 0
19.055000 -0.117520 0
19.060000 -0.116525 0
19.065000 -0.115482 0
19.070000 -0.114348 0
19.075000 -0.113057 0
19.080000 -0.111505 0
19.085000 -0.109536 0
19.090000 -0.106928 0
19.095000 -0.103373 0
19.100000 -0.098475 0
19.105000 -0.091745 0
19.110000 -0.082624 0
19.115000 -0.070523 0
19.120000 -0.054891 0
19.125000 -0.035310 0
19.130000 -0.011606 0
19.135000 0.016039 0
19.140000 0.046995 0
19.145000 0.080132 0
19.150000 0.113846 0
19.155000 0.146151 0
19.160000 0.174861 0
19.165000 0.197828 0
19.170000 0.213204 0
19.175000 0.219686 1
19.180000 0.216704 0
19.185000 0.204496 0
19.190000 0.184084 0
19.195000 0.157127 0
19.200000 0.125692 0
19.205000 0.091953 0
19.210000 0.057785 0
19.215000 0.024155 0
19.220000 -0.009793 0
19.225000 -0.047533 0
19.230000 -0.094405 0
19.235000 -0.153419 0
19.240000 -0.218167 0
19.245000 -0.267860 0
19.250000 -0.269974 2
19.255000 -0.189521 0
19.260000 -0.000049 0
19.265000 0.301419 0
19.270000 0.671545 0
19.275000 1.007968 0
19.280000 1.181626 3
19.285000 1.111941 0
19.290000 0.825243 0
19.295000 0.435109 0
19.300000 0.066943 0
19.305000 -0.199422 0
19.310000 -0.337722 0
19.315000 -0.359378 4
19.320000 -0.299587 0
19.325000 -0.203819 0
19.330000 -0.110318 0
19.335000 -0.037798 0
19.340000 0.013364 0
19.345000 0.051227 0
19.350000 0.083637 0
19.355000 0.115079 0
19.360000 0.147193 0
19.365000 0.180120 0
19.370000 0.213381 0
19.375000 0.246259 0
19.380000 0.277934 0
19.385000 0.307541 0
19.390000 0.334214 0
19.395000 0.357125 0
19.400000 0.375529 0
19.405000 0.388803 0
19.410000 0.396478 0
19.415000 0.398267 5
19.420000 0.394083 0
19.425000 0.384042 0
19.430000 0.368460 0
19.435000 0.347835 0
19.440000 0.322816 0
19.445000 0.294176 0
19.450000 0.262765 0
19.455000 0.229471 0
19.460000 0.195179 0
19.465000 0.160730 0
19.470000 0.126892 0
19.475000 0.094331 0
19.480000 0.063597 0
19.485000 0.035112 0
19.490000 0.009168 0
19.495000 -0.014060 0
19.500000 -0.034514 0
19.505000 -0.052229 0
19.510000 -0.067317 0
19.515000 -0.079952 0
19.520000 -0.090348 0
19.525000 -0.098742 0
19.530000 -0.105384 0
19.535000 -0.110519 0
19.540000 -0.114381 0
19.545000 -0.117187 0
19.550000 -0.118710 0
19.555000 -0.117771 0
19.560000 -0.116836 0
19.565000 -0.115906 0
19.570000 -0.114979 0
19.575000 -0.114056 0
19.580000 -0.113135 0
19.585000 -0.112212 0
19.590000 -0.111283 0
19.595000 -0.110336 0
19.600000 -0.109352 0
19.605000 -0.108300 0
19.610000 -0.107125 0
19.615000 -0.105741 0
19.620000 -0.104017 0
19.625000 -0.101761 0
19.630000 -0.098704 0
19.635000 -0.094485 0
19.640000 -0.088652 0
19.645000 -0.080669 0
19.650000 -0.069948 0
19.655000 -0.055906 0
19.660000 -0.038052 0
19.665000 -0.016093 0
19.670000 0.009950 0
19.675000 0.039635 0
19.680000 0.072033 0
19.685000 0.105710 0
19.690000 0.138799 0
19.695000 0.169151 0
19.700000 0.194553 0
19.705000 0.212993 0
19.710000 0.222921 0
19.715000 0.223468 1
19.720000 0.214565 0
19.725000 0.196963 0
19.730000 0.172121 0
19.735000 0.142009 0
19.740000 0.108818 0
19.745000 0.074603 0
19.750000 0.040745 0
19.755000 0.007129 0
19.760000 -0.028818 0
19.765000 -0.072118 0
19.770000 -0.127286 0
19.775000 -0.191756 0
19.780000 -0.249378 0
19.785000 -0.270327 2
19.790000 -0.218937 0
19.795000 -0.064600 0
19.800000 0.205045 0
19.805000 0.562848 0
19.810000 0.922482 0
19.815000 1.155024 0
19.820000 1.157388 3
19.825000 0.925106 0
19.830000 0.552023 0
19.835000 0.165578 0
19.840000 -0.139037 0
19.845000 -0.320457 0
19.850000 -0.379337 4
19.855000 -0.343427 0
19.860000 -0.255543 0
19.865000 -0.157718 0
19.870000 -0.076109 0
19.875000 -0.017117 0
19.880000 0.025146 0
19.885000 0.059144 0
19.890000 0.090719 0
19.895000 0.122509 0
19.900000 0.155155 0
19.905000 0.188391 0
19.910000 0.221595 0
19.915000 0.254002 0
19.920000 0.284782 0
19.925000 0.313083 0
19.930000 0.338069 0
19.935000 0.358965 0
19.940000 0.375094 0
19.945000 0.385911 0
19.950000 0.391037 5
19.955000 0.390277 0
19.960000 0.383630 0
19.965000 0.371295 0
19.970000 0.353658 0
19.975000 0.331269 0
19.980000 0.304816 0
19.985000 0.275089 0
19.990000 0.242940 0
19.995000 0.209241 0
20.000000 0.174847 0
20.005000 0.140563 0
20.010000 0.107108 0
20.015000 0.075101 0
20.020000 0.045042 0
20.025000 0.017307 0
20.030000 -0.007852 0
20.035000 -0.030298 0
20.040000 -0.049998 0
20.045000 -0.067008 0
20.050000 -0.081455 0
20.055000 -0.093518 0
20.060000 -0.103416 0
20.065000 -0.111383 0
20.070000 -0.117664 0
20.075000 -0.122498 0
20.080000 -0.126111 0
20.085000 -0.128711 0
20.090000 -0.130082 0
20.095000 -0.129086 0
20.100000 -0.128095 0
20.105000 -0.127108 0
20.110000 -0.126126 0
20.115000 -0.125147 0
20.120000 -0.124170 0
20.125000 -0.123192 0
20.130000 -0.122207 0
20.135000 -0.121204 0
20.140000 -0.120164 0
20.145000 -0.119054 0
20.150000 -0.117822 0
20.155000 -0.116382 0
20.160000 -0.114606 0
20.165000 -0.112305 0
20.170000 -0.109215 0
20.175000 -0.104989 0
20.180000 -0.099184 0
20.185000 -0.091279 0
20.190000 -0.080700 0
20.195000 -0.066873 0
20.200000 -0.049309 0
20.205000 -0.027699 0
20.210000 -0.002030 0
20.215000 0.027315 0
20.220000 0.059481 0
20.225000 0.093126 0
20.230000 0.126473 0
20.235000 0.157445 0
20.240000 0.183870 0
20.245000 0.203725 0
20.250000 0.215395 0
20.255000 0.217887 1
20.260000 0.210976 0
20.265000 0.195230 0
20.270000 0.171940 0
20.275000 0.142942 0
20.280000 0.110358 0
20.285000 0.076275 0
20.290000 0.042287 0
20.295000 0.008783 0
20.300000 -0.025994 0
20.305000 -0.066390 0
20.310000 -0.117536 0
20.315000 -0.179952 0
20.320000 -0.242613 0
20.325000 -0.280292 2
20.330000 -0.258867 0
20.335000 -0.145309 0
20.340000 0.081047 0
20.345000 0.411300 0
20.350000 0.784455 0
20.355000 1.085354 0
20.360000 1.192361 3
20.365000 1.052872 0
20.370000 0.723219 0
20.375000 0.327883 0
20.380000 -0.017510 0
20.385000 -0.249316 0
20.390000 -0.353463 4
20.395000 -0.348938 0
20.400000 -0.275048 0
20.405000 -0.176838 0
20.410000 -0.087899 0
20.415000 -0.021419 0
20.420000 0.025454 0
20.425000 0.061301 0
20.430000 0.093172 0
20.435000 0.124697 0
20.440000 0.157023 0
20.445000 0.190079 0
20.450000 0.223309 0
20.455000 0.255968 0
20.460000 0.287226 0
20.465000 0.316218 0
20.470000 0.342087 0
20.475000 0.364028 0
20.480000 0.381321 0
20.485000 0.393379 0
20.490000 0.399774 0
20.495000 0.400263 5
20.500000 0.394803 0
20.505000 0.383553 0
20.510000 0.366867 0
20.515000 0.345273 0
20.520000 0.319446 0
20.525000 0.290173 0
20.530000 0.258311 0
20.535000 0.224746 0
20.540000 0.190351 0
20.545000 0.155953 0
20.550000 0.122297 0
20.555000 0.090026 0
20.560000 0.059663 0
20.565000 0.031604 0
20.570000 0.006121 0
20.575000 -0.016637 0
20.580000 -0.036627 0
20.585000 -0.053899 0
20.590000 -0.068576 0
20.595000 -0.080839 0
20.600000 -0.090905 0
20.605000 -0.099015 0
20.610000 -0.105414 0
20.615000 -0.110347 0
20.620000 -0.114044 0
20.625000 -0.116717 0
20.630000 -0.118151 0
20.635000 -0.117214 0
20.640000 -0.116282 0
20.645000 -0.115355 0
20.650000 -0.114431 0
20.655000 -0.113511 0
20.660000 -0.112591 0
20.665000 -0.111671 0
20.670000 -0.110742 0
20.675000 -0.109794 0
20.680000 -0.108807 0
20.685000 -0.107746 0
20.690000 -0.106555 0
20.695000 -0.105144 0
20.700000 -0.103377 0
20.705000 -0.101056 0
20.710000 -0.097903 0
20.715000 -0.093553 0
20.720000 -0.087545 0
20.725000 -0.079341 0
20.730000 -0.068352 0
20.735000 -0.054005 0
20.740000 -0.035822 0
20.745000 -0.013534 0
20.750000 0.012808 0
20.755000 0.042731 0
20.760000 0.075270 0
20.765000 0.108966 0
20.770000 0.141938 0
20.775000 0.172035 0
20.780000 0.197062 0
20.785000 0.215037 0
20.790000 0.224454 0
20.795000 0.224490 1
20.800000 0.215121 0
20.805000 0.197132 0
20.810000 0.172005 0
20.815000 0.141713 0
20.820000 0.108441 0
20.825000 0.074216 0
20.830000 0.040376 0
20.835000 0.006738 0
20.840000 -0.029342 0
20.845000 -0.072905 0
20.850000 -0.128359 0
20.855000 -0.192906 0
20.860000 -0.250183 0
20.865000 -0.270332 2
20.870000 -0.217870 0
20.875000 -0.062478 0
20.880000 0.207898 0
20.885000 0.565927 0
20.890000 0.925508 0
20.895000 1.158351 0
20.900000 1.161773 3
20.905000 0.927525 0
20.910000 0.552086 0
20.915000 0.168396 0
20.920000 -0.127027 0
20.925000 -0.295011 0
20.930000 -0.339792 4
20.935000 -0.293182 0
20.940000 -0.201023 0
20.945000 -0.105253 0
20.950000 -0.028962 0
20.955000 0.024924 0
20.960000 0.064019 0
20.965000 0.096716 0
20.970000 0.128063 0
20.975000 0.160008 0
20.980000 0.192800 0
20.985000 0.225983 0
20.990000 0.258833 0
20.995000 0.290513 0
21.000000 0.320135 0
21.005000 0.346810 0
21.010000 0.369689 0
21.015000 0.388004 0
21.020000 0.401117 0
21.025000 0.408549 0
21.030000 0.410013 5
21.035000 0.405426 0
21.040000 0.394922 0
21.045000 0.378836 0
21.050000 0.357694 0
21.055000 0.332176 0
21.060000 0.303085 0
21.065000 0.271301 0
21.070000 0.237736 0
21.075000 0.203295 0
21.080000 0.168831 0
21.085000 0.135114 0
21.090000 0.102808 0
21.095000 0.072450 0
21.100000 0.044445 0
21.105000 0.019066 0
21.110000 -0.003540 0
21.115000 -0.023336 0
21.120000 -0.040382 0
21.125000 -0.054814 0
21.130000 -0.066821 0
21.135000 -0.076635 0
21.140000 -0.084503 0
21.145000 -0.090680 0
21.150000 -0.095416 0
21.155000 -0.098944 0
21.160000 -0.101479 0
21.165000 -0.101116 0
21.170000 -0.100264 0
21.175000 -0.099417 0
21.180000 -0.098573 0
21.185000 -0.097733 0
21.190000 -0.096895 0
21.195000 -0.096057 0
21.200000 -0.095215 0
21.205000 -0.094360 0
21.210000 -0.093480 0
21.215000 -0.092546 0
21.220000 -0.091517 0
21.225000 -0.090319 0
21.230000 -0.088842 0
21.235000 -0.086916 0
21.240000 -0.084301 0
21.245000 -0.080665 0
21.250000 -0.075581 0
21.255000 -0.068529 0
21.260000 -0.058919 0
21.265000 -0.046142 0
21.270000 -0.029653 0
21.275000 -0.009070 0
21.280000 0.015698 0
21.285000 0.044339 0
21.290000 0.076047 0
21.295000 0.109488 0
21.300000 0.142854 0
21.305000 0.173991 0
21.310000 0.200621 0
21.315000 0.220610 0
21.320000 0.232247 0
21.325000 0.234490 1
21.330000 0.227112 0
21.335000 0.210744 0
21.340000 0.186782 0
21.345000 0.157183 0
21.350000 0.124187 0
21.355000 0.089940 0
21.360000 0.055964 0
21.365000 0.022319 0
21.370000 -0.013412 0
21.375000 -0.056260 0
21.380000 -0.111007 0
21.385000 -0.175428 0
21.390000 -0.233353 0
21.395000 -0.254340 2
21.400000 -0.201822 0
21.405000 -0.044564 0
21.410000 0.229311 0
21.415000 0.589754 0
21.420000 0.945023 0
21.425000 1.162194 3
21.430000 1.142712 0
21.435000 0.891107 0
21.440000 0.510234 0
21.445000 0.130383 0
21.450000 -0.157375 0
21.455000 -0.317811 0
21.460000 -0.357040 4
21.465000 -0.307445 0
21.470000 -0.214433 0
21.475000 -0.118891 0
21.480000 -0.042977 0
21.485000 0.010751 0
21.490000 0.049871 0
21.495000 0.082645 0
21.500000 0.114060 0
21.505000 0.146055 0
21.510000 0.178894 0
21.515000 0.212140 0
21.520000 0.245082 0
21.525000 0.276900 0
21.530000 0.306722 0
21.535000 0.333670 0
21.540000 0.356904 0
21.545000 0.375661 0
21.550000 0.389300 0
21.555000 0.397337 0
21.560000 0.399467 5
21.565000 0.395592 0
21.570000 0.385818 0
21.575000 0.370455 0
21.580000 0.349997 0
21.585000 0.325097 0
21.590000 0.296533 0
21.595000 0.265161 0
21.600000 0.231879 0
21.605000 0.197582 0
21.610000 0.163122 0
21.615000 0.129273 0
21.620000 0.096710 0
21.625000 0.065988 0
21.630000 0.037531 0
21.635000 0.011634 0
21.640000 -0.011532 0
21.645000 -0.031908 0
21.650000 -0.049533 0
21.655000 -0.064524 0
21.660000 -0.077058 0
21.665000 -0.087354 0
21.670000 -0.095652 0
21.675000 -0.102204 0
21.680000 -0.107258 0
21.685000 -0.111048 0
21.690000 -0.113793 0
21.695000 -0.115277 0
21.700000 -0.114355 0
21.705000 -0.113437 0
21.710000 -0.112524 0
21.715000 -0.111614 0
21.720000 -0.110707 0
21.725000 -0.109802 0
21.730000 -0.108895 0
21.735000 -0.107980 0
21.740000 -0.107045 0
21.745000 -0.106070 0
21.750000 -0.105019 0
21.755000 -0.103834 0
21.760000 -0.102422 0
21.765000 -0.100641 0
21.770000 -0.098285 0
21.775000 -0.095067 0
21.780000 -0.090608 0
21.785000 -0.084432 0
21.790000 -0.075985 0
21.795000 -0.064667 0
21.800000 -0.049902 0
21.805000 -0.031223 0
21.810000 -0.008391 0
21.815000 0.018491 0
21.820000 0.048872 0
21.825000 0.081697 0
21.830000 0.115407 0
21.835000 0.148032 0
21.840000 0.177361 0
21.845000 0.201181 0
21.850000 0.217553 0
21.855000 0.225068 1
21.860000 0.223052 0
21.865000 0.211662 0
21.870000 0.191865 0
21.875000 0.165306 0
21.880000 0.134069 0
21.885000 0.100374 0
21.890000 0.066162 0
21.895000 0.032476 0
21.900000 -0.001469 0
21.905000 -0.039142 0
21.910000 -0.085968 0
21.915000 -0.145040 0
21.920000 -0.209790 0
21.925000 -0.258857 0
21.930000 -0.258941 2
21.935000 -0.174495 0
21.940000 0.020798 0
21.945000 0.328135 0
21.950000 0.699758 0
21.955000 1.027751 0
21.960000 1.181626 3
21.965000 1.088276 0
21.970000 0.785185 0
21.975000 0.391986 0
21.980000 0.032352 0
21.985000 -0.219460 0
21.990000 -0.342256 0
21.995000 -0.351167 4
22.000000 -0.283947 0
22.005000 -0.186607 0
22.010000 -0.095513 0
22.015000 -0.026516 0
22.020000 0.021975 0
22.025000 0.058502 0
22.030000 0.090528 0
22.035000 0.122018 0
22.040000 0.154285 0
22.045000 0.187313 0
22.050000 0.220556 0
22.055000 0.253264 0
22.060000 0.284593 0
22.065000 0.313668 0
22.070000 0.339616 0
22.075000 0.361616 0
22.080000 0.378936 0
22.085000 0.390979 0
22.090000 0.397310 0
22.095000 0.397685 5
22.100000 0.392063 0
22.105000 0.380613 0
22.110000 0.363700 0
22.115000 0.341870 0
22.120000 0.315815 0
22.125000 0.286341 0
22.130000 0.254320 0
22.135000 0.220655 0
22.140000 0.186231 0
22.145000 0.151879 0
22.150000 0.118350 0
22.155000 0.086282 0
22.160000 0.056192 0
22.165000 0.028468 0
22.170000 0.003367 0
22.175000 -0.018975 0
22.180000 -0.038529 0
22.185000 -0.055359 0
22.190000 -0.069602 0
22.195000 -0.081449 0
22.200000 -0.091127 0
22.205000 -0.098880 0
22.210000 -0.104961 0
22.215000 -0.109615 0
22.220000 -0.113071 0
22.225000 -0.115541 0
22.230000 -0.116834 0
22.235000 -0.115904 0
22.240000 -0.114978 0
22.245000 -0.114057 0
22.250000 -0.113139 0
22.255000 -0.112225 0
22.260000 -0.111310 0
22.265000 -0.110393 0
22.270000 -0.109465 0
22.275000 -0.108512 0
22.280000 -0.107510 0
22.285000 -0.106419 0
22.290000 -0.105170 0
22.295000 -0.103658 0
22.300000 -0.101724 0
22.305000 -0.099140 0
22.310000 -0.095593 0
22.315000 -0.090674 0
22.320000 -0.083883 0
22.325000 -0.074647 0
22.330000 -0.062365 0
22.335000 -0.046482 0
22.340000 -0.026587 0
22.345000 -0.002528 0
22.350000 0.025469 0
22.355000 0.056710 0
22.360000 0.089985 0
22.365000 0.123604 0
22.370000 0.155503 0
22.375000 0.183443 0
22.380000 0.205265 0
22.385000 0.219159 0
22.390000 0.223915 1
22.395000 0.219099 0
22.400000 0.205112 0
22.405000 0.183140 0
22.410000 0.154986 0
22.415000 0.122807 0
22.420000 0.088792 0
22.425000 0.054695 0
22.430000 0.021132 0
22.435000 -0.013416 0
22.440000 -0.053193 0
22.445000 -0.103572 0
22.450000 -0.165606 0
22.455000 -0.228626 0
22.460000 -0.267062 2
22.465000 -0.245801 0
22.470000 -0.130764 0
22.475000 0.099037 0
22.480000 0.433010 0
22.485000 0.805281 0
22.490000 1.094722 0
22.495000 1.178969 3
22.500000 1.014612 0
22.505000 0.669788 0
22.510000 0.275604 0
22.515000 -0.054837 0
22.520000 -0.264705 0
22.525000 -0.346387 4
22.530000 -0.324277 0
22.535000 -0.241479 0
22.540000 -0.143235 0
22.545000 -0.059538 0
22.550000 0.000977 0
22.555000 0.043819 0
22.560000 0.077870 0
22.565000 0.109359 0
22.570000 0.141075 0
22.575000 0.173669 0
22.580000 0.206841 0
22.585000 0.239928 0
22.590000 0.272117 0
22.595000 0.302534 0
22.600000 0.330284 0
22.605000 0.354501 0
22.610000 0.374386 0
22.615000 0.389255 0
22.620000 0.398576 0
22.625000 0.401997 5
22.630000 0.399370 0
22.635000 0.390760 0
22.640000 0.376440 0
22.645000 0.356877 0
22.650000 0.332707 0
22.655000 0.304698 0
22.660000 0.273710 0
22.665000 0.240651 0
22.670000 0.206432 0
22.675000 0.171926 0
22.680000 0.137934 0
22.685000 0.105154 0
22.690000 0.074167 0
22.695000 0.045419 0
22.700000 0.019224 0
22.705000 -0.004232 0
22.710000 -0.024878 0
22.715000 -0.042746 0
22.720000 -0.057950 0
22.725000 -0.070665 0
22.730000 -0.081109 0
22.735000 -0.089529 0
22.740000 -0.096177 0
22.745000 -0.101306 0
22.750000 -0.105156 0
22.755000 -0.107947 0
22.760000 -0.109468 0
22.765000 -0.108574 0
22.770000 -0.107685 0
22.775000 -0.106801 0
22.780000 -0.105920 0
22.785000 -0.105042 0
22.790000 -0.104165 0
22.795000 -0.103285 0
22.800000 -0.102397 0
22.805000 -0.101488 0
22.810000 -0.100537 0
22.815000 -0.099505 0
22.820000 -0.098333 0
22.825000 -0.096921 0
22.830000 -0.095121 0
22.835000 -0.092716 0
22.840000 -0.089406 0
22.845000 -0.084793 0
22.850000 -0.078384 0
22.855000 -0.069609 0
22.860000 -0.057856 0
22.865000 -0.042550 0
22.870000 -0.023245 0
22.875000 0.000255 0
22.880000 0.027777 0
22.885000 0.058675 0
22.890000 0.091781 0
22.895000 0.125425 0
22.900000 0.157542 0
22.905000 0.185866 0
22.910000 0.208185 0
22.915000 0.222628 0
22.920000 0.227920 1
22.925000 0.223568 0
22.930000 0.209939 0
22.935000 0.188204 0
22.940000 0.160173 0
22.945000 0.128033 0
22.950000 0.094005 0
22.955000 0.059881 0
22.960000 0.026291 0
22.965000 -0.008315 0
22.970000 -0.048272 0
22.975000 -0.099005 0
22.980000 -0.161354 0
22.985000 -0.223979 0
22.990000 -0.260362 2
22.995000 -0.234657 0
23.000000 -0.112680 0
23.005000 0.125463 0
23.010000 0.465687 0
23.015000 0.836024 0
23.020000 1.110493 0
23.025000 1.169333 3
23.030000 0.981767 0
23.035000 0.627362 0
23.040000 0.234385 0
23.045000 -0.090873 0
23.050000 -0.296326 0
23.055000 -0.375956 4
23.060000 -0.353766 0
23.065000 -0.271455 0
23.070000 -0.172942 0
23.075000 -0.087950 0
23.080000 -0.025783 0
23.085000 0.018332 0
23.090000 0.053043 0
23.095000 0.084736 0
23.100000 0.116448 0
23.105000 0.149009 0
23.110000 0.182218 0
23.115000 0.215472 0
23.120000 0.248007 0
23.125000 0.278986 0
23.130000 0.307544 0
23.135000 0.332834 0
23.140000 0.354064 0
23.145000 0.370540 0
23.150000 0.381700 0
23.155000 0.387148 5
23.160000 0.386678 0
23.165000 0.380279 0
23.170000 0.368146 0
23.175000 0.350661 0
23.180000 0.328379 0
23.185000 0.301993 0
23.190000 0.272303 0
23.195000 0.240169 0
23.200000 0.206477 0
23.205000 0.172093 0
23.210000 0.137828 0
23.215000 0.104412 0
23.220000 0.072468 0
23.225000 0.042498 0
23.230000 0.014878 0
23.235000 -0.010141 0
23.240000 -0.032425 0
23.245000 -0.051948 0
23.250000 -0.068771 0
23.255000 -0.083027 0
23.260000 -0.094901 0
23.265000 -0.104614 0
23.270000 -0.112409 0
23.275000 -0.118530 0
23.280000 -0.123219 0
23.285000 -0.126705 0
23.290000 -0.129194 0
23.295000 -0.130485 0
23.300000 -0.129487 0
23.305000 -0.128494 0
23.310000 -0.127505 0
23.315000 -0.126521 0
23.320000 -0.125540 0
23.325000 -0.124560 0
23.330000 -0.123578 0
23.335000 -0.122588 0
23.340000 -0.121577 0
23.345000 -0.120524 0
23.350000 -0.119392 0
23.355000 -0.118123 0
23.360000 -0.116622 0
23.365000 -0.114746 0
23.370000 -0.112291 0
23.375000 -0.108971 0
23.380000 -0.104410 0
23.385000 -0.098141 0
23.390000 -0.089620 0
23.395000 -0.078258 0
23.400000 -0.063487 0
23.405000 -0.044850 0
23.410000 -0.022103 0
23.415000 0.004666 0
23.420000 0.034940 0
23.425000 0.067710 0
23.430000 0.101477 0
23.435000 0.134333 0
23.440000 0.164120 0
23.445000 0.188656 0
23.450000 0.205999 0
23.455000 0.214698 1
23.460000 0.213995 0
23.465000 0.203935 0
23.470000 0.185364 0
23.475000 0.159805 0
23.480000 0.129256 0
23.485000 0.095896 0
23.490000 0.061717 0
23.495000 0.027972 0
23.500000 -0.005669 0
23.505000 -0.042036 0
23.510000 -0.086256 0
23.515000 -0.142475 0
23.520000 -0.207165 0
23.525000 -0.263036 0
23.530000 -0.279668 2
23.535000 -0.221681 0
23.540000 -0.059518 0
23.545000 0.217200 0
23.550000 0.578223 0
23.555000 0.934395 0
23.560000 1.157069 3
23.565000 1.148264 0
23.570000 0.908361 0
23.575000 0.532631 0
23.580000 0.147679 0
23.585000 -0.153498 0
23.590000 -0.331297 0
23.595000 -0.387306 4
23.600000 -0.349668 0
23.605000 -0.261160 0
23.610000 -0.163411 0
23.615000 -0.082093 0
23.620000 -0.023318 0
23.625000 0.018862 0
23.630000 0.052859 0
23.635000 0.084463 0
23.640000 0.116286 0
23.645000 0.148961 0
23.650000 0.182226 0
23.655000 0.215462 0
23.660000 0.247910 0
23.665000 0.278743 0
23.670000 0.307114 0
23.675000 0.332191 0
23.680000 0.353203 0
23.685000 0.369472 0
23.690000 0.380455 0
23.695000 0.385768 5
23.700000 0.385213 0
23.705000 0.378785 0
23.710000 0.366674 0
23.715000 0.349257 0
23.720000 0.327076 0
23.725000 0.300811 0
23.730000 0.271243 0
23.735000 0.239219 0
23.740000 0.205605 0
23.745000 0.171255 0
23.750000 0.136972 0
23.755000 0.103477 0
23.760000 0.071393 0
23.765000 0.041223 0
23.770000 0.013350 0
23.775000 -0.011967 0
23.780000 -0.034583 0
23.785000 -0.054460 0
23.790000 -0.071647 0
23.795000 -0.086265 0
23.800000 -0.098490 0
23.805000 -0.108535 0
23.810000 -0.116635 0
23.815000 -0.123030 0
23.820000 -0.127961 0
23.825000 -0.131653 0
23.830000 -0.134316 0
23.835000 -0.135723 0
23.840000 -0.134699 0
23.845000 -0.133679 0
23.850000 -0.132665 0
23.855000 -0.131655 0
23.860000 -0.130649 0
23.865000 -0.129645 0
23.870000 -0.128641 0
23.875000 -0.127630 0
23.880000 -0.126604 0
23.885000 -0.125544 0
23.890000 -0.124420 0
23.895000 -0.123182 0
23.900000 -0.121751 0
23.905000 -0.120006 0
23.910000 -0.117767 0
23.915000 -0.114786 0
23.920000 -0.110727 0
23.925000 -0.105165 0
23.930000 -0.097592 0
23.935000 -0.087441 0
23.940000 -0.074138 0
23.945000 -0.057176 0
23.950000 -0.036212 0
23.955000 -0.011177 0
23.960000 0.017619 0
23.965000 0.049407 0
23.970000 0.082933 0
23.975000 0.116499 0
23.980000 0.148077 0
23.985000 0.175506 0
23.990000 0.196728 0
23.995000 0.210043 0
24.000000 0.214335 1
24.005000 0.209229 0
24.010000 0.195142 0
24.015000 0.173230 0
24.020000 0.145228 0
24.025000 0.113214 0
24.030000 0.079304 0
24.035000 0.045232 0
24.040000 0.011707 0
24.045000 -0.022494 0
24.050000 -0.061189 0
24.055000 -0.109646 0
24.060000 -0.170000 0
24.065000 -0.234305 0
24.070000 -0.280445 2
24.075000 -0.275678 0
24.080000 -0.185970 0
24.085000 0.013287 0
24.090000 0.322181 0
24.095000 0.693919 0
24.100000 1.024571 0
24.105000 1.187761 3
24.110000 1.108098 0
24.115000 0.814801 0
24.120000 0.423334 0
24.125000 0.057938 0
24.130000 -0.203822 0
24.135000 -0.337448 0
24.140000 -0.355439 4
24.145000 -0.293586 0
24.150000 -0.197358 0
24.155000 -0.104406 0
24.160000 -0.032694 0
24.165000 0.017867 0
24.170000 0.055428 0
24.175000 0.087742 0
24.180000 0.119175 0
24.185000 0.151300 0
24.190000 0.184231 0
24.195000 0.217476 0
24.200000 0.250316 0
24.205000 0.281929 0
24.210000 0.311451 0
24.215000 0.338018 0
24.220000 0.360804 0
24.225000 0.379069 0
24.230000 0.392193 0
24.235000 0.399712 0
24.240000 0.401344 5
24.245000 0.397008 0
24.250000 0.386823 0
24.255000 0.371111 0
24.260000 0.350370 0
24.265000 0.325255 0
24.270000 0.296536 0
24.275000 0.265066 0
24.280000 0.231731 0
24.285000 0.197414 0
24.290000 0.162956 0
24.295000 0.129120 0
24.300000 0.096570 0
24.305000 0.065854 0
24.310000 0.037391 0
24.315000 0.011472 0
24.320000 -0.011732 0
24.325000 -0.032164 0
24.330000 -0.049858 0
24.335000 -0.064929 0
24.340000 -0.077551 0
24.345000 -0.087937 0
24.350000 -0.096326 0
24.355000 -0.102966 0
24.360000 -0.108101 0
24.365000 -0.111966 0
24.370000 -0.114777 0
24.375000 -0.116308 0
24.380000 -0.115380 0
24.385000 -0.114458 0
24.390000 -0.113539 0
24.395000 -0.112625 0
24.400000 -0.111713 0
24.405000 -0.110804 0
24.410000 -0.109893 0
24.415000 -0.108975 0
24.420000 -0.108039 0
24.425000 -0.107067 0
24.430000 -0.106026 0
24.435000 -0.104863 0
24.440000 -0.103491 0
24.445000 -0.101779 0
24.450000 -0.099536 0
24.455000 -0.096493 0
24.460000 -0.092291 0
24.465000 -0.086479 0
24.470000 -0.078520 0
24.475000 -0.067828 0
24.480000 -0.053821 0
24.485000 -0.036007 0
24.490000 -0.014092 0
24.495000 0.011906 0
24.500000 0.041551 0
24.505000 0.073917 0
24.510000 0.107578 0
24.515000 0.140675 0
24.520000 0.171061 0
24.525000 0.196525 0
24.530000 0.215055 0
24.535000 0.225096 0
24.540000 0.225767 1
24.545000 0.216990 0
24.550000 0.199502 0
24.555000 0.174752 0
24.560000 0.144700 0
24.565000 0.111533 0
24.570000 0.077311 0
24.575000 0.043431 0
24.580000 0.009815 0
24.585000 -0.026053 0
24.590000 -0.069154 0
24.595000 -0.124068 0
24.600000 -0.188462 0
24.605000 -0.246535 0
24.610000 -0.268741 2
24.615000 -0.219474 0
24.620000 -0.067910 0
24.625000 0.198959 0
24.630000 0.555309 0
24.635000 0.916463 0
24.640000 1.154070 0
24.645000 1.163369 3
24.650000 0.935707 0
24.655000 0.564014 0
24.660000 0.177061 0
24.665000 -0.128335 0
24.670000 -0.309992 0
24.675000 -0.368499 4
24.680000 -0.331970 0
24.685000 -0.243732 0
24.690000 -0.146105 0
24.695000 -0.065113 0
24.700000 -0.006799 0
24.705000 0.034987 0
24.710000 0.068754 0
24.715000 0.100262 0
24.720000 0.132053 0
24.725000 0.164707 0
24.730000 0.197923 0
24.735000 0.231062 0
24.740000 0.263343 0
24.745000 0.293923 0
24.750000 0.321942 0
24.755000 0.346559 0
24.760000 0.366998 0
24.765000 0.382584 0
24.770000 0.392784 0
24.775000 0.397231 5
24.780000 0.395751 0
24.785000 0.388366 0
24.790000 0.375302 0
24.795000 0.356970 0
24.800000 0.333946 0
24.805000 0.306943 0
24.810000 0.276770 0
24.815000 0.244293 0
24.820000 0.210394 0
24.825000 0.175931 0
24.830000 0.141705 0
24.835000 0.108428 0
24.840000 0.076704 0
24.845000 0.047017 0
24.850000 0.019722 0
24.855000 -0.004948 0
24.860000 -0.026876 0
24.865000 -0.046049 0
24.870000 -0.062538 0
24.875000 -0.076487 0
24.880000 -0.088086 0
24.885000 -0.097559 0
24.890000 -0.105148 0
24.895000 -0.111100 0
24.900000 -0.115654 0
24.905000 -0.119033 0
24.910000 -0.121445 0
24.915000 -0.120980 0
24.920000 -0.120029 0
24.925000 -0.119083 0
24.930000 -0.118141 0
24.935000 -0.117204 0
24.940000 -0.116269 0
24.945000 -0.115335 0
24.950000 -0.114398 0
24.955000 -0.113451 0
24.960000 -0.112481 0
24.965000 -0.111465 0
24.970000 -0.110365 0
24.975000 -0.109118 0
24.980000 -0.107625 0
24.985000 -0.105737 0
24.990000 -0.103241 0
24.995000 -0.099841 0
25.000000 -0.095153 0
25.005000 -0.088700 0
25.010000 -0.079930 0
25.015000 -0.068257 0
25.020000 -0.053121 0
25.025000 -0.034083 0
25.030000 -0.010930 0
25.035000 0.016207 0
25.040000 0.046761 0
25.045000 0.079673 0
25.050000 0.113397 0
25.055000 0.145997 0
25.060000 0.175303 0
25.065000 0.199152 0
25.070000 0.215643 0
25.075000 0.223390 1
25.080000 0.221713 0
25.085000 0.210737 0
25.090000 0.191379 0
25.095000 0.165216 0
25.100000 0.134269 0
25.105000 0.100716 0
25.110000 0.066501 0
25.115000 0.032772 0
25.120000 -0.000995 0
25.125000 -0.037868 0
25.130000 -0.083067 0
25.135000 -0.140362 0
25.140000 -0.205228 0
25.145000 -0.259144 0
25.150000 -0.270945 2
25.155000 -0.205392 0
25.160000 -0.033975 0
25.165000 0.251286 0
25.170000 0.615925 0
25.175000 0.966424 0
25.180000 1.173765 3
25.185000 1.144943 0
25.190000 0.887953 0
25.195000 0.505839 0
25.200000 0.126465 0
25.205000 -0.161231 0
25.210000 -0.322727 0
25.215000 -0.363795 4
25.220000 -0.315920 0
25.225000 -0.223609 0
25.230000 -0.127503 0
25.235000 -0.050311 0
25.240000 0.004640 0
25.245000 0.044510 0
25.250000 0.077570 0
25.255000 0.109001 0
25.260000 0.140919 0
25.265000 0.173691 0
25.270000 0.206929 0
25.275000 0.239959 0
25.280000 0.271983 0
25.285000 0.302149 0
25.290000 0.329593 0
25.295000 0.353481 0
25.300000 0.373050 0
25.305000 0.387648 0
25.310000 0.396768 0
25.315000 0.400078 5
25.320000 0.397439 0
25.325000 0.388915 0
25.330000 0.374768 0
25.335000 0.355446 0
25.340000 0.331556 0
25.345000 0.303836 0
25.350000 0.273112 0
25.355000 0.240259 0
25.360000 0.206162 0
25.365000 0.171671 0
25.370000 0.137573 0
25.375000 0.104562 0
25.380000 0.073219 0
25.385000 0.044002 0
25.390000 0.017241 0
25.395000 -0.006855 0
25.400000 -0.028194 0
25.405000 -0.046783 0
25.410000 -0.062710 0
25.415000 -0.076131 0
25.420000 -0.087247 0
25.425000 -0.096287 0
25.430000 -0.103497 0
25.435000 -0.109122 0
25.440000 -0.113400 0
25.445000 -0.116552 0
25.450000 -0.118778 0
25.455000 -0.118297 0
25.460000 -0.117360 0
25.465000 -0.116427 0
25.470000 -0.115499 0
25.475000 -0.114574 0
25.480000 -0.113651 0
25.485000 -0.112729 0
25.490000 -0.111802 0
25.495000 -0.110863 0
25.500000 -0.109896 0
25.505000 -0.108875 0
25.510000 -0.107756 0
25.515000 -0.106468 0
25.520000 -0.104901 0
25.525000 -0.102891 0
25.530000 -0.100202 0
25.535000 -0.096516 0
25.540000 -0.091422 0
25.545000 -0.084420 0
25.550000 -0.074943 0
25.555000 -0.062400 0
25.560000 -0.046254 0
25.565000 -0.026114 0
25.570000 -0.001850 0
25.575000 0.026296 0
25.580000 0.057622 0
25.585000 0.090925 0
25.590000 0.124534 0
25.595000 0.156420 0
25.600000 0.184382 0
25.605000 0.206298 0
25.610000 0.220385 0
25.615000 0.225438 1
25.620000 0.221004 0
25.625000 0.207446 0
25.630000 0.185894 0
25.635000 0.158088 0
25.640000 0.126134 0
25.645000 0.092194 0
25.650000 0.058053 0
25.655000 0.024461 0
25.660000 -0.009805 0
25.665000 -0.048635 0
25.670000 -0.097386 0
25.675000 -0.158090 0
25.680000 -0.222249 0
25.685000 -0.266795 2
25.690000 -0.258070 0
25.695000 -0.161645 0
25.700000 0.046428 0
25.705000 0.363359 0
25.710000 0.736337 0
25.715000 1.054871 0
25.720000 1.192087 3
25.725000 1.081335 0
25.730000 0.765577 0
25.735000 0.370829 0
25.740000 0.020439 0
25.745000 -0.215897 0
25.750000 -0.321886 4
25.755000 -0.316885 0
25.760000 -0.241907 0
25.765000 -0.143720 0
25.770000 -0.056341 0
25.775000 0.007923 0
25.780000 0.052994 0
25.785000 0.087867 0
25.790000 0.119423 0
25.795000 0.150954 0
25.800000 0.183353 0
25.805000 0.216408 0
25.810000 0.249480 0
25.815000 0.281765 0
25.820000 0.312383 0
25.825000 0.340430 0
25.830000 0.365024 0
25.835000 0.385349 0
25.840000 0.400699 0
25.845000 0.410519 0
25.850000 0.414433 5
25.855000 0.412274 0
25.860000 0.404086 0
25.865000 0.390129 0
25.870000 0.370861 0
25.875000 0.346912 0
25.880000 0.319052 0
25.885000 0.288144 0
25.890000 0.255104 0
25.895000 0.220854 0
25.900000 0.186279 0
25.905000 0.152191 0
25.910000 0.119301 0
25.915000 0.088197 0
25.920000 0.059335 0
25.925000 0.033036 0
25.930000 0.009488 0
25.935000 -0.011236 0
25.940000 -0.029168 0
25.945000 -0.044422 0
25.950000 -0.057176 0
25.955000 -0.067651 0
25.960000 -0.076096 0
25.965000 -0.082767 0
25.970000 -0.087918 0
25.975000 -0.091791 0
25.980000 -0.094608 0
25.985000 -0.096163 0
25.990000 -0.095336 0
25.995000 -0.094514 0
26.000000 -0.093694 0
26.005000 -0.092879 0
26.010000 -0.092065 0
26.015000 -0.091253 0
26.020000 -0.090437 0
26.025000 -0.089611 0
26.030000 -0.088763 0
26.035000 -0.087868 0
26.040000 -0.086888 0
26.045000 -0.085756 0
26.050000 -0.084370 0
26.055000 -0.082571 0
26.060000 -0.080130 0
26.065000 -0.076732 0
26.070000 -0.071963 0
26.075000 -0.065311 0
26.080000 -0.056191 0
26.085000 -0.043986 0
26.090000 -0.028127 0
26.095000 -0.008195 0
26.100000 0.015955 0
26.105000 0.044071 0
26.110000 0.075413 0
26.115000 0.108705 0
26.120000 0.142174 0
26.125000 0.173676 0
26.130000 0.200912 0
26.135000 0.221694 0
26.140000 0.234234 0
26.145000 0.237399 1
26.150000 0.230878 0
26.155000 0.215230 0
26.160000 0.191803 0
26.165000 0.162542 0
26.170000 0.129697 0
26.175000 0.095459 0
26.180000 0.061428 0
26.185000 0.027782 0
26.190000 -0.007766 0
26.195000 -0.050201 0
26.200000 -0.104478 0
26.205000 -0.168763 0
26.210000 -0.227242 0
26.215000 -0.249485 2
26.220000 -0.198561 0
26.225000 -0.042720 0
26.230000 0.230368 0
26.235000 0.590684 0
26.240000 0.945629 0
26.245000 1.160928 3
26.250000 1.136817 0
26.255000 0.880085 0
26.260000 0.497153 0
26.265000 0.119989 0
26.270000 -0.161301 0
26.275000 -0.313575 0
26.280000 -0.345109 4
26.285000 -0.290296 0
26.290000 -0.195660 0
26.295000 -0.101504 0
26.300000 -0.028197 0
26.305000 0.023305 0
26.310000 0.061188 0
26.315000 0.093536 0
26.320000 0.124938 0
26.325000 0.157041 0
26.330000 0.189959 0
26.335000 0.223179 0
26.340000 0.255956 0
26.345000 0.287438 0
26.350000 0.316734 0
26.355000 0.342955 0
26.360000 0.365257 0
26.365000 0.382889 0
26.370000 0.395229 0
26.375000 0.401825 0
26.380000 0.402419 5
26.385000 0.396960 0
26.390000 0.385613 0
26.395000 0.368745 0
26.400000 0.346910 0
26.405000 0.320811 0
26.410000 0.291269 0
26.415000 0.259173 0
26.420000 0.225441 0
26.425000 0.190973 0
26.430000 0.156615 0
26.435000 0.123121 0
26.440000 0.091139 0
26.445000 0.061184 0
26.450000 0.033641 0
26.455000 0.008760 0
26.460000 -0.013329 0
26.465000 -0.032610 0
26.470000 -0.049155 0
26.475000 -0.063113 0
26.480000 -0.074682 0
26.485000 -0.084098 0
26.490000 -0.091611 0
26.495000 -0.097478 0
26.500000 -0.101946 0
26.505000 -0.105246 0
26.510000 -0.107588 0
26.515000 -0.107171 0
26.520000 -0.106289 0
26.525000 -0.105411 0
26.530000 -0.104537 0
26.535000 -0.103667 0
26.540000 -0.102799 0
26.545000 -0.101930 0
26.550000 -0.101056 0
26.555000 -0.100168 0
26.560000 -0.099250 0
26.565000 -0.098271 0
26.570000 -0.097185 0
26.575000 -0.095912 0
26.580000 -0.094328 0
26.585000 -0.092253 0
26.590000 -0.089425 0
26.595000 -0.085493 0
26.600000 -0.080009 0
26.605000 -0.072433 0
26.610000 -0.062164 0
26.615000 -0.048597 0
26.620000 -0.031212 0
26.625000 -0.009678 0
26.630000 0.016017 0
26.635000 0.045457 0
26.640000 0.077714 0
26.645000 0.111340 0
26.650000 0.144426 0
26.655000 0.174765 0
26.660000 0.200078 0
26.665000 0.218300 0
26.670000 0.227850 0
26.675000 0.227863 1
26.680000 0.218315 0
26.685000 0.200029 0
26.690000 0.174561 0
26.695000 0.143971 0
26.700000 0.110519 0
26.705000 0.076263 0
26.710000 0.042467 0
26.715000 0.008674 0
26.720000 -0.028248 0
26.725000 -0.073706 0
26.730000 -0.131499 0
26.735000 -0.196411 0
26.740000 -0.248298 0
26.745000 -0.254079 2
26.750000 -0.177331 0
26.755000 0.009909 0
26.760000 0.311276 0
26.765000 0.681704 0
26.770000 1.014080 0
26.775000 1.175197 3
26.780000 1.088694 0
26.785000 0.790651 0
26.790000 0.398342 0
26.795000 0.035567 0
26.800000 -0.221733 0
26.805000 -0.350571 0
26.810000 -0.364582 4
26.815000 -0.300359 0
26.820000 -0.203565 0
26.825000 -0.111295 0
26.830000 -0.040632 0
26.835000 0.009136 0
26.840000 0.046324 0
26.845000 0.078567 0
26.850000 0.110070 0
26.855000 0.142302 0
26.860000 0.175321 0
26.865000 0.208619 0
26.870000 0.241461 0
26.875000 0.273020 0
26.880000 0.302428 0
26.885000 0.328816 0
26.890000 0.351363 0
26.895000 0.369331 0
26.900000 0.382109 0
26.905000 0.389243 0
26.910000 0.390465 5
26.915000 0.385709 0
26.920000 0.375112 0
26.925000 0.359011 0
26.930000 0.337922 0
26.935000 0.312511 0
26.940000 0.283563 0
26.945000 0.251937 0
26.950000 0.218524 0
26.955000 0.184209 0
26.960000 0.149828 0
26.965000 0.116140 0
26.970000 0.083801 0
26.975000 0.053347 0
26.980000 0.025185 0
26.985000 -0.000404 0
26.990000 -0.023263 0
26.995000 -0.043343 0
27.000000 -0.060690 0
27.005000 -0.075427 0
27.010000 -0.087733 0
27.015000 -0.097827 0
27.020000 -0.105949 0
27.025000 -0.112349 0
27.030000 -0.117271 0
27.035000 -0.120950 0
27.040000 -0.123597 0
27.045000 -0.125001 0
27.050000 -0.124031 0
27.055000 -0.123065 0
27.060000 -0.122103 0
27.065000 -0.121146 0
27.070000 -0.120192 0
27.075000 -0.119239 0
27.080000 -0.118285 0
27.085000 -0.117323 0
27.090000 -0.116341 0
27.095000 -0.115319 0
27.100000 -0.114222 0
27.105000 -0.112991 0
27.110000 -0.111535 0
27.115000 -0.109714 0
27.120000 -0.107323 0
27.125000 -0.104079 0
27.130000 -0.099609 0
27.135000 -0.093442 0
27.140000 -0.085030 0
27.145000 -0.073779 0
27.150000 -0.059116 0
27.155000 -0.040571 0
27.160000 -0.017894 0
27.165000 0.008830 0
27.170000 0.039080 0
27.175000 0.071838 0
27.180000 0.105586 0
27.185000 0.138392 0
27.190000 0.168071 0
27.195000 0.192421 0
27.200000 0.209487 0
27.205000 0.217823 1
27.210000 0.216692 0
27.215000 0.206176 0
27.220000 0.187165 0
27.225000 0.161233 0
27.230000 0.130418 0
27.235000 0.096923 0
27.240000 0.062729 0
27.245000 0.029014 0
27.250000 -0.004733 0
27.255000 -0.041616 0
27.260000 -0.086922 0
27.265000 -0.144408 0
27.270000 -0.209265 0
27.275000 -0.262370 0
27.280000 -0.271881 2
27.285000 -0.202165 0
27.290000 -0.024925 0
27.295000 0.266315 0
27.300000 0.633432 0
27.305000 0.978123 0
27.310000 1.169637 3
27.315000 1.119665 0
27.320000 0.845446 0
27.325000 0.458010 0
27.330000 0.085925 0
27.335000 -0.186564 0
27.340000 -0.330390 0
27.345000 -0.355790 4
27.350000 -0.297777 0
27.355000 -0.202372 0
27.360000 -0.108673 0
27.365000 -0.035983 0
27.370000 0.015187 0
27.375000 0.052989 0
27.380000 0.085361 0
27.385000 0.116802 0
27.390000 0.148937 0
27.395000 0.181882 0
27.400000 0.215141 0
27.405000 0.247978 0
27.410000 0.279561 0
27.415000 0.309009 0
27.420000 0.335446 0
27.425000 0.358037 0
27.430000 0.376034 0
27.435000 0.388817 0
27.440000 0.395927 0
27.445000 0.397091 5
27.450000 0.392242 0
27.455000 0.381522 0
27.460000 0.365274 0
27.465000 0.344024 0
27.470000 0.318449 0
27.475000 0.289345 0
27.480000 0.257585 0
27.485000 0.224070 0
27.490000 0.189692 0
27.495000 0.155295 0
27.500000 0.121641 0
27.505000 0.089385 0
27.510000 0.059059 0
27.515000 0.031067 0
27.520000 0.005680 0
27.525000 -0.016952 0
27.530000 -0.036790 0
27.535000 -0.053891 0
27.540000 -0.068383 0
27.545000 -0.080455 0
27.550000 -0.090330 0
27.555000 -0.098255 0
27.560000 -0.104481 0
27.565000 -0.109255 0
27.570000 -0.112810 0
27.575000 -0.115359 0
27.580000 -0.116705 0
27.585000 -0.115776 0
27.590000 -0.114851 0
27.595000 -0.113930 0
27.600000 -0.113013 0
27.605000 -0.112099 0
27.610000 -0.111186 0
27.615000 -0.110270 0
27.620000 -0.109344 0
27.625000 -0.108395 0
27.630000 -0.107399 0
27.635000 -0.106316 0
27.640000 -0.105081 0
27.645000 -0.103591 0
27.650000 -0.101691 0
27.655000 -0.099157 0
27.660000 -0.095679 0
27.665000 -0.090854 0
27.670000 -0.084185 0
27.675000 -0.075100 0
27.680000 -0.062998 0
27.685000 -0.047314 0
27.690000 -0.027628 0
27.695000 -0.003770 0
27.700000 0.024053 0
27.705000 0.055168 0
27.710000 0.088387 0
27.715000 0.122031 0
27.720000 0.154044 0
27.725000 0.182182 0
27.730000 0.204269 0
27.735000 0.218472 0
27.740000 0.223553 1
27.745000 0.219047 0
27.750000 0.205330 0
27.755000 0.183570 0
27.760000 0.155559 0
27.765000 0.123458 0
27.770000 0.089464 0
27.775000 0.055357 0
27.780000 0.021789 0
27.785000 -0.012708 0
27.790000 -0.052346 0
27.795000 -0.102525 0
27.800000 -0.164431 0
27.805000 -0.227569 0
27.810000 -0.266460 2
27.815000 -0.245933 0
27.820000 -0.131738 0
27.825000 0.097336 0
27.830000 0.430927 0
27.835000 0.803232 0
27.840000 1.092858 0
27.845000 1.177023 3
27.850000 1.013603 0
27.855000 0.671273 0
27.860000 0.276465 0
27.865000 -0.059746 0
27.870000 -0.279367 0
27.875000 -0.372186 4
27.880000 -0.359483 0
27.885000 -0.281603 0
27.890000 -0.183060 0
27.895000 -0.095712 0
27.900000 -0.031022 0
27.905000 0.014714 0
27.910000 0.050110 0
27.915000 0.081936 0
27.920000 0.113570 0
27.925000 0.146025 0
27.930000 0.179180 0
27.935000 0.212463 0
27.940000 0.245121 0
27.945000 0.276326 0
27.950000 0.305216 0
27.955000 0.330940 0
27.960000 0.352698 0
27.965000 0.369782 0
27.970000 0.381615 0
27.975000 0.387779 0
27.980000 0.388042 5
27.985000 0.382371 0
27.990000 0.370933 0
27.995000 0.354090 0
28.000000 0.332374 0
28.005000 0.306464 0
28.010000 0.277144 0
28.015000 0.245271 0
28.020000 0.211726 0
28.025000 0.177380 0
28.030000 0.143052 0
28.035000 0.109484 0
28.040000 0.077310 0
28.045000 0.047051 0
28.050000 0.019099 0
28.055000 -0.006281 0
28.060000 -0.028940 0
28.065000 -0.048836 0
28.070000 -0.066021 0
28.075000 -0.080619 0
28.080000 -0.092809 0
28.085000 -0.102808 0
28.090000 -0.110856 0
28.095000 -0.117197 0
28.100000 -0.122075 0
28.105000 -0.125718 0
28.110000 -0.128339 0
28.115000 -0.129721 0
28.120000 -0.128727 0
28.125000 -0.127737 0
28.130000 -0.126752 0
28.135000 -0.125772 0
28.140000 -0.124795 0
28.145000 -0.123819 0
28.150000 -0.122843 0
28.155000 -0.121859 0
28.160000 -0.120856 0
28.165000 -0.119815 0
28.170000 -0.118703 0
28.175000 -0.117463 0
28.180000 -0.116009 0
28.185000 -0.114205 0
28.190000 -0.111857 0
28.195000 -0.108694 0
28.200000 -0.104354 0
28.205000 -0.098384 0
28.210000 -0.090249 0
28.215000 -0.079366 0
28.220000 -0.065160 0
28.225000 -0.047149 0
28.230000 -0.025050 0
28.235000 0.001109 0
28.240000 0.030882 0
28.245000 0.063341 0
28.250000 0.097064 0
28.255000 0.130200 0
28.260000 0.160620 0
28.265000 0.186133 0
28.270000 0.204740 0
28.275000 0.214900 0
28.280000 0.215734 1
28.285000 0.207153 0
28.290000 0.189878 0
28.295000 0.165333 0
28.300000 0.135451 0
28.305000 0.102403 0
28.310000 0.068239 0
28.315000 0.034386 0
28.320000 0.000844 0
28.325000 -0.034755 0
28.330000 -0.077270 0
28.335000 -0.131407 0
28.340000 -0.195463 0
28.345000 -0.254698 0
28.350000 -0.280542 2
28.355000 -0.237755 0
28.360000 -0.095018 0
28.365000 0.162611 0
28.370000 0.513697 0
28.375000 0.879516 0
28.380000 1.134563 0
28.385000 1.169010 3
28.390000 0.963826 0
28.395000 0.602859 0
28.400000 0.210945 0
