0.000000 1.151033 3
0.005000 1.051396 0
0.010000 0.799312 0
0.015000 0.469648 0
0.020000 0.143900 0
0.025000 -0.119618 0
0.030000 -0.293619 0
0.035000 -0.375377 0
0.040000 -0.378843 4
0.045000 -0.328946 0
0.050000 -0.254775 0
0.055000 -0.180982 0
0.060000 -0.121555 0
0.065000 -0.079396 0
0.070000 -0.050546 0
0.075000 -0.029187 0
0.080000 -0.010669 0
0.085000 0.007747 0
0.090000 0.027329 0
0.095000 0.048528 0
0.100000 0.071412 0
0.105000 0.095873 0
0.110000 0.121708 0
0.115000 0.148637 0
0.120000 0.176310 0
0.125000 0.204318 0
0.130000 0.232196 0
0.135000 0.259436 0
0.140000 0.285503 0
0.145000 0.309847 0
0.150000 0.331927 0
0.155000 0.351228 0
0.160000 0.367279 0
0.165000 0.379676 0
0.170000 0.388093 0
0.175000 0.392303 5
0.180000 0.392179 0
0.185000 0.387708 0
0.190000 0.378987 0
0.195000 0.366222 0
0.200000 0.349716 0
0.205000 0.329862 0
0.210000 0.307121 0
0.215000 0.282009 0
0.220000 0.255077 0
0.225000 0.226886 0
0.230000 0.197995 0
0.235000 0.168937 0
0.240000 0.140205 0
0.245000 0.112243 0
0.250000 0.085430 0
0.255000 0.060080 0
0.260000 0.036437 0
0.265000 0.014674 0
0.270000 -0.005102 0
0.275000 -0.022846 0
0.280000 -0.038565 0
0.285000 -0.052315 0
0.290000 -0.064187 0
0.295000 -0.074301 0
0.300000 -0.082797 0
0.305000 -0.089826 0
0.310000 -0.095546 0
0.315000 -0.100114 0
0.320000 -0.103682 0
0.325000 -0.106392 0
0.330000 -0.108376 0
0.335000 -0.109753 0
0.340000 -0.110629 0
0.345000 -0.111096 0
0.350000 -0.111233 0
0.355000 -0.111107 0
0.360000 -0.110678 0
0.365000 -0.109686 0
0.370000 -0.108700 0
0.375000 -0.107718 0
0.380000 -0.106742 0
0.385000 -0.105770 0
0.390000 -0.104803 0
0.395000 -0.103841 0
0.400000 -0.102883 0
0.405000 -0.101931 0
0.410000 -0.100983 0
0.415000 -0.100039 0
0.420000 -0.099100 0
0.425000 -0.098164 0
0.430000 -0.097232 0
0.435000 -0.096301 0
0.440000 -0.095369 0
0.445000 -0.094432 0
0.450000 -0.093481 0
0.455000 -0.092505 0
0.460000 -0.091484 0
0.465000 -0.090386 0
0.470000 -0.089165 0
0.475000 -0.087752 0
0.480000 -0.086051 0
0.485000 -0.083928 0
0.490000 -0.081206 0
0.495000 -0.077658 0
0.500000 -0.073006 0
0.505000 -0.066926 0
0.510000 -0.059056 0
0.515000 -0.049021 0
0.520000 -0.036467 0
0.525000 -0.021104 0
0.530000 -0.002757 0
0.535000 0.018577 0
0.540000 0.042679 0
0.545000 0.069069 0
0.550000 0.096992 0
0.555000 0.125427 0
0.560000 0.153141 0
0.565000 0.178762 0
0.570000 0.200891 0
0.575000 0.218229 0
0.580000 0.229699 0
0.585000 0.234558 1
0.590000 0.232477 0
0.595000 0.223581 0
0.600000 0.208429 0
0.605000 0.187965 0
0.610000 0.163415 0
0.615000 0.136166 0
0.620000 0.107638 0
0.625000 0.079149 0
0.630000 0.051782 0
0.635000 0.026208 0
0.640000 0.002411 0
0.645000 -0.020715 0
0.650000 -0.045720 0
0.655000 -0.076348 0
0.660000 -0.115916 0
0.665000 -0.164138 0
0.670000 -0.213689 0
0.675000 -0.248977 2
0.680000 -0.248556 0
0.685000 -0.189960 0
0.690000 -0.054926 0
0.695000 0.164113 0
0.700000 0.453656 0
0.705000 0.768247 0
0.710000 1.031981 0
0.715000 1.163352 3
0.720000 1.114647 0
0.725000 0.898910 0
0.730000 0.582169 0
0.735000 0.248087 0
0.740000 -0.036690 0
0.745000 -0.236524 0
0.750000 -0.342804 0
0.755000 -0.365561 4
0.760000 -0.327361 0
0.765000 -0.257064 0
0.770000 -0.181389 0
0.775000 -0.117531 0
0.780000 -0.071080 0
0.785000 -0.039367 0
0.790000 -0.016655 0
0.795000 0.002179 0
0.800000 0.020365 0
0.805000 0.039492 0
0.810000 0.060172 0
0.815000 0.082543 0
0.820000 0.106533 0
0.825000 0.131959 0
0.830000 0.158558 0
0.835000 0.185997 0
0.840000 0.213880 0
0.845000 0.241754 0
0.850000 0.269119 0
0.855000 0.295442 0
0.860000 0.320177 0
0.865000 0.342775 0
0.870000 0.362713 0
0.875000 0.379505 0
0.880000 0.392728 0
0.885000 0.402037 0
0.890000 0.407178 0
0.895000 0.408000 5
0.900000 0.404463 0
0.905000 0.396638 0
0.910000 0.384706 0
0.915000 0.368951 0
0.920000 0.349746 0
0.925000 0.327541 0
0.930000 0.302842 0
0.935000 0.276194 0
0.940000 0.248161 0
0.945000 0.219303 0
0.950000 0.190163 0
0.955000 0.161246 0
0.960000 0.133008 0
0.965000 0.105844 0
0.970000 0.080083 0
0.975000 0.055986 0
0.980000 0.033739 0
0.985000 0.013465 0
0.990000 -0.004778 0
0.995000 -0.020988 0
1.000000 -0.035212 0
1.005000 -0.047533 0
1.010000 -0.058066 0
1.015000 -0.066949 0
1.020000 -0.074333 0
1.025000 -0.080373 0
1.030000 -0.085229 0
1.035000 -0.089052 0
1.040000 -0.091990 0
1.045000 -0.094175 0
1.050000 -0.095730 0
1.055000 -0.096764 0
1.060000 -0.097370 0
1.065000 -0.097632 0
1.070000 -0.097619 0
1.075000 -0.097288 0
1.080000 -0.096363 0
1.085000 -0.095443 0
1.090000 -0.094527 0
1.095000 -0.093616 0
1.100000 -0.092710 0
1.105000 -0.091808 0
1.110000 -0.090911 0
1.115000 -0.090018 0
1.120000 -0.089130 0
1.125000 -0.088245 0
1.130000 -0.087365 0
1.135000 -0.086489 0
1.140000 -0.085617 0
1.145000 -0.084748 0
1.150000 -0.083880 0
1.155000 -0.083011 0
1.160000 -0.082137 0
1.165000 -0.081252 0
1.170000 -0.080343 0
1.175000 -0.079391 0
1.180000 -0.078370 0
1.185000 -0.077233 0
1.190000 -0.075916 0
1.195000 -0.074328 0
1.200000 -0.072340 0
1.205000 -0.069782 0
1.210000 -0.066434 0
1.215000 -0.062026 0
1.220000 -0.056238 0
1.225000 -0.048712 0
1.230000 -0.039073 0
1.235000 -0.026961 0
1.240000 -0.012070 0
1.245000 0.005793 0
1.250000 0.026659 0
1.255000 0.050343 0
1.260000 0.076402 0
1.265000 0.104115 0
1.270000 0.132495 0
1.275000 0.160328 0
1.280000 0.186253 0
1.285000 0.208863 0
1.290000 0.226836 0
1.295000 0.239055 0
1.300000 0.244727 1
1.305000 0.243469 0
1.310000 0.235346 0
1.315000 0.220868 0
1.320000 0.200938 0
1.325000 0.176756 0
1.330000 0.149703 0
1.335000 0.121203 0
1.340000 0.092597 0
1.345000 0.065006 0
1.350000 0.039162 0
1.355000 0.015146 0
1.360000 -0.008008 0
1.365000 -0.032689 0
1.370000 -0.062569 0
1.375000 -0.101151 0
1.380000 -0.148710 0
1.385000 -0.198764 0
1.390000 -0.236494 0
1.395000 -0.240799 2
1.400000 -0.189019 0
1.405000 -0.062173 0
1.410000 0.148777 0
1.415000 0.432898 0
1.420000 0.747952 0
1.425000 1.020046 0
1.430000 1.166372 3
1.435000 1.134145 0
1.440000 0.930162 0
1.445000 0.618064 0
1.450000 0.282709 0
1.455000 -0.006437 0
1.460000 -0.211301 0
1.465000 -0.321893 0
1.470000 -0.347653 4
1.475000 -0.311069 0
1.480000 -0.241319 0
1.485000 -0.165653 0
1.490000 -0.101713 0
1.495000 -0.055287 0
1.500000 -0.023698 0
1.505000 -0.001129 0
1.510000 0.017596 0
1.515000 0.035718 0
1.520000 0.054817 0
1.525000 0.075491 0
1.530000 0.097870 0
1.535000 0.121874 0
1.540000 0.147311 0
1.545000 0.173912 0
1.550000 0.201333 0
1.555000 0.229168 0
1.560000 0.256953 0
1.565000 0.284177 0
1.570000 0.310299 0
1.575000 0.334761 0
1.580000 0.357010 0
1.585000 0.376518 0
1.590000 0.392799 0
1.595000 0.405435 0
1.600000 0.414086 0
1.605000 0.418509 0
1.610000 0.418569 5
1.615000 0.414243 0
1.620000 0.405622 0
1.625000 0.392909 0
1.630000 0.376410 0
1.635000 0.356518 0
1.640000 0.333702 0
1.645000 0.308487 0
1.650000 0.281430 0
1.655000 0.253103 0
1.660000 0.224075 0
1.665000 0.194885 0
1.670000 0.166037 0
1.675000 0.137978 0
1.680000 0.111093 0
1.685000 0.085698 0
1.690000 0.062036 0
1.695000 0.040278 0
1.700000 0.020530 0
1.705000 0.002833 0
1.710000 -0.012826 0
1.715000 -0.026507 0
1.720000 -0.038306 0
1.725000 -0.048347 0
1.730000 -0.056775 0
1.735000 -0.063746 0
1.740000 -0.069419 0
1.745000 -0.073953 0
1.750000 -0.077503 0
1.755000 -0.080210 0
1.760000 -0.082206 0
1.765000 -0.083612 0
1.770000 -0.084530 0
1.775000 -0.085052 0
1.780000 -0.085257 0
1.785000 -0.085209 0
1.790000 -0.084463 0
1.795000 -0.083602 0
1.800000 -0.082746 0
1.805000 -0.081893 0
1.810000 -0.081046 0
1.815000 -0.080202 0
1.820000 -0.079362 0
1.825000 -0.078527 0
1.830000 -0.077696 0
1.835000 -0.076869 0
1.840000 -0.076046 0
1.845000 -0.075227 0
1.850000 -0.074411 0
1.855000 -0.073598 0
1.860000 -0.072787 0
1.865000 -0.071977 0
1.870000 -0.071163 0
1.875000 -0.070341 0
1.880000 -0.069500 0
1.885000 -0.068627 0
1.890000 -0.067696 0
1.895000 -0.066670 0
1.900000 -0.065494 0
1.905000 -0.064086 0
1.910000 -0.062333 0
1.915000 -0.060080 0
1.920000 -0.057125 0
1.925000 -0.053213 0
1.930000 -0.048040 0
1.935000 -0.041254 0
1.940000 -0.032478 0
1.945000 -0.021336 0
1.950000 -0.007494 0
1.955000 0.009290 0
1.960000 0.029112 0
1.965000 0.051861 0
1.970000 0.077177 0
1.975000 0.104420 0
1.980000 0.132671 0
1.985000 0.160761 0
1.990000 0.187344 0
1.995000 0.210996 0
2.000000 0.230336 0
2.005000 0.244161 0
2.010000 0.251570 0
2.015000 0.252057 1
2.020000 0.245569 0
2.025000 0.232517 0
2.030000 0.213727 0
2.035000 0.190354 0
2.040000 0.163770 0
2.045000 0.135420 0
2.050000 0.106694 0
2.055000 0.078787 0
2.060000 0.052536 0
2.065000 0.028175 0
2.070000 0.004954 0
2.075000 -0.019284 0
2.080000 -0.048098 0
2.085000 -0.085236 0
2.090000 -0.131726 0
2.095000 -0.182179 0
2.100000 -0.222714 0
2.105000 -0.232541 2
2.110000 -0.188586 0
2.115000 -0.070873 0
2.120000 0.131300 0
2.125000 0.409529 0
2.130000 0.724372 0
2.135000 1.003241 0
2.140000 1.161524 3
2.145000 1.142600 0
2.150000 0.949559 0
2.155000 0.642652 0
2.160000 0.306251 0
2.165000 0.011615 0
2.170000 -0.200810 0
2.175000 -0.319130 0
2.180000 -0.351411 4
2.185000 -0.319155 0
2.190000 -0.251158 0
2.195000 -0.175099 0
2.200000 -0.109623 0
2.205000 -0.061525 0
2.210000 -0.028713 0
2.215000 -0.005490 0
2.220000 0.013457 0
2.225000 0.031556 0
2.230000 0.050521 0
2.235000 0.071023 0
2.240000 0.093226 0
2.245000 0.117064 0
2.250000 0.142360 0
2.255000 0.168850 0
2.260000 0.196203 0
2.265000 0.224021 0
2.270000 0.251847 0
2.275000 0.279179 0
2.280000 0.305480 0
2.285000 0.330195 0
2.290000 0.352774 0
2.295000 0.372683 0
2.300000 0.389435 0
2.305000 0.402601 0
2.310000 0.411832 0
2.315000 0.416872 0
2.320000 0.417569 5
2.325000 0.413886 0
2.330000 0.405897 0
2.335000 0.393787 0
2.340000 0.377847 0
2.345000 0.358456 0
2.350000 0.336070 0
2.355000 0.311205 0
2.360000 0.284412 0
2.365000 0.256260 0
2.370000 0.227317 0
2.375000 0.198126 0
2.380000 0.169195 0
2.385000 0.140981 0
2.390000 0.113878 0
2.395000 0.088211 0
2.400000 0.064237 0
2.405000 0.042138 0
2.410000 0.022031 0
2.415000 0.003968 0
2.420000 -0.012056 0
2.425000 -0.026091 0
2.430000 -0.038227 0
2.435000 -0.048584 0
2.440000 -0.057302 0
2.445000 -0.064535 0
2.450000 -0.070442 0
2.455000 -0.075181 0
2.460000 -0.078907 0
2.465000 -0.081764 0
2.470000 -0.083887 0
2.475000 -0.085396 0
2.480000 -0.086398 0
2.485000 -0.086988 0
2.490000 -0.087244 0
2.495000 -0.087236 0
2.500000 -0.086924 0
2.505000 -0.086051 0
2.510000 -0.085183 0
2.515000 -0.084318 0
2.520000 -0.083458 0
2.525000 -0.082603 0
2.530000 -0.081751 0
2.535000 -0.080904 0
2.540000 -0.080061 0
2.545000 -0.079222 0
2.550000 -0.078387 0
2.555000 -0.077557 0
2.560000 -0.076729 0
2.565000 -0.075905 0
2.570000 -0.075084 0
2.575000 -0.074263 0
2.580000 -0.073440 0
2.585000 -0.072610 0
2.590000 -0.071765 0
2.595000 -0.070892 0
2.600000 -0.069969 0
2.605000 -0.068962 0
2.610000 -0.067823 0
2.615000 -0.066476 0
2.620000 -0.064819 0
2.625000 -0.062709 0
2.630000 -0.059959 0
2.635000 -0.056328 0
2.640000 -0.051527 0
2.645000 -0.045218 0
2.650000 -0.037030 0
2.655000 -0.026584 0
2.660000 -0.013532 0
2.665000 0.002400 0
2.670000 0.021354 0
2.675000 0.043285 0
2.680000 0.067910 0
2.685000 0.094676 0
2.690000 0.122747 0
2.695000 0.151027 0
2.700000 0.178220 0
2.705000 0.202918 0
2.710000 0.223720 0
2.715000 0.239360 0
2.720000 0.248836 0
2.725000 0.251513 1
2.730000 0.247197 0
2.735000 0.236153 0
2.740000 0.219081 0
2.745000 0.197039 0
2.750000 0.171338 0
2.755000 0.143409 0
2.760000 0.114669 0
2.765000 0.086386 0
2.770000 0.059534 0
2.775000 0.034578 0
2.780000 0.011147 0
2.785000 -0.012403 0
2.790000 -0.039204 0
2.795000 -0.073168 0
2.800000 -0.116655 0
2.805000 -0.166865 0
2.810000 -0.212916 0
2.815000 -0.236074 2
2.820000 -0.213542 0
2.825000 -0.123731 0
2.830000 0.048158 0
2.835000 0.301920 0
2.840000 0.610426 0
2.845000 0.912196 0
2.850000 1.123274 0
2.855000 1.172233 3
2.860000 1.038480 0
2.865000 0.763962 0
2.870000 0.428798 0
2.875000 0.112242 0
2.880000 -0.133444 0
2.885000 -0.286791 0
2.890000 -0.349339 4
2.895000 -0.338159 0
2.900000 -0.280107 0
2.905000 -0.204279 0
2.910000 -0.133355 0
2.915000 -0.078514 0
2.920000 -0.040448 0
2.925000 -0.014253 0
2.930000 0.005825 0
2.935000 0.023971 0
2.940000 0.042481 0
2.945000 0.062350 0
2.950000 0.083890 0
2.955000 0.107107 0
2.960000 0.131859 0
2.965000 0.157916 0
2.970000 0.184974 0
2.975000 0.212660 0
2.980000 0.240542 0
2.985000 0.268136 0
2.990000 0.294917 0
2.995000 0.320337 0
3.000000 0.343844 0
3.005000 0.364896 0
3.010000 0.382986 0
3.015000 0.397660 0
3.020000 0.408536 0
3.025000 0.415318 0
3.030000 0.417813 5
3.035000 0.415935 0
3.040000 0.409712 0
3.045000 0.399285 0
3.050000 0.384899 0
3.055000 0.366899 0
3.060000 0.345710 0
3.065000 0.321823 0
3.070000 0.295775 0
3.075000 0.268129 0
3.080000 0.239455 0
3.085000 0.210306 0
3.090000 0.181207 0
3.095000 0.152635 0
3.100000 0.125012 0
3.105000 0.098692 0
3.110000 0.073961 0
3.115000 0.051032 0
3.120000 0.030051 0
3.125000 0.011095 0
3.130000 -0.005816 0
3.135000 -0.020713 0
3.140000 -0.033669 0
3.145000 -0.044793 0
3.150000 -0.054217 0
3.155000 -0.062088 0
3.160000 -0.068563 0
3.165000 -0.073802 0
3.170000 -0.077960 0
3.175000 -0.081188 0
3.180000 -0.083624 0
3.185000 -0.085393 0
3.190000 -0.086610 0
3.195000 -0.087374 0
3.200000 -0.087770 0
3.205000 -0.087872 0
3.210000 -0.087742 0
3.215000 -0.086973 0
3.220000 -0.086100 0
3.225000 -0.085231 0
3.230000 -0.084366 0
3.235000 -0.083506 0
3.240000 -0.082650 0
3.245000 -0.081798 0
3.250000 -0.080951 0
3.255000 -0.080108 0
3.260000 -0.079269 0
3.265000 -0.078434 0
3.270000 -0.077602 0
3.275000 -0.076774 0
3.280000 -0.075950 0
3.285000 -0.075126 0
3.290000 -0.074302 0
3.295000 -0.073474 0
3.300000 -0.072636 0
3.305000 -0.071776 0
3.310000 -0.070878 0
3.315000 -0.069915 0
3.320000 -0.068846 0
3.325000 -0.067609 0
3.330000 -0.066118 0
3.335000 -0.064249 0
3.340000 -0.061839 0
3.345000 -0.058676 0
3.350000 -0.054494 0
3.355000 -0.048978 0
3.360000 -0.041773 0
3.365000 -0.032502 0
3.370000 -0.020796 0
3.375000 -0.006338 0
3.380000 0.011085 0
3.385000 0.031531 0
3.390000 0.054843 0
3.395000 0.080609 0
3.400000 0.108137 0
3.405000 0.136462 0
3.410000 0.164384 0
3.415000 0.190544 0
3.420000 0.213523 0
3.425000 0.231973 0
3.430000 0.244745 0
3.435000 0.251005 1
3.440000 0.250324 0
3.445000 0.242730 0
3.450000 0.228699 0
3.455000 0.209113 0
3.460000 0.185162 0
3.465000 0.158227 0
3.470000 0.129745 0
3.475000 0.101077 0
3.480000 0.073370 0
3.485000 0.047388 0
3.490000 0.023258 0
3.495000 0.000070 0
3.500000 -0.024515 0
3.505000 -0.054158 0
3.510000 -0.092439 0
3.515000 -0.139810 0
3.520000 -0.189989 0
3.525000 -0.228265 0
3.530000 -0.233483 2
3.535000 -0.182795 0
3.540000 -0.056981 0
3.545000 0.153232 0
3.550000 0.437042 0
3.555000 0.752051 0
3.560000 1.023856 0
3.565000 1.169091 3
3.570000 1.135809 0
3.575000 0.932513 0
3.580000 0.621389 0
3.585000 0.285598 0
3.590000 -0.006119 0
3.595000 -0.215353 0
3.600000 -0.331245 0
3.605000 -0.362148 4
3.610000 -0.329388 0
3.615000 -0.261322 0
3.620000 -0.185175 0
3.625000 -0.119378 0
3.630000 -0.070793 0
3.635000 -0.037509 0
3.640000 -0.013961 0
3.645000 0.005139 0
3.650000 0.023262 0
3.655000 0.042173 0
3.660000 0.062580 0
3.665000 0.084671 0
3.670000 0.108393 0
3.675000 0.133581 0
3.680000 0.159983 0
3.685000 0.187281 0
3.690000 0.215090 0
3.695000 0.242970 0
3.700000 0.270431 0
3.705000 0.296950 0
3.710000 0.321983 0
3.715000 0.344987 0
3.720000 0.365434 0
3.725000 0.382834 0
3.730000 0.396754 0
3.735000 0.406835 0
3.740000 0.412804 0
3.745000 0.414492 5
3.750000 0.411835 0
3.755000 0.404881 0
3.760000 0.393787 0
3.765000 0.378814 0
3.770000 0.360314 0
3.775000 0.338718 0
3.780000 0.314518 0
3.785000 0.288247 0
3.790000 0.260464 0
3.795000 0.231727 0
3.800000 0.202582 0
3.805000 0.173538 0
3.810000 0.145064 0
3.815000 0.117567 0
3.820000 0.091392 0
3.825000 0.066814 0
3.830000 0.044038 0
3.835000 0.023203 0
3.840000 0.004382 0
3.845000 -0.012409 0
3.850000 -0.027202 0
3.855000 -0.040072 0
3.860000 -0.051125 0
3.865000 -0.060492 0
3.870000 -0.068320 0
3.875000 -0.074762 0
3.880000 -0.079977 0
3.885000 -0.084118 0
3.890000 -0.087333 0
3.895000 -0.089757 0
3.900000 -0.091517 0
3.905000 -0.092724 0
3.910000 -0.093478 0
3.915000 -0.093862 0
3.920000 -0.093951 0
3.925000 -0.093805 0
3.930000 -0.093008 0
3.935000 -0.092105 0
3.940000 -0.091206 0
3.945000 -0.090311 0
3.950000 -0.089422 0
3.955000 -0.088536 0
3.960000 -0.087655 0
3.965000 -0.086778 0
3.970000 -0.085906 0
3.975000 -0.085038 0
3.980000 -0.084174 0
3.985000 -0.083314 0
3.990000 -0.082458 0
3.995000 -0.081605 0
4.000000 -0.080754 0
4.005000 -0.079903 0
4.010000 -0.079049 0
4.015000 -0.078187 0
4.020000 -0.077306 0
4.025000 -0.076391 0
4.030000 -0.075419 0
4.035000 -0.074353 0
4.040000 -0.073137 0
4.045000 -0.071692 0
4.050000 -0.069906 0
4.055000 -0.067630 0
4.060000 -0.064666 0
4.065000 -0.060767 0
4.070000 -0.055636 0
4.075000 -0.048932 0
4.080000 -0.040287 0
4.085000 -0.029331 0
4.090000 -0.015732 0
4.095000 0.000758 0
4.100000 0.020251 0
4.105000 0.042666 0
4.110000 0.067683 0
4.115000 0.094716 0
4.120000 0.122904 0
4.125000 0.151140 0
4.130000 0.178128 0
4.135000 0.202480 0
4.140000 0.222826 0
4.145000 0.237942 0
4.150000 0.246874 0
4.155000 0.249032 1
4.160000 0.244260 0
4.165000 0.232849 0
4.170000 0.215510 0
4.175000 0.193300 0
4.180000 0.167515 0
4.185000 0.139564 0
4.190000 0.110837 0
4.195000 0.082580 0
4.200000 0.055744 0
4.205000 0.030791 0
4.210000 0.007364 0
4.215000 -0.016124 0
4.220000 -0.042719 0
4.225000 -0.076271 0
4.230000 -0.119246 0
4.235000 -0.169250 0
4.240000 -0.216101 0
4.245000 -0.241825 2
4.250000 -0.224131 0
4.255000 -0.141482 0
4.260000 0.021596 0
4.265000 0.266959 0
4.270000 0.571495 0
4.275000 0.878699 0
4.280000 1.107280 0
4.285000 1.182761 3
4.290000 1.075769 0
4.295000 0.818715 0
4.300000 0.487539 0
4.305000 0.163257 0
4.310000 -0.097066 0
4.315000 -0.267321 0
4.320000 -0.345610 0
4.325000 -0.346454 4
4.330000 -0.295115 0
4.335000 -0.220678 0
4.340000 -0.147447 0
4.345000 -0.088912 0
4.350000 -0.047580 0
4.355000 -0.019317 0
4.360000 0.001688 0
4.365000 0.020009 0
4.370000 0.038308 0
4.375000 0.057806 0
4.380000 0.078931 0
4.385000 0.101739 0
4.390000 0.126119 0
4.395000 0.151864 0
4.400000 0.178688 0
4.405000 0.206241 0
4.410000 0.234111 0
4.415000 0.261829 0
4.420000 0.288887 0
4.425000 0.314747 0
4.430000 0.338861 0
4.435000 0.360687 0
4.440000 0.379712 0
4.445000 0.395468 0
4.450000 0.407553 0
4.455000 0.415647 0
4.460000 0.419524 5
4.465000 0.419065 0
4.470000 0.414261 0
4.475000 0.405214 0
4.480000 0.392135 0
4.485000 0.375331 0
4.490000 0.355199 0
4.495000 0.332204 0
4.500000 0.306864 0
4.505000 0.279730 0
4.510000 0.251365 0
4.515000 0.222325 0
4.520000 0.193143 0
4.525000 0.164311 0
4.530000 0.136268 0
4.535000 0.109392 0
4.540000 0.083994 0
4.545000 0.060313 0
4.550000 0.038520 0
4.555000 0.018718 0
4.560000 0.000950 0
4.565000 -0.014795 0
4.570000 -0.028573 0
4.575000 -0.040477 0
4.580000 -0.050628 0
4.585000 -0.059168 0
4.590000 -0.066248 0
4.595000 -0.072027 0
4.600000 -0.076660 0
4.605000 -0.080300 0
4.610000 -0.083088 0
4.615000 -0.085155 0
4.620000 -0.086621 0
4.625000 -0.087590 0
4.630000 -0.088153 0
4.635000 -0.088389 0
4.640000 -0.088365 0
4.645000 -0.088042 0
4.650000 -0.087163 0
4.655000 -0.086289 0
4.660000 -0.085419 0
4.665000 -0.084554 0
4.670000 -0.083693 0
4.675000 -0.082836 0
4.680000 -0.081983 0
4.685000 -0.081135 0
4.690000 -0.080291 0
4.695000 -0.079451 0
4.700000 -0.078615 0
4.705000 -0.077782 0
4.710000 -0.076953 0
4.715000 -0.076126 0
4.720000 -0.075300 0
4.725000 -0.074473 0
4.730000 -0.073639 0
4.735000 -0.072791 0
4.740000 -0.071916 0
4.745000 -0.070993 0
4.750000 -0.069992 0
4.755000 -0.068864 0
4.760000 -0.067540 0
4.765000 -0.065920 0
4.770000 -0.063869 0
4.775000 -0.061207 0
4.780000 -0.057704 0
4.785000 -0.053081 0
4.790000 -0.047009 0
4.795000 -0.039125 0
4.800000 -0.029056 0
4.805000 -0.016448 0
4.810000 -0.001017 0
4.815000 0.017405 0
4.820000 0.038808 0
4.825000 0.062960 0
4.830000 0.089366 0
4.835000 0.117254 0
4.840000 0.145591 0
4.845000 0.173130 0
4.850000 0.198496 0
4.855000 0.220293 0
4.860000 0.237228 0
4.865000 0.248242 0
4.870000 0.252613 1
4.875000 0.250040 0
4.880000 0.240670 0
4.885000 0.225091 0
4.890000 0.204264 0
4.895000 0.179428 0
4.900000 0.151978 0
4.905000 0.123330 0
4.910000 0.094793 0
4.915000 0.067432 0
4.920000 0.041887 0
4.925000 0.018089 0
4.930000 -0.005148 0
4.935000 -0.030462 0
4.940000 -0.061635 0
4.945000 -0.101871 0
4.950000 -0.150547 0
4.955000 -0.199839 0
4.960000 -0.233693 2
4.965000 -0.230445 0
4.970000 -0.167730 0
4.975000 -0.027715 0
4.980000 0.196222 0
4.985000 0.488887 0
4.990000 0.802692 0
4.995000 1.060401 0
5.000000 1.181412 3
5.005000 1.121420 0
5.010000 0.897325 0
5.015000 0.577205 0
5.020000 0.244352 0
5.025000 -0.036362 0
5.030000 -0.231111 0
5.035000 -0.332540 0
5.040000 -0.351476 4
5.045000 -0.310944 0
5.050000 -0.239850 0
5.055000 -0.164520 0
5.060000 -0.101530 0
5.065000 -0.055948 0
5.070000 -0.024851 0
5.075000 -0.002478 0
5.080000 0.016207 0
5.085000 0.034343 0
5.090000 0.053462 0
5.095000 0.074144 0
5.100000 0.096516 0
5.105000 0.120500 0
5.110000 0.145909 0
5.115000 0.172480 0
5.120000 0.199877 0
5.125000 0.227703 0
5.130000 0.255504 0
5.135000 0.282780 0
5.140000 0.308999 0
5.145000 0.333615 0
5.150000 0.356082 0
5.155000 0.375877 0
5.160000 0.392518 0
5.165000 0.405586 0
5.170000 0.414736 0
5.175000 0.419718 0
5.180000 0.420385 5
5.185000 0.416697 0
5.190000 0.408730 0
5.195000 0.396666 0
5.200000 0.380788 0
5.205000 0.361472 0
5.210000 0.339167 0
5.215000 0.314378 0
5.220000 0.287651 0
5.225000 0.259546 0
5.230000 0.230625 0
5.235000 0.201427 0
5.240000 0.172456 0
5.245000 0.144167 0
5.250000 0.116953 0
5.255000 0.091144 0
5.260000 0.066996 0
5.265000 0.044699 0
5.270000 0.024372 0
5.275000 0.006074 0
5.280000 -0.010193 0
5.285000 -0.024474 0
5.290000 -0.036855 0
5.295000 -0.047449 0
5.300000 -0.056394 0
5.305000 -0.063839 0
5.310000 -0.069942 0
5.315000 -0.074860 0
5.320000 -0.078745 0
5.325000 -0.081743 0
5.330000 -0.083987 0
5.335000 -0.085601 0
5.340000 -0.086692 0
5.345000 -0.087355 0
5.350000 -0.087672 0
5.355000 -0.087713 0
5.360000 -0.087434 0
5.365000 -0.086558 0
5.370000 -0.085687 0
5.375000 -0.084820 0
5.380000 -0.083958 0
5.385000 -0.083100 0
5.390000 -0.082246 0
5.395000 -0.081396 0
5.400000 -0.080551 0
5.405000 -0.079710 0
5.410000 -0.078872 0
5.415000 -0.078039 0
5.420000 -0.077210 0
5.425000 -0.076384 0
5.430000 -0.075560 0
5.435000 -0.074738 0
5.440000 -0.073916 0
5.445000 -0.073088 0
5.450000 -0.072248 0
5.455000 -0.071385 0
5.460000 -0.070481 0
5.465000 -0.069508 0
5.470000 -0.068422 0
5.475000 -0.067159 0
5.480000 -0.065630 0
5.485000 -0.063708 0
5.490000 -0.061226 0
5.495000 -0.057967 0
5.500000 -0.053664 0
5.505000 -0.047999 0
5.510000 -0.040618 0
5.515000 -0.031147 0
5.520000 -0.019222 0
5.525000 -0.004538 0
5.530000 0.013108 0
5.535000 0.033759 0
5.540000 0.057241 0
5.545000 0.083131 0
5.550000 0.110725 0
5.555000 0.139055 0
5.560000 0.166922 0
5.565000 0.192973 0
5.570000 0.215806 0
5.575000 0.234091 0
5.580000 0.246695 0
5.585000 0.252804 1
5.590000 0.252002 0
5.595000 0.244322 0
5.600000 0.230245 0
5.605000 0.210643 0
5.610000 0.186697 0
5.615000 0.159774 0
5.620000 0.131297 0
5.625000 0.102616 0
5.630000 0.074871 0
5.635000 0.048832 0
5.640000 0.024647 0
5.645000 0.001454 0
5.650000 -0.023005 0
5.655000 -0.052318 0
5.660000 -0.090094 0
5.665000 -0.137039 0
5.670000 -0.187391 0
5.675000 -0.227078 0
5.680000 -0.235441 2
5.685000 -0.189795 0
5.690000 -0.070634 0
5.695000 0.132350 0
5.700000 0.410677 0
5.705000 0.725517 0
5.710000 1.005621 0
5.715000 1.167593 3
5.720000 1.153972 0
5.725000 0.965017 0
5.730000 0.659947 0
5.735000 0.323276 0
5.740000 0.027098 0
5.745000 -0.187292 0
5.750000 -0.307454 0
5.755000 -0.341158 4
5.760000 -0.309781 0
5.765000 -0.242147 0
5.770000 -0.166100 0
5.775000 -0.100492 0
5.780000 -0.052270 0
5.785000 -0.019398 0
5.790000 0.003823 0
5.795000 0.022735 0
5.800000 0.040787 0
5.805000 0.059703 0
5.810000 0.080159 0
5.815000 0.102317 0
5.820000 0.126115 0
5.825000 0.151371 0
5.830000 0.177823 0
5.835000 0.205137 0
5.840000 0.232913 0
5.845000 0.260694 0
5.850000 0.287974 0
5.855000 0.314215 0
5.860000 0.338861 0
5.865000 0.361358 0
5.870000 0.381174 0
5.875000 0.397819 0
5.880000 0.410865 0
5.885000 0.419962 0
5.890000 0.424858 0
5.895000 0.425403 5
5.900000 0.421560 0
5.905000 0.413410 0
5.910000 0.401139 0
5.915000 0.385043 0
5.920000 0.365504 0
5.925000 0.342983 0
5.930000 0.317998 0
5.935000 0.291104 0
5.940000 0.262871 0
5.945000 0.233868 0
5.950000 0.204639 0
5.955000 0.175693 0
5.960000 0.147483 0
5.965000 0.120402 0
5.970000 0.094774 0
5.975000 0.070852 0
5.980000 0.048817 0
5.985000 0.028780 0
5.990000 0.010791 0
5.995000 -0.005156 0
6.000000 -0.019116 0
6.005000 -0.031180 0
6.010000 -0.041470 0
6.015000 -0.050128 0
6.020000 -0.057309 0
6.025000 -0.063171 0
6.030000 -0.067875 0
6.035000 -0.071573 0
6.040000 -0.074412 0
6.045000 -0.076524 0
6.050000 -0.078029 0
6.055000 -0.079035 0
6.060000 -0.079633 0
6.065000 -0.079903 0
6.070000 -0.079913 0
6.075000 -0.079625 0
6.080000 -0.078788 0
6.085000 -0.077956 0
6.090000 -0.077127 0
6.095000 -0.076303 0
6.100000 -0.075483 0
6.105000 -0.074667 0
6.110000 -0.073855 0
6.115000 -0.073048 0
6.120000 -0.072244 0
6.125000 -0.071444 0
6.130000 -0.070648 0
6.135000 -0.069855 0
6.140000 -0.069065 0
6.145000 -0.068277 0
6.150000 -0.067490 0
6.155000 -0.066700 0
6.160000 -0.065902 0
6.165000 -0.065088 0
6.170000 -0.064243 0
6.175000 -0.063345 0
6.180000 -0.062359 0
6.185000 -0.061231 0
6.190000 -0.059887 0
6.195000 -0.058216 0
6.200000 -0.056071 0
6.205000 -0.053258 0
6.210000 -0.049531 0
6.215000 -0.044591 0
6.220000 -0.038095 0
6.225000 -0.029668 0
6.230000 -0.018933 0
6.235000 -0.005545 0
6.240000 0.010756 0
6.245000 0.030089 0
6.250000 0.052380 0
6.255000 0.077311 0
6.260000 0.104286 0
6.265000 0.132430 0
6.270000 0.160610 0
6.275000 0.187503 0
6.280000 0.211691 0
6.285000 0.231780 0
6.290000 0.246531 0
6.295000 0.254987 0
6.300000 0.256576 1
6.305000 0.251172 0
6.310000 0.239111 0
6.315000 0.221156 0
6.320000 0.198417 0
6.325000 0.172237 0
6.330000 0.144057 0
6.335000 0.115285 0
6.340000 0.087154 0
6.345000 0.060575 0
6.350000 0.035903 0
6.355000 0.012581 0
6.360000 -0.011291 0
6.365000 -0.039078 0
6.370000 -0.074650 0
6.375000 -0.119749 0
6.380000 -0.170292 0
6.385000 -0.213838 0
6.390000 -0.230512 2
6.395000 -0.197273 0
6.400000 -0.093255 0
6.405000 0.094374 0
6.410000 0.361363 0
6.415000 0.674261 0
6.420000 0.965475 0
6.425000 1.149980 0
6.430000 1.163339 3
6.435000 0.997358 0
6.440000 0.704401 0
6.445000 0.367256 0
6.450000 0.061179 0
6.455000 -0.167806 0
6.460000 -0.303327 0
6.465000 -0.350333 4
6.470000 -0.328155 0
6.475000 -0.264674 0
6.480000 -0.188360 0
6.485000 -0.119931 0
6.490000 -0.068369 0
6.495000 -0.032926 0
6.500000 -0.008253 0
6.505000 0.011214 0
6.510000 0.029292 0
6.515000 0.047989 0
6.520000 0.068135 0
6.525000 0.089967 0
6.530000 0.113457 0
6.535000 0.138447 0
6.540000 0.164693 0
6.545000 0.191877 0
6.550000 0.219619 0
6.555000 0.247477 0
6.560000 0.274958 0
6.565000 0.301536 0
6.570000 0.326660 0
6.575000 0.349780 0
6.580000 0.370359 0
6.585000 0.387899 0
6.590000 0.401956 0
6.595000 0.412164 0
6.600000 0.418243 0
6.605000 0.420017 5
6.610000 0.417419 0
6.615000 0.410495 0
6.620000 0.399403 0
6.625000 0.384405 0
6.630000 0.365858 0
6.635000 0.344199 0
6.640000 0.319926 0
6.645000 0.293582 0
6.650000 0.265730 0
6.655000 0.236937 0
6.660000 0.207753 0
6.665000 0.178695 0
6.670000 0.150232 0
6.675000 0.122775 0
6.680000 0.096667 0
6.685000 0.072184 0
6.690000 0.049527 0
6.695000 0.028831 0
6.700000 0.010165 0
6.705000 -0.006459 0
6.710000 -0.021078 0
6.715000 -0.033773 0
6.720000 -0.044654 0
6.725000 -0.053857 0
6.730000 -0.061529 0
6.735000 -0.067830 0
6.740000 -0.072917 0
6.745000 -0.076947 0
6.750000 -0.080065 0
6.755000 -0.082411 0
6.760000 -0.084106 0
6.765000 -0.085264 0
6.770000 -0.085982 0
6.775000 -0.086343 0
6.780000 -0.086418 0
6.785000 -0.086164 0
6.790000 -0.085295 0
6.795000 -0.084430 0
6.800000 -0.083570 0
6.805000 -0.082713 0
6.810000 -0.081861 0
6.815000 -0.081014 0
6.820000 -0.080170 0
6.825000 -0.079331 0
6.830000 -0.078496 0
6.835000 -0.077664 0
6.840000 -0.076837 0
6.845000 -0.076014 0
6.850000 -0.075194 0
6.855000 -0.074377 0
6.860000 -0.073561 0
6.865000 -0.072744 0
6.870000 -0.071922 0
6.875000 -0.071089 0
6.880000 -0.070234 0
6.885000 -0.069337 0
6.890000 -0.068372 0
6.895000 -0.067294 0
6.900000 -0.066042 0
6.905000 -0.064523 0
6.910000 -0.062611 0
6.915000 -0.060139 0
6.920000 -0.056887 0
6.925000 -0.052587 0
6.930000 -0.046919 0
6.935000 -0.039524 0
6.940000 -0.030025 0
6.945000 -0.018059 0
6.950000 -0.003316 0
6.955000 0.014404 0
6.960000 0.035139 0
6.965000 0.058708 0
6.970000 0.084673 0
6.975000 0.112317 0
6.980000 0.140652 0
6.985000 0.168460 0
6.990000 0.194373 0
6.995000 0.216978 0
7.000000 0.234941 0
7.005000 0.247140 0
7.010000 0.252776 1
7.015000 0.251461 0
7.020000 0.243263 0
7.025000 0.228697 0
7.030000 0.208673 0
7.035000 0.184403 0
7.040000 0.157273 0
7.045000 0.128719 0
7.050000 0.100084 0
7.055000 0.072489 0
7.060000 0.046659 0
7.065000 0.022649 0
7.070000 -0.000551 0
7.075000 -0.025395 0
7.080000 -0.055605 0
7.085000 -0.094640 0
7.090000 -0.142555 0
7.095000 -0.192459 0
7.100000 -0.229068 0
7.105000 -0.230955 2
7.110000 -0.175399 0
7.115000 -0.043690 0
7.120000 0.172385 0
7.125000 0.460156 0
7.130000 0.774861 0
7.135000 1.040581 0
7.140000 1.174870 3
7.145000 1.128730 0
7.150000 0.914261 0
7.155000 0.597739 0
7.160000 0.263620 0
7.165000 -0.020827 0
7.170000 -0.219773 0
7.175000 -0.324747 0
7.180000 -0.346109 4
7.185000 -0.306838 0
7.190000 -0.236124 0
7.195000 -0.160741 0
7.200000 -0.097636 0
7.205000 -0.052034 0
7.210000 -0.020996 0
7.215000 0.001303 0
7.220000 0.019944 0
7.225000 0.038075 0
7.230000 0.057216 0
7.235000 0.077940 0
7.240000 0.100365 0
7.245000 0.124406 0
7.250000 0.149870 0
7.255000 0.176487 0
7.260000 0.203913 0
7.265000 0.231742 0
7.270000 0.259511 0
7.275000 0.286711 0
7.280000 0.312802 0
7.285000 0.337230 0
7.290000 0.359444 0
7.295000 0.378917 0
7.300000 0.395169 0
7.305000 0.407781 0
7.310000 0.416416 0
7.315000 0.420834 0
7.320000 0.420897 5
7.325000 0.416585 0
7.330000 0.407986 0
7.335000 0.395303 0
7.340000 0.378837 0
7.345000 0.358981 0
7.350000 0.336200 0
7.355000 0.311015 0
7.360000 0.283981 0
7.365000 0.255669 0
7.370000 0.226642 0
7.375000 0.197441 0
7.380000 0.168568 0
7.385000 0.140469 0
7.390000 0.113529 0
7.395000 0.088067 0
7.400000 0.064326 0
7.405000 0.042480 0
7.410000 0.022636 0
7.415000 0.004839 0
7.420000 -0.010924 0
7.425000 -0.024708 0
7.430000 -0.036608 0
7.435000 -0.046748 0
7.440000 -0.055269 0
7.445000 -0.062327 0
7.450000 -0.068080 0
7.455000 -0.072688 0
7.460000 -0.076303 0
7.465000 -0.079068 0
7.470000 -0.081115 0
7.475000 -0.082565 0
7.480000 -0.083521 0
7.485000 -0.084076 0
7.490000 -0.084308 0
7.495000 -0.084283 0
7.500000 -0.083544 0
7.505000 -0.082688 0
7.510000 -0.081836 0
7.515000 -0.080988 0
7.520000 -0.080145 0
7.525000 -0.079306 0
7.530000 -0.078471 0
7.535000 -0.077640 0
7.540000 -0.076813 0
7.545000 -0.075991 0
7.550000 -0.075172 0
7.555000 -0.074357 0
7.560000 -0.073546 0
7.565000 -0.072738 0
7.570000 -0.071931 0
7.575000 -0.071126 0
7.580000 -0.070317 0
7.585000 -0.069501 0
7.590000 -0.068668 0
7.595000 -0.067805 0
7.600000 -0.066888 0
7.605000 -0.065882 0
7.610000 -0.064734 0
7.615000 -0.063368 0
7.620000 -0.061675 0
7.625000 -0.059508 0
7.630000 -0.056671 0
7.635000 -0.052920 0
7.640000 -0.047957 0
7.645000 -0.041438 0
7.650000 -0.032992 0
7.655000 -0.022240 0
7.660000 -0.008842 0
7.665000 0.007464 0
7.670000 0.026796 0
7.675000 0.049083 0
7.680000 0.074008 0
7.685000 0.100981 0
7.690000 0.129131 0
7.695000 0.157334 0
7.700000 0.184273 0
7.705000 0.208535 0
7.710000 0.228728 0
7.715000 0.243615 0
7.720000 0.252235 0
7.725000 0.254007 1
7.730000 0.248795 0
7.735000 0.236923 0
7.740000 0.219140 0
7.745000 0.196544 0
7.750000 0.170467 0
7.755000 0.142346 0
7.760000 0.113585 0
7.765000 0.085425 0
7.770000 0.058787 0
7.775000 0.034053 0
7.780000 0.010716 0
7.785000 -0.013054 0
7.790000 -0.040555 0
7.795000 -0.075665 0
7.800000 -0.120307 0
7.805000 -0.170784 0
7.810000 -0.215141 0
7.815000 -0.233880 2
7.820000 -0.204068 0
7.825000 -0.104645 0
7.830000 0.077851 0
7.835000 0.340555 0
7.840000 0.652231 0
7.845000 0.947462 0
7.850000 1.141621 0
7.855000 1.167790 3
7.860000 1.013584 0
7.865000 0.727700 0
7.870000 0.391041 0
7.875000 0.079772 0
7.880000 -0.157758 0
7.885000 -0.302897 0
7.890000 -0.358749 4
7.895000 -0.343138 0
7.900000 -0.283004 0
7.905000 -0.206889 0
7.910000 -0.136586 0
7.915000 -0.082508 0
7.920000 -0.044968 0
7.925000 -0.019017 0
7.930000 0.000999 0
7.935000 0.019161 0
7.940000 0.037705 0
7.945000 0.057602 0
7.950000 0.079158 0
7.955000 0.102379 0
7.960000 0.127126 0
7.965000 0.153175 0
7.970000 0.180225 0
7.975000 0.207913 0
7.980000 0.235814 0
7.985000 0.263452 0
7.990000 0.290313 0
7.995000 0.315857 0
8.000000 0.339538 0
8.005000 0.360821 0
8.010000 0.379203 0
8.015000 0.394230 0
8.020000 0.405519 0
8.025000 0.412770 0
8.030000 0.415778 5
8.035000 0.414449 0
8.040000 0.408795 0
8.045000 0.398941 0
8.050000 0.385116 0
8.055000 0.367647 0
8.060000 0.346941 0
8.065000 0.323475 0
8.070000 0.297771 0
8.075000 0.270383 0
8.080000 0.241872 0
8.085000 0.212788 0
8.090000 0.183655 0
8.095000 0.154955 0
8.100000 0.127115 0
8.105000 0.100500 0
8.110000 0.075406 0
8.115000 0.052060 0
8.120000 0.030620 0
8.125000 0.011179 0
8.130000 -0.006231 0
8.135000 -0.021627 0
8.140000 -0.035074 0
8.145000 -0.046669 0
8.150000 -0.056535 0
8.155000 -0.064817 0
8.160000 -0.071666 0
8.165000 -0.077239 0
8.170000 -0.081694 0
8.175000 -0.085177 0
8.180000 -0.087831 0
8.185000 -0.089784 0
8.190000 -0.091152 0
8.195000 -0.092038 0
8.200000 -0.092531 0
8.205000 -0.092707 0
8.210000 -0.092631 0
8.215000 -0.091850 0
8.220000 -0.090952 0
8.225000 -0.090059 0
8.230000 -0.089170 0
8.235000 -0.088286 0
8.240000 -0.087406 0
8.245000 -0.086531 0
8.250000 -0.085660 0
8.255000 -0.084793 0
8.260000 -0.083931 0
8.265000 -0.083073 0
8.270000 -0.082218 0
8.275000 -0.081368 0
8.280000 -0.080521 0
8.285000 -0.079676 0
8.290000 -0.078832 0
8.295000 -0.077986 0
8.300000 -0.077133 0
8.305000 -0.076265 0
8.310000 -0.075369 0
8.315000 -0.074424 0
8.320000 -0.073396 0
8.325000 -0.072237 0
8.330000 -0.070875 0
8.335000 -0.069209 0
8.340000 -0.067100 0
8.345000 -0.064366 0
8.350000 -0.060773 0
8.355000 -0.056040 0
8.360000 -0.049836 0
8.365000 -0.041799 0
8.370000 -0.031556 0
8.375000 -0.018760 0
8.380000 -0.003131 0
8.385000 0.015487 0
8.390000 0.037073 0
8.395000 0.061382 0
8.400000 0.087904 0
8.405000 0.115857 0
8.410000 0.144199 0
8.415000 0.171681 0
8.420000 0.196928 0
8.425000 0.218553 0
8.430000 0.235275 0
8.435000 0.246052 0
8.440000 0.250181 1
8.445000 0.247376 0
8.450000 0.237802 0
8.455000 0.222056 0
8.460000 0.201107 0
8.465000 0.176195 0
8.470000 0.148711 0
8.475000 0.120064 0
8.480000 0.091556 0
8.485000 0.064238 0
8.490000 0.038738 0
8.495000 0.014973 0
8.500000 -0.008255 0
8.505000 -0.033595 0
8.510000 -0.064817 0
8.515000 -0.105098 0
8.520000 -0.153785 0
8.525000 -0.203051 0
8.530000 -0.236893 2
8.535000 -0.233732 0
8.540000 -0.171290 0
8.545000 -0.031776 0
8.550000 0.191509 0
8.555000 0.483666 0
8.560000 0.797657 0
8.565000 1.056805 0
8.570000 1.180589 3
8.575000 1.123642 0
8.580000 0.901296 0
8.585000 0.581668 0
8.590000 0.248705 0
8.595000 -0.032089 0
8.600000 -0.226584 0
8.605000 -0.327424 0
8.610000 -0.345616 4
8.615000 -0.304460 0
8.620000 -0.233105 0
8.625000 -0.157945 0
8.630000 -0.095420 0
8.635000 -0.050368 0
8.640000 -0.019686 0
8.645000 0.002445 0
8.650000 0.021038 0
8.655000 0.039176 0
8.660000 0.058345 0
8.665000 0.079098 0
8.670000 0.101547 0
8.675000 0.125607 0
8.680000 0.151085 0
8.685000 0.177707 0
8.690000 0.205134 0
8.695000 0.232959 0
8.700000 0.260721 0
8.705000 0.287914 0
8.710000 0.313999 0
8.715000 0.338425 0
8.720000 0.360643 0
8.725000 0.380129 0
8.730000 0.396404 0
8.735000 0.409051 0
8.740000 0.417732 0
8.745000 0.422207 0
8.750000 0.422340 5
8.755000 0.418105 0
8.760000 0.409591 0
8.765000 0.396994 0
8.770000 0.380615 0
8.775000 0.360842 0
8.780000 0.338136 0
8.785000 0.313015 0
8.790000 0.286030 0
8.795000 0.257749 0
8.800000 0.228735 0
8.805000 0.199526 0
8.810000 0.170625 0
8.815000 0.142478 0
8.820000 0.115472 0
8.825000 0.089927 0
8.830000 0.066088 0
8.835000 0.044134 0
8.840000 0.024174 0
8.845000 0.006255 0
8.850000 -0.009632 0
8.855000 -0.023539 0
8.860000 -0.035560 0
8.865000 -0.045814 0
8.870000 -0.054444 0
8.875000 -0.061602 0
8.880000 -0.067448 0
8.885000 -0.072138 0
8.890000 -0.075825 0
8.895000 -0.078654 0
8.900000 -0.080757 0
8.905000 -0.082254 0
8.910000 -0.083250 0
8.915000 -0.083838 0
8.920000 -0.084097 0
8.925000 -0.084095 0
8.930000 -0.083792 0
8.935000 -0.082935 0
8.940000 -0.082082 0
8.945000 -0.081233 0
8.950000 -0.080388 0
8.955000 -0.079548 0
8.960000 -0.078712 0
8.965000 -0.077880 0
8.970000 -0.077052 0
8.975000 -0.076228 0
8.980000 -0.075408 0
8.985000 -0.074592 0
8.990000 -0.073780 0
8.995000 -0.072971 0
9.000000 -0.072164 0
9.005000 -0.071357 0
9.010000 -0.070549 0
9.015000 -0.069733 0
9.020000 -0.068903 0
9.025000 -0.068044 0
9.030000 -0.067136 0
9.035000 -0.066144 0
9.040000 -0.065021 0
9.045000 -0.063692 0
9.050000 -0.062054 0
9.055000 -0.059968 0
9.060000 -0.057247 0
9.065000 -0.053654 0
9.070000 -0.048900 0
9.075000 -0.042651 0
9.080000 -0.034538 0
9.085000 -0.024185 0
9.090000 -0.011241 0
9.095000 0.004567 0
9.100000 0.023389 0
9.105000 0.045186 0
9.110000 0.069689 0
9.115000 0.096357 0
9.120000 0.124373 0
9.125000 0.152658 0
9.130000 0.179928 0
9.135000 0.204786 0
9.140000 0.225833 0
9.145000 0.241798 0
9.150000 0.251664 0
9.155000 0.254775 1
9.160000 0.250907 0
9.165000 0.240295 0
9.170000 0.223606 0
9.175000 0.201873 0
9.180000 0.176386 0
9.185000 0.148565 0
9.190000 0.119826 0
9.195000 0.091449 0
9.200000 0.064433 0
9.205000 0.039297 0
9.210000 0.015762 0
9.215000 -0.007679 0
9.220000 -0.034016 0
9.225000 -0.067142 0
9.230000 -0.109706 0
9.235000 -0.159595 0
9.240000 -0.206851 0
9.245000 -0.233510 2
9.250000 -0.217066 0
9.255000 -0.135639 0
9.260000 0.026577 0
9.265000 0.271633 0
9.270000 0.576220 0
9.275000 0.883043 0
9.280000 1.109725 0
9.285000 1.181342 3
9.290000 1.070120 0
9.295000 0.810359 0
9.300000 0.478488 0
9.305000 0.155135 0
9.310000 -0.103394 0
9.315000 -0.271640 0
9.320000 -0.348130 4
9.325000 -0.347642 0
9.330000 -0.295566 0
9.335000 -0.220945 0
9.340000 -0.147890 0
9.345000 -0.089658 0
9.350000 -0.048589 0
9.355000 -0.020485 0
9.360000 0.000453 0
9.365000 0.018765 0
9.370000 0.037083 0
9.375000 0.056610 0
9.380000 0.077766 0
9.385000 0.100603 0
9.390000 0.125009 0
9.395000 0.150775 0
9.400000 0.177617 0
9.405000 0.205183 0
9.410000 0.233060 0
9.415000 0.260781 0
9.420000 0.287836 0
9.425000 0.313690 0
9.430000 0.337794 0
9.435000 0.359608 0
9.440000 0.378618 0
9.445000 0.394358 0
9.450000 0.406427 0
9.455000 0.414505 0
9.460000 0.418368 5
9.465000 0.417897 0
9.470000 0.413084 0
9.475000 0.404031 0
9.480000 0.390949 0
9.485000 0.374145 0
9.490000 0.354015 0
9.495000 0.331024 0
9.500000 0.305690 0
9.505000 0.278563 0
9.510000 0.250204 0
9.515000 0.221171 0
9.520000 0.191995 0
9.525000 0.163167 0
9.530000 0.135128 0
9.535000 0.108253 0
9.540000 0.082854 0
9.545000 0.059170 0
9.550000 0.037371 0
9.555000 0.017563 0
9.560000 -0.000213 0
9.565000 -0.015966 0
9.570000 -0.029752 0
9.575000 -0.041665 0
9.580000 -0.051826 0
9.585000 -0.060374 0
9.590000 -0.067462 0
9.595000 -0.073248 0
9.600000 -0.077887 0
9.605000 -0.081531 0
9.610000 -0.084323 0
9.615000 -0.086393 0
9.620000 -0.087859 0
9.625000 -0.088828 0
9.630000 -0.089391 0
9.635000 -0.089626 0
9.640000 -0.089599 0
9.645000 -0.089272 0
9.650000 -0.088387 0
9.655000 -0.087507 0
9.660000 -0.086631 0
9.665000 -0.085760 0
9.670000 -0.084893 0
9.675000 -0.084030 0
9.680000 -0.083171 0
9.685000 -0.082317 0
9.690000 -0.081467 0
9.695000 -0.080621 0
9.700000 -0.079779 0
9.705000 -0.078941 0
9.710000 -0.078106 0
9.715000 -0.077273 0
9.720000 -0.076442 0
9.725000 -0.075609 0
9.730000 -0.074770 0
9.735000 -0.073916 0
9.740000 -0.073037 0
9.745000 -0.072111 0
9.750000 -0.071107 0
9.755000 -0.069978 0
9.760000 -0.068655 0
9.765000 -0.067041 0
9.770000 -0.065000 0
9.775000 -0.062355 0
9.780000 -0.058879 0
9.785000 -0.054292 0
9.790000 -0.048268 0
9.795000 -0.040447 0
9.800000 -0.030453 0
9.805000 -0.017935 0
9.810000 -0.002602 0
9.815000 0.015715 0
9.820000 0.037017 0
9.825000 0.061079 0
9.830000 0.087416 0
9.835000 0.115270 0
9.840000 0.143615 0
9.845000 0.171216 0
9.850000 0.196701 0
9.855000 0.218673 0
9.860000 0.235835 0
9.865000 0.247117 0
9.870000 0.251783 1
9.875000 0.249512 0
9.880000 0.240433 0
9.885000 0.225113 0
9.890000 0.204499 0
9.895000 0.179820 0
9.900000 0.152462 0
9.905000 0.123843 0
9.910000 0.095279 0
9.915000 0.067848 0
9.920000 0.042214 0
9.925000 0.018352 0
9.930000 -0.004859 0
9.935000 -0.029981 0
9.940000 -0.060761 0
9.945000 -0.100498 0
9.950000 -0.148854 0
9.955000 -0.198440 0
9.960000 -0.233613 2
9.965000 -0.232916 0
9.970000 -0.173914 0
9.975000 -0.038408 0
9.980000 0.181062 0
9.985000 0.470840 0
9.990000 0.785307 0
9.995000 1.048501 0
10.000000 1.179050 3
10.005000 1.128623 0
10.010000 0.910625 0
10.015000 0.592529 0
10.020000 0.259031 0
10.025000 -0.023172 0
10.030000 -0.219073 0
10.035000 -0.320912 0
10.040000 -0.339617 4
10.045000 -0.298610 0
10.050000 -0.227266 0
10.055000 -0.152176 0
10.060000 -0.089845 0
10.065000 -0.045052 0
10.070000 -0.014599 0
10.075000 0.007385 0
10.080000 0.025913 0
10.085000 0.044046 0
10.090000 0.063243 0
10.095000 0.084041 0
10.100000 0.106542 0
10.105000 0.130654 0
10.110000 0.156178 0
10.115000 0.182836 0
10.120000 0.210281 0
10.125000 0.238099 0
10.130000 0.265822 0
10.135000 0.292938 0
10.140000 0.318902 0
10.145000 0.343157 0
10.150000 0.365151 0
10.155000 0.384360 0
10.160000 0.400303 0
10.165000 0.412568 0
10.170000 0.420824 0
10.175000 0.424837 5
10.180000 0.424482 0
10.185000 0.419746 0
10.190000 0.410730 0
10.195000 0.397646 0
10.200000 0.380806 0
10.205000 0.360614 0
10.210000 0.337542 0
10.215000 0.312117 0
10.220000 0.284901 0
10.225000 0.256464 0
10.230000 0.227372 0
10.235000 0.198164 0
10.240000 0.169337 0
10.245000 0.141334 0
10.250000 0.114534 0
10.255000 0.089247 0
10.260000 0.065709 0
10.265000 0.044087 0
10.270000 0.024479 0
10.275000 0.006922 0
10.280000 -0.008600 0
10.285000 -0.022150 0
10.290000 -0.033828 0
10.295000 -0.043760 0
10.300000 -0.052092 0
10.305000 -0.058979 0
10.310000 -0.064581 0
10.315000 -0.069058 0
10.320000 -0.072561 0
10.325000 -0.075233 0
10.330000 -0.077205 0
10.335000 -0.078594 0
10.340000 -0.079504 0
10.345000 -0.080024 0
10.350000 -0.080232 0
10.355000 -0.080192 0
10.360000 -0.079468 0
10.365000 -0.078633 0
10.370000 -0.077801 0
10.375000 -0.076973 0
10.380000 -0.076150 0
10.385000 -0.075331 0
10.390000 -0.074516 0
10.395000 -0.073705 0
10.400000 -0.072897 0
10.405000 -0.072094 0
10.410000 -0.071295 0
10.415000 -0.070499 0
10.420000 -0.069707 0
10.425000 -0.068918 0
10.430000 -0.068130 0
10.435000 -0.067342 0
10.440000 -0.066551 0
10.445000 -0.065751 0
10.450000 -0.064931 0
10.455000 -0.064077 0
10.460000 -0.063163 0
10.465000 -0.062151 0
10.470000 -0.060983 0
10.475000 -0.059578 0
10.480000 -0.057817 0
10.485000 -0.055544 0
10.490000 -0.052553 0
10.495000 -0.048586 0
10.500000 -0.043334 0
10.505000 -0.036445 0
10.510000 -0.027541 0
10.515000 -0.016246 0
10.520000 -0.002232 0
10.525000 0.014735 0
10.530000 0.034738 0
10.535000 0.057652 0
10.540000 0.083099 0
10.545000 0.110420 0
10.550000 0.138677 0
10.555000 0.166691 0
10.560000 0.193105 0
10.565000 0.216496 0
10.570000 0.235492 0
10.575000 0.248906 0
10.580000 0.255860 0
10.585000 0.255876 1
10.590000 0.248934 0
10.595000 0.235469 0
10.600000 0.216332 0
10.605000 0.192696 0
10.610000 0.165939 0
10.615000 0.137507 0
10.620000 0.108781 0
10.625000 0.080937 0
10.630000 0.054784 0
10.635000 0.030508 0
10.640000 0.007284 0
10.645000 -0.017137 0
10.650000 -0.046375 0
10.655000 -0.084110 0
10.660000 -0.131086 0
10.665000 -0.181440 0
10.670000 -0.220805 0
10.675000 -0.228121 2
10.680000 -0.180361 0
10.685000 -0.057911 0
10.690000 0.149127 0
10.695000 0.430864 0
10.700000 0.745852 0
10.705000 1.020035 0
10.710000 1.169285 3
10.715000 1.140782 0
10.720000 0.941098 0
10.725000 0.631550 0
10.730000 0.295454 0
10.735000 0.002299 0
10.740000 -0.208760 0
10.745000 -0.326368 0
10.750000 -0.358606 4
10.755000 -0.326673 0
10.760000 -0.258937 0
10.765000 -0.182770 0
10.770000 -0.116798 0
10.775000 -0.068037 0
10.780000 -0.034643 0
10.785000 -0.011051 0
10.790000 0.008052 0
10.795000 0.026159 0
10.800000 0.045049 0
10.805000 0.065436 0
10.810000 0.087508 0
10.815000 0.111214 0
10.820000 0.136388 0
10.825000 0.162777 0
10.830000 0.190063 0
10.835000 0.217860 0
10.840000 0.245726 0
10.845000 0.273170 0
10.850000 0.299667 0
10.855000 0.324673 0
10.860000 0.347641 0
10.865000 0.368044 0
10.870000 0.385392 0
10.875000 0.399251 0
10.880000 0.409260 0
10.885000 0.415150 0
10.890000 0.416751 5
10.895000 0.414002 0
10.900000 0.406953 0
10.905000 0.395764 0
10.910000 0.380697 0
10.915000 0.362108 0
10.920000 0.340430 0
10.925000 0.316157 0
10.930000 0.289827 0
10.935000 0.261997 0
10.940000 0.233228 0
10.945000 0.204066 0
10.950000 0.175023 0
10.955000 0.146562 0
10.960000 0.119094 0
10.965000 0.092959 0
10.970000 0.068432 0
10.975000 0.045716 0
10.980000 0.024947 0
10.985000 0.006196 0
10.990000 -0.010523 0
10.995000 -0.025244 0
11.000000 -0.038043 0
11.005000 -0.049029 0
11.010000 -0.058333 0
11.015000 -0.066103 0
11.020000 -0.072494 0
11.025000 -0.077664 0
11.030000 -0.081766 0
11.035000 -0.084948 0
11.040000 -0.087346 0
11.045000 -0.089085 0
11.050000 -0.090276 0
11.055000 -0.091018 0
11.060000 -0.091396 0
11.065000 -0.091481 0
11.070000 -0.091335 0
11.075000 -0.090548 0
11.080000 -0.089657 0
11.085000 -0.088770 0
11.090000 -0.087888 0
11.095000 -0.087010 0
11.100000 -0.086137 0
11.105000 -0.085268 0
11.110000 -0.084403 0
11.115000 -0.083543 0
11.120000 -0.082686 0
11.125000 -0.081834 0
11.130000 -0.080986 0
11.135000 -0.080141 0
11.140000 -0.079300 0
11.145000 -0.078460 0
11.150000 -0.077620 0
11.155000 -0.076777 0
11.160000 -0.075924 0
11.165000 -0.075052 0
11.170000 -0.074144 0
11.175000 -0.073177 0
11.180000 -0.072110 0
11.185000 -0.070888 0
11.190000 -0.069427 0
11.195000 -0.067614 0
11.200000 -0.065292 0
11.205000 -0.062261 0
11.210000 -0.058267 0
11.215000 -0.053009 0
11.220000 -0.046140 0
11.225000 -0.037290 0
11.230000 -0.026090 0
11.235000 -0.012214 0
11.240000 0.004576 0
11.245000 0.024374 0
11.250000 0.047075 0
11.255000 0.072333 0
11.260000 0.099529 0
11.265000 0.127772 0
11.270000 0.155927 0
11.275000 0.182680 0
11.280000 0.206636 0
11.285000 0.226430 0
11.290000 0.240863 0
11.295000 0.249015 0
11.300000 0.250343 1
11.305000 0.244743 0
11.310000 0.232561 0
11.315000 0.214556 0
11.320000 0.191823 0
11.325000 0.165683 0
11.330000 0.137551 0
11.335000 0.108812 0
11.340000 0.080683 0
11.345000 0.054071 0
11.350000 0.029351 0
11.355000 0.006031 0
11.360000 -0.017675 0
11.365000 -0.044992 0
11.370000 -0.079759 0
11.375000 -0.124001 0
11.380000 -0.174377 0
11.385000 -0.219514 0
11.390000 -0.240517 2
11.395000 -0.214833 0
11.400000 -0.121397 0
11.405000 0.053905 0
11.410000 0.310073 0
11.415000 0.619338 0
11.420000 0.920288 0
11.425000 1.129996 0
11.430000 1.178360 3
11.435000 1.044434 0
11.440000 0.769713 0
11.445000 0.434476 0
11.450000 0.118062 0
11.455000 -0.127287 0
11.460000 -0.280181 0
11.465000 -0.342258 4
11.470000 -0.330694 0
11.475000 -0.272433 0
11.480000 -0.196602 0
11.485000 -0.125833 0
11.490000 -0.071210 0
11.495000 -0.033343 0
11.500000 -0.007287 0
11.505000 0.012710 0
11.510000 0.030816 0
11.515000 0.049309 0
11.520000 0.069170 0
11.525000 0.090706 0
11.530000 0.113918 0
11.535000 0.138665 0
11.540000 0.164712 0
11.545000 0.191755 0
11.550000 0.219419 0
11.555000 0.247269 0
11.560000 0.274820 0
11.565000 0.301545 0
11.570000 0.326896 0
11.575000 0.350318 0
11.580000 0.371270 0
11.585000 0.389246 0
11.590000 0.403791 0
11.595000 0.414525 0
11.600000 0.421155 0
11.605000 0.423490 5
11.610000 0.421448 0
11.615000 0.415060 0
11.620000 0.404471 0
11.625000 0.389930 0
11.630000 0.371784 0
11.635000 0.350463 0
11.640000 0.326460 0
11.645000 0.300315 0
11.650000 0.272593 0
11.655000 0.243862 0
11.660000 0.214678 0
11.665000 0.185563 0
11.670000 0.156995 0
11.675000 0.129393 0
11.680000 0.103108 0
11.685000 0.078425 0
11.690000 0.055554 0
11.695000 0.034636 0
11.700000 0.015748 0
11.705000 -0.001094 0
11.710000 -0.015923 0
11.715000 -0.028814 0
11.720000 -0.039877 0
11.725000 -0.049244 0
11.730000 -0.057066 0
11.735000 -0.063499 0
11.740000 -0.068703 0
11.745000 -0.072835 0
11.750000 -0.076042 0
11.755000 -0.078463 0
11.760000 -0.080225 0
11.765000 -0.081439 0
11.770000 -0.082205 0
11.775000 -0.082608 0
11.780000 -0.082720 0
11.785000 -0.082603 0
11.790000 -0.081858 0
11.795000 -0.081010 0
11.800000 -0.080166 0
11.805000 -0.079327 0
11.810000 -0.078492 0
11.815000 -0.077661 0
11.820000 -0.076834 0
11.825000 -0.076012 0
11.830000 -0.075193 0
11.835000 -0.074378 0
11.840000 -0.073568 0
11.845000 -0.072761 0
11.850000 -0.071957 0
11.855000 -0.071156 0
11.860000 -0.070356 0
11.865000 -0.069556 0
11.870000 -0.068751 0
11.875000 -0.067934 0
11.880000 -0.067095 0
11.885000 -0.066216 0
11.890000 -0.065269 0
11.895000 -0.064212 0
11.900000 -0.062981 0
11.905000 -0.061486 0
11.910000 -0.059602 0
11.915000 -0.057161 0
11.920000 -0.053944 0
11.925000 -0.049683 0
11.930000 -0.044058 0
11.935000 -0.036710 0
11.940000 -0.027261 0
11.945000 -0.015344 0
11.950000 -0.000648 0
11.955000 0.017029 0
11.960000 0.037726 0
11.965000 0.061265 0
11.970000 0.087207 0
11.975000 0.114835 0
11.980000 0.143156 0
11.985000 0.170951 0
11.990000 0.196845 0
11.995000 0.219420 0
12.000000 0.237340 0
12.005000 0.249478 0
12.010000 0.255037 1
12.015000 0.253631 0
12.020000 0.245333 0
12.025000 0.230667 0
12.030000 0.210552 0
12.035000 0.186204 0
12.040000 0.159020 0
12.045000 0.130438 0
12.050000 0.101805 0
12.055000 0.074236 0
12.060000 0.048446 0
12.065000 0.024467 0
12.070000 0.001249 0
12.075000 -0.023720 0
12.080000 -0.054198 0
12.085000 -0.093598 0
12.090000 -0.141779 0
12.095000 -0.191511 0
12.100000 -0.227147 2
12.105000 -0.227028 0
12.110000 -0.168418 0
12.115000 -0.032856 0
12.120000 0.187186 0
12.125000 0.477655 0
12.130000 0.791871 0
12.135000 1.052498 0
12.140000 1.177572 3
12.145000 1.122081 0
12.150000 0.901774 0
12.155000 0.583344 0
12.160000 0.249703 0
12.165000 -0.033721 0
12.170000 -0.232191 0
12.175000 -0.337518 0
12.180000 -0.359819 4
12.185000 -0.321535 0
12.190000 -0.251296 0
12.195000 -0.175613 0
12.200000 -0.111611 0
12.205000 -0.064939 0
12.210000 -0.033030 0
12.215000 -0.010207 0
12.220000 0.008645 0
12.225000 0.026785 0
12.230000 0.045827 0
12.235000 0.066403 0
12.240000 0.088663 0
12.245000 0.112540 0
12.250000 0.137859 0
12.255000 0.164362 0
12.260000 0.191722 0
12.265000 0.219552 0
12.270000 0.247404 0
12.275000 0.274787 0
12.280000 0.301174 0
12.285000 0.326023 0
12.290000 0.348792 0
12.295000 0.368956 0
12.300000 0.386031 0
12.305000 0.399592 0
12.310000 0.409286 0
12.315000 0.414851 0
12.320000 0.416128 5
12.325000 0.413064 0
12.330000 0.405715 0
12.335000 0.394251 0
12.340000 0.378938 0
12.345000 0.360136 0
12.350000 0.338282 0
12.355000 0.313871 0
12.360000 0.287440 0
12.365000 0.259546 0
12.370000 0.230746 0
12.375000 0.201583 0
12.380000 0.172563 0
12.385000 0.144147 0
12.390000 0.116740 0
12.395000 0.090677 0
12.400000 0.066230 0
12.405000 0.043598 0
12.410000 0.022913 0
12.415000 0.004243 0
12.420000 -0.012399 0
12.425000 -0.027048 0
12.430000 -0.039783 0
12.435000 -0.050711 0
12.440000 -0.059966 0
12.445000 -0.067693 0
12.450000 -0.074047 0
12.455000 -0.079186 0
12.460000 -0.083263 0
12.465000 -0.086423 0
12.470000 -0.088803 0
12.475000 -0.090528 0
12.480000 -0.091707 0
12.485000 -0.092439 0
12.490000 -0.092807 0
12.495000 -0.092884 0
12.500000 -0.092730 0
12.505000 -0.091936 0
12.510000 -0.091038 0
12.515000 -0.090145 0
12.520000 -0.089256 0
12.525000 -0.088371 0
12.530000 -0.087491 0
12.535000 -0.086615 0
12.540000 -0.085744 0
12.545000 -0.084877 0
12.550000 -0.084014 0
12.555000 -0.083155 0
12.560000 -0.082300 0
12.565000 -0.081449 0
12.570000 -0.080601 0
12.575000 -0.079755 0
12.580000 -0.078909 0
12.585000 -0.078059 0
12.590000 -0.077201 0
12.595000 -0.076323 0
12.600000 -0.075411 0
12.605000 -0.074440 0
12.610000 -0.073373 0
12.615000 -0.072153 0
12.620000 -0.070700 0
12.625000 -0.068901 0
12.630000 -0.066603 0
12.635000 -0.063609 0
12.640000 -0.059670 0
12.645000 -0.054485 0
12.650000 -0.047715 0
12.655000 -0.038990 0
12.660000 -0.027943 0
12.665000 -0.014243 0
12.670000 0.002353 0
12.675000 0.021951 0
12.680000 0.044460 0
12.685000 0.069554 0
12.690000 0.096637 0
12.695000 0.124841 0
12.700000 0.153052 0
12.705000 0.179974 0
12.710000 0.204217 0
12.715000 0.224417 0
12.720000 0.239360 0
12.725000 0.248100 0
12.730000 0.250063 1
12.735000 0.245101 0
12.740000 0.233520 0
12.745000 0.216039 0
12.750000 0.193721 0
12.755000 0.167863 0
12.760000 0.139874 0
12.765000 0.111141 0
12.770000 0.082900 0
12.775000 0.056096 0
12.780000 0.031175 0
12.785000 0.007763 0
12.790000 -0.015754 0
12.795000 -0.042440 0
12.800000 -0.076139 0
12.805000 -0.119264 0
12.810000 -0.169320 0
12.815000 -0.216019 0
12.820000 -0.241322 2
12.825000 -0.222949 0
12.830000 -0.139438 0
12.835000 0.024555 0
12.840000 0.270678 0
12.845000 0.575549 0
12.850000 0.882445 0
12.855000 1.110095 0
12.860000 1.184345 3
12.865000 1.074929 0
12.870000 0.815200 0
12.875000 0.483059 0
12.880000 0.160578 0
12.885000 -0.095439 0
12.890000 -0.259873 0
12.895000 -0.332015 4
12.900000 -0.327630 0
12.905000 -0.273076 0
12.910000 -0.197899 0
12.915000 -0.125938 0
12.920000 -0.069599 0
12.925000 -0.030348 0
12.930000 -0.003503 0
12.935000 0.016797 0
12.940000 0.034923 0
12.945000 0.053310 0
12.950000 0.073025 0
12.955000 0.094414 0
12.960000 0.117491 0
12.965000 0.142122 0
12.970000 0.168075 0
12.975000 0.195048 0
12.980000 0.222667 0
12.985000 0.250496 0
12.990000 0.278048 0
12.995000 0.304795 0
13.000000 0.330183 0
13.005000 0.353655 0
13.010000 0.374664 0
13.015000 0.392697 0
13.020000 0.407297 0
13.025000 0.418077 0
13.030000 0.424742 0
13.035000 0.427097 5
13.040000 0.425058 0
13.045000 0.418656 0
13.050000 0.408036 0
13.055000 0.393450 0
13.060000 0.375250 0
13.065000 0.353867 0
13.070000 0.329801 0
13.075000 0.303595 0
13.080000 0.275819 0
13.085000 0.247046 0
13.090000 0.217835 0
13.095000 0.188712 0
13.100000 0.160155 0
13.105000 0.132583 0
13.110000 0.106350 0
13.115000 0.081736 0
13.120000 0.058950 0
13.125000 0.038132 0
13.130000 0.019353 0
13.135000 0.002628 0
13.140000 -0.012080 0
13.145000 -0.024851 0
13.150000 -0.035797 0
13.155000 -0.045052 0
13.160000 -0.052770 0
13.165000 -0.059107 0
13.170000 -0.064226 0
13.175000 -0.068283 0
13.180000 -0.071426 0
13.185000 -0.073795 0
13.190000 -0.075515 0
13.195000 -0.076697 0
13.200000 -0.077439 0
13.205000 -0.077827 0
13.210000 -0.077931 0
13.215000 -0.077709 0
13.220000 -0.076882 0
13.225000 -0.076059 0
13.230000 -0.075240 0
13.235000 -0.074425 0
13.240000 -0.073615 0
13.245000 -0.072808 0
13.250000 -0.072006 0
13.255000 -0.071207 0
13.260000 -0.070412 0
13.265000 -0.069622 0
13.270000 -0.068834 0
13.275000 -0.068051 0
13.280000 -0.067271 0
13.285000 -0.066492 0
13.290000 -0.065715 0
13.295000 -0.064937 0
13.300000 -0.064152 0
13.305000 -0.063354 0
13.310000 -0.062531 0
13.315000 -0.061663 0
13.320000 -0.060718 0
13.325000 -0.059651 0
13.330000 -0.058392 0
13.335000 -0.056843 0
13.340000 -0.054870 0
13.345000 -0.052290 0
13.350000 -0.048874 0
13.355000 -0.044337 0
13.360000 -0.038346 0
13.365000 -0.030533 0
13.370000 -0.020516 0
13.375000 -0.007934 0
13.380000 0.007502 0
13.385000 0.025959 0
13.390000 0.047425 0
13.395000 0.071652 0
13.400000 0.098125 0
13.405000 0.126039 0
13.410000 0.154327 0
13.415000 0.181706 0
13.420000 0.206765 0
13.425000 0.228087 0
13.430000 0.244373 0
13.435000 0.254575 0
13.440000 0.258008 1
13.445000 0.254423 0
13.450000 0.244037 0
13.455000 0.227510 0
13.460000 0.205876 0
13.465000 0.180433 0
13.470000 0.152617 0
13.475000 0.123862 0
13.480000 0.095463 0
13.485000 0.068432 0
13.490000 0.043292 0
13.495000 0.019750 0
13.500000 -0.003739 0
13.505000 -0.030227 0
13.510000 -0.063651 0
13.515000 -0.106592 0
13.520000 -0.156657 0
13.525000 -0.203396 0
13.530000 -0.228316 2
13.535000 -0.208552 0
13.540000 -0.122187 0
13.545000 0.046123 0
13.550000 0.297017 0
13.555000 0.604416 0
13.560000 0.907577 0
13.565000 1.122270 0
13.570000 1.175681 3
13.575000 1.046449 0
13.580000 0.775106 0
13.585000 0.440582 0
13.590000 0.122113 0
13.595000 -0.127231 0
13.600000 -0.284990 0
13.605000 -0.351823 4
13.610000 -0.344026 0
13.615000 -0.287879 0
13.620000 -0.212372 0
13.625000 -0.140615 0
13.630000 -0.084494 0
13.635000 -0.045291 0
13.640000 -0.018367 0
13.645000 0.002042 0
13.650000 0.020251 0
13.655000 0.038682 0
13.660000 0.058410 0
13.665000 0.079790 0
13.670000 0.102847 0
13.675000 0.127452 0
13.680000 0.153386 0
13.685000 0.180353 0
13.690000 0.207992 0
13.695000 0.235882 0
13.700000 0.263546 0
13.705000 0.290470 0
13.710000 0.316113 0
13.715000 0.339925 0
13.720000 0.361366 0
13.725000 0.379928 0
13.730000 0.395151 0
13.735000 0.406645 0
13.740000 0.414101 0
13.745000 0.417311 5
13.750000 0.416173 0
13.755000 0.410694 0
13.760000 0.400996 0
13.765000 0.387305 0
13.770000 0.369944 0
13.775000 0.349324 0
13.780000 0.325919 0
13.785000 0.300256 0
13.790000 0.272890 0
13.795000 0.244386 0
13.800000 0.215297 0
13.805000 0.186151 0
13.810000 0.157433 0
13.815000 0.129574 0
13.820000 0.102941 0
13.825000 0.077833 0
13.830000 0.054477 0
13.835000 0.033033 0
13.840000 0.013594 0
13.845000 -0.003808 0
13.850000 -0.019192 0
13.855000 -0.032621 0
13.860000 -0.044194 0
13.865000 -0.054038 0
13.870000 -0.062296 0
13.875000 -0.069121 0
13.880000 -0.074671 0
13.885000 -0.079104 0
13.890000 -0.082568 0
13.895000 -0.085206 0
13.900000 -0.087145 0
13.905000 -0.088502 0
13.910000 -0.089381 0
13.915000 -0.089869 0
13.920000 -0.090043 0
13.925000 -0.089968 0
13.930000 -0.089198 0
13.935000 -0.088313 0
13.940000 -0.087434 0
13.945000 -0.086558 0
13.950000 -0.085687 0
13.955000 -0.084820 0
13.960000 -0.083958 0
13.965000 -0.083099 0
13.970000 -0.082245 0
13.975000 -0.081396 0
13.980000 -0.080550 0
13.985000 -0.079708 0
13.990000 -0.078870 0
13.995000 -0.078035 0
14.000000 -0.077203 0
14.005000 -0.076371 0
14.010000 -0.075536 0
14.015000 -0.074694 0
14.020000 -0.073835 0
14.025000 -0.072946 0
14.030000 -0.072005 0
14.035000 -0.070975 0
14.040000 -0.069807 0
14.045000 -0.068424 0
14.050000 -0.066719 0
14.055000 -0.064549 0
14.060000 -0.061723 0
14.065000 -0.058001 0
14.070000 -0.053089 0
14.075000 -0.046652 0
14.080000 -0.038321 0
14.085000 -0.027722 0
14.090000 -0.014514 0
14.095000 0.001570 0
14.100000 0.020661 0
14.105000 0.042706 0
14.110000 0.067416 0
14.115000 0.094235 0
14.120000 0.122328 0
14.125000 0.150606 0
14.130000 0.177785 0
14.135000 0.202471 0
14.140000 0.223278 0
14.145000 0.238953 0
14.150000 0.248503 0
14.155000 0.251297 1
14.160000 0.247135 0
14.165000 0.236268 0
14.170000 0.219379 0
14.175000 0.197505 0
14.180000 0.171936 0
14.185000 0.144085 0
14.190000 0.115359 0
14.195000 0.087022 0
14.200000 0.060061 0
14.205000 0.034978 0
14.210000 0.011479 0
14.215000 -0.011955 0
14.220000 -0.038311 0
14.225000 -0.071459 0
14.230000 -0.114023 0
14.235000 -0.163889 0
14.240000 -0.211169 0
14.245000 -0.238035 2
14.250000 -0.222127 0
14.255000 -0.141666 0
14.260000 0.019185 0
14.265000 0.262778 0
14.270000 0.566556 0
14.275000 0.874319 0
14.280000 1.104490 0
14.285000 1.181782 3
14.290000 1.075114 0
14.295000 0.817152 0
14.300000 0.485462 0
14.305000 0.162370 0
14.310000 -0.094820 0
14.315000 -0.260564 0
14.320000 -0.333874 4
14.325000 -0.330338 0
14.330000 -0.276232 0
14.335000 -0.201136 0
14.340000 -0.129023 0
14.345000 -0.072457 0
14.350000 -0.033014 0
14.355000 -0.006050 0
14.360000 0.014307 0
14.365000 0.032452 0
14.370000 0.050840 0
14.375000 0.070551 0
14.380000 0.091933 0
14.385000 0.115007 0
14.390000 0.139635 0
14.395000 0.165589 0
14.400000 0.192565 0
14.405000 0.220191 0
14.410000 0.248032 0
14.415000 0.275599 0
14.420000 0.302365 0
14.425000 0.327777 0
14.430000 0.351275 0
14.435000 0.372313 0
14.440000 0.390378 0
14.445000 0.405011 0
14.450000 0.415826 0
14.455000 0.422525 0
14.460000 0.424913 5
14.465000 0.422906 0
14.470000 0.416535 0
14.475000 0.405943 0
14.480000 0.391384 0
14.485000 0.373206 0
14.490000 0.351844 0
14.495000 0.327795 0
14.500000 0.301605 0
14.505000 0.273842 0
14.510000 0.245081 0
14.515000 0.215881 0
14.520000 0.186767 0
14.525000 0.158219 0
14.530000 0.130656 0
14.535000 0.104431 0
14.540000 0.079826 0
14.545000 0.057050 0
14.550000 0.036241 0
14.555000 0.017473 0
14.560000 0.000759 0
14.565000 -0.013938 0
14.570000 -0.026697 0
14.575000 -0.037630 0
14.580000 -0.046874 0
14.585000 -0.054578 0
14.590000 -0.060904 0
14.595000 -0.066010 0
14.600000 -0.070055 0
14.605000 -0.073187 0
14.610000 -0.075544 0
14.615000 -0.077253 0
14.620000 -0.078424 0
14.625000 -0.079156 0
14.630000 -0.079533 0
14.635000 -0.079628 0
14.640000 -0.079396 0
14.645000 -0.078561 0
14.650000 -0.077729 0
14.655000 -0.076902 0
14.660000 -0.076079 0
14.665000 -0.075260 0
14.670000 -0.074446 0
14.675000 -0.073635 0
14.680000 -0.072828 0
14.685000 -0.072025 0
14.690000 -0.071227 0
14.695000 -0.070431 0
14.700000 -0.069640 0
14.705000 -0.068852 0
14.710000 -0.068066 0
14.715000 -0.067281 0
14.720000 -0.066494 0
14.725000 -0.065702 0
14.730000 -0.064896 0
14.735000 -0.064064 0
14.740000 -0.063188 0
14.745000 -0.062234 0
14.750000 -0.061158 0
14.755000 -0.059888 0
14.760000 -0.058328 0
14.765000 -0.056340 0
14.770000 -0.053743 0
14.775000 -0.050306 0
14.780000 -0.045744 0
14.785000 -0.039722 0
14.790000 -0.031872 0
14.795000 -0.021811 0
14.800000 -0.009181 0
14.805000 0.006308 0
14.810000 0.024821 0
14.815000 0.046341 0
14.820000 0.070618 0
14.825000 0.097129 0
14.830000 0.125067 0
14.835000 0.153358 0
14.840000 0.180715 0
14.845000 0.205727 0
14.850000 0.226975 0
14.855000 0.243164 0
14.860000 0.253251 0
14.865000 0.256558 1
14.870000 0.252845 0
14.875000 0.242337 0
14.880000 0.225704 0
14.885000 0.203985 0
14.890000 0.178486 0
14.895000 0.150643 0
14.900000 0.121890 0
14.905000 0.093518 0
14.910000 0.066532 0
14.915000 0.041440 0
14.920000 0.017928 0
14.925000 -0.005583 0
14.930000 -0.032180 0
14.935000 -0.065802 0
14.940000 -0.108960 0
14.945000 -0.159096 0
14.950000 -0.205547 0
14.955000 -0.229645 2
14.960000 -0.208470 0
14.965000 -0.120187 0
14.970000 0.050307 0
14.975000 0.303128 0
14.980000 0.611341 0
14.985000 0.913300 0
14.990000 1.124498 0
14.995000 1.172975 3
15.000000 1.039901 0
15.005000 0.766943 0
15.010000 0.432243 0
15.015000 0.113797 0
15.020000 -0.136107 0
15.025000 -0.295166 0
15.030000 -0.363777 4
15.035000 -0.357734 0
15.040000 -0.302752 0
15.045000 -0.227465 0
15.050000 -0.155062 0
15.055000 -0.097851 0
15.060000 -0.057593 0
15.065000 -0.029927 0
15.070000 -0.009134 0
15.075000 0.009192 0
15.080000 0.027586 0
15.085000 0.047202 0
15.090000 0.068440 0
15.095000 0.091348 0
15.100000 0.115814 0
15.105000 0.141629 0
15.110000 0.168512 0
15.115000 0.196118 0
15.120000 0.224036 0
15.125000 0.251808 0
15.130000 0.278930 0
15.135000 0.304873 0
15.140000 0.329096 0
15.145000 0.351062 0
15.150000 0.370265 0
15.155000 0.386239 0
15.160000 0.398586 0
15.165000 0.406982 0
15.170000 0.411201 5
15.175000 0.411116 0
15.180000 0.406711 0
15.185000 0.398077 0
15.190000 0.385414 0
15.195000 0.369016 0
15.200000 0.349266 0
15.205000 0.326618 0
15.210000 0.301577 0
15.215000 0.274684 0
15.220000 0.246496 0
15.225000 0.217563 0
15.230000 0.188414 0
15.235000 0.159544 0
15.240000 0.131394 0
15.245000 0.104347 0
15.250000 0.078720 0
15.255000 0.054764 0
15.260000 0.032657 0
15.265000 0.012514 0
15.270000 -0.005611 0
15.275000 -0.021719 0
15.280000 -0.035858 0
15.285000 -0.048112 0
15.290000 -0.058597 0
15.295000 -0.067446 0
15.300000 -0.074810 0
15.305000 -0.080842 0
15.310000 -0.085698 0
15.315000 -0.089530 0
15.320000 -0.092479 0
15.325000 -0.094679 0
15.330000 -0.096251 0
15.335000 -0.097301 0
15.340000 -0.097923 0
15.345000 -0.098200 0
15.350000 -0.098200 0
15.355000 -0.097877 0
15.360000 -0.096949 0
15.365000 -0.096026 0
15.370000 -0.095108 0
15.375000 -0.094194 0
15.380000 -0.093285 0
15.385000 -0.092380 0
15.390000 -0.091480 0
15.395000 -0.090584 0
15.400000 -0.089693 0
15.405000 -0.088806 0
15.410000 -0.087923 0
15.415000 -0.087045 0
15.420000 -0.086170 0
15.425000 -0.085298 0
15.430000 -0.084428 0
15.435000 -0.083558 0
15.440000 -0.082683 0
15.445000 -0.081799 0
15.450000 -0.080895 0
15.455000 -0.079954 0
15.460000 -0.078950 0
15.465000 -0.077844 0
15.470000 -0.076578 0
15.475000 -0.075068 0
15.480000 -0.073199 0
15.485000 -0.070813 0
15.490000 -0.067709 0
15.495000 -0.063634 0
15.500000 -0.058287 0
15.505000 -0.051324 0
15.510000 -0.042378 0
15.515000 -0.031086 0
15.520000 -0.017125 0
15.525000 -0.000263 0
15.530000 0.019591 0
15.535000 0.042330 0
15.540000 0.067610 0
15.545000 0.094820 0
15.550000 0.123079 0
15.555000 0.151267 0
15.560000 0.178088 0
15.565000 0.202160 0
15.570000 0.222132 0
15.575000 0.236809 0
15.580000 0.245269 0
15.585000 0.246957 1
15.590000 0.241749 0
15.595000 0.229962 0
15.600000 0.212326 0
15.605000 0.189904 0
15.610000 0.163992 0
15.615000 0.135989 0
15.620000 0.107271 0
15.625000 0.079062 0
15.630000 0.052295 0
15.635000 0.027407 0
15.640000 0.004018 0
15.645000 -0.019481 0
15.650000 -0.046136 0
15.655000 -0.079766 0
15.660000 -0.122787 0
15.665000 -0.172786 0
15.670000 -0.219644 0
15.675000 -0.245544 2
15.680000 -0.228388 0
15.685000 -0.146780 0
15.690000 0.014759 0
15.695000 0.258422 0
15.700000 0.561984 0
15.705000 0.870282 0
15.710000 1.103061 0
15.715000 1.185499 3
15.720000 1.085165 0
15.725000 0.832171 0
15.730000 0.502019 0
15.735000 0.176608 0
15.740000 -0.085766 0
15.745000 -0.258099 0
15.750000 -0.338039 0
15.755000 -0.339940 4
15.760000 -0.289101 0
15.765000 -0.214790 0
15.770000 -0.141537 0
15.775000 -0.082988 0
15.780000 -0.041694 0
15.785000 -0.013497 0
15.790000 0.007449 0
15.795000 0.025732 0
15.800000 0.044014 0
15.805000 0.063511 0
15.810000 0.084642 0
15.815000 0.107462 0
15.820000 0.131856 0
15.825000 0.157611 0
15.830000 0.184441 0
15.835000 0.211989 0
15.840000 0.239838 0
15.845000 0.267516 0
15.850000 0.294509 0
15.855000 0.320275 0
15.860000 0.344263 0
15.865000 0.365928 0
15.870000 0.384755 0
15.875000 0.400277 0
15.880000 0.412094 0
15.885000 0.419889 0
15.890000 0.423442 5
15.895000 0.422642 0
15.900000 0.417486 0
15.905000 0.408087 0
15.910000 0.394664 0
15.915000 0.377536 0
15.920000 0.357108 0
15.925000 0.333852 0
15.930000 0.308295 0
15.935000 0.280993 0
15.940000 0.252513 0
15.945000 0.223412 0
15.950000 0.194224 0
15.955000 0.165438 0
15.960000 0.137490 0
15.965000 0.110753 0
15.970000 0.085530 0
15.975000 0.062054 0
15.980000 0.040489 0
15.985000 0.020929 0
15.990000 0.003412 0
15.995000 -0.012081 0
16.000000 -0.025612 0
16.005000 -0.037279 0
16.010000 -0.047208 0
16.015000 -0.055542 0
16.020000 -0.062436 0
16.025000 -0.068048 0
16.030000 -0.072537 0
16.035000 -0.076051 0
16.040000 -0.078734 0
16.045000 -0.080716 0
16.050000 -0.082112 0
16.055000 -0.083026 0
16.060000 -0.083549 0
16.065000 -0.083757 0
16.070000 -0.083714 0
16.075000 -0.082975 0
16.080000 -0.082121 0
16.085000 -0.081272 0
16.090000 -0.080428 0
16.095000 -0.079587 0
16.100000 -0.078751 0
16.105000 -0.077918 0
16.110000 -0.077090 0
16.115000 -0.076266 0
16.120000 -0.075446 0
16.125000 -0.074630 0
16.130000 -0.073818 0
16.135000 -0.073010 0
16.140000 -0.072204 0
16.145000 -0.071400 0
16.150000 -0.070597 0
16.155000 -0.069791 0
16.160000 -0.068977 0
16.165000 -0.068146 0
16.170000 -0.067283 0
16.175000 -0.066366 0
16.180000 -0.065360 0
16.185000 -0.064210 0
16.190000 -0.062841 0
16.195000 -0.061143 0
16.200000 -0.058969 0
16.205000 -0.056124 0
16.210000 -0.052364 0
16.215000 -0.047393 0
16.220000 -0.040870 0
16.225000 -0.032422 0
16.230000 -0.021677 0
16.235000 -0.008293 0
16.240000 0.007988 0
16.245000 0.027287 0
16.250000 0.049534 0
16.255000 0.074417 0
16.260000 0.101355 0
16.265000 0.129486 0
16.270000 0.157698 0
16.275000 0.184685 0
16.280000 0.209043 0
16.285000 0.229387 0
16.290000 0.244479 0
16.295000 0.253351 0
16.300000 0.255411 1
16.305000 0.250503 0
16.310000 0.238929 0
16.315000 0.221417 0
16.320000 0.199041 0
16.325000 0.173117 0
16.330000 0.145072 0
16.335000 0.116307 0
16.340000 0.088071 0
16.345000 0.061305 0
16.350000 0.036436 0
16.355000 0.013037 0
16.360000 -0.010602 0
16.365000 -0.037658 0
16.370000 -0.072015 0
16.375000 -0.115881 0
16.380000 -0.166199 0
16.385000 -0.211842 0
16.390000 -0.233978 2
16.395000 -0.209906 0
16.400000 -0.118272 0
16.405000 0.055392 0
16.410000 0.310459 0
16.415000 0.619391 0
16.420000 0.920597 0
16.425000 1.130521 0
16.430000 1.178436 3
16.435000 1.045129 0
16.440000 0.771942 0
16.445000 0.437163 0
16.450000 0.118857 0
16.455000 -0.130718 0
16.460000 -0.289338 0
16.465000 -0.357493 4
16.470000 -0.351073 0
16.475000 -0.295874 0
16.480000 -0.220563 0
16.485000 -0.148290 0
16.490000 -0.091278 0
16.495000 -0.051208 0
16.500000 -0.023678 0
16.505000 -0.002966 0
16.510000 0.015320 0
16.515000 0.033695 0
16.520000 0.053303 0
16.525000 0.074537 0
16.530000 0.097442 0
16.535000 0.121903 0
16.540000 0.147711 0
16.545000 0.174583 0
16.550000 0.202170 0
16.555000 0.230063 0
16.560000 0.257799 0
16.565000 0.284876 0
16.570000 0.310760 0
16.575000 0.334911 0
16.580000 0.356793 0
16.585000 0.375897 0
16.590000 0.391760 0
16.595000 0.403984 0
16.600000 0.412248 0
16.605000 0.416326 5
16.610000 0.416096 0
16.615000 0.411543 0
16.620000 0.402763 0
16.625000 0.389957 0
16.630000 0.373426 0
16.635000 0.353552 0
16.640000 0.330793 0
16.645000 0.305658 0
16.650000 0.278688 0
16.655000 0.250439 0
16.660000 0.221465 0
16.665000 0.192294 0
16.670000 0.163418 0
16.675000 0.135278 0
16.680000 0.108255 0
16.685000 0.082666 0
16.690000 0.058755 0
16.695000 0.036702 0
16.700000 0.016618 0
16.705000 -0.001446 0
16.710000 -0.017493 0
16.715000 -0.031572 0
16.720000 -0.043770 0
16.725000 -0.054201 0
16.730000 -0.063004 0
16.735000 -0.070326 0
16.740000 -0.076322 0
16.745000 -0.081150 0
16.750000 -0.084958 0
16.755000 -0.087891 0
16.760000 -0.090080 0
16.765000 -0.091646 0
16.770000 -0.092695 0
16.775000 -0.093320 0
16.780000 -0.093604 0
16.785000 -0.093613 0
16.790000 -0.093304 0
16.795000 -0.092399 0
16.800000 -0.091499 0
16.805000 -0.090603 0
16.810000 -0.089712 0
16.815000 -0.088825 0
16.820000 -0.087942 0
16.825000 -0.087064 0
16.830000 -0.086191 0
16.835000 -0.085321 0
16.840000 -0.084456 0
16.845000 -0.083595 0
16.850000 -0.082738 0
16.855000 -0.081884 0
16.860000 -0.081034 0
16.865000 -0.080185 0
16.870000 -0.079335 0
16.875000 -0.078482 0
16.880000 -0.077617 0
16.885000 -0.076731 0
16.890000 -0.075807 0
16.895000 -0.074818 0
16.900000 -0.073723 0
16.905000 -0.072462 0
16.910000 -0.070951 0
16.915000 -0.069069 0
16.920000 -0.066657 0
16.925000 -0.063509 0
16.930000 -0.059368 0
16.935000 -0.053928 0
16.940000 -0.046843 0
16.945000 -0.037745 0
16.950000 -0.026271 0
16.955000 -0.012104 0
16.960000 0.004980 0
16.965000 0.025057 0
16.970000 0.048004 0
16.975000 0.073453 0
16.980000 0.100770 0
16.985000 0.129051 0
16.990000 0.157158 0
16.995000 0.183779 0
17.000000 0.207529 0
17.005000 0.227065 0
17.010000 0.241208 0
17.015000 0.249063 0
17.020000 0.250113 1
17.025000 0.244272 0
17.030000 0.231898 0
17.035000 0.213755 0
17.040000 0.190935 0
17.045000 0.164751 0
17.050000 0.136606 0
17.055000 0.107871 0
17.060000 0.079749 0
17.065000 0.053139 0
17.070000 0.028413 0
17.075000 0.005091 0
17.080000 -0.018580 0
17.085000 -0.045776 0
17.090000 -0.080309 0
17.095000 -0.124276 0
17.100000 -0.174576 0
17.105000 -0.220227 0
17.110000 -0.242739 2
17.115000 -0.219818 0
17.120000 -0.130399 0
17.125000 0.040036 0
17.130000 0.291664 0
17.135000 0.598952 0
17.140000 0.903168 0
17.145000 1.122711 0
17.150000 1.185678 3
17.155000 1.064901 0
17.160000 0.797409 0
17.165000 0.463377 0
17.170000 0.144458 0
17.175000 -0.104569 0
17.180000 -0.260736 0
17.185000 -0.325040 4
17.190000 -0.314608 0
17.195000 -0.256713 0
17.200000 -0.180975 0
17.205000 -0.110398 0
17.210000 -0.056154 0
17.215000 -0.018729 0
17.220000 0.006967 0
17.225000 0.026750 0
17.230000 0.044771 0
17.235000 0.063263 0
17.240000 0.083170 0
17.245000 0.104775 0
17.250000 0.128064 0
17.255000 0.152883 0
17.260000 0.178990 0
17.265000 0.206064 0
17.270000 0.233718 0
17.275000 0.261504 0
17.280000 0.288922 0
17.285000 0.315432 0
17.290000 0.340474 0
17.295000 0.363485 0
17.300000 0.383919 0
17.305000 0.401268 0
17.310000 0.415083 0
17.315000 0.424991 0
17.320000 0.430715 0
17.325000 0.432081 5
17.330000 0.429030 0
17.335000 0.421620 0
17.340000 0.410022 0
17.345000 0.394515 0
17.350000 0.375474 0
17.355000 0.353353 0
17.360000 0.328668 0
17.365000 0.301978 0
17.370000 0.273860 0
17.375000 0.244889 0
17.380000 0.215624 0
17.385000 0.186582 0
17.390000 0.158231 0
17.395000 0.130977 0
17.400000 0.105154 0
17.405000 0.081027 0
17.410000 0.058784 0
17.415000 0.038546 0
17.420000 0.020367 0
17.425000 0.004243 0
17.430000 -0.009875 0
17.435000 -0.022080 0
17.440000 -0.032493 0
17.445000 -0.041256 0
17.450000 -0.048527 0
17.455000 -0.054467 0
17.460000 -0.059236 0
17.465000 -0.062991 0
17.470000 -0.065879 0
17.475000 -0.068035 0
17.480000 -0.069580 0
17.485000 -0.070622 0
17.490000 -0.071256 0
17.495000 -0.071561 0
17.500000 -0.071605 0
17.505000 -0.071353 0
17.510000 -0.070558 0
17.515000 -0.069767 0
17.520000 -0.068979 0
17.525000 -0.068196 0
17.530000 -0.067416 0
17.535000 -0.066640 0
17.540000 -0.065869 0
17.545000 -0.065101 0
17.550000 -0.064336 0
17.555000 -0.063576 0
17.560000 -0.062819 0
17.565000 -0.062065 0
17.570000 -0.061314 0
17.575000 -0.060564 0
17.580000 -0.059815 0
17.585000 -0.059062 0
17.590000 -0.058300 0
17.595000 -0.057519 0
17.600000 -0.056705 0
17.605000 -0.055832 0
17.610000 -0.054862 0
17.615000 -0.053739 0
17.620000 -0.052379 0
17.625000 -0.050666 0
17.630000 -0.048442 0
17.635000 -0.045500 0
17.640000 -0.041578 0
17.645000 -0.036366 0
17.650000 -0.029506 0
17.655000 -0.020615 0
17.660000 -0.009314 0
17.665000 0.004729 0
17.670000 0.021749 0
17.675000 0.041823 0
17.680000 0.064817 0
17.685000 0.090337 0
17.690000 0.117704 0
17.695000 0.145953 0
17.700000 0.173877 0
17.705000 0.200096 0
17.710000 0.223168 0
17.715000 0.241713 0
17.720000 0.254552 0
17.725000 0.260828 1
17.730000 0.260102 0
17.735000 0.252399 0
17.740000 0.238210 0
17.745000 0.218437 0
17.750000 0.194302 0
17.755000 0.167213 0
17.760000 0.138635 0
17.765000 0.109945 0
17.770000 0.082291 0
17.775000 0.056416 0
17.780000 0.032374 0
17.785000 0.009117 0
17.790000 -0.015896 0
17.795000 -0.046484 0
17.800000 -0.086095 0
17.805000 -0.134481 0
17.810000 -0.184069 0
17.815000 -0.218674 2
17.820000 -0.216124 0
17.825000 -0.153395 0
17.830000 -0.012166 0
17.835000 0.214093 0
17.840000 0.508854 0
17.845000 0.821606 0
17.850000 1.071812 0
17.855000 1.178023 3
17.860000 1.100806 0
17.865000 0.863626 0
17.870000 0.538463 0
17.875000 0.208685 0
17.880000 -0.063454 0
17.885000 -0.247235 0
17.890000 -0.337769 0
17.895000 -0.347759 4
17.900000 -0.301578 0
17.905000 -0.228547 0
17.910000 -0.154226 0
17.915000 -0.093677 0
17.920000 -0.050554 0
17.925000 -0.021171 0
17.930000 0.000335 0
17.935000 0.018771 0
17.940000 0.037001 0
17.945000 0.056365 0
17.950000 0.077345 0
17.955000 0.100020 0
17.960000 0.124288 0
17.965000 0.149944 0
17.970000 0.176707 0
17.975000 0.204228 0
17.980000 0.232093 0
17.985000 0.259834 0
17.990000 0.286939 0
17.995000 0.312867 0
18.000000 0.337064 0
18.005000 0.358984 0
18.010000 0.378106 0
18.015000 0.393957 0
18.020000 0.406129 0
18.025000 0.414297 0
18.030000 0.418233 5
18.035000 0.417813 0
18.040000 0.413028 0
18.045000 0.403981 0
18.050000 0.390884 0
18.055000 0.374049 0
18.060000 0.353876 0
18.065000 0.330834 0
18.070000 0.305448 0
18.075000 0.278274 0
18.080000 0.249880 0
18.085000 0.220828 0
18.090000 0.191653 0
18.095000 0.162849 0
18.100000 0.134858 0
18.105000 0.108057 0
18.110000 0.082755 0
18.115000 0.059191 0
18.120000 0.037531 0
18.125000 0.017876 0
18.130000 0.000265 0
18.135000 -0.015317 0
18.140000 -0.028930 0
18.145000 -0.040671 0
18.150000 -0.050665 0
18.155000 -0.059054 0
18.160000 -0.065994 0
18.165000 -0.071644 0
18.170000 -0.076160 0
18.175000 -0.079695 0
18.180000 -0.082392 0
18.185000 -0.084381 0
18.190000 -0.085780 0
18.195000 -0.086693 0
18.200000 -0.087210 0
18.205000 -0.087409 0
18.210000 -0.087356 0
18.215000 -0.086600 0
18.220000 -0.085729 0
18.225000 -0.084862 0
18.230000 -0.083999 0
18.235000 -0.083140 0
18.240000 -0.082286 0
18.245000 -0.081436 0
18.250000 -0.080591 0
18.255000 -0.079749 0
18.260000 -0.078912 0
18.265000 -0.078079 0
18.270000 -0.077249 0
18.275000 -0.076424 0
18.280000 -0.075601 0
18.285000 -0.074781 0
18.290000 -0.073960 0
18.295000 -0.073138 0
18.300000 -0.072307 0
18.305000 -0.071459 0
18.310000 -0.070581 0
18.315000 -0.069648 0
18.320000 -0.068626 0
18.325000 -0.067461 0
18.330000 -0.066075 0
18.335000 -0.064362 0
18.340000 -0.062171 0
18.345000 -0.059309 0
18.350000 -0.055530 0
18.355000 -0.050537 0
18.360000 -0.043987 0
18.365000 -0.035509 0
18.370000 -0.024727 0
18.375000 -0.011299 0
18.380000 0.005031 0
18.385000 0.024383 0
18.390000 0.046685 0
18.395000 0.071621 0
18.400000 0.098602 0
18.405000 0.126761 0
18.410000 0.154978 0
18.415000 0.181942 0
18.420000 0.206243 0
18.425000 0.226495 0
18.430000 0.241460 0
18.435000 0.250178 0
18.440000 0.252065 1
18.445000 0.246976 0
18.450000 0.235229 0
18.455000 0.217562 0
18.460000 0.195065 0
18.465000 0.169062 0
18.470000 0.140983 0
18.475000 0.112233 0
18.480000 0.084052 0
18.485000 0.057372 0
18.490000 0.032593 0
18.495000 0.009242 0
18.500000 -0.014455 0
18.505000 -0.041743 0
18.510000 -0.076501 0
18.515000 -0.120785 0
18.520000 -0.171189 0
18.525000 -0.216141 0
18.530000 -0.236453 2
18.535000 -0.209303 0
18.540000 -0.113497 0
18.545000 0.064897 0
18.550000 0.324080 0
18.555000 0.634575 0
18.560000 0.932775 0
18.565000 1.134533 0
18.570000 1.171080 3
18.575000 1.025132 0
18.580000 0.742574 0
18.585000 0.406157 0
18.590000 0.094704 0
18.595000 -0.141828 0
18.600000 -0.284490 0
18.605000 -0.336949 4
18.610000 -0.318085 0
18.615000 -0.255975 0
18.620000 -0.179775 0
18.625000 -0.110995 0
18.630000 -0.059132 0
18.635000 -0.023589 0
18.640000 0.001051 0
18.645000 0.020452 0
18.650000 0.038486 0
18.655000 0.057171 0
18.660000 0.077333 0
18.665000 0.099200 0
18.670000 0.122737 0
18.675000 0.147776 0
18.680000 0.174064 0
18.685000 0.201273 0
18.690000 0.229010 0
18.695000 0.256820 0
18.700000 0.284197 0
18.705000 0.310600 0
18.710000 0.335469 0
18.715000 0.358242 0
18.720000 0.378379 0
18.725000 0.395377 0
18.730000 0.408797 0
18.735000 0.418277 0
18.740000 0.423552 0
18.745000 0.424461 5
18.750000 0.420957 0
18.755000 0.413112 0
18.760000 0.401108 0
18.765000 0.385236 0
18.770000 0.365878 0
18.775000 0.343495 0
18.780000 0.318610 0
18.785000 0.291780 0
18.790000 0.263583 0
18.795000 0.234594 0
18.800000 0.205365 0
18.805000 0.176409 0
18.810000 0.148186 0
18.815000 0.121096 0
18.820000 0.095465 0
18.825000 0.071548 0
18.830000 0.049529 0
18.835000 0.029520 0
18.840000 0.011569 0
18.845000 -0.004329 0
18.850000 -0.018233 0
18.855000 -0.030234 0
18.860000 -0.040458 0
18.865000 -0.049047 0
18.870000 -0.056160 0
18.875000 -0.061956 0
18.880000 -0.066598 0
18.885000 -0.070239 0
18.890000 -0.073026 0
18.895000 -0.075092 0
18.900000 -0.076558 0
18.905000 -0.077530 0
18.910000 -0.078101 0
18.915000 -0.078349 0
18.920000 -0.078342 0
18.925000 -0.077631 0
18.930000 -0.076804 0
18.935000 -0.075981 0
18.940000 -0.075163 0
18.945000 -0.074349 0
18.950000 -0.073538 0
18.955000 -0.072732 0
18.960000 -0.071930 0
18.965000 -0.071132 0
18.970000 -0.070337 0
18.975000 -0.069547 0
18.980000 -0.068760 0
18.985000 -0.067977 0
18.990000 -0.067196 0
18.995000 -0.066417 0
19.000000 -0.065638 0
19.005000 -0.064855 0
19.010000 -0.064063 0
19.015000 -0.063252 0
19.020000 -0.062406 0
19.025000 -0.061501 0
19.030000 -0.060496 0
19.035000 -0.059333 0
19.040000 -0.057930 0
19.045000 -0.056166 0
19.050000 -0.053882 0
19.055000 -0.050869 0
19.060000 -0.046864 0
19.065000 -0.041552 0
19.070000 -0.034576 0
19.075000 -0.025553 0
19.080000 -0.014107 0
19.085000 0.000092 0
19.090000 0.017272 0
19.095000 0.037502 0
19.100000 0.060638 0
19.105000 0.086275 0
19.110000 0.113722 0
19.115000 0.142008 0
19.120000 0.169919 0
19.125000 0.196073 0
19.130000 0.219029 0
19.135000 0.237417 0
19.140000 0.250070 0
19.145000 0.256144 1
19.150000 0.255216 0
19.155000 0.247326 0
19.160000 0.232978 0
19.165000 0.213085 0
19.170000 0.188870 0
19.175000 0.161746 0
19.180000 0.133172 0
19.185000 0.104518 0
19.190000 0.076924 0
19.195000 0.051117 0
19.200000 0.027133 0
19.205000 0.003894 0
19.210000 -0.021166 0
19.215000 -0.051875 0
19.220000 -0.091640 0
19.225000 -0.140112 0
19.230000 -0.189586 0
19.235000 -0.223782 2
19.240000 -0.220518 0
19.245000 -0.156840 0
19.250000 -0.014565 0
19.255000 0.212625 0
19.260000 0.507908 0
19.265000 0.820510 0
19.270000 1.069870 0
19.275000 1.174855 3
19.280000 1.098084 0
19.285000 0.863000 0
19.290000 0.539202 0
19.295000 0.208067 0
19.300000 -0.068554 0
19.305000 -0.259096 0
19.310000 -0.357312 0
19.315000 -0.374334 4
19.320000 -0.332989 0
19.325000 -0.261677 0
19.330000 -0.186200 0
19.335000 -0.122870 0
19.340000 -0.076791 0
19.345000 -0.045207 0
19.350000 -0.022484 0
19.355000 -0.003608 0
19.360000 0.014597 0
19.365000 0.033709 0
19.370000 0.054345 0
19.375000 0.076653 0
19.380000 0.100569 0
19.385000 0.125918 0
19.390000 0.152450 0
19.395000 0.179844 0
19.400000 0.207717 0
19.405000 0.235631 0
19.410000 0.263103 0
19.415000 0.289615 0
19.420000 0.314631 0
19.425000 0.337615 0
19.430000 0.358049 0
19.435000 0.375451 0
19.440000 0.389394 0
19.445000 0.399525 0
19.450000 0.405576 0
19.455000 0.407378 5
19.460000 0.404866 0
19.465000 0.398086 0
19.470000 0.387189 0
19.475000 0.372428 0
19.480000 0.354147 0
19.485000 0.332765 0
19.490000 0.308765 0
19.495000 0.282672 0
19.500000 0.255033 0
19.505000 0.226399 0
19.510000 0.197311 0
19.515000 0.168275 0
19.520000 0.139757 0
19.525000 0.112167 0
19.530000 0.085850 0
19.535000 0.061087 0
19.540000 0.038091 0
19.545000 0.017005 0
19.550000 -0.002088 0
19.555000 -0.019164 0
19.560000 -0.034248 0
19.565000 -0.047407 0
19.570000 -0.058741 0
19.575000 -0.068375 0
19.580000 -0.076451 0
19.585000 -0.083121 0
19.590000 -0.088539 0
19.595000 -0.092858 0
19.600000 -0.096225 0
19.605000 -0.098777 0
19.610000 -0.100641 0
19.615000 -0.101930 0
19.620000 -0.102745 0
19.625000 -0.103173 0
19.630000 -0.103289 0
19.635000 -0.103157 0
19.640000 -0.102322 0
19.645000 -0.101373 0
19.650000 -0.100428 0
19.655000 -0.099487 0
19.660000 -0.098552 0
19.665000 -0.097621 0
19.670000 -0.096694 0
19.675000 -0.095773 0
19.680000 -0.094855 0
19.685000 -0.093943 0
19.690000 -0.093035 0
19.695000 -0.092131 0
19.700000 -0.091231 0
19.705000 -0.090335 0
19.710000 -0.089441 0
19.715000 -0.088549 0
19.720000 -0.087655 0
19.725000 -0.086756 0
19.730000 -0.085843 0
19.735000 -0.084905 0
19.740000 -0.083921 0
19.745000 -0.082862 0
19.750000 -0.081681 0
19.755000 -0.080313 0
19.760000 -0.078662 0
19.765000 -0.076599 0
19.770000 -0.073953 0
19.775000 -0.070503 0
19.780000 -0.065981 0
19.785000 -0.060071 0
19.790000 -0.052421 0
19.795000 -0.042663 0
19.800000 -0.030446 0
19.805000 -0.015475 0
19.810000 0.002438 0
19.815000 0.023321 0
19.820000 0.046992 0
19.825000 0.073020 0
19.830000 0.100707 0
19.835000 0.129094 0
19.840000 0.157001 0
19.845000 0.183101 0
19.850000 0.206018 0
19.855000 0.224445 0
19.860000 0.237269 0
19.865000 0.243679 1
19.870000 0.243252 0
19.875000 0.236002 0
19.880000 0.222372 0
19.885000 0.203199 0
19.890000 0.179621 0
19.895000 0.152967 0
19.900000 0.124635 0
19.905000 0.095963 0
19.910000 0.068100 0
19.915000 0.041858 0
19.920000 0.017484 0
19.925000 -0.005698 0
19.930000 -0.029675 0
19.935000 -0.057803 0
19.940000 -0.093787 0
19.945000 -0.139118 0
19.950000 -0.189597 0
19.955000 -0.233053 0
19.960000 -0.250268 2
19.965000 -0.218980 0
19.970000 -0.118872 0
19.975000 0.063042 0
19.980000 0.324189 0
19.985000 0.635084 0
19.990000 0.933466 0
19.995000 1.137424 0
20.000000 1.179434 3
20.005000 1.040865 0
20.010000 0.764053 0
20.015000 0.428559 0
20.020000 0.112407 0
20.025000 -0.133080 0
20.030000 -0.286788 0
20.035000 -0.350183 4
20.040000 -0.340002 0
20.045000 -0.282669 0
20.050000 -0.206974 0
20.055000 -0.135606 0
20.060000 -0.080020 0
20.065000 -0.041240 0
20.070000 -0.014560 0
20.075000 0.005742 0
20.080000 0.023920 0
20.085000 0.042351 0
20.090000 0.062086 0
20.095000 0.083472 0
20.100000 0.106529 0
20.105000 0.131130 0
20.110000 0.157053 0
20.115000 0.184006 0
20.120000 0.211629 0
20.125000 0.239500 0
20.130000 0.267147 0
20.135000 0.294058 0
20.140000 0.319694 0
20.145000 0.343507 0
20.150000 0.364961 0
20.155000 0.383549 0
20.160000 0.398812 0
20.165000 0.410359 0
20.170000 0.417885 0
20.175000 0.421177 5
20.180000 0.420133 0
20.185000 0.414756 0
20.190000 0.405164 0
20.195000 0.391580 0
20.200000 0.374324 0
20.205000 0.353798 0
20.210000 0.330477 0
20.215000 0.304880 0
20.220000 0.277560 0
20.225000 0.249079 0
20.230000 0.219989 0
20.235000 0.190818 0
20.240000 0.162051 0
20.245000 0.134119 0
20.250000 0.107391 0
20.255000 0.082169 0
20.260000 0.058684 0
20.265000 0.037098 0
20.270000 0.017509 0
20.275000 -0.000048 0
20.280000 -0.015588 0
20.285000 -0.029171 0
20.290000 -0.040895 0
20.295000 -0.050882 0
20.300000 -0.059275 0
20.305000 -0.066225 0
20.310000 -0.071890 0
20.315000 -0.076427 0
20.320000 -0.079984 0
20.325000 -0.082704 0
20.330000 -0.084716 0
20.335000 -0.086137 0
20.340000 -0.087069 0
20.345000 -0.087605 0
20.350000 -0.087820 0
20.355000 -0.087780 0
20.360000 -0.087447 0
20.365000 -0.086571 0
20.370000 -0.085700 0
20.375000 -0.084833 0
20.380000 -0.083971 0
20.385000 -0.083112 0
20.390000 -0.082258 0
20.395000 -0.081409 0
20.400000 -0.080563 0
20.405000 -0.079722 0
20.410000 -0.078884 0
20.415000 -0.078051 0
20.420000 -0.077221 0
20.425000 -0.076395 0
20.430000 -0.075571 0
20.435000 -0.074748 0
20.440000 -0.073922 0
20.445000 -0.073090 0
20.450000 -0.072244 0
20.455000 -0.071369 0
20.460000 -0.070446 0
20.465000 -0.069442 0
20.470000 -0.068309 0
20.475000 -0.066975 0
20.480000 -0.065340 0
20.485000 -0.063268 0
20.490000 -0.060576 0
20.495000 -0.057035 0
20.500000 -0.052360 0
20.505000 -0.046225 0
20.510000 -0.038267 0
20.515000 -0.028111 0
20.520000 -0.015410 0
20.525000 0.000120 0
20.530000 0.018638 0
20.535000 0.040130 0
20.540000 0.064355 0
20.545000 0.090813 0
20.550000 0.118724 0
20.555000 0.147053 0
20.560000 0.174553 0
20.565000 0.199848 0
20.570000 0.221549 0
20.575000 0.238370 0
20.580000 0.249260 0
20.585000 0.253509 1
20.590000 0.250821 0
20.595000 0.241352 0
20.600000 0.225693 0
20.605000 0.204808 0
20.610000 0.179934 0
20.615000 0.152464 0
20.620000 0.123808 0
20.625000 0.095272 0
20.630000 0.067915 0
20.635000 0.042373 0
20.640000 0.018574 0
20.645000 -0.004665 0
20.650000 -0.029976 0
20.655000 -0.061129 0
20.660000 -0.101327 0
20.665000 -0.149973 0
20.670000 -0.199311 0
20.675000 -0.233382 2
20.680000 -0.230612 0
20.685000 -0.168678 0
20.690000 -0.029716 0
20.695000 0.193080 0
20.700000 0.484954 0
20.705000 0.798985 0
20.710000 1.058498 0
20.715000 1.182813 3
20.720000 1.127629 0
20.725000 0.908358 0
20.730000 0.590663 0
20.735000 0.256552 0
20.740000 -0.028767 0
20.745000 -0.230204 0
20.750000 -0.338975 0
20.755000 -0.364515 4
20.760000 -0.328581 0
20.765000 -0.259345 0
20.770000 -0.183355 0
20.775000 -0.118234 0
20.780000 -0.070277 0
20.785000 -0.037369 0
20.790000 -0.013978 0
20.795000 0.005084 0
20.800000 0.023208 0
20.805000 0.042122 0
20.810000 0.062522 0
20.815000 0.084593 0
20.820000 0.108286 0
20.825000 0.133437 0
20.830000 0.159802 0
20.835000 0.187067 0
20.840000 0.214858 0
20.845000 0.242740 0
20.850000 0.270233 0
20.855000 0.296823 0
20.860000 0.321975 0
20.865000 0.345151 0
20.870000 0.365829 0
20.875000 0.383523 0
20.880000 0.397799 0
20.885000 0.408293 0
20.890000 0.414730 0
20.895000 0.416929 5
20.900000 0.414814 0
20.905000 0.408420 0
20.910000 0.397886 0
20.915000 0.383457 0
20.920000 0.365467 0
20.925000 0.344330 0
20.930000 0.320524 0
20.935000 0.294569 0
20.940000 0.267012 0
20.945000 0.238407 0
20.950000 0.209295 0
20.955000 0.180187 0
20.960000 0.151554 0
20.965000 0.123812 0
20.970000 0.097314 0
20.975000 0.072347 0
20.980000 0.049129 0
20.985000 0.027813 0
20.990000 0.008484 0
20.995000 -0.008826 0
21.000000 -0.024138 0
21.005000 -0.037517 0
21.010000 -0.049059 0
21.015000 -0.058888 0
21.020000 -0.067145 0
21.025000 -0.073980 0
21.030000 -0.079548 0
21.035000 -0.084003 0
21.040000 -0.087492 0
21.045000 -0.090155 0
21.050000 -0.092117 0
21.055000 -0.093495 0
21.060000 -0.094389 0
21.065000 -0.094890 0
21.070000 -0.095072 0
21.075000 -0.095000 0
21.080000 -0.094635 0
21.085000 -0.093724 0
21.090000 -0.092817 0
21.095000 -0.091915 0
21.100000 -0.091017 0
21.105000 -0.090123 0
21.110000 -0.089234 0
21.115000 -0.088350 0
21.120000 -0.087470 0
21.125000 -0.086594 0
21.130000 -0.085722 0
21.135000 -0.084855 0
21.140000 -0.083991 0
21.145000 -0.083131 0
21.150000 -0.082274 0
21.155000 -0.081418 0
21.160000 -0.080560 0
21.165000 -0.079698 0
21.170000 -0.078822 0
21.175000 -0.077921 0
21.180000 -0.076977 0
21.185000 -0.075960 0
21.190000 -0.074826 0
21.195000 -0.073509 0
21.200000 -0.071918 0
21.205000 -0.069925 0
21.210000 -0.067364 0
21.215000 -0.064016 0
21.220000 -0.059617 0
21.225000 -0.053854 0
21.230000 -0.046376 0
21.235000 -0.036815 0
21.240000 -0.024818 0
21.245000 -0.010083 0
21.250000 0.007586 0
21.255000 0.028231 0
21.260000 0.051686 0
21.265000 0.077538 0
21.270000 0.105107 0
21.275000 0.133450 0
21.280000 0.161399 0
21.285000 0.187633 0
21.290000 0.210775 0
21.295000 0.229507 0
21.300000 0.242700 0
21.305000 0.249518 1
21.310000 0.249511 0
21.315000 0.242663 0
21.320000 0.229392 0
21.325000 0.210512 0
21.330000 0.187145 0
21.335000 0.160614 0
21.340000 0.132317 0
21.345000 0.103600 0
21.350000 0.075630 0
21.355000 0.049246 0
21.360000 0.024737 0
21.365000 0.001497 0
21.370000 -0.022380 0
21.375000 -0.050183 0
21.380000 -0.085656 0
21.385000 -0.130515 0
21.390000 -0.180977 0
21.395000 -0.225330 0
21.400000 -0.244656 2
21.405000 -0.216713 0
21.410000 -0.120921 0
21.415000 0.056302 0
21.420000 0.313534 0
21.425000 0.623009 0
21.430000 0.924078 0
21.435000 1.135091 0
21.440000 1.186676 3
21.445000 1.055116 0
21.450000 0.780824 0
21.455000 0.445486 0
21.460000 0.129836 0
21.465000 -0.113369 0
21.470000 -0.263005 0
21.475000 -0.321395 4
21.480000 -0.306620 0
21.485000 -0.246487 0
21.490000 -0.170499 0
21.495000 -0.100946 0
21.500000 -0.048107 0
21.505000 -0.011841 0
21.510000 0.013163 0
21.515000 0.032655 0
21.520000 0.050631 0
21.525000 0.069196 0
21.530000 0.089221 0
21.535000 0.110954 0
21.540000 0.134364 0
21.545000 0.159289 0
21.550000 0.185477 0
21.555000 0.212602 0
21.560000 0.240268 0
21.565000 0.268022 0
21.570000 0.295357 0
21.575000 0.321730 0
21.580000 0.346577 0
21.585000 0.369335 0
21.590000 0.389459 0
21.595000 0.406445 0
21.600000 0.419850 0
21.605000 0.429309 0
21.610000 0.434554 0
21.615000 0.435424 5
21.620000 0.431872 0
21.625000 0.423967 0
21.630000 0.411895 0
21.635000 0.395947 0
21.640000 0.376508 0
21.645000 0.354042 0
21.650000 0.329074 0
21.655000 0.302165 0
21.660000 0.273895 0
21.665000 0.244841 0
21.670000 0.215558 0
21.675000 0.186561 0
21.680000 0.158310 0
21.685000 0.131204 0
21.690000 0.105569 0
21.695000 0.081661 0
21.700000 0.059659 0
21.705000 0.039675 0
21.710000 0.021756 0
21.715000 0.005891 0
21.720000 -0.007976 0
21.725000 -0.019942 0
21.730000 -0.030133 0
21.735000 -0.038694 0
21.740000 -0.045783 0
21.745000 -0.051562 0
21.750000 -0.056192 0
21.755000 -0.059829 0
21.760000 -0.062617 0
21.765000 -0.064692 0
21.770000 -0.066173 0
21.775000 -0.067165 0
21.780000 -0.067761 0
21.785000 -0.068039 0
21.790000 -0.068065 0
21.795000 -0.067403 0
21.800000 -0.066627 0
21.805000 -0.065855 0
21.810000 -0.065087 0
21.815000 -0.064323 0
21.820000 -0.063563 0
21.825000 -0.062807 0
21.830000 -0.062054 0
21.835000 -0.061305 0
21.840000 -0.060560 0
21.845000 -0.059818 0
21.850000 -0.059079 0
21.855000 -0.058344 0
21.860000 -0.057611 0
21.865000 -0.056880 0
21.870000 -0.056148 0
21.875000 -0.055411 0
21.880000 -0.054664 0
21.885000 -0.053896 0
21.890000 -0.053090 0
21.895000 -0.052220 0
21.900000 -0.051244 0
21.905000 -0.050100 0
21.910000 -0.048701 0
21.915000 -0.046920 0
21.920000 -0.044592 0
21.925000 -0.041498 0
21.930000 -0.037367 0
21.935000 -0.031876 0
21.940000 -0.024660 0
21.945000 -0.015333 0
21.950000 -0.003521 0
21.955000 0.011094 0
21.960000 0.028720 0
21.965000 0.049397 0
21.970000 0.072939 0
21.975000 0.098894 0
21.980000 0.126519 0
21.985000 0.154793 0
21.990000 0.182460 0
21.995000 0.208115 0
22.000000 0.230311 0
22.005000 0.247699 0
22.010000 0.259156 0
22.015000 0.263907 1
22.020000 0.261611 0
22.025000 0.252398 0
22.030000 0.236859 0
22.035000 0.215978 0
22.040000 0.191035 0
22.045000 0.163467 0
22.050000 0.134735 0
22.055000 0.106179 0
22.060000 0.078877 0
22.065000 0.053442 0
22.070000 0.029714 0
22.075000 0.006317 0
22.080000 -0.019660 0
22.085000 -0.052174 0
22.090000 -0.094149 0
22.095000 -0.143864 0
22.100000 -0.191617 0
22.105000 -0.219345 2
22.110000 -0.204093 0
22.115000 -0.123409 0
22.120000 0.038957 0
22.125000 0.285024 0
22.130000 0.590452 0
22.135000 0.895734 0
22.140000 1.116206 0
22.145000 1.176785 3
22.150000 1.052676 0
22.155000 0.783557 0
22.160000 0.449306 0
22.165000 0.130749 0
22.170000 -0.118002 0
22.175000 -0.274254 0
22.180000 -0.338974 4
22.185000 -0.329080 0
22.190000 -0.271562 0
22.195000 -0.195836 0
22.200000 -0.124906 0
22.205000 -0.070120 0
22.210000 -0.032180 0
22.215000 -0.006120 0
22.220000 0.013862 0
22.225000 0.031960 0
22.230000 0.050460 0
22.235000 0.070343 0
22.240000 0.091910 0
22.245000 0.115160 0
22.250000 0.139945 0
22.255000 0.166029 0
22.260000 0.193100 0
22.265000 0.220780 0
22.270000 0.248627 0
22.275000 0.276149 0
22.280000 0.302814 0
22.285000 0.328067 0
22.290000 0.351350 0
22.295000 0.372119 0
22.300000 0.389864 0
22.305000 0.404134 0
22.310000 0.414550 0
22.315000 0.420825 0
22.320000 0.422776 5
22.325000 0.420328 0
22.330000 0.413525 0
22.335000 0.402522 0
22.340000 0.387583 0
22.345000 0.369067 0
22.350000 0.347414 0
22.355000 0.323129 0
22.360000 0.296759 0
22.365000 0.268877 0
22.370000 0.240055 0
22.375000 0.210850 0
22.380000 0.181783 0
22.385000 0.153329 0
22.390000 0.125900 0
22.395000 0.099841 0
22.400000 0.075428 0
22.405000 0.052862 0
22.410000 0.032273 0
22.415000 0.013729 0
22.420000 -0.002762 0
22.425000 -0.017242 0
22.430000 -0.029795 0
22.435000 -0.040534 0
22.440000 -0.049600 0
22.445000 -0.057143 0
22.450000 -0.063323 0
22.455000 -0.068301 0
22.460000 -0.072234 0
22.465000 -0.075269 0
22.470000 -0.077543 0
22.475000 -0.079181 0
22.480000 -0.080292 0
22.485000 -0.080974 0
22.490000 -0.081309 0
22.495000 -0.081369 0
22.500000 -0.081111 0
22.505000 -0.080267 0
22.510000 -0.079427 0
22.515000 -0.078591 0
22.520000 -0.077760 0
22.525000 -0.076933 0
22.530000 -0.076110 0
22.535000 -0.075291 0
22.540000 -0.074476 0
22.545000 -0.073665 0
22.550000 -0.072858 0
22.555000 -0.072054 0
22.560000 -0.071255 0
22.565000 -0.070458 0
22.570000 -0.069664 0
22.575000 -0.068870 0
22.580000 -0.068075 0
22.585000 -0.067273 0
22.590000 -0.066457 0
22.595000 -0.065614 0
22.600000 -0.064722 0
22.605000 -0.063750 0
22.610000 -0.062648 0
22.615000 -0.061344 0
22.620000 -0.059737 0
22.625000 -0.057684 0
22.630000 -0.055000 0
22.635000 -0.051447 0
22.640000 -0.046735 0
22.645000 -0.040524 0
22.650000 -0.032443 0
22.655000 -0.022110 0
22.660000 -0.009171 0
22.665000 0.006652 0
22.670000 0.025507 0
22.675000 0.047355 0
22.680000 0.071916 0
22.685000 0.098636 0
22.690000 0.126677 0
22.695000 0.154939 0
22.700000 0.182116 0
22.705000 0.206788 0
22.710000 0.227544 0
22.715000 0.243111 0
22.720000 0.252480 0
22.725000 0.255019 1
22.730000 0.250540 0
22.735000 0.239318 0
22.740000 0.222069 0
22.745000 0.199869 0
22.750000 0.174043 0
22.755000 0.146037 0
22.760000 0.117273 0
22.765000 0.089020 0
22.770000 0.062239 0
22.775000 0.037366 0
22.780000 0.013967 0
22.785000 -0.009703 0
22.790000 -0.036885 0
22.795000 -0.071506 0
22.800000 -0.115701 0
22.805000 -0.166112 0
22.810000 -0.211094 0
22.815000 -0.231254 2
22.820000 -0.203520 0
22.825000 -0.106511 0
22.830000 0.073682 0
22.835000 0.334754 0
22.840000 0.645988 0
22.845000 0.942056 0
22.850000 1.137748 0
22.855000 1.165221 3
22.860000 1.010785 0
22.865000 0.723071 0
22.870000 0.386186 0
22.875000 0.078261 0
22.880000 -0.152434 0
22.885000 -0.288573 0
22.890000 -0.335100 4
22.895000 -0.311910 0
22.900000 -0.247679 0
22.905000 -0.171448 0
22.910000 -0.103948 0
22.915000 -0.053708 0
22.920000 -0.019458 0
22.925000 0.004436 0
22.930000 0.023551 0
22.935000 0.041580 0
22.940000 0.060395 0
22.945000 0.080739 0
22.950000 0.102800 0
22.955000 0.126523 0
22.960000 0.151726 0
22.965000 0.178147 0
22.970000 0.205446 0
22.975000 0.233218 0
22.980000 0.260997 0
22.985000 0.288268 0
22.990000 0.314483 0
22.995000 0.339075 0
23.000000 0.361482 0
23.005000 0.381161 0
23.010000 0.397618 0
23.015000 0.410419 0
23.020000 0.419216 0
23.025000 0.423757 0
23.030000 0.423900 5
23.035000 0.419619 0
23.040000 0.411005 0
23.045000 0.398264 0
23.050000 0.381704 0
23.055000 0.361728 0
23.060000 0.338814 0
23.065000 0.313495 0
23.070000 0.286341 0
23.075000 0.257933 0
23.080000 0.228847 0
23.085000 0.199632 0
23.090000 0.170795 0
23.095000 0.142787 0
23.100000 0.115995 0
23.105000 0.090730 0
23.110000 0.067235 0
23.115000 0.045676 0
23.120000 0.026151 0
23.125000 0.008695 0
23.130000 -0.006712 0
23.135000 -0.020136 0
23.140000 -0.031681 0
23.145000 -0.041477 0
23.150000 -0.049673 0
23.155000 -0.056429 0
23.160000 -0.061907 0
23.165000 -0.066270 0
23.170000 -0.069669 0
23.175000 -0.072249 0
23.180000 -0.074141 0
23.185000 -0.075463 0
23.190000 -0.076317 0
23.195000 -0.076792 0
23.200000 -0.076965 0
23.205000 -0.076900 0
23.210000 -0.076186 0
23.215000 -0.075367 0
23.220000 -0.074551 0
23.225000 -0.073740 0
23.230000 -0.072933 0
23.235000 -0.072129 0
23.240000 -0.071330 0
23.245000 -0.070535 0
23.250000 -0.069744 0
23.255000 -0.068956 0
23.260000 -0.068173 0
23.265000 -0.067392 0
23.270000 -0.066615 0
23.275000 -0.065841 0
23.280000 -0.065068 0
23.285000 -0.064293 0
23.290000 -0.063513 0
23.295000 -0.062721 0
23.300000 -0.061905 0
23.305000 -0.061045 0
23.310000 -0.060112 0
23.315000 -0.059061 0
23.320000 -0.057823 0
23.325000 -0.056301 0
23.330000 -0.054360 0
23.335000 -0.051821 0
23.340000 -0.048452 0
23.345000 -0.043967 0
23.350000 -0.038030 0
23.355000 -0.030268 0
23.360000 -0.020293 0
23.365000 -0.007740 0
23.370000 0.007687 0
23.375000 0.026157 0
23.380000 0.047658 0
23.385000 0.071934 0
23.390000 0.098457 0
23.395000 0.126405 0
23.400000 0.154685 0
23.405000 0.181989 0
23.410000 0.206885 0
23.415000 0.227935 0
23.420000 0.243835 0
23.425000 0.253545 0
23.430000 0.256401 1
23.435000 0.252189 0
23.440000 0.241172 0
23.445000 0.224059 0
23.450000 0.201934 0
23.455000 0.176137 0
23.460000 0.148129 0
23.465000 0.119355 0
23.470000 0.091099 0
23.475000 0.064333 0
23.480000 0.039488 0
23.485000 0.016098 0
23.490000 -0.007650 0
23.495000 -0.035086 0
23.500000 -0.070174 0
23.505000 -0.114889 0
23.510000 -0.165406 0
23.515000 -0.209371 0
23.520000 -0.226713 2
23.525000 -0.193989 0
23.530000 -0.089923 0
23.535000 0.098527 0
23.540000 0.366775 0
23.545000 0.680090 0
23.550000 0.968839 0
23.555000 1.146539 0
23.560000 1.149649 3
23.565000 0.974531 0
23.570000 0.677792 0
23.575000 0.340600 0
23.580000 0.035634 0
23.585000 -0.192845 0
23.590000 -0.329040 0
23.595000 -0.377652 4
23.600000 -0.357281 0
23.605000 -0.294937 0
23.610000 -0.218550 0
23.615000 -0.148947 0
23.620000 -0.095714 0
23.625000 -0.058749 0
23.630000 -0.033048 0
23.635000 -0.013069 0
23.640000 0.005154 0
23.645000 0.023786 0
23.650000 0.043768 0
23.655000 0.065398 0
23.660000 0.088679 0
23.665000 0.113477 0
23.670000 0.139569 0
23.675000 0.166663 0
23.680000 0.194399 0
23.685000 0.222363 0
23.690000 0.250085 0
23.695000 0.277061 0
23.700000 0.302760 0
23.705000 0.326643 0
23.710000 0.348182 0
23.715000 0.366877 0
23.720000 0.382276 0
23.725000 0.393995 0
23.730000 0.401729 0
23.735000 0.405268 5
23.740000 0.404504 0
23.745000 0.399439 0
23.750000 0.390181 0
23.755000 0.376944 0
23.760000 0.360036 0
23.765000 0.339851 0
23.770000 0.316846 0
23.775000 0.291533 0
23.780000 0.264453 0
23.785000 0.236159 0
23.790000 0.207198 0
23.795000 0.178091 0
23.800000 0.149324 0
23.805000 0.121328 0
23.810000 0.094478 0
23.815000 0.069079 0
23.820000 0.045371 0
23.825000 0.023526 0
23.830000 0.003649 0
23.835000 -0.014214 0
23.840000 -0.030068 0
23.845000 -0.043965 0
23.850000 -0.055994 0
23.855000 -0.066271 0
23.860000 -0.074932 0
23.865000 -0.082126 0
23.870000 -0.088007 0
23.875000 -0.092730 0
23.880000 -0.096444 0
23.885000 -0.099290 0
23.890000 -0.101401 0
23.895000 -0.102893 0
23.900000 -0.103874 0
23.905000 -0.104435 0
23.910000 -0.104657 0
23.915000 -0.104607 0
23.920000 -0.104242 0
23.925000 -0.103282 0
23.930000 -0.102328 0
23.935000 -0.101378 0
23.940000 -0.100433 0
23.945000 -0.099492 0
23.950000 -0.098557 0
23.955000 -0.097626 0
23.960000 -0.096699 0
23.965000 -0.095777 0
23.970000 -0.094860 0
23.975000 -0.093947 0
23.980000 -0.093039 0
23.985000 -0.092134 0
23.990000 -0.091232 0
23.995000 -0.090332 0
24.000000 -0.089433 0
24.005000 -0.088529 0
24.010000 -0.087615 0
24.015000 -0.086681 0
24.020000 -0.085710 0
24.025000 -0.084677 0
24.030000 -0.083541 0
24.035000 -0.082246 0
24.040000 -0.080707 0
24.045000 -0.078809 0
24.050000 -0.076397 0
24.055000 -0.073269 0
24.060000 -0.069174 0
24.065000 -0.063814 0
24.070000 -0.056846 0
24.075000 -0.047907 0
24.080000 -0.036633 0
24.085000 -0.022704 0
24.090000 -0.005885 0
24.095000 0.013917 0
24.100000 0.036602 0
24.105000 0.061835 0
24.110000 0.089017 0
24.115000 0.117280 0
24.120000 0.145518 0
24.125000 0.172447 0
24.130000 0.196694 0
24.135000 0.216912 0
24.140000 0.231901 0
24.145000 0.240727 0
24.150000 0.242820 1
24.155000 0.238029 0
24.160000 0.226646 0
24.165000 0.209373 0
24.170000 0.187251 0
24.175000 0.161557 0
24.180000 0.133678 0
24.185000 0.104990 0
24.190000 0.076726 0
24.195000 0.049843 0
24.200000 0.024824 0
24.205000 0.001374 0
24.210000 -0.021990 0
24.215000 -0.048180 0
24.220000 -0.080991 0
24.225000 -0.123092 0
24.230000 -0.172694 0
24.235000 -0.220545 0
24.240000 -0.249589 2
24.245000 -0.238059 0
24.250000 -0.164359 0
24.255000 -0.012159 0
24.260000 0.222698 0
24.265000 0.521480 0
24.270000 0.833178 0
24.275000 1.079730 0
24.280000 1.183888 3
24.285000 1.107359 0
24.290000 0.872146 0
24.295000 0.548171 0
24.300000 0.217149 0
24.305000 -0.058943 0
24.310000 -0.248613 0
24.315000 -0.345792 0
24.320000 -0.361836 4
24.325000 -0.319806 0
24.330000 -0.248256 0
24.335000 -0.172973 0
24.340000 -0.110096 0
24.345000 -0.064512 0
24.350000 -0.033318 0
24.355000 -0.010834 0
24.360000 0.007925 0
24.365000 0.026088 0
24.370000 0.045197 0
24.375000 0.065846 0
24.380000 0.088172 0
24.385000 0.112104 0
24.390000 0.137464 0
24.395000 0.163995 0
24.400000 0.191373 0
24.405000 0.219210 0
24.410000 0.247063 0
24.415000 0.274444 0
24.420000 0.300831 0
24.425000 0.325687 0
24.430000 0.348471 0
24.435000 0.368667 0
24.440000 0.385792 0
24.445000 0.399423 0
24.450000 0.409210 0
24.455000 0.414892 0
24.460000 0.416306 5
24.465000 0.413397 0
24.470000 0.406218 0
24.475000 0.394930 0
24.480000 0.379797 0
24.485000 0.361169 0
24.490000 0.339477 0
24.495000 0.315209 0
24.500000 0.288895 0
24.505000 0.261086 0
24.510000 0.232337 0
24.515000 0.203186 0
24.520000 0.174140 0
24.525000 0.145660 0
24.530000 0.118151 0
24.535000 0.091954 0
24.540000 0.067343 0
24.545000 0.044522 0
24.550000 0.023630 0
24.555000 0.004741 0
24.560000 -0.012127 0
24.565000 -0.027005 0
24.570000 -0.039964 0
24.575000 -0.051109 0
24.580000 -0.060569 0
24.585000 -0.068487 0
24.590000 -0.075017 0
24.595000 -0.080314 0
24.600000 -0.084531 0
24.605000 -0.087814 0
24.610000 -0.090300 0
24.615000 -0.092113 0
24.620000 -0.093367 0
24.625000 -0.094159 0
24.630000 -0.094577 0
24.635000 -0.094692 0
24.640000 -0.094568 0
24.645000 -0.093770 0
24.650000 -0.092863 0
24.655000 -0.091961 0
24.660000 -0.091063 0
24.665000 -0.090169 0
24.670000 -0.089280 0
24.675000 -0.088395 0
24.680000 -0.087515 0
24.685000 -0.086639 0
24.690000 -0.085767 0
24.695000 -0.084900 0
24.700000 -0.084036 0
24.705000 -0.083177 0
24.710000 -0.082320 0
24.715000 -0.081466 0
24.720000 -0.080613 0
24.725000 -0.079757 0
24.730000 -0.078894 0
24.735000 -0.078016 0
24.740000 -0.077108 0
24.745000 -0.076149 0
24.750000 -0.075106 0
24.755000 -0.073928 0
24.760000 -0.072545 0
24.765000 -0.070852 0
24.770000 -0.068712 0
24.775000 -0.065942 0
24.780000 -0.062310 0
24.785000 -0.057533 0
24.790000 -0.051286 0
24.795000 -0.043209 0
24.800000 -0.032933 0
24.805000 -0.020114 0
24.810000 -0.004477 0
24.815000 0.014132 0
24.820000 0.035695 0
24.825000 0.059970 0
24.830000 0.086459 0
24.835000 0.114391 0
24.840000 0.142743 0
24.845000 0.170282 0
24.850000 0.195652 0
24.855000 0.217478 0
24.860000 0.234486 0
24.865000 0.245627 0
24.870000 0.250185 1
24.875000 0.247850 0
24.880000 0.238756 0
24.885000 0.223464 0
24.890000 0.202906 0
24.895000 0.178292 0
24.900000 0.150990 0
24.905000 0.122400 0
24.910000 0.093825 0
24.915000 0.066340 0
24.920000 0.040623 0
24.925000 0.016692 0
24.930000 -0.006482 0
24.935000 -0.031336 0
24.940000 -0.061520 0
24.945000 -0.100421 0
24.950000 -0.148159 0
24.955000 -0.198175 0
24.960000 -0.235779 0
24.965000 -0.240191 2
24.970000 -0.189123 0
24.975000 -0.063840 0
24.980000 0.144823 0
24.985000 0.426843 0
24.990000 0.741915 0
24.995000 1.018441 0
25.000000 1.174472 3
25.005000 1.155883 0
25.010000 0.965859 0
25.015000 0.661705 0
25.020000 0.324698 0
25.025000 0.024978 0
25.030000 -0.196150 0
25.035000 -0.325016 0
25.040000 -0.367601 4
25.045000 -0.343232 0
25.050000 -0.279089 0
25.055000 -0.202671 0
25.060000 -0.133989 0
25.065000 -0.081860 0
25.070000 -0.045741 0
25.075000 -0.020532 0
25.080000 -0.000775 0
25.085000 0.017373 0
25.090000 0.035993 0
25.095000 0.055980 0
25.100000 0.077613 0
25.105000 0.100890 0
25.110000 0.125672 0
25.115000 0.151737 0
25.120000 0.178791 0
25.125000 0.206479 0
25.130000 0.234384 0
25.135000 0.262043 0
25.140000 0.288951 0
25.145000 0.314583 0
25.150000 0.338402 0
25.155000 0.359884 0
25.160000 0.378533 0
25.165000 0.393901 0
25.170000 0.405603 0
25.175000 0.413337 0
25.180000 0.416893 5
25.185000 0.416162 0
25.190000 0.411143 0
25.195000 0.401941 0
25.200000 0.388767 0
25.205000 0.371923 0
25.210000 0.351798 0
25.215000 0.328844 0
25.220000 0.303568 0
25.225000 0.276506 0
25.230000 0.248208 0
25.235000 0.219217 0
25.240000 0.190054 0
25.245000 0.161201 0
25.250000 0.133094 0
25.255000 0.106105 0
25.260000 0.080545 0
25.265000 0.056656 0
25.270000 0.034613 0
25.275000 0.014526 0
25.280000 -0.003554 0
25.285000 -0.019629 0
25.290000 -0.033748 0
25.295000 -0.045995 0
25.300000 -0.056483 0
25.305000 -0.065345 0
25.310000 -0.072730 0
25.315000 -0.078789 0
25.320000 -0.083677 0
25.325000 -0.087542 0
25.330000 -0.090527 0
25.335000 -0.092762 0
25.340000 -0.094368 0
25.345000 -0.095451 0
25.350000 -0.096104 0
25.355000 -0.096409 0
25.360000 -0.096434 0
25.365000 -0.096133 0
25.370000 -0.095214 0
25.375000 -0.094299 0
25.380000 -0.093390 0
25.385000 -0.092484 0
25.390000 -0.091584 0
25.395000 -0.090687 0
25.400000 -0.089796 0
25.405000 -0.088908 0
25.410000 -0.088025 0
25.415000 -0.087147 0
25.420000 -0.086272 0
25.425000 -0.085402 0
25.430000 -0.084535 0
25.435000 -0.083672 0
25.440000 -0.082811 0
25.445000 -0.081949 0
25.450000 -0.081085 0
25.455000 -0.080212 0
25.460000 -0.079321 0
25.465000 -0.078398 0
25.470000 -0.077418 0
25.475000 -0.076346 0
25.480000 -0.075129 0
25.485000 -0.073690 0
25.490000 -0.071922 0
25.495000 -0.069680 0
25.500000 -0.066776 0
25.505000 -0.062972 0
25.510000 -0.057981 0
25.515000 -0.051473 0
25.520000 -0.043090 0
25.525000 -0.032468 0
25.530000 -0.019273 0
25.535000 -0.003246 0
25.540000 0.015745 0
25.545000 0.037657 0
25.550000 0.062223 0
25.555000 0.088917 0
25.560000 0.116948 0
25.565000 0.145278 0
25.570000 0.172673 0
25.575000 0.197782 0
25.580000 0.219247 0
25.585000 0.235824 0
25.590000 0.246497 0
25.595000 0.250584 1
25.600000 0.247810 0
25.605000 0.238333 0
25.610000 0.222732 0
25.615000 0.201949 0
25.620000 0.177191 0
25.625000 0.149816 0
25.630000 0.121207 0
25.635000 0.092651 0
25.640000 0.065201 0
25.645000 0.039520 0
25.650000 0.015611 0
25.655000 -0.007559 0
25.660000 -0.032410 0
25.665000 -0.062557 0
25.670000 -0.101363 0
25.675000 -0.148994 0
25.680000 -0.199079 0
25.685000 -0.237226 0
25.690000 -0.242964 2
25.695000 -0.194204 0
25.700000 -0.072188 0
25.705000 0.132703 0
25.710000 0.411689 0
25.715000 0.726580 0
25.720000 1.007909 0
25.725000 1.174153 3
25.730000 1.168425 0
25.735000 0.987869 0
25.740000 0.686554 0
25.745000 0.349536 0
25.750000 0.050745 0
25.755000 -0.166827 0
25.760000 -0.289754 0
25.765000 -0.325393 4
25.770000 -0.295068 0
25.775000 -0.227815 0
25.780000 -0.151827 0
25.785000 -0.086240 0
25.790000 -0.038118 0
25.795000 -0.005399 0
25.800000 0.017678 0
25.805000 0.036486 0
25.810000 0.054477 0
25.815000 0.073364 0
25.820000 0.093809 0
25.825000 0.115966 0
25.830000 0.139767 0
25.835000 0.165024 0
25.840000 0.191468 0
25.845000 0.218760 0
25.850000 0.246491 0
25.855000 0.274196 0
25.860000 0.301361 0
25.865000 0.327442 0
25.870000 0.351874 0
25.875000 0.374101 0
25.880000 0.393587 0
25.885000 0.409843 0
25.890000 0.422443 0
25.895000 0.431043 0
25.900000 0.435398 5
25.905000 0.435371 0
25.910000 0.430939 0
25.915000 0.422193 0
25.920000 0.409341 0
25.925000 0.392690 0
25.930000 0.372641 0
25.935000 0.349668 0
25.940000 0.324300 0
25.945000 0.297102 0
25.950000 0.268651 0
25.955000 0.239519 0
25.960000 0.210251 0
25.965000 0.181351 0
25.970000 0.153268 0
25.975000 0.126385 0
25.980000 0.101017 0
25.985000 0.077405 0
25.990000 0.055716 0
25.995000 0.036052 0
26.000000 0.018448 0
26.005000 0.002888 0
26.010000 -0.010692 0
26.015000 -0.022392 0
26.020000 -0.032341 0
26.025000 -0.040686 0
26.030000 -0.047584 0
26.035000 -0.053198 0
26.040000 -0.057686 0
26.045000 -0.061203 0
26.050000 -0.063892 0
26.055000 -0.065883 0
26.060000 -0.067296 0
26.065000 -0.068233 0
26.070000 -0.068785 0
26.075000 -0.069027 0
26.080000 -0.069025 0
26.085000 -0.068354 0
26.090000 -0.067574 0
26.095000 -0.066798 0
26.100000 -0.066025 0
26.105000 -0.065256 0
26.110000 -0.064491 0
26.115000 -0.063730 0
26.120000 -0.062973 0
26.125000 -0.062219 0
26.130000 -0.061469 0
26.135000 -0.060723 0
26.140000 -0.059980 0
26.145000 -0.059240 0
26.150000 -0.058503 0
26.155000 -0.057767 0
26.160000 -0.057030 0
26.165000 -0.056288 0
26.170000 -0.055536 0
26.175000 -0.054762 0
26.180000 -0.053949 0
26.185000 -0.053070 0
26.190000 -0.052083 0
26.195000 -0.050925 0
26.200000 -0.049508 0
26.205000 -0.047705 0
26.210000 -0.045349 0
26.215000 -0.042221 0
26.220000 -0.038048 0
26.225000 -0.032509 0
26.230000 -0.025240 0
26.235000 -0.015856 0
26.240000 -0.003987 0
26.245000 0.010683 0
26.250000 0.028358 0
26.255000 0.049074 0
26.260000 0.072645 0
26.265000 0.098616 0
26.270000 0.126248 0
26.275000 0.154524 0
26.280000 0.182194 0
26.285000 0.207861 0
26.290000 0.230087 0
26.295000 0.247527 0
26.300000 0.259063 0
26.305000 0.263919 1
26.310000 0.261749 0
26.315000 0.252673 0
26.320000 0.237271 0
26.325000 0.216514 0
26.330000 0.191668 0
26.335000 0.164161 0
26.340000 0.135446 0
26.345000 0.106864 0
26.350000 0.079498 0
26.355000 0.053984 0
26.360000 0.030201 0
26.365000 0.006845 0
26.370000 -0.018906 0
26.375000 -0.050971 0
26.380000 -0.092398 0
26.385000 -0.141837 0
26.390000 -0.190154 0
26.395000 -0.219825 2
26.400000 -0.208175 0
26.405000 -0.132667 0
26.410000 0.023505 0
26.415000 0.263745 0
26.420000 0.566249 0
26.425000 0.874514 0
26.430000 1.105325 0
26.435000 1.181518 3
26.440000 1.072521 0
26.445000 0.812258 0
26.450000 0.479813 0
26.455000 0.158215 0
26.460000 -0.095546 0
26.465000 -0.256759 0
26.470000 -0.325371 4
26.475000 -0.317925 0
26.480000 -0.261506 0
26.485000 -0.185979 0
26.490000 -0.114898 0
26.495000 -0.059981 0
26.500000 -0.022038 0
26.505000 0.003945 0
26.510000 0.023842 0
26.515000 0.041886 0
26.520000 0.060365 0
26.525000 0.080251 0
26.530000 0.101838 0
26.535000 0.125115 0
26.540000 0.149930 0
26.545000 0.176038 0
26.550000 0.203120 0
26.555000 0.230787 0
26.560000 0.258588 0
26.565000 0.286019 0
26.570000 0.312540 0
26.575000 0.337586 0
26.580000 0.360592 0
26.585000 0.381009 0
26.590000 0.398326 0
26.595000 0.412093 0
26.600000 0.421938 0
26.605000 0.427582 0
26.610000 0.428854 5
26.615000 0.425697 0
26.620000 0.418173 0
26.625000 0.406456 0
26.630000 0.390831 0
26.635000 0.371678 0
26.640000 0.349456 0
26.645000 0.324686 0
26.650000 0.297930 0
26.655000 0.269770 0
26.660000 0.240784 0
26.665000 0.211530 0
26.670000 0.182528 0
26.675000 0.154244 0
26.680000 0.127082 0
26.685000 0.101374 0
26.690000 0.077380 0
26.695000 0.055286 0
26.700000 0.035207 0
26.705000 0.017194 0
26.710000 0.001240 0
26.715000 -0.012710 0
26.720000 -0.024750 0
26.725000 -0.035006 0
26.730000 -0.043621 0
26.735000 -0.050755 0
26.740000 -0.056568 0
26.745000 -0.061224 0
26.750000 -0.064878 0
26.755000 -0.067677 0
26.760000 -0.069755 0
26.765000 -0.071233 0
26.770000 -0.072218 0
26.775000 -0.072803 0
26.780000 -0.073067 0
26.785000 -0.073077 0
26.790000 -0.072391 0
26.795000 -0.071590 0
26.800000 -0.070794 0
26.805000 -0.070001 0
26.810000 -0.069213 0
26.815000 -0.068428 0
26.820000 -0.067647 0
26.825000 -0.066870 0
26.830000 -0.066097 0
26.835000 -0.065328 0
26.840000 -0.064563 0
26.845000 -0.063801 0
26.850000 -0.063042 0
26.855000 -0.062286 0
26.860000 -0.061531 0
26.865000 -0.060775 0
26.870000 -0.060016 0
26.875000 -0.059246 0
26.880000 -0.058456 0
26.885000 -0.057628 0
26.890000 -0.056736 0
26.895000 -0.055739 0
26.900000 -0.054574 0
26.905000 -0.053154 0
26.910000 -0.051354 0
26.915000 -0.049006 0
26.920000 -0.045893 0
26.925000 -0.041742 0
26.930000 -0.036229 0
26.935000 -0.028989 0
26.940000 -0.019634 0
26.945000 -0.007791 0
26.950000 0.006861 0
26.955000 0.024529 0
26.960000 0.045250 0
26.965000 0.068839 0
26.970000 0.094837 0
26.975000 0.122497 0
26.980000 0.150794 0
26.985000 0.178464 0
26.990000 0.204097 0
26.995000 0.226245 0
27.000000 0.243557 0
27.005000 0.254911 0
27.010000 0.259540 1
27.015000 0.257110 0
27.020000 0.247763 0
27.025000 0.232100 0
27.030000 0.211119 0
27.035000 0.186105 0
27.040000 0.158505 0
27.045000 0.129780 0
27.050000 0.101269 0
27.055000 0.074041 0
27.060000 0.048692 0
27.065000 0.025027 0
27.070000 0.001615 0
27.075000 -0.024516 0
27.080000 -0.057343 0
27.085000 -0.099690 0
27.090000 -0.149560 0
27.095000 -0.196857 0
27.100000 -0.223166 2
27.105000 -0.205378 0
27.110000 -0.121139 0
27.115000 0.045386 0
27.120000 0.295247 0
27.125000 0.602413 0
27.130000 0.905482 0
27.135000 1.119048 0
27.140000 1.169595 3
27.145000 1.035307 0
27.150000 0.758954 0
27.155000 0.423300 0
27.160000 0.109295 0
27.165000 -0.130830 0
27.170000 -0.276716 0
27.175000 -0.331435 4
27.180000 -0.313777 0
27.185000 -0.252077 0
27.190000 -0.175921 0
27.195000 -0.107175 0
27.200000 -0.055464 0
27.205000 -0.020134 0
27.210000 0.004329 0
27.215000 0.023637 0
27.220000 0.041656 0
27.225000 0.060381 0
27.230000 0.080613 0
27.235000 0.102566 0
27.240000 0.126192 0
27.245000 0.151318 0
27.250000 0.177681 0
27.255000 0.204943 0
27.260000 0.232700 0
27.265000 0.260485 0
27.270000 0.287782 0
27.275000 0.314040 0
27.280000 0.338689 0
27.285000 0.361161 0
27.290000 0.380912 0
27.295000 0.397441 0
27.300000 0.410310 0
27.305000 0.419167 0
27.310000 0.423757 0
27.315000 0.423936 5
27.320000 0.419676 0
27.325000 0.411069 0
27.330000 0.398321 0
27.335000 0.381743 0
27.340000 0.361740 0
27.345000 0.338795 0
27.350000 0.313444 0
27.355000 0.286260 0
27.360000 0.257829 0
27.365000 0.228731 0
27.370000 0.199517 0
27.375000 0.170695 0
27.380000 0.142719 0
27.385000 0.115973 0
27.390000 0.090771 0
27.395000 0.067352 0
27.400000 0.045881 0
27.405000 0.026454 0
27.410000 0.009102 0
27.415000 -0.006197 0
27.420000 -0.019512 0
27.425000 -0.030949 0
27.430000 -0.040642 0
27.435000 -0.048739 0
27.440000 -0.055404 0
27.445000 -0.060799 0
27.450000 -0.065087 0
27.455000 -0.068421 0
27.460000 -0.070945 0
27.465000 -0.072789 0
27.470000 -0.074070 0
27.475000 -0.074892 0
27.480000 -0.075342 0
27.485000 -0.075496 0
27.490000 -0.075415 0
27.495000 -0.074706 0
27.500000 -0.073894 0
27.505000 -0.073086 0
27.510000 -0.072282 0
27.515000 -0.071482 0
27.520000 -0.070686 0
27.525000 -0.069894 0
27.530000 -0.069106 0
27.535000 -0.068321 0
27.540000 -0.067541 0
27.545000 -0.066764 0
27.550000 -0.065991 0
27.555000 -0.065221 0
27.560000 -0.064453 0
27.565000 -0.063686 0
27.570000 -0.062917 0
27.575000 -0.062142 0
27.580000 -0.061353 0
27.585000 -0.060537 0
27.590000 -0.059674 0
27.595000 -0.058731 0
27.600000 -0.057658 0
27.605000 -0.056383 0
27.610000 -0.054801 0
27.615000 -0.052770 0
27.620000 -0.050099 0
27.625000 -0.046544 0
27.630000 -0.041808 0
27.635000 -0.035543 0
27.640000 -0.027369 0
27.645000 -0.016897 0
27.650000 -0.003769 0
27.655000 0.012290 0
27.660000 0.031419 0
27.665000 0.053553 0
27.670000 0.078380 0
27.675000 0.105303 0
27.680000 0.133429 0
27.685000 0.161603 0
27.690000 0.188470 0
27.695000 0.212575 0
27.700000 0.232492 0
27.705000 0.246960 0
27.710000 0.255015 0
27.715000 0.256096 1
27.720000 0.250108 0
27.725000 0.237435 0
27.730000 0.218897 0
27.735000 0.195663 0
27.740000 0.169128 0
27.745000 0.140773 0
27.750000 0.112021 0
27.755000 0.084096 0
27.760000 0.057853 0
27.765000 0.033513 0
27.770000 0.010270 0
27.775000 -0.014152 0
27.780000 -0.043451 0
27.785000 -0.081380 0
27.790000 -0.128600 0
27.795000 -0.178846 0
27.800000 -0.217053 0
27.805000 -0.221410 2
27.810000 -0.168407 0
27.815000 -0.038482 0
27.820000 0.177132 0
27.825000 0.465447 0
27.830000 0.779839 0
27.835000 1.041384 0
27.840000 1.165740 3
27.845000 1.107273 0
27.850000 0.884939 0
27.855000 0.565795 0
27.860000 0.232497 0
27.865000 -0.050048 0
27.870000 -0.247539 0
27.875000 -0.352028 0
27.880000 -0.373733 4
27.885000 -0.335107 0
27.890000 -0.264718 0
27.895000 -0.188981 0
27.900000 -0.124939 0
27.905000 -0.078208 0
27.910000 -0.046222 0
27.915000 -0.023321 0
27.920000 -0.004396 0
27.925000 0.013807 0
27.930000 0.032905 0
27.935000 0.053531 0
27.940000 0.075839 0
27.945000 0.099764 0
27.950000 0.125129 0
27.955000 0.151680 0
27.960000 0.179093 0
27.965000 0.206979 0
27.970000 0.234895 0
27.975000 0.262351 0
27.980000 0.288823 0
27.985000 0.313769 0
27.990000 0.336649 0
27.995000 0.356939 0
28.000000 0.374155 0
28.005000 0.387870 0
28.010000 0.397733 0
28.015000 0.403478 0
28.020000 0.404943 5
28.025000 0.402073 0
28.030000 0.394921 0
28.035000 0.383650 0
28.040000 0.368524 0
28.045000 0.349900 0
28.050000 0.328210 0
28.055000 0.303946 0
28.060000 0.277642 0
28.065000 0.249853 0
28.070000 0.221136 0
28.075000 0.192032 0
28.080000 0.163049 0
28.085000 0.134650 0
28.090000 0.107238 0
28.095000 0.081155 0
28.100000 0.056672 0
28.105000 0.033993 0
28.110000 0.013252 0
28.115000 -0.005477 0
28.120000 -0.022181 0
28.125000 -0.036893 0
28.130000 -0.049686 0
28.135000 -0.060669 0
28.140000 -0.069972 0
28.145000 -0.077739 0
28.150000 -0.084127 0
28.155000 -0.089290 0
28.160000 -0.093382 0
28.165000 -0.096550 0
28.170000 -0.098930 0
28.175000 -0.100646 0
28.180000 -0.101811 0
28.185000 -0.102522 0
28.190000 -0.102865 0
28.195000 -0.102912 0
28.200000 -0.102725 0
28.205000 -0.101883 0
28.210000 -0.100936 0
28.215000 -0.099993 0
28.220000 -0.099055 0
28.225000 -0.098121 0
28.230000 -0.097192 0
28.235000 -0.096268 0
28.240000 -0.095349 0
28.245000 -0.094434 0
28.250000 -0.093523 0
28.255000 -0.092617 0
28.260000 -0.091715 0
28.265000 -0.090817 0
28.270000 -0.089922 0
28.275000 -0.089030 0
28.280000 -0.088138 0
28.285000 -0.087244 0
28.290000 -0.086341 0
28.295000 -0.085421 0
28.300000 -0.084469 0
28.305000 -0.083461 0
28.310000 -0.082362 0
28.315000 -0.081118 0
28.320000 -0.079652 0
28.325000 -0.077855 0
28.330000 -0.075580 0
28.335000 -0.072634 0
28.340000 -0.068776 0
28.345000 -0.063713 0
28.350000 -0.057108 0
28.355000 -0.048597 0
28.360000 -0.037810 0
28.365000 -0.024410 0
28.370000 -0.008143 0
28.375000 0.011118 0
28.380000 0.033310 0
28.385000 0.058140 0
