0.000000 1.123726 3
0.005000 1.053647 0
0.010000 0.873884 0
0.015000 0.623012 0
0.020000 0.348762 0
0.025000 0.093244 0
0.030000 -0.115279 0
0.035000 -0.263162 0
0.040000 -0.348259 0
0.045000 -0.376669 4
0.050000 -0.360473 0
0.055000 -0.315486 0
0.060000 -0.258129 0
0.065000 -0.201979 0
0.070000 -0.155424 0
0.075000 -0.121362 0
0.080000 -0.098650 0
0.085000 -0.084219 0
0.090000 -0.074811 0
0.095000 -0.067885 0
0.100000 -0.061804 0
0.105000 -0.055653 0
0.110000 -0.048960 0
0.115000 -0.041482 0
0.120000 -0.033083 0
0.125000 -0.023667 0
0.130000 -0.013161 0
0.135000 -0.001504 0
0.140000 0.011350 0
0.145000 0.025431 0
0.150000 0.040749 0
0.155000 0.057293 0
0.160000 0.075025 0
0.165000 0.093878 0
0.170000 0.113757 0
0.175000 0.134534 0
0.180000 0.156051 0
0.185000 0.178116 0
0.190000 0.200510 0
0.195000 0.222987 0
0.200000 0.245275 0
0.205000 0.267087 0
0.210000 0.288120 0
0.215000 0.308069 0
0.220000 0.326627 0
0.225000 0.343495 0
0.230000 0.358394 0
0.235000 0.371065 0
0.240000 0.381283 0
0.245000 0.388860 0
0.250000 0.393651 0
0.255000 0.395558 5
0.260000 0.394535 0
0.265000 0.390587 0
0.270000 0.383773 0
0.275000 0.374202 0
0.280000 0.362029 0
0.285000 0.347455 0
0.290000 0.330717 0
0.295000 0.312082 0
0.300000 0.291844 0
0.305000 0.270311 0
0.310000 0.247799 0
0.315000 0.224626 0
0.320000 0.201101 0
0.325000 0.177521 0
0.330000 0.154164 0
0.335000 0.131282 0
0.340000 0.109100 0
0.345000 0.087812 0
0.350000 0.067579 0
0.355000 0.048529 0
0.360000 0.030756 0
0.365000 0.014326 0
0.370000 -0.000729 0
0.375000 -0.014400 0
0.380000 -0.026704 0
0.385000 -0.037677 0
0.390000 -0.047372 0
0.395000 -0.055857 0
0.400000 -0.063209 0
0.405000 -0.069511 0
0.410000 -0.074851 0
0.415000 -0.079319 0
0.420000 -0.083004 0
0.425000 -0.085991 0
0.430000 -0.088365 0
0.435000 -0.090201 0
0.440000 -0.091573 0
0.445000 -0.092545 0
0.450000 -0.093177 0
0.455000 -0.093522 0
0.460000 -0.093627 0
0.465000 -0.093532 0
0.470000 -0.093274 0
0.475000 -0.092881 0
0.480000 -0.092380 0
0.485000 -0.091792 0
0.490000 -0.091135 0
0.495000 -0.090425 0
0.500000 -0.089673 0
0.505000 -0.088889 0
0.510000 -0.088081 0
0.515000 -0.087255 0
0.520000 -0.086377 0
0.525000 -0.085494 0
0.530000 -0.084615 0
0.535000 -0.083740 0
0.540000 -0.082870 0
0.545000 -0.082004 0
0.550000 -0.081142 0
0.555000 -0.080285 0
0.560000 -0.079432 0
0.565000 -0.078583 0
0.570000 -0.077739 0
0.575000 -0.076898 0
0.580000 -0.076062 0
0.585000 -0.075230 0
0.590000 -0.074402 0
0.595000 -0.073579 0
0.600000 -0.072759 0
0.605000 -0.071944 0
0.610000 -0.071132 0
0.615000 -0.070325 0
0.620000 -0.069521 0
0.625000 -0.068722 0
0.630000 -0.067927 0
0.635000 -0.067135 0
0.640000 -0.066348 0
0.645000 -0.065564 0
0.650000 -0.064784 0
0.655000 -0.064008 0
0.660000 -0.063236 0
0.665000 -0.062467 0
0.670000 -0.061701 0
0.675000 -0.060938 0
0.680000 -0.060177 0
0.685000 -0.059416 0
0.690000 -0.058653 0
0.695000 -0.057884 0
0.700000 -0.057106 0
0.705000 -0.056309 0
0.710000 -0.055482 0
0.715000 -0.054609 0
0.720000 -0.053665 0
0.725000 -0.052619 0
0.730000 -0.051425 0
0.735000 -0.050024 0
0.740000 -0.048340 0
0.745000 -0.046274 0
0.750000 -0.043708 0
0.755000 -0.040497 0
0.760000 -0.036472 0
0.765000 -0.031446 0
0.770000 -0.025215 0
0.775000 -0.017567 0
0.780000 -0.008301 0
0.785000 0.002765 0
0.790000 0.015769 0
0.795000 0.030786 0
0.800000 0.047804 0
0.805000 0.066708 0
0.810000 0.087262 0
0.815000 0.109100 0
0.820000 0.131728 0
0.825000 0.154535 0
0.830000 0.176814 0
0.835000 0.197795 0
0.840000 0.216689 0
0.845000 0.232734 0
0.850000 0.245247 0
0.855000 0.253672 0
0.860000 0.257620 1
0.865000 0.256896 0
0.870000 0.251519 0
0.875000 0.241719 0
0.880000 0.227919 0
0.885000 0.210706 0
0.890000 0.190791 0
0.895000 0.168956 0
0.900000 0.146007 0
0.905000 0.122722 0
0.910000 0.099815 0
0.915000 0.077893 0
0.920000 0.057440 0
0.925000 0.038795 0
0.930000 0.022125 0
0.935000 0.007389 0
0.940000 -0.005753 0
0.945000 -0.018076 0
0.950000 -0.030946 0
0.955000 -0.046359 0
0.960000 -0.066658 0
0.965000 -0.093713 0
0.970000 -0.127605 0
0.975000 -0.165205 0
0.980000 -0.199393 0
0.985000 -0.219482 2
0.990000 -0.212781 0
0.995000 -0.166642 0
1.000000 -0.070483 0
1.005000 0.081812 0
1.010000 0.288165 0
1.015000 0.533445 0
1.020000 0.786282 0
1.025000 1.001936 0
1.030000 1.133473 0
1.035000 1.147967 3
1.040000 1.039207 0
1.045000 0.830464 0
1.050000 0.566035 0
1.055000 0.294062 0
1.060000 0.053014 0
1.065000 -0.133915 0
1.070000 -0.257627 0
1.075000 -0.319489 0
1.080000 -0.328366 4
1.085000 -0.298436 0
1.090000 -0.246518 0
1.095000 -0.188522 0
1.100000 -0.136174 0
1.105000 -0.095453 0
1.110000 -0.067190 0
1.115000 -0.049047 0
1.120000 -0.037634 0
1.125000 -0.029921 0
1.130000 -0.023779 0
1.135000 -0.017946 0
1.140000 -0.011753 0
1.145000 -0.004862 0
1.150000 0.002906 0
1.155000 0.011661 0
1.160000 0.021489 0
1.165000 0.032456 0
1.170000 0.044616 0
1.175000 0.058007 0
1.180000 0.072648 0
1.185000 0.088536 0
1.190000 0.105643 0
1.195000 0.123913 0
1.200000 0.143259 0
1.205000 0.163562 0
1.210000 0.184672 0
1.215000 0.206405 0
1.220000 0.228546 0
1.225000 0.250851 0
1.230000 0.273051 0
1.235000 0.294858 0
1.240000 0.315966 0
1.245000 0.336063 0
1.250000 0.354835 0
1.255000 0.371977 0
1.260000 0.387195 0
1.265000 0.400222 0
1.270000 0.410819 0
1.275000 0.418785 0
1.280000 0.423964 0
1.285000 0.426245 5
1.290000 0.425571 0
1.295000 0.421941 0
1.300000 0.415402 0
1.305000 0.406060 0
1.310000 0.394066 0
1.315000 0.379619 0
1.320000 0.362957 0
1.325000 0.344349 0
1.330000 0.324092 0
1.335000 0.302500 0
1.340000 0.279894 0
1.345000 0.256599 0
1.350000 0.232931 0
1.355000 0.209194 0
1.360000 0.185672 0
1.365000 0.162624 0
1.370000 0.140279 0
1.375000 0.118835 0
1.380000 0.098458 0
1.385000 0.079277 0
1.390000 0.061388 0
1.395000 0.044856 0
1.400000 0.029715 0
1.405000 0.015971 0
1.410000 0.003607 0
1.415000 -0.007416 0
1.420000 -0.017155 0
1.425000 -0.025677 0
1.430000 -0.033063 0
1.435000 -0.039398 0
1.440000 -0.044772 0
1.445000 -0.049278 0
1.450000 -0.053005 0
1.455000 -0.056040 0
1.460000 -0.058468 0
1.465000 -0.060365 0
1.470000 -0.061806 0
1.475000 -0.062854 0
1.480000 -0.063571 0
1.485000 -0.064007 0
1.490000 -0.064209 0
1.495000 -0.064219 0
1.500000 -0.064069 0
1.505000 -0.063791 0
1.510000 -0.063409 0
1.515000 -0.062944 0
1.520000 -0.062413 0
1.525000 -0.061831 0
1.530000 -0.061209 0
1.535000 -0.060557 0
1.540000 -0.059883 0
1.545000 -0.059183 0
1.550000 -0.058435 0
1.555000 -0.057691 0
1.560000 -0.056951 0
1.565000 -0.056214 0
1.570000 -0.055481 0
1.575000 -0.054752 0
1.580000 -0.054026 0
1.585000 -0.053304 0
1.590000 -0.052586 0
1.595000 -0.051871 0
1.600000 -0.051160 0
1.605000 -0.050452 0
1.610000 -0.049748 0
1.615000 -0.049047 0
1.620000 -0.048350 0
1.625000 -0.047656 0
1.630000 -0.046966 0
1.635000 -0.046279 0
1.640000 -0.045595 0
1.645000 -0.044915 0
1.650000 -0.044239 0
1.655000 -0.043565 0
1.660000 -0.042896 0
1.665000 -0.042229 0
1.670000 -0.041566 0
1.675000 -0.040906 0
1.680000 -0.040249 0
1.685000 -0.039595 0
1.690000 -0.038944 0
1.695000 -0.038296 0
1.700000 -0.037650 0
1.705000 -0.037006 0
1.710000 -0.036361 0
1.715000 -0.035715 0
1.720000 -0.035065 0
1.725000 -0.034405 0
1.730000 -0.033728 0
1.735000 -0.033025 0
1.740000 -0.032279 0
1.745000 -0.031469 0
1.750000 -0.030563 0
1.755000 -0.029519 0
1.760000 -0.028281 0
1.765000 -0.026774 0
1.770000 -0.024905 0
1.775000 -0.022554 0
1.780000 -0.019580 0
1.785000 -0.015816 0
1.790000 -0.011073 0
1.795000 -0.005144 0
1.800000 0.002184 0
1.805000 0.011122 0
1.810000 0.021857 0
1.815000 0.034537 0
1.820000 0.049246 0
1.825000 0.065984 0
1.830000 0.084643 0
1.835000 0.104992 0
1.840000 0.126669 0
1.845000 0.149177 0
1.850000 0.171898 0
1.855000 0.194114 0
1.860000 0.215041 0
1.865000 0.233874 0
1.870000 0.249836 0
1.875000 0.262230 0
1.880000 0.270489 0
1.885000 0.274218 1
1.890000 0.273227 0
1.895000 0.267543 0
1.900000 0.257409 0
1.905000 0.243269 0
1.910000 0.225732 0
1.915000 0.205529 0
1.920000 0.183464 0
1.925000 0.160356 0
1.930000 0.136996 0
1.935000 0.114099 0
1.940000 0.092271 0
1.945000 0.071985 0
1.950000 0.053561 0
1.955000 0.037142 0
1.960000 0.022641 0
1.965000 0.009641 0
1.970000 -0.002752 0
1.975000 -0.016064 0
1.980000 -0.032447 0
1.985000 -0.054273 0
1.990000 -0.083160 0
1.995000 -0.118517 0
2.000000 -0.156162 0
2.005000 -0.187785 0
2.010000 -0.201739 2
2.015000 -0.184877 0
2.020000 -0.124701 0
2.025000 -0.011489 0
2.030000 0.158873 0
2.035000 0.380509 0
2.040000 0.632627 0
2.045000 0.877818 0
2.050000 1.067981 0
2.055000 1.158499 3
2.060000 1.126006 0
2.065000 0.977807 0
2.070000 0.745297 0
2.075000 0.473679 0
2.080000 0.207097 0
2.085000 -0.021687 0
2.090000 -0.194314 0
2.095000 -0.304758 0
2.100000 -0.356000 0
2.105000 -0.357565 4
2.110000 -0.323553 0
2.115000 -0.270084 0
2.120000 -0.212022 0
2.125000 -0.160105 0
2.130000 -0.119693 0
2.135000 -0.091427 0
2.140000 -0.073048 0
2.145000 -0.061324 0
2.150000 -0.053338 0
2.155000 -0.047008 0
2.160000 -0.041071 0
2.165000 -0.034842 0
2.170000 -0.027969 0
2.175000 -0.020266 0
2.180000 -0.011618 0
2.185000 -0.001944 0
2.190000 0.008825 0
2.195000 0.020744 0
2.200000 0.033852 0
2.205000 0.048173 0
2.210000 0.063713 0
2.215000 0.080453 0
2.220000 0.098349 0
2.225000 0.117332 0
2.230000 0.137301 0
2.235000 0.158128 0
2.240000 0.179651 0
2.245000 0.201681 0
2.250000 0.224000 0
2.255000 0.246365 0
2.260000 0.268511 0
2.265000 0.290157 0
2.270000 0.311010 0
2.275000 0.330770 0
2.280000 0.349140 0
2.285000 0.365834 0
2.290000 0.380577 0
2.295000 0.393122 0
2.300000 0.403250 0
2.305000 0.410777 0
2.310000 0.415562 0
2.315000 0.417509 5
2.320000 0.416571 0
2.325000 0.412749 0
2.330000 0.406097 0
2.335000 0.396715 0
2.340000 0.384751 0
2.345000 0.370394 0
2.350000 0.353869 0
2.355000 0.335434 0
2.360000 0.315368 0
2.365000 0.293969 0
2.370000 0.271543 0
2.375000 0.248399 0
2.380000 0.224841 0
2.385000 0.201159 0
2.390000 0.177629 0
2.395000 0.154503 0
2.400000 0.132007 0
2.405000 0.110339 0
2.410000 0.089664 0
2.415000 0.070118 0
2.420000 0.051804 0
2.425000 0.034794 0
2.430000 0.019131 0
2.435000 0.004834 0
2.440000 -0.008105 0
2.445000 -0.019715 0
2.450000 -0.030039 0
2.455000 -0.039138 0
2.460000 -0.047083 0
2.465000 -0.053952 0
2.470000 -0.059829 0
2.475000 -0.064801 0
2.480000 -0.068954 0
2.485000 -0.072374 0
2.490000 -0.075144 0
2.495000 -0.077341 0
2.500000 -0.079039 0
2.505000 -0.080305 0
2.510000 -0.081200 0
2.515000 -0.081780 0
2.520000 -0.082094 0
2.525000 -0.082185 0
2.530000 -0.082092 0
2.535000 -0.081846 0
2.540000 -0.081476 0
2.545000 -0.081005 0
2.550000 -0.080454 0
2.555000 -0.079838 0
2.560000 -0.079173 0
2.565000 -0.078468 0
2.570000 -0.077734 0
2.575000 -0.076977 0
2.580000 -0.076204 0
2.585000 -0.075380 0
2.590000 -0.074552 0
2.595000 -0.073727 0
2.600000 -0.072907 0
2.605000 -0.072091 0
2.610000 -0.071279 0
2.615000 -0.070471 0
2.620000 -0.069666 0
2.625000 -0.068866 0
2.630000 -0.068070 0
2.635000 -0.067278 0
2.640000 -0.066490 0
2.645000 -0.065706 0
2.650000 -0.064925 0
2.655000 -0.064149 0
2.660000 -0.063377 0
2.665000 -0.062608 0
2.670000 -0.061843 0
2.675000 -0.061082 0
2.680000 -0.060325 0
2.685000 -0.059571 0
2.690000 -0.058821 0
2.695000 -0.058075 0
2.700000 -0.057333 0
2.705000 -0.056595 0
2.710000 -0.055860 0
2.715000 -0.055128 0
2.720000 -0.054400 0
2.725000 -0.053676 0
2.730000 -0.052955 0
2.735000 -0.052237 0
2.740000 -0.051521 0
2.745000 -0.050808 0
2.750000 -0.050095 0
2.755000 -0.049380 0
2.760000 -0.048662 0
2.765000 -0.047935 0
2.770000 -0.047194 0
2.775000 -0.046428 0
2.780000 -0.045623 0
2.785000 -0.044760 0
2.790000 -0.043810 0
2.795000 -0.042736 0
2.800000 -0.041488 0
2.805000 -0.039998 0
2.810000 -0.038183 0
2.815000 -0.035937 0
2.820000 -0.033133 0
2.825000 -0.029619 0
2.830000 -0.025223 0
2.835000 -0.019755 0
2.840000 -0.013012 0
2.845000 -0.004792 0
2.850000 0.005097 0
2.855000 0.016815 0
2.860000 0.030478 0
2.865000 0.046129 0
2.870000 0.063727 0
2.875000 0.083122 0
2.880000 0.104046 0
2.885000 0.126108 0
2.890000 0.148794 0
2.895000 0.171482 0
2.900000 0.193468 0
2.905000 0.213996 0
2.910000 0.232301 0
2.915000 0.247655 0
2.920000 0.259417 0
2.925000 0.267071 0
2.930000 0.270270 1
2.935000 0.268855 0
2.940000 0.262872 0
2.945000 0.252569 0
2.950000 0.238376 0
2.955000 0.220875 0
2.960000 0.200763 0
2.965000 0.178803 0
2.970000 0.155778 0
2.975000 0.132443 0
2.980000 0.109487 0
2.985000 0.087503 0
2.990000 0.066960 0
2.995000 0.048190 0
3.000000 0.031366 0
3.005000 0.016460 0
3.010000 0.003167 0
3.015000 -0.009224 0
3.020000 -0.021976 0
3.025000 -0.036963 0
3.030000 -0.056450 0
3.035000 -0.082396 0
3.040000 -0.115254 0
3.045000 -0.152613 0
3.050000 -0.188294 0
3.055000 -0.212525 0
3.060000 -0.213235 2
3.065000 -0.177952 0
3.070000 -0.095717 0
3.075000 0.040834 0
3.080000 0.232341 0
3.085000 0.468276 0
3.090000 0.723042 0
3.095000 0.956518 0
3.100000 1.122153 0
3.105000 1.181390 3
3.110000 1.117242 0
3.115000 0.941425 0
3.120000 0.692157 0
3.125000 0.417666 0
3.130000 0.160915 0
3.135000 -0.049078 0
3.140000 -0.198214 0
3.145000 -0.284171 0
3.150000 -0.313053 4
3.155000 -0.297065 0
3.160000 -0.252215 0
3.165000 -0.195104 0
3.170000 -0.139403 0
3.175000 -0.093478 0
3.180000 -0.060128 0
3.185000 -0.038101 0
3.190000 -0.024259 0
3.195000 -0.015327 0
3.200000 -0.008778 0
3.205000 -0.003007 0
3.210000 0.002879 0
3.215000 0.009336 0
3.220000 0.016596 0
3.225000 0.024794 0
3.230000 0.034024 0
3.235000 0.044359 0
3.240000 0.055858 0
3.245000 0.068567 0
3.250000 0.082516 0
3.255000 0.097710 0
3.260000 0.114136 0
3.265000 0.131752 0
3.270000 0.150486 0
3.275000 0.170237 0
3.280000 0.190872 0
3.285000 0.212225 0
3.290000 0.234098 0
3.295000 0.256264 0
3.300000 0.278469 0
3.305000 0.300436 0
3.310000 0.321870 0
3.315000 0.342464 0
3.320000 0.361907 0
3.325000 0.379890 0
3.330000 0.396116 0
3.335000 0.410303 0
3.340000 0.422197 0
3.345000 0.431579 0
3.350000 0.438267 0
3.355000 0.442126 0
3.360000 0.443068 5
3.365000 0.441061 0
3.370000 0.436123 0
3.375000 0.428327 0
3.380000 0.417795 0
3.385000 0.404699 0
3.390000 0.389251 0
3.395000 0.371701 0
3.400000 0.352329 0
3.405000 0.331436 0
3.410000 0.309337 0
3.415000 0.286354 0
3.420000 0.262805 0
3.425000 0.239002 0
3.430000 0.215239 0
3.435000 0.191788 0
3.440000 0.168896 0
3.445000 0.146781 0
3.450000 0.125626 0
3.455000 0.105582 0
3.460000 0.086768 0
3.465000 0.069268 0
3.470000 0.053134 0
3.475000 0.038391 0
3.480000 0.025036 0
3.485000 0.013046 0
3.490000 0.002376 0
3.495000 -0.007035 0
3.500000 -0.015258 0
3.505000 -0.022374 0
3.510000 -0.028471 0
3.515000 -0.033638 0
3.520000 -0.037966 0
3.525000 -0.041545 0
3.530000 -0.044458 0
3.535000 -0.046790 0
3.540000 -0.048614 0
3.545000 -0.050000 0
3.550000 -0.051014 0
3.555000 -0.051710 0
3.560000 -0.052140 0
3.565000 -0.052349 0
3.570000 -0.052374 0
3.575000 -0.052248 0
3.580000 -0.052001 0
3.585000 -0.051655 0
3.590000 -0.051231 0
3.595000 -0.050744 0
3.600000 -0.050210 0
3.605000 -0.049638 0
3.610000 -0.049038 0
3.615000 -0.048416 0
3.620000 -0.047770 0
3.625000 -0.047079 0
3.630000 -0.046392 0
3.635000 -0.045708 0
3.640000 -0.045027 0
3.645000 -0.044350 0
3.650000 -0.043676 0
3.655000 -0.043006 0
3.660000 -0.042339 0
3.665000 -0.041675 0
3.670000 -0.041015 0
3.675000 -0.040357 0
3.680000 -0.039703 0
3.685000 -0.039053 0
3.690000 -0.038405 0
3.695000 -0.037761 0
3.700000 -0.037120 0
3.705000 -0.036483 0
3.710000 -0.035848 0
3.715000 -0.035217 0
3.720000 -0.034588 0
3.725000 -0.033963 0
3.730000 -0.033341 0
3.735000 -0.032722 0
3.740000 -0.032107 0
3.745000 -0.031494 0
3.750000 -0.030884 0
3.755000 -0.030277 0
3.760000 -0.029673 0
3.765000 -0.029072 0
3.770000 -0.028473 0
3.775000 -0.027875 0
3.780000 -0.027280 0
3.785000 -0.026684 0
3.790000 -0.026085 0
3.795000 -0.025482 0
3.800000 -0.024869 0
3.805000 -0.024238 0
3.810000 -0.023580 0
3.815000 -0.022878 0
3.820000 -0.022110 0
3.825000 -0.021245 0
3.830000 -0.020240 0
3.835000 -0.019039 0
3.840000 -0.017567 0
3.845000 -0.015730 0
3.850000 -0.013409 0
3.855000 -0.010464 0
3.860000 -0.006727 0
3.865000 -0.002012 0
3.870000 0.003887 0
3.875000 0.011181 0
3.880000 0.020080 0
3.885000 0.030769 0
3.890000 0.043396 0
3.895000 0.058043 0
3.900000 0.074711 0
3.905000 0.093294 0
3.910000 0.113566 0
3.915000 0.135170 0
3.920000 0.157616 0
3.925000 0.180296 0
3.930000 0.202498 0
3.935000 0.223448 0
3.940000 0.242347 0
3.945000 0.258422 0
3.950000 0.270975 0
3.955000 0.279437 0
3.960000 0.283406 1
3.965000 0.282679 0
3.970000 0.277270 0
3.975000 0.267405 0
3.980000 0.253511 0
3.985000 0.236180 0
3.990000 0.216131 0
3.995000 0.194156 0
4.000000 0.171068 0
4.005000 0.147658 0
4.010000 0.124642 0
4.015000 0.102635 0
4.020000 0.082120 0
4.025000 0.063433 0
4.030000 0.046738 0
4.035000 0.031978 0
4.040000 0.018789 0
4.045000 0.006352 0
4.050000 -0.006760 0
4.055000 -0.022609 0
4.060000 -0.043562 0
4.065000 -0.071416 0
4.070000 -0.106001 0
4.075000 -0.143770 0
4.080000 -0.177097 0
4.085000 -0.194850 2
4.090000 -0.184084 0
4.095000 -0.132149 0
4.100000 -0.028765 0
4.105000 0.131394 0
4.110000 0.344660 0
4.115000 0.593408 0
4.120000 0.843440 0
4.125000 1.048185 0
4.130000 1.161346 3
4.135000 1.153761 0
4.140000 1.025246 0
4.145000 0.803947 0
4.150000 0.535214 0
4.155000 0.265648 0
4.160000 0.031028 0
4.165000 -0.147938 0
4.170000 -0.263861 0
4.175000 -0.319129 0
4.180000 -0.323169 4
4.185000 -0.290349 0
4.190000 -0.237294 0
4.195000 -0.179407 0
4.200000 -0.127794 0
4.205000 -0.087922 0
4.210000 -0.060336 0
4.215000 -0.042625 0
4.220000 -0.031442 0
4.225000 -0.023836 0
4.230000 -0.017743 0
4.235000 -0.011939 0
4.240000 -0.005772 0
4.245000 0.001088 0
4.250000 0.008816 0
4.255000 0.017522 0
4.260000 0.027290 0
4.265000 0.038185 0
4.270000 0.050262 0
4.275000 0.063557 0
4.280000 0.078091 0
4.285000 0.093863 0
4.290000 0.110846 0
4.295000 0.128987 0
4.300000 0.148203 0
4.305000 0.168382 0
4.310000 0.189377 0
4.315000 0.211011 0
4.320000 0.233076 0
4.325000 0.255337 0
4.330000 0.277532 0
4.335000 0.299378 0
4.340000 0.320579 0
4.345000 0.340827 0
4.350000 0.359814 0
4.355000 0.377236 0
4.360000 0.392804 0
4.365000 0.406248 0
4.370000 0.417328 0
4.375000 0.425837 0
4.380000 0.431612 0
4.385000 0.434533 0
4.390000 0.434534 5
4.395000 0.431598 0
4.400000 0.425761 0
4.405000 0.417111 0
4.410000 0.405787 0
4.415000 0.391972 0
4.420000 0.375889 0
4.425000 0.357796 0
4.430000 0.337976 0
4.435000 0.316735 0
4.440000 0.294387 0
4.445000 0.271251 0
4.450000 0.247642 0
4.455000 0.223863 0
4.460000 0.200203 0
4.465000 0.176923 0
4.470000 0.154261 0
4.475000 0.132424 0
4.480000 0.111586 0
4.485000 0.091888 0
4.490000 0.073439 0
4.495000 0.056313 0
4.500000 0.040557 0
4.505000 0.026188 0
4.510000 0.013199 0
4.515000 0.001559 0
4.520000 -0.008780 0
4.525000 -0.017878 0
4.530000 -0.025811 0
4.535000 -0.032660 0
4.540000 -0.038513 0
4.545000 -0.043458 0
4.550000 -0.047586 0
4.555000 -0.050985 0
4.560000 -0.053738 0
4.565000 -0.055925 0
4.570000 -0.057621 0
4.575000 -0.058894 0
4.580000 -0.059805 0
4.585000 -0.060410 0
4.590000 -0.060758 0
4.595000 -0.060892 0
4.600000 -0.060849 0
4.605000 -0.060661 0
4.610000 -0.060355 0
4.615000 -0.059955 0
4.620000 -0.059480 0
4.625000 -0.058945 0
4.630000 -0.058364 0
4.635000 -0.057747 0
4.640000 -0.057103 0
4.645000 -0.056438 0
4.650000 -0.055751 0
4.655000 -0.055020 0
4.660000 -0.054293 0
4.665000 -0.053570 0
4.670000 -0.052850 0
4.675000 -0.052134 0
4.680000 -0.051421 0
4.685000 -0.050712 0
4.690000 -0.050007 0
4.695000 -0.049305 0
4.700000 -0.048606 0
4.705000 -0.047911 0
4.710000 -0.047219 0
4.715000 -0.046531 0
4.720000 -0.045847 0
4.725000 -0.045165 0
4.730000 -0.044488 0
4.735000 -0.043813 0
4.740000 -0.043142 0
4.745000 -0.042474 0
4.750000 -0.041810 0
4.755000 -0.041149 0
4.760000 -0.040491 0
4.765000 -0.039836 0
4.770000 -0.039185 0
4.775000 -0.038537 0
4.780000 -0.037892 0
4.785000 -0.037250 0
4.790000 -0.036611 0
4.795000 -0.035975 0
4.800000 -0.035342 0
4.805000 -0.034710 0
4.810000 -0.034080 0
4.815000 -0.033451 0
4.820000 -0.032819 0
4.825000 -0.032182 0
4.830000 -0.031536 0
4.835000 -0.030874 0
4.840000 -0.030184 0
4.845000 -0.029452 0
4.850000 -0.028656 0
4.855000 -0.027765 0
4.860000 -0.026739 0
4.865000 -0.025521 0
4.870000 -0.024040 0
4.875000 -0.022203 0
4.880000 -0.019895 0
4.885000 -0.016977 0
4.890000 -0.013288 0
4.895000 -0.008642 0
4.900000 -0.002838 0
4.905000 0.004334 0
4.910000 0.013083 0
4.915000 0.023596 0
4.920000 0.036023 0
4.925000 0.050457 0
4.930000 0.066907 0
4.935000 0.085284 0
4.940000 0.105379 0
4.945000 0.126854 0
4.950000 0.149243 0
4.955000 0.171956 0
4.960000 0.194303 0
4.965000 0.215521 0
4.970000 0.234818 0
4.975000 0.251421 0
4.980000 0.264624 0
4.985000 0.273836 0
4.990000 0.278629 0
4.995000 0.278767 1
5.000000 0.274223 0
5.005000 0.265185 0
5.010000 0.252041 0
5.015000 0.235350 0
5.020000 0.215804 0
5.025000 0.194177 0
5.030000 0.171277 0
5.035000 0.147896 0
5.040000 0.124762 0
5.045000 0.102510 0
5.050000 0.081650 0
5.055000 0.062548 0
5.060000 0.045410 0
5.065000 0.030235 0
5.070000 0.016748 0
5.075000 0.004259 0
5.080000 -0.008487 0
5.085000 -0.023390 0
5.090000 -0.042780 0
5.095000 -0.068702 0
5.100000 -0.101649 0
5.105000 -0.139111 0
5.110000 -0.174623 0
5.115000 -0.197973 2
5.120000 -0.196619 0
5.125000 -0.157724 0
5.130000 -0.070194 0
5.135000 0.073028 0
5.140000 0.271466 0
5.145000 0.512280 0
5.150000 0.766517 0
5.155000 0.990808 0
5.160000 1.137400 0
5.165000 1.170152 3
5.170000 1.079187 0
5.175000 0.884652 0
5.180000 0.626916 0
5.185000 0.352782 0
5.190000 0.101917 0
5.195000 -0.099940 0
5.200000 -0.240983 0
5.205000 -0.320153 0
5.210000 -0.344111 4
5.215000 -0.325136 0
5.220000 -0.278908 0
5.225000 -0.221438 0
5.230000 -0.165779 0
5.235000 -0.119870 0
5.240000 -0.086352 0
5.245000 -0.064011 0
5.250000 -0.049819 0
5.255000 -0.040583 0
5.260000 -0.033813 0
5.265000 -0.027898 0
5.270000 -0.021928 0
5.275000 -0.015432 0
5.280000 -0.008167 0
5.285000 0.000004 0
5.290000 0.009177 0
5.295000 0.019425 0
5.300000 0.030807 0
5.305000 0.043370 0
5.310000 0.057147 0
5.315000 0.072148 0
5.320000 0.088366 0
5.325000 0.105766 0
5.330000 0.124287 0
5.335000 0.143841 0
5.340000 0.164307 0
5.345000 0.185534 0
5.350000 0.207343 0
5.355000 0.229522 0
5.360000 0.251834 0
5.365000 0.274020 0
5.370000 0.295800 0
5.375000 0.316882 0
5.380000 0.336964 0
5.385000 0.355747 0
5.390000 0.372936 0
5.395000 0.388249 0
5.400000 0.401428 0
5.405000 0.412243 0
5.410000 0.420495 0
5.415000 0.426031 0
5.420000 0.428739 5
5.425000 0.428556 0
5.430000 0.425472 0
5.435000 0.419525 0
5.440000 0.410804 0
5.445000 0.399446 0
5.450000 0.385629 0
5.455000 0.369574 0
5.460000 0.351532 0
5.465000 0.331781 0
5.470000 0.310617 0
5.475000 0.288348 0
5.480000 0.265285 0
5.485000 0.241736 0
5.490000 0.217999 0
5.495000 0.194356 0
5.500000 0.171066 0
5.505000 0.148363 0
5.510000 0.126453 0
5.515000 0.105511 0
5.520000 0.085678 0
5.525000 0.067064 0
5.530000 0.049750 0
5.535000 0.033784 0
5.540000 0.019187 0
5.545000 0.005958 0
5.550000 -0.005930 0
5.555000 -0.016518 0
5.560000 -0.025864 0
5.565000 -0.034039 0
5.570000 -0.041121 0
5.575000 -0.047194 0
5.580000 -0.052345 0
5.585000 -0.056662 0
5.590000 -0.060231 0
5.595000 -0.063136 0
5.600000 -0.065457 0
5.605000 -0.067267 0
5.610000 -0.068635 0
5.615000 -0.069625 0
5.620000 -0.070292 0
5.625000 -0.070686 0
5.630000 -0.070853 0
5.635000 -0.070831 0
5.640000 -0.070653 0
5.645000 -0.070347 0
5.650000 -0.069939 0
5.655000 -0.069448 0
5.660000 -0.068892 0
5.665000 -0.068283 0
5.670000 -0.067635 0
5.675000 -0.066956 0
5.680000 -0.066255 0
5.685000 -0.065536 0
5.690000 -0.064765 0
5.695000 -0.063990 0
5.700000 -0.063218 0
5.705000 -0.062450 0
5.710000 -0.061686 0
5.715000 -0.060926 0
5.720000 -0.060169 0
5.725000 -0.059416 0
5.730000 -0.058668 0
5.735000 -0.057922 0
5.740000 -0.057181 0
5.745000 -0.056443 0
5.750000 -0.055709 0
5.755000 -0.054978 0
5.760000 -0.054252 0
5.765000 -0.053528 0
5.770000 -0.052809 0
5.775000 -0.052093 0
5.780000 -0.051380 0
5.785000 -0.050672 0
5.790000 -0.049966 0
5.795000 -0.049264 0
5.800000 -0.048566 0
5.805000 -0.047871 0
5.810000 -0.047180 0
5.815000 -0.046492 0
5.820000 -0.045807 0
5.825000 -0.045126 0
5.830000 -0.044448 0
5.835000 -0.043773 0
5.840000 -0.043100 0
5.845000 -0.042430 0
5.850000 -0.041761 0
5.855000 -0.041093 0
5.860000 -0.040423 0
5.865000 -0.039748 0
5.870000 -0.039064 0
5.875000 -0.038364 0
5.880000 -0.037637 0
5.885000 -0.036868 0
5.890000 -0.036037 0
5.895000 -0.035114 0
5.900000 -0.034059 0
5.905000 -0.032819 0
5.910000 -0.031324 0
5.915000 -0.029485 0
5.920000 -0.027193 0
5.925000 -0.024314 0
5.930000 -0.020691 0
5.935000 -0.016148 0
5.940000 -0.010489 0
5.945000 -0.003509 0
5.950000 0.004995 0
5.955000 0.015212 0
5.960000 0.027297 0
5.965000 0.041351 0
5.970000 0.057403 0
5.975000 0.075387 0
5.980000 0.095127 0
5.985000 0.116322 0
5.990000 0.138550 0
5.995000 0.161262 0
6.000000 0.183810 0
6.005000 0.205465 0
6.010000 0.225458 0
6.015000 0.243023 0
6.020000 0.257443 0
6.025000 0.268100 0
6.030000 0.274517 0
6.035000 0.276394 1
6.040000 0.273629 0
6.045000 0.266327 0
6.050000 0.254792 0
6.055000 0.239509 0
6.060000 0.221105 0
6.065000 0.200308 0
6.070000 0.177900 0
6.075000 0.154665 0
6.080000 0.131349 0
6.085000 0.108620 0
6.090000 0.087036 0
6.095000 0.067028 0
6.100000 0.048879 0
6.105000 0.032700 0
6.110000 0.018377 0
6.115000 0.005477 0
6.120000 -0.006900 0
6.125000 -0.020255 0
6.130000 -0.036670 0
6.135000 -0.058427 0
6.140000 -0.087095 0
6.145000 -0.122191 0
6.150000 -0.159880 0
6.155000 -0.192434 0
6.160000 -0.208877 2
6.165000 -0.196629 0
6.170000 -0.143489 0
6.175000 -0.039581 0
6.180000 0.120207 0
6.185000 0.332423 0
6.190000 0.580373 0
6.195000 0.831537 0
6.200000 1.041185 0
6.205000 1.163874 0
6.210000 1.169128 3
6.215000 1.052815 0
6.220000 0.839208 0
6.225000 0.572984 0
6.230000 0.301685 0
6.235000 0.062758 0
6.240000 -0.121533 0
6.245000 -0.242709 0
6.250000 -0.302485 0
6.255000 -0.309896 4
6.260000 -0.279153 0
6.265000 -0.226975 0
6.270000 -0.169085 0
6.275000 -0.117003 0
6.280000 -0.076556 0
6.285000 -0.048507 0
6.290000 -0.030514 0
6.295000 -0.019209 0
6.300000 -0.011585 0
6.305000 -0.005532 0
6.310000 0.000209 0
6.315000 0.006304 0
6.320000 0.013091 0
6.325000 0.020749 0
6.330000 0.029391 0
6.335000 0.039098 0
6.340000 0.049938 0
6.345000 0.061966 0
6.350000 0.075219 0
6.355000 0.089717 0
6.360000 0.105458 0
6.365000 0.122415 0
6.370000 0.140535 0
6.375000 0.159733 0
6.380000 0.179892 0
6.385000 0.200866 0
6.390000 0.222474 0
6.395000 0.244504 0
6.400000 0.266718 0
6.405000 0.288849 0
6.410000 0.310613 0
6.415000 0.331708 0
6.420000 0.351824 0
6.425000 0.370650 0
6.430000 0.387882 0
6.435000 0.403226 0
6.440000 0.416415 0
6.445000 0.427208 0
6.450000 0.435401 0
6.455000 0.440833 0
6.460000 0.443390 5
6.465000 0.443008 0
6.470000 0.439678 0
6.475000 0.433443 0
6.480000 0.424397 0
6.485000 0.412687 0
6.490000 0.398502 0
6.495000 0.382074 0
6.500000 0.363665 0
6.505000 0.343568 0
6.510000 0.322089 0
6.515000 0.299550 0
6.520000 0.276270 0
6.525000 0.252567 0
6.530000 0.228744 0
6.535000 0.205087 0
6.540000 0.181857 0
6.545000 0.159289 0
6.550000 0.137584 0
6.555000 0.116913 0
6.560000 0.097411 0
6.565000 0.079181 0
6.570000 0.062293 0
6.575000 0.046786 0
6.580000 0.032672 0
6.585000 0.019939 0
6.590000 0.008552 0
6.595000 -0.001540 0
6.600000 -0.010403 0
6.605000 -0.018115 0
6.610000 -0.024759 0
6.615000 -0.030424 0
6.620000 -0.035200 0
6.625000 -0.039178 0
6.630000 -0.042446 0
6.635000 -0.045086 0
6.640000 -0.047179 0
6.645000 -0.048798 0
6.650000 -0.050009 0
6.655000 -0.050873 0
6.660000 -0.051445 0
6.665000 -0.051771 0
6.670000 -0.051893 0
6.675000 -0.051848 0
6.680000 -0.051665 0
6.685000 -0.051373 0
6.690000 -0.050991 0
6.695000 -0.050539 0
6.700000 -0.050031 0
6.705000 -0.049481 0
6.710000 -0.048897 0
6.715000 -0.048288 0
6.720000 -0.047661 0
6.725000 -0.046980 0
6.730000 -0.046293 0
6.735000 -0.045610 0
6.740000 -0.044930 0
6.745000 -0.044253 0
6.750000 -0.043580 0
6.755000 -0.042910 0
6.760000 -0.042243 0
6.765000 -0.041580 0
6.770000 -0.040920 0
6.775000 -0.040263 0
6.780000 -0.039610 0
6.785000 -0.038959 0
6.790000 -0.038312 0
6.795000 -0.037669 0
6.800000 -0.037028 0
6.805000 -0.036391 0
6.810000 -0.035757 0
6.815000 -0.035126 0
6.820000 -0.034498 0
6.825000 -0.033873 0
6.830000 -0.033252 0
6.835000 -0.032633 0
6.840000 -0.032018 0
6.845000 -0.031406 0
6.850000 -0.030796 0
6.855000 -0.030190 0
6.860000 -0.029587 0
6.865000 -0.028986 0
6.870000 -0.028388 0
6.875000 -0.027792 0
6.880000 -0.027197 0
6.885000 -0.026603 0
6.890000 -0.026009 0
6.895000 -0.025411 0
6.900000 -0.024805 0
6.905000 -0.024187 0
6.910000 -0.023547 0
6.915000 -0.022872 0
6.920000 -0.022144 0
6.925000 -0.021337 0
6.930000 -0.020415 0
6.935000 -0.019328 0
6.940000 -0.018011 0
6.945000 -0.016382 0
6.950000 -0.014335 0
6.955000 -0.011741 0
6.960000 -0.008447 0
6.965000 -0.004276 0
6.970000 0.000970 0
6.975000 0.007499 0
6.980000 0.015525 0
6.985000 0.025246 0
6.990000 0.036835 0
6.995000 0.050409 0
7.000000 0.066017 0
7.005000 0.083610 0
7.010000 0.103027 0
7.015000 0.123982 0
7.020000 0.146052 0
7.025000 0.168690 0
7.030000 0.191235 0
7.035000 0.212941 0
7.040000 0.233015 0
7.045000 0.250663 0
7.050000 0.265142 0
7.055000 0.275809 0
7.060000 0.282169 0
7.065000 0.283913 1
7.070000 0.280940 0
7.075000 0.273364 0
7.080000 0.261512 0
7.085000 0.245895 0
7.090000 0.227170 0
7.095000 0.206098 0
7.100000 0.183489 0
7.105000 0.160151 0
7.110000 0.136844 0
7.115000 0.114240 0
7.120000 0.092894 0
7.125000 0.073221 0
7.130000 0.055479 0
7.135000 0.039733 0
7.140000 0.025795 0
7.145000 0.013102 0
7.150000 0.000558 0
7.155000 -0.013580 0
7.160000 -0.031596 0
7.165000 -0.055729 0
7.170000 -0.087023 0
7.175000 -0.123833 0
7.180000 -0.160662 0
7.185000 -0.188038 0
7.190000 -0.193694 2
7.195000 -0.164561 0
7.200000 -0.088859 0
7.205000 0.041702 0
7.210000 0.228712 0
7.215000 0.462339 0
7.220000 0.716942 0
7.225000 0.951251 0
7.230000 1.116802 0
7.235000 1.173472 3
7.240000 1.105306 0
7.245000 0.926994 0
7.250000 0.676764 0
7.255000 0.402287 0
7.260000 0.145843 0
7.265000 -0.064029 0
7.270000 -0.213433 0
7.275000 -0.300029 0
7.280000 -0.329765 4
7.285000 -0.314605 0
7.290000 -0.270302 0
7.295000 -0.213288 0
7.300000 -0.157224 0
7.305000 -0.110624 0
7.310000 -0.076495 0
7.315000 -0.053768 0
7.320000 -0.039401 0
7.325000 -0.030127 0
7.330000 -0.023386 0
7.335000 -0.017520 0
7.340000 -0.011600 0
7.345000 -0.005145 0
7.350000 0.002089 0
7.355000 0.010244 0
7.360000 0.019413 0
7.365000 0.029670 0
7.370000 0.041078 0
7.375000 0.053682 0
7.380000 0.067513 0
7.385000 0.082583 0
7.390000 0.098879 0
7.395000 0.116364 0
7.400000 0.134974 0
7.405000 0.154614 0
7.410000 0.175158 0
7.415000 0.196447 0
7.420000 0.218292 0
7.425000 0.240475 0
7.430000 0.262750 0
7.435000 0.284847 0
7.440000 0.306479 0
7.445000 0.327345 0
7.450000 0.347139 0
7.455000 0.365554 0
7.460000 0.382292 0
7.465000 0.397072 0
7.470000 0.409635 0
7.475000 0.419755 0
7.480000 0.427243 0
7.485000 0.431951 0
7.490000 0.433780 5
7.495000 0.432682 0
7.500000 0.428661 0
7.505000 0.421773 0
7.510000 0.412123 0
7.515000 0.399868 0
7.520000 0.385203 0
7.525000 0.368366 0
7.530000 0.349622 0
7.535000 0.329264 0
7.540000 0.307598 0
7.545000 0.284942 0
7.550000 0.261610 0
7.555000 0.237916 0
7.560000 0.214154 0
7.565000 0.190603 0
7.570000 0.167518 0
7.575000 0.145124 0
7.580000 0.123616 0
7.585000 0.103156 0
7.590000 0.083874 0
7.595000 0.065866 0
7.600000 0.049198 0
7.605000 0.033906 0
7.610000 0.019997 0
7.615000 0.007458 0
7.620000 -0.003749 0
7.625000 -0.013674 0
7.630000 -0.022385 0
7.635000 -0.029958 0
7.640000 -0.036476 0
7.645000 -0.042028 0
7.650000 -0.046702 0
7.655000 -0.050588 0
7.660000 -0.053772 0
7.665000 -0.056336 0
7.670000 -0.058359 0
7.675000 -0.059913 0
7.680000 -0.061063 0
7.685000 -0.061870 0
7.690000 -0.062386 0
7.695000 -0.062658 0
7.700000 -0.062728 0
7.705000 -0.062632 0
7.710000 -0.062399 0
7.715000 -0.062056 0
7.720000 -0.061624 0
7.725000 -0.061122 0
7.730000 -0.060564 0
7.735000 -0.059963 0
7.740000 -0.059329 0
7.745000 -0.058670 0
7.750000 -0.057993 0
7.755000 -0.057261 0
7.760000 -0.056522 0
7.765000 -0.055788 0
7.770000 -0.055057 0
7.775000 -0.054330 0
7.780000 -0.053606 0
7.785000 -0.052886 0
7.790000 -0.052170 0
7.795000 -0.051457 0
7.800000 -0.050748 0
7.805000 -0.050042 0
7.810000 -0.049340 0
7.815000 -0.048641 0
7.820000 -0.047946 0
7.825000 -0.047254 0
7.830000 -0.046566 0
7.835000 -0.045881 0
7.840000 -0.045200 0
7.845000 -0.044522 0
7.850000 -0.043847 0
7.855000 -0.043176 0
7.860000 -0.042508 0
7.865000 -0.041843 0
7.870000 -0.041182 0
7.875000 -0.040524 0
7.880000 -0.039869 0
7.885000 -0.039217 0
7.890000 -0.038569 0
7.895000 -0.037923 0
7.900000 -0.037281 0
7.905000 -0.036641 0
7.910000 -0.036003 0
7.915000 -0.035366 0
7.920000 -0.034729 0
7.925000 -0.034089 0
7.930000 -0.033445 0
7.935000 -0.032789 0
7.940000 -0.032116 0
7.945000 -0.031413 0
7.950000 -0.030664 0
7.955000 -0.029847 0
7.960000 -0.028929 0
7.965000 -0.027868 0
7.970000 -0.026604 0
7.975000 -0.025064 0
7.980000 -0.023150 0
7.985000 -0.020746 0
7.990000 -0.017709 0
7.995000 -0.013874 0
8.000000 -0.009053 0
8.005000 -0.003044 0
8.010000 0.004364 0
8.015000 0.013373 0
8.020000 0.024169 0
8.025000 0.036892 0
8.030000 0.051625 0
8.035000 0.068363 0
8.040000 0.087002 0
8.045000 0.107315 0
8.050000 0.128950 0
8.055000 0.151423 0
8.060000 0.174134 0
8.065000 0.196382 0
8.070000 0.217403 0
8.075000 0.236408 0
8.080000 0.252632 0
8.085000 0.265383 0
8.090000 0.274092 0
8.095000 0.278353 1
8.100000 0.277955 0
8.105000 0.272895 0
8.110000 0.263385 0
8.115000 0.249831 0
8.120000 0.232806 0
8.125000 0.213010 0
8.130000 0.191220 0
8.135000 0.168241 0
8.140000 0.144857 0
8.145000 0.121786 0
8.150000 0.099648 0
8.155000 0.078939 0
8.160000 0.060010 0
8.165000 0.043049 0
8.170000 0.028038 0
8.175000 0.014670 0
8.180000 0.002220 0
8.185000 -0.010612 0
8.190000 -0.025764 0
8.195000 -0.045569 0
8.200000 -0.071997 0
8.205000 -0.105374 0
8.210000 -0.142948 0
8.215000 -0.178011 0
8.220000 -0.200189 2
8.225000 -0.196913 0
8.230000 -0.155450 0
8.235000 -0.064919 0
8.240000 0.081397 0
8.245000 0.282487 0
8.250000 0.524798 0
8.255000 0.778685 0
8.260000 1.000459 0
8.265000 1.142724 0
8.270000 1.170355 3
8.275000 1.074666 0
8.280000 0.876702 0
8.285000 0.617402 0
8.290000 0.343513 0
8.295000 0.094225 0
8.300000 -0.105321 0
8.305000 -0.243822 0
8.310000 -0.320582 0
8.315000 -0.342530 4
8.320000 -0.322132 0
8.325000 -0.275149 0
8.330000 -0.217536 0
8.335000 -0.162166 0
8.340000 -0.116753 0
8.345000 -0.083744 0
8.350000 -0.061811 0
8.355000 -0.047890 0
8.360000 -0.038807 0
8.365000 -0.032105 0
8.370000 -0.026209 0
8.375000 -0.020232 0
8.380000 -0.013715 0
8.385000 -0.006422 0
8.390000 0.001783 0
8.395000 0.010992 0
8.400000 0.021278 0
8.405000 0.032702 0
8.410000 0.045309 0
8.415000 0.059129 0
8.420000 0.074175 0
8.425000 0.090437 0
8.430000 0.107878 0
8.435000 0.126439 0
8.440000 0.146027 0
8.445000 0.166521 0
8.450000 0.187771 0
8.455000 0.209593 0
8.460000 0.231776 0
8.465000 0.254082 0
8.470000 0.276250 0
8.475000 0.298000 0
8.480000 0.319038 0
8.485000 0.339065 0
8.490000 0.357780 0
8.495000 0.374887 0
8.500000 0.390108 0
8.505000 0.403184 0
8.510000 0.413885 0
8.515000 0.422018 0
8.520000 0.427427 0
8.525000 0.430005 5
8.530000 0.429691 0
8.535000 0.426476 0
8.540000 0.420400 0
8.545000 0.411555 0
8.550000 0.400080 0
8.555000 0.386155 0
8.560000 0.370002 0
8.565000 0.351874 0
8.570000 0.332048 0
8.575000 0.310823 0
8.580000 0.288507 0
8.585000 0.265411 0
8.590000 0.241842 0
8.595000 0.218098 0
8.600000 0.194459 0
8.605000 0.171184 0
8.610000 0.148507 0
8.615000 0.126631 0
8.620000 0.105729 0
8.625000 0.085942 0
8.630000 0.067380 0
8.635000 0.050119 0
8.640000 0.034208 0
8.645000 0.019667 0
8.650000 0.006493 0
8.655000 -0.005341 0
8.660000 -0.015877 0
8.665000 -0.025175 0
8.670000 -0.033305 0
8.675000 -0.040345 0
8.680000 -0.046380 0
8.685000 -0.051497 0
8.690000 -0.055783 0
8.695000 -0.059326 0
8.700000 -0.062208 0
8.705000 -0.064508 0
8.710000 -0.066302 0
8.715000 -0.067657 0
8.720000 -0.068636 0
8.725000 -0.069295 0
8.730000 -0.069683 0
8.735000 -0.069846 0
8.740000 -0.069821 0
8.745000 -0.069641 0
8.750000 -0.069335 0
8.755000 -0.068928 0
8.760000 -0.068438 0
8.765000 -0.067884 0
8.770000 -0.067279 0
8.775000 -0.066634 0
8.780000 -0.065959 0
8.785000 -0.065261 0
8.790000 -0.064546 0
8.795000 -0.063780 0
8.800000 -0.063010 0
8.805000 -0.062243 0
8.810000 -0.061480 0
8.815000 -0.060721 0
8.820000 -0.059965 0
8.825000 -0.059213 0
8.830000 -0.058465 0
8.835000 -0.057721 0
8.840000 -0.056981 0
8.845000 -0.056244 0
8.850000 -0.055511 0
8.855000 -0.054781 0
8.860000 -0.054056 0
8.865000 -0.053333 0
8.870000 -0.052615 0
8.875000 -0.051900 0
8.880000 -0.051188 0
8.885000 -0.050480 0
8.890000 -0.049776 0
8.895000 -0.049075 0
8.900000 -0.048378 0
8.905000 -0.047684 0
8.910000 -0.046993 0
8.915000 -0.046306 0
8.920000 -0.045623 0
8.925000 -0.044942 0
8.930000 -0.044265 0
8.935000 -0.043591 0
8.940000 -0.042921 0
8.945000 -0.042252 0
8.950000 -0.041586 0
8.955000 -0.040922 0
8.960000 -0.040258 0
8.965000 -0.039591 0
8.970000 -0.038920 0
8.975000 -0.038239 0
8.980000 -0.037542 0
8.985000 -0.036817 0
8.990000 -0.036050 0
8.995000 -0.035219 0
9.000000 -0.034295 0
9.005000 -0.033236 0
9.010000 -0.031989 0
9.015000 -0.030482 0
9.020000 -0.028628 0
9.025000 -0.026314 0
9.030000 -0.023406 0
9.035000 -0.019747 0
9.040000 -0.015157 0
9.045000 -0.009441 0
9.050000 -0.002394 0
9.055000 0.006188 0
9.060000 0.016491 0
9.065000 0.028668 0
9.070000 0.042818 0
9.075000 0.058965 0
9.080000 0.077038 0
9.085000 0.096855 0
9.090000 0.118110 0
9.095000 0.140371 0
9.100000 0.163089 0
9.105000 0.185606 0
9.110000 0.207193 0
9.115000 0.227079 0
9.120000 0.244498 0
9.125000 0.258739 0
9.130000 0.269189 0
9.135000 0.275379 0
9.140000 0.277019 1
9.145000 0.274016 0
9.150000 0.266487 0
9.155000 0.254746 0
9.160000 0.239285 0
9.165000 0.220738 0
9.170000 0.199837 0
9.175000 0.177364 0
9.180000 0.154104 0
9.185000 0.130800 0
9.190000 0.108113 0
9.195000 0.086598 0
9.200000 0.066676 0
9.205000 0.048624 0
9.210000 0.032543 0
9.215000 0.018304 0
9.220000 0.005455 0
9.225000 -0.006934 0
9.230000 -0.020395 0
9.235000 -0.037034 0
9.240000 -0.059125 0
9.245000 -0.088166 0
9.250000 -0.123527 0
9.255000 -0.161175 0
9.260000 -0.193187 0
9.265000 -0.208454 2
9.270000 -0.194366 0
9.275000 -0.138795 0
9.280000 -0.032041 0
9.285000 0.130669 0
9.290000 0.345302 0
9.295000 0.594361 0
9.300000 0.844523 0
9.305000 1.050667 0
9.310000 1.167734 3
9.315000 1.166437 0
9.320000 1.043298 0
9.325000 0.824856 0
9.330000 0.556830 0
9.335000 0.286790 0
9.340000 0.051454 0
9.345000 -0.127896 0
9.350000 -0.243675 0
9.355000 -0.298335 0
9.360000 -0.301540 4
9.365000 -0.267983 0
9.370000 -0.214586 0
9.375000 -0.156897 0
9.380000 -0.105952 0
9.385000 -0.066999 0
9.390000 -0.040336 0
9.395000 -0.023379 0
9.400000 -0.012720 0
9.405000 -0.005430 0
9.410000 0.000497 0
9.415000 0.006232 0
9.420000 0.012386 0
9.425000 0.019268 0
9.430000 0.027045 0
9.435000 0.035824 0
9.440000 0.045685 0
9.445000 0.056694 0
9.450000 0.068904 0
9.455000 0.082349 0
9.460000 0.097046 0
9.465000 0.112990 0
9.470000 0.130147 0
9.475000 0.148458 0
9.480000 0.167833 0
9.485000 0.188147 0
9.490000 0.209245 0
9.495000 0.230939 0
9.500000 0.253010 0
9.505000 0.275210 0
9.510000 0.297268 0
9.515000 0.318890 0
9.520000 0.339772 0
9.525000 0.359599 0
9.530000 0.378058 0
9.535000 0.394844 0
9.540000 0.409667 0
9.545000 0.422263 0
9.550000 0.432399 0
9.555000 0.439877 0
9.560000 0.444549 0
9.565000 0.446312 5
9.570000 0.445116 0
9.575000 0.440966 0
9.580000 0.433919 0
9.585000 0.424087 0
9.590000 0.411628 0
9.595000 0.396748 0
9.600000 0.379689 0
9.605000 0.360727 0
9.610000 0.340160 0
9.615000 0.318304 0
9.620000 0.295482 0
9.625000 0.272017 0
9.630000 0.248227 0
9.635000 0.224410 0
9.640000 0.200850 0
9.645000 0.177799 0
9.650000 0.155484 0
9.655000 0.134098 0
9.660000 0.113800 0
9.665000 0.094716 0
9.670000 0.076937 0
9.675000 0.060522 0
9.680000 0.045502 0
9.685000 0.031879 0
9.690000 0.019632 0
9.695000 0.008719 0
9.700000 -0.000917 0
9.705000 -0.009348 0
9.710000 -0.016655 0
9.715000 -0.022923 0
9.720000 -0.028245 0
9.725000 -0.032711 0
9.730000 -0.036410 0
9.735000 -0.039432 0
9.740000 -0.041857 0
9.745000 -0.043763 0
9.750000 -0.045222 0
9.755000 -0.046299 0
9.760000 -0.047051 0
9.765000 -0.047530 0
9.770000 -0.047782 0
9.775000 -0.047846 0
9.780000 -0.047756 0
9.785000 -0.047541 0
9.790000 -0.047225 0
9.795000 -0.046829 0
9.800000 -0.046369 0
9.805000 -0.045859 0
9.810000 -0.045311 0
9.815000 -0.044734 0
9.820000 -0.044135 0
9.825000 -0.043512 0
9.830000 -0.042842 0
9.835000 -0.042176 0
9.840000 -0.041513 0
9.845000 -0.040853 0
9.850000 -0.040197 0
9.855000 -0.039544 0
9.860000 -0.038894 0
9.865000 -0.038247 0
9.870000 -0.037604 0
9.875000 -0.036964 0
9.880000 -0.036327 0
9.885000 -0.035693 0
9.890000 -0.035062 0
9.895000 -0.034435 0
9.900000 -0.033811 0
9.905000 -0.033189 0
9.910000 -0.032571 0
9.915000 -0.031956 0
9.920000 -0.031344 0
9.925000 -0.030735 0
9.930000 -0.030129 0
9.935000 -0.029526 0
9.940000 -0.028927 0
9.945000 -0.028330 0
9.950000 -0.027736 0
9.955000 -0.027145 0
9.960000 -0.026556 0
9.965000 -0.025971 0
9.970000 -0.025388 0
9.975000 -0.024807 0
9.980000 -0.024228 0
9.985000 -0.023650 0
9.990000 -0.023072 0
9.995000 -0.022491 0
10.000000 -0.021905 0
10.005000 -0.021308 0
10.010000 -0.020692 0
10.015000 -0.020047 0
10.020000 -0.019355 0
10.025000 -0.018594 0
10.030000 -0.017731 0
10.035000 -0.016720 0
10.040000 -0.015503 0
10.045000 -0.014002 0
10.050000 -0.012118 0
10.055000 -0.009729 0
10.060000 -0.006688 0
10.065000 -0.002823 0
10.070000 0.002057 0
10.075000 0.008162 0
10.080000 0.015706 0
10.085000 0.024896 0
10.090000 0.035915 0
10.095000 0.048901 0
10.100000 0.063925 0
10.105000 0.080967 0
10.110000 0.099898 0
10.115000 0.120464 0
10.120000 0.142276 0
10.125000 0.164816 0
10.130000 0.187443 0
10.135000 0.209424 0
10.140000 0.229968 0
10.145000 0.248269 0
10.150000 0.263560 0
10.155000 0.275165 0
10.160000 0.282546 0
10.165000 0.285345 1
10.170000 0.283410 0
10.175000 0.276810 0
10.180000 0.265828 0
10.185000 0.250942 0
10.190000 0.232788 0
10.195000 0.212116 0
10.200000 0.189736 0
10.205000 0.166469 0
10.210000 0.143092 0
10.215000 0.120304 0
10.220000 0.098686 0
10.225000 0.078685 0
10.230000 0.060590 0
10.235000 0.044504 0
10.240000 0.030286 0
10.245000 0.017440 0
10.250000 0.004958 0
10.255000 -0.008817 0
10.260000 -0.026128 0
10.265000 -0.049300 0
10.270000 -0.079641 0
10.275000 -0.115954 0
10.280000 -0.153248 0
10.285000 -0.182448 0
10.290000 -0.191439 2
10.295000 -0.167024 0
10.300000 -0.097069 0
10.305000 0.027314 0
10.310000 0.208663 0
10.315000 0.438497 0
10.320000 0.692654 0
10.325000 0.930803 0
10.330000 1.104171 0
10.335000 1.170891 3
10.340000 1.113589 0
10.345000 0.944359 0
10.350000 0.699261 0
10.355000 0.425175 0
10.360000 0.164975 0
10.365000 -0.051458 0
10.370000 -0.208795 0
10.375000 -0.303489 0
10.380000 -0.340477 4
10.385000 -0.330868 0
10.390000 -0.289843 0
10.395000 -0.233759 0
10.400000 -0.176741 0
10.405000 -0.128113 0
10.410000 -0.091710 0
10.415000 -0.067039 0
10.420000 -0.051299 0
10.425000 -0.041209 0
10.430000 -0.034070 0
10.435000 -0.028072 0
10.440000 -0.022169 0
10.445000 -0.015814 0
10.450000 -0.008727 0
10.455000 -0.000752 0
10.460000 0.008209 0
10.465000 0.018236 0
10.470000 0.029390 0
10.475000 0.041723 0
10.480000 0.055267 0
10.485000 0.070041 0
10.490000 0.086038 0
10.495000 0.103230 0
10.500000 0.121560 0
10.505000 0.140944 0
10.510000 0.161265 0
10.515000 0.182378 0
10.520000 0.204106 0
10.525000 0.226241 0
10.530000 0.248548 0
10.535000 0.270770 0
10.540000 0.292628 0
10.545000 0.313828 0
10.550000 0.334069 0
10.555000 0.353048 0
10.560000 0.370466 0
10.565000 0.386039 0
10.570000 0.399503 0
10.575000 0.410621 0
10.580000 0.419192 0
10.585000 0.425052 0
10.590000 0.428085 0
10.595000 0.428224 5
10.600000 0.425449 0
10.605000 0.419796 0
10.610000 0.411348 0
10.615000 0.400238 0
10.620000 0.386643 0
10.625000 0.370780 0
10.630000 0.352900 0
10.635000 0.333280 0
10.640000 0.312218 0
10.645000 0.290022 0
10.650000 0.267006 0
10.655000 0.243481 0
10.660000 0.219747 0
10.665000 0.196089 0
10.670000 0.172769 0
10.675000 0.150026 0
10.680000 0.128067 0
10.685000 0.107070 0
10.690000 0.087181 0
10.695000 0.068510 0
10.700000 0.051140 0
10.705000 0.035121 0
10.710000 0.020475 0
10.715000 0.007201 0
10.720000 -0.004725 0
10.725000 -0.015346 0
10.730000 -0.024721 0
10.735000 -0.032919 0
10.740000 -0.040019 0
10.745000 -0.046106 0
10.750000 -0.051268 0
10.755000 -0.055592 0
10.760000 -0.059166 0
10.765000 -0.062074 0
10.770000 -0.064395 0
10.775000 -0.066206 0
10.780000 -0.067574 0
10.785000 -0.068562 0
10.790000 -0.069229 0
10.795000 -0.069623 0
10.800000 -0.069789 0
10.805000 -0.069767 0
10.810000 -0.069589 0
10.815000 -0.069285 0
10.820000 -0.068878 0
10.825000 -0.068389 0
10.830000 -0.067835 0
10.835000 -0.067230 0
10.840000 -0.066585 0
10.845000 -0.065909 0
10.850000 -0.065211 0
10.855000 -0.064496 0
10.860000 -0.063731 0
10.865000 -0.062961 0
10.870000 -0.062194 0
10.875000 -0.061431 0
10.880000 -0.060672 0
10.885000 -0.059917 0
10.890000 -0.059166 0
10.895000 -0.058418 0
10.900000 -0.057674 0
10.905000 -0.056934 0
10.910000 -0.056197 0
10.915000 -0.055464 0
10.920000 -0.054735 0
10.925000 -0.054009 0
10.930000 -0.053287 0
10.935000 -0.052569 0
10.940000 -0.051854 0
10.945000 -0.051143 0
10.950000 -0.050435 0
10.955000 -0.049731 0
10.960000 -0.049030 0
10.965000 -0.048333 0
10.970000 -0.047640 0
10.975000 -0.046949 0
10.980000 -0.046263 0
10.985000 -0.045579 0
10.990000 -0.044899 0
10.995000 -0.044222 0
11.000000 -0.043549 0
11.005000 -0.042878 0
11.010000 -0.042210 0
11.015000 -0.041544 0
11.020000 -0.040879 0
11.025000 -0.040214 0
11.030000 -0.039548 0
11.035000 -0.038875 0
11.040000 -0.038192 0
11.045000 -0.037491 0
11.050000 -0.036761 0
11.055000 -0.035986 0
11.060000 -0.035143 0
11.065000 -0.034200 0
11.070000 -0.033115 0
11.075000 -0.031830 0
11.080000 -0.030273 0
11.085000 -0.028349 0
11.090000 -0.025942 0
11.095000 -0.022914 0
11.100000 -0.019101 0
11.105000 -0.014320 0
11.110000 -0.008372 0
11.115000 -0.001050 0
11.120000 0.007849 0
11.125000 0.018509 0
11.130000 0.031073 0
11.135000 0.045629 0
11.140000 0.062182 0
11.145000 0.080640 0
11.150000 0.100793 0
11.155000 0.122307 0
11.160000 0.144722 0
11.165000 0.167458 0
11.170000 0.189835 0
11.175000 0.211106 0
11.180000 0.230492 0
11.185000 0.247231 0
11.190000 0.260625 0
11.195000 0.270088 0
11.200000 0.275190 0
11.205000 0.275684 1
11.210000 0.271531 0
11.215000 0.262898 0
11.220000 0.250150 0
11.225000 0.233822 0
11.230000 0.214583 0
11.235000 0.193187 0
11.240000 0.170428 0
11.245000 0.147089 0
11.250000 0.123897 0
11.255000 0.101491 0
11.260000 0.080393 0
11.265000 0.060989 0
11.270000 0.043509 0
11.275000 0.027995 0
11.280000 0.014236 0
11.285000 0.001648 0
11.290000 -0.010875 0
11.295000 -0.025068 0
11.300000 -0.043169 0
11.305000 -0.067351 0
11.310000 -0.098603 0
11.315000 -0.135322 0
11.320000 -0.172194 0
11.325000 -0.200069 0
11.330000 -0.207059 2
11.335000 -0.180414 0
11.340000 -0.108516 0
11.345000 0.017064 0
11.350000 0.198631 0
11.355000 0.427971 0
11.360000 0.681974 0
11.365000 0.922067 0
11.370000 1.101162 0
11.375000 1.177789 3
11.380000 1.131499 0
11.385000 0.971102 0
11.390000 0.730920 0
11.395000 0.457503 0
11.400000 0.194562 0
11.405000 -0.026694 0
11.410000 -0.189706 0
11.415000 -0.290009 0
11.420000 -0.331881 4
11.425000 -0.325950 0
11.430000 -0.287132 0
11.435000 -0.231812 0
11.440000 -0.174446 0
11.445000 -0.124853 0
11.450000 -0.087341 0
11.455000 -0.061731 0
11.460000 -0.045350 0
11.465000 -0.034905 0
11.470000 -0.027619 0
11.475000 -0.021605 0
11.480000 -0.015757 0
11.485000 -0.009493 0
11.490000 -0.002515 0
11.495000 0.005339 0
11.500000 0.014172 0
11.505000 0.024063 0
11.510000 0.035077 0
11.515000 0.047265 0
11.520000 0.060664 0
11.525000 0.075290 0
11.530000 0.091141 0
11.535000 0.108191 0
11.540000 0.126386 0
11.545000 0.145643 0
11.550000 0.165850 0
11.555000 0.186865 0
11.560000 0.208511 0
11.565000 0.230585 0
11.570000 0.252855 0
11.575000 0.275065 0
11.580000 0.296937 0
11.585000 0.318180 0
11.590000 0.338492 0
11.595000 0.357571 0
11.600000 0.375117 0
11.605000 0.390844 0
11.610000 0.404487 0
11.615000 0.415804 0
11.620000 0.424592 0
11.625000 0.430683 0
11.630000 0.433958 0
11.635000 0.434341 5
11.640000 0.431812 0
11.645000 0.426399 0
11.650000 0.418181 0
11.655000 0.407288 0
11.660000 0.393891 0
11.665000 0.378204 0
11.670000 0.360476 0
11.675000 0.340980 0
11.680000 0.320014 0
11.685000 0.297884 0
11.690000 0.274905 0
11.695000 0.251387 0
11.700000 0.227632 0
11.705000 0.203927 0
11.710000 0.180536 0
11.715000 0.157701 0
11.720000 0.135631 0
11.725000 0.114507 0
11.730000 0.094478 0
11.735000 0.075659 0
11.740000 0.058133 0
11.745000 0.041955 0
11.750000 0.027150 0
11.755000 0.013717 0
11.760000 0.001636 0
11.765000 -0.009136 0
11.770000 -0.018655 0
11.775000 -0.026990 0
11.780000 -0.034220 0
11.785000 -0.040427 0
11.790000 -0.045701 0
11.795000 -0.050128 0
11.800000 -0.053797 0
11.805000 -0.056792 0
11.810000 -0.059192 0
11.815000 -0.061074 0
11.820000 -0.062508 0
11.825000 -0.063556 0
11.830000 -0.064276 0
11.835000 -0.064719 0
11.840000 -0.064931 0
11.845000 -0.064950 0
11.850000 -0.064810 0
11.855000 -0.064541 0
11.860000 -0.064167 0
11.865000 -0.063709 0
11.870000 -0.063184 0
11.875000 -0.062607 0
11.880000 -0.061989 0
11.885000 -0.061340 0
11.890000 -0.060667 0
11.895000 -0.059976 0
11.900000 -0.059234 0
11.905000 -0.058486 0
11.910000 -0.057741 0
11.915000 -0.057001 0
11.920000 -0.056264 0
11.925000 -0.055531 0
11.930000 -0.054801 0
11.935000 -0.054075 0
11.940000 -0.053353 0
11.945000 -0.052634 0
11.950000 -0.051919 0
11.955000 -0.051207 0
11.960000 -0.050499 0
11.965000 -0.049795 0
11.970000 -0.049094 0
11.975000 -0.048397 0
11.980000 -0.047703 0
11.985000 -0.047012 0
11.990000 -0.046325 0
11.995000 -0.045641 0
12.000000 -0.044961 0
12.005000 -0.044284 0
12.010000 -0.043611 0
12.015000 -0.042941 0
12.020000 -0.042274 0
12.025000 -0.041610 0
12.030000 -0.040950 0
12.035000 -0.040293 0
12.040000 -0.039639 0
12.045000 -0.038988 0
12.050000 -0.038339 0
12.055000 -0.037693 0
12.060000 -0.037047 0
12.065000 -0.036402 0
12.070000 -0.035755 0
12.075000 -0.035103 0
12.080000 -0.034440 0
12.085000 -0.033761 0
12.090000 -0.033053 0
12.095000 -0.032302 0
12.100000 -0.031486 0
12.105000 -0.030574 0
12.110000 -0.029525 0
12.115000 -0.028283 0
12.120000 -0.026776 0
12.125000 -0.024913 0
12.130000 -0.022581 0
12.135000 -0.019642 0
12.140000 -0.015938 0
12.145000 -0.011285 0
12.150000 -0.005486 0
12.155000 0.001665 0
12.160000 0.010373 0
12.165000 0.020823 0
12.170000 0.033165 0
12.175000 0.047493 0
12.180000 0.063822 0
12.185000 0.082070 0
12.190000 0.102041 0
12.195000 0.123415 0
12.200000 0.145744 0
12.205000 0.168459 0
12.210000 0.190892 0
12.215000 0.212299 0
12.220000 0.231904 0
12.225000 0.248940 0
12.230000 0.262702 0
12.235000 0.272588 0
12.240000 0.278151 0
12.245000 0.279123 1
12.250000 0.275443 0
12.255000 0.267255 0
12.260000 0.254906 0
12.265000 0.238913 0
12.270000 0.219934 0
12.275000 0.198715 0
12.280000 0.176048 0
12.285000 0.152718 0
12.290000 0.129462 0
12.295000 0.106930 0
12.300000 0.085655 0
12.305000 0.066040 0
12.310000 0.048333 0
12.315000 0.032598 0
12.320000 0.018655 0
12.325000 0.005969 0
12.330000 -0.006504 0
12.335000 -0.020431 0
12.340000 -0.038012 0
12.345000 -0.061471 0
12.350000 -0.091993 0
12.355000 -0.128320 0
12.360000 -0.165568 0
12.365000 -0.194973 0
12.370000 -0.204860 2
12.375000 -0.182478 0
12.380000 -0.115996 0
12.385000 0.003481 0
12.390000 0.179108 0
12.395000 0.404059 0
12.400000 0.656984 0
12.405000 0.900817 0
12.410000 1.088817 0
12.415000 1.178111 3
12.420000 1.143543 0
12.425000 0.990559 0
12.430000 0.753373 0
12.435000 0.480264 0
12.440000 0.217091 0
12.445000 -0.003452 0
12.450000 -0.164269 0
12.455000 -0.261071 0
12.460000 -0.298762 4
12.465000 -0.288878 0
12.470000 -0.247290 0
12.475000 -0.191034 0
12.480000 -0.134618 0
12.485000 -0.087323 0
12.490000 -0.052629 0
12.495000 -0.029618 0
12.500000 -0.015205 0
12.505000 -0.006016 0
12.510000 0.000598 0
12.515000 0.006339 0
12.520000 0.012155 0
12.525000 0.018530 0
12.530000 0.025708 0
12.535000 0.033829 0
12.540000 0.042990 0
12.545000 0.053264 0
12.550000 0.064714 0
12.555000 0.077386 0
12.560000 0.091309 0
12.565000 0.106490 0
12.570000 0.122913 0
12.575000 0.140536 0
12.580000 0.159284 0
12.585000 0.179053 0
12.590000 0.199705 0
12.595000 0.221069 0
12.600000 0.242942 0
12.605000 0.265089 0
12.610000 0.287250 0
12.615000 0.309140 0
12.620000 0.330457 0
12.625000 0.350889 0
12.630000 0.370119 0
12.635000 0.387832 0
12.640000 0.403728 0
12.645000 0.417525 0
12.650000 0.428969 0
12.655000 0.437842 0
12.660000 0.443968 0
12.665000 0.447218 0
12.670000 0.447515 5
12.675000 0.444836 0
12.680000 0.439211 0
12.685000 0.430727 0
12.690000 0.419520 0
12.695000 0.405775 0
12.700000 0.389720 0
12.705000 0.371617 0
12.710000 0.351757 0
12.715000 0.330452 0
12.720000 0.308025 0
12.725000 0.284805 0
12.730000 0.261113 0
12.735000 0.237261 0
12.740000 0.213542 0
12.745000 0.190226 0
12.750000 0.167554 0
12.755000 0.145734 0
12.760000 0.124943 0
12.765000 0.105322 0
12.770000 0.086976 0
12.775000 0.069981 0
12.780000 0.054377 0
12.785000 0.040177 0
12.790000 0.027371 0
12.795000 0.015924 0
12.800000 0.005783 0
12.805000 -0.003119 0
12.810000 -0.010859 0
12.815000 -0.017523 0
12.820000 -0.023201 0
12.825000 -0.027986 0
12.830000 -0.031969 0
12.835000 -0.035239 0
12.840000 -0.037882 0
12.845000 -0.039977 0
12.850000 -0.041598 0
12.855000 -0.042814 0
12.860000 -0.043684 0
12.865000 -0.044264 0
12.870000 -0.044601 0
12.875000 -0.044738 0
12.880000 -0.044709 0
12.885000 -0.044545 0
12.890000 -0.044273 0
12.895000 -0.043915 0
12.900000 -0.043487 0
12.905000 -0.043006 0
12.910000 -0.042484 0
12.915000 -0.041929 0
12.920000 -0.041350 0
12.925000 -0.040754 0
12.930000 -0.040107 0
12.935000 -0.039454 0
12.940000 -0.038805 0
12.945000 -0.038159 0
12.950000 -0.037516 0
12.955000 -0.036876 0
12.960000 -0.036239 0
12.965000 -0.035606 0
12.970000 -0.034976 0
12.975000 -0.034349 0
12.980000 -0.033725 0
12.985000 -0.033104 0
12.990000 -0.032486 0
12.995000 -0.031872 0
13.000000 -0.031260 0
13.005000 -0.030652 0
13.010000 -0.030046 0
13.015000 -0.029444 0
13.020000 -0.028844 0
13.025000 -0.028248 0
13.030000 -0.027654 0
13.035000 -0.027064 0
13.040000 -0.026476 0
13.045000 -0.025891 0
13.050000 -0.025310 0
13.055000 -0.024731 0
13.060000 -0.024154 0
13.065000 -0.023581 0
13.070000 -0.023010 0
13.075000 -0.022441 0
13.080000 -0.021874 0
13.085000 -0.021308 0
13.090000 -0.020742 0
13.095000 -0.020174 0
13.100000 -0.019600 0
13.105000 -0.019017 0
13.110000 -0.018415 0
13.115000 -0.017785 0
13.120000 -0.017111 0
13.125000 -0.016370 0
13.130000 -0.015529 0
13.135000 -0.014545 0
13.140000 -0.013359 0
13.145000 -0.011895 0
13.150000 -0.010054 0
13.155000 -0.007716 0
13.160000 -0.004733 0
13.165000 -0.000935 0
13.170000 0.003871 0
13.175000 0.009897 0
13.180000 0.017357 0
13.185000 0.026463 0
13.190000 0.037399 0
13.195000 0.050307 0
13.200000 0.065261 0
13.205000 0.082244 0
13.210000 0.101130 0
13.215000 0.121664 0
13.220000 0.143458 0
13.225000 0.165987 0
13.230000 0.188609 0
13.235000 0.210582 0
13.240000 0.231108 0
13.245000 0.249376 0
13.250000 0.264611 0
13.255000 0.276133 0
13.260000 0.283403 0
13.265000 0.286062 1
13.270000 0.283966 0
13.275000 0.277190 0
13.280000 0.266028 0
13.285000 0.250970 0
13.290000 0.232664 0
13.295000 0.211870 0
13.300000 0.189409 0
13.305000 0.166106 0
13.310000 0.142743 0
13.315000 0.120016 0
13.320000 0.098504 0
13.325000 0.078645 0
13.330000 0.060716 0
13.335000 0.044803 0
13.340000 0.030736 0
13.345000 0.017973 0
13.350000 0.005435 0
13.355000 -0.008621 0
13.360000 -0.026501 0
13.365000 -0.050501 0
13.370000 -0.081720 0
13.375000 -0.118534 0
13.380000 -0.155369 0
13.385000 -0.182576 0
13.390000 -0.187657 2
13.395000 -0.157320 0
13.400000 -0.079653 0
13.405000 0.053583 0
13.410000 0.243566 0
13.415000 0.479484 0
13.420000 0.734134 0
13.425000 0.964606 0
13.430000 1.121658 0
13.435000 1.166129 3
13.440000 1.087155 0
13.445000 0.902234 0
13.450000 0.649486 0
13.455000 0.375017 0
13.460000 0.119270 0
13.465000 -0.090490 0
13.470000 -0.240876 0
13.475000 -0.329481 0
13.480000 -0.361818 4
13.485000 -0.349179 0
13.490000 -0.306606 0
13.495000 -0.250049 0
13.500000 -0.193125 0
13.505000 -0.144726 0
13.510000 -0.108453 0
13.515000 -0.083760 0
13.520000 -0.067898 0
13.525000 -0.057656 0
13.530000 -0.050382 0
13.535000 -0.044283 0
13.540000 -0.038314 0
13.545000 -0.031919 0
13.550000 -0.024815 0
13.555000 -0.016846 0
13.560000 -0.007909 0
13.565000 0.002073 0
13.570000 0.013162 0
13.575000 0.025409 0
13.580000 0.038850 0
13.585000 0.053502 0
13.590000 0.069366 0
13.595000 0.086416 0
13.600000 0.104602 0
13.605000 0.123847 0
13.610000 0.144044 0
13.615000 0.165057 0
13.620000 0.186718 0
13.625000 0.208832 0
13.630000 0.231177 0
13.635000 0.253506 0
13.640000 0.275551 0
13.645000 0.297029 0
13.650000 0.317648 0
13.655000 0.337110 0
13.660000 0.355123 0
13.665000 0.371403 0
13.670000 0.385685 0
13.675000 0.397727 0
13.680000 0.407318 0
13.685000 0.414287 0
13.690000 0.418500 0
13.695000 0.419872 5
13.700000 0.418366 0
13.705000 0.413993 0
13.710000 0.406816 0
13.715000 0.396942 0
13.720000 0.384527 0
13.725000 0.369764 0
13.730000 0.352885 0
13.735000 0.334147 0
13.740000 0.313834 0
13.745000 0.292242 0
13.750000 0.269675 0
13.755000 0.246441 0
13.760000 0.222838 0
13.765000 0.199155 0
13.770000 0.175661 0
13.775000 0.152602 0
13.780000 0.130200 0
13.785000 0.108647 0
13.790000 0.088104 0
13.795000 0.068700 0
13.800000 0.050533 0
13.805000 0.033674 0
13.810000 0.018161 0
13.815000 0.004008 0
13.820000 -0.008794 0
13.825000 -0.020273 0
13.830000 -0.030478 0
13.835000 -0.039468 0
13.840000 -0.047315 0
13.845000 -0.054097 0
13.850000 -0.059897 0
13.855000 -0.064803 0
13.860000 -0.068900 0
13.865000 -0.072272 0
13.870000 -0.075002 0
13.875000 -0.077166 0
13.880000 -0.078837 0
13.885000 -0.080082 0
13.890000 -0.080960 0
13.895000 -0.081527 0
13.900000 -0.081831 0
13.905000 -0.081915 0
13.910000 -0.081816 0
13.915000 -0.081567 0
13.920000 -0.081194 0
13.925000 -0.080723 0
13.930000 -0.080171 0
13.935000 -0.079556 0
13.940000 -0.078891 0
13.945000 -0.078187 0
13.950000 -0.077454 0
13.955000 -0.076698 0
13.960000 -0.075926 0
13.965000 -0.075104 0
13.970000 -0.074277 0
13.975000 -0.073454 0
13.980000 -0.072635 0
13.985000 -0.071820 0
13.990000 -0.071009 0
13.995000 -0.070203 0
14.000000 -0.069400 0
14.005000 -0.068601 0
14.010000 -0.067806 0
14.015000 -0.067016 0
14.020000 -0.066229 0
14.025000 -0.065446 0
14.030000 -0.064667 0
14.035000 -0.063892 0
14.040000 -0.063120 0
14.045000 -0.062353 0
14.050000 -0.061589 0
14.055000 -0.060830 0
14.060000 -0.060074 0
14.065000 -0.059321 0
14.070000 -0.058573 0
14.075000 -0.057828 0
14.080000 -0.057087 0
14.085000 -0.056350 0
14.090000 -0.055616 0
14.095000 -0.054886 0
14.100000 -0.054159 0
14.105000 -0.053436 0
14.110000 -0.052716 0
14.115000 -0.051999 0
14.120000 -0.051285 0
14.125000 -0.050573 0
14.130000 -0.049861 0
14.135000 -0.049149 0
14.140000 -0.048433 0
14.145000 -0.047710 0
14.150000 -0.046972 0
14.155000 -0.046212 0
14.160000 -0.045415 0
14.165000 -0.044564 0
14.170000 -0.043631 0
14.175000 -0.042581 0
14.180000 -0.041366 0
14.185000 -0.039922 0
14.190000 -0.038169 0
14.195000 -0.036006 0
14.200000 -0.033311 0
14.205000 -0.029936 0
14.210000 -0.025714 0
14.215000 -0.020460 0
14.220000 -0.013973 0
14.225000 -0.006053 0
14.230000 0.003495 0
14.235000 0.014837 0
14.240000 0.028098 0
14.245000 0.043338 0
14.250000 0.060534 0
14.255000 0.079561 0
14.260000 0.100179 0
14.265000 0.122026 0
14.270000 0.144618 0
14.275000 0.167361 0
14.280000 0.189570 0
14.285000 0.210503 0
14.290000 0.229401 0
14.295000 0.245526 0
14.300000 0.258218 0
14.305000 0.266930 0
14.310000 0.271272 1
14.315000 0.271038 0
14.320000 0.266222 0
14.325000 0.257018 0
14.330000 0.243808 0
14.335000 0.227133 0
14.340000 0.207659 0
14.345000 0.186130 0
14.350000 0.163322 0
14.355000 0.139996 0
14.360000 0.116861 0
14.365000 0.094533 0
14.370000 0.073518 0
14.375000 0.054187 0
14.380000 0.036761 0
14.385000 0.021280 0
14.390000 0.007537 0
14.395000 -0.005032 0
14.400000 -0.017495 0
14.405000 -0.031524 0
14.410000 -0.049293 0
14.415000 -0.072957 0
14.420000 -0.103612 0
14.425000 -0.139949 0
14.430000 -0.177137 0
14.435000 -0.206596 0
14.440000 -0.216928 2
14.445000 -0.195669 0
14.450000 -0.131198 0
14.455000 -0.014652 0
14.460000 0.157455 0
14.465000 0.379239 0
14.470000 0.631034 0
14.475000 0.877831 0
14.480000 1.074362 0
14.485000 1.177483 3
14.490000 1.159239 0
14.495000 1.020875 0
14.500000 0.792967 0
14.505000 0.522114 0
14.510000 0.254723 0
14.515000 0.025408 0
14.520000 -0.146541 0
14.525000 -0.254970 0
14.530000 -0.303264 4
14.535000 -0.301689 0
14.540000 -0.265234 0
14.545000 -0.210734 0
14.550000 -0.153296 0
14.555000 -0.103338 0
14.560000 -0.065542 0
14.565000 -0.039848 0
14.570000 -0.023543 0
14.575000 -0.013246 0
14.580000 -0.006114 0
14.585000 -0.000227 0
14.590000 0.005527 0
14.595000 0.011727 0
14.600000 0.018667 0
14.605000 0.026505 0
14.610000 0.035347 0
14.615000 0.045272 0
14.620000 0.056343 0
14.625000 0.068612 0
14.630000 0.082113 0
14.635000 0.096862 0
14.640000 0.112851 0
14.645000 0.130049 0
14.650000 0.148393 0
14.655000 0.167794 0
14.660000 0.188128 0
14.665000 0.209240 0
14.670000 0.230942 0
14.675000 0.253017 0
14.680000 0.275218 0
14.685000 0.297275 0
14.690000 0.318898 0
14.695000 0.339783 0
14.700000 0.359618 0
14.705000 0.378093 0
14.710000 0.394905 0
14.715000 0.409765 0
14.720000 0.422411 0
14.725000 0.432609 0
14.730000 0.440164 0
14.735000 0.444927 0
14.740000 0.446792 5
14.745000 0.445711 0
14.750000 0.441684 0
14.755000 0.434768 0
14.760000 0.425069 0
14.765000 0.412745 0
14.770000 0.397995 0
14.775000 0.381059 0
14.780000 0.362209 0
14.785000 0.341739 0
14.790000 0.319964 0
14.795000 0.297203 0
14.800000 0.273777 0
14.805000 0.250003 0
14.810000 0.226179 0
14.815000 0.202586 0
14.820000 0.179480 0
14.825000 0.157088 0
14.830000 0.135605 0
14.835000 0.115192 0
14.840000 0.095978 0
14.845000 0.078055 0
14.850000 0.061489 0
14.855000 0.046309 0
14.860000 0.032523 0
14.865000 0.020113 0
14.870000 0.009038 0
14.875000 -0.000757 0
14.880000 -0.009340 0
14.885000 -0.016792 0
14.890000 -0.023196 0
14.895000 -0.028644 0
14.900000 -0.033225 0
14.905000 -0.037030 0
14.910000 -0.040146 0
14.915000 -0.042655 0
14.920000 -0.044635 0
14.925000 -0.046158 0
14.930000 -0.047289 0
14.935000 -0.048088 0
14.940000 -0.048606 0
14.945000 -0.048890 0
14.950000 -0.048980 0
14.955000 -0.048911 0
14.960000 -0.048712 0
14.965000 -0.048409 0
14.970000 -0.048021 0
14.975000 -0.047567 0
14.980000 -0.047061 0
14.985000 -0.046515 0
14.990000 -0.045938 0
14.995000 -0.045338 0
15.000000 -0.044721 0
15.005000 -0.044054 0
15.010000 -0.043381 0
15.015000 -0.042712 0
15.020000 -0.042047 0
15.025000 -0.041384 0
15.030000 -0.040725 0
15.035000 -0.040070 0
15.040000 -0.039417 0
15.045000 -0.038768 0
15.050000 -0.038122 0
15.055000 -0.037479 0
15.060000 -0.036840 0
15.065000 -0.036203 0
15.070000 -0.035570 0
15.075000 -0.034940 0
15.080000 -0.034313 0
15.085000 -0.033690 0
15.090000 -0.033069 0
15.095000 -0.032451 0
15.100000 -0.031837 0
15.105000 -0.031226 0
15.110000 -0.030617 0
15.115000 -0.030012 0
15.120000 -0.029410 0
15.125000 -0.028810 0
15.130000 -0.028214 0
15.135000 -0.027620 0
15.140000 -0.027030 0
15.145000 -0.026442 0
15.150000 -0.025856 0
15.155000 -0.025272 0
15.160000 -0.024690 0
15.165000 -0.024107 0
15.170000 -0.023524 0
15.175000 -0.022935 0
15.180000 -0.022339 0
15.185000 -0.021726 0
15.190000 -0.021089 0
15.195000 -0.020412 0
15.200000 -0.019676 0
15.205000 -0.018850 0
15.210000 -0.017896 0
15.215000 -0.016759 0
15.220000 -0.015371 0
15.225000 -0.013640 0
15.230000 -0.011456 0
15.235000 -0.008681 0
15.240000 -0.005154 0
15.245000 -0.000692 0
15.250000 0.004907 0
15.255000 0.011855 0
15.260000 0.020363 0
15.265000 0.030623 0
15.270000 0.042795 0
15.275000 0.056977 0
15.280000 0.073190 0
15.285000 0.091354 0
15.290000 0.111269 0
15.295000 0.132607 0
15.300000 0.154907 0
15.305000 0.177582 0
15.310000 0.199940 0
15.315000 0.221217 0
15.320000 0.240612 0
15.325000 0.257341 0
15.330000 0.270684 0
15.335000 0.280042 0
15.340000 0.284971 0
15.345000 0.285226 1
15.350000 0.280772 0
15.355000 0.271795 0
15.360000 0.258682 0
15.365000 0.241994 0
15.370000 0.222430 0
15.375000 0.200772 0
15.380000 0.177835 0
15.385000 0.154419 0
15.390000 0.131261 0
15.395000 0.108997 0
15.400000 0.088142 0
15.405000 0.069063 0
15.410000 0.051960 0
15.415000 0.036826 0
15.420000 0.023366 0
15.425000 0.010863 0
15.430000 -0.001985 0
15.435000 -0.017132 0
15.440000 -0.036940 0
15.445000 -0.063415 0
15.450000 -0.096882 0
15.455000 -0.134518 0
15.460000 -0.169458 0
15.465000 -0.191105 2
15.470000 -0.186675 0
15.475000 -0.143282 0
15.480000 -0.050018 0
15.485000 0.099622 0
15.490000 0.303996 0
15.495000 0.548335 0
15.500000 0.801342 0
15.505000 1.017896 0
15.510000 1.150349 0
15.515000 1.165118 3
15.520000 1.056234 0
15.525000 0.847671 0
15.530000 0.583372 0
15.535000 0.311165 0
15.540000 0.069390 0
15.545000 -0.118712 0
15.550000 -0.243888 0
15.555000 -0.307307 0
15.560000 -0.317609 4
15.565000 -0.288750 0
15.570000 -0.237393 0
15.575000 -0.179432 0
15.580000 -0.126722 0
15.585000 -0.085448 0
15.590000 -0.056642 0
15.595000 -0.038086 0
15.600000 -0.026429 0
15.605000 -0.018615 0
15.610000 -0.012476 0
15.615000 -0.006707 0
15.620000 -0.000613 0
15.625000 0.006158 0
15.630000 0.013792 0
15.635000 0.022403 0
15.640000 0.032075 0
15.645000 0.042877 0
15.650000 0.054863 0
15.655000 0.068072 0
15.660000 0.082526 0
15.665000 0.098224 0
15.670000 0.115141 0
15.675000 0.133224 0
15.680000 0.152391 0
15.685000 0.172528 0
15.690000 0.193488 0
15.695000 0.215094 0
15.700000 0.237136 0
15.705000 0.259376 0
15.710000 0.281550 0
15.715000 0.303374 0
15.720000 0.324546 0
15.725000 0.344759 0
15.730000 0.363699 0
15.735000 0.381061 0
15.740000 0.396553 0
15.745000 0.409903 0
15.750000 0.420870 0
15.755000 0.429247 0
15.760000 0.434871 0
15.765000 0.437625 5
15.770000 0.437442 0
15.775000 0.434309 0
15.780000 0.428266 0
15.785000 0.419405 0
15.790000 0.407870 0
15.795000 0.393848 0
15.800000 0.377568 0
15.805000 0.359291 0
15.810000 0.339308 0
15.815000 0.317927 0
15.820000 0.295465 0
15.825000 0.272245 0
15.830000 0.248584 0
15.835000 0.224787 0
15.840000 0.201140 0
15.845000 0.177906 0
15.850000 0.155321 0
15.855000 0.133590 0
15.860000 0.112884 0
15.865000 0.093341 0
15.870000 0.075064 0
15.875000 0.058126 0
15.880000 0.042568 0
15.885000 0.028403 0
15.890000 0.015621 0
15.895000 0.004187 0
15.900000 -0.005949 0
15.905000 -0.014853 0
15.910000 -0.022600 0
15.915000 -0.029275 0
15.920000 -0.034966 0
15.925000 -0.039763 0
15.930000 -0.043758 0
15.935000 -0.047037 0
15.940000 -0.049685 0
15.945000 -0.051782 0
15.950000 -0.053400 0
15.955000 -0.054608 0
15.960000 -0.055466 0
15.965000 -0.056028 0
15.970000 -0.056343 0
15.975000 -0.056452 0
15.980000 -0.056392 0
15.985000 -0.056194 0
15.990000 -0.055883 0
15.995000 -0.055484 0
16.000000 -0.055012 0
16.005000 -0.054485 0
16.010000 -0.053914 0
16.015000 -0.053310 0
16.020000 -0.052681 0
16.025000 -0.052032 0
16.030000 -0.051330 0
16.035000 -0.050621 0
16.040000 -0.049916 0
16.045000 -0.049215 0
16.050000 -0.048517 0
16.055000 -0.047822 0
16.060000 -0.047131 0
16.065000 -0.046443 0
16.070000 -0.045759 0
16.075000 -0.045078 0
16.080000 -0.044401 0
16.085000 -0.043727 0
16.090000 -0.043056 0
16.095000 -0.042389 0
16.100000 -0.041725 0
16.105000 -0.041064 0
16.110000 -0.040407 0
16.115000 -0.039752 0
16.120000 -0.039101 0
16.125000 -0.038454 0
16.130000 -0.037809 0
16.135000 -0.037168 0
16.140000 -0.036530 0
16.145000 -0.035895 0
16.150000 -0.035264 0
16.155000 -0.034635 0
16.160000 -0.034010 0
16.165000 -0.033387 0
16.170000 -0.032767 0
16.175000 -0.032150 0
16.180000 -0.031536 0
16.185000 -0.030923 0
16.190000 -0.030310 0
16.195000 -0.029697 0
16.200000 -0.029081 0
16.205000 -0.028458 0
16.210000 -0.027823 0
16.215000 -0.027166 0
16.220000 -0.026475 0
16.225000 -0.025733 0
16.230000 -0.024912 0
16.235000 -0.023978 0
16.240000 -0.022882 0
16.245000 -0.021560 0
16.250000 -0.019930 0
16.255000 -0.017887 0
16.260000 -0.015304 0
16.265000 -0.012027 0
16.270000 -0.007882 0
16.275000 -0.002671 0
16.280000 0.003814 0
16.285000 0.011786 0
16.290000 0.021445 0
16.295000 0.032965 0
16.300000 0.046468 0
16.305000 0.062004 0
16.310000 0.079529 0
16.315000 0.098889 0
16.320000 0.119801 0
16.325000 0.141850 0
16.330000 0.164493 0
16.335000 0.187073 0
16.340000 0.208846 0
16.345000 0.229022 0
16.350000 0.246804 0
16.355000 0.261447 0
16.360000 0.272302 0
16.365000 0.278867 0
16.370000 0.280823 1
16.375000 0.278061 0
16.380000 0.270688 0
16.385000 0.259020 0
16.390000 0.243561 0
16.395000 0.224965 0
16.400000 0.203989 0
16.405000 0.181442 0
16.410000 0.158133 0
16.415000 0.134826 0
16.420000 0.112197 0
16.425000 0.090805 0
16.430000 0.071074 0
16.435000 0.053266 0
16.440000 0.037456 0
16.445000 0.023467 0
16.450000 0.010755 0
16.455000 -0.001751 0
16.460000 -0.015771 0
16.465000 -0.033574 0
16.470000 -0.057421 0
16.475000 -0.088429 0
16.480000 -0.125086 0
16.485000 -0.162054 0
16.490000 -0.189999 0
16.495000 -0.196725 2
16.500000 -0.169151 0
16.505000 -0.095407 0
16.510000 0.032984 0
16.515000 0.217947 0
16.520000 0.450177 0
16.525000 0.704667 0
16.530000 0.940631 0
16.535000 1.109612 0
16.540000 1.170853 3
16.545000 1.109269 0
16.550000 0.938038 0
16.555000 0.692602 0
16.560000 0.418563 0
16.565000 0.157668 0
16.570000 -0.060725 0
16.575000 -0.221246 0
16.580000 -0.319952 0
16.585000 -0.361179 4
16.590000 -0.355306 0
16.595000 -0.316818 0
16.600000 -0.261648 0
16.605000 -0.203963 0
16.610000 -0.153559 0
16.615000 -0.114941 0
16.620000 -0.088203 0
16.625000 -0.070879 0
16.630000 -0.059763 0
16.635000 -0.052064 0
16.640000 -0.045830 0
16.645000 -0.039890 0
16.650000 -0.033613 0
16.655000 -0.026675 0
16.660000 -0.018901 0
16.665000 -0.010181 0
16.670000 -0.000436 0
16.675000 0.010400 0
16.680000 0.022379 0
16.685000 0.035542 0
16.690000 0.049911 0
16.695000 0.065489 0
16.700000 0.082257 0
16.705000 0.100172 0
16.710000 0.119165 0
16.715000 0.139135 0
16.720000 0.159954 0
16.725000 0.181466 0
16.730000 0.203481 0
16.735000 0.225787 0
16.740000 0.248142 0
16.745000 0.270287 0
16.750000 0.291945 0
16.755000 0.312825 0
16.760000 0.332633 0
16.765000 0.351077 0
16.770000 0.367871 0
16.775000 0.382746 0
16.780000 0.395454 0
16.785000 0.405776 0
16.790000 0.413530 0
16.795000 0.418571 0
16.800000 0.420800 5
16.805000 0.420166 0
16.810000 0.416666 0
16.815000 0.410345 0
16.820000 0.401297 0
16.825000 0.389663 0
16.830000 0.375623 0
16.835000 0.359396 0
16.840000 0.341230 0
16.845000 0.321399 0
16.850000 0.300194 0
16.855000 0.277917 0
16.860000 0.254872 0
16.865000 0.231360 0
16.870000 0.207671 0
16.875000 0.184080 0
16.880000 0.160841 0
16.885000 0.138183 0
16.890000 0.116307 0
16.895000 0.095383 0
16.900000 0.075553 0
16.905000 0.056926 0
16.910000 0.039579 0
16.915000 0.023563 0
16.920000 0.008902 0
16.925000 -0.004407 0
16.930000 -0.016384 0
16.935000 -0.027070 0
16.940000 -0.036520 0
16.945000 -0.044802 0
16.950000 -0.051990 0
16.955000 -0.058167 0
16.960000 -0.063417 0
16.965000 -0.067827 0
16.970000 -0.071480 0
16.975000 -0.074460 0
16.980000 -0.076846 0
16.985000 -0.078710 0
16.990000 -0.080123 0
16.995000 -0.081146 0
17.000000 -0.081836 0
17.005000 -0.082244 0
17.010000 -0.082415 0
17.015000 -0.082388 0
17.020000 -0.082198 0
17.025000 -0.081874 0
17.030000 -0.081441 0
17.035000 -0.080920 0
17.040000 -0.080329 0
17.045000 -0.079683 0
17.050000 -0.078993 0
17.055000 -0.078270 0
17.060000 -0.077522 0
17.065000 -0.076755 0
17.070000 -0.075966 0
17.075000 -0.075134 0
17.080000 -0.074307 0
17.085000 -0.073484 0
17.090000 -0.072664 0
17.095000 -0.071849 0
17.100000 -0.071038 0
17.105000 -0.070232 0
17.110000 -0.069429 0
17.115000 -0.068630 0
17.120000 -0.067835 0
17.125000 -0.067044 0
17.130000 -0.066257 0
17.135000 -0.065474 0
17.140000 -0.064695 0
17.145000 -0.063919 0
17.150000 -0.063148 0
17.155000 -0.062380 0
17.160000 -0.061617 0
17.165000 -0.060857 0
17.170000 -0.060101 0
17.175000 -0.059348 0
17.180000 -0.058600 0
17.185000 -0.057855 0
17.190000 -0.057114 0
17.195000 -0.056376 0
17.200000 -0.055642 0
17.205000 -0.054912 0
17.210000 -0.054185 0
17.215000 -0.053462 0
17.220000 -0.052742 0
17.225000 -0.052024 0
17.230000 -0.051309 0
17.235000 -0.050596 0
17.240000 -0.049883 0
17.245000 -0.049168 0
17.250000 -0.048447 0
17.255000 -0.047717 0
17.260000 -0.046970 0
17.265000 -0.046195 0
17.270000 -0.045377 0
17.275000 -0.044495 0
17.280000 -0.043518 0
17.285000 -0.042407 0
17.290000 -0.041107 0
17.295000 -0.039551 0
17.300000 -0.037649 0
17.305000 -0.035293 0
17.310000 -0.032352 0
17.315000 -0.028672 0
17.320000 -0.024079 0
17.325000 -0.018382 0
17.330000 -0.011382 0
17.335000 -0.002878 0
17.340000 0.007313 0
17.345000 0.019345 0
17.350000 0.033320 0
17.355000 0.049270 0
17.360000 0.067138 0
17.365000 0.086760 0
17.370000 0.107855 0
17.375000 0.130020 0
17.380000 0.152735 0
17.385000 0.175374 0
17.390000 0.197236 0
17.395000 0.217570 0
17.400000 0.235625 0
17.405000 0.250688 0
17.410000 0.262135 0
17.415000 0.269469 0
17.420000 0.272360 1
17.425000 0.270665 0
17.430000 0.264441 0
17.435000 0.253943 0
17.440000 0.239602 0
17.445000 0.221998 0
17.450000 0.201823 0
17.455000 0.179829 0
17.460000 0.156789 0
17.465000 0.133448 0
17.470000 0.110486 0
17.475000 0.088487 0
17.480000 0.067915 0
17.485000 0.049102 0
17.490000 0.032219 0
17.495000 0.017247 0
17.500000 0.003896 0
17.505000 -0.008515 0
17.510000 -0.021202 0
17.515000 -0.035984 0
17.520000 -0.055087 0
17.525000 -0.080498 0
17.530000 -0.112831 0
17.535000 -0.149981 0
17.540000 -0.186196 0
17.545000 -0.212130 0
17.550000 -0.216023 2
17.555000 -0.185515 0
17.560000 -0.109524 0
17.565000 0.019791 0
17.570000 0.204150 0
17.575000 0.434941 0
17.580000 0.689144 0
17.585000 0.928989 0
17.590000 1.108682 0
17.595000 1.187808 3
17.600000 1.142220 0
17.605000 0.979368 0
17.610000 0.736105 0
17.615000 0.461976 0
17.620000 0.202486 0
17.625000 -0.011053 0
17.630000 -0.163142 0
17.635000 -0.250897 0
17.640000 -0.280426 4
17.645000 -0.264306 0
17.650000 -0.219113 0
17.655000 -0.161984 0
17.660000 -0.106861 0
17.665000 -0.062037 0
17.670000 -0.030015 0
17.675000 -0.009225 0
17.680000 0.003666 0
17.685000 0.011978 0
17.690000 0.018180 0
17.695000 0.023794 0
17.700000 0.029641 0
17.705000 0.036132 0
17.710000 0.043479 0
17.715000 0.051808 0
17.720000 0.061209 0
17.725000 0.071755 0
17.730000 0.083502 0
17.735000 0.096494 0
17.740000 0.110753 0
17.745000 0.126280 0
17.750000 0.143049 0
17.755000 0.161007 0
17.760000 0.180066 0
17.765000 0.200110 0
17.770000 0.220986 0
17.775000 0.242506 0
17.780000 0.264451 0
17.785000 0.286574 0
17.790000 0.308597 0
17.795000 0.330224 0
17.800000 0.351142 0
17.805000 0.371030 0
17.810000 0.389566 0
17.815000 0.406436 0
17.820000 0.421340 0
17.825000 0.434005 0
17.830000 0.444189 0
17.835000 0.451689 0
17.840000 0.456350 0
17.845000 0.458065 5
17.850000 0.456783 0
17.855000 0.452508 0
17.860000 0.445302 0
17.865000 0.435280 0
17.870000 0.422607 0
17.875000 0.407496 0
17.880000 0.390199 0
17.885000 0.371000 0
17.890000 0.350208 0
17.895000 0.328148 0
17.900000 0.305152 0
17.905000 0.281552 0
17.910000 0.257670 0
17.915000 0.233812 0
17.920000 0.210260 0
17.925000 0.187273 0
17.930000 0.165074 0
17.935000 0.143853 0
17.940000 0.123768 0
17.945000 0.104938 0
17.950000 0.087448 0
17.955000 0.071350 0
17.960000 0.056669 0
17.965000 0.043398 0
17.970000 0.031508 0
17.975000 0.020953 0
17.980000 0.011667 0
17.985000 0.003574 0
17.990000 -0.003412 0
17.995000 -0.009381 0
18.000000 -0.014427 0
18.005000 -0.018644 0
18.010000 -0.022122 0
18.015000 -0.024949 0
18.020000 -0.027208 0
18.025000 -0.028975 0
18.030000 -0.030321 0
18.035000 -0.031308 0
18.040000 -0.031993 0
18.045000 -0.032426 0
18.050000 -0.032650 0
18.055000 -0.032702 0
18.060000 -0.032614 0
18.065000 -0.032414 0
18.070000 -0.032123 0
18.075000 -0.031761 0
18.080000 -0.031343 0
18.085000 -0.030882 0
18.090000 -0.030388 0
18.095000 -0.029868 0
18.100000 -0.029330 0
18.105000 -0.028740 0
18.110000 -0.028144 0
18.115000 -0.027551 0
18.120000 -0.026961 0
18.125000 -0.026374 0
18.130000 -0.025790 0
18.135000 -0.025209 0
18.140000 -0.024630 0
18.145000 -0.024055 0
18.150000 -0.023482 0
18.155000 -0.022913 0
18.160000 -0.022346 0
18.165000 -0.021782 0
18.170000 -0.021220 0
18.175000 -0.020662 0
18.180000 -0.020106 0
18.185000 -0.019553 0
18.190000 -0.019003 0
18.195000 -0.018456 0
18.200000 -0.017911 0
18.205000 -0.017369 0
18.210000 -0.016830 0
18.215000 -0.016294 0
18.220000 -0.015760 0
18.225000 -0.015228 0
18.230000 -0.014700 0
18.235000 -0.014173 0
18.240000 -0.013650 0
18.245000 -0.013128 0
18.250000 -0.012609 0
18.255000 -0.012090 0
18.260000 -0.011573 0
18.265000 -0.011054 0
18.270000 -0.010533 0
18.275000 -0.010005 0
18.280000 -0.009464 0
18.285000 -0.008904 0
18.290000 -0.008311 0
18.295000 -0.007667 0
18.300000 -0.006948 0
18.305000 -0.006116 0
18.310000 -0.005125 0
18.315000 -0.003908 0
18.320000 -0.002382 0
18.325000 -0.000440 0
18.330000 0.002050 0
18.335000 0.005246 0
18.340000 0.009329 0
18.345000 0.014503 0
18.350000 0.020985 0
18.355000 0.028995 0
18.360000 0.038739 0
18.365000 0.050392 0
18.370000 0.064073 0
18.375000 0.079824 0
18.380000 0.097584 0
18.385000 0.117172 0
18.390000 0.138272 0
18.395000 0.160427 0
18.400000 0.183050 0
18.405000 0.205436 0
18.410000 0.226801 0
18.415000 0.246320 0
18.420000 0.263178 0
18.425000 0.276629 0
18.430000 0.286044 0
18.435000 0.290964 0
18.440000 0.291131 1
18.445000 0.286515 0
18.450000 0.277311 0
18.455000 0.263927 0
18.460000 0.246956 0
18.465000 0.227125 0
18.470000 0.205249 0
18.475000 0.182171 0
18.480000 0.158711 0
18.485000 0.135618 0
18.490000 0.113531 0
18.495000 0.092955 0
18.500000 0.074239 0
18.505000 0.057549 0
18.510000 0.042818 0
18.515000 0.029650 0
18.520000 0.017159 0
18.525000 0.003810 0
18.530000 -0.012586 0
18.535000 -0.034467 0
18.540000 -0.063500 0
18.545000 -0.099053 0
18.550000 -0.136747 0
18.555000 -0.167916 0
18.560000 -0.180482 2
18.565000 -0.160928 0
18.570000 -0.096556 0
18.575000 0.022247 0
18.580000 0.198893 0
18.585000 0.425824 0
18.590000 0.679482 0
18.595000 0.919338 0
18.600000 1.095482 0
18.605000 1.164491 3
18.610000 1.109796 0
18.615000 0.943544 0
18.620000 0.700599 0
18.625000 0.426881 0
18.630000 0.164944 0
18.635000 -0.055033 0
18.640000 -0.217109 0
18.645000 -0.317044 0
18.650000 -0.359071 4
18.655000 -0.353600 0
18.660000 -0.315233 0
18.665000 -0.260068 0
18.670000 -0.202414 0
18.675000 -0.152136 0
18.680000 -0.113730 0
18.685000 -0.087232 0
18.690000 -0.070120 0
18.695000 -0.059155 0
18.700000 -0.051541 0
18.705000 -0.045340 0
18.710000 -0.039396 0
18.715000 -0.033091 0
18.720000 -0.026108 0
18.725000 -0.018276 0
18.730000 -0.009488 0
18.735000 0.000336 0
18.740000 0.011261 0
18.745000 0.023341 0
18.750000 0.036613 0
18.755000 0.051098 0
18.760000 0.066799 0
18.765000 0.083693 0
18.770000 0.101735 0
18.775000 0.120849 0
18.780000 0.140934 0
18.785000 0.161854 0
18.790000 0.183448 0
18.795000 0.205522 0
18.800000 0.227855 0
18.805000 0.250202 0
18.810000 0.272298 0
18.815000 0.293858 0
18.820000 0.314591 0
18.825000 0.334198 0
18.830000 0.352383 0
18.835000 0.368861 0
18.840000 0.383363 0
18.845000 0.395643 0
18.850000 0.405488 0
18.855000 0.412718 0
18.860000 0.417198 0
18.865000 0.418836 5
18.870000 0.417592 0
18.875000 0.413471 0
18.880000 0.406533 0
18.885000 0.396881 0
18.890000 0.384668 0
18.895000 0.370086 0
18.900000 0.353363 0
18.905000 0.334757 0
18.910000 0.314551 0
18.915000 0.293041 0
18.920000 0.270534 0
18.925000 0.247337 0
18.930000 0.223752 0
18.935000 0.200069 0
18.940000 0.176559 0
18.945000 0.153472 0
18.950000 0.131031 0
18.955000 0.109431 0
18.960000 0.088835 0
18.965000 0.069375 0
18.970000 0.051152 0
18.975000 0.034235 0
18.980000 0.018667 0
18.985000 0.004461 0
18.990000 -0.008389 0
18.995000 -0.019914 0
19.000000 -0.030159 0
19.005000 -0.039185 0
19.010000 -0.047063 0
19.015000 -0.053872 0
19.020000 -0.059696 0
19.025000 -0.064620 0
19.030000 -0.068732 0
19.035000 -0.072117 0
19.040000 -0.074856 0
19.045000 -0.077028 0
19.050000 -0.078705 0
19.055000 -0.079953 0
19.060000 -0.080835 0
19.065000 -0.081403 0
19.070000 -0.081709 0
19.075000 -0.081793 0
19.080000 -0.081694 0
19.085000 -0.081445 0
19.090000 -0.081073 0
19.095000 -0.080600 0
19.100000 -0.080048 0
19.105000 -0.079433 0
19.110000 -0.078768 0
19.115000 -0.078064 0
19.120000 -0.077331 0
19.125000 -0.076576 0
19.130000 -0.075804 0
19.135000 -0.074983 0
19.140000 -0.074156 0
19.145000 -0.073334 0
19.150000 -0.072515 0
19.155000 -0.071701 0
19.160000 -0.070891 0
19.165000 -0.070084 0
19.170000 -0.069282 0
19.175000 -0.068484 0
19.180000 -0.067690 0
19.185000 -0.066900 0
19.190000 -0.066113 0
19.195000 -0.065331 0
19.200000 -0.064553 0
19.205000 -0.063778 0
19.210000 -0.063007 0
19.215000 -0.062241 0
19.220000 -0.061478 0
19.225000 -0.060718 0
19.230000 -0.059963 0
19.235000 -0.059211 0
19.240000 -0.058463 0
19.245000 -0.057719 0
19.250000 -0.056979 0
19.255000 -0.056242 0
19.260000 -0.055509 0
19.265000 -0.054779 0
19.270000 -0.054053 0
19.275000 -0.053330 0
19.280000 -0.052611 0
19.285000 -0.051895 0
19.290000 -0.051181 0
19.295000 -0.050469 0
19.300000 -0.049757 0
19.305000 -0.049045 0
19.310000 -0.048329 0
19.315000 -0.047604 0
19.320000 -0.046865 0
19.325000 -0.046102 0
19.330000 -0.045300 0
19.335000 -0.044441 0
19.340000 -0.043497 0
19.345000 -0.042430 0
19.350000 -0.041191 0
19.355000 -0.039715 0
19.360000 -0.037917 0
19.365000 -0.035694 0
19.370000 -0.032920 0
19.375000 -0.029444 0
19.380000 -0.025097 0
19.385000 -0.019688 0
19.390000 -0.013017 0
19.395000 -0.004880 0
19.400000 0.004912 0
19.405000 0.016524 0
19.410000 0.030072 0
19.415000 0.045605 0
19.420000 0.063088 0
19.425000 0.082377 0
19.430000 0.103213 0
19.435000 0.125213 0
19.440000 0.147873 0
19.445000 0.170579 0
19.450000 0.192634 0
19.455000 0.213286 0
19.460000 0.231772 0
19.465000 0.247362 0
19.470000 0.259407 0
19.475000 0.267385 0
19.480000 0.270933 1
19.485000 0.269880 0
19.490000 0.264256 0
19.495000 0.254289 0
19.500000 0.240396 0
19.505000 0.223147 0
19.510000 0.203228 0
19.515000 0.181397 0
19.520000 0.158432 0
19.525000 0.135093 0
19.530000 0.112073 0
19.535000 0.089973 0
19.540000 0.069274 0
19.545000 0.050320 0
19.550000 0.033301 0
19.555000 0.018210 0
19.560000 0.004776 0
19.565000 -0.007662 0
19.570000 -0.020300 0
19.575000 -0.034947 0
19.580000 -0.053845 0
19.585000 -0.079028 0
19.590000 -0.111181 0
19.595000 -0.148272 0
19.600000 -0.184576 0
19.605000 -0.210707 0
19.610000 -0.214802 2
19.615000 -0.184370 0
19.620000 -0.108211 0
19.625000 0.021582 0
19.630000 0.206672 0
19.635000 0.438174 0
19.640000 0.692526 0
19.645000 0.931258 0
19.650000 1.108055 0
19.655000 1.182567 3
19.660000 1.134404 0
19.665000 0.972463 0
19.670000 0.731379 0
19.675000 0.457792 0
19.680000 0.195287 0
19.685000 -0.025146 0
19.690000 -0.187161 0
19.695000 -0.286462 0
19.700000 -0.327449 4
19.705000 -0.320847 0
19.710000 -0.281627 0
19.715000 -0.226181 0
19.720000 -0.168907 0
19.725000 -0.119532 0
19.730000 -0.082272 0
19.735000 -0.056884 0
19.740000 -0.040666 0
19.745000 -0.030325 0
19.750000 -0.023101 0
19.755000 -0.017120 0
19.760000 -0.011291 0
19.765000 -0.005036 0
19.770000 0.001937 0
19.775000 0.009788 0
19.780000 0.018620 0
19.785000 0.028513 0
19.790000 0.039531 0
19.795000 0.051723 0
19.800000 0.065127 0
19.805000 0.079759 0
19.810000 0.095617 0
19.815000 0.112672 0
19.820000 0.130871 0
19.825000 0.150131 0
19.830000 0.170338 0
19.835000 0.191349 0
19.840000 0.212988 0
19.845000 0.235050 0
19.850000 0.257302 0
19.855000 0.279487 0
19.860000 0.301328 0
19.865000 0.322533 0
19.870000 0.342799 0
19.875000 0.361824 0
19.880000 0.379309 0
19.885000 0.394968 0
19.890000 0.408534 0
19.895000 0.419770 0
19.900000 0.428471 0
19.905000 0.434471 0
19.910000 0.437651 0
19.915000 0.437939 5
19.920000 0.435313 0
19.925000 0.429804 0
19.930000 0.421493 0
19.935000 0.410509 0
19.940000 0.397027 0
19.945000 0.381262 0
19.950000 0.363462 0
19.955000 0.343902 0
19.960000 0.322880 0
19.965000 0.300704 0
19.970000 0.277687 0
19.975000 0.254141 0
19.980000 0.230366 0
19.985000 0.206649 0
19.990000 0.183255 0
19.995000 0.160423 0
20.000000 0.138362 0
20.005000 0.117254 0
20.010000 0.097244 0
20.015000 0.078447 0
20.020000 0.060947 0
20.025000 0.044796 0
20.030000 0.030018 0
20.035000 0.016613 0
20.040000 0.004559 0
20.045000 -0.006187 0
20.050000 -0.015683 0
20.055000 -0.023996 0
20.060000 -0.031206 0
20.065000 -0.037397 0
20.070000 -0.042656 0
20.075000 -0.047072 0
20.080000 -0.050732 0
20.085000 -0.053721 0
20.090000 -0.056118 0
20.095000 -0.057999 0
20.100000 -0.059433 0
20.105000 -0.060484 0
20.110000 -0.061209 0
20.115000 -0.061659 0
20.120000 -0.061878 0
20.125000 -0.061906 0
20.130000 -0.061776 0
20.135000 -0.061518 0
20.140000 -0.061155 0
20.145000 -0.060709 0
20.150000 -0.060197 0
20.155000 -0.059633 0
20.160000 -0.059028 0
20.165000 -0.058392 0
20.170000 -0.057733 0
20.175000 -0.057057 0
20.180000 -0.056329 0
20.185000 -0.055595 0
20.190000 -0.054865 0
20.195000 -0.054139 0
20.200000 -0.053416 0
20.205000 -0.052697 0
20.210000 -0.051982 0
20.215000 -0.051270 0
20.220000 -0.050562 0
20.225000 -0.049857 0
20.230000 -0.049156 0
20.235000 -0.048458 0
20.240000 -0.047764 0
20.245000 -0.047073 0
20.250000 -0.046385 0
20.255000 -0.045701 0
20.260000 -0.045021 0
20.265000 -0.044344 0
20.270000 -0.043670 0
20.275000 -0.043000 0
20.280000 -0.042332 0
20.285000 -0.041669 0
20.290000 -0.041008 0
20.295000 -0.040351 0
20.300000 -0.039697 0
20.305000 -0.039047 0
20.310000 -0.038399 0
20.315000 -0.037755 0
20.320000 -0.037113 0
20.325000 -0.036475 0
20.330000 -0.035839 0
20.335000 -0.035205 0
20.340000 -0.034572 0
20.345000 -0.033939 0
20.350000 -0.033303 0
20.355000 -0.032663 0
20.360000 -0.032012 0
20.365000 -0.031343 0
20.370000 -0.030646 0
20.375000 -0.029904 0
20.380000 -0.029096 0
20.385000 -0.028190 0
20.390000 -0.027144 0
20.395000 -0.025902 0
20.400000 -0.024392 0
20.405000 -0.022520 0
20.410000 -0.020173 0
20.415000 -0.017211 0
20.420000 -0.013475 0
20.425000 -0.008780 0
20.430000 -0.002929 0
20.435000 0.004285 0
20.440000 0.013067 0
20.445000 0.023600 0
20.450000 0.036032 0
20.455000 0.050453 0
20.460000 0.066874 0
20.465000 0.085208 0
20.470000 0.105251 0
20.475000 0.126677 0
20.480000 0.149031 0
20.485000 0.171739 0
20.490000 0.194125 0
20.495000 0.215446 0
20.500000 0.234921 0
20.505000 0.251787 0
20.510000 0.265342 0
20.515000 0.274992 0
20.520000 0.280298 0
20.525000 0.281004 1
20.530000 0.277059 0
20.535000 0.268619 0
20.540000 0.256042 0
20.545000 0.239854 0
20.550000 0.220718 0
20.555000 0.199386 0
20.560000 0.176652 0
20.565000 0.153298 0
20.570000 0.130057 0
20.575000 0.107574 0
20.580000 0.086376 0
20.585000 0.066857 0
20.590000 0.049255 0
20.595000 0.033622 0
20.600000 0.019763 0
20.605000 0.007114 0
20.610000 -0.005401 0
20.615000 -0.019488 0
20.620000 -0.037371 0
20.625000 -0.061245 0
20.630000 -0.092192 0
20.635000 -0.128762 0
20.640000 -0.165830 0
20.645000 -0.194413 0
20.650000 -0.202709 2
20.655000 -0.177960 0
20.660000 -0.108448 0
20.665000 0.014465 0
20.670000 0.193460 0
20.675000 0.420928 0
20.680000 0.674508 0
20.685000 0.916251 0
20.690000 1.099181 0
20.695000 1.181192 3
20.700000 1.138056 0
20.705000 0.977154 0
20.710000 0.734960 0
20.715000 0.460982 0
20.720000 0.200945 0
20.725000 -0.013529 0
20.730000 -0.166680 0
20.735000 -0.255441 0
20.740000 -0.285798 4
20.745000 -0.270250 0
20.750000 -0.225345 0
20.755000 -0.168255 0
20.760000 -0.112999 0
20.765000 -0.067971 0
20.770000 -0.035747 0
20.775000 -0.014797 0
20.780000 -0.001798 0
20.785000 0.006582 0
20.790000 0.012826 0
20.795000 0.018468 0
20.800000 0.024335 0
20.805000 0.030844 0
20.810000 0.038206 0
20.815000 0.046550 0
20.820000 0.055966 0
20.825000 0.066525 0
20.830000 0.078286 0
20.835000 0.091292 0
20.840000 0.105564 0
20.845000 0.121106 0
20.850000 0.137890 0
20.855000 0.155863 0
20.860000 0.174940 0
20.865000 0.195002 0
20.870000 0.215897 0
20.875000 0.237438 0
20.880000 0.259407 0
20.885000 0.281553 0
20.890000 0.303602 0
20.895000 0.325256 0
20.900000 0.346203 0
20.905000 0.366120 0
20.910000 0.384686 0
20.915000 0.401587 0
20.920000 0.416522 0
20.925000 0.429218 0
20.930000 0.439432 0
20.935000 0.446962 0
20.940000 0.451651 0
20.945000 0.453394 5
20.950000 0.452139 0
20.955000 0.447890 0
20.960000 0.440708 0
20.965000 0.430709 0
20.970000 0.418058 0
20.975000 0.402968 0
20.980000 0.385691 0
20.985000 0.366512 0
20.990000 0.345740 0
20.995000 0.323700 0
21.000000 0.300724 0
21.005000 0.277145 0
21.010000 0.253284 0
21.015000 0.229447 0
21.020000 0.205919 0
21.025000 0.182956 0
21.030000 0.160781 0
21.035000 0.139587 0
21.040000 0.119529 0
21.045000 0.100727 0
21.050000 0.083265 0
21.055000 0.067198 0
21.060000 0.052546 0
21.065000 0.039304 0
21.070000 0.027445 0
21.075000 0.016920 0
21.080000 0.007664 0
21.085000 -0.000400 0
21.090000 -0.007357 0
21.095000 -0.013298 0
21.100000 -0.018316 0
21.105000 -0.022506 0
21.110000 -0.025958 0
21.115000 -0.028760 0
21.120000 -0.030994 0
21.125000 -0.032737 0
21.130000 -0.034059 0
21.135000 -0.035024 0
21.140000 -0.035687 0
21.145000 -0.036099 0
21.150000 -0.036301 0
21.155000 -0.036333 0
21.160000 -0.036226 0
21.165000 -0.036006 0
21.170000 -0.035696 0
21.175000 -0.035315 0
21.180000 -0.034879 0
21.185000 -0.034400 0
21.190000 -0.033887 0
21.195000 -0.033350 0
21.200000 -0.032794 0
21.205000 -0.032187 0
21.210000 -0.031574 0
21.215000 -0.030964 0
21.220000 -0.030357 0
21.225000 -0.029753 0
21.230000 -0.029152 0
21.235000 -0.028554 0
21.240000 -0.027959 0
21.245000 -0.027366 0
21.250000 -0.026777 0
21.255000 -0.026191 0
21.260000 -0.025608 0
21.265000 -0.025028 0
21.270000 -0.024450 0
21.275000 -0.023876 0
21.280000 -0.023304 0
21.285000 -0.022735 0
21.290000 -0.022169 0
21.295000 -0.021606 0
21.300000 -0.021046 0
21.305000 -0.020488 0
21.310000 -0.019933 0
21.315000 -0.019381 0
21.320000 -0.018832 0
21.325000 -0.018285 0
21.330000 -0.017741 0
21.335000 -0.017200 0
21.340000 -0.016661 0
21.345000 -0.016125 0
21.350000 -0.015590 0
21.355000 -0.015057 0
21.360000 -0.014524 0
21.365000 -0.013991 0
21.370000 -0.013455 0
21.375000 -0.012912 0
21.380000 -0.012356 0
21.385000 -0.011781 0
21.390000 -0.011172 0
21.395000 -0.010512 0
21.400000 -0.009775 0
21.405000 -0.008926 0
21.410000 -0.007914 0
21.415000 -0.006675 0
21.420000 -0.005123 0
21.425000 -0.003151 0
21.430000 -0.000626 0
21.435000 0.002610 0
21.440000 0.006740 0
21.445000 0.011969 0
21.450000 0.018515 0
21.455000 0.026596 0
21.460000 0.036418 0
21.465000 0.048155 0
21.470000 0.061924 0
21.475000 0.077763 0
21.480000 0.095608 0
21.485000 0.115272 0
21.490000 0.136433 0
21.495000 0.158631 0
21.500000 0.181271 0
21.505000 0.203646 0
21.510000 0.224968 0
21.515000 0.244411 0
21.520000 0.261161 0
21.525000 0.274475 0
21.530000 0.283729 0
21.535000 0.288472 1
21.540000 0.288455 0
21.545000 0.283656 0
21.550000 0.274280 0
21.555000 0.260745 0
21.560000 0.243649 0
21.565000 0.223726 0
21.570000 0.201793 0
21.575000 0.178694 0
21.580000 0.155248 0
21.585000 0.132198 0
21.590000 0.110181 0
21.595000 0.089695 0
21.600000 0.071081 0
21.605000 0.054495 0
21.610000 0.039860 0
21.615000 0.026759 0
21.620000 0.014278 0
21.625000 0.000851 0
21.630000 -0.015740 0
21.635000 -0.037926 0
21.640000 -0.067302 0
21.645000 -0.103084 0
21.650000 -0.140683 0
21.655000 -0.171227 0
21.660000 -0.182509 2
21.665000 -0.160988 0
21.670000 -0.094057 0
21.675000 0.027679 0
21.680000 0.207204 0
21.685000 0.436248 0
21.690000 0.690326 0
21.695000 0.928125 0
21.700000 1.099594 0
21.705000 1.162133 3
21.710000 1.099701 0
21.715000 0.928747 0
21.720000 0.683994 0
21.725000 0.410141 0
21.730000 0.148339 0
21.735000 -0.072181 0
21.740000 -0.235816 0
21.745000 -0.338210 0
21.750000 -0.383184 4
21.755000 -0.380554 0
21.760000 -0.344278 0
21.765000 -0.289984 0
21.770000 -0.231880 0
21.775000 -0.180132 0
21.780000 -0.139771 0
21.785000 -0.111361 0
21.790000 -0.092716 0
21.795000 -0.080708 0
21.800000 -0.072490 0
21.805000 -0.066002 0
21.810000 -0.059974 0
21.815000 -0.053704 0
21.820000 -0.046831 0
21.825000 -0.039160 0
21.830000 -0.030576 0
21.835000 -0.020994 0
21.840000 -0.010348 0
21.845000 0.001417 0
21.850000 0.014344 0
21.855000 0.028458 0
21.860000 0.043770 0
21.865000 0.060268 0
21.870000 0.077916 0
21.875000 0.096653 0
21.880000 0.116393 0
21.885000 0.137018 0
21.890000 0.158384 0
21.895000 0.180317 0
21.900000 0.202617 0
21.905000 0.225056 0
21.910000 0.247388 0
21.915000 0.269345 0
21.920000 0.290648 0
21.925000 0.311011 0
21.930000 0.330145 0
21.935000 0.347765 0
21.940000 0.363600 0
21.945000 0.377397 0
21.950000 0.388929 0
21.955000 0.397997 0
21.960000 0.404444 0
21.965000 0.408149 0
21.970000 0.409038 5
21.975000 0.407085 0
21.980000 0.402309 0
21.985000 0.394778 0
21.990000 0.384606 0
21.995000 0.371947 0
22.000000 0.356997 0
22.005000 0.339983 0
22.010000 0.321160 0
22.015000 0.300805 0
22.020000 0.279207 0
22.025000 0.256665 0
22.030000 0.233475 0
22.035000 0.209931 0
22.040000 0.186311 0
22.045000 0.162879 0
22.050000 0.139875 0
22.055000 0.117515 0
22.060000 0.095987 0
22.065000 0.075449 0
22.070000 0.056028 0
22.075000 0.037824 0
22.080000 0.020905 0
22.085000 0.005314 0
22.090000 -0.008935 0
22.095000 -0.021847 0
22.100000 -0.033449 0
22.105000 -0.043784 0
22.110000 -0.052908 0
22.115000 -0.060890 0
22.120000 -0.067806 0
22.125000 -0.073735 0
22.130000 -0.078762 0
22.135000 -0.082971 0
22.140000 -0.086445 0
22.145000 -0.089264 0
22.150000 -0.091504 0
22.155000 -0.093238 0
22.160000 -0.094532 0
22.165000 -0.095448 0
22.170000 -0.096039 0
22.175000 -0.096355 0
22.180000 -0.096441 0
22.185000 -0.096333 0
22.190000 -0.096066 0
22.195000 -0.095667 0
22.200000 -0.095162 0
22.205000 -0.094571 0
22.210000 -0.093911 0
22.215000 -0.093197 0
22.220000 -0.092440 0
22.225000 -0.091651 0
22.230000 -0.090836 0
22.235000 -0.090003 0
22.240000 -0.089149 0
22.245000 -0.088252 0
22.250000 -0.087359 0
22.255000 -0.086470 0
22.260000 -0.085587 0
22.265000 -0.084707 0
22.270000 -0.083832 0
22.275000 -0.082961 0
22.280000 -0.082095 0
22.285000 -0.081233 0
22.290000 -0.080375 0
22.295000 -0.079522 0
22.300000 -0.078672 0
22.305000 -0.077827 0
22.310000 -0.076987 0
22.315000 -0.076150 0
22.320000 -0.075318 0
22.325000 -0.074489 0
22.330000 -0.073665 0
22.335000 -0.072845 0
22.340000 -0.072029 0
22.345000 -0.071217 0
22.350000 -0.070410 0
22.355000 -0.069606 0
22.360000 -0.068806 0
22.365000 -0.068010 0
22.370000 -0.067218 0
22.375000 -0.066430 0
22.380000 -0.065646 0
22.385000 -0.064866 0
22.390000 -0.064089 0
22.395000 -0.063315 0
22.400000 -0.062544 0
22.405000 -0.061776 0
22.410000 -0.061008 0
22.415000 -0.060240 0
22.420000 -0.059469 0
22.425000 -0.058690 0
22.430000 -0.057898 0
22.435000 -0.057084 0
22.440000 -0.056235 0
22.445000 -0.055333 0
22.450000 -0.054352 0
22.455000 -0.053259 0
22.460000 -0.052007 0
22.465000 -0.050537 0
22.470000 -0.048771 0
22.475000 -0.046613 0
22.480000 -0.043947 0
22.485000 -0.040634 0
22.490000 -0.036512 0
22.495000 -0.031404 0
22.500000 -0.025117 0
22.505000 -0.017453 0
22.510000 -0.008223 0
22.515000 0.002745 0
22.520000 0.015582 0
22.525000 0.030363 0
22.530000 0.047089 0
22.535000 0.065665 0
22.540000 0.085891 0
22.545000 0.107448 0
22.550000 0.129901 0
22.555000 0.152702 0
22.560000 0.175211 0
22.565000 0.196721 0
22.570000 0.216493 0
22.575000 0.233795 0
22.580000 0.247949 0
22.585000 0.258375 0
22.590000 0.264626 0
22.595000 0.266423 1
22.600000 0.263676 0
22.605000 0.256485 0
22.610000 0.245143 0
22.615000 0.230107 0
22.620000 0.211972 0
22.625000 0.191430 0
22.630000 0.169229 0
22.635000 0.146122 0
22.640000 0.122832 0
22.645000 0.100012 0
22.650000 0.078220 0
22.655000 0.057894 0
22.660000 0.039338 0
22.665000 0.022704 0
22.670000 0.007947 0
22.675000 -0.005247 0
22.680000 -0.017587 0
22.685000 -0.030308 0
22.690000 -0.045232 0
22.695000 -0.064550 0
22.700000 -0.090177 0
22.705000 -0.122641 0
22.710000 -0.159794 0
22.715000 -0.195932 0
22.720000 -0.221868 0
22.725000 -0.226074 2
22.730000 -0.196430 0
22.735000 -0.122020 0
22.740000 0.004984 0
22.745000 0.186607 0
22.750000 0.415057 0
22.755000 0.668718 0
22.760000 0.911470 0
22.765000 1.098611 0
22.770000 1.189371 3
22.775000 1.159120 0
22.780000 1.009330 0
22.785000 0.773763 0
22.790000 0.500878 0
22.795000 0.237072 0
22.800000 0.015587 0
22.805000 -0.146112 0
22.810000 -0.243564 0
22.815000 -0.281633 4
22.820000 -0.271908 0
22.825000 -0.230364 0
22.830000 -0.174158 0
22.835000 -0.117878 0
22.840000 -0.070815 0
22.845000 -0.036408 0
22.850000 -0.013682 0
22.855000 0.000494 0
22.860000 0.009506 0
22.865000 0.015996 0
22.870000 0.021652 0
22.875000 0.027407 0
22.880000 0.033737 0
22.885000 0.040881 0
22.890000 0.048978 0
22.895000 0.058122 0
22.900000 0.068389 0
22.905000 0.079839 0
22.910000 0.092518 0
22.915000 0.106454 0
22.920000 0.121654 0
22.925000 0.138099 0
22.930000 0.155743 0
22.935000 0.174511 0
22.940000 0.194294 0
22.945000 0.214950 0
22.950000 0.236304 0
22.955000 0.258148 0
22.960000 0.280243 0
22.965000 0.302325 0
22.970000 0.324105 0
22.975000 0.345278 0
22.980000 0.365526 0
22.985000 0.384531 0
22.990000 0.401978 0
22.995000 0.417565 0
23.000000 0.431012 0
23.005000 0.442068 0
23.010000 0.450517 0
23.015000 0.456189 0
23.020000 0.458962 5
23.025000 0.458763 0
23.030000 0.455579 0
23.035000 0.449449 0
23.040000 0.440467 0
23.045000 0.428779 0
23.050000 0.414579 0
23.055000 0.398102 0
23.060000 0.379617 0
23.065000 0.359423 0
23.070000 0.337835 0
23.075000 0.315182 0
23.080000 0.291792 0
23.085000 0.267988 0
23.090000 0.244083 0
23.095000 0.220366 0
23.100000 0.197104 0
23.105000 0.174533 0
23.110000 0.152857 0
23.115000 0.132246 0
23.120000 0.112834 0
23.125000 0.094722 0
23.130000 0.077977 0
23.135000 0.062633 0
23.140000 0.048699 0
23.145000 0.036157 0
23.150000 0.024968 0
23.155000 0.015075 0
23.160000 0.006408 0
23.165000 -0.001113 0
23.170000 -0.007577 0
23.175000 -0.013075 0
23.180000 -0.017700 0
23.185000 -0.021544 0
23.190000 -0.024695 0
23.195000 -0.027238 0
23.200000 -0.029253 0
23.205000 -0.030811 0
23.210000 -0.031979 0
23.215000 -0.032817 0
23.220000 -0.033377 0
23.225000 -0.033706 0
23.230000 -0.033845 0
23.235000 -0.033827 0
23.240000 -0.033682 0
23.245000 -0.033435 0
23.250000 -0.033107 0
23.255000 -0.032715 0
23.260000 -0.032272 0
23.265000 -0.031791 0
23.270000 -0.031280 0
23.275000 -0.030747 0
23.280000 -0.030190 0
23.285000 -0.029586 0
23.290000 -0.028986 0
23.295000 -0.028389 0
23.300000 -0.027795 0
23.305000 -0.027204 0
23.310000 -0.026615 0
23.315000 -0.026030 0
23.320000 -0.025448 0
23.325000 -0.024868 0
23.330000 -0.024291 0
23.335000 -0.023718 0
23.340000 -0.023147 0
23.345000 -0.022579 0
23.350000 -0.022013 0
23.355000 -0.021451 0
23.360000 -0.020891 0
23.365000 -0.020335 0
23.370000 -0.019781 0
23.375000 -0.019229 0
23.380000 -0.018681 0
23.385000 -0.018135 0
23.390000 -0.017592 0
23.395000 -0.017052 0
23.400000 -0.016514 0
23.405000 -0.015979 0
23.410000 -0.015446 0
23.415000 -0.014917 0
23.420000 -0.014389 0
23.425000 -0.013864 0
23.430000 -0.013340 0
23.435000 -0.012818 0
23.440000 -0.012296 0
23.445000 -0.011773 0
23.450000 -0.011246 0
23.455000 -0.010712 0
23.460000 -0.010164 0
23.465000 -0.009594 0
23.470000 -0.008988 0
23.475000 -0.008327 0
23.480000 -0.007585 0
23.485000 -0.006724 0
23.490000 -0.005692 0
23.495000 -0.004422 0
23.500000 -0.002827 0
23.505000 -0.000798 0
23.510000 0.001802 0
23.515000 0.005131 0
23.520000 0.009375 0
23.525000 0.014737 0
23.530000 0.021434 0
23.535000 0.029681 0
23.540000 0.039681 0
23.545000 0.051600 0
23.550000 0.065547 0
23.555000 0.081552 0
23.560000 0.099541 0
23.565000 0.119319 0
23.570000 0.140558 0
23.575000 0.162792 0
23.580000 0.185423 0
23.585000 0.207747 0
23.590000 0.228980 0
23.595000 0.248304 0
23.600000 0.264917 0
23.605000 0.278084 0
23.610000 0.287197 0
23.615000 0.291811 1
23.620000 0.291688 0
23.625000 0.286809 0
23.630000 0.277380 0
23.635000 0.263817 0
23.640000 0.246712 0
23.645000 0.226792 0
23.650000 0.204865 0
23.655000 0.181766 0
23.660000 0.158305 0
23.665000 0.135223 0
23.670000 0.113152 0
23.675000 0.092588 0
23.680000 0.073877 0
23.685000 0.057182 0
23.690000 0.042439 0
23.695000 0.029258 0
23.700000 0.016769 0
23.705000 0.003466 0
23.710000 -0.012807 0
23.715000 -0.034472 0
23.720000 -0.063226 0
23.725000 -0.098559 0
23.730000 -0.136312 0
23.735000 -0.168090 0
23.740000 -0.182066 2
23.745000 -0.164871 0
23.750000 -0.103815 0
23.755000 0.010905 0
23.760000 0.183248 0
23.765000 0.406753 0
23.770000 0.659497 0
23.775000 0.902620 0
23.780000 1.086961 0
23.785000 1.168099 3
23.790000 1.124234 0
23.795000 0.965143 0
23.800000 0.725338 0
23.805000 0.451960 0
23.810000 0.189289 0
23.815000 -0.031157 0
23.820000 -0.192797 0
23.825000 -0.291325 0
23.830000 -0.331285 4
23.835000 -0.323643 0
23.840000 -0.283639 0
23.845000 -0.227865 0
23.850000 -0.170765 0
23.855000 -0.121941 0
23.860000 -0.085394 0
23.865000 -0.060675 0
23.870000 -0.044960 0
23.875000 -0.034926 0
23.880000 -0.027841 0
23.885000 -0.021882 0
23.890000 -0.016003 0
23.895000 -0.009657 0
23.900000 -0.002566 0
23.905000 0.005424 0
23.910000 0.014412 0
23.915000 0.024477 0
23.920000 0.035682 0
23.925000 0.048076 0
23.930000 0.061693 0
23.935000 0.076548 0
23.940000 0.092634 0
23.945000 0.109920 0
23.950000 0.128344 0
23.955000 0.147819 0
23.960000 0.168222 0
23.965000 0.189403 0
23.970000 0.211178 0
23.975000 0.233332 0
23.980000 0.255625 0
23.985000 0.277791 0
23.990000 0.299545 0
23.995000 0.320588 0
24.000000 0.340613 0
24.005000 0.359314 0
24.010000 0.376390 0
24.015000 0.391557 0
24.020000 0.404550 0
24.025000 0.415138 0
24.030000 0.423122 0
24.035000 0.428348 0
24.040000 0.430709 5
24.045000 0.430147 0
24.050000 0.426655 0
24.055000 0.420281 0
24.060000 0.411123 0
24.065000 0.399326 0
24.070000 0.385083 0
24.075000 0.368621 0
24.080000 0.350204 0
24.085000 0.330120 0
24.090000 0.308673 0
24.095000 0.286179 0
24.100000 0.262956 0
24.105000 0.239316 0
24.110000 0.215559 0
24.115000 0.191967 0
24.120000 0.168798 0
24.125000 0.146284 0
24.130000 0.124625 0
24.135000 0.103989 0
24.140000 0.084512 0
24.145000 0.066295 0
24.150000 0.049410 0
24.155000 0.033896 0
24.160000 0.019767 0
24.165000 0.007011 0
24.170000 -0.004403 0
24.175000 -0.014526 0
24.180000 -0.023423 0
24.185000 -0.031168 0
24.190000 -0.037843 0
24.195000 -0.043537 0
24.200000 -0.048339 0
24.205000 -0.052337 0
24.210000 -0.055619 0
24.215000 -0.058268 0
24.220000 -0.060364 0
24.225000 -0.061978 0
24.230000 -0.063178 0
24.235000 -0.064026 0
24.240000 -0.064574 0
24.245000 -0.064872 0
24.250000 -0.064961 0
24.255000 -0.064878 0
24.260000 -0.064654 0
24.265000 -0.064316 0
24.270000 -0.063886 0
24.275000 -0.063383 0
24.280000 -0.062823 0
24.285000 -0.062217 0
24.290000 -0.061577 0
24.295000 -0.060911 0
24.300000 -0.060225 0
24.305000 -0.059518 0
24.310000 -0.058769 0
24.315000 -0.058023 0
24.320000 -0.057281 0
24.325000 -0.056542 0
24.330000 -0.055808 0
24.335000 -0.055077 0
24.340000 -0.054350 0
24.345000 -0.053626 0
24.350000 -0.052906 0
24.355000 -0.052189 0
24.360000 -0.051476 0
24.365000 -0.050767 0
24.370000 -0.050061 0
24.375000 -0.049359 0
24.380000 -0.048660 0
24.385000 -0.047965 0
24.390000 -0.047273 0
24.395000 -0.046585 0
24.400000 -0.045900 0
24.405000 -0.045218 0
24.410000 -0.044540 0
24.415000 -0.043865 0
24.420000 -0.043194 0
24.425000 -0.042526 0
24.430000 -0.041861 0
24.435000 -0.041200 0
24.440000 -0.040541 0
24.445000 -0.039886 0
24.450000 -0.039234 0
24.455000 -0.038584 0
24.460000 -0.037936 0
24.465000 -0.037290 0
24.470000 -0.036644 0
24.475000 -0.035996 0
24.480000 -0.035343 0
24.485000 -0.034681 0
24.490000 -0.034002 0
24.495000 -0.033295 0
24.500000 -0.032545 0
24.505000 -0.031731 0
24.510000 -0.030821 0
24.515000 -0.029774 0
24.520000 -0.028534 0
24.525000 -0.027029 0
24.530000 -0.025166 0
24.535000 -0.022830 0
24.540000 -0.019882 0
24.545000 -0.016160 0
24.550000 -0.011479 0
24.555000 -0.005639 0
24.560000 0.001572 0
24.565000 0.010358 0
24.570000 0.020907 0
24.575000 0.033369 0
24.580000 0.047833 0
24.585000 0.064311 0
24.590000 0.082710 0
24.595000 0.102823 0
24.600000 0.124313 0
24.605000 0.146714 0
24.610000 0.169440 0
24.615000 0.191801 0
24.620000 0.213040 0
24.625000 0.232367 0
24.630000 0.249010 0
24.635000 0.262264 0
24.640000 0.271542 0
24.645000 0.276413 0
24.650000 0.276638 1
24.655000 0.272189 0
24.660000 0.263248 0
24.665000 0.250198 0
24.670000 0.233594 0
24.675000 0.214121 0
24.680000 0.192551 0
24.685000 0.169688 0
24.690000 0.146322 0
24.695000 0.123181 0
24.700000 0.100902 0
24.705000 0.079996 0
24.710000 0.060835 0
24.715000 0.043630 0
24.720000 0.028390 0
24.725000 0.014852 0
24.730000 0.002353 0
24.735000 -0.010331 0
24.740000 -0.025064 0
24.745000 -0.044161 0
24.750000 -0.069700 0
24.755000 -0.102289 0
24.760000 -0.139619 0
24.765000 -0.175476 0
24.770000 -0.199866 0
24.775000 -0.200375 2
24.780000 -0.164169 0
24.785000 -0.080025 0
24.790000 0.059437 0
24.795000 0.254379 0
24.800000 0.492998 0
24.805000 0.747593 0
24.810000 0.975739 0
24.815000 1.129663 0
24.820000 1.171907 3
24.825000 1.090837 0
24.830000 0.904879 0
24.835000 0.651871 0
24.840000 0.377371 0
24.845000 0.121343 0
24.850000 -0.089179 0
24.855000 -0.240804 0
24.860000 -0.330981 0
24.865000 -0.364979 4
24.870000 -0.353800 0
24.875000 -0.312204 0
24.880000 -0.255979 0
24.885000 -0.198765 0
24.890000 -0.149649 0
24.895000 -0.112496 0
24.900000 -0.086992 0
24.905000 -0.070519 0
24.910000 -0.059891 0
24.915000 -0.052419 0
24.920000 -0.046253 0
24.925000 -0.040297 0
24.930000 -0.033962 0
24.935000 -0.026947 0
24.940000 -0.019087 0
24.945000 -0.010278 0
24.950000 -0.000440 0
24.955000 0.010490 0
24.960000 0.022564 0
24.965000 0.035819 0
24.970000 0.050276 0
24.975000 0.065938 0
24.980000 0.082784 0
24.985000 0.100770 0
24.990000 0.119824 0
24.995000 0.139847 0
25.000000 0.160708 0
25.005000 0.182249 0
25.010000 0.204284 0
25.015000 0.226597 0
25.020000 0.248949 0
25.025000 0.271082 0
25.030000 0.292718 0
25.035000 0.313571 0
25.040000 0.333347 0
25.045000 0.351755 0
25.050000 0.368513 0
25.055000 0.383353 0
25.060000 0.396029 0
25.065000 0.406325 0
25.070000 0.414058 0
25.075000 0.419088 0
25.080000 0.421314 5
25.085000 0.420686 0
25.090000 0.417201 0
25.095000 0.410903 0
25.100000 0.401887 0
25.105000 0.390291 0
25.110000 0.376292 0
25.115000 0.360109 0
25.120000 0.341988 0
25.125000 0.322199 0
25.130000 0.301033 0
25.135000 0.278787 0
25.140000 0.255766 0
25.145000 0.232267 0
25.150000 0.208581 0
25.155000 0.184981 0
25.160000 0.161719 0
25.165000 0.139026 0
25.170000 0.117102 0
25.175000 0.096120 0
25.180000 0.076219 0
25.185000 0.057511 0
25.190000 0.040076 0
25.195000 0.023965 0
25.200000 0.009203 0
25.205000 -0.004208 0
25.210000 -0.016290 0
25.215000 -0.027081 0
25.220000 -0.036634 0
25.225000 -0.045016 0
25.230000 -0.052301 0
25.235000 -0.058569 0
25.240000 -0.063905 0
25.245000 -0.068394 0
25.250000 -0.072121 0
25.255000 -0.075167 0
25.260000 -0.077612 0
25.265000 -0.079529 0
25.270000 -0.080988 0
25.275000 -0.082051 0
25.280000 -0.082775 0
25.285000 -0.083213 0
25.290000 -0.083408 0
25.295000 -0.083402 0
25.300000 -0.083228 0
25.305000 -0.082916 0
25.310000 -0.082493 0
25.315000 -0.081979 0
25.320000 -0.081393 0
25.325000 -0.080750 0
25.330000 -0.080061 0
25.335000 -0.079338 0
25.340000 -0.078589 0
25.345000 -0.077820 0
25.350000 -0.077028 0
25.355000 -0.076191 0
25.360000 -0.075358 0
25.365000 -0.074530 0
25.370000 -0.073706 0
25.375000 -0.072885 0
25.380000 -0.072069 0
25.385000 -0.071257 0
25.390000 -0.070449 0
25.395000 -0.069645 0
25.400000 -0.068845 0
25.405000 -0.068049 0
25.410000 -0.067257 0
25.415000 -0.066469 0
25.420000 -0.065685 0
25.425000 -0.064905 0
25.430000 -0.064129 0
25.435000 -0.063356 0
25.440000 -0.062587 0
25.445000 -0.061823 0
25.450000 -0.061062 0
25.455000 -0.060305 0
25.460000 -0.059551 0
25.465000 -0.058802 0
25.470000 -0.058056 0
25.475000 -0.057313 0
25.480000 -0.056575 0
25.485000 -0.055840 0
25.490000 -0.055109 0
25.495000 -0.054381 0
25.500000 -0.053656 0
25.505000 -0.052934 0
25.510000 -0.052215 0
25.515000 -0.051498 0
25.520000 -0.050781 0
25.525000 -0.050064 0
25.530000 -0.049342 0
25.535000 -0.048612 0
25.540000 -0.047867 0
25.545000 -0.047099 0
25.550000 -0.046292 0
25.555000 -0.045429 0
25.560000 -0.044481 0
25.565000 -0.043414 0
25.570000 -0.042177 0
25.575000 -0.040707 0
25.580000 -0.038923 0
25.585000 -0.036724 0
25.590000 -0.033986 0
25.595000 -0.030565 0
25.600000 -0.026293 0
25.605000 -0.020986 0
25.610000 -0.014447 0
25.615000 -0.006477 0
25.620000 0.003116 0
25.625000 0.014494 0
25.630000 0.027780 0
25.635000 0.043033 0
25.640000 0.060229 0
25.645000 0.079245 0
25.650000 0.099845 0
25.655000 0.121672 0
25.660000 0.144251 0
25.665000 0.166997 0
25.670000 0.189238 0
25.675000 0.210242 0
25.680000 0.229257 0
25.685000 0.245556 0
25.690000 0.258478 0
25.695000 0.267476 0
25.700000 0.272153 0
25.705000 0.272292 1
25.710000 0.267871 0
25.715000 0.259063 0
25.720000 0.246229 0
25.725000 0.229890 0
25.730000 0.210693 0
25.735000 0.189366 0
25.740000 0.166673 0
25.745000 0.143373 0
25.750000 0.120171 0
25.755000 0.097692 0
25.760000 0.076452 0
25.765000 0.056839 0
25.770000 0.039096 0
25.775000 0.023295 0
25.780000 0.009278 0
25.785000 -0.003438 0
25.790000 -0.015807 0
25.795000 -0.029368 0
25.800000 -0.046196 0
25.805000 -0.068490 0
25.810000 -0.097657 0
25.815000 -0.133021 0
25.820000 -0.170637 0
25.825000 -0.202822 0
25.830000 -0.218829 2
25.835000 -0.206424 0
25.840000 -0.153757 0
25.845000 -0.051193 0
25.850000 0.106401 0
25.855000 0.316101 0
25.860000 0.562499 0
25.865000 0.815024 0
25.870000 1.030846 0
25.875000 1.165180 0
25.880000 1.186042 3
25.885000 1.084181 0
25.890000 0.878225 0
25.895000 0.614040 0
25.900000 0.342063 0
25.905000 0.102420 0
25.910000 -0.081138 0
25.915000 -0.199807 0
25.920000 -0.255757 0
25.925000 -0.258975 4
25.930000 -0.224854 0
25.935000 -0.171109 0
25.940000 -0.113831 0
25.945000 -0.064135 0
25.950000 -0.026940 0
25.955000 -0.002074 0
25.960000 0.013405 0
25.965000 0.023043 0
25.970000 0.029733 0
25.975000 0.035366 0
25.980000 0.041003 0
25.985000 0.047179 0
25.990000 0.054164 0
25.995000 0.062105 0
26.000000 0.071105 0
26.005000 0.081241 0
26.010000 0.092577 0
26.015000 0.105161 0
26.020000 0.119022 0
26.025000 0.134167 0
26.030000 0.150578 0
26.035000 0.168206 0
26.040000 0.186973 0
26.045000 0.206763 0
26.050000 0.227430 0
26.055000 0.248790 0
26.060000 0.270625 0
26.065000 0.292686 0
26.070000 0.314696 0
26.075000 0.336355 0
26.080000 0.357346 0
26.085000 0.377341 0
26.090000 0.396012 0
26.095000 0.413036 0
26.100000 0.428106 0
26.105000 0.440938 0
26.110000 0.451283 0
26.115000 0.458931 0
26.120000 0.463718 0
26.125000 0.465534 5
26.130000 0.464323 0
26.135000 0.460088 0
26.140000 0.452888 0
26.145000 0.442842 0
26.150000 0.430117 0
26.155000 0.414931 0
26.160000 0.397540 0
26.165000 0.378237 0
26.170000 0.357337 0
26.175000 0.335173 0
26.180000 0.312084 0
26.185000 0.288407 0
26.190000 0.264470 0
26.195000 0.240584 0
26.200000 0.217036 0
26.205000 0.194085 0
26.210000 0.171954 0
26.215000 0.150836 0
26.220000 0.130884 0
26.225000 0.112214 0
26.230000 0.094909 0
26.235000 0.079017 0
26.240000 0.064555 0
26.245000 0.051515 0
26.250000 0.039862 0
26.255000 0.029543 0
26.260000 0.020490 0
26.265000 0.012621 0
26.270000 0.005849 0
26.275000 0.000080 0
26.280000 -0.004783 0
26.285000 -0.008833 0
26.290000 -0.012164 0
26.295000 -0.014862 0
26.300000 -0.017011 0
26.305000 -0.018687 0
26.310000 -0.019958 0
26.315000 -0.020887 0
26.320000 -0.021530 0
26.325000 -0.021933 0
26.330000 -0.022141 0
26.335000 -0.022187 0
26.340000 -0.022104 0
26.345000 -0.021916 0
26.350000 -0.021645 0
26.355000 -0.021309 0
26.360000 -0.020921 0
26.365000 -0.020495 0
26.370000 -0.020039 0
26.375000 -0.019560 0
26.380000 -0.019057 0
26.385000 -0.018509 0
26.390000 -0.017965 0
26.395000 -0.017422 0
26.400000 -0.016883 0
26.405000 -0.016346 0
26.410000 -0.015812 0
26.415000 -0.015280 0
26.420000 -0.014752 0
26.425000 -0.014225 0
26.430000 -0.013702 0
26.435000 -0.013181 0
26.440000 -0.012663 0
26.445000 -0.012147 0
26.450000 -0.011634 0
26.455000 -0.011123 0
26.460000 -0.010615 0
26.465000 -0.010109 0
26.470000 -0.009606 0
26.475000 -0.009106 0
26.480000 -0.008608 0
26.485000 -0.008112 0
26.490000 -0.007619 0
26.495000 -0.007128 0
26.500000 -0.006640 0
26.505000 -0.006154 0
26.510000 -0.005671 0
26.515000 -0.005190 0
26.520000 -0.004710 0
26.525000 -0.004233 0
26.530000 -0.003757 0
26.535000 -0.003281 0
26.540000 -0.002805 0
26.545000 -0.002326 0
26.550000 -0.001840 0
26.555000 -0.001344 0
26.560000 -0.000827 0
26.565000 -0.000280 0
26.570000 0.000316 0
26.575000 0.000985 0
26.580000 0.001764 0
26.585000 0.002699 0
26.590000 0.003856 0
26.595000 0.005319 0
26.600000 0.007195 0
26.605000 0.009617 0
26.610000 0.012745 0
26.615000 0.016764 0
26.620000 0.021882 0
26.625000 0.028319 0
26.630000 0.036300 0
26.635000 0.046036 0
26.640000 0.057704 0
26.645000 0.071425 0
26.650000 0.087238 0
26.655000 0.105075 0
26.660000 0.124744 0
26.665000 0.145914 0
26.670000 0.168106 0
26.675000 0.190710 0
26.680000 0.212998 0
26.685000 0.234162 0
26.690000 0.253357 0
26.695000 0.269758 0
26.700000 0.282617 0
26.705000 0.291315 0
26.710000 0.295413 1
26.715000 0.294688 0
26.720000 0.289149 0
26.725000 0.279039 0
26.730000 0.264817 0
26.735000 0.247119 0
26.740000 0.226713 0
26.745000 0.204444 0
26.750000 0.181169 0
26.755000 0.157712 0
26.760000 0.134810 0
26.765000 0.113082 0
26.770000 0.093000 0
26.775000 0.074866 0
26.780000 0.058786 0
26.785000 0.044599 0
26.790000 0.031755 0
26.795000 0.019142 0
26.800000 0.004945 0
26.805000 -0.013238 0
26.810000 -0.037758 0
26.815000 -0.069620 0
26.820000 -0.106830 0
26.825000 -0.143154 0
26.830000 -0.168130 0
26.835000 -0.168534 2
26.840000 -0.130654 0
26.845000 -0.042615 0
26.850000 0.103019 0
26.855000 0.305234 0
26.860000 0.549094 0
26.865000 0.801843 0
26.870000 1.015822 0
26.875000 1.141119 0
26.880000 1.143999 3
26.885000 1.023375 0
26.890000 0.809383 0
26.895000 0.544001 0
26.900000 0.271927 0
26.905000 0.029012 0
26.910000 -0.162602 0
26.915000 -0.293577 0
26.920000 -0.364248 0
26.925000 -0.381939 4
26.930000 -0.359066 0
26.935000 -0.310989 0
26.940000 -0.253067 0
26.945000 -0.197611 0
26.950000 -0.151996 0
26.955000 -0.118586 0
26.960000 -0.096140 0
26.965000 -0.081718 0
26.970000 -0.072226 0
26.975000 -0.065232 0
26.980000 -0.059142 0
26.985000 -0.053045 0
26.990000 -0.046460 0
26.995000 -0.039140 0
27.000000 -0.030942 0
27.005000 -0.021773 0
27.010000 -0.011560 0
27.015000 -0.000241 0
27.020000 0.012229 0
27.025000 0.025886 0
27.030000 0.040744 0
27.035000 0.056799 0
27.040000 0.074026 0
27.045000 0.092373 0
27.050000 0.111761 0
27.055000 0.132083 0
27.060000 0.153202 0
27.065000 0.174955 0
27.070000 0.197146 0
27.075000 0.219556 0
27.080000 0.241942 0
27.085000 0.264040 0
27.090000 0.285574 0
27.095000 0.306253 0
27.100000 0.325788 0
27.105000 0.343891 0
27.110000 0.360281 0
27.115000 0.374698 0
27.120000 0.386904 0
27.125000 0.396690 0
27.130000 0.403885 0
27.135000 0.408355 0
27.140000 0.410014 5
27.145000 0.408821 0
27.150000 0.404783 0
27.155000 0.397955 0
27.160000 0.388441 0
27.165000 0.376386 0
27.170000 0.361978 0
27.175000 0.345437 0
27.180000 0.327016 0
27.185000 0.306988 0
27.190000 0.285644 0
27.195000 0.263281 0
27.200000 0.240202 0
27.205000 0.216702 0
27.210000 0.193068 0
27.215000 0.169567 0
27.220000 0.146447 0
27.225000 0.123933 0
27.230000 0.102218 0
27.235000 0.081468 0
27.240000 0.061819 0
27.245000 0.043375 0
27.250000 0.026211 0
27.255000 0.010374 0
27.260000 -0.004116 0
27.265000 -0.017261 0
27.270000 -0.029084 0
27.275000 -0.039628 0
27.280000 -0.048946 0
27.285000 -0.057107 0
27.290000 -0.064184 0
27.295000 -0.070260 0
27.300000 -0.075418 0
27.305000 -0.079743 0
27.310000 -0.083319 0
27.315000 -0.086228 0
27.320000 -0.088547 0
27.325000 -0.090349 0
27.330000 -0.091702 0
27.335000 -0.092668 0
27.340000 -0.093303 0
27.345000 -0.093657 0
27.350000 -0.093776 0
27.355000 -0.093697 0
27.360000 -0.093455 0
27.365000 -0.093079 0
27.370000 -0.092595 0
27.375000 -0.092022 0
27.380000 -0.091379 0
27.385000 -0.090681 0
27.390000 -0.089939 0
27.395000 -0.089164 0
27.400000 -0.088363 0
27.405000 -0.087543 0
27.410000 -0.086702 0
27.415000 -0.085817 0
27.420000 -0.084936 0
27.425000 -0.084060 0
27.430000 -0.083188 0
27.435000 -0.082320 0
27.440000 -0.081457 0
27.445000 -0.080598 0
27.450000 -0.079744 0
27.455000 -0.078893 0
27.460000 -0.078047 0
27.465000 -0.077205 0
27.470000 -0.076368 0
27.475000 -0.075534 0
27.480000 -0.074705 0
27.485000 -0.073880 0
27.490000 -0.073059 0
27.495000 -0.072242 0
27.500000 -0.071429 0
27.505000 -0.070620 0
27.510000 -0.069815 0
27.515000 -0.069014 0
27.520000 -0.068217 0
27.525000 -0.067424 0
27.530000 -0.066636 0
27.535000 -0.065851 0
27.540000 -0.065069 0
27.545000 -0.064292 0
27.550000 -0.063519 0
27.555000 -0.062749 0
27.560000 -0.061982 0
27.565000 -0.061219 0
27.570000 -0.060459 0
27.575000 -0.059700 0
27.580000 -0.058943 0
27.585000 -0.058184 0
27.590000 -0.057422 0
27.595000 -0.056652 0
27.600000 -0.055868 0
27.605000 -0.055059 0
27.610000 -0.054214 0
27.615000 -0.053312 0
27.620000 -0.052328 0
27.625000 -0.051224 0
27.630000 -0.049953 0
27.635000 -0.048452 0
27.640000 -0.046641 0
27.645000 -0.044419 0
27.650000 -0.041664 0
27.655000 -0.038234 0
27.660000 -0.033962 0
27.665000 -0.028666 0
27.670000 -0.022149 0
27.675000 -0.014215 0
27.680000 -0.004671 0
27.685000 0.006646 0
27.690000 0.019861 0
27.695000 0.035036 0
27.700000 0.052153 0
27.705000 0.071096 0
27.710000 0.091636 0
27.715000 0.113428 0
27.720000 0.136006 0
27.725000 0.158795 0
27.730000 0.181131 0
27.735000 0.202290 0
27.740000 0.221523 0
27.745000 0.238103 0
27.750000 0.251366 0
27.755000 0.260756 0
27.760000 0.265864 0
27.765000 0.266457 1
27.770000 0.262493 0
27.775000 0.254130 0
27.780000 0.241707 0
27.785000 0.225729 0
27.790000 0.206828 0
27.795000 0.185723 0
27.800000 0.163173 0
27.805000 0.139935 0
27.810000 0.116718 0
27.815000 0.094156 0
27.820000 0.072775 0
27.825000 0.052978 0
27.830000 0.035025 0
27.835000 0.019010 0
27.840000 0.004812 0
27.845000 -0.008002 0
27.850000 -0.020310 0
27.855000 -0.033562 0
27.860000 -0.049765 0
27.865000 -0.071132 0
27.870000 -0.099250 0
27.875000 -0.133830 0
27.880000 -0.171477 0
27.885000 -0.205092 0
27.890000 -0.224360 2
27.895000 -0.217213 0
27.900000 -0.171679 0
27.905000 -0.077688 0
27.910000 0.070796 0
27.915000 0.272489 0
27.920000 0.514419 0
27.925000 0.768721 0
27.930000 0.994343 0
27.935000 1.146045 0
27.940000 1.188676 3
27.945000 1.109191 0
27.950000 0.922285 0
27.955000 0.667730 0
27.960000 0.393239 0
27.965000 0.140038 0
27.970000 -0.064748 0
27.975000 -0.208438 0
27.980000 -0.289570 0
27.985000 -0.314724 4
27.990000 -0.296307 0
27.995000 -0.250267 0
28.000000 -0.192917 0
28.005000 -0.137520 0
28.010000 -0.092069 0
28.015000 -0.059129 0
28.020000 -0.037364 0
28.025000 -0.023653 0
28.030000 -0.014770 0
28.035000 -0.008235 0
28.040000 -0.002466 0
28.045000 0.003414 0
28.050000 0.009858 0
28.055000 0.017097 0
28.060000 0.025266 0
28.065000 0.034457 0
28.070000 0.044743 0
28.075000 0.056183 0
28.080000 0.068824 0
28.085000 0.082693 0
28.090000 0.097800 0
28.095000 0.114132 0
28.100000 0.131650 0
28.105000 0.150285 0
28.110000 0.169940 0
28.115000 0.190486 0
28.120000 0.211763 0
28.125000 0.233580 0
28.130000 0.255714 0
28.135000 0.277917 0
28.140000 0.299920 0
28.145000 0.321433 0
28.150000 0.342155 0
28.155000 0.361779 0
28.160000 0.379998 0
28.165000 0.396517 0
28.170000 0.411056 0
28.175000 0.423359 0
28.180000 0.433202 0
28.185000 0.440400 0
28.190000 0.444808 0
28.195000 0.446333 5
28.200000 0.444930 0
28.205000 0.440607 0
28.210000 0.433424 0
28.215000 0.423493 0
28.220000 0.410970 0
28.225000 0.396057 0
28.230000 0.378993 0
28.235000 0.360047 0
28.240000 0.339511 0
28.245000 0.317693 0
28.250000 0.294911 0
28.255000 0.271480 0
28.260000 0.247710 0
28.265000 0.223897 0
28.270000 0.200317 0
28.275000 0.177221 0
28.280000 0.154833 0
28.285000 0.133346 0
28.290000 0.112918 0
28.295000 0.093678 0
28.300000 0.075718 0
28.305000 0.059101 0
28.310000 0.043862 0
28.315000 0.030006 0
28.320000 0.017517 0
28.325000 0.006358 0
28.330000 -0.003525 0
28.335000 -0.012198 0
28.340000 -0.019740 0
28.345000 -0.026235 0
28.350000 -0.031769 0
28.355000 -0.036433 0
28.360000 -0.040314 0
