0.000000 1.164212 3
0.005000 1.052745 0
0.010000 0.772298 0
0.015000 0.414055 0
0.020000 0.072862 0
0.025000 -0.188458 0
0.030000 -0.345019 0
0.035000 -0.400000 4
0.040000 -0.375189 0
0.045000 -0.303350 0
0.050000 -0.217974 0
0.055000 -0.142625 0
0.060000 -0.086373 0
0.065000 -0.047080 0
0.070000 -0.018125 0
0.075000 0.006536 0
0.080000 0.030589 0
0.085000 0.055689 0
0.090000 0.082322 0
0.095000 0.110431 0
0.100000 0.139723 0
0.105000 0.169782 0
0.110000 0.200102 0
0.115000 0.230114 0
0.120000 0.259198 0
0.125000 0.286704 0
0.130000 0.311978 0
0.135000 0.334384 0
0.140000 0.353331 0
0.145000 0.368300 0
0.150000 0.378865 0
0.155000 0.384714 0
0.160000 0.385666 5
0.165000 0.381675 0
0.170000 0.372836 0
0.175000 0.359383 0
0.180000 0.341671 0
0.185000 0.320170 0
0.190000 0.295435 0
0.195000 0.268089 0
0.200000 0.238791 0
0.205000 0.208215 0
0.210000 0.177021 0
0.215000 0.145831 0
0.220000 0.115216 0
0.225000 0.085672 0
0.230000 0.057618 0
0.235000 0.031383 0
0.240000 0.007210 0
0.245000 -0.014747 0
0.250000 -0.034409 0
0.255000 -0.051772 0
0.260000 -0.066888 0
0.265000 -0.079862 0
0.270000 -0.090833 0
0.275000 -0.099967 0
0.280000 -0.107446 0
0.285000 -0.113456 0
0.290000 -0.118185 0
0.295000 -0.121812 0
0.300000 -0.124504 0
0.305000 -0.126415 0
0.310000 -0.127681 0
0.315000 -0.128424 0
0.320000 -0.128542 0
0.325000 -0.127471 0
0.330000 -0.126406 0
0.335000 -0.125346 0
0.340000 -0.124292 0
0.345000 -0.123242 0
0.350000 -0.122198 0
0.355000 -0.121159 0
0.360000 -0.120124 0
0.365000 -0.119094 0
0.370000 -0.118068 0
0.375000 -0.117044 0
0.380000 -0.116020 0
0.385000 -0.114990 0
0.390000 -0.113947 0
0.395000 -0.112877 0
0.400000 -0.111757 0
0.405000 -0.110551 0
0.410000 -0.109202 0
0.415000 -0.107627 0
0.420000 -0.105704 0
0.425000 -0.103266 0
0.430000 -0.100087 0
0.435000 -0.095881 0
0.440000 -0.090294 0
0.445000 -0.082920 0
0.450000 -0.073316 0
0.455000 -0.061040 0
0.460000 -0.045702 0
0.465000 -0.027028 0
0.470000 -0.004936 0
0.475000 0.020400 0
0.480000 0.048487 0
0.485000 0.078488 0
0.490000 0.109228 0
0.495000 0.139252 0
0.500000 0.166926 0
0.505000 0.190581 0
0.510000 0.208675 0
0.515000 0.219964 0
0.520000 0.223638 1
0.525000 0.219423 0
0.530000 0.207612 0
0.535000 0.189035 0
0.540000 0.164960 0
0.545000 0.136952 0
0.550000 0.106699 0
0.555000 0.075826 0
0.560000 0.045673 0
0.565000 0.016985 0
0.570000 -0.010566 0
0.575000 -0.038960 0
0.580000 -0.071992 0
0.585000 -0.113963 0
0.590000 -0.166146 0
0.595000 -0.222091 0
0.600000 -0.265033 0
0.605000 -0.270110 2
0.610000 -0.210424 0
0.615000 -0.063946 0
0.620000 0.177920 0
0.625000 0.496613 0
0.630000 0.832883 0
0.635000 1.092378 0
0.640000 1.183282 3
0.645000 1.063211 0
0.650000 0.773377 0
0.655000 0.412833 0
0.660000 0.080052 0
0.665000 -0.163933 0
0.670000 -0.298602 0
0.675000 -0.332101 4
0.680000 -0.291252 0
0.685000 -0.212359 0
0.690000 -0.128841 0
0.695000 -0.060634 0
0.700000 -0.012237 0
0.705000 0.021376 0
0.710000 0.047421 0
0.715000 0.071205 0
0.720000 0.095457 0
0.725000 0.121170 0
0.730000 0.148477 0
0.735000 0.177145 0
0.740000 0.206769 0
0.745000 0.236839 0
0.750000 0.266765 0
0.755000 0.295897 0
0.760000 0.323547 0
0.765000 0.349016 0
0.770000 0.371619 0
0.775000 0.390717 0
0.780000 0.405748 0
0.785000 0.416250 0
0.790000 0.421886 0
0.795000 0.422461 5
0.800000 0.417932 0
0.805000 0.408412 0
0.810000 0.394161 0
0.815000 0.375578 0
0.820000 0.353179 0
0.825000 0.327574 0
0.830000 0.299438 0
0.835000 0.269483 0
0.840000 0.238423 0
0.845000 0.206954 0
0.850000 0.175721 0
0.855000 0.145302 0
0.860000 0.116193 0
0.865000 0.088796 0
0.870000 0.063416 0
0.875000 0.040262 0
0.880000 0.019452 0
0.885000 0.001021 0
0.890000 -0.015065 0
0.895000 -0.028901 0
0.900000 -0.040625 0
0.905000 -0.050407 0
0.910000 -0.058438 0
0.915000 -0.064916 0
0.920000 -0.070042 0
0.925000 -0.074009 0
0.930000 -0.076995 0
0.935000 -0.079166 0
0.940000 -0.080668 0
0.945000 -0.081629 0
0.950000 -0.081960 0
0.955000 -0.081122 0
0.960000 -0.080288 0
0.965000 -0.079458 0
0.970000 -0.078632 0
0.975000 -0.077811 0
0.980000 -0.076993 0
0.985000 -0.076179 0
0.990000 -0.075369 0
0.995000 -0.074562 0
1.000000 -0.073757 0
1.005000 -0.072952 0
1.010000 -0.072143 0
1.015000 -0.071325 0
1.020000 -0.070485 0
1.025000 -0.069604 0
1.030000 -0.068650 0
1.035000 -0.067573 0
1.040000 -0.066294 0
1.045000 -0.064700 0
1.050000 -0.062626 0
1.055000 -0.059851 0
1.060000 -0.056082 0
1.065000 -0.050958 0
1.070000 -0.044053 0
1.075000 -0.034896 0
1.080000 -0.023014 0
1.085000 -0.007985 0
1.090000 0.010488 0
1.095000 0.032496 0
1.100000 0.057843 0
1.105000 0.085980 0
1.110000 0.115978 0
1.115000 0.146540 0
1.120000 0.176075 0
1.125000 0.202819 0
1.130000 0.225007 0
1.135000 0.241060 0
1.140000 0.249772 0
1.145000 0.250457 1
1.150000 0.243042 0
1.155000 0.228070 0
1.160000 0.206641 0
1.165000 0.180275 0
1.170000 0.150728 0
1.175000 0.119792 0
1.180000 0.089060 0
1.185000 0.059634 0
1.190000 0.031656 0
1.195000 0.003670 0
1.200000 -0.027829 0
1.205000 -0.067529 0
1.210000 -0.117980 0
1.215000 -0.174334 0
1.220000 -0.220608 0
1.225000 -0.231196 2
1.230000 -0.177319 0
1.235000 -0.034866 0
1.240000 0.206068 0
1.245000 0.525844 0
1.250000 0.860112 0
1.255000 1.107264 0
1.260000 1.172856 3
1.265000 1.027612 0
1.270000 0.725318 0
1.275000 0.363635 0
1.280000 0.035014 0
1.285000 -0.204631 0
1.290000 -0.337047 0
1.295000 -0.370513 4
1.300000 -0.330749 0
1.305000 -0.252526 0
1.310000 -0.168312 0
1.315000 -0.098232 0
1.320000 -0.047692 0
1.325000 -0.012452 0
1.330000 0.014461 0
1.335000 0.038512 0
1.340000 0.062696 0
1.345000 0.088203 0
1.350000 0.115283 0
1.355000 0.143767 0
1.360000 0.173301 0
1.365000 0.203420 0
1.370000 0.233580 0
1.375000 0.263174 0
1.380000 0.291553 0
1.385000 0.318047 0
1.390000 0.341992 0
1.395000 0.362755 0
1.400000 0.379763 0
1.405000 0.392527 0
1.410000 0.400667 0
1.415000 0.403928 5
1.420000 0.402195 0
1.425000 0.395497 0
1.430000 0.384007 0
1.435000 0.368035 0
1.440000 0.348010 0
1.445000 0.324466 0
1.450000 0.298014 0
1.455000 0.269316 0
1.460000 0.239059 0
1.465000 0.207924 0
1.470000 0.176566 0
1.475000 0.145591 0
1.480000 0.115533 0
1.485000 0.086848 0
1.490000 0.059905 0
1.495000 0.034978 0
1.500000 0.012255 0
1.505000 -0.008164 0
1.510000 -0.026253 0
1.515000 -0.042051 0
1.520000 -0.055651 0
1.525000 -0.067189 0
1.530000 -0.076829 0
1.535000 -0.084753 0
1.540000 -0.091153 0
1.545000 -0.096219 0
1.550000 -0.100138 0
1.555000 -0.103082 0
1.560000 -0.105212 0
1.565000 -0.106669 0
1.570000 -0.107580 0
1.575000 -0.108051 0
1.580000 -0.107291 0
1.585000 -0.106327 0
1.590000 -0.105367 0
1.595000 -0.104412 0
1.600000 -0.103462 0
1.605000 -0.102516 0
1.610000 -0.101575 0
1.615000 -0.100638 0
1.620000 -0.099705 0
1.625000 -0.098776 0
1.630000 -0.097848 0
1.635000 -0.096919 0
1.640000 -0.095985 0
1.645000 -0.095036 0
1.650000 -0.094058 0
1.655000 -0.093028 0
1.660000 -0.091907 0
1.665000 -0.090635 0
1.670000 -0.089125 0
1.675000 -0.087249 0
1.680000 -0.084828 0
1.685000 -0.081626 0
1.690000 -0.077341 0
1.695000 -0.071603 0
1.700000 -0.063988 0
1.705000 -0.054041 0
1.710000 -0.041315 0
1.715000 -0.025428 0
1.720000 -0.006132 0
1.725000 0.016609 0
1.730000 0.042550 0
1.735000 0.071109 0
1.740000 0.101342 0
1.745000 0.131969 0
1.750000 0.161441 0
1.755000 0.188063 0
1.760000 0.210147 0
1.765000 0.226189 0
1.770000 0.235039 0
1.775000 0.236036 1
1.780000 0.229093 0
1.785000 0.214702 0
1.790000 0.193886 0
1.795000 0.168069 0
1.800000 0.138922 0
1.805000 0.108169 0
1.810000 0.077386 0
1.815000 0.047737 0
1.820000 0.019593 0
1.825000 -0.008050 0
1.830000 -0.038085 0
1.835000 -0.074921 0
1.840000 -0.122074 0
1.845000 -0.177608 0
1.850000 -0.229807 0
1.855000 -0.256773 2
1.860000 -0.231146 0
1.865000 -0.127145 0
1.870000 0.071752 0
1.875000 0.361141 0
1.880000 0.699750 0
1.885000 1.003773 0
1.890000 1.171921 3
1.895000 1.138612 0
1.900000 0.914126 0
1.905000 0.573852 0
1.910000 0.216137 0
1.915000 -0.082007 0
1.920000 -0.281743 0
1.925000 -0.376386 0
1.930000 -0.380928 4
1.935000 -0.324408 0
1.940000 -0.241135 0
1.945000 -0.159633 0
1.950000 -0.094996 0
1.955000 -0.049113 0
1.960000 -0.016549 0
1.965000 0.009344 0
1.970000 0.033295 0
1.975000 0.057742 0
1.980000 0.083590 0
1.985000 0.110976 0
1.990000 0.139695 0
1.995000 0.169382 0
2.000000 0.199576 0
2.005000 0.229741 0
2.010000 0.259284 0
2.015000 0.287572 0
2.020000 0.313957 0
2.025000 0.337795 0
2.030000 0.358476 0
2.035000 0.375447 0
2.040000 0.388236 0
2.045000 0.396475 0
2.050000 0.399915 5
2.055000 0.398441 0
2.060000 0.392075 0
2.065000 0.380975 0
2.070000 0.365433 0
2.075000 0.345854 0
2.080000 0.322746 0
2.085000 0.296692 0
2.090000 0.268331 0
2.095000 0.238323 0
2.100000 0.207335 0
2.105000 0.176006 0
2.110000 0.144934 0
2.115000 0.114654 0
2.120000 0.085626 0
2.125000 0.058230 0
2.130000 0.032754 0
2.135000 0.009405 0
2.140000 -0.011697 0
2.145000 -0.030504 0
2.150000 -0.047035 0
2.155000 -0.061364 0
2.160000 -0.073610 0
2.165000 -0.083921 0
2.170000 -0.092469 0
2.175000 -0.099438 0
2.180000 -0.105013 0
2.185000 -0.109377 0
2.190000 -0.112705 0
2.195000 -0.115158 0
2.200000 -0.116883 0
2.205000 -0.118008 0
2.210000 -0.118647 0
2.215000 -0.118713 0
2.220000 -0.117692 0
2.225000 -0.116675 0
2.230000 -0.115664 0
2.235000 -0.114657 0
2.240000 -0.113656 0
2.245000 -0.112659 0
2.250000 -0.111668 0
2.255000 -0.110681 0
2.260000 -0.109697 0
2.265000 -0.108717 0
2.270000 -0.107739 0
2.275000 -0.106758 0
2.280000 -0.105771 0
2.285000 -0.104767 0
2.290000 -0.103731 0
2.295000 -0.102637 0
2.300000 -0.101445 0
2.305000 -0.100092 0
2.310000 -0.098488 0
2.315000 -0.096501 0
2.320000 -0.093953 0
2.325000 -0.090607 0
2.330000 -0.086162 0
2.335000 -0.080256 0
2.340000 -0.072475 0
2.345000 -0.062376 0
2.350000 -0.049529 0
2.355000 -0.033566 0
2.360000 -0.014247 0
2.365000 0.008463 0
2.370000 0.034332 0
2.375000 0.062809 0
2.380000 0.092998 0
2.385000 0.123680 0
2.390000 0.153370 0
2.395000 0.180433 0
2.400000 0.203225 0
2.405000 0.220254 0
2.410000 0.230349 0
2.415000 0.232784 1
2.420000 0.227373 0
2.425000 0.214490 0
2.430000 0.195024 0
2.435000 0.170283 0
2.440000 0.141845 0
2.445000 0.111387 0
2.450000 0.080496 0
2.455000 0.050448 0
2.460000 0.021888 0
2.465000 -0.005663 0
2.470000 -0.034368 0
2.475000 -0.068133 0
2.480000 -0.111121 0
2.485000 -0.164080 0
2.490000 -0.219761 0
2.495000 -0.260714 0
2.500000 -0.261888 2
2.505000 -0.196744 0
2.510000 -0.044060 0
2.515000 0.203400 0
2.520000 0.525082 0
2.525000 0.859844 0
2.530000 1.113080 0
2.535000 1.195193 3
2.540000 1.069458 0
2.545000 0.776518 0
2.550000 0.415553 0
2.555000 0.083930 0
2.560000 -0.158487 0
2.565000 -0.291846 0
2.570000 -0.324537 4
2.575000 -0.283359 0
2.580000 -0.204431 0
2.585000 -0.120949 0
2.590000 -0.052727 0
2.595000 -0.004267 0
2.600000 0.029401 0
2.605000 0.055456 0
2.610000 0.079205 0
2.615000 0.103394 0
2.620000 0.129031 0
2.625000 0.156260 0
2.630000 0.184853 0
2.635000 0.214413 0
2.640000 0.244434 0
2.645000 0.274333 0
2.650000 0.303466 0
2.655000 0.331149 0
2.660000 0.356688 0
2.665000 0.379400 0
2.670000 0.398648 0
2.675000 0.413868 0
2.680000 0.424595 0
2.685000 0.430488 0
2.690000 0.431342 5
2.695000 0.427107 0
2.700000 0.417882 0
2.705000 0.403918 0
2.710000 0.385603 0
2.715000 0.363440 0
2.720000 0.338030 0
2.725000 0.310040 0
2.730000 0.280175 0
2.735000 0.249146 0
2.740000 0.217648 0
2.745000 0.186327 0
2.750000 0.155766 0
2.755000 0.126465 0
2.760000 0.098835 0
2.765000 0.073188 0
2.770000 0.049743 0
2.775000 0.028626 0
2.780000 0.009882 0
2.785000 -0.006518 0
2.790000 -0.020659 0
2.795000 -0.032674 0
2.800000 -0.042731 0
2.805000 -0.051015 0
2.810000 -0.057725 0
2.815000 -0.063059 0
2.820000 -0.067210 0
2.825000 -0.070359 0
2.830000 -0.072672 0
2.835000 -0.074298 0
2.840000 -0.075365 0
2.845000 -0.075987 0
2.850000 -0.075384 0
2.855000 -0.074579 0
2.860000 -0.073777 0
2.865000 -0.072980 0
2.870000 -0.072186 0
2.875000 -0.071397 0
2.880000 -0.070611 0
2.885000 -0.069829 0
2.890000 -0.069049 0
2.895000 -0.068272 0
2.900000 -0.067495 0
2.905000 -0.066716 0
2.910000 -0.065928 0
2.915000 -0.065121 0
2.920000 -0.064278 0
2.925000 -0.063370 0
2.930000 -0.062352 0
2.935000 -0.061151 0
2.940000 -0.059664 0
2.945000 -0.057738 0
2.950000 -0.055167 0
2.955000 -0.051677 0
2.960000 -0.046922 0
2.965000 -0.040493 0
2.970000 -0.031930 0
2.975000 -0.020759 0
2.980000 -0.006541 0
2.985000 0.011055 0
2.990000 0.032176 0
2.995000 0.056705 0
3.000000 0.084186 0
3.005000 0.113793 0
3.010000 0.144325 0
3.015000 0.174264 0
3.020000 0.201889 0
3.025000 0.225425 0
3.030000 0.243237 0
3.035000 0.254010 0
3.040000 0.256909 1
3.045000 0.251688 0
3.050000 0.238723 0
3.055000 0.218961 0
3.060000 0.193812 0
3.065000 0.164974 0
3.070000 0.134239 0
3.075000 0.103277 0
3.080000 0.073364 0
3.085000 0.044990 0
3.090000 0.017259 0
3.095000 -0.012694 0
3.100000 -0.049393 0
3.105000 -0.096552 0
3.110000 -0.152230 0
3.115000 -0.204186 0
3.120000 -0.229502 2
3.125000 -0.199743 0
3.130000 -0.088546 0
3.135000 0.119949 0
3.140000 0.418022 0
3.145000 0.757465 0
3.150000 1.046628 0
3.155000 1.182449 3
3.160000 1.108518 0
3.165000 0.851030 0
3.170000 0.498038 0
3.175000 0.149869 0
3.180000 -0.123143 0
3.185000 -0.290977 0
3.190000 -0.354392 4
3.195000 -0.334488 0
3.200000 -0.264562 0
3.205000 -0.179424 0
3.210000 -0.103925 0
3.215000 -0.047760 0
3.220000 -0.008799 0
3.225000 0.019791 0
3.230000 0.044188 0
3.235000 0.068094 0
3.240000 0.093126 0
3.245000 0.119728 0
3.250000 0.147810 0
3.255000 0.177055 0
3.260000 0.207016 0
3.265000 0.237165 0
3.270000 0.266901 0
3.275000 0.295579 0
3.280000 0.322525 0
3.285000 0.347063 0
3.290000 0.368545 0
3.295000 0.386376 0
3.300000 0.400042 0
3.305000 0.409133 0
3.310000 0.413364 5
3.315000 0.412589 0
3.320000 0.406808 0
3.325000 0.396167 0
3.330000 0.380953 0
3.335000 0.361579 0
3.340000 0.338566 0
3.345000 0.312519 0
3.350000 0.284099 0
3.355000 0.253997 0
3.360000 0.222906 0
3.365000 0.191491 0
3.370000 0.160372 0
3.375000 0.130102 0
3.380000 0.101153 0
3.385000 0.073908 0
3.390000 0.048658 0
3.395000 0.025603 0
3.400000 0.004856 0
3.405000 -0.013549 0
3.410000 -0.029646 0
3.415000 -0.043522 0
3.420000 -0.055310 0
3.425000 -0.065175 0
3.430000 -0.073297 0
3.435000 -0.079871 0
3.440000 -0.085090 0
3.445000 -0.089141 0
3.450000 -0.092201 0
3.455000 -0.094432 0
3.460000 -0.095980 0
3.465000 -0.096970 0
3.470000 -0.097514 0
3.475000 -0.096809 0
3.480000 -0.095897 0
3.485000 -0.094989 0
3.490000 -0.094086 0
3.495000 -0.093187 0
3.500000 -0.092293 0
3.505000 -0.091402 0
3.510000 -0.090517 0
3.515000 -0.089634 0
3.520000 -0.088755 0
3.525000 -0.087877 0
3.530000 -0.086998 0
3.535000 -0.086113 0
3.540000 -0.085212 0
3.545000 -0.084283 0
3.550000 -0.083299 0
3.555000 -0.082222 0
3.560000 -0.080991 0
3.565000 -0.079516 0
3.570000 -0.077665 0
3.575000 -0.075257 0
3.580000 -0.072048 0
3.585000 -0.067730 0
3.590000 -0.061924 0
3.595000 -0.054201 0
3.600000 -0.044100 0
3.605000 -0.031171 0
3.610000 -0.015038 0
3.615000 0.004534 0
3.620000 0.027559 0
3.625000 0.053758 0
3.630000 0.082505 0
3.635000 0.112810 0
3.640000 0.143346 0
3.645000 0.172525 0
3.650000 0.198626 0
3.655000 0.219959 0
3.660000 0.235043 0
3.665000 0.242777 1
3.670000 0.242571 0
3.675000 0.234423 0
3.680000 0.218918 0
3.685000 0.197159 0
3.690000 0.170636 0
3.695000 0.141059 0
3.700000 0.110158 0
3.705000 0.079473 0
3.710000 0.050069 0
3.715000 0.022110 0
3.720000 -0.005751 0
3.725000 -0.036811 0
3.730000 -0.075615 0
3.735000 -0.125001 0
3.740000 -0.181223 0
3.745000 -0.230088 0
3.750000 -0.247734 2
3.755000 -0.206264 0
3.760000 -0.081045 0
3.765000 0.140943 0
3.770000 0.447784 0
3.775000 0.786952 0
3.780000 1.065680 0
3.785000 1.185231 3
3.790000 1.096920 0
3.795000 0.832199 0
3.800000 0.477852 0
3.805000 0.130149 0
3.810000 -0.143651 0
3.815000 -0.314426 0
3.820000 -0.382289 4
3.825000 -0.366814 0
3.830000 -0.299573 0
3.835000 -0.214447 0
3.840000 -0.136761 0
3.845000 -0.077617 0
3.850000 -0.036165 0
3.855000 -0.006105 0
3.860000 0.018856 0
3.865000 0.042770 0
3.870000 0.067555 0
3.875000 0.093836 0
3.880000 0.121621 0
3.885000 0.150648 0
3.890000 0.180520 0
3.895000 0.210751 0
3.900000 0.240787 0
3.905000 0.270018 0
3.910000 0.297804 0
3.915000 0.323494 0
3.920000 0.346450 0
3.925000 0.366074 0
3.930000 0.381835 0
3.935000 0.393287 0
3.940000 0.400096 0
3.945000 0.402053 5
3.950000 0.399082 0
3.955000 0.391246 0
3.960000 0.378748 0
3.965000 0.361913 0
3.970000 0.341184 0
3.975000 0.317094 0
3.980000 0.290247 0
3.985000 0.261293 0
3.990000 0.230899 0
3.995000 0.199726 0
4.000000 0.168405 0
4.005000 0.137517 0
4.010000 0.107575 0
4.015000 0.079016 0
4.020000 0.052192 0
4.025000 0.027365 0
4.030000 0.004714 0
4.035000 -0.015664 0
4.040000 -0.033744 0
4.045000 -0.049564 0
4.050000 -0.063214 0
4.055000 -0.074823 0
4.060000 -0.084550 0
4.065000 -0.092572 0
4.070000 -0.099073 0
4.075000 -0.104240 0
4.080000 -0.108254 0
4.085000 -0.111285 0
4.090000 -0.113491 0
4.095000 -0.115013 0
4.100000 -0.115975 0
4.105000 -0.116485 0
4.110000 -0.115694 0
4.115000 -0.114688 0
4.120000 -0.113687 0
4.125000 -0.112690 0
4.130000 -0.111699 0
4.135000 -0.110712 0
4.140000 -0.109730 0
4.145000 -0.108753 0
4.150000 -0.107780 0
4.155000 -0.106811 0
4.160000 -0.105844 0
4.165000 -0.104878 0
4.170000 -0.103909 0
4.175000 -0.102929 0
4.180000 -0.101929 0
4.185000 -0.100888 0
4.190000 -0.099777 0
4.195000 -0.098548 0
4.200000 -0.097129 0
4.205000 -0.095417 0
4.210000 -0.093263 0
4.215000 -0.090469 0
4.220000 -0.086774 0
4.225000 -0.081854 0
4.230000 -0.075325 0
4.235000 -0.066758 0
4.240000 -0.055710 0
4.245000 -0.041763 0
4.250000 -0.024589 0
4.255000 -0.004015 0
4.260000 0.019902 0
4.265000 0.046816 0
4.270000 0.076047 0
4.275000 0.106569 0
4.280000 0.137052 0
4.285000 0.165937 0
4.290000 0.191562 0
4.295000 0.212317 0
4.300000 0.226813 0
4.305000 0.234029 1
4.310000 0.233441 0
4.315000 0.225075 0
4.320000 0.209515 0
4.325000 0.187828 0
4.330000 0.161448 0
4.335000 0.132017 0
4.340000 0.101204 0
4.345000 0.070507 0
4.350000 0.041005 0
4.355000 0.012971 0
4.360000 -0.014680 0
4.365000 -0.044859 0
4.370000 -0.081882 0
4.375000 -0.129108 0
4.380000 -0.184600 0
4.385000 -0.237029 0
4.390000 -0.265279 2
4.395000 -0.242831 0
4.400000 -0.144393 0
4.405000 0.046950 0
4.410000 0.329100 0
4.415000 0.665863 0
4.420000 0.979666 0
4.425000 1.171611 3
4.430000 1.169145 0
4.435000 0.967650 0
4.440000 0.635158 0
4.445000 0.275644 0
4.450000 -0.026522 0
4.455000 -0.228202 0
4.460000 -0.321741 0
4.465000 -0.323242 4
4.470000 -0.263913 0
4.475000 -0.180014 0
4.480000 -0.100517 0
4.485000 -0.039365 0
4.490000 0.003169 0
4.495000 0.033487 0
4.500000 0.058328 0
4.505000 0.082051 0
4.510000 0.106688 0
4.515000 0.132877 0
4.520000 0.160603 0
4.525000 0.189576 0
4.530000 0.219360 0
4.535000 0.249431 0
4.540000 0.279188 0
4.545000 0.307979 0
4.550000 0.335120 0
4.555000 0.359924 0
4.560000 0.381723 0
4.565000 0.399905 0
4.570000 0.413935 0
4.575000 0.423384 0
4.580000 0.427950 5
4.585000 0.427470 0
4.590000 0.421935 0
4.595000 0.411483 0
4.600000 0.396398 0
4.605000 0.377095 0
4.610000 0.354101 0
4.615000 0.328030 0
4.620000 0.299554 0
4.625000 0.269377 0
4.630000 0.238202 0
4.635000 0.206709 0
4.640000 0.175526 0
4.645000 0.145215 0
4.650000 0.116254 0
4.655000 0.089028 0
4.660000 0.063828 0
4.665000 0.040854 0
4.670000 0.020212 0
4.675000 0.001933 0
4.680000 -0.014023 0
4.685000 -0.027751 0
4.690000 -0.039390 0
4.695000 -0.049109 0
4.700000 -0.057096 0
4.705000 -0.063547 0
4.710000 -0.068659 0
4.715000 -0.072623 0
4.720000 -0.075614 0
4.725000 -0.077796 0
4.730000 -0.079312 0
4.735000 -0.080289 0
4.740000 -0.080636 0
4.745000 -0.079805 0
4.750000 -0.078977 0
4.755000 -0.078154 0
4.760000 -0.077335 0
4.765000 -0.076520 0
4.770000 -0.075708 0
4.775000 -0.074901 0
4.780000 -0.074097 0
4.785000 -0.073296 0
4.790000 -0.072498 0
4.795000 -0.071700 0
4.800000 -0.070899 0
4.805000 -0.070088 0
4.810000 -0.069259 0
4.815000 -0.068392 0
4.820000 -0.067458 0
4.825000 -0.066410 0
4.830000 -0.065178 0
4.835000 -0.063653 0
4.840000 -0.061685 0
4.845000 -0.059064 0
4.850000 -0.055516 0
4.855000 -0.050699 0
4.860000 -0.044202 0
4.865000 -0.035569 0
4.870000 -0.024332 0
4.875000 -0.010056 0
4.880000 0.007586 0
4.885000 0.028738 0
4.890000 0.053281 0
4.895000 0.080767 0
4.900000 0.110375 0
4.905000 0.140919 0
4.910000 0.170899 0
4.915000 0.198609 0
4.920000 0.222291 0
4.925000 0.240317 0
4.930000 0.251369 0
4.935000 0.254603 1
4.940000 0.249751 0
4.945000 0.237156 0
4.950000 0.217734 0
4.955000 0.192862 0
4.960000 0.164211 0
4.965000 0.133561 0
4.970000 0.102580 0
4.975000 0.072574 0
4.980000 0.044104 0
4.985000 0.016417 0
4.990000 -0.013156 0
4.995000 -0.049018 0
5.000000 -0.095101 0
5.005000 -0.150266 0
5.010000 -0.203522 0
5.015000 -0.233098 2
5.020000 -0.211042 0
5.025000 -0.110591 0
5.030000 0.085763 0
5.035000 0.374172 0
5.040000 0.712661 0
5.045000 1.015033 0
5.050000 1.177454 3
5.055000 1.134112 0
5.060000 0.898742 0
5.065000 0.553040 0
5.070000 0.198848 0
5.075000 -0.087763 0
5.080000 -0.271318 0
5.085000 -0.348879 4
5.090000 -0.339116 0
5.095000 -0.274150 0
5.100000 -0.189347 0
5.105000 -0.111526 0
5.110000 -0.052528 0
5.115000 -0.011496 0
5.120000 0.018138 0
5.125000 0.042838 0
5.130000 0.066667 0
5.135000 0.091483 0
5.140000 0.117848 0
5.145000 0.145725 0
5.150000 0.174819 0
5.155000 0.204700 0
5.160000 0.234847 0
5.165000 0.264671 0
5.170000 0.293530 0
5.175000 0.320752 0
5.180000 0.345662 0
5.185000 0.367604 0
5.190000 0.385974 0
5.195000 0.400246 0
5.200000 0.409993 0
5.205000 0.414912 5
5.210000 0.414836 0
5.215000 0.409743 0
5.220000 0.399762 0
5.225000 0.385158 0
5.230000 0.366328 0
5.235000 0.343781 0
5.240000 0.318110 0
5.245000 0.289972 0
5.250000 0.260055 0
5.255000 0.229051 0
5.260000 0.197634 0
5.265000 0.166431 0
5.270000 0.136004 0
5.275000 0.106837 0
5.280000 0.079327 0
5.285000 0.053778 0
5.290000 0.030402 0
5.295000 0.009323 0
5.300000 -0.009414 0
5.305000 -0.025834 0
5.310000 -0.040018 0
5.315000 -0.052094 0
5.320000 -0.062221 0
5.325000 -0.070581 0
5.330000 -0.077364 0
5.335000 -0.082766 0
5.340000 -0.086975 0
5.345000 -0.090170 0
5.350000 -0.092514 0
5.355000 -0.094155 0
5.360000 -0.095223 0
5.365000 -0.095830 0
5.370000 -0.095141 0
5.375000 -0.094237 0
5.380000 -0.093338 0
5.385000 -0.092443 0
5.390000 -0.091552 0
5.395000 -0.090666 0
5.400000 -0.089784 0
5.405000 -0.088906 0
5.410000 -0.088032 0
5.415000 -0.087161 0
5.420000 -0.086292 0
5.425000 -0.085421 0
5.430000 -0.084546 0
5.435000 -0.083657 0
5.440000 -0.082741 0
5.445000 -0.081774 0
5.450000 -0.080721 0
5.455000 -0.079524 0
5.460000 -0.078096 0
5.465000 -0.076313 0
5.470000 -0.074000 0
5.475000 -0.070923 0
5.480000 -0.066780 0
5.485000 -0.061205 0
5.490000 -0.053772 0
5.495000 -0.044021 0
5.500000 -0.031500 0
5.505000 -0.015817 0
5.510000 0.003285 0
5.515000 0.025854 0
5.520000 0.051653 0
5.525000 0.080105 0
5.530000 0.110266 0
5.535000 0.140851 0
5.540000 0.170298 0
5.545000 0.196896 0
5.550000 0.218939 0
5.555000 0.234909 0
5.560000 0.243646 0
5.565000 0.244487 1
5.570000 0.237351 0
5.575000 0.222749 0
5.580000 0.201721 0
5.585000 0.175719 0
5.590000 0.146434 0
5.595000 0.115605 0
5.600000 0.084810 0
5.605000 0.055199 0
5.610000 0.027083 0
5.615000 -0.000653 0
5.620000 -0.031058 0
5.625000 -0.068627 0
5.630000 -0.116672 0
5.635000 -0.172577 0
5.640000 -0.223575 0
5.645000 -0.246805 2
5.650000 -0.214478 0
5.655000 -0.101117 0
5.660000 0.108403 0
5.665000 0.406314 0
5.670000 0.745853 0
5.675000 1.038231 0
5.680000 1.182458 3
5.685000 1.120713 0
5.690000 0.874224 0
5.695000 0.525422 0
5.700000 0.172628 0
5.705000 -0.111929 0
5.710000 -0.294775 0
5.715000 -0.373260 4
5.720000 -0.365305 0
5.725000 -0.301805 0
5.730000 -0.217148 0
5.735000 -0.138065 0
5.740000 -0.077124 0
5.745000 -0.034337 0
5.750000 -0.003591 0
5.755000 0.021581 0
5.760000 0.045463 0
5.765000 0.070126 0
5.770000 0.096271 0
5.775000 0.123936 0
5.780000 0.152871 0
5.785000 0.182684 0
5.790000 0.212889 0
5.795000 0.242932 0
5.800000 0.272202 0
5.805000 0.300057 0
5.810000 0.325840 0
5.815000 0.348909 0
5.820000 0.368658 0
5.825000 0.384551 0
5.830000 0.396134 0
5.835000 0.403069 0
5.840000 0.405139 5
5.845000 0.402264 0
5.850000 0.394507 0
5.855000 0.382066 0
5.860000 0.365269 0
5.865000 0.344559 0
5.870000 0.320472 0
5.875000 0.293616 0
5.880000 0.264644 0
5.885000 0.234229 0
5.890000 0.203035 0
5.895000 0.171698 0
5.900000 0.140801 0
5.905000 0.110861 0
5.910000 0.082315 0
5.915000 0.055515 0
5.920000 0.030725 0
5.925000 0.008122 0
5.930000 -0.012199 0
5.935000 -0.030215 0
5.940000 -0.045966 0
5.945000 -0.059545 0
5.950000 -0.071083 0
5.955000 -0.080742 0
5.960000 -0.088698 0
5.965000 -0.095140 0
5.970000 -0.100254 0
5.975000 -0.104221 0
5.980000 -0.107214 0
5.985000 -0.109389 0
5.990000 -0.110886 0
5.995000 -0.111831 0
6.000000 -0.112330 0
6.005000 -0.111555 0
6.010000 -0.110570 0
6.015000 -0.109589 0
6.020000 -0.108613 0
6.025000 -0.107641 0
6.030000 -0.106675 0
6.035000 -0.105713 0
6.040000 -0.104756 0
6.045000 -0.103803 0
6.050000 -0.102853 0
6.055000 -0.101906 0
6.060000 -0.100959 0
6.065000 -0.100008 0
6.070000 -0.099045 0
6.075000 -0.098059 0
6.080000 -0.097030 0
6.085000 -0.095924 0
6.090000 -0.094692 0
6.095000 -0.093257 0
6.100000 -0.091508 0
6.105000 -0.089291 0
6.110000 -0.086395 0
6.115000 -0.082548 0
6.120000 -0.077415 0
6.125000 -0.070600 0
6.130000 -0.061668 0
6.135000 -0.050170 0
6.140000 -0.035700 0
6.145000 -0.017949 0
6.150000 0.003223 0
6.155000 0.027710 0
6.160000 0.055104 0
6.165000 0.084654 0
6.170000 0.115267 0
6.175000 0.145550 0
6.180000 0.173903 0
6.185000 0.198651 0
6.190000 0.218204 0
6.195000 0.231228 0
6.200000 0.236794 1
6.205000 0.234487 0
6.210000 0.224460 0
6.215000 0.207412 0
6.220000 0.184514 0
6.225000 0.157272 0
6.230000 0.127360 0
6.235000 0.096437 0
6.240000 0.065938 0
6.245000 0.036796 0
6.250000 0.009008 0
6.255000 -0.018944 0
6.260000 -0.050443 0
6.265000 -0.089905 0
6.270000 -0.139807 0
6.275000 -0.196038 0
6.280000 -0.244430 0
6.285000 -0.261690 2
6.290000 -0.220787 0
6.295000 -0.097793 0
6.300000 0.120340 0
6.305000 0.423438 0
6.310000 0.763133 0
6.315000 1.051634 0
6.320000 1.191543 3
6.325000 1.125547 0
6.330000 0.872426 0
6.335000 0.520369 0
6.340000 0.171560 0
6.345000 -0.101983 0
6.350000 -0.269533 0
6.355000 -0.331928 4
6.360000 -0.310795 0
6.365000 -0.240112 0
6.370000 -0.155101 0
6.375000 -0.080485 0
6.380000 -0.025462 0
6.385000 0.012557 0
6.390000 0.040587 0
6.395000 0.064753 0
6.400000 0.088625 0
6.405000 0.113708 0
6.410000 0.140382 0
6.415000 0.168525 0
6.420000 0.197794 0
6.425000 0.227726 0
6.430000 0.257772 0
6.435000 0.287314 0
6.440000 0.315691 0
6.445000 0.342215 0
6.450000 0.366203 0
6.455000 0.387002 0
6.460000 0.404020 0
6.465000 0.416752 0
6.470000 0.424805 0
6.475000 0.427916 5
6.480000 0.425967 0
6.485000 0.418991 0
6.490000 0.407170 0
6.495000 0.390827 0
6.500000 0.370410 0
6.505000 0.346473 0
6.510000 0.319648 0
6.515000 0.290619 0
6.520000 0.260090 0
6.525000 0.228761 0
6.530000 0.197297 0
6.535000 0.166309 0
6.540000 0.136335 0
6.545000 0.107826 0
6.550000 0.081143 0
6.555000 0.056549 0
6.560000 0.034217 0
6.565000 0.014231 0
6.570000 -0.003398 0
6.575000 -0.018727 0
6.580000 -0.031864 0
6.585000 -0.042958 0
6.590000 -0.052182 0
6.595000 -0.059729 0
6.600000 -0.065796 0
6.605000 -0.070576 0
6.610000 -0.074257 0
6.615000 -0.077013 0
6.620000 -0.079000 0
6.625000 -0.080357 0
6.630000 -0.081206 0
6.635000 -0.081466 0
6.640000 -0.080630 0
6.645000 -0.079799 0
6.650000 -0.078971 0
6.655000 -0.078148 0
6.660000 -0.077329 0
6.665000 -0.076513 0
6.670000 -0.075702 0
6.675000 -0.074894 0
6.680000 -0.074089 0
6.685000 -0.073286 0
6.690000 -0.072482 0
6.695000 -0.071675 0
6.700000 -0.070856 0
6.705000 -0.070014 0
6.710000 -0.069128 0
6.715000 -0.068166 0
6.720000 -0.067076 0
6.725000 -0.065777 0
6.730000 -0.064153 0
6.735000 -0.062039 0
6.740000 -0.059213 0
6.745000 -0.055381 0
6.750000 -0.050186 0
6.755000 -0.043204 0
6.760000 -0.033973 0
6.765000 -0.022028 0
6.770000 -0.006954 0
6.775000 0.011538 0
6.780000 0.033535 0
6.785000 0.058844 0
6.790000 0.086931 0
6.795000 0.116887 0
6.800000 0.147447 0
6.805000 0.177051 0
6.810000 0.203969 0
6.815000 0.226460 0
6.820000 0.242954 0
6.825000 0.252236 0
6.830000 0.253588 1
6.835000 0.246886 0
6.840000 0.232613 0
6.845000 0.211800 0
6.850000 0.185907 0
6.855000 0.156645 0
6.860000 0.125784 0
6.865000 0.094933 0
6.870000 0.065266 0
6.875000 0.037104 0
6.880000 0.009303 0
6.885000 -0.021257 0
6.890000 -0.059152 0
6.895000 -0.107638 0
6.900000 -0.163730 0
6.905000 -0.213943 0
6.910000 -0.234622 2
6.915000 -0.197464 0
6.920000 -0.077031 0
6.925000 0.140764 0
6.930000 0.445210 0
6.935000 0.784484 0
6.940000 1.065132 0
6.945000 1.186519 3
6.950000 1.097928 0
6.955000 0.830728 0
6.960000 0.475137 0
6.965000 0.130024 0
6.970000 -0.137158 0
6.975000 -0.298732 0
6.980000 -0.356867 4
6.985000 -0.333438 0
6.990000 -0.261958 0
6.995000 -0.176818 0
7.000000 -0.102079 0
7.005000 -0.046735 0
7.010000 -0.008319 0
7.015000 0.020021 0
7.020000 0.044356 0
7.025000 0.068285 0
7.030000 0.093363 0
7.035000 0.120009 0
7.040000 0.148126 0
7.045000 0.177393 0
7.050000 0.207364 0
7.055000 0.237512 0
7.060000 0.267239 0
7.065000 0.295901 0
7.070000 0.322827 0
7.075000 0.347347 0
7.080000 0.368816 0
7.085000 0.386641 0
7.090000 0.400311 0
7.095000 0.409419 0
7.100000 0.413681 5
7.105000 0.412950 0
7.110000 0.407224 0
7.115000 0.396648 0
7.120000 0.381506 0
7.125000 0.362205 0
7.130000 0.339264 0
7.135000 0.313282 0
7.140000 0.284917 0
7.145000 0.254855 0
7.150000 0.223785 0
7.155000 0.192372 0
7.160000 0.161233 0
7.165000 0.130921 0
7.170000 0.101910 0
7.175000 0.074585 0
7.180000 0.049238 0
7.185000 0.026074 0
7.190000 0.005207 0
7.195000 -0.013323 0
7.200000 -0.029546 0
7.205000 -0.043548 0
7.210000 -0.055459 0
7.215000 -0.065439 0
7.220000 -0.073669 0
7.225000 -0.080341 0
7.230000 -0.085647 0
7.235000 -0.089776 0
7.240000 -0.092903 0
7.245000 -0.095190 0
7.250000 -0.096784 0
7.255000 -0.097813 0
7.260000 -0.098388 0
7.265000 -0.097684 0
7.270000 -0.096767 0
7.275000 -0.095855 0
7.280000 -0.094948 0
7.285000 -0.094044 0
7.290000 -0.093146 0
7.295000 -0.092252 0
7.300000 -0.091361 0
7.305000 -0.090475 0
7.310000 -0.089592 0
7.315000 -0.088710 0
7.320000 -0.087828 0
7.325000 -0.086940 0
7.330000 -0.086039 0
7.335000 -0.085110 0
7.340000 -0.084132 0
7.345000 -0.083067 0
7.350000 -0.081858 0
7.355000 -0.080419 0
7.360000 -0.078627 0
7.365000 -0.076308 0
7.370000 -0.073229 0
7.375000 -0.069092 0
7.380000 -0.063532 0
7.385000 -0.056127 0
7.390000 -0.046421 0
7.395000 -0.033961 0
7.400000 -0.018357 0
7.405000 0.000652 0
7.410000 0.023120 0
7.415000 0.048823 0
7.420000 0.077199 0
7.425000 0.107323 0
7.430000 0.137928 0
7.435000 0.167473 0
7.440000 0.194256 0
7.445000 0.216579 0
7.450000 0.232916 0
7.455000 0.242091 0
7.460000 0.243415 1
7.465000 0.236770 0
7.470000 0.222630 0
7.475000 0.201999 0
7.480000 0.176299 0
7.485000 0.147199 0
7.490000 0.116436 0
7.495000 0.085597 0
7.500000 0.055872 0
7.505000 0.027659 0
7.510000 -0.000009 0
7.515000 -0.029995 0
7.520000 -0.066712 0
7.525000 -0.113741 0
7.530000 -0.169255 0
7.535000 -0.221620 0
7.540000 -0.248934 2
7.545000 -0.223728 0
7.550000 -0.120073 0
7.555000 0.078671 0
7.560000 0.368107 0
7.565000 0.706716 0
7.570000 1.010194 0
7.575000 1.176851 3
7.580000 1.141127 0
7.585000 0.913978 0
7.590000 0.572307 0
7.595000 0.215337 0
7.600000 -0.080102 0
7.605000 -0.275962 0
7.610000 -0.366455 0
7.615000 -0.367455 4
7.620000 -0.308763 0
7.625000 -0.224995 0
7.630000 -0.144319 0
7.635000 -0.081062 0
7.640000 -0.036422 0
7.645000 -0.004646 0
7.650000 0.020894 0
7.655000 0.044773 0
7.660000 0.069283 0
7.665000 0.095239 0
7.670000 0.122731 0
7.675000 0.151531 0
7.680000 0.181258 0
7.685000 0.211436 0
7.690000 0.241516 0
7.695000 0.270894 0
7.700000 0.298926 0
7.705000 0.324957 0
7.710000 0.348340 0
7.715000 0.368465 0
7.720000 0.384783 0
7.725000 0.396834 0
7.730000 0.404263 0
7.735000 0.406840 5
7.740000 0.404473 0
7.745000 0.397206 0
7.750000 0.385226 0
7.755000 0.368848 0
7.760000 0.348504 0
7.765000 0.324723 0
7.770000 0.298107 0
7.775000 0.269308 0
7.780000 0.238998 0
7.785000 0.207843 0
7.790000 0.176485 0
7.795000 0.145512 0
7.800000 0.115450 0
7.805000 0.086745 0
7.810000 0.059758 0
7.815000 0.034760 0
7.820000 0.011937 0
7.825000 -0.008608 0
7.830000 -0.026846 0
7.835000 -0.042812 0
7.840000 -0.056593 0
7.845000 -0.068320 0
7.850000 -0.078149 0
7.855000 -0.086260 0
7.860000 -0.092837 0
7.865000 -0.098070 0
7.870000 -0.102140 0
7.875000 -0.105220 0
7.880000 -0.107468 0
7.885000 -0.109027 0
7.890000 -0.110023 0
7.895000 -0.110565 0
7.900000 -0.109804 0
7.905000 -0.108827 0
7.910000 -0.107855 0
7.915000 -0.106888 0
7.920000 -0.105925 0
7.925000 -0.104967 0
7.930000 -0.104014 0
7.935000 -0.103065 0
7.940000 -0.102121 0
7.945000 -0.101180 0
7.950000 -0.100241 0
7.955000 -0.099302 0
7.960000 -0.098360 0
7.965000 -0.097408 0
7.970000 -0.096433 0
7.975000 -0.095416 0
7.980000 -0.094326 0
7.985000 -0.093113 0
7.990000 -0.091704 0
7.995000 -0.089991 0
8.000000 -0.087821 0
8.005000 -0.084989 0
8.010000 -0.081227 0
8.015000 -0.076203 0
8.020000 -0.069525 0
8.025000 -0.060758 0
8.030000 -0.049455 0
8.035000 -0.035201 0
8.040000 -0.017680 0
8.045000 0.003261 0
8.050000 0.027536 0
8.055000 0.054755 0
8.060000 0.084190 0
8.065000 0.114767 0
8.070000 0.145109 0
8.075000 0.173622 0
8.080000 0.198629 0
8.085000 0.218528 0
8.090000 0.231965 0
8.095000 0.237980 1
8.100000 0.236126 0
8.105000 0.226522 0
8.110000 0.209840 0
8.115000 0.187227 0
8.120000 0.160177 0
8.125000 0.130361 0
8.130000 0.099447 0
8.135000 0.068889 0
8.140000 0.039658 0
8.145000 0.011814 0
8.150000 -0.016069 0
8.155000 -0.047287 0
8.160000 -0.086262 0
8.165000 -0.135673 0
8.170000 -0.191843 0
8.175000 -0.241103 0
8.180000 -0.260476 2
8.185000 -0.222921 0
8.190000 -0.104177 0
8.195000 0.109556 0
8.200000 0.409504 0
8.205000 0.749192 0
8.210000 1.042101 0
8.215000 1.190103 3
8.220000 1.132872 0
8.225000 0.885665 0
8.230000 0.535347 0
8.235000 0.185009 0
8.240000 -0.091593 0
8.245000 -0.262367 0
8.250000 -0.327397 4
8.255000 -0.307955 0
8.260000 -0.237991 0
8.265000 -0.152998 0
8.270000 -0.078102 0
8.275000 -0.022804 0
8.280000 0.015370 0
8.285000 0.043451 0
8.290000 0.067615 0
8.295000 0.091468 0
8.300000 0.116533 0
8.305000 0.143192 0
8.310000 0.171324 0
8.315000 0.200584 0
8.320000 0.230505 0
8.325000 0.260537 0
8.330000 0.290058 0
8.335000 0.318401 0
8.340000 0.344878 0
8.345000 0.368800 0
8.350000 0.389514 0
8.355000 0.406425 0
8.360000 0.419029 0
8.365000 0.426934 0
8.370000 0.429880 5
8.375000 0.427753 0
8.380000 0.420590 0
8.385000 0.408580 0
8.390000 0.392052 0
8.395000 0.371462 0
8.400000 0.347370 0
8.405000 0.320413 0
8.410000 0.291281 0
8.415000 0.260683 0
8.420000 0.229318 0
8.425000 0.197854 0
8.430000 0.166900 0
8.435000 0.136992 0
8.440000 0.108579 0
8.445000 0.082016 0
8.450000 0.057561 0
8.455000 0.035382 0
8.460000 0.015558 0
8.465000 -0.001906 0
8.470000 -0.017071 0
8.475000 -0.030050 0
8.480000 -0.040994 0
8.485000 -0.050081 0
8.490000 -0.057502 0
8.495000 -0.063458 0
8.500000 -0.068142 0
8.505000 -0.071742 0
8.510000 -0.074429 0
8.515000 -0.076360 0
8.520000 -0.077674 0
8.525000 -0.078490 0
8.530000 -0.078732 0
8.535000 -0.077909 0
8.540000 -0.077091 0
8.545000 -0.076277 0
8.550000 -0.075467 0
8.555000 -0.074662 0
8.560000 -0.073860 0
8.565000 -0.073061 0
8.570000 -0.072266 0
8.575000 -0.071474 0
8.580000 -0.070684 0
8.585000 -0.069892 0
8.590000 -0.069096 0
8.595000 -0.068287 0
8.600000 -0.067453 0
8.605000 -0.066571 0
8.610000 -0.065606 0
8.615000 -0.064502 0
8.620000 -0.063174 0
8.625000 -0.061499 0
8.630000 -0.059303 0
8.635000 -0.056350 0
8.640000 -0.052337 0
8.645000 -0.046891 0
8.650000 -0.039581 0
8.655000 -0.029937 0
8.660000 -0.017496 0
8.665000 -0.001859 0
8.670000 0.017237 0
8.675000 0.039835 0
8.680000 0.065684 0
8.685000 0.094181 0
8.690000 0.124345 0
8.695000 0.154842 0
8.700000 0.184064 0
8.705000 0.210257 0
8.710000 0.231688 0
8.715000 0.246837 0
8.720000 0.254571 1
8.725000 0.254283 0
8.730000 0.245971 0
8.735000 0.230240 0
8.740000 0.208228 0
8.745000 0.181468 0
8.750000 0.151710 0
8.755000 0.120717 0
8.760000 0.090038 0
8.765000 0.060707 0
8.770000 0.032780 0
8.775000 0.004692 0
8.780000 -0.027133 0
8.785000 -0.067329 0
8.790000 -0.118202 0
8.795000 -0.174557 0
8.800000 -0.220194 0
8.805000 -0.229592 2
8.810000 -0.174315 0
8.815000 -0.030678 0
8.820000 0.210873 0
8.825000 0.530700 0
8.830000 0.865148 0
8.835000 1.113820 0
8.840000 1.182880 3
8.845000 1.041571 0
8.850000 0.741359 0
8.855000 0.379801 0
8.860000 0.050073 0
8.865000 -0.191087 0
8.870000 -0.324904 0
8.875000 -0.359407 4
8.880000 -0.320241 0
8.885000 -0.242244 0
8.890000 -0.158044 0
8.895000 -0.087926 0
8.900000 -0.037378 0
8.905000 -0.002168 0
8.910000 0.024695 0
8.915000 0.048694 0
8.920000 0.072831 0
8.925000 0.098295 0
8.930000 0.125334 0
8.935000 0.153779 0
8.940000 0.183272 0
8.945000 0.213346 0
8.950000 0.243455 0
8.955000 0.272989 0
8.960000 0.301298 0
8.965000 0.327708 0
8.970000 0.351554 0
8.975000 0.372202 0
8.980000 0.389077 0
8.985000 0.401693 0
8.990000 0.409670 0
8.995000 0.412757 5
9.000000 0.410841 0
9.005000 0.403956 0
9.010000 0.392278 0
9.015000 0.376124 0
9.020000 0.355927 0
9.025000 0.332225 0
9.030000 0.305635 0
9.035000 0.276820 0
9.040000 0.246471 0
9.045000 0.215270 0
9.050000 0.183874 0
9.055000 0.152885 0
9.060000 0.122838 0
9.065000 0.094186 0
9.070000 0.067294 0
9.075000 0.042433 0
9.080000 0.019785 0
9.085000 -0.000551 0
9.090000 -0.018553 0
9.095000 -0.034266 0
9.100000 -0.047784 0
9.105000 -0.059245 0
9.110000 -0.068816 0
9.115000 -0.076680 0
9.120000 -0.083030 0
9.125000 -0.088056 0
9.130000 -0.091945 0
9.135000 -0.094870 0
9.140000 -0.096989 0
9.145000 -0.098444 0
9.150000 -0.099360 0
9.155000 -0.099844 0
9.160000 -0.099120 0
9.165000 -0.098196 0
9.170000 -0.097277 0
9.175000 -0.096362 0
9.180000 -0.095452 0
9.185000 -0.094547 0
9.190000 -0.093645 0
9.195000 -0.092748 0
9.200000 -0.091855 0
9.205000 -0.090964 0
9.210000 -0.090075 0
9.215000 -0.089184 0
9.220000 -0.088287 0
9.225000 -0.087374 0
9.230000 -0.086430 0
9.235000 -0.085430 0
9.240000 -0.084333 0
9.245000 -0.083079 0
9.250000 -0.081574 0
9.255000 -0.079686 0
9.260000 -0.077229 0
9.265000 -0.073961 0
9.270000 -0.069569 0
9.275000 -0.063676 0
9.280000 -0.055852 0
9.285000 -0.045640 0
9.290000 -0.032594 0
9.295000 -0.016344 0
9.300000 0.003337 0
9.305000 0.026456 0
9.310000 0.052728 0
9.315000 0.081522 0
9.320000 0.111849 0
9.325000 0.142386 0
9.330000 0.171552 0
9.335000 0.197638 0
9.340000 0.218964 0
9.345000 0.234061 0
9.350000 0.241834 1
9.355000 0.241696 0
9.360000 0.233639 0
9.365000 0.218237 0
9.370000 0.196581 0
9.375000 0.170147 0
9.380000 0.140629 0
9.385000 0.109748 0
9.390000 0.079043 0
9.395000 0.049593 0
9.400000 0.021601 0
9.405000 -0.006203 0
9.410000 -0.037018 0
9.415000 -0.075349 0
9.420000 -0.124201 0
9.425000 -0.180308 0
9.430000 -0.230165 0
9.435000 -0.250499 2
9.440000 -0.213631 0
9.445000 -0.094655 0
9.450000 0.120493 0
9.455000 0.422297 0
9.460000 0.761901 0
9.465000 1.049462 0
9.470000 1.185344 3
9.475000 1.115954 0
9.480000 0.864181 0
9.485000 0.513684 0
9.490000 0.162159 0
9.495000 -0.119594 0
9.500000 -0.299320 0
9.505000 -0.375103 4
9.510000 -0.365269 0
9.515000 -0.300844 0
9.520000 -0.216055 0
9.525000 -0.137275 0
9.530000 -0.076721 0
9.535000 -0.034212 0
9.540000 -0.003606 0
9.545000 0.021524 0
9.550000 0.045408 0
9.555000 0.070088 0
9.560000 0.096251 0
9.565000 0.123929 0
9.570000 0.152873 0
9.575000 0.182690 0
9.580000 0.212897 0
9.585000 0.242938 0
9.590000 0.272208 0
9.595000 0.300064 0
9.600000 0.325852 0
9.605000 0.348932 0
9.610000 0.368700 0
9.615000 0.384619 0
9.620000 0.396240 0
9.625000 0.403221 0
9.630000 0.405347 5
9.635000 0.402536 0
9.640000 0.394849 0
9.645000 0.382481 0
9.650000 0.365757 0
9.655000 0.345117 0
9.660000 0.321094 0
9.665000 0.294293 0
9.670000 0.265364 0
9.675000 0.234978 0
9.680000 0.203797 0
9.685000 0.172456 0
9.690000 0.141539 0
9.695000 0.111562 0
9.700000 0.082964 0
9.705000 0.056100 0
9.710000 0.031235 0
9.715000 0.008548 0
9.720000 -0.011862 0
9.725000 -0.029970 0
9.730000 -0.045815 0
9.735000 -0.059485 0
9.740000 -0.071111 0
9.745000 -0.080852 0
9.750000 -0.088885 0
9.755000 -0.095396 0
9.760000 -0.100571 0
9.765000 -0.104594 0
9.770000 -0.107633 0
9.775000 -0.109848 0
9.780000 -0.111378 0
9.785000 -0.112350 0
9.790000 -0.112871 0
9.795000 -0.112097 0
9.800000 -0.111109 0
9.805000 -0.110125 0
9.810000 -0.109146 0
9.815000 -0.108173 0
9.820000 -0.107204 0
9.825000 -0.106239 0
9.830000 -0.105279 0
9.835000 -0.104324 0
9.840000 -0.103372 0
9.845000 -0.102422 0
9.850000 -0.101473 0
9.855000 -0.100520 0
9.860000 -0.099557 0
9.865000 -0.098571 0
9.870000 -0.097545 0
9.875000 -0.096445 0
9.880000 -0.095225 0
9.885000 -0.093810 0
9.890000 -0.092095 0
9.895000 -0.089927 0
9.900000 -0.087105 0
9.905000 -0.083363 0
9.910000 -0.078372 0
9.915000 -0.071744 0
9.920000 -0.063047 0
9.925000 -0.051834 0
9.930000 -0.037693 0
9.935000 -0.020300 0
9.940000 0.000502 0
9.945000 0.024640 0
9.950000 0.051741 0
9.955000 0.081097 0
9.960000 0.111654 0
9.965000 0.142056 0
9.970000 0.170723 0
9.975000 0.195988 0
9.980000 0.216246 0
9.985000 0.230129 0
9.990000 0.236653 1
9.995000 0.235338 0
10.000000 0.226264 0
10.005000 0.210062 0
10.010000 0.187847 0
10.015000 0.161083 0
10.020000 0.131429 0
10.025000 0.100551 0
10.030000 0.069925 0
10.035000 0.040570 0
10.040000 0.012644 0
10.045000 -0.015120 0
10.050000 -0.045843 0
10.055000 -0.083908 0
10.060000 -0.132332 0
10.065000 -0.188262 0
10.070000 -0.239122 0
10.075000 -0.262787 2
10.080000 -0.232433 0
10.085000 -0.123290 0
10.090000 0.079966 0
10.095000 0.371826 0
10.100000 0.710744 0
10.105000 1.014316 0
10.110000 1.183707 3
10.115000 1.149260 0
10.120000 0.918792 0
10.125000 0.574228 0
10.130000 0.219763 0
10.135000 -0.066512 0
10.140000 -0.248436 0
10.145000 -0.323394 4
10.150000 -0.310958 0
10.155000 -0.244317 0
10.160000 -0.159455 0
10.165000 -0.082941 0
10.170000 -0.025761 0
10.175000 0.013737 0
10.180000 0.042454 0
10.185000 0.066782 0
10.190000 0.090570 0
10.195000 0.115492 0
10.200000 0.142004 0
10.205000 0.170012 0
10.210000 0.199185 0
10.215000 0.229065 0
10.220000 0.259104 0
10.225000 0.288688 0
10.230000 0.317150 0
10.235000 0.343800 0
10.240000 0.367948 0
10.245000 0.388936 0
10.250000 0.406161 0
10.255000 0.419111 0
10.260000 0.427382 0
10.265000 0.430704 5
10.270000 0.428952 0
10.275000 0.422151 0
10.280000 0.410478 0
10.285000 0.394256 0
10.290000 0.373930 0
10.295000 0.350057 0
10.300000 0.323270 0
10.305000 0.294258 0
10.310000 0.263730 0
10.315000 0.232389 0
10.320000 0.200907 0
10.325000 0.169899 0
10.330000 0.139907 0
10.335000 0.111385 0
10.340000 0.084697 0
10.345000 0.060106 0
10.350000 0.037785 0
10.355000 0.017820 0
10.360000 0.000218 0
10.365000 -0.015078 0
10.370000 -0.028177 0
10.375000 -0.039231 0
10.380000 -0.048416 0
10.385000 -0.055924 0
10.390000 -0.061954 0
10.395000 -0.066703 0
10.400000 -0.070356 0
10.405000 -0.073089 0
10.410000 -0.075058 0
10.415000 -0.076403 0
10.420000 -0.077245 0
10.425000 -0.077505 0
10.430000 -0.076689 0
10.435000 -0.075877 0
10.440000 -0.075069 0
10.445000 -0.074265 0
10.450000 -0.073465 0
10.455000 -0.072669 0
10.460000 -0.071877 0
10.465000 -0.071088 0
10.470000 -0.070302 0
10.475000 -0.069517 0
10.480000 -0.068732 0
10.485000 -0.067942 0
10.490000 -0.067139 0
10.495000 -0.066312 0
10.500000 -0.065437 0
10.505000 -0.064481 0
10.510000 -0.063387 0
10.515000 -0.062072 0
10.520000 -0.060413 0
10.525000 -0.058236 0
10.530000 -0.055307 0
10.535000 -0.051325 0
10.540000 -0.045916 0
10.545000 -0.038650 0
10.550000 -0.029055 0
10.555000 -0.016669 0
10.560000 -0.001088 0
10.565000 0.017953 0
10.570000 0.040501 0
10.575000 0.066309 0
10.580000 0.094776 0
10.585000 0.124925 0
10.590000 0.155422 0
10.595000 0.184657 0
10.600000 0.210872 0
10.605000 0.232333 0
10.610000 0.247513 0
10.615000 0.255274 1
10.620000 0.255006 0
10.625000 0.246706 0
10.630000 0.230977 0
10.635000 0.208961 0
10.640000 0.182192 0
10.645000 0.152426 0
10.650000 0.121428 0
10.655000 0.090748 0
10.660000 0.061422 0
10.665000 0.033497 0
10.670000 0.005391 0
10.675000 -0.026489 0
10.680000 -0.066788 0
10.685000 -0.117766 0
10.690000 -0.174116 0
10.695000 -0.219476 0
10.700000 -0.228194 2
10.705000 -0.171789 0
10.710000 -0.026659 0
10.715000 0.216446 0
10.720000 0.537209 0
10.725000 0.871036 0
10.730000 1.116961 0
10.735000 1.181696 3
10.740000 1.036902 0
10.745000 0.734457 0
10.750000 0.372709 0
10.755000 0.044619 0
10.760000 -0.193840 0
10.765000 -0.324661 0
10.770000 -0.356508 4
10.775000 -0.315541 0
10.780000 -0.236856 0
10.785000 -0.152922 0
10.790000 -0.083550 0
10.795000 -0.033754 0
10.800000 0.000951 0
10.805000 0.027580 0
10.810000 0.051528 0
10.815000 0.075704 0
10.820000 0.101240 0
10.825000 0.128352 0
10.830000 0.156857 0
10.835000 0.186389 0
10.840000 0.216474 0
10.845000 0.246560 0
10.850000 0.276030 0
10.855000 0.304230 0
10.860000 0.330483 0
10.865000 0.354122 0
10.870000 0.374514 0
10.875000 0.391088 0
10.880000 0.403361 0
10.885000 0.410962 0
10.890000 0.413649 5
10.895000 0.411320 0
10.900000 0.404021 0
10.905000 0.391942 0
10.910000 0.375409 0
10.915000 0.354870 0
10.920000 0.330872 0
10.925000 0.304038 0
10.930000 0.275042 0
10.935000 0.244573 0
10.940000 0.213319 0
10.945000 0.181931 0
10.950000 0.151010 0
10.955000 0.121085 0
10.960000 0.092600 0
10.965000 0.065913 0
10.970000 0.041285 0
10.975000 0.018891 0
10.980000 -0.001181 0
10.985000 -0.018917 0
10.990000 -0.034367 0
10.995000 -0.047633 0
11.000000 -0.058858 0
11.005000 -0.068211 0
11.010000 -0.075877 0
11.015000 -0.082052 0
11.020000 -0.086925 0
11.025000 -0.090683 0
11.030000 -0.093497 0
11.035000 -0.095524 0
11.040000 -0.096905 0
11.045000 -0.097761 0
11.050000 -0.098001 0
11.055000 -0.097083 0
11.060000 -0.096170 0
11.065000 -0.095260 0
11.070000 -0.094356 0
11.075000 -0.093456 0
11.080000 -0.092560 0
11.085000 -0.091669 0
11.090000 -0.090781 0
11.095000 -0.089897 0
11.100000 -0.089016 0
11.105000 -0.088136 0
11.110000 -0.087253 0
11.115000 -0.086363 0
11.120000 -0.085455 0
11.125000 -0.084512 0
11.130000 -0.083507 0
11.135000 -0.082396 0
11.140000 -0.081113 0
11.145000 -0.079557 0
11.150000 -0.077587 0
11.155000 -0.075007 0
11.160000 -0.071558 0
11.165000 -0.066917 0
11.170000 -0.060692 0
11.175000 -0.052444 0
11.180000 -0.041710 0
11.185000 -0.028056 0
11.190000 -0.011130 0
11.195000 0.009256 0
11.200000 0.033053 0
11.205000 0.059908 0
11.210000 0.089114 0
11.215000 0.119600 0
11.220000 0.149977 0
11.225000 0.178615 0
11.230000 0.203792 0
11.235000 0.223852 0
11.240000 0.237388 0
11.245000 0.243406 1
11.250000 0.241443 0
11.255000 0.231626 0
11.260000 0.214660 0
11.265000 0.191741 0
11.270000 0.164419 0
11.275000 0.134419 0
11.280000 0.103448 0
11.285000 0.072966 0
11.290000 0.043892 0
11.295000 0.016127 0
11.300000 -0.012058 0
11.305000 -0.044327 0
11.310000 -0.085189 0
11.315000 -0.136560 0
11.320000 -0.192801 0
11.325000 -0.237571 0
11.330000 -0.245709 2
11.335000 -0.189452 0
11.340000 -0.045755 0
11.345000 0.194751 0
11.350000 0.513375 0
11.355000 0.849023 0
11.360000 1.104281 0
11.365000 1.185740 3
11.370000 1.060051 0
11.375000 0.770954 0
11.380000 0.411027 0
11.385000 0.073297 0
11.390000 -0.182221 0
11.395000 -0.332783 0
11.400000 -0.382827 4
11.405000 -0.354823 0
11.410000 -0.281673 0
11.415000 -0.196432 0
11.420000 -0.121908 0
11.425000 -0.066524 0
11.430000 -0.027839 0
11.435000 0.000786 0
11.440000 0.025293 0
11.445000 0.049271 0
11.450000 0.074318 0
11.455000 0.100897 0
11.460000 0.128945 0
11.465000 0.158166 0
11.470000 0.188142 0
11.475000 0.218373 0
11.480000 0.248290 0
11.485000 0.277275 0
11.490000 0.304684 0
11.495000 0.329866 0
11.500000 0.352187 0
11.505000 0.371061 0
11.510000 0.385970 0
11.515000 0.396491 0
11.520000 0.402313 0
11.525000 0.403253 5
11.530000 0.399263 0
11.535000 0.390437 0
11.540000 0.377002 0
11.545000 0.359312 0
11.550000 0.337829 0
11.555000 0.313104 0
11.560000 0.285754 0
11.565000 0.256435 0
11.570000 0.225816 0
11.575000 0.194553 0
11.580000 0.163270 0
11.585000 0.132535 0
11.590000 0.102847 0
11.595000 0.074625 0
11.600000 0.048201 0
11.605000 0.023823 0
11.610000 0.001648 0
11.615000 -0.018240 0
11.620000 -0.035833 0
11.625000 -0.051180 0
11.630000 -0.064380 0
11.635000 -0.075572 0
11.640000 -0.084917 0
11.645000 -0.092596 0
11.650000 -0.098795 0
11.655000 -0.103700 0
11.660000 -0.107490 0
11.665000 -0.110332 0
11.670000 -0.112382 0
11.675000 -0.113776 0
11.680000 -0.114635 0
11.685000 -0.115064 0
11.690000 -0.114268 0
11.695000 -0.113269 0
11.700000 -0.112274 0
11.705000 -0.111285 0
11.710000 -0.110300 0
11.715000 -0.109320 0
11.720000 -0.108346 0
11.725000 -0.107375 0
11.730000 -0.106409 0
11.735000 -0.105446 0
11.740000 -0.104486 0
11.745000 -0.103525 0
11.750000 -0.102559 0
11.755000 -0.101582 0
11.760000 -0.100580 0
11.765000 -0.099531 0
11.770000 -0.098403 0
11.775000 -0.097142 0
11.780000 -0.095670 0
11.785000 -0.093874 0
11.790000 -0.091594 0
11.795000 -0.088617 0
11.800000 -0.084667 0
11.805000 -0.079405 0
11.810000 -0.072433 0
11.815000 -0.063315 0
11.820000 -0.051610 0
11.825000 -0.036914 0
11.830000 -0.018930 0
11.835000 0.002465 0
11.840000 0.027150 0
11.845000 0.054701 0
11.850000 0.084349 0
11.855000 0.114991 0
11.860000 0.145228 0
11.865000 0.173461 0
11.870000 0.198023 0
11.875000 0.217343 0
11.880000 0.230106 0
11.885000 0.235406 1
11.890000 0.232851 0
11.895000 0.222608 0
11.900000 0.205392 0
11.905000 0.182377 0
11.910000 0.155067 0
11.915000 0.125129 0
11.920000 0.094210 0
11.925000 0.063734 0
11.930000 0.034618 0
11.935000 0.006848 0
11.940000 -0.021102 0
11.945000 -0.052604 0
11.950000 -0.092054 0
11.955000 -0.141917 0
11.960000 -0.198134 0
11.965000 -0.246669 0
11.970000 -0.264410 2
11.975000 -0.224472 0
11.980000 -0.102966 0
11.985000 0.113355 0
11.990000 0.414970 0
11.995000 0.754710 0
12.000000 1.045986 0
12.005000 1.191501 3
12.010000 1.129953 0
12.015000 0.879776 0
12.020000 0.528554 0
12.025000 0.179000 0
12.030000 -0.095974 0
12.035000 -0.264978 0
12.040000 -0.328512 4
12.045000 -0.308076 0
12.050000 -0.237674 0
12.055000 -0.152679 0
12.060000 -0.077987 0
12.065000 -0.022907 0
12.070000 0.015128 0
12.075000 0.043149 0
12.080000 0.067301 0
12.085000 0.091162 0
12.090000 0.116240 0
12.095000 0.142911 0
12.100000 0.171053 0
12.105000 0.200318 0
12.110000 0.230244 0
12.115000 0.260276 0
12.120000 0.289797 0
12.125000 0.318140 0
12.130000 0.344617 0
12.135000 0.368542 0
12.140000 0.389261 0
12.145000 0.406181 0
12.150000 0.418799 0
12.155000 0.426722 0
12.160000 0.429691 5
12.165000 0.427591 0
12.170000 0.420460 0
12.175000 0.408483 0
12.180000 0.391990 0
12.185000 0.371433 0
12.190000 0.347372 0
12.195000 0.320442 0
12.200000 0.291332 0
12.205000 0.260748 0
12.210000 0.229390 0
12.215000 0.197925 0
12.220000 0.166961 0
12.225000 0.137036 0
12.230000 0.108599 0
12.235000 0.082004 0
12.240000 0.057513 0
12.245000 0.035293 0
12.250000 0.015426 0
12.255000 -0.002082 0
12.260000 -0.017292 0
12.265000 -0.030314 0
12.270000 -0.041299 0
12.275000 -0.050423 0
12.280000 -0.057880 0
12.285000 -0.063867 0
12.290000 -0.068579 0
12.295000 -0.072202 0
12.300000 -0.074910 0
12.305000 -0.076858 0
12.310000 -0.078185 0
12.315000 -0.079012 0
12.320000 -0.079259 0
12.325000 -0.078434 0
12.330000 -0.077614 0
12.335000 -0.076797 0
12.340000 -0.075985 0
12.345000 -0.075176 0
12.350000 -0.074372 0
12.355000 -0.073571 0
12.360000 -0.072773 0
12.365000 -0.071979 0
12.370000 -0.071186 0
12.375000 -0.070392 0
12.380000 -0.069594 0
12.385000 -0.068783 0
12.390000 -0.067948 0
12.395000 -0.067067 0
12.400000 -0.066104 0
12.405000 -0.065006 0
12.410000 -0.063688 0
12.415000 -0.062030 0
12.420000 -0.059861 0
12.425000 -0.056948 0
12.430000 -0.052993 0
12.435000 -0.047626 0
12.440000 -0.040418 0
12.445000 -0.030903 0
12.450000 -0.018616 0
12.455000 -0.003154 0
12.460000 0.015755 0
12.465000 0.038168 0
12.470000 0.063852 0
12.475000 0.092225 0
12.480000 0.122328 0
12.485000 0.152849 0
12.490000 0.182194 0
12.495000 0.208617 0
12.500000 0.230382 0
12.505000 0.245952 0
12.510000 0.254168 0
12.515000 0.254389 1
12.520000 0.246574 0
12.525000 0.231291 0
12.530000 0.209645 0
12.535000 0.183146 0
12.540000 0.153533 0
12.545000 0.122572 0
12.550000 0.091832 0
12.555000 0.062393 0
12.560000 0.034398 0
12.565000 0.006418 0
12.570000 -0.024983 0
12.575000 -0.064438 0
12.580000 -0.114582 0
12.585000 -0.170945 0
12.590000 -0.218182 0
12.595000 -0.231326 2
12.600000 -0.181939 0
12.605000 -0.045729 0
12.610000 0.188391 0
12.615000 0.503736 0
12.620000 0.840408 0
12.625000 1.099945 0
12.630000 1.185929 3
12.635000 1.061507 0
12.640000 0.770956 0
12.645000 0.410510 0
12.650000 0.075906 0
12.655000 -0.172621 0
12.660000 -0.313765 0
12.665000 -0.354102 4
12.670000 -0.318526 0
12.675000 -0.241844 0
12.680000 -0.157352 0
12.685000 -0.086296 0
12.690000 -0.034886 0
12.695000 0.000833 0
12.700000 0.027892 0
12.705000 0.051910 0
12.710000 0.075995 0
12.715000 0.101393 0
12.720000 0.128372 0
12.725000 0.156768 0
12.730000 0.186226 0
12.735000 0.216278 0
12.740000 0.246373 0
12.745000 0.275900 0
12.750000 0.304203 0
12.755000 0.330605 0
12.760000 0.354435 0
12.765000 0.375055 0
12.770000 0.391888 0
12.775000 0.404442 0
12.780000 0.412339 0
12.785000 0.415325 5
12.790000 0.413291 0
12.795000 0.406273 0
12.800000 0.394454 0
12.805000 0.378152 0
12.810000 0.357811 0
12.815000 0.333974 0
12.820000 0.307264 0
12.825000 0.278351 0
12.830000 0.247930 0
12.835000 0.216689 0
12.840000 0.185285 0
12.845000 0.154321 0
12.850000 0.124332 0
12.855000 0.095768 0
12.860000 0.068991 0
12.865000 0.044267 0
12.870000 0.021774 0
12.875000 0.001605 0
12.880000 -0.016224 0
12.885000 -0.031762 0
12.890000 -0.045109 0
12.895000 -0.056406 0
12.900000 -0.065824 0
12.905000 -0.073547 0
12.910000 -0.079771 0
12.915000 -0.084687 0
12.920000 -0.088480 0
12.925000 -0.091325 0
12.930000 -0.093379 0
12.935000 -0.094782 0
12.940000 -0.095658 0
12.945000 -0.095914 0
12.950000 -0.095007 0
12.955000 -0.094103 0
12.960000 -0.093204 0
12.965000 -0.092310 0
12.970000 -0.091420 0
12.975000 -0.090535 0
12.980000 -0.089653 0
12.985000 -0.088776 0
12.990000 -0.087902 0
12.995000 -0.087031 0
13.000000 -0.086160 0
13.005000 -0.085288 0
13.010000 -0.084407 0
13.015000 -0.083509 0
13.020000 -0.082575 0
13.025000 -0.081580 0
13.030000 -0.080478 0
13.035000 -0.079202 0
13.040000 -0.077653 0
13.045000 -0.075688 0
13.050000 -0.073109 0
13.055000 -0.069658 0
13.060000 -0.065006 0
13.065000 -0.058764 0
13.070000 -0.050487 0
13.075000 -0.039714 0
13.080000 -0.026009 0
13.085000 -0.009022 0
13.090000 0.011431 0
13.095000 0.035297 0
13.100000 0.062212 0
13.105000 0.091458 0
13.110000 0.121953 0
13.115000 0.152296 0
13.120000 0.180848 0
13.125000 0.205881 0
13.130000 0.225740 0
13.135000 0.239026 0
13.140000 0.244758 1
13.145000 0.242492 0
13.150000 0.232379 0
13.155000 0.215144 0
13.160000 0.192005 0
13.165000 0.164527 0
13.170000 0.134444 0
13.175000 0.103459 0
13.180000 0.073021 0
13.185000 0.044015 0
13.190000 0.016278 0
13.195000 -0.012019 0
13.200000 -0.044636 0
13.205000 -0.086065 0
13.210000 -0.137948 0
13.215000 -0.194086 0
13.220000 -0.237495 0
13.225000 -0.242602 2
13.230000 -0.181647 0
13.235000 -0.032056 0
13.240000 0.214305 0
13.245000 0.536345 0
13.250000 0.869923 0
13.255000 1.116051 0
13.260000 1.183386 3
13.265000 1.043804 0
13.270000 0.746138 0
13.275000 0.384953 0
13.280000 0.051871 0
13.285000 -0.195903 0
13.290000 -0.338074 0
13.295000 -0.380803 4
13.300000 -0.347777 0
13.305000 -0.272440 0
13.310000 -0.187436 0
13.315000 -0.114453 0
13.320000 -0.060764 0
13.325000 -0.023281 0
13.330000 0.004743 0
13.335000 0.029078 0
13.340000 0.053105 0
13.345000 0.078285 0
13.350000 0.105009 0
13.355000 0.133182 0
13.360000 0.162494 0
13.365000 0.192515 0
13.370000 0.222734 0
13.375000 0.252576 0
13.380000 0.281417 0
13.385000 0.308609 0
13.390000 0.333499 0
13.395000 0.355456 0
13.400000 0.373898 0
13.405000 0.388315 0
13.410000 0.398295 0
13.415000 0.403540 0
13.420000 0.403882 5
13.425000 0.399291 0
13.430000 0.389877 0
13.435000 0.375885 0
13.440000 0.357682 0
13.445000 0.335746 0
13.450000 0.310640 0
13.455000 0.282989 0
13.460000 0.253453 0
13.465000 0.222704 0
13.470000 0.191398 0
13.475000 0.160152 0
13.480000 0.129529 0
13.485000 0.100017 0
13.490000 0.072027 0
13.495000 0.045878 0
13.500000 0.021806 0
13.505000 -0.000042 0
13.510000 -0.019595 0
13.515000 -0.036853 0
13.520000 -0.051874 0
13.525000 -0.064764 0
13.530000 -0.075665 0
13.535000 -0.084745 0
13.540000 -0.092185 0
13.545000 -0.098172 0
13.550000 -0.102892 0
13.555000 -0.106524 0
13.560000 -0.109233 0
13.565000 -0.111172 0
13.570000 -0.112476 0
13.575000 -0.113263 0
13.580000 -0.113436 0
13.585000 -0.112441 0
13.590000 -0.111450 0
13.595000 -0.110465 0
13.600000 -0.109485 0
13.605000 -0.108509 0
13.610000 -0.107538 0
13.615000 -0.106572 0
13.620000 -0.105610 0
13.625000 -0.104653 0
13.630000 -0.103698 0
13.635000 -0.102746 0
13.640000 -0.101792 0
13.645000 -0.100833 0
13.650000 -0.099860 0
13.655000 -0.098858 0
13.660000 -0.097805 0
13.665000 -0.096662 0
13.670000 -0.095375 0
13.675000 -0.093856 0
13.680000 -0.091983 0
13.685000 -0.089588 0
13.690000 -0.086442 0
13.695000 -0.082257 0
13.700000 -0.076679 0
13.705000 -0.069300 0
13.710000 -0.059677 0
13.715000 -0.047371 0
13.720000 -0.031994 0
13.725000 -0.013281 0
13.730000 0.008846 0
13.735000 0.034204 0
13.740000 0.062291 0
13.745000 0.092263 0
13.750000 0.122939 0
13.755000 0.152862 0
13.760000 0.180399 0
13.765000 0.203886 0
13.770000 0.221791 0
13.775000 0.232877 0
13.780000 0.236349 1
13.785000 0.231940 0
13.790000 0.219955 0
13.795000 0.201228 0
13.800000 0.177030 0
13.805000 0.148923 0
13.810000 0.118595 0
13.815000 0.087662 0
13.820000 0.057458 0
13.825000 0.028721 0
13.830000 0.001114 0
13.835000 -0.027350 0
13.840000 -0.060462 0
13.845000 -0.102513 0
13.850000 -0.154760 0
13.855000 -0.210765 0
13.860000 -0.253804 0
13.865000 -0.259083 2
13.870000 -0.199762 0
13.875000 -0.053830 0
13.880000 0.187391 0
13.885000 0.505616 0
13.890000 0.842059 0
13.895000 1.102776 0
13.900000 1.195866 3
13.905000 1.079128 0
13.910000 0.792306 0
13.915000 0.432272 0
13.920000 0.096777 0
13.925000 -0.152377 0
13.930000 -0.293317 0
13.935000 -0.332769 4
13.940000 -0.296184 0
13.945000 -0.219002 0
13.950000 -0.134830 0
13.955000 -0.064705 0
13.960000 -0.014357 0
13.965000 0.020554 0
13.970000 0.047169 0
13.975000 0.071027 0
13.980000 0.095110 0
13.985000 0.120570 0
13.990000 0.147622 0
13.995000 0.176074 0
14.000000 0.205548 0
14.005000 0.235559 0
14.010000 0.265538 0
14.015000 0.294857 0
14.020000 0.322843 0
14.025000 0.348808 0
14.030000 0.372074 0
14.035000 0.392000 0
14.040000 0.408012 0
14.045000 0.419631 0
14.050000 0.426494 0
14.055000 0.428372 5
14.060000 0.425185 0
14.065000 0.417001 0
14.070000 0.404039 0
14.075000 0.386652 0
14.080000 0.365319 0
14.085000 0.340613 0
14.090000 0.313183 0
14.095000 0.283720 0
14.100000 0.252930 0
14.105000 0.221506 0
14.110000 0.190102 0
14.115000 0.159313 0
14.120000 0.129657 0
14.125000 0.101563 0
14.130000 0.075367 0
14.135000 0.051312 0
14.140000 0.029547 0
14.145000 0.010137 0
14.150000 -0.006924 0
14.155000 -0.021707 0
14.160000 -0.034331 0
14.165000 -0.044952 0
14.170000 -0.053750 0
14.175000 -0.060919 0
14.180000 -0.066654 0
14.185000 -0.071151 0
14.190000 -0.074592 0
14.195000 -0.077148 0
14.200000 -0.078970 0
14.205000 -0.080195 0
14.210000 -0.080938 0
14.215000 -0.080333 0
14.220000 -0.079503 0
14.225000 -0.078677 0
14.230000 -0.077855 0
14.235000 -0.077037 0
14.240000 -0.076223 0
14.245000 -0.075413 0
14.250000 -0.074607 0
14.255000 -0.073804 0
14.260000 -0.073004 0
14.265000 -0.072206 0
14.270000 -0.071406 0
14.275000 -0.070601 0
14.280000 -0.069782 0
14.285000 -0.068936 0
14.290000 -0.068040 0
14.295000 -0.067057 0
14.300000 -0.065928 0
14.305000 -0.064565 0
14.310000 -0.062843 0
14.315000 -0.060582 0
14.320000 -0.057542 0
14.325000 -0.053416 0
14.330000 -0.047827 0
14.335000 -0.040340 0
14.340000 -0.030488 0
14.345000 -0.017812 0
14.350000 -0.001923 0
14.355000 0.017428 0
14.360000 0.040265 0
14.365000 0.066318 0
14.370000 0.094959 0
14.375000 0.125190 0
14.380000 0.155664 0
14.385000 0.184768 0
14.390000 0.210751 0
14.395000 0.231897 0
14.400000 0.246707 0
14.405000 0.254078 1
14.410000 0.253432 0
14.415000 0.244794 0
14.420000 0.228792 0
14.425000 0.206576 0
14.430000 0.179684 0
14.435000 0.149863 0
14.440000 0.118863 0
14.445000 0.088215 0
14.450000 0.058930 0
14.455000 0.031031 0
14.460000 0.002915 0
14.465000 -0.029015 0
14.470000 -0.069371 0
14.475000 -0.120370 0
14.480000 -0.176712 0
14.485000 -0.222144 0
14.490000 -0.231207 2
14.495000 -0.175600 0
14.500000 -0.031782 0
14.505000 0.209726 0
14.510000 0.529408 0
14.515000 0.864042 0
14.520000 1.113787 0
14.525000 1.184943 3
14.530000 1.046435 0
14.535000 0.747614 0
14.540000 0.386166 0
14.545000 0.055906 0
14.550000 -0.185863 0
14.555000 -0.320086 0
14.560000 -0.354746 4
14.565000 -0.315570 0
14.570000 -0.237542 0
14.575000 -0.153400 0
14.580000 -0.083438 0
14.585000 -0.033078 0
14.590000 0.001980 0
14.595000 0.028756 0
14.600000 0.052722 0
14.605000 0.076858 0
14.610000 0.102336 0
14.615000 0.129391 0
14.620000 0.157849 0
14.625000 0.187347 0
14.630000 0.217414 0
14.635000 0.247498 0
14.640000 0.276988 0
14.645000 0.305227 0
14.650000 0.331539 0
14.655000 0.355258 0
14.660000 0.375747 0
14.665000 0.392434 0
14.670000 0.404833 0
14.675000 0.412568 0
14.680000 0.415395 5
14.685000 0.413206 0
14.690000 0.406043 0
14.695000 0.394092 0
14.700000 0.377676 0
14.705000 0.357238 0
14.710000 0.333324 0
14.715000 0.306555 0
14.720000 0.277603 0
14.725000 0.247159 0
14.730000 0.215910 0
14.735000 0.184509 0
14.740000 0.153558 0
14.745000 0.123589 0
14.750000 0.095050 0
14.755000 0.068299 0
14.760000 0.043602 0
14.765000 0.021134 0
14.770000 0.000988 0
14.775000 -0.016822 0
14.780000 -0.032343 0
14.785000 -0.045677 0
14.790000 -0.056964 0
14.795000 -0.066375 0
14.800000 -0.074094 0
14.805000 -0.080315 0
14.810000 -0.085230 0
14.815000 -0.089024 0
14.820000 -0.091869 0
14.825000 -0.093924 0
14.830000 -0.095328 0
14.835000 -0.096205 0
14.840000 -0.096462 0
14.845000 -0.095551 0
14.850000 -0.094645 0
14.855000 -0.093744 0
14.860000 -0.092847 0
14.865000 -0.091954 0
14.870000 -0.091066 0
14.875000 -0.090182 0
14.880000 -0.089302 0
14.885000 -0.088426 0
14.890000 -0.087552 0
14.895000 -0.086679 0
14.900000 -0.085804 0
14.905000 -0.084921 0
14.910000 -0.084021 0
14.915000 -0.083086 0
14.920000 -0.082091 0
14.925000 -0.080991 0
14.930000 -0.079720 0
14.935000 -0.078180 0
14.940000 -0.076230 0
14.945000 -0.073675 0
14.950000 -0.070260 0
14.955000 -0.065660 0
14.960000 -0.059487 0
14.965000 -0.051302 0
14.970000 -0.040644 0
14.975000 -0.027074 0
14.980000 -0.010240 0
14.985000 0.010052 0
14.990000 0.033762 0
14.995000 0.060542 0
15.000000 0.089694 0
15.005000 0.120158 0
15.010000 0.150549 0
15.015000 0.179244 0
15.020000 0.204519 0
15.025000 0.224714 0
15.030000 0.238415 0
15.035000 0.244616 1
15.040000 0.242839 0
15.045000 0.233198 0
15.050000 0.216383 0
15.055000 0.193582 0
15.060000 0.166339 0
15.065000 0.136376 0
15.070000 0.105403 0
15.075000 0.074890 0
15.080000 0.045773 0
15.085000 0.017984 0
15.090000 -0.010163 0
15.095000 -0.042291 0
15.100000 -0.082921 0
15.105000 -0.134082 0
15.110000 -0.190358 0
15.115000 -0.235652 0
15.120000 -0.244940 2
15.125000 -0.190434 0
15.130000 -0.048893 0
15.135000 0.189498 0
15.140000 0.506864 0
15.145000 0.843103 0
15.150000 1.101279 0
15.155000 1.187264 3
15.160000 1.065625 0
15.165000 0.778680 0
15.170000 0.419072 0
15.175000 0.080669 0
15.180000 -0.175698 0
15.185000 -0.326858 0
15.190000 -0.377149 4
15.195000 -0.349137 0
15.200000 -0.275920 0
15.205000 -0.190722 0
15.210000 -0.116394 0
15.215000 -0.061279 0
15.220000 -0.022828 0
15.225000 0.005650 0
15.230000 0.030095 0
15.235000 0.054066 0
15.240000 0.079133 0
15.245000 0.105740 0
15.250000 0.133814 0
15.255000 0.163052 0
15.260000 0.193030 0
15.265000 0.223241 0
15.270000 0.253111 0
15.275000 0.282017 0
15.280000 0.309310 0
15.285000 0.334333 0
15.290000 0.356454 0
15.295000 0.375083 0
15.300000 0.389707 0
15.305000 0.399905 0
15.310000 0.405373 0
15.315000 0.405936 5
15.320000 0.401558 0
15.325000 0.392341 0
15.330000 0.378526 0
15.335000 0.360477 0
15.340000 0.338669 0
15.345000 0.313662 0
15.350000 0.286082 0
15.355000 0.256591 0
15.360000 0.225862 0
15.365000 0.194553 0
15.370000 0.163286 0
15.375000 0.132625 0
15.380000 0.103066 0
15.385000 0.075019 0
15.390000 0.048810 0
15.395000 0.024675 0
15.400000 0.002765 0
15.405000 -0.016848 0
15.410000 -0.034161 0
15.415000 -0.049233 0
15.420000 -0.062169 0
15.425000 -0.073110 0
15.430000 -0.082225 0
15.435000 -0.089696 0
15.440000 -0.095709 0
15.445000 -0.100452 0
15.450000 -0.104104 0
15.455000 -0.106830 0
15.460000 -0.108785 0
15.465000 -0.110102 0
15.470000 -0.110902 0
15.475000 -0.111087 0
15.480000 -0.110103 0
15.485000 -0.109125 0
15.490000 -0.108151 0
15.495000 -0.107182 0
15.500000 -0.106218 0
15.505000 -0.105259 0
15.510000 -0.104304 0
15.515000 -0.103354 0
15.520000 -0.102407 0
15.525000 -0.101464 0
15.530000 -0.100523 0
15.535000 -0.099580 0
15.540000 -0.098631 0
15.545000 -0.097669 0
15.550000 -0.096677 0
15.555000 -0.095633 0
15.560000 -0.094498 0
15.565000 -0.093216 0
15.570000 -0.091700 0
15.575000 -0.089826 0
15.580000 -0.087422 0
15.585000 -0.084259 0
15.590000 -0.080044 0
15.595000 -0.074422 0
15.600000 -0.066980 0
15.605000 -0.057275 0
15.610000 -0.044866 0
15.615000 -0.029369 0
15.620000 -0.010523 0
15.625000 0.011740 0
15.630000 0.037223 0
15.635000 0.065409 0
15.640000 0.095434 0
15.645000 0.126101 0
15.650000 0.155935 0
15.655000 0.183295 0
15.660000 0.206514 0
15.665000 0.224067 0
15.670000 0.234736 0
15.675000 0.237748 1
15.680000 0.232872 0
15.685000 0.220443 0
15.690000 0.201330 0
15.695000 0.176828 0
15.700000 0.148519 0
15.705000 0.118095 0
15.710000 0.087166 0
15.715000 0.057041 0
15.720000 0.028402 0
15.725000 0.000814 0
15.730000 -0.027852 0
15.735000 -0.061506 0
15.740000 -0.104370 0
15.745000 -0.157276 0
15.750000 -0.213005 0
15.755000 -0.253994 0
15.760000 -0.254963 2
15.765000 -0.189133 0
15.770000 -0.035171 0
15.775000 0.213934 0
15.780000 0.536743 0
15.785000 0.870548 0
15.790000 1.119368 0
15.795000 1.193880 3
15.800000 1.058750 0
15.805000 0.760718 0
15.810000 0.399237 0
15.815000 0.069923 0
15.820000 -0.169316 0
15.825000 -0.299828 0
15.830000 -0.330525 4
15.835000 -0.288306 0
15.840000 -0.209072 0
15.845000 -0.125635 0
15.850000 -0.057495 0
15.855000 -0.009039 0
15.860000 0.024680 0
15.865000 0.050786 0
15.870000 0.074562 0
15.875000 0.098755 0
15.880000 0.124382 0
15.885000 0.151596 0
15.890000 0.180177 0
15.895000 0.209732 0
15.900000 0.239765 0
15.905000 0.269698 0
15.910000 0.298895 0
15.915000 0.326680 0
15.920000 0.352361 0
15.925000 0.375264 0
15.930000 0.394750 0
15.935000 0.410257 0
15.940000 0.421316 0
15.945000 0.427579 0
15.950000 0.428834 5
15.955000 0.425018 0
15.960000 0.416220 0
15.965000 0.402675 0
15.970000 0.384756 0
15.975000 0.362953 0
15.980000 0.337855 0
15.985000 0.310117 0
15.990000 0.280437 0
15.995000 0.249520 0
16.000000 0.218058 0
16.005000 0.186700 0
16.010000 0.156032 0
16.015000 0.126561 0
16.020000 0.098707 0
16.025000 0.072791 0
16.030000 0.049044 0
16.035000 0.027603 0
16.040000 0.008524 0
16.045000 -0.008211 0
16.050000 -0.022680 0
16.055000 -0.035009 0
16.060000 -0.045357 0
16.065000 -0.053908 0
16.070000 -0.060857 0
16.075000 -0.066401 0
16.080000 -0.070733 0
16.085000 -0.074035 0
16.090000 -0.076474 0
16.095000 -0.078201 0
16.100000 -0.079349 0
16.105000 -0.080032 0
16.110000 -0.079422 0
16.115000 -0.078596 0
16.120000 -0.077775 0
16.125000 -0.076957 0
16.130000 -0.076144 0
16.135000 -0.075335 0
16.140000 -0.074529 0
16.145000 -0.073728 0
16.150000 -0.072929 0
16.155000 -0.072133 0
16.160000 -0.071338 0
16.165000 -0.070542 0
16.170000 -0.069739 0
16.175000 -0.068920 0
16.180000 -0.068071 0
16.185000 -0.067166 0
16.190000 -0.066166 0
16.195000 -0.065007 0
16.200000 -0.063596 0
16.205000 -0.061796 0
16.210000 -0.059420 0
16.215000 -0.056214 0
16.220000 -0.051858 0
16.225000 -0.045962 0
16.230000 -0.038084 0
16.235000 -0.027752 0
16.240000 -0.014515 0
16.245000 0.001999 0
16.250000 0.022001 0
16.255000 0.045468 0
16.260000 0.072064 0
16.265000 0.101091 0
16.270000 0.131479 0
16.275000 0.161820 0
16.280000 0.190459 0
16.285000 0.215634 0
16.290000 0.235653 0
16.295000 0.249080 0
16.300000 0.254900 1
16.305000 0.252652 0
16.310000 0.242482 0
16.315000 0.225130 0
16.320000 0.201841 0
16.325000 0.174213 0
16.330000 0.144012 0
16.335000 0.112969 0
16.340000 0.082540 0
16.345000 0.053580 0
16.350000 0.025830 0
16.355000 -0.002725 0
16.360000 -0.036051 0
16.365000 -0.078636 0
16.370000 -0.131552 0
16.375000 -0.187316 0
16.380000 -0.227336 2
16.385000 -0.224867 0
16.390000 -0.151928 0
16.395000 0.012966 0
16.400000 0.274495 0
16.405000 0.604464 0
16.410000 0.929668 0
16.415000 1.146656 0
16.420000 1.170859 3
16.425000 0.989758 0
16.430000 0.667909 0
16.435000 0.306288 0
16.440000 -0.007954 0
16.445000 -0.226706 0
16.450000 -0.337858 0
16.455000 -0.353891 4
16.460000 -0.303278 0
16.465000 -0.221483 0
16.470000 -0.139174 0
16.475000 -0.073330 0
16.480000 -0.026719 0
16.485000 0.006051 0
16.490000 0.031887 0
16.495000 0.055728 0
16.500000 0.080095 0
16.505000 0.105903 0
16.510000 0.133274 0
16.515000 0.161984 0
16.520000 0.191645 0
16.525000 0.221770 0
16.530000 0.251795 0
16.535000 0.281099 0
16.540000 0.309022 0
16.545000 0.334890 0
16.550000 0.358040 0
16.555000 0.377848 0
16.560000 0.393759 0
16.565000 0.405306 0
16.570000 0.412139 0
16.575000 0.414038 5
16.580000 0.410923 0
16.585000 0.402865 0
16.590000 0.390074 0
16.595000 0.372895 0
16.600000 0.351792 0
16.605000 0.327324 0
16.610000 0.300122 0
16.615000 0.270862 0
16.620000 0.240234 0
16.625000 0.208920 0
16.630000 0.177563 0
16.635000 0.146754 0
16.640000 0.117008 0
16.645000 0.088758 0
16.650000 0.062346 0
16.655000 0.038021 0
16.660000 0.015944 0
16.665000 -0.003807 0
16.670000 -0.021228 0
16.675000 -0.036377 0
16.680000 -0.049361 0
16.685000 -0.060327 0
16.690000 -0.069447 0
16.695000 -0.076908 0
16.700000 -0.082903 0
16.705000 -0.087623 0
16.710000 -0.091251 0
16.715000 -0.093957 0
16.720000 -0.095896 0
16.725000 -0.097205 0
16.730000 -0.098004 0
16.735000 -0.098205 0
16.740000 -0.097286 0
16.745000 -0.096371 0
16.750000 -0.095461 0
16.755000 -0.094556 0
16.760000 -0.093654 0
16.765000 -0.092758 0
16.770000 -0.091865 0
16.775000 -0.090977 0
16.780000 -0.090092 0
16.785000 -0.089209 0
16.790000 -0.088328 0
16.795000 -0.087443 0
16.800000 -0.086550 0
16.805000 -0.085638 0
16.810000 -0.084688 0
16.815000 -0.083674 0
16.820000 -0.082547 0
16.825000 -0.081240 0
16.830000 -0.079649 0
16.835000 -0.077627 0
16.840000 -0.074974 0
16.845000 -0.071425 0
16.850000 -0.066650 0
16.855000 -0.060254 0
16.860000 -0.051793 0
16.865000 -0.040809 0
16.870000 -0.026871 0
16.875000 -0.009640 0
16.880000 0.011053 0
16.885000 0.035136 0
16.890000 0.062226 0
16.895000 0.091587 0
16.900000 0.122122 0
16.905000 0.152419 0
16.910000 0.180841 0
16.915000 0.205667 0
16.920000 0.225257 0
16.925000 0.238238 0
16.930000 0.243652 1
16.935000 0.241083 0
16.940000 0.230702 0
16.945000 0.213253 0
16.950000 0.189961 0
16.955000 0.162391 0
16.960000 0.132269 0
16.965000 0.101289 0
16.970000 0.070882 0
16.975000 0.041913 0
16.980000 0.014196 0
16.985000 -0.014122 0
16.990000 -0.046802 0
16.995000 -0.088311 0
17.000000 -0.140239 0
17.005000 -0.196362 0
17.010000 -0.239741 0
17.015000 -0.244923 2
17.020000 -0.184279 0
17.025000 -0.035308 0
17.030000 0.210227 0
17.035000 0.531687 0
17.040000 0.865763 0
17.045000 1.114198 0
17.050000 1.185481 3
17.055000 1.049796 0
17.060000 0.754421 0
17.065000 0.393515 0
17.070000 0.059200 0
17.075000 -0.190523 0
17.080000 -0.334727 0
17.085000 -0.379167 4
17.090000 -0.347273 0
17.095000 -0.272411 0
17.100000 -0.187353 0
17.105000 -0.114055 0
17.110000 -0.060036 0
17.115000 -0.022331 0
17.120000 0.005795 0
17.125000 0.030151 0
17.130000 0.054159 0
17.135000 0.079307 0
17.140000 0.105998 0
17.145000 0.134143 0
17.150000 0.163432 0
17.155000 0.193438 0
17.160000 0.223651 0
17.165000 0.253497 0
17.170000 0.282352 0
17.175000 0.309567 0
17.180000 0.334490 0
17.185000 0.356488 0
17.190000 0.374978 0
17.195000 0.389450 0
17.200000 0.399489 0
17.205000 0.404795 0
17.210000 0.405199 5
17.215000 0.400668 0
17.220000 0.391311 0
17.225000 0.377370 0
17.230000 0.359213 0
17.235000 0.337315 0
17.240000 0.312239 0
17.245000 0.284608 0
17.250000 0.255085 0
17.255000 0.224340 0
17.260000 0.193031 0
17.265000 0.161775 0
17.270000 0.131135 0
17.275000 0.101602 0
17.280000 0.073587 0
17.285000 0.047411 0
17.290000 0.023309 0
17.295000 0.001431 0
17.300000 -0.018151 0
17.305000 -0.035438 0
17.310000 -0.050486 0
17.315000 -0.063402 0
17.320000 -0.074327 0
17.325000 -0.083429 0
17.330000 -0.090889 0
17.335000 -0.096894 0
17.340000 -0.101630 0
17.345000 -0.105276 0
17.350000 -0.107999 0
17.355000 -0.109949 0
17.360000 -0.111263 0
17.365000 -0.112060 0
17.370000 -0.112241 0
17.375000 -0.111252 0
17.380000 -0.110268 0
17.385000 -0.109288 0
17.390000 -0.108314 0
17.395000 -0.107344 0
17.400000 -0.106379 0
17.405000 -0.105419 0
17.410000 -0.104463 0
17.415000 -0.103511 0
17.420000 -0.102562 0
17.425000 -0.101615 0
17.430000 -0.100667 0
17.435000 -0.099714 0
17.440000 -0.098746 0
17.445000 -0.097750 0
17.450000 -0.096703 0
17.455000 -0.095566 0
17.460000 -0.094284 0
17.465000 -0.092772 0
17.470000 -0.090906 0
17.475000 -0.088518 0
17.480000 -0.085380 0
17.485000 -0.081204 0
17.490000 -0.075635 0
17.495000 -0.068265 0
17.500000 -0.058653 0
17.505000 -0.046356 0
17.510000 -0.030991 0
17.515000 -0.012287 0
17.520000 0.009832 0
17.525000 0.035181 0
17.530000 0.063262 0
17.535000 0.093228 0
17.540000 0.123899 0
17.545000 0.153817 0
17.550000 0.181350 0
17.555000 0.204831 0
17.560000 0.222728 0
17.565000 0.233804 0
17.570000 0.237264 1
17.575000 0.232843 0
17.580000 0.220844 0
17.585000 0.202103 0
17.590000 0.177892 0
17.595000 0.149775 0
17.600000 0.119439 0
17.605000 0.088502 0
17.610000 0.058297 0
17.615000 0.029559 0
17.620000 0.001949 0
17.625000 -0.026527 0
17.630000 -0.059668 0
17.635000 -0.101760 0
17.640000 -0.154044 0
17.645000 -0.210042 0
17.650000 -0.252983 0
17.655000 -0.258042 2
17.660000 -0.198375 0
17.665000 -0.052000 0
17.670000 0.189674 0
17.675000 0.508176 0
17.680000 0.844479 0
17.685000 1.104484 0
17.690000 1.196418 3
17.695000 1.078222 0
17.700000 0.790228 0
17.705000 0.429975 0
17.710000 0.095352 0
17.715000 -0.152156 0
17.720000 -0.291131 0
17.725000 -0.328742 4
17.730000 -0.290849 0
17.735000 -0.213144 0
17.740000 -0.129169 0
17.745000 -0.059629 0
17.750000 -0.009882 0
17.755000 0.024618 0
17.760000 0.051039 0
17.765000 0.074852 0
17.770000 0.098963 0
17.775000 0.124476 0
17.780000 0.151584 0
17.785000 0.180080 0
17.790000 0.209581 0
17.795000 0.239592 0
17.800000 0.269540 0
17.805000 0.298790 0
17.810000 0.326666 0
17.815000 0.352476 0
17.820000 0.375540 0
17.825000 0.395217 0
17.830000 0.410938 0
17.835000 0.422228 0
17.840000 0.428730 0
17.845000 0.430226 5
17.850000 0.426645 0
17.855000 0.418068 0
17.860000 0.404724 0
17.865000 0.386982 0
17.870000 0.365329 0
17.875000 0.340349 0
17.880000 0.312699 0
17.885000 0.283074 0
17.890000 0.252185 0
17.895000 0.220724 0
17.900000 0.189344 0
17.905000 0.158635 0
17.910000 0.129109 0
17.915000 0.101188 0
17.920000 0.075199 0
17.925000 0.051376 0
17.930000 0.029858 0
17.935000 0.010705 0
17.940000 -0.006101 0
17.945000 -0.020635 0
17.950000 -0.033023 0
17.955000 -0.043424 0
17.960000 -0.052021 0
17.965000 -0.059010 0
17.970000 -0.064588 0
17.975000 -0.068949 0
17.980000 -0.072276 0
17.985000 -0.074737 0
17.990000 -0.076482 0
17.995000 -0.077646 0
18.000000 -0.078343 0
18.005000 -0.077742 0
18.010000 -0.076924 0
18.015000 -0.076111 0
18.020000 -0.075302 0
18.025000 -0.074497 0
18.030000 -0.073696 0
18.035000 -0.072899 0
18.040000 -0.072105 0
18.045000 -0.071315 0
18.050000 -0.070527 0
18.055000 -0.069740 0
18.060000 -0.068951 0
18.065000 -0.068156 0
18.070000 -0.067345 0
18.075000 -0.066504 0
18.080000 -0.065607 0
18.085000 -0.064613 0
18.090000 -0.063460 0
18.095000 -0.062054 0
18.100000 -0.060257 0
18.105000 -0.057880 0
18.110000 -0.054669 0
18.115000 -0.050301 0
18.120000 -0.044386 0
18.125000 -0.036479 0
18.130000 -0.026107 0
18.135000 -0.012818 0
18.140000 0.003756 0
18.145000 0.023826 0
18.150000 0.047361 0
18.155000 0.074016 0
18.160000 0.103085 0
18.165000 0.133485 0
18.170000 0.163796 0
18.175000 0.192356 0
18.180000 0.217398 0
18.185000 0.237231 0
18.190000 0.250425 0
18.195000 0.255980 1
18.200000 0.253452 0
18.205000 0.243009 0
18.210000 0.225413 0
18.215000 0.201927 0
18.220000 0.174161 0
18.225000 0.143889 0
18.230000 0.112840 0
18.235000 0.082456 0
18.240000 0.053558 0
18.245000 0.025823 0
18.250000 -0.002856 0
18.255000 -0.036529 0
18.260000 -0.079640 0
18.265000 -0.132965 0
18.270000 -0.188477 0
18.275000 -0.227013 2
18.280000 -0.221519 0
18.285000 -0.144096 0
18.290000 0.026192 0
18.295000 0.292686 0
18.300000 0.624773 0
18.305000 0.946592 0
18.310000 1.153965 0
18.315000 1.165139 3
18.320000 0.972624 0
18.325000 0.645051 0
18.330000 0.284263 0
18.335000 -0.024489 0
18.340000 -0.235703 0
18.345000 -0.339322 0
18.350000 -0.349289 4
18.355000 -0.295055 0
18.360000 -0.212273 0
18.365000 -0.130880 0
18.370000 -0.066677 0
18.375000 -0.021501 0
18.380000 0.010412 0
18.385000 0.035905 0
18.390000 0.059712 0
18.395000 0.084180 0
18.400000 0.110128 0
18.405000 0.137631 0
18.410000 0.166443 0
18.415000 0.196165 0
18.420000 0.226299 0
18.425000 0.256273 0
18.430000 0.285457 0
18.435000 0.313187 0
18.440000 0.338785 0
18.445000 0.361591 0
18.450000 0.380983 0
18.455000 0.396413 0
18.460000 0.407424 0
18.465000 0.413680 0
18.470000 0.414976 5
18.475000 0.411250 0
18.480000 0.402588 0
18.485000 0.389221 0
18.490000 0.371510 0
18.495000 0.349934 0
18.500000 0.325066 0
18.505000 0.297546 0
18.510000 0.268055 0
18.515000 0.237288 0
18.520000 0.205923 0
18.525000 0.174603 0
18.530000 0.143908 0
18.535000 0.114345 0
18.540000 0.086337 0
18.545000 0.060211 0
18.550000 0.036206 0
18.555000 0.014470 0
18.560000 -0.004931 0
18.565000 -0.022002 0
18.570000 -0.036811 0
18.575000 -0.049473 0
18.580000 -0.060138 0
18.585000 -0.068984 0
18.590000 -0.076199 0
18.595000 -0.081978 0
18.600000 -0.086511 0
18.605000 -0.089979 0
18.610000 -0.092551 0
18.615000 -0.094380 0
18.620000 -0.095600 0
18.625000 -0.096328 0
18.630000 -0.096484 0
18.635000 -0.095574 0
18.640000 -0.094668 0
18.645000 -0.093766 0
18.650000 -0.092869 0
18.655000 -0.091976 0
18.660000 -0.091088 0
18.665000 -0.090204 0
18.670000 -0.089323 0
18.675000 -0.088446 0
18.680000 -0.087571 0
18.685000 -0.086697 0
18.690000 -0.085818 0
18.695000 -0.084929 0
18.700000 -0.084018 0
18.705000 -0.083065 0
18.710000 -0.082039 0
18.715000 -0.080888 0
18.720000 -0.079537 0
18.725000 -0.077874 0
18.730000 -0.075741 0
18.735000 -0.072923 0
18.740000 -0.069141 0
18.745000 -0.064047 0
18.750000 -0.057233 0
18.755000 -0.048246 0
18.760000 -0.036629 0
18.765000 -0.021962 0
18.770000 -0.003941 0
18.775000 0.017558 0
18.780000 0.042393 0
18.785000 0.070099 0
18.790000 0.099849 0
18.795000 0.130462 0
18.800000 0.160454 0
18.805000 0.188147 0
18.810000 0.211819 0
18.815000 0.229872 0
18.820000 0.241018 0
18.825000 0.244425 1
18.830000 0.239820 0
18.835000 0.227528 0
18.840000 0.208430 0
18.845000 0.183858 0
18.850000 0.155445 0
18.855000 0.124934 0
18.860000 0.093979 0
18.865000 0.063901 0
18.870000 0.035342 0
18.875000 0.007722 0
18.880000 -0.021352 0
18.885000 -0.056064 0
18.890000 -0.100555 0
18.895000 -0.154731 0
18.900000 -0.209440 0
18.905000 -0.244817 2
18.910000 -0.233963 0
18.915000 -0.149857 0
18.920000 0.027107 0
18.925000 0.298562 0
18.930000 0.632259 0
18.935000 0.952062 0
18.940000 1.155723 0
18.945000 1.164320 3
18.950000 0.972371 0
18.955000 0.646561 0
18.960000 0.285162 0
18.965000 -0.028253 0
18.970000 -0.247564 0
18.975000 -0.360937 0
18.980000 -0.380050 4
18.985000 -0.332035 0
18.990000 -0.251168 0
18.995000 -0.167858 0
19.000000 -0.099850 0
19.005000 -0.051021 0
19.010000 -0.016696 0
19.015000 0.009902 0
19.020000 0.033931 0
19.025000 0.058180 0
19.030000 0.083753 0
19.035000 0.110875 0
19.040000 0.139380 0
19.045000 0.168920 0
19.050000 0.199047 0
19.055000 0.229234 0
19.060000 0.258891 0
19.065000 0.287391 0
19.070000 0.314083 0
19.075000 0.338318 0
19.080000 0.359478 0
19.085000 0.376997 0
19.090000 0.390390 0
19.095000 0.399269 0
19.100000 0.403369 5
19.105000 0.402554 0
19.110000 0.396827 0
19.115000 0.386329 0
19.120000 0.371334 0
19.125000 0.352236 0
19.130000 0.329532 0
19.135000 0.303799 0
19.140000 0.275671 0
19.145000 0.245812 0
19.150000 0.214889 0
19.155000 0.183549 0
19.160000 0.152398 0
19.165000 0.121982 0
19.170000 0.092771 0
19.175000 0.065155 0
19.180000 0.039436 0
19.185000 0.015828 0
19.190000 -0.005538 0
19.195000 -0.024607 0
19.200000 -0.041392 0
19.205000 -0.055961 0
19.210000 -0.068429 0
19.215000 -0.078943 0
19.220000 -0.087674 0
19.225000 -0.094805 0
19.230000 -0.100522 0
19.235000 -0.105009 0
19.240000 -0.108443 0
19.245000 -0.110987 0
19.250000 -0.112788 0
19.255000 -0.113979 0
19.260000 -0.114674 0
19.265000 -0.114784 0
19.270000 -0.113782 0
19.275000 -0.112785 0
19.280000 -0.111793 0
19.285000 -0.110806 0
19.290000 -0.109824 0
19.295000 -0.108846 0
19.300000 -0.107874 0
19.305000 -0.106905 0
19.310000 -0.105941 0
19.315000 -0.104980 0
19.320000 -0.104020 0
19.325000 -0.103059 0
19.330000 -0.102091 0
19.335000 -0.101107 0
19.340000 -0.100092 0
19.345000 -0.099020 0
19.350000 -0.097852 0
19.355000 -0.096527 0
19.360000 -0.094955 0
19.365000 -0.093007 0
19.370000 -0.090506 0
19.375000 -0.087216 0
19.380000 -0.082838 0
19.385000 -0.077012 0
19.390000 -0.069324 0
19.395000 -0.059329 0
19.400000 -0.046595 0
19.405000 -0.030748 0
19.410000 -0.011545 0
19.415000 0.011059 0
19.420000 0.036837 0
19.425000 0.065246 0
19.430000 0.095394 0
19.435000 0.126064 0
19.440000 0.155772 0
19.445000 0.182878 0
19.450000 0.205729 0
19.455000 0.222827 0
19.460000 0.232990 0
19.465000 0.235485 1
19.470000 0.230120 0
19.475000 0.217264 0
19.480000 0.197809 0
19.485000 0.173065 0
19.490000 0.144615 0
19.495000 0.114141 0
19.500000 0.083237 0
19.505000 0.053181 0
19.510000 0.024616 0
19.515000 -0.002948 0
19.520000 -0.031698 0
19.525000 -0.065567 0
19.530000 -0.108717 0
19.535000 -0.161814 0
19.540000 -0.217430 0
19.545000 -0.257886 0
19.550000 -0.257953 2
19.555000 -0.191040 0
19.560000 -0.036059 0
19.565000 0.213751 0
19.570000 0.536812 0
19.575000 0.870588 0
19.580000 1.119607 0
19.585000 1.194995 3
19.590000 1.061029 0
19.595000 0.763801 0
19.600000 0.402402 0
19.605000 0.072461 0
19.610000 -0.167849 0
19.615000 -0.299577 0
19.620000 -0.331368 4
19.625000 -0.289893 0
19.630000 -0.210934 0
19.635000 -0.127366 0
19.640000 -0.058895 0
19.645000 -0.010114 0
19.650000 0.023816 0
19.655000 0.050015 0
19.660000 0.073805 0
19.665000 0.097974 0
19.670000 0.123565 0
19.675000 0.150743 0
19.680000 0.179294 0
19.685000 0.208830 0
19.690000 0.238857 0
19.695000 0.268802 0
19.700000 0.298031 0
19.705000 0.325869 0
19.710000 0.351629 0
19.715000 0.374633 0
19.720000 0.394245 0
19.725000 0.409900 0
19.730000 0.421126 0
19.735000 0.427572 0
19.740000 0.429021 5
19.745000 0.425404 0
19.750000 0.416804 0
19.755000 0.403449 0
19.760000 0.385707 0
19.765000 0.364063 0
19.770000 0.339099 0
19.775000 0.311467 0
19.780000 0.281862 0
19.785000 0.250989 0
19.790000 0.219539 0
19.795000 0.188161 0
19.800000 0.157445 0
19.805000 0.127902 0
19.810000 0.099952 0
19.815000 0.073925 0
19.820000 0.050054 0
19.825000 0.028481 0
19.830000 0.009266 0
19.835000 -0.007604 0
19.840000 -0.022205 0
19.845000 -0.034658 0
19.850000 -0.045123 0
19.855000 -0.053780 0
19.860000 -0.060825 0
19.865000 -0.066453 0
19.870000 -0.070858 0
19.875000 -0.074222 0
19.880000 -0.076713 0
19.885000 -0.078484 0
19.890000 -0.079667 0
19.895000 -0.080378 0
19.900000 -0.079771 0
19.905000 -0.078943 0
19.910000 -0.078120 0
19.915000 -0.077301 0
19.920000 -0.076486 0
19.925000 -0.075675 0
19.930000 -0.074868 0
19.935000 -0.074064 0
19.940000 -0.073264 0
19.945000 -0.072467 0
19.950000 -0.071671 0
19.955000 -0.070873 0
19.960000 -0.070069 0
19.965000 -0.069251 0
19.970000 -0.068405 0
19.975000 -0.067505 0
19.980000 -0.066514 0
19.985000 -0.065372 0
19.990000 -0.063988 0
19.995000 -0.062231 0
20.000000 -0.059917 0
20.005000 -0.056803 0
20.010000 -0.052573 0
20.015000 -0.046846 0
20.020000 -0.039185 0
20.025000 -0.029119 0
20.030000 -0.016194 0
20.035000 -0.000028 0
20.040000 0.019611 0
20.045000 0.042726 0
20.050000 0.069018 0
20.055000 0.097831 0
20.060000 0.128135 0
20.065000 0.158558 0
20.070000 0.187469 0
20.075000 0.213116 0
20.080000 0.233791 0
20.085000 0.248024 0
20.090000 0.254748 1
20.095000 0.253435 0
20.100000 0.244160 0
20.105000 0.227596 0
20.110000 0.204933 0
20.115000 0.177733 0
20.120000 0.147748 0
20.125000 0.116722 0
20.130000 0.086155 0
20.135000 0.056999 0
20.140000 0.029166 0
20.145000 0.000897 0
20.150000 -0.031553 0
20.155000 -0.072764 0
20.160000 -0.124537 0
20.165000 -0.180751 0
20.170000 -0.224259 0
20.175000 -0.229095 2
20.180000 -0.167061 0
20.185000 -0.015363 0
20.190000 0.233760 0
20.195000 0.557655 0
20.200000 0.889393 0
20.205000 1.127607 0
20.210000 1.181693 3
20.215000 1.026724 0
20.220000 0.718149 0
20.225000 0.356090 0
20.230000 0.032512 0
20.235000 -0.198850 0
20.240000 -0.322040 0
20.245000 -0.347317 4
20.250000 -0.302056 0
20.255000 -0.221860 0
20.260000 -0.138681 0
20.265000 -0.071126 0
20.270000 -0.023085 0
20.275000 0.010480 0
20.280000 0.036596 0
20.285000 0.060438 0
20.290000 0.084701 0
20.295000 0.110387 0
20.300000 0.137649 0
20.305000 0.166273 0
20.310000 0.195875 0
20.315000 0.225965 0
20.320000 0.255977 0
20.325000 0.285285 0
20.330000 0.313223 0
20.335000 0.339110 0
20.340000 0.362276 0
20.345000 0.382091 0
20.350000 0.397992 0
20.355000 0.409508 0
20.360000 0.416285 0
20.365000 0.418102 5
20.370000 0.414881 0
20.375000 0.406694 0
20.380000 0.393757 0
20.385000 0.376422 0
20.390000 0.355161 0
20.395000 0.330542 0
20.400000 0.303205 0
20.405000 0.273833 0
20.410000 0.243124 0
20.415000 0.211765 0
20.420000 0.180403 0
20.425000 0.149630 0
20.430000 0.119960 0
20.435000 0.091824 0
20.440000 0.065559 0
20.445000 0.041410 0
20.450000 0.019531 0
20.455000 -0.000008 0
20.460000 -0.017208 0
20.465000 -0.032135 0
20.470000 -0.044902 0
20.475000 -0.055660 0
20.480000 -0.064586 0
20.485000 -0.071870 0
20.490000 -0.077708 0
20.495000 -0.082290 0
20.500000 -0.085800 0
20.505000 -0.088408 0
20.510000 -0.090268 0
20.515000 -0.091515 0
20.520000 -0.092268 0
20.525000 -0.092446 0
20.530000 -0.091556 0
20.535000 -0.090670 0
20.540000 -0.089788 0
20.545000 -0.088911 0
20.550000 -0.088038 0
20.555000 -0.087169 0
20.560000 -0.086304 0
20.565000 -0.085443 0
20.570000 -0.084586 0
20.575000 -0.083730 0
20.580000 -0.082874 0
20.585000 -0.082015 0
20.590000 -0.081144 0
20.595000 -0.080251 0
20.600000 -0.079314 0
20.605000 -0.078302 0
20.610000 -0.077162 0
20.615000 -0.075816 0
20.620000 -0.074151 0
20.625000 -0.072003 0
20.630000 -0.069153 0
20.635000 -0.065316 0
20.640000 -0.060139 0
20.645000 -0.053205 0
20.650000 -0.044060 0
20.655000 -0.032241 0
20.660000 -0.017335 0
20.665000 0.000955 0
20.670000 0.022732 0
20.675000 0.047830 0
20.680000 0.075748 0
20.685000 0.105622 0
20.690000 0.136229 0
20.695000 0.166053 0
20.700000 0.193393 0
20.705000 0.216520 0
20.710000 0.233853 0
20.715000 0.244138 0
20.720000 0.246598 1
20.725000 0.241030 0
20.730000 0.227829 0
20.735000 0.207946 0
20.740000 0.182768 0
20.745000 0.153964 0
20.750000 0.123288 0
20.755000 0.092373 0
20.760000 0.062481 0
20.765000 0.034117 0
20.770000 0.006467 0
20.775000 -0.023178 0
20.780000 -0.059198 0
20.785000 -0.105423 0
20.790000 -0.160604 0
20.795000 -0.213771 0
20.800000 -0.243386 2
20.805000 -0.221848 0
20.810000 -0.122685 0
20.815000 0.071608 0
20.820000 0.357878 0
20.825000 0.695929 0
20.830000 1.001904 0
20.835000 1.172950 3
20.840000 1.143253 0
20.845000 0.921039 0
20.850000 0.581481 0
20.855000 0.223569 0
20.860000 -0.074927 0
20.865000 -0.274754 0
20.870000 -0.369157 0
20.875000 -0.373269 4
20.880000 -0.316381 0
20.885000 -0.233016 0
20.890000 -0.151745 0
20.895000 -0.087525 0
20.900000 -0.042051 0
20.905000 -0.009771 0
20.910000 0.015980 0
20.915000 0.039891 0
20.920000 0.064351 0
20.925000 0.090234 0
20.930000 0.117655 0
20.935000 0.146401 0
20.940000 0.176098 0
20.945000 0.206279 0
20.950000 0.236400 0
20.955000 0.265861 0
20.960000 0.294025 0
20.965000 0.320237 0
20.970000 0.343851 0
20.975000 0.364256 0
20.980000 0.380901 0
20.985000 0.393317 0
20.990000 0.401144 0
20.995000 0.404140 5
21.000000 0.402203 0
21.005000 0.395366 0
21.010000 0.383801 0
21.015000 0.367814 0
21.020000 0.347825 0
21.025000 0.324352 0
21.030000 0.297992 0
21.035000 0.269388 0
21.040000 0.239210 0
21.045000 0.208125 0
21.050000 0.176773 0
21.055000 0.145750 0
21.060000 0.115585 0
21.065000 0.086731 0
21.070000 0.059557 0
21.075000 0.034345 0
21.080000 0.011287 0
21.085000 -0.009505 0
21.090000 -0.027993 0
21.095000 -0.044206 0
21.100000 -0.058225 0
21.105000 -0.070176 0
21.110000 -0.080213 0
21.115000 -0.088511 0
21.120000 -0.095255 0
21.125000 -0.100633 0
21.130000 -0.104828 0
21.135000 -0.108013 0
21.140000 -0.110348 0
21.145000 -0.111976 0
21.150000 -0.113027 0
21.155000 -0.113609 0
21.160000 -0.112842 0
21.165000 -0.111850 0
21.170000 -0.110863 0
21.175000 -0.109880 0
21.180000 -0.108903 0
21.185000 -0.107930 0
21.190000 -0.106962 0
21.195000 -0.105999 0
21.200000 -0.105040 0
21.205000 -0.104084 0
21.210000 -0.103132 0
21.215000 -0.102180 0
21.220000 -0.101225 0
21.225000 -0.100261 0
21.230000 -0.099277 0
21.235000 -0.098256 0
21.240000 -0.097168 0
21.245000 -0.095967 0
21.250000 -0.094585 0
21.255000 -0.092921 0
21.260000 -0.090831 0
21.265000 -0.088121 0
21.270000 -0.084534 0
21.275000 -0.079752 0
21.280000 -0.073393 0
21.285000 -0.065030 0
21.290000 -0.054217 0
21.295000 -0.040531 0
21.300000 -0.023631 0
21.305000 -0.003331 0
21.310000 0.020335 0
21.315000 0.047041 0
21.320000 0.076128 0
21.325000 0.106591 0
21.330000 0.137112 0
21.335000 0.166136 0
21.340000 0.191997 0
21.345000 0.213070 0
21.350000 0.227940 0
21.355000 0.235561 1
21.360000 0.235373 0
21.365000 0.227377 0
21.370000 0.212129 0
21.375000 0.190682 0
21.380000 0.164463 0
21.385000 0.135114 0
21.390000 0.104315 0
21.395000 0.073582 0
21.400000 0.044019 0
21.405000 0.015935 0
21.410000 -0.011706 0
21.415000 -0.041773 0
21.420000 -0.078582 0
21.425000 -0.125577 0
21.430000 -0.180985 0
21.435000 -0.233646 0
21.440000 -0.262508 2
21.445000 -0.240973 0
21.450000 -0.143574 0
21.455000 0.046825 0
21.460000 0.328364 0
21.465000 0.664989 0
21.470000 0.978991 0
21.475000 1.171058 3
21.480000 1.168299 0
21.485000 0.965330 0
21.490000 0.632568 0
21.495000 0.272987 0
21.500000 -0.029805 0
21.505000 -0.232826 0
21.510000 -0.328154 0
21.515000 -0.331402 4
21.520000 -0.273227 0
21.525000 -0.189562 0
21.530000 -0.109498 0
21.535000 -0.047436 0
21.540000 -0.004096 0
21.545000 0.026716 0
21.550000 0.051757 0
21.555000 0.075494 0
21.560000 0.100061 0
21.565000 0.126153 0
21.570000 0.153789 0
21.575000 0.182693 0
21.580000 0.212446 0
21.585000 0.242535 0
21.590000 0.272372 0
21.595000 0.301315 0
21.600000 0.328691 0
21.605000 0.353817 0
21.610000 0.376030 0
21.615000 0.394714 0
21.620000 0.409331 0
21.625000 0.419440 0
21.630000 0.424724 0
21.635000 0.425003 5
21.640000 0.420244 0
21.645000 0.410562 0
21.650000 0.396218 0
21.655000 0.377601 0
21.660000 0.355217 0
21.665000 0.329660 0
21.670000 0.301588 0
21.675000 0.271693 0
21.680000 0.240675 0
21.685000 0.209211 0
21.690000 0.177937 0
21.695000 0.147421 0
21.700000 0.118156 0
21.705000 0.090544 0
21.710000 0.064892 0
21.715000 0.041418 0
21.720000 0.020247 0
21.725000 0.001427 0
21.730000 -0.015067 0
21.735000 -0.029315 0
21.740000 -0.041447 0
21.745000 -0.051623 0
21.750000 -0.060026 0
21.755000 -0.066848 0
21.760000 -0.072285 0
21.765000 -0.076528 0
21.770000 -0.079755 0
21.775000 -0.082132 0
21.780000 -0.083807 0
21.785000 -0.084910 0
21.790000 -0.085554 0
21.795000 -0.084914 0
21.800000 -0.084061 0
21.805000 -0.083213 0
21.810000 -0.082368 0
21.815000 -0.081528 0
21.820000 -0.080692 0
21.825000 -0.079859 0
21.830000 -0.079031 0
21.835000 -0.078206 0
21.840000 -0.077384 0
21.845000 -0.076563 0
21.850000 -0.075741 0
21.855000 -0.074912 0
21.860000 -0.074069 0
21.865000 -0.073197 0
21.870000 -0.072271 0
21.875000 -0.071253 0
21.880000 -0.070083 0
21.885000 -0.068670 0
21.890000 -0.066884 0
21.895000 -0.064541 0
21.900000 -0.061400 0
21.905000 -0.057147 0
21.910000 -0.051406 0
21.915000 -0.043740 0
21.920000 -0.033687 0
21.925000 -0.020794 0
21.930000 -0.004680 0
21.935000 0.014887 0
21.940000 0.037920 0
21.945000 0.064130 0
21.950000 0.092881 0
21.955000 0.123165 0
21.960000 0.153636 0
21.965000 0.182686 0
21.970000 0.208581 0
21.975000 0.229620 0
21.980000 0.244326 0
21.985000 0.251611 1
21.990000 0.250912 0
21.995000 0.242257 0
22.000000 0.226271 0
22.005000 0.204095 0
22.010000 0.177253 0
22.015000 0.147473 0
22.020000 0.116493 0
22.025000 0.085839 0
22.030000 0.056527 0
22.035000 0.028616 0
22.040000 0.000576 0
22.045000 -0.031093 0
22.050000 -0.070973 0
22.055000 -0.121478 0
22.060000 -0.177830 0
22.065000 -0.224504 0
22.070000 -0.236637 2
22.075000 -0.186124 0
22.080000 -0.049069 0
22.085000 0.185339 0
22.090000 0.500536 0
22.095000 0.837470 0
22.100000 1.099000 0
22.105000 1.189303 3
22.110000 1.069103 0
22.115000 0.780829 0
22.120000 0.420680 0
22.125000 0.085230 0
22.130000 -0.164417 0
22.135000 -0.306470 0
22.140000 -0.347347 4
22.145000 -0.311988 0
22.150000 -0.235354 0
22.155000 -0.150910 0
22.160000 -0.079976 0
22.165000 -0.028733 0
22.170000 0.006838 0
22.175000 0.033802 0
22.180000 0.057777 0
22.185000 0.081852 0
22.190000 0.107254 0
22.195000 0.134242 0
22.200000 0.162645 0
22.205000 0.192101 0
22.210000 0.222137 0
22.215000 0.252200 0
22.220000 0.281671 0
22.225000 0.309890 0
22.230000 0.336176 0
22.235000 0.359857 0
22.240000 0.380293 0
22.245000 0.396906 0
22.250000 0.409208 0
22.255000 0.416824 0
22.260000 0.419508 5
22.265000 0.417156 0
22.270000 0.409815 0
22.275000 0.397676 0
22.280000 0.381069 0
22.285000 0.360446 0
22.290000 0.336360 0
22.295000 0.309440 0
22.300000 0.280365 0
22.305000 0.249832 0
22.310000 0.218531 0
22.315000 0.187119 0
22.320000 0.156198 0
22.325000 0.126297 0
22.330000 0.097862 0
22.335000 0.071246 0
22.340000 0.046711 0
22.345000 0.024425 0
22.350000 0.004472 0
22.355000 -0.013136 0
22.360000 -0.028455 0
22.365000 -0.041592 0
22.370000 -0.052692 0
22.375000 -0.061928 0
22.380000 -0.069488 0
22.385000 -0.075568 0
22.390000 -0.080360 0
22.395000 -0.084048 0
22.400000 -0.086807 0
22.405000 -0.088792 0
22.410000 -0.090142 0
22.415000 -0.090978 0
22.420000 -0.091215 0
22.425000 -0.090330 0
22.430000 -0.089450 0
22.435000 -0.088575 0
22.440000 -0.087703 0
22.445000 -0.086836 0
22.450000 -0.085974 0
22.455000 -0.085115 0
22.460000 -0.084260 0
22.465000 -0.083409 0
22.470000 -0.082559 0
22.475000 -0.081711 0
22.480000 -0.080858 0
22.485000 -0.079997 0
22.490000 -0.079115 0
22.495000 -0.078194 0
22.500000 -0.077204 0
22.505000 -0.076097 0
22.510000 -0.074800 0
22.515000 -0.073206 0
22.520000 -0.071161 0
22.525000 -0.068456 0
22.530000 -0.064818 0
22.535000 -0.059903 0
22.540000 -0.053308 0
22.545000 -0.044580 0
22.550000 -0.033256 0
22.555000 -0.018909 0
22.560000 -0.001216 0
22.565000 0.019963 0
22.570000 0.044514 0
22.575000 0.071996 0
22.580000 0.101607 0
22.585000 0.132183 0
22.590000 0.162252 0
22.595000 0.190133 0
22.600000 0.214090 0
22.605000 0.232504 0
22.610000 0.244053 0
22.615000 0.247871 1
22.620000 0.243651 0
22.625000 0.231690 0
22.630000 0.212850 0
22.635000 0.188454 0
22.640000 0.160137 0
22.645000 0.129652 0
22.650000 0.098669 0
22.655000 0.068536 0
22.660000 0.039920 0
22.665000 0.012277 0
22.670000 -0.016758 0
22.675000 -0.051371 0
22.680000 -0.095753 0
22.685000 -0.149887 0
22.690000 -0.204656 0
22.695000 -0.240125 2
22.700000 -0.229234 0
22.705000 -0.144799 0
22.710000 0.032860 0
22.715000 0.305184 0
22.720000 0.639270 0
22.725000 0.957939 0
22.730000 1.158250 0
22.735000 1.161870 3
22.740000 0.963972 0
22.745000 0.634856 0
22.750000 0.274094 0
22.755000 -0.035271 0
22.760000 -0.248585 0
22.765000 -0.355505 0
22.770000 -0.369035 4
22.775000 -0.317414 0
22.780000 -0.235410 0
22.785000 -0.152987 0
22.790000 -0.086810 0
22.795000 -0.039725 0
22.800000 -0.006543 0
22.805000 0.019533 0
22.810000 0.043452 0
22.815000 0.067794 0
22.820000 0.093532 0
22.825000 0.120822 0
22.830000 0.149463 0
22.835000 0.179089 0
22.840000 0.209232 0
22.845000 0.239348 0
22.850000 0.268835 0
22.855000 0.297051 0
22.860000 0.323337 0
22.865000 0.347040 0
22.870000 0.367542 0
22.875000 0.384283 0
22.880000 0.396791 0
22.885000 0.404695 0
22.890000 0.407754 5
22.895000 0.405858 0
22.900000 0.399040 0
22.905000 0.387474 0
22.910000 0.371466 0
22.915000 0.351439 0
22.920000 0.327919 0
22.925000 0.301504 0
22.930000 0.272847 0
22.935000 0.242622 0
22.940000 0.211501 0
22.945000 0.180129 0
22.950000 0.149105 0
22.955000 0.118961 0
22.960000 0.090149 0
22.965000 0.063040 0
22.970000 0.037910 0
22.975000 0.014953 0
22.980000 -0.005725 0
22.985000 -0.024090 0
22.990000 -0.040174 0
22.995000 -0.054064 0
23.000000 -0.065887 0
23.005000 -0.075801 0
23.010000 -0.083984 0
23.015000 -0.090624 0
23.020000 -0.095908 0
23.025000 -0.100022 0
23.030000 -0.103138 0
23.035000 -0.105416 0
23.040000 -0.107000 0
23.045000 -0.108017 0
23.050000 -0.108576 0
23.055000 -0.107826 0
23.060000 -0.106859 0
23.065000 -0.105897 0
23.070000 -0.104939 0
23.075000 -0.103986 0
23.080000 -0.103038 0
23.085000 -0.102094 0
23.090000 -0.101155 0
23.095000 -0.100220 0
23.100000 -0.099289 0
23.105000 -0.098359 0
23.110000 -0.097430 0
23.115000 -0.096497 0
23.120000 -0.095554 0
23.125000 -0.094587 0
23.130000 -0.093578 0
23.135000 -0.092495 0
23.140000 -0.091287 0
23.145000 -0.089880 0
23.150000 -0.088164 0
23.155000 -0.085984 0
23.160000 -0.083132 0
23.165000 -0.079335 0
23.170000 -0.074259 0
23.175000 -0.067507 0
23.180000 -0.058639 0
23.185000 -0.047208 0
23.190000 -0.032800 0
23.195000 -0.015103 0
23.200000 0.006025 0
23.205000 0.030480 0
23.210000 0.057854 0
23.215000 0.087392 0
23.220000 0.117993 0
23.225000 0.148256 0
23.230000 0.176567 0
23.235000 0.201243 0
23.240000 0.220685 0
23.245000 0.233558 0
23.250000 0.238935 1
23.255000 0.236411 0
23.260000 0.226155 0
23.265000 0.208886 0
23.270000 0.185796 0
23.275000 0.158408 0
23.280000 0.128409 0
23.285000 0.097465 0
23.290000 0.067004 0
23.295000 0.037929 0
23.300000 0.010174 0
23.305000 -0.017888 0
23.310000 -0.049761 0
23.315000 -0.089877 0
23.320000 -0.140446 0
23.325000 -0.196725 0
23.330000 -0.243719 0
23.335000 -0.257495 2
23.340000 -0.210850 0
23.345000 -0.080262 0
23.350000 0.146011 0
23.355000 0.454960 0
23.360000 0.794048 0
23.365000 1.072291 0
23.370000 1.193427 3
23.375000 1.107120 0
23.380000 0.840806 0
23.385000 0.485268 0
23.390000 0.140282 0
23.395000 -0.126194 0
23.400000 -0.286485 0
23.405000 -0.343068 4
23.410000 -0.318288 0
23.415000 -0.246106 0
23.420000 -0.161079 0
23.425000 -0.087035 0
23.430000 -0.032543 0
23.435000 0.005201 0
23.440000 0.033158 0
23.445000 0.057343 0
23.450000 0.081255 0
23.455000 0.106372 0
23.460000 0.133070 0
23.465000 0.161230 0
23.470000 0.190515 0
23.475000 0.220469 0
23.480000 0.250552 0
23.485000 0.280156 0
23.490000 0.308629 0
23.495000 0.335291 0
23.500000 0.359467 0
23.505000 0.380510 0
23.510000 0.397831 0
23.515000 0.410923 0
23.520000 0.419390 0
23.525000 0.422962 5
23.530000 0.421509 0
23.535000 0.415049 0
23.540000 0.403749 0
23.545000 0.387914 0
23.550000 0.367973 0
23.555000 0.344463 0
23.560000 0.318001 0
23.565000 0.289256 0
23.570000 0.258925 0
23.575000 0.227700 0
23.580000 0.196244 0
23.585000 0.165172 0
23.590000 0.135026 0
23.595000 0.106268 0
23.600000 0.079270 0
23.605000 0.054308 0
23.610000 0.031569 0
23.615000 0.011153 0
23.620000 -0.006917 0
23.625000 -0.022684 0
23.630000 -0.036246 0
23.635000 -0.047742 0
23.640000 -0.057339 0
23.645000 -0.065224 0
23.650000 -0.071591 0
23.655000 -0.076634 0
23.660000 -0.080539 0
23.665000 -0.083481 0
23.670000 -0.085621 0
23.675000 -0.087100 0
23.680000 -0.088044 0
23.685000 -0.088357 0
23.690000 -0.087487 0
23.695000 -0.086621 0
23.700000 -0.085760 0
23.705000 -0.084903 0
23.710000 -0.084050 0
23.715000 -0.083201 0
23.720000 -0.082356 0
23.725000 -0.081515 0
23.730000 -0.080678 0
23.735000 -0.079842 0
23.740000 -0.079008 0
23.745000 -0.078171 0
23.750000 -0.077327 0
23.755000 -0.076465 0
23.760000 -0.075568 0
23.765000 -0.074610 0
23.770000 -0.073546 0
23.775000 -0.072310 0
23.780000 -0.070803 0
23.785000 -0.068881 0
23.790000 -0.066349 0
23.795000 -0.062947 0
23.800000 -0.058347 0
23.805000 -0.052157 0
23.810000 -0.043934 0
23.815000 -0.033213 0
23.820000 -0.019555 0
23.825000 -0.002610 0
23.830000 0.017809 0
23.835000 0.041647 0
23.840000 0.068540 0
23.845000 0.097765 0
23.850000 0.128234 0
23.855000 0.158537 0
23.860000 0.187029 0
23.865000 0.211974 0
23.870000 0.231711 0
23.875000 0.244842 0
23.880000 0.250391 1
23.885000 0.247923 0
23.890000 0.237601 0
23.895000 0.220169 0
23.900000 0.196860 0
23.905000 0.169251 0
23.910000 0.139085 0
23.915000 0.108068 0
23.920000 0.077643 0
23.925000 0.048668 0
23.930000 0.020928 0
23.935000 -0.007493 0
23.940000 -0.040439 0
23.945000 -0.082386 0
23.950000 -0.134727 0
23.955000 -0.190747 0
23.960000 -0.232861 0
23.965000 -0.235101 2
23.970000 -0.169685 0
23.975000 -0.014484 0
23.980000 0.237412 0
23.985000 0.562493 0
23.990000 0.893581 0
23.995000 1.130184 0
24.000000 1.183172 3
24.005000 1.027794 0
24.010000 0.719313 0
24.015000 0.357242 0
24.020000 0.033114 0
24.025000 -0.199367 0
24.030000 -0.324018 0
24.035000 -0.350749 4
24.040000 -0.306545 0
24.045000 -0.226741 0
24.050000 -0.143312 0
24.055000 -0.075161 0
24.060000 -0.026520 0
24.065000 0.007449 0
24.070000 0.033750 0
24.075000 0.057627 0
24.080000 0.081848 0
24.085000 0.107465 0
24.090000 0.134656 0
24.095000 0.163221 0
24.100000 0.192785 0
24.105000 0.222867 0
24.110000 0.252909 0
24.115000 0.282291 0
24.120000 0.310353 0
24.125000 0.336420 0
24.130000 0.359824 0
24.135000 0.379934 0
24.140000 0.396185 0
24.145000 0.408101 0
24.150000 0.415319 0
24.155000 0.417606 5
24.160000 0.414872 0
24.165000 0.407174 0
24.170000 0.394714 0
24.175000 0.377827 0
24.180000 0.356972 0
24.185000 0.332702 0
24.190000 0.305649 0
24.195000 0.276486 0
24.200000 0.245907 0
24.205000 0.214598 0
24.210000 0.183208 0
24.215000 0.152333 0
24.220000 0.122494 0
24.225000 0.094133 0
24.230000 0.067595 0
24.235000 0.043138 0
24.240000 0.020927 0
24.245000 0.001044 0
24.250000 -0.016504 0
24.255000 -0.031771 0
24.260000 -0.044864 0
24.265000 -0.055929 0
24.270000 -0.065137 0
24.275000 -0.072676 0
24.280000 -0.078739 0
24.285000 -0.083518 0
24.290000 -0.087197 0
24.295000 -0.089948 0
24.300000 -0.091925 0
24.305000 -0.093269 0
24.310000 -0.094098 0
24.315000 -0.094326 0
24.320000 -0.093426 0
24.325000 -0.092531 0
24.330000 -0.091640 0
24.335000 -0.090753 0
24.340000 -0.089871 0
24.345000 -0.088993 0
24.350000 -0.088119 0
24.355000 -0.087250 0
24.360000 -0.086383 0
24.365000 -0.085519 0
24.370000 -0.084656 0
24.375000 -0.083790 0
24.380000 -0.082915 0
24.385000 -0.082020 0
24.390000 -0.081089 0
24.395000 -0.080091 0
24.400000 -0.078982 0
24.405000 -0.077690 0
24.410000 -0.076112 0
24.415000 -0.074099 0
24.420000 -0.071450 0
24.425000 -0.067899 0
24.430000 -0.063112 0
24.435000 -0.056691 0
24.440000 -0.048191 0
24.445000 -0.037151 0
24.450000 -0.023140 0
24.455000 -0.005824 0
24.460000 0.014964 0
24.465000 0.039140 0
24.470000 0.066311 0
24.475000 0.095722 0
24.480000 0.126261 0
24.485000 0.156500 0
24.490000 0.184788 0
24.495000 0.209399 0
24.500000 0.228696 0
24.505000 0.241313 0
24.510000 0.246318 1
24.515000 0.243318 0
24.520000 0.232519 0
24.525000 0.214693 0
24.530000 0.191096 0
24.535000 0.163311 0
24.540000 0.133076 0
24.545000 0.102080 0
24.550000 0.071735 0
24.555000 0.042857 0
24.560000 0.015165 0
24.565000 -0.013332 0
24.570000 -0.046527 0
24.575000 -0.088840 0
24.580000 -0.141450 0
24.585000 -0.197339 0
24.590000 -0.238684 0
24.595000 -0.239502 2
24.600000 -0.172208 0
24.605000 -0.015011 0
24.610000 0.238524 0
24.615000 0.564337 0
24.620000 0.894942 0
24.625000 1.130167 0
24.630000 1.181713 3
24.635000 1.025980 0
24.640000 0.718388 0
24.645000 0.356348 0
24.650000 0.030082 0
24.655000 -0.206620 0
24.660000 -0.336667 0
24.665000 -0.368720 4
24.670000 -0.328403 0
24.675000 -0.250106 0
24.680000 -0.165874 0
24.685000 -0.095629 0
24.690000 -0.044820 0
24.695000 -0.009341 0
24.700000 0.017698 0
24.705000 0.041763 0
24.710000 0.065887 0
24.715000 0.091300 0
24.720000 0.118274 0
24.725000 0.146660 0
24.730000 0.176114 0
24.735000 0.206183 0
24.740000 0.236336 0
24.745000 0.265977 0
24.750000 0.294468 0
24.755000 0.321149 0
24.760000 0.345362 0
24.765000 0.366478 0
24.770000 0.383922 0
24.775000 0.397202 0
24.780000 0.405929 0
24.785000 0.409833 5
24.790000 0.408782 0
24.795000 0.402784 0
24.800000 0.391990 0
24.805000 0.376686 0
24.810000 0.357277 0
24.815000 0.334276 0
24.820000 0.308273 0
24.825000 0.279917 0
24.830000 0.249881 0
24.835000 0.218844 0
24.840000 0.187458 0
24.845000 0.156333 0
24.850000 0.126012 0
24.855000 0.096965 0
24.860000 0.069573 0
24.865000 0.044131 0
24.870000 0.020842 0
24.875000 -0.000174 0
24.880000 -0.018873 0
24.885000 -0.035280 0
24.890000 -0.049473 0
24.895000 -0.061577 0
24.900000 -0.071746 0
24.905000 -0.080157 0
24.910000 -0.086997 0
24.915000 -0.092456 0
24.920000 -0.096719 0
24.925000 -0.099962 0
24.930000 -0.102347 0
24.935000 -0.104020 0
24.940000 -0.105111 0
24.945000 -0.105731 0
24.950000 -0.105003 0
24.955000 -0.104049 0
24.960000 -0.103101 0
24.965000 -0.102157 0
24.970000 -0.101218 0
24.975000 -0.100284 0
24.980000 -0.099354 0
24.985000 -0.098429 0
24.990000 -0.097507 0
24.995000 -0.096589 0
25.000000 -0.095674 0
25.005000 -0.094759 0
25.010000 -0.093840 0
25.015000 -0.092911 0
25.020000 -0.091961 0
25.025000 -0.090970 0
25.030000 -0.089908 0
25.035000 -0.088726 0
25.040000 -0.087352 0
25.045000 -0.085677 0
25.050000 -0.083551 0
25.055000 -0.080769 0
25.060000 -0.077063 0
25.065000 -0.072100 0
25.070000 -0.065487 0
25.075000 -0.056784 0
25.080000 -0.045541 0
25.085000 -0.031339 0
25.090000 -0.013857 0
25.095000 0.007061 0
25.100000 0.031326 0
25.105000 0.058547 0
25.110000 0.087985 0
25.115000 0.118553 0
25.120000 0.148857 0
25.125000 0.177288 0
25.130000 0.202151 0
25.135000 0.221838 0
25.140000 0.234992 0
25.145000 0.240664 1
25.150000 0.238426 0
25.155000 0.228425 0
25.160000 0.211365 0
25.165000 0.188427 0
25.170000 0.161134 0
25.175000 0.131176 0
25.180000 0.100227 0
25.185000 0.069731 0
25.190000 0.040611 0
25.195000 0.012828 0
25.200000 -0.015213 0
25.205000 -0.046998 0
25.210000 -0.086978 0
25.215000 -0.137435 0
25.220000 -0.193723 0
25.225000 -0.240906 0
25.230000 -0.255024 2
25.235000 -0.208773 0
25.240000 -0.078508 0
25.245000 0.147611 0
25.250000 0.456569 0
25.255000 0.795614 0
25.260000 1.073373 0
25.265000 1.193337 3
25.270000 1.105374 0
25.275000 0.837607 0
25.280000 0.481621 0
25.285000 0.137446 0
25.290000 -0.127265 0
25.295000 -0.285345 0
25.300000 -0.339770 4
25.305000 -0.313359 0
25.310000 -0.240400 0
25.315000 -0.155451 0
25.320000 -0.082012 0
25.325000 -0.028219 0
25.330000 0.009011 0
25.335000 0.036703 0
25.340000 0.060810 0
25.345000 0.084745 0
25.350000 0.109923 0
25.355000 0.136689 0
25.360000 0.164907 0
25.365000 0.194231 0
25.370000 0.224198 0
25.375000 0.254260 0
25.380000 0.283804 0
25.385000 0.312170 0
25.390000 0.338677 0
25.395000 0.362645 0
25.400000 0.383428 0
25.405000 0.400439 0
25.410000 0.413176 0
25.415000 0.421251 0
25.420000 0.424403 5
25.425000 0.422513 0
25.430000 0.415613 0
25.435000 0.403881 0
25.440000 0.387638 0
25.445000 0.367325 0
25.450000 0.343491 0
25.455000 0.316761 0
25.460000 0.287813 0
25.465000 0.257347 0
25.470000 0.226057 0
25.475000 0.194606 0
25.480000 0.163603 0
25.485000 0.133586 0
25.490000 0.105008 0
25.495000 0.078231 0
25.500000 0.053523 0
25.505000 0.031060 0
25.510000 0.010933 0
25.515000 -0.006844 0
25.520000 -0.022324 0
25.525000 -0.035609 0
25.530000 -0.046844 0
25.535000 -0.056201 0
25.540000 -0.063870 0
25.545000 -0.070044 0
25.550000 -0.074919 0
25.555000 -0.078681 0
25.560000 -0.081503 0
25.565000 -0.083543 0
25.570000 -0.084942 0
25.575000 -0.085821 0
25.580000 -0.086095 0
25.585000 -0.085236 0
25.590000 -0.084381 0
25.595000 -0.083531 0
25.600000 -0.082685 0
25.605000 -0.081843 0
25.610000 -0.081005 0
25.615000 -0.080171 0
25.620000 -0.079341 0
25.625000 -0.078514 0
25.630000 -0.077689 0
25.635000 -0.076865 0
25.640000 -0.076037 0
25.645000 -0.075200 0
25.650000 -0.074342 0
25.655000 -0.073445 0
25.660000 -0.072479 0
25.665000 -0.071396 0
25.670000 -0.070123 0
25.675000 -0.068552 0
25.680000 -0.066528 0
25.685000 -0.063842 0
25.690000 -0.060219 0
25.695000 -0.055314 0
25.700000 -0.048720 0
25.705000 -0.039984 0
25.710000 -0.028640 0
25.715000 -0.014261 0
25.720000 0.003475 0
25.725000 0.024705 0
25.730000 0.049307 0
25.735000 0.076832 0
25.740000 0.106465 0
25.745000 0.137028 0
25.750000 0.167036 0
25.755000 0.194798 0
25.760000 0.218571 0
25.765000 0.236737 0
25.770000 0.247984 0
25.775000 0.251462 1
25.780000 0.246887 0
25.785000 0.234583 0
25.790000 0.215436 0
25.795000 0.190795 0
25.800000 0.162309 0
25.805000 0.131740 0
25.810000 0.100755 0
25.815000 0.070678 0
25.820000 0.042129 0
25.825000 0.014470 0
25.830000 -0.014794 0
25.835000 -0.049943 0
25.840000 -0.095062 0
25.845000 -0.149669 0
25.850000 -0.203873 0
25.855000 -0.236985 2
25.860000 -0.221587 0
25.865000 -0.130675 0
25.870000 0.054570 0
25.875000 0.333539 0
25.880000 0.669795 0
25.885000 0.982565 0
25.890000 1.168370 3
25.895000 1.153796 0
25.900000 0.941030 0
25.905000 0.604417 0
25.910000 0.245891 0
25.915000 -0.053493 0
25.920000 -0.252824 0
25.925000 -0.345238 0
25.930000 -0.346692 4
25.935000 -0.287736 0
25.940000 -0.203892 0
25.945000 -0.123807 0
25.950000 -0.061644 0
25.955000 -0.018120 0
25.960000 0.012873 0
25.965000 0.038037 0
25.970000 0.061837 0
25.975000 0.086428 0
25.980000 0.112525 0
25.985000 0.140163 0
25.990000 0.169076 0
25.995000 0.198856 0
26.000000 0.229000 0
26.005000 0.258930 0
26.010000 0.288016 0
26.015000 0.315593 0
26.020000 0.340985 0
26.025000 0.363535 0
26.030000 0.382629 0
26.035000 0.397726 0
26.040000 0.408381 0
26.045000 0.414266 0
26.050000 0.415187 5
26.055000 0.411096 0
26.060000 0.402087 0
26.065000 0.388401 0
26.070000 0.370407 0
26.075000 0.348590 0
26.080000 0.323525 0
26.085000 0.295856 0
26.090000 0.266264 0
26.095000 0.235440 0
26.100000 0.204060 0
26.105000 0.172761 0
26.110000 0.142118 0
26.115000 0.112633 0
26.120000 0.084721 0
26.125000 0.058704 0
26.130000 0.034816 0
26.135000 0.013198 0
26.140000 -0.006086 0
26.145000 -0.023046 0
26.150000 -0.037750 0
26.155000 -0.050316 0
26.160000 -0.060897 0
26.165000 -0.069668 0
26.170000 -0.076819 0
26.175000 -0.082543 0
26.180000 -0.087029 0
26.185000 -0.090460 0
26.190000 -0.093001 0
26.195000 -0.094805 0
26.200000 -0.096006 0
26.205000 -0.096718 0
26.210000 -0.096864 0
26.215000 -0.095951 0
26.220000 -0.095043 0
26.225000 -0.094140 0
26.230000 -0.093241 0
26.235000 -0.092346 0
26.240000 -0.091456 0
26.245000 -0.090570 0
26.250000 -0.089688 0
26.255000 -0.088809 0
26.260000 -0.087932 0
26.265000 -0.087056 0
26.270000 -0.086175 0
26.275000 -0.085284 0
26.280000 -0.084371 0
26.285000 -0.083416 0
26.290000 -0.082387 0
26.295000 -0.081233 0
26.300000 -0.079880 0
26.305000 -0.078214 0
26.310000 -0.076078 0
26.315000 -0.073257 0
26.320000 -0.069474 0
26.325000 -0.064381 0
26.330000 -0.057571 0
26.335000 -0.048595 0
26.340000 -0.036993 0
26.345000 -0.022349 0
26.350000 -0.004356 0
26.355000 0.017108 0
26.360000 0.041908 0
26.365000 0.069582 0
26.370000 0.099311 0
26.375000 0.129921 0
26.380000 0.159938 0
26.385000 0.187690 0
26.390000 0.211457 0
26.395000 0.229644 0
26.400000 0.240957 0
26.405000 0.244554 1
26.410000 0.240151 0
26.415000 0.228054 0
26.420000 0.209130 0
26.425000 0.184697 0
26.430000 0.156377 0
26.435000 0.125907 0
26.440000 0.094942 0
26.445000 0.064818 0
26.450000 0.036206 0
26.455000 0.008582 0
26.460000 -0.020364 0
26.465000 -0.054753 0
26.470000 -0.098787 0
26.475000 -0.152653 0
26.480000 -0.207689 0
26.485000 -0.244519 2
26.490000 -0.236498 0
26.495000 -0.156519 0
26.500000 0.015533 0
26.505000 0.282542 0
26.510000 0.614481 0
26.515000 0.937617 0
26.520000 1.150317 0
26.525000 1.171068 3
26.530000 0.988280 0
26.535000 0.666605 0
26.540000 0.304803 0
26.545000 -0.011476 0
26.550000 -0.234210 0
26.555000 -0.350489 0
26.560000 -0.371557 4
26.565000 -0.324518 0
26.570000 -0.243924 0
26.575000 -0.160584 0
26.580000 -0.092540 0
26.585000 -0.043761 0
26.590000 -0.009530 0
26.595000 0.016987 0
26.600000 0.040971 0
26.605000 0.065208 0
26.610000 0.090787 0
26.615000 0.117922 0
26.620000 0.146437 0
26.625000 0.175980 0
26.630000 0.206092 0
26.635000 0.236239 0
26.640000 0.265824 0
26.645000 0.294211 0
26.650000 0.320741 0
26.655000 0.344764 0
26.660000 0.365655 0
26.665000 0.382850 0
26.670000 0.395864 0
26.675000 0.404317 0
26.680000 0.407951 5
26.685000 0.406640 0
26.690000 0.400402 0
26.695000 0.389393 0
26.700000 0.373902 0
26.705000 0.354341 0
26.710000 0.331220 0
26.715000 0.305131 0
26.720000 0.276718 0
26.725000 0.246653 0
26.730000 0.215609 0
26.735000 0.184235 0
26.740000 0.153134 0
26.745000 0.122846 0
26.750000 0.093836 0
26.755000 0.066482 0
26.760000 0.041074 0
26.765000 0.017814 0
26.770000 -0.003178 0
26.775000 -0.021860 0
26.780000 -0.038255 0
26.785000 -0.052444 0
26.790000 -0.064548 0
26.795000 -0.074721 0
26.800000 -0.083140 0
26.805000 -0.089989 0
26.810000 -0.095457 0
26.815000 -0.099730 0
26.820000 -0.102981 0
26.825000 -0.105373 0
26.830000 -0.107051 0
26.835000 -0.108145 0
26.840000 -0.108765 0
26.845000 -0.108024 0
26.850000 -0.107056 0
26.855000 -0.106092 0
26.860000 -0.105134 0
26.865000 -0.104180 0
26.870000 -0.103231 0
26.875000 -0.102286 0
26.880000 -0.101346 0
26.885000 -0.100410 0
26.890000 -0.099478 0
26.895000 -0.098548 0
26.900000 -0.097619 0
26.905000 -0.096687 0
26.910000 -0.095746 0
26.915000 -0.094784 0
26.920000 -0.093784 0
26.925000 -0.092716 0
26.930000 -0.091534 0
26.935000 -0.090168 0
26.940000 -0.088515 0
26.945000 -0.086429 0
26.950000 -0.083712 0
26.955000 -0.080105 0
26.960000 -0.075283 0
26.965000 -0.068861 0
26.970000 -0.060407 0
26.975000 -0.049471 0
26.980000 -0.035631 0
26.985000 -0.018552 0
26.990000 0.001944 0
26.995000 0.025805 0
27.000000 0.052682 0
27.005000 0.081888 0
27.010000 0.112387 0
27.015000 0.142832 0
27.020000 0.171644 0
27.025000 0.197143 0
27.030000 0.217705 0
27.035000 0.231935 0
27.040000 0.238817 1
27.045000 0.237843 0
27.050000 0.229066 0
27.055000 0.213102 0
27.060000 0.191055 0
27.065000 0.164393 0
27.070000 0.134781 0
27.075000 0.103900 0
27.080000 0.073245 0
27.085000 0.043851 0
27.090000 0.015898 0
27.095000 -0.011873 0
27.100000 -0.042590 0
27.105000 -0.080664 0
27.110000 -0.129132 0
27.115000 -0.185094 0
27.120000 -0.235817 0
27.125000 -0.258939 2
27.130000 -0.227430 0
27.135000 -0.116440 0
27.140000 0.089158 0
27.145000 0.383092 0
27.150000 0.722312 0
27.155000 1.022748 0
27.160000 1.185154 3
27.165000 1.144481 0
27.170000 0.910081 0
27.175000 0.564351 0
27.180000 0.210389 0
27.185000 -0.075029 0
27.190000 -0.256470 0
27.195000 -0.331475 4
27.200000 -0.319414 0
27.205000 -0.253109 0
27.210000 -0.168242 0
27.215000 -0.091347 0
27.220000 -0.033615 0
27.225000 0.006363 0
27.230000 0.035371 0
27.235000 0.059814 0
27.240000 0.083606 0
27.245000 0.108481 0
27.250000 0.134931 0
27.255000 0.162883 0
27.260000 0.192018 0
27.265000 0.221891 0
27.270000 0.251964 0
27.275000 0.281632 0
27.280000 0.310240 0
27.285000 0.337105 0
27.290000 0.361544 0
27.295000 0.382899 0
27.300000 0.400568 0
27.305000 0.414033 0
27.310000 0.422881 0
27.315000 0.426829 5
27.320000 0.425734 0
27.325000 0.419604 0
27.330000 0.408596 0
27.335000 0.393007 0
27.340000 0.373266 0
27.345000 0.349908 0
27.350000 0.323550 0
27.355000 0.294868 0
27.360000 0.264563 0
27.365000 0.233335 0
27.370000 0.201854 0
27.375000 0.170741 0
27.380000 0.140547 0
27.385000 0.111739 0
27.390000 0.084694 0
27.395000 0.059691 0
27.400000 0.036921 0
27.405000 0.016483 0
27.410000 -0.001598 0
27.415000 -0.017366 0
27.420000 -0.030922 0
27.425000 -0.042404 0
27.430000 -0.051984 0
27.435000 -0.059849 0
27.440000 -0.066195 0
27.445000 -0.071218 0
27.450000 -0.075106 0
27.455000 -0.078035 0
27.460000 -0.080164 0
27.465000 -0.081638 0
27.470000 -0.082579 0
27.475000 -0.082899 0
27.480000 -0.082056 0
27.485000 -0.081218 0
27.490000 -0.080383 0
27.495000 -0.079553 0
27.500000 -0.078726 0
27.505000 -0.077904 0
27.510000 -0.077086 0
27.515000 -0.076271 0
27.520000 -0.075459 0
27.525000 -0.074650 0
27.530000 -0.073841 0
27.535000 -0.073029 0
27.540000 -0.072208 0
27.545000 -0.071367 0
27.550000 -0.070489 0
27.555000 -0.069544 0
27.560000 -0.068485 0
27.565000 -0.067240 0
27.570000 -0.065704 0
27.575000 -0.063725 0
27.580000 -0.061095 0
27.585000 -0.057542 0
27.590000 -0.052723 0
27.595000 -0.046233 0
27.600000 -0.037617 0
27.605000 -0.026408 0
27.610000 -0.012173 0
27.615000 0.005415 0
27.620000 0.026504 0
27.625000 0.050982 0
27.630000 0.078410 0
27.635000 0.107981 0
27.640000 0.138526 0
27.645000 0.168557 0
27.650000 0.196383 0
27.655000 0.220253 0
27.660000 0.238536 0
27.665000 0.249907 0
27.670000 0.253504 1
27.675000 0.249032 0
27.680000 0.236805 0
27.685000 0.217711 0
27.690000 0.193097 0
27.695000 0.164618 0
27.700000 0.134043 0
27.705000 0.103046 0
27.710000 0.072958 0
27.715000 0.044401 0
27.720000 0.016730 0
27.725000 -0.012571 0
27.730000 -0.047804 0
27.735000 -0.093051 0
27.740000 -0.147749 0
27.745000 -0.201827 0
27.750000 -0.234371 2
27.755000 -0.217798 0
27.760000 -0.125076 0
27.765000 0.062417 0
27.770000 0.343428 0
27.775000 0.680277 0
27.780000 0.990793 0
27.785000 1.171135 3
27.790000 1.149315 0
27.795000 0.930175 0
27.800000 0.590641 0
27.805000 0.233347 0
27.810000 -0.061721 0
27.815000 -0.255292 0
27.820000 -0.341920 4
27.825000 -0.338733 0
27.830000 -0.277130 0
27.835000 -0.192802 0
27.840000 -0.113761 0
27.845000 -0.053159 0
27.850000 -0.010931 0
27.855000 0.019314 0
27.860000 0.044197 0
27.865000 0.067990 0
27.870000 0.092690 0
27.875000 0.118929 0
27.880000 0.146696 0
27.885000 0.175707 0
27.890000 0.205538 0
27.895000 0.235671 0
27.900000 0.265519 0
27.905000 0.294440 0
27.910000 0.321762 0
27.915000 0.346805 0
27.920000 0.368909 0
27.925000 0.387467 0
27.930000 0.401942 0
27.935000 0.411903 0
27.940000 0.417038 0
27.945000 0.417174 5
27.950000 0.412283 0
27.955000 0.402485 0
27.960000 0.388043 0
27.965000 0.369351 0
27.970000 0.346914 0
27.975000 0.321325 0
27.980000 0.293243 0
27.985000 0.263356 0
27.990000 0.232362 0
27.995000 0.200936 0
28.000000 0.169707 0
28.005000 0.139244 0
28.010000 0.110034 0
28.015000 0.082477 0
28.020000 0.056879 0
28.025000 0.033455 0
28.030000 0.012332 0
28.035000 -0.006446 0
28.040000 -0.022902 0
28.045000 -0.037118 0
28.050000 -0.049220 0
28.055000 -0.059369 0
28.060000 -0.067746 0
28.065000 -0.074545 0
28.070000 -0.079960 0
28.075000 -0.084179 0
28.080000 -0.087383 0
28.085000 -0.089736 0
28.090000 -0.091385 0
28.095000 -0.092462 0
28.100000 -0.093078 0
28.105000 -0.092402 0
28.110000 -0.091512 0
28.115000 -0.090626 0
28.120000 -0.089744 0
28.125000 -0.088867 0
28.130000 -0.087994 0
28.135000 -0.087126 0
28.140000 -0.086261 0
28.145000 -0.085400 0
28.150000 -0.084542 0
28.155000 -0.083686 0
28.160000 -0.082828 0
28.165000 -0.081965 0
28.170000 -0.081088 0
28.175000 -0.080183 0
28.180000 -0.079227 0
28.185000 -0.078181 0
28.190000 -0.076988 0
28.195000 -0.075559 0
28.200000 -0.073767 0
28.205000 -0.071433 0
28.210000 -0.068320 0
28.215000 -0.064122 0
28.220000 -0.058466 0
28.225000 -0.050923 0
28.230000 -0.041030 0
28.235000 -0.028336 0
28.240000 -0.012453 0
28.245000 0.006865 0
28.250000 0.029651 0
28.255000 0.055645 0
28.260000 0.084242 0
28.265000 0.114471 0
28.270000 0.145018 0
28.275000 0.174300 0
28.280000 0.200593 0
28.285000 0.222194 0
28.290000 0.237602 0
28.295000 0.245688 0
28.300000 0.245835 1
28.305000 0.238011 0
28.310000 0.222779 0
28.315000 0.201227 0
28.320000 0.174839 0
28.325000 0.145325 0
28.330000 0.114427 0
28.335000 0.083698 0
28.340000 0.054231 0
28.345000 0.026225 0
28.350000 -0.001623 0
28.355000 -0.032572 0
28.360000 -0.071177 0
28.365000 -0.120374 0
28.370000 -0.176579 0
28.375000 -0.225749 0
28.380000 -0.244050 2
28.385000 -0.203488 0
28.390000 -0.079248 0
28.395000 0.141912 0
28.400000 0.448304 0
