0.000000 1.132239 3
0.005000 1.053330 0
0.010000 0.851675 0
0.015000 0.576162 0
0.020000 0.284773 0
0.025000 0.025294 0
0.030000 -0.173484 0
0.035000 -0.300668 0
0.040000 -0.358501 4
0.045000 -0.358474 0
0.050000 -0.318356 0
0.055000 -0.258350 0
0.060000 -0.196279 0
0.065000 -0.143746 0
0.070000 -0.105118 0
0.075000 -0.079260 0
0.080000 -0.062433 0
0.085000 -0.050698 0
0.090000 -0.041105 0
0.095000 -0.031859 0
0.100000 -0.022025 0
0.105000 -0.011157 0
0.110000 0.000953 0
0.115000 0.014410 0
0.120000 0.029266 0
0.125000 0.045542 0
0.130000 0.063225 0
0.135000 0.082269 0
0.140000 0.102591 0
0.145000 0.124069 0
0.150000 0.146540 0
0.155000 0.169797 0
0.160000 0.193596 0
0.165000 0.217653 0
0.170000 0.241652 0
0.175000 0.265249 0
0.180000 0.288081 0
0.185000 0.309772 0
0.190000 0.329948 0
0.195000 0.348241 0
0.200000 0.364305 0
0.205000 0.377824 0
0.210000 0.388523 0
0.215000 0.396176 0
0.220000 0.400617 0
0.225000 0.401741 5
0.230000 0.399510 0
0.235000 0.393957 0
0.240000 0.385179 0
0.245000 0.373341 0
0.250000 0.358664 0
0.255000 0.341425 0
0.260000 0.321942 0
0.265000 0.300566 0
0.270000 0.277672 0
0.275000 0.253646 0
0.280000 0.228875 0
0.285000 0.203736 0
0.290000 0.178591 0
0.295000 0.153770 0
0.300000 0.129573 0
0.305000 0.106262 0
0.310000 0.084056 0
0.315000 0.063132 0
0.320000 0.043625 0
0.325000 0.025625 0
0.330000 0.009185 0
0.335000 -0.005678 0
0.340000 -0.018980 0
0.345000 -0.030762 0
0.350000 -0.041090 0
0.355000 -0.050045 0
0.360000 -0.057724 0
0.365000 -0.064228 0
0.370000 -0.069665 0
0.375000 -0.074146 0
0.380000 -0.077777 0
0.385000 -0.080661 0
0.390000 -0.082897 0
0.395000 -0.084573 0
0.400000 -0.085773 0
0.405000 -0.086571 0
0.410000 -0.087032 0
0.415000 -0.087216 0
0.420000 -0.087171 0
0.425000 -0.086940 0
0.430000 -0.086561 0
0.435000 -0.086063 0
0.440000 -0.085471 0
0.445000 -0.084806 0
0.450000 -0.084085 0
0.455000 -0.083302 0
0.460000 -0.082402 0
0.465000 -0.081506 0
0.470000 -0.080615 0
0.475000 -0.079729 0
0.480000 -0.078847 0
0.485000 -0.077969 0
0.490000 -0.077095 0
0.495000 -0.076226 0
0.500000 -0.075362 0
0.505000 -0.074501 0
0.510000 -0.073645 0
0.515000 -0.072793 0
0.520000 -0.071946 0
0.525000 -0.071102 0
0.530000 -0.070263 0
0.535000 -0.069428 0
0.540000 -0.068597 0
0.545000 -0.067770 0
0.550000 -0.066948 0
0.555000 -0.066129 0
0.560000 -0.065314 0
0.565000 -0.064503 0
0.570000 -0.063695 0
0.575000 -0.062891 0
0.580000 -0.062087 0
0.585000 -0.061284 0
0.590000 -0.060479 0
0.595000 -0.059667 0
0.600000 -0.058842 0
0.605000 -0.057994 0
0.610000 -0.057106 0
0.615000 -0.056157 0
0.620000 -0.055114 0
0.625000 -0.053931 0
0.630000 -0.052544 0
0.635000 -0.050870 0
0.640000 -0.048798 0
0.645000 -0.046189 0
0.650000 -0.042874 0
0.655000 -0.038652 0
0.660000 -0.033294 0
0.665000 -0.026549 0
0.670000 -0.018162 0
0.675000 -0.007885 0
0.680000 0.004495 0
0.685000 0.019128 0
0.690000 0.036074 0
0.695000 0.055271 0
0.700000 0.076510 0
0.705000 0.099416 0
0.710000 0.123447 0
0.715000 0.147899 0
0.720000 0.171932 0
0.725000 0.194618 0
0.730000 0.214990 0
0.735000 0.232116 0
0.740000 0.245165 0
0.745000 0.253472 0
0.750000 0.256601 1
0.755000 0.254373 0
0.760000 0.246890 0
0.765000 0.234523 0
0.770000 0.217884 0
0.775000 0.197772 0
0.780000 0.175114 0
0.785000 0.150890 0
0.790000 0.126066 0
0.795000 0.101529 0
0.800000 0.078040 0
0.805000 0.056182 0
0.810000 0.036318 0
0.815000 0.018504 0
0.820000 0.002355 0
0.825000 -0.013173 0
0.830000 -0.029966 0
0.835000 -0.050673 0
0.840000 -0.077994 0
0.845000 -0.113149 0
0.850000 -0.153862 0
0.855000 -0.192863 0
0.860000 -0.217957 2
0.865000 -0.213903 0
0.870000 -0.165207 0
0.875000 -0.058968 0
0.880000 0.111726 0
0.885000 0.342448 0
0.890000 0.610768 0
0.895000 0.873217 0
0.900000 1.072459 0
0.905000 1.156046 3
0.910000 1.097377 0
0.915000 0.909712 0
0.920000 0.640009 0
0.925000 0.347611 0
0.930000 0.083208 0
0.935000 -0.121731 0
0.940000 -0.254620 0
0.945000 -0.316878 0
0.950000 -0.319731 4
0.955000 -0.281092 0
0.960000 -0.221611 0
0.965000 -0.159650 0
0.970000 -0.107219 0
0.975000 -0.068839 0
0.980000 -0.043335 0
0.985000 -0.026873 0
0.990000 -0.015443 0
0.995000 -0.006073 0
1.000000 0.003018 0
1.005000 0.012747 0
1.010000 0.023546 0
1.015000 0.035617 0
1.020000 0.049058 0
1.025000 0.063920 0
1.030000 0.080220 0
1.035000 0.097941 0
1.040000 0.117031 0
1.045000 0.137399 0
1.050000 0.158912 0
1.055000 0.181395 0
1.060000 0.204632 0
1.065000 0.228362 0
1.070000 0.252287 0
1.075000 0.276079 0
1.080000 0.299378 0
1.085000 0.321810 0
1.090000 0.342990 0
1.095000 0.362534 0
1.100000 0.380072 0
1.105000 0.395257 0
1.110000 0.407778 0
1.115000 0.417368 0
1.120000 0.423816 0
1.125000 0.426971 5
1.130000 0.426750 0
1.135000 0.423140 0
1.140000 0.416199 0
1.145000 0.406055 0
1.150000 0.392898 0
1.155000 0.376981 0
1.160000 0.358603 0
1.165000 0.338107 0
1.170000 0.315864 0
1.175000 0.292265 0
1.180000 0.267705 0
1.185000 0.242577 0
1.190000 0.217261 0
1.195000 0.192111 0
1.200000 0.167450 0
1.205000 0.143565 0
1.210000 0.120702 0
1.215000 0.099060 0
1.220000 0.078796 0
1.225000 0.060023 0
1.230000 0.042810 0
1.235000 0.027189 0
1.240000 0.013158 0
1.245000 0.000681 0
1.250000 -0.010297 0
1.255000 -0.019857 0
1.260000 -0.028090 0
1.265000 -0.035099 0
1.270000 -0.040995 0
1.275000 -0.045889 0
1.280000 -0.049891 0
1.285000 -0.053107 0
1.290000 -0.055641 0
1.295000 -0.057585 0
1.300000 -0.059027 0
1.305000 -0.060044 0
1.310000 -0.060706 0
1.315000 -0.061074 0
1.320000 -0.061201 0
1.325000 -0.061132 0
1.330000 -0.060905 0
1.335000 -0.060553 0
1.340000 -0.060102 0
1.345000 -0.059573 0
1.350000 -0.058985 0
1.355000 -0.058331 0
1.360000 -0.057555 0
1.365000 -0.056784 0
1.370000 -0.056016 0
1.375000 -0.055252 0
1.380000 -0.054492 0
1.385000 -0.053736 0
1.390000 -0.052983 0
1.395000 -0.052234 0
1.400000 -0.051489 0
1.405000 -0.050748 0
1.410000 -0.050010 0
1.415000 -0.049276 0
1.420000 -0.048546 0
1.425000 -0.047819 0
1.430000 -0.047096 0
1.435000 -0.046377 0
1.440000 -0.045661 0
1.445000 -0.044949 0
1.450000 -0.044240 0
1.455000 -0.043534 0
1.460000 -0.042832 0
1.465000 -0.042133 0
1.470000 -0.041437 0
1.475000 -0.040743 0
1.480000 -0.040049 0
1.485000 -0.039355 0
1.490000 -0.038658 0
1.495000 -0.037952 0
1.500000 -0.037230 0
1.505000 -0.036481 0
1.510000 -0.035687 0
1.515000 -0.034824 0
1.520000 -0.033854 0
1.525000 -0.032726 0
1.530000 -0.031370 0
1.535000 -0.029692 0
1.540000 -0.027572 0
1.545000 -0.024858 0
1.550000 -0.021365 0
1.555000 -0.016877 0
1.560000 -0.011153 0
1.565000 -0.003931 0
1.570000 0.005050 0
1.575000 0.016032 0
1.580000 0.029211 0
1.585000 0.044709 0
1.590000 0.062538 0
1.595000 0.082572 0
1.600000 0.104527 0
1.605000 0.127941 0
1.610000 0.152181 0
1.615000 0.176457 0
1.620000 0.199858 0
1.625000 0.221408 0
1.630000 0.240128 0
1.635000 0.255106 0
1.640000 0.265576 0
1.645000 0.270979 0
1.650000 0.271008 1
1.655000 0.265644 0
1.660000 0.255152 0
1.665000 0.240060 0
1.670000 0.221118 0
1.675000 0.199230 0
1.680000 0.175387 0
1.685000 0.150590 0
1.690000 0.125783 0
1.695000 0.101793 0
1.700000 0.079282 0
1.705000 0.058700 0
1.710000 0.040212 0
1.715000 0.023578 0
1.720000 0.007944 0
1.725000 -0.008375 0
1.730000 -0.027921 0
1.735000 -0.053556 0
1.740000 -0.087064 0
1.745000 -0.127096 0
1.750000 -0.167371 0
1.755000 -0.196340 0
1.760000 -0.198801 2
1.765000 -0.158735 0
1.770000 -0.062292 0
1.775000 0.098856 0
1.780000 0.322280 0
1.785000 0.587826 0
1.790000 0.853538 0
1.795000 1.061607 0
1.800000 1.156873 3
1.805000 1.111390 0
1.810000 0.937102 0
1.815000 0.675689 0
1.820000 0.383100 0
1.825000 0.109853 0
1.830000 -0.110372 0
1.835000 -0.261971 0
1.840000 -0.343365 0
1.845000 -0.362869 4
1.850000 -0.335815 0
1.855000 -0.281395 0
1.860000 -0.218356 0
1.865000 -0.160747 0
1.870000 -0.115757 0
1.875000 -0.084349 0
1.880000 -0.063719 0
1.885000 -0.049923 0
1.890000 -0.039554 0
1.895000 -0.030319 0
1.900000 -0.020921 0
1.905000 -0.010707 0
1.910000 0.000631 0
1.915000 0.013240 0
1.920000 0.027198 0
1.925000 0.042543 0
1.930000 0.059282 0
1.935000 0.077393 0
1.940000 0.096819 0
1.945000 0.117468 0
1.950000 0.139208 0
1.955000 0.161871 0
1.960000 0.185246 0
1.965000 0.209086 0
1.970000 0.233109 0
1.975000 0.257002 0
1.980000 0.280427 0
1.985000 0.303031 0
1.990000 0.324450 0
1.995000 0.344320 0
2.000000 0.362289 0
2.005000 0.378026 0
2.010000 0.391228 0
2.015000 0.401635 0
2.020000 0.409031 0
2.025000 0.413259 0
2.030000 0.414222 5
2.035000 0.411885 0
2.040000 0.406280 0
2.045000 0.397502 0
2.050000 0.385709 0
2.055000 0.371115 0
2.060000 0.353984 0
2.065000 0.334621 0
2.070000 0.313365 0
2.075000 0.290577 0
2.080000 0.266630 0
2.085000 0.241899 0
2.090000 0.216751 0
2.095000 0.191538 0
2.100000 0.166588 0
2.105000 0.142196 0
2.110000 0.118624 0
2.115000 0.096093 0
2.120000 0.074786 0
2.125000 0.054842 0
2.130000 0.036361 0
2.135000 0.019404 0
2.140000 0.003999 0
2.145000 -0.009860 0
2.150000 -0.022207 0
2.155000 -0.033096 0
2.160000 -0.042600 0
2.165000 -0.050809 0
2.170000 -0.057819 0
2.175000 -0.063733 0
2.180000 -0.068656 0
2.185000 -0.072695 0
2.190000 -0.075950 0
2.195000 -0.078519 0
2.200000 -0.080493 0
2.205000 -0.081956 0
2.210000 -0.082985 0
2.215000 -0.083647 0
2.220000 -0.084003 0
2.225000 -0.084106 0
2.230000 -0.084002 0
2.235000 -0.083729 0
2.240000 -0.083320 0
2.245000 -0.082804 0
2.250000 -0.082202 0
2.255000 -0.081535 0
2.260000 -0.080816 0
2.265000 -0.079954 0
2.270000 -0.079070 0
2.275000 -0.078191 0
2.280000 -0.077317 0
2.285000 -0.076447 0
2.290000 -0.075581 0
2.295000 -0.074719 0
2.300000 -0.073862 0
2.305000 -0.073009 0
2.310000 -0.072161 0
2.315000 -0.071316 0
2.320000 -0.070476 0
2.325000 -0.069640 0
2.330000 -0.068808 0
2.335000 -0.067980 0
2.340000 -0.067157 0
2.345000 -0.066337 0
2.350000 -0.065522 0
2.355000 -0.064710 0
2.360000 -0.063903 0
2.365000 -0.063099 0
2.370000 -0.062300 0
2.375000 -0.061504 0
2.380000 -0.060711 0
2.385000 -0.059921 0
2.390000 -0.059133 0
2.395000 -0.058346 0
2.400000 -0.057556 0
2.405000 -0.056762 0
2.410000 -0.055955 0
2.415000 -0.055128 0
2.420000 -0.054267 0
2.425000 -0.053352 0
2.430000 -0.052354 0
2.435000 -0.051232 0
2.440000 -0.049930 0
2.445000 -0.048374 0
2.450000 -0.046465 0
2.455000 -0.044079 0
2.460000 -0.041063 0
2.465000 -0.037232 0
2.470000 -0.032375 0
2.475000 -0.026257 0
2.480000 -0.018631 0
2.485000 -0.009252 0
2.490000 0.002106 0
2.495000 0.015618 0
2.500000 0.031390 0
2.505000 0.049422 0
2.510000 0.069589 0
2.515000 0.091614 0
2.520000 0.115062 0
2.525000 0.139337 0
2.530000 0.163698 0
2.535000 0.187293 0
2.540000 0.209200 0
2.545000 0.228490 0
2.550000 0.244286 0
2.555000 0.255832 0
2.560000 0.262553 0
2.565000 0.264097 1
2.570000 0.260372 0
2.575000 0.251549 0
2.580000 0.238051 0
2.585000 0.220521 0
2.590000 0.199765 0
2.595000 0.176697 0
2.600000 0.152269 0
2.605000 0.127406 0
2.610000 0.102951 0
2.615000 0.079618 0
2.620000 0.057948 0
2.625000 0.038262 0
2.630000 0.020583 0
2.635000 0.004497 0
2.640000 -0.011053 0
2.645000 -0.027930 0
2.650000 -0.048717 0
2.655000 -0.076024 0
2.660000 -0.111045 0
2.665000 -0.151667 0
2.670000 -0.191035 0
2.675000 -0.217554 2
2.680000 -0.216582 0
2.685000 -0.173033 0
2.690000 -0.074032 0
2.695000 0.088024 0
2.700000 0.310704 0
2.705000 0.575265 0
2.710000 0.842836 0
2.715000 1.059227 0
2.720000 1.170884 3
2.725000 1.146494 0
2.730000 0.990759 0
2.735000 0.740384 0
2.740000 0.449241 0
2.745000 0.168918 0
2.750000 -0.064067 0
2.755000 -0.231078 0
2.760000 -0.328006 0
2.765000 -0.361074 4
2.770000 -0.343898 0
2.775000 -0.294683 0
2.780000 -0.232332 0
2.785000 -0.172169 0
2.790000 -0.123165 0
2.795000 -0.087837 0
2.800000 -0.064261 0
2.805000 -0.048692 0
2.810000 -0.037512 0
2.815000 -0.028103 0
2.820000 -0.018892 0
2.825000 -0.009056 0
2.830000 0.001802 0
2.835000 0.013873 0
2.840000 0.027254 0
2.845000 0.041994 0
2.850000 0.058113 0
2.855000 0.075601 0
2.860000 0.094418 0
2.865000 0.114490 0
2.870000 0.135705 0
2.875000 0.157915 0
2.880000 0.180935 0
2.885000 0.204538 0
2.890000 0.228467 0
2.895000 0.252429 0
2.900000 0.276107 0
2.905000 0.299161 0
2.910000 0.321240 0
2.915000 0.341987 0
2.920000 0.361050 0
2.925000 0.378092 0
2.930000 0.392800 0
2.935000 0.404892 0
2.940000 0.414131 0
2.945000 0.420328 0
2.950000 0.423348 5
2.955000 0.423120 0
2.960000 0.419631 0
2.965000 0.412934 0
2.970000 0.403144 0
2.975000 0.390431 0
2.980000 0.375022 0
2.985000 0.357188 0
2.990000 0.337237 0
2.995000 0.315508 0
3.000000 0.292358 0
3.005000 0.268153 0
3.010000 0.243260 0
3.015000 0.218035 0
3.020000 0.192818 0
3.025000 0.167923 0
3.030000 0.143633 0
3.035000 0.120198 0
3.040000 0.097827 0
3.045000 0.076692 0
3.050000 0.056923 0
3.055000 0.038613 0
3.060000 0.021817 0
3.065000 0.006557 0
3.070000 -0.007176 0
3.075000 -0.019415 0
3.080000 -0.030216 0
3.085000 -0.039654 0
3.090000 -0.047814 0
3.095000 -0.054793 0
3.100000 -0.060691 0
3.105000 -0.065612 0
3.110000 -0.069659 0
3.115000 -0.072930 0
3.120000 -0.075523 0
3.125000 -0.077525 0
3.130000 -0.079019 0
3.135000 -0.080080 0
3.140000 -0.080776 0
3.145000 -0.081165 0
3.150000 -0.081301 0
3.155000 -0.081227 0
3.160000 -0.080983 0
3.165000 -0.080602 0
3.170000 -0.080112 0
3.175000 -0.079534 0
3.180000 -0.078889 0
3.185000 -0.078191 0
3.190000 -0.077343 0
3.195000 -0.076472 0
3.200000 -0.075606 0
3.205000 -0.074745 0
3.210000 -0.073887 0
3.215000 -0.073034 0
3.220000 -0.072186 0
3.225000 -0.071341 0
3.230000 -0.070501 0
3.235000 -0.069664 0
3.240000 -0.068832 0
3.245000 -0.068005 0
3.250000 -0.067181 0
3.255000 -0.066361 0
3.260000 -0.065546 0
3.265000 -0.064734 0
3.270000 -0.063927 0
3.275000 -0.063124 0
3.280000 -0.062324 0
3.285000 -0.061529 0
3.290000 -0.060737 0
3.295000 -0.059949 0
3.300000 -0.059165 0
3.305000 -0.058384 0
3.310000 -0.057607 0
3.315000 -0.056831 0
3.320000 -0.056057 0
3.325000 -0.055282 0
3.330000 -0.054504 0
3.335000 -0.053717 0
3.340000 -0.052915 0
3.345000 -0.052086 0
3.350000 -0.051215 0
3.355000 -0.050278 0
3.360000 -0.049242 0
3.365000 -0.048060 0
3.370000 -0.046669 0
3.375000 -0.044988 0
3.380000 -0.042910 0
3.385000 -0.040300 0
3.390000 -0.036997 0
3.395000 -0.032810 0
3.400000 -0.027522 0
3.405000 -0.020898 0
3.410000 -0.012693 0
3.415000 -0.002674 0
3.420000 0.009366 0
3.425000 0.023580 0
3.430000 0.040041 0
3.435000 0.058714 0
3.440000 0.079433 0
3.445000 0.101885 0
3.450000 0.125597 0
3.455000 0.149948 0
3.460000 0.174182 0
3.465000 0.197443 0
3.470000 0.218822 0
3.475000 0.237417 0
3.480000 0.252390 0
3.485000 0.263031 0
3.490000 0.268816 0
3.495000 0.269447 1
3.500000 0.264875 0
3.505000 0.255309 0
3.510000 0.241198 0
3.515000 0.223193 0
3.520000 0.202103 0
3.525000 0.178828 0
3.530000 0.154300 0
3.535000 0.129419 0
3.540000 0.105002 0
3.545000 0.081736 0
3.550000 0.060138 0
3.555000 0.040514 0
3.560000 0.022871 0
3.565000 0.006791 0
3.570000 -0.008770 0
3.575000 -0.025639 0
3.580000 -0.046339 0
3.585000 -0.073440 0
3.590000 -0.108178 0
3.595000 -0.148650 0
3.600000 -0.188397 0
3.605000 -0.216326 0
3.610000 -0.218240 2
3.615000 -0.179310 0
3.620000 -0.086621 0
3.625000 0.067996 0
3.630000 0.283621 0
3.635000 0.544268 0
3.640000 0.814579 0
3.645000 1.042984 0
3.650000 1.175557 0
3.655000 1.176184 3
3.660000 1.041065 0
3.665000 0.801235 0
3.670000 0.512000 0
3.675000 0.228793 0
3.680000 -0.008209 0
3.685000 -0.178178 0
3.690000 -0.276238 0
3.695000 -0.308801 4
3.700000 -0.290271 0
3.705000 -0.239910 0
3.710000 -0.177481 0
3.715000 -0.118568 0
3.720000 -0.071765 0
3.725000 -0.038895 0
3.730000 -0.017430 0
3.735000 -0.003339 0
3.740000 0.006988 0
3.745000 0.016017 0
3.750000 0.025151 0
3.755000 0.035091 0
3.760000 0.046166 0
3.765000 0.058531 0
3.770000 0.072268 0
3.775000 0.087415 0
3.780000 0.103980 0
3.785000 0.121938 0
3.790000 0.141229 0
3.795000 0.161755 0
3.800000 0.183379 0
3.805000 0.205922 0
3.810000 0.229164 0
3.815000 0.252844 0
3.820000 0.276668 0
3.825000 0.300308 0
3.830000 0.323414 0
3.835000 0.345618 0
3.840000 0.366544 0
3.845000 0.385819 0
3.850000 0.403085 0
3.855000 0.418005 0
3.860000 0.430279 0
3.865000 0.439649 0
3.870000 0.445912 0
3.875000 0.448921 5
3.880000 0.448598 0
3.885000 0.444929 0
3.890000 0.437971 0
3.895000 0.427845 0
3.900000 0.414736 0
3.905000 0.398887 0
3.910000 0.380588 0
3.915000 0.360169 0
3.920000 0.337991 0
3.925000 0.314432 0
3.930000 0.289878 0
3.935000 0.264715 0
3.940000 0.239313 0
3.945000 0.214022 0
3.950000 0.189163 0
3.955000 0.165023 0
3.960000 0.141848 0
3.965000 0.119843 0
3.970000 0.099170 0
3.975000 0.079947 0
3.980000 0.062252 0
3.985000 0.046127 0
3.990000 0.031575 0
3.995000 0.018573 0
4.000000 0.007070 0
4.005000 -0.003005 0
4.010000 -0.011738 0
4.015000 -0.019227 0
4.020000 -0.025577 0
4.025000 -0.030896 0
4.030000 -0.035293 0
4.035000 -0.038875 0
4.040000 -0.041741 0
4.045000 -0.043987 0
4.050000 -0.045702 0
4.055000 -0.046963 0
4.060000 -0.047844 0
4.065000 -0.048407 0
4.070000 -0.048708 0
4.075000 -0.048793 0
4.080000 -0.048705 0
4.085000 -0.048476 0
4.090000 -0.048136 0
4.095000 -0.047708 0
4.100000 -0.047212 0
4.105000 -0.046664 0
4.110000 -0.045972 0
4.115000 -0.045258 0
4.120000 -0.044547 0
4.125000 -0.043841 0
4.130000 -0.043138 0
4.135000 -0.042438 0
4.140000 -0.041742 0
4.145000 -0.041049 0
4.150000 -0.040360 0
4.155000 -0.039674 0
4.160000 -0.038991 0
4.165000 -0.038312 0
4.170000 -0.037637 0
4.175000 -0.036964 0
4.180000 -0.036296 0
4.185000 -0.035630 0
4.190000 -0.034968 0
4.195000 -0.034309 0
4.200000 -0.033653 0
4.205000 -0.033001 0
4.210000 -0.032351 0
4.215000 -0.031705 0
4.220000 -0.031061 0
4.225000 -0.030420 0
4.230000 -0.029780 0
4.235000 -0.029142 0
4.240000 -0.028502 0
4.245000 -0.027857 0
4.250000 -0.027205 0
4.255000 -0.026535 0
4.260000 -0.025838 0
4.265000 -0.025097 0
4.270000 -0.024286 0
4.275000 -0.023370 0
4.280000 -0.022298 0
4.285000 -0.021003 0
4.290000 -0.019396 0
4.295000 -0.017358 0
4.300000 -0.014744 0
4.305000 -0.011377 0
4.310000 -0.007050 0
4.315000 -0.001526 0
4.320000 0.005445 0
4.325000 0.014119 0
4.330000 0.024736 0
4.335000 0.037497 0
4.340000 0.052533 0
4.345000 0.069877 0
4.350000 0.089433 0
4.355000 0.110957 0
4.360000 0.134035 0
4.365000 0.158087 0
4.370000 0.182376 0
4.375000 0.206040 0
4.380000 0.228140 0
4.385000 0.247712 0
4.390000 0.263844 0
4.395000 0.275739 0
4.400000 0.282781 0
4.405000 0.284588 1
4.410000 0.281045 0
4.415000 0.272314 0
4.420000 0.258820 0
4.425000 0.241220 0
4.430000 0.220343 0
4.435000 0.197132 0
4.440000 0.172567 0
4.445000 0.147598 0
4.450000 0.123090 0
4.455000 0.099767 0
4.460000 0.078168 0
4.465000 0.058602 0
4.470000 0.041047 0
4.475000 0.025005 0
4.480000 0.009274 0
4.485000 -0.008201 0
4.490000 -0.030155 0
4.495000 -0.059135 0
4.500000 -0.095829 0
4.505000 -0.137071 0
4.510000 -0.174587 0
4.515000 -0.195434 2
4.520000 -0.184137 0
4.525000 -0.125519 0
4.530000 -0.007542 0
4.535000 0.175041 0
4.540000 0.414947 0
4.545000 0.685918 0
4.550000 0.941131 0
4.555000 1.122628 0
4.560000 1.181458 3
4.565000 1.098423 0
4.570000 0.893119 0
4.575000 0.615656 0
4.580000 0.324572 0
4.585000 0.067421 0
4.590000 -0.127681 0
4.595000 -0.250599 0
4.600000 -0.304281 4
4.605000 -0.300882 0
4.610000 -0.258706 0
4.615000 -0.198172 0
4.620000 -0.136882 0
4.625000 -0.085896 0
4.630000 -0.048977 0
4.635000 -0.024570 0
4.640000 -0.008777 0
4.645000 0.002307 0
4.650000 0.011522 0
4.655000 0.020550 0
4.660000 0.030253 0
4.665000 0.041038 0
4.670000 0.053094 0
4.675000 0.066516 0
4.680000 0.081353 0
4.685000 0.097619 0
4.690000 0.115297 0
4.695000 0.134334 0
4.700000 0.154639 0
4.705000 0.176081 0
4.710000 0.198486 0
4.715000 0.221638 0
4.720000 0.245281 0
4.725000 0.269121 0
4.730000 0.292831 0
4.735000 0.316059 0
4.740000 0.338434 0
4.745000 0.359575 0
4.750000 0.379103 0
4.755000 0.396651 0
4.760000 0.411875 0
4.765000 0.424466 0
4.770000 0.434157 0
4.775000 0.440735 0
4.780000 0.444047 5
4.785000 0.444007 0
4.790000 0.440596 0
4.795000 0.433866 0
4.800000 0.423936 0
4.805000 0.410991 0
4.810000 0.395273 0
4.815000 0.377074 0
4.820000 0.356729 0
4.825000 0.334602 0
4.830000 0.311077 0
4.835000 0.286547 0
4.840000 0.261399 0
4.845000 0.236012 0
4.850000 0.210741 0
4.855000 0.185909 0
4.860000 0.161807 0
4.865000 0.138683 0
4.870000 0.116745 0
4.875000 0.096153 0
4.880000 0.077027 0
4.885000 0.059443 0
4.890000 0.043439 0
4.895000 0.029020 0
4.900000 0.016157 0
4.905000 0.004798 0
4.910000 -0.005131 0
4.915000 -0.013719 0
4.920000 -0.021066 0
4.925000 -0.027279 0
4.930000 -0.032468 0
4.935000 -0.036742 0
4.940000 -0.040210 0
4.945000 -0.042973 0
4.950000 -0.045125 0
4.955000 -0.046755 0
4.960000 -0.047942 0
4.965000 -0.048758 0
4.970000 -0.049264 0
4.975000 -0.049515 0
4.980000 -0.049559 0
4.985000 -0.049435 0
4.990000 -0.049176 0
4.995000 -0.048811 0
5.000000 -0.048362 0
5.005000 -0.047849 0
5.010000 -0.047286 0
5.015000 -0.046588 0
5.020000 -0.045871 0
5.025000 -0.045158 0
5.030000 -0.044448 0
5.035000 -0.043742 0
5.040000 -0.043039 0
5.045000 -0.042340 0
5.050000 -0.041645 0
5.055000 -0.040952 0
5.060000 -0.040263 0
5.065000 -0.039578 0
5.070000 -0.038896 0
5.075000 -0.038218 0
5.080000 -0.037542 0
5.085000 -0.036871 0
5.090000 -0.036202 0
5.095000 -0.035537 0
5.100000 -0.034875 0
5.105000 -0.034217 0
5.110000 -0.033561 0
5.115000 -0.032909 0
5.120000 -0.032260 0
5.125000 -0.031613 0
5.130000 -0.030969 0
5.135000 -0.030325 0
5.140000 -0.029682 0
5.145000 -0.029037 0
5.150000 -0.028385 0
5.155000 -0.027722 0
5.160000 -0.027038 0
5.165000 -0.026319 0
5.170000 -0.025544 0
5.175000 -0.024683 0
5.180000 -0.023695 0
5.185000 -0.022518 0
5.190000 -0.021075 0
5.195000 -0.019261 0
5.200000 -0.016942 0
5.205000 -0.013955 0
5.210000 -0.010102 0
5.215000 -0.005158 0
5.220000 0.001126 0
5.225000 0.009010 0
5.230000 0.018747 0
5.235000 0.030561 0
5.240000 0.044621 0
5.245000 0.061005 0
5.250000 0.079675 0
5.255000 0.100448 0
5.260000 0.122975 0
5.265000 0.146734 0
5.270000 0.171037 0
5.275000 0.195056 0
5.280000 0.217858 0
5.285000 0.238469 0
5.290000 0.255937 0
5.295000 0.269403 0
5.300000 0.278172 0
5.305000 0.281770 1
5.310000 0.279988 0
5.315000 0.272897 0
5.320000 0.260847 0
5.325000 0.244435 0
5.330000 0.224455 0
5.335000 0.201835 0
5.340000 0.177567 0
5.345000 0.152629 0
5.350000 0.127927 0
5.355000 0.104239 0
5.360000 0.082167 0
5.365000 0.062088 0
5.370000 0.044077 0
5.375000 0.027762 0
5.380000 0.012113 0
5.385000 -0.004758 0
5.390000 -0.025517 0
5.395000 -0.052903 0
5.400000 -0.088165 0
5.405000 -0.129010 0
5.410000 -0.168063 0
5.415000 -0.192951 2
5.420000 -0.188231 0
5.425000 -0.138259 0
5.430000 -0.030099 0
5.435000 0.142961 0
5.440000 0.375855 0
5.445000 0.644956 0
5.450000 0.905320 0
5.455000 1.098658 0
5.460000 1.173019 3
5.465000 1.105621 0
5.470000 0.913212 0
5.475000 0.642124 0
5.480000 0.349662 0
5.485000 0.084637 0
5.490000 -0.122386 0
5.495000 -0.258813 0
5.500000 -0.325484 0
5.505000 -0.332700 4
5.510000 -0.297325 0
5.515000 -0.239230 0
5.520000 -0.176657 0
5.525000 -0.122185 0
5.530000 -0.081250 0
5.535000 -0.053472 0
5.540000 -0.035418 0
5.545000 -0.023112 0
5.550000 -0.013415 0
5.555000 -0.004345 0
5.560000 0.005165 0
5.565000 0.015633 0
5.570000 0.027300 0
5.575000 0.040286 0
5.580000 0.054653 0
5.585000 0.070428 0
5.590000 0.087607 0
5.595000 0.106153 0
5.600000 0.125994 0
5.605000 0.147021 0
5.610000 0.169083 0
5.615000 0.191989 0
5.620000 0.215509 0
5.625000 0.239374 0
5.630000 0.263281 0
5.635000 0.286899 0
5.640000 0.309875 0
5.645000 0.331843 0
5.650000 0.352429 0
5.655000 0.371269 0
5.660000 0.388014 0
5.665000 0.402338 0
5.670000 0.413957 0
5.675000 0.422628 0
5.680000 0.428165 0
5.685000 0.430440 5
5.690000 0.429391 0
5.695000 0.425023 0
5.700000 0.417405 0
5.705000 0.406674 0
5.710000 0.393027 0
5.715000 0.376714 0
5.720000 0.358031 0
5.725000 0.337314 0
5.730000 0.314921 0
5.735000 0.291231 0
5.740000 0.266627 0
5.745000 0.241485 0
5.750000 0.216171 0
5.755000 0.191026 0
5.760000 0.166362 0
5.765000 0.142455 0
5.770000 0.119543 0
5.775000 0.097822 0
5.780000 0.077446 0
5.785000 0.058525 0
5.790000 0.041132 0
5.795000 0.025301 0
5.800000 0.011034 0
5.805000 -0.001697 0
5.810000 -0.012944 0
5.815000 -0.022780 0
5.820000 -0.031291 0
5.825000 -0.038575 0
5.830000 -0.044737 0
5.835000 -0.049883 0
5.840000 -0.054121 0
5.845000 -0.057555 0
5.850000 -0.060286 0
5.855000 -0.062406 0
5.860000 -0.064003 0
5.865000 -0.065153 0
5.870000 -0.065929 0
5.875000 -0.066391 0
5.880000 -0.066594 0
5.885000 -0.066585 0
5.890000 -0.066405 0
5.895000 -0.066086 0
5.900000 -0.065657 0
5.905000 -0.065142 0
5.910000 -0.064559 0
5.915000 -0.063924 0
5.920000 -0.063146 0
5.925000 -0.062346 0
5.930000 -0.061551 0
5.935000 -0.060759 0
5.940000 -0.059972 0
5.945000 -0.059188 0
5.950000 -0.058408 0
5.955000 -0.057632 0
5.960000 -0.056860 0
5.965000 -0.056092 0
5.970000 -0.055328 0
5.975000 -0.054568 0
5.980000 -0.053811 0
5.985000 -0.053058 0
5.990000 -0.052309 0
5.995000 -0.051563 0
6.000000 -0.050822 0
6.005000 -0.050083 0
6.010000 -0.049349 0
6.015000 -0.048618 0
6.020000 -0.047891 0
6.025000 -0.047167 0
6.030000 -0.046446 0
6.035000 -0.045729 0
6.040000 -0.045013 0
6.045000 -0.044299 0
6.050000 -0.043584 0
6.055000 -0.042866 0
6.060000 -0.042141 0
6.065000 -0.041401 0
6.070000 -0.040637 0
6.075000 -0.039832 0
6.080000 -0.038964 0
6.085000 -0.038000 0
6.090000 -0.036892 0
6.095000 -0.035579 0
6.100000 -0.033976 0
6.105000 -0.031973 0
6.110000 -0.029433 0
6.115000 -0.026188 0
6.120000 -0.022038 0
6.125000 -0.016757 0
6.130000 -0.010100 0
6.135000 -0.001812 0
6.140000 0.008349 0
6.145000 0.020595 0
6.150000 0.035075 0
6.155000 0.051853 0
6.160000 0.070870 0
6.165000 0.091929 0
6.170000 0.114669 0
6.175000 0.138563 0
6.180000 0.162927 0
6.185000 0.186942 0
6.190000 0.209697 0
6.195000 0.230239 0
6.200000 0.247643 0
6.205000 0.261076 0
6.210000 0.269863 0
6.215000 0.273544 1
6.220000 0.271913 0
6.225000 0.265034 0
6.230000 0.253241 0
6.235000 0.237104 0
6.240000 0.217390 0
6.245000 0.194997 0
6.250000 0.170888 0
6.255000 0.146023 0
6.260000 0.121295 0
6.265000 0.097481 0
6.270000 0.075192 0
6.275000 0.054832 0
6.280000 0.036530 0
6.285000 0.020011 0
6.290000 0.004407 0
6.295000 -0.011949 0
6.300000 -0.031531 0
6.305000 -0.057098 0
6.310000 -0.090391 0
6.315000 -0.130217 0
6.320000 -0.170749 0
6.325000 -0.201130 0
6.330000 -0.206886 2
6.335000 -0.172517 0
6.340000 -0.084272 0
6.345000 0.066844 0
6.350000 0.280513 0
6.355000 0.540691 0
6.360000 0.810831 0
6.365000 1.037202 0
6.370000 1.163965 3
6.375000 1.154981 0
6.380000 1.009168 0
6.385000 0.761702 0
6.390000 0.470596 0
6.395000 0.191751 0
6.400000 -0.036042 0
6.405000 -0.194054 0
6.410000 -0.279467 0
6.415000 -0.300606 4
6.420000 -0.273606 0
6.425000 -0.218858 0
6.430000 -0.156142 0
6.435000 -0.099911 0
6.440000 -0.057066 0
6.445000 -0.027947 0
6.450000 -0.009220 0
6.455000 0.003286 0
6.460000 0.012940 0
6.465000 0.021879 0
6.470000 0.031247 0
6.475000 0.041592 0
6.480000 0.053167 0
6.485000 0.066095 0
6.490000 0.080439 0
6.495000 0.096224 0
6.500000 0.113443 0
6.505000 0.132054 0
6.510000 0.151977 0
6.515000 0.173091 0
6.520000 0.195232 0
6.525000 0.218191 0
6.530000 0.241719 0
6.535000 0.265527 0
6.540000 0.289289 0
6.545000 0.312653 0
6.550000 0.335245 0
6.555000 0.356678 0
6.560000 0.376566 0
6.565000 0.394532 0
6.570000 0.410220 0
6.575000 0.423307 0
6.580000 0.433513 0
6.585000 0.440612 0
6.590000 0.444438 0
6.595000 0.444890 5
6.600000 0.441940 0
6.605000 0.435631 0
6.610000 0.426075 0
6.615000 0.413452 0
6.620000 0.398003 0
6.625000 0.380019 0
6.630000 0.359837 0
6.635000 0.337827 0
6.640000 0.314376 0
6.645000 0.289885 0
6.650000 0.264749 0
6.655000 0.239354 0
6.660000 0.214061 0
6.665000 0.189202 0
6.670000 0.165072 0
6.675000 0.141926 0
6.680000 0.119974 0
6.685000 0.099381 0
6.690000 0.080267 0
6.695000 0.062710 0
6.700000 0.046747 0
6.705000 0.032380 0
6.710000 0.019581 0
6.715000 0.008295 0
6.720000 -0.001554 0
6.725000 -0.010059 0
6.730000 -0.017321 0
6.735000 -0.023449 0
6.740000 -0.028556 0
6.745000 -0.032754 0
6.750000 -0.036150 0
6.755000 -0.038848 0
6.760000 -0.040942 0
6.765000 -0.042523 0
6.770000 -0.043668 0
6.775000 -0.044449 0
6.780000 -0.044928 0
6.785000 -0.045159 0
6.790000 -0.045189 0
6.795000 -0.045056 0
6.800000 -0.044794 0
6.805000 -0.044430 0
6.810000 -0.043986 0
6.815000 -0.043481 0
6.820000 -0.042907 0
6.825000 -0.042209 0
6.830000 -0.041514 0
6.835000 -0.040822 0
6.840000 -0.040134 0
6.845000 -0.039449 0
6.850000 -0.038768 0
6.855000 -0.038090 0
6.860000 -0.037415 0
6.865000 -0.036744 0
6.870000 -0.036077 0
6.875000 -0.035412 0
6.880000 -0.034751 0
6.885000 -0.034093 0
6.890000 -0.033438 0
6.895000 -0.032787 0
6.900000 -0.032139 0
6.905000 -0.031494 0
6.910000 -0.030852 0
6.915000 -0.030214 0
6.920000 -0.029578 0
6.925000 -0.028946 0
6.930000 -0.028316 0
6.935000 -0.027689 0
6.940000 -0.027063 0
6.945000 -0.026438 0
6.950000 -0.025812 0
6.955000 -0.025182 0
6.960000 -0.024543 0
6.965000 -0.023888 0
6.970000 -0.023206 0
6.975000 -0.022478 0
6.980000 -0.021679 0
6.985000 -0.020773 0
6.990000 -0.019707 0
6.995000 -0.018410 0
7.000000 -0.016788 0
7.005000 -0.014719 0
7.010000 -0.012049 0
7.015000 -0.008591 0
7.020000 -0.004127 0
7.025000 0.001587 0
7.030000 0.008814 0
7.035000 0.017816 0
7.040000 0.028837 0
7.045000 0.042070 0
7.050000 0.057632 0
7.055000 0.075531 0
7.060000 0.095630 0
7.065000 0.117633 0
7.070000 0.141064 0
7.075000 0.165276 0
7.080000 0.189463 0
7.085000 0.212705 0
7.090000 0.234014 0
7.095000 0.252408 0
7.100000 0.266980 0
7.105000 0.276975 0
7.110000 0.281848 1
7.115000 0.281319 0
7.120000 0.275393 0
7.125000 0.264364 0
7.130000 0.248789 0
7.135000 0.229440 0
7.140000 0.207239 0
7.145000 0.183188 0
7.150000 0.158291 0
7.155000 0.133487 0
7.160000 0.109591 0
7.165000 0.087246 0
7.170000 0.066874 0
7.175000 0.048597 0
7.180000 0.032108 0
7.185000 0.016446 0
7.190000 -0.000206 0
7.195000 -0.020503 0
7.200000 -0.047273 0
7.205000 -0.081989 0
7.210000 -0.122648 0
7.215000 -0.162104 0
7.220000 -0.188018 2
7.225000 -0.184767 0
7.230000 -0.136387 0
7.235000 -0.029590 0
7.240000 0.142632 0
7.245000 0.375304 0
7.250000 0.644464 0
7.255000 0.904293 0
7.260000 1.095450 0
7.265000 1.165538 3
7.270000 1.091752 0
7.275000 0.891835 0
7.280000 0.616131 0
7.285000 0.324841 0
7.290000 0.067248 0
7.295000 -0.127532 0
7.300000 -0.249125 0
7.305000 -0.300752 4
7.310000 -0.295150 0
7.315000 -0.251329 0
7.320000 -0.190233 0
7.325000 -0.129544 0
7.330000 -0.079953 0
7.335000 -0.044648 0
7.340000 -0.021604 0
7.345000 -0.006712 0
7.350000 0.003921 0
7.355000 0.013013 0
7.360000 0.022121 0
7.365000 0.032021 0
7.370000 0.043069 0
7.375000 0.055435 0
7.380000 0.069202 0
7.385000 0.084411 0
7.390000 0.101068 0
7.395000 0.119148 0
7.400000 0.138584 0
7.405000 0.159270 0
7.410000 0.181059 0
7.415000 0.203758 0
7.420000 0.227129 0
7.425000 0.250897 0
7.430000 0.274745 0
7.435000 0.298326 0
7.440000 0.321269 0
7.445000 0.343187 0
7.450000 0.363689 0
7.455000 0.382388 0
7.460000 0.398916 0
7.465000 0.412936 0
7.470000 0.424148 0
7.475000 0.432304 0
7.480000 0.437216 0
7.485000 0.438762 5
7.490000 0.436889 0
7.495000 0.431618 0
7.500000 0.423043 0
7.505000 0.411324 0
7.510000 0.396688 0
7.515000 0.379415 0
7.520000 0.359835 0
7.525000 0.338311 0
7.530000 0.315233 0
7.535000 0.291001 0
7.540000 0.266020 0
7.545000 0.240680 0
7.550000 0.215354 0
7.555000 0.190386 0
7.560000 0.166084 0
7.565000 0.142714 0
7.570000 0.120499 0
7.575000 0.099617 0
7.580000 0.080198 0
7.585000 0.062331 0
7.590000 0.046060 0
7.595000 0.031397 0
7.600000 0.018316 0
7.605000 0.006768 0
7.610000 -0.003321 0
7.615000 -0.012041 0
7.620000 -0.019493 0
7.625000 -0.025787 0
7.630000 -0.031036 0
7.635000 -0.035354 0
7.640000 -0.038849 0
7.645000 -0.041627 0
7.650000 -0.043786 0
7.655000 -0.045416 0
7.660000 -0.046599 0
7.665000 -0.047407 0
7.670000 -0.047905 0
7.675000 -0.048147 0
7.680000 -0.048182 0
7.685000 -0.048050 0
7.690000 -0.047785 0
7.695000 -0.047415 0
7.700000 -0.046963 0
7.705000 -0.046447 0
7.710000 -0.045862 0
7.715000 -0.045149 0
7.720000 -0.044439 0
7.725000 -0.043733 0
7.730000 -0.043030 0
7.735000 -0.042331 0
7.740000 -0.041635 0
7.745000 -0.040943 0
7.750000 -0.040254 0
7.755000 -0.039569 0
7.760000 -0.038887 0
7.765000 -0.038208 0
7.770000 -0.037533 0
7.775000 -0.036862 0
7.780000 -0.036193 0
7.785000 -0.035528 0
7.790000 -0.034866 0
7.795000 -0.034208 0
7.800000 -0.033553 0
7.805000 -0.032901 0
7.810000 -0.032252 0
7.815000 -0.031606 0
7.820000 -0.030963 0
7.825000 -0.030322 0
7.830000 -0.029683 0
7.835000 -0.029045 0
7.840000 -0.028406 0
7.845000 -0.027762 0
7.850000 -0.027110 0
7.855000 -0.026440 0
7.860000 -0.025742 0
7.865000 -0.024996 0
7.870000 -0.024177 0
7.875000 -0.023246 0
7.880000 -0.022148 0
7.885000 -0.020810 0
7.890000 -0.019134 0
7.895000 -0.016993 0
7.900000 -0.014227 0
7.905000 -0.010646 0
7.910000 -0.006023 0
7.915000 -0.000110 0
7.920000 0.007360 0
7.925000 0.016651 0
7.930000 0.028003 0
7.935000 0.041602 0
7.940000 0.057553 0
7.945000 0.075840 0
7.950000 0.096302 0
7.955000 0.118608 0
7.960000 0.142248 0
7.965000 0.166536 0
7.970000 0.190634 0
7.975000 0.213593 0
7.980000 0.234412 0
7.985000 0.252109 0
7.990000 0.265791 0
7.995000 0.274736 0
8.000000 0.278447 1
8.005000 0.276704 0
8.010000 0.269579 0
8.015000 0.257433 0
8.020000 0.240885 0
8.025000 0.220759 0
8.030000 0.198012 0
8.035000 0.173665 0
8.040000 0.148722 0
8.045000 0.124102 0
8.050000 0.100588 0
8.055000 0.078774 0
8.060000 0.059010 0
8.065000 0.041317 0
8.070000 0.025216 0
8.075000 0.009502 0
8.080000 -0.007941 0
8.085000 -0.029954 0
8.090000 -0.059176 0
8.095000 -0.096223 0
8.100000 -0.137534 0
8.105000 -0.174088 0
8.110000 -0.192035 2
8.115000 -0.175130 0
8.120000 -0.107825 0
8.125000 0.021602 0
8.130000 0.216762 0
8.135000 0.466550 0
8.140000 0.738649 0
8.145000 0.980064 0
8.150000 1.130614 0
8.155000 1.146380 3
8.160000 1.021874 0
8.165000 0.790943 0
8.170000 0.504999 0
8.175000 0.217828 0
8.180000 -0.029564 0
8.185000 -0.214161 0
8.190000 -0.328588 0
8.195000 -0.376765 4
8.200000 -0.370669 0
8.205000 -0.327662 0
8.210000 -0.266896 0
8.215000 -0.204961 0
8.220000 -0.152562 0
8.225000 -0.113726 0
8.230000 -0.087404 0
8.235000 -0.070085 0
8.240000 -0.057997 0
8.245000 -0.048236 0
8.250000 -0.038987 0
8.255000 -0.029271 0
8.260000 -0.018606 0
8.265000 -0.006766 0
8.270000 0.006364 0
8.275000 0.020845 0
8.280000 0.036701 0
8.285000 0.053933 0
8.290000 0.072506 0
8.295000 0.092355 0
8.300000 0.113379 0
8.305000 0.135439 0
8.310000 0.158358 0
8.315000 0.181921 0
8.320000 0.205877 0
8.325000 0.229942 0
8.330000 0.253805 0
8.335000 0.277130 0
8.340000 0.299569 0
8.345000 0.320765 0
8.350000 0.340364 0
8.355000 0.358024 0
8.360000 0.373424 0
8.365000 0.386276 0
8.370000 0.396328 0
8.375000 0.403380 0
8.380000 0.407283 0
8.385000 0.407949 5
8.390000 0.405350 0
8.395000 0.399524 0
8.400000 0.390570 0
8.405000 0.378644 0
8.410000 0.363961 0
8.415000 0.346779 0
8.420000 0.327401 0
8.425000 0.306157 0
8.430000 0.283401 0
8.435000 0.259499 0
8.440000 0.234817 0
8.445000 0.209715 0
8.450000 0.184539 0
8.455000 0.159608 0
8.460000 0.135216 0
8.465000 0.111619 0
8.470000 0.089037 0
8.475000 0.067652 0
8.480000 0.047605 0
8.485000 0.028997 0
8.490000 0.011892 0
8.495000 -0.003679 0
8.500000 -0.017719 0
8.505000 -0.030254 0
8.510000 -0.041336 0
8.515000 -0.051036 0
8.520000 -0.059436 0
8.525000 -0.066630 0
8.530000 -0.072718 0
8.535000 -0.077804 0
8.540000 -0.081990 0
8.545000 -0.085378 0
8.550000 -0.088063 0
8.555000 -0.090138 0
8.560000 -0.091685 0
8.565000 -0.092781 0
8.570000 -0.093497 0
8.575000 -0.093892 0
8.580000 -0.094021 0
8.585000 -0.093932 0
8.590000 -0.093664 0
8.595000 -0.093251 0
8.600000 -0.092722 0
8.605000 -0.092102 0
8.610000 -0.091410 0
8.615000 -0.090662 0
8.620000 -0.089850 0
8.625000 -0.088918 0
8.630000 -0.087990 0
8.635000 -0.087066 0
8.640000 -0.086147 0
8.645000 -0.085233 0
8.650000 -0.084324 0
8.655000 -0.083419 0
8.660000 -0.082518 0
8.665000 -0.081622 0
8.670000 -0.080730 0
8.675000 -0.079843 0
8.680000 -0.078960 0
8.685000 -0.078082 0
8.690000 -0.077208 0
8.695000 -0.076338 0
8.700000 -0.075473 0
8.705000 -0.074612 0
8.710000 -0.073755 0
8.715000 -0.072903 0
8.720000 -0.072055 0
8.725000 -0.071210 0
8.730000 -0.070370 0
8.735000 -0.069534 0
8.740000 -0.068701 0
8.745000 -0.067870 0
8.750000 -0.067042 0
8.755000 -0.066214 0
8.760000 -0.065383 0
8.765000 -0.064545 0
8.770000 -0.063695 0
8.775000 -0.062821 0
8.780000 -0.061909 0
8.785000 -0.060939 0
8.790000 -0.059878 0
8.795000 -0.058684 0
8.800000 -0.057299 0
8.805000 -0.055646 0
8.810000 -0.053623 0
8.815000 -0.051104 0
8.820000 -0.047934 0
8.825000 -0.043928 0
8.830000 -0.038876 0
8.835000 -0.032545 0
8.840000 -0.024693 0
8.845000 -0.015081 0
8.850000 -0.003493 0
8.855000 0.010238 0
8.860000 0.026208 0
8.865000 0.044409 0
8.870000 0.064709 0
8.875000 0.086830 0
8.880000 0.110339 0
8.885000 0.134649 0
8.890000 0.159033 0
8.895000 0.182655 0
8.900000 0.204614 0
8.905000 0.224000 0
8.910000 0.239953 0
8.915000 0.251729 0
8.920000 0.258755 0
8.925000 0.260673 1
8.930000 0.257377 0
8.935000 0.249013 0
8.940000 0.235976 0
8.945000 0.218874 0
8.950000 0.198483 0
8.955000 0.175688 0
8.960000 0.151417 0
8.965000 0.126586 0
8.970000 0.102035 0
8.975000 0.078485 0
8.980000 0.056499 0
8.985000 0.036436 0
8.990000 0.018385 0
8.995000 0.002045 0
9.000000 -0.013462 0
9.005000 -0.029772 0
9.010000 -0.049277 0
9.015000 -0.074634 0
9.020000 -0.107551 0
9.025000 -0.147027 0
9.030000 -0.187747 0
9.035000 -0.219626 0
9.040000 -0.228990 2
9.045000 -0.200923 0
9.050000 -0.121827 0
9.055000 0.017901 0
9.060000 0.219984 0
9.065000 0.472519 0
9.070000 0.744783 0
9.075000 0.988153 0
9.080000 1.147515 0
9.085000 1.180794 3
9.090000 1.077441 0
9.095000 0.861615 0
9.100000 0.581416 0
9.105000 0.290621 0
9.110000 0.032626 0
9.115000 -0.166431 0
9.120000 -0.296437 0
9.125000 -0.359122 0
9.130000 -0.364652 4
9.135000 -0.329085 0
9.140000 -0.271186 0
9.145000 -0.208287 0
9.150000 -0.152636 0
9.155000 -0.109920 0
9.160000 -0.080278 0
9.165000 -0.060709 0
9.170000 -0.047416 0
9.175000 -0.037223 0
9.180000 -0.028018 0
9.185000 -0.018605 0
9.190000 -0.008380 0
9.195000 0.002949 0
9.200000 0.015523 0
9.205000 0.029415 0
9.210000 0.044665 0
9.215000 0.061280 0
9.220000 0.079241 0
9.225000 0.098497 0
9.230000 0.118962 0
9.235000 0.140518 0
9.240000 0.163005 0
9.245000 0.186230 0
9.250000 0.209962 0
9.255000 0.233937 0
9.260000 0.257860 0
9.265000 0.281413 0
9.270000 0.304260 0
9.275000 0.326054 0
9.280000 0.346443 0
9.285000 0.365087 0
9.290000 0.381657 0
9.295000 0.395852 0
9.300000 0.407405 0
9.305000 0.416091 0
9.310000 0.421734 0
9.315000 0.424212 5
9.320000 0.423466 0
9.325000 0.419492 0
9.330000 0.412354 0
9.335000 0.402169 0
9.340000 0.389116 0
9.345000 0.373420 0
9.350000 0.355352 0
9.355000 0.335221 0
9.360000 0.313359 0
9.365000 0.290119 0
9.370000 0.265861 0
9.375000 0.240943 0
9.380000 0.215717 0
9.385000 0.190513 0
9.390000 0.165639 0
9.395000 0.141373 0
9.400000 0.117958 0
9.405000 0.095600 0
9.410000 0.074467 0
9.415000 0.054687 0
9.420000 0.036352 0
9.425000 0.019517 0
9.430000 0.004204 0
9.435000 -0.009593 0
9.440000 -0.021908 0
9.445000 -0.032793 0
9.450000 -0.042321 0
9.455000 -0.050575 0
9.460000 -0.057649 0
9.465000 -0.063641 0
9.470000 -0.068654 0
9.475000 -0.072787 0
9.480000 -0.076140 0
9.485000 -0.078807 0
9.490000 -0.080876 0
9.495000 -0.082430 0
9.500000 -0.083543 0
9.505000 -0.084282 0
9.510000 -0.084708 0
9.515000 -0.084872 0
9.520000 -0.084821 0
9.525000 -0.084593 0
9.530000 -0.084223 0
9.535000 -0.083739 0
9.540000 -0.083163 0
9.545000 -0.082516 0
9.550000 -0.081814 0
9.555000 -0.081047 0
9.560000 -0.080159 0
9.565000 -0.079274 0
9.570000 -0.078394 0
9.575000 -0.077519 0
9.580000 -0.076648 0
9.585000 -0.075781 0
9.590000 -0.074918 0
9.595000 -0.074060 0
9.600000 -0.073206 0
9.605000 -0.072357 0
9.610000 -0.071511 0
9.615000 -0.070670 0
9.620000 -0.069833 0
9.625000 -0.069000 0
9.630000 -0.068171 0
9.635000 -0.067347 0
9.640000 -0.066526 0
9.645000 -0.065710 0
9.650000 -0.064898 0
9.655000 -0.064089 0
9.660000 -0.063285 0
9.665000 -0.062484 0
9.670000 -0.061687 0
9.675000 -0.060894 0
9.680000 -0.060103 0
9.685000 -0.059314 0
9.690000 -0.058525 0
9.695000 -0.057735 0
9.700000 -0.056940 0
9.705000 -0.056133 0
9.710000 -0.055307 0
9.715000 -0.054449 0
9.720000 -0.053539 0
9.725000 -0.052552 0
9.730000 -0.051450 0
9.735000 -0.050180 0
9.740000 -0.048676 0
9.745000 -0.046845 0
9.750000 -0.044575 0
9.755000 -0.041723 0
9.760000 -0.038121 0
9.765000 -0.033571 0
9.770000 -0.027854 0
9.775000 -0.020734 0
9.780000 -0.011973 0
9.785000 -0.001347 0
9.790000 0.011333 0
9.795000 0.026197 0
9.800000 0.043289 0
9.805000 0.062541 0
9.810000 0.083753 0
9.815000 0.106575 0
9.820000 0.130509 0
9.825000 0.154909 0
9.830000 0.179006 0
9.835000 0.201944 0
9.840000 0.222829 0
9.845000 0.240780 0
9.850000 0.254996 0
9.855000 0.264810 0
9.860000 0.269744 1
9.865000 0.269546 0
9.870000 0.264208 0
9.875000 0.253971 0
9.880000 0.239308 0
9.885000 0.220882 0
9.890000 0.199500 0
9.895000 0.176053 0
9.900000 0.151456 0
9.905000 0.126587 0
9.910000 0.102240 0
9.915000 0.079076 0
9.920000 0.057593 0
9.925000 0.038074 0
9.930000 0.020512 0
9.935000 0.004476 0
9.940000 -0.011078 0
9.945000 -0.027964 0
9.950000 -0.048663 0
9.955000 -0.075700 0
9.960000 -0.110308 0
9.965000 -0.150684 0
9.970000 -0.190607 0
9.975000 -0.219323 0
9.980000 -0.222973 2
9.985000 -0.186964 0
9.990000 -0.098425 0
9.995000 0.051117 0
10.000000 0.261692 0
10.005000 0.519169 0
10.010000 0.790726 0
10.015000 1.026947 0
10.020000 1.174131 0
10.025000 1.193536 3
10.030000 1.074712 0
10.035000 0.845387 0
10.040000 0.559168 0
10.045000 0.272438 0
10.050000 0.027730 0
10.055000 -0.151742 0
10.060000 -0.259293 0
10.065000 -0.300035 4
10.070000 -0.287430 0
10.075000 -0.240262 0
10.080000 -0.178473 0
10.085000 -0.118421 0
10.090000 -0.069708 0
10.095000 -0.034987 0
10.100000 -0.012170 0
10.105000 0.002698 0
10.110000 0.013351 0
10.115000 0.022422 0
10.120000 0.031445 0
10.125000 0.041200 0
10.130000 0.052054 0
10.135000 0.064180 0
10.140000 0.077667 0
10.145000 0.092559 0
10.150000 0.108867 0
10.155000 0.126574 0
10.160000 0.145624 0
10.165000 0.165926 0
10.170000 0.187349 0
10.175000 0.209721 0
10.180000 0.232829 0
10.185000 0.256420 0
10.190000 0.280205 0
10.195000 0.303862 0
10.200000 0.327044 0
10.205000 0.349388 0
10.210000 0.370518 0
10.215000 0.390062 0
10.220000 0.407658 0
10.225000 0.422966 0
10.230000 0.435681 0
10.235000 0.445536 0
10.240000 0.452318 0
10.245000 0.455872 0
10.250000 0.456107 5
10.255000 0.452997 0
10.260000 0.446587 0
10.265000 0.436987 0
10.270000 0.424369 0
10.275000 0.408967 0
10.280000 0.391061 0
10.285000 0.370974 0
10.290000 0.349061 0
10.295000 0.325698 0
10.300000 0.301269 0
10.305000 0.276159 0
10.310000 0.250742 0
10.315000 0.225371 0
10.320000 0.200373 0
10.325000 0.176041 0
10.330000 0.152627 0
10.335000 0.130346 0
10.340000 0.109367 0
10.345000 0.089817 0
10.350000 0.071781 0
10.355000 0.055308 0
10.360000 0.040408 0
10.365000 0.027063 0
10.370000 0.015228 0
10.375000 0.004836 0
10.380000 -0.004196 0
10.385000 -0.011965 0
10.390000 -0.018573 0
10.395000 -0.024130 0
10.400000 -0.028742 0
10.405000 -0.032517 0
10.410000 -0.035556 0
10.415000 -0.037956 0
10.420000 -0.039807 0
10.425000 -0.041188 0
10.430000 -0.042174 0
10.435000 -0.042830 0
10.440000 -0.043211 0
10.445000 -0.043368 0
10.450000 -0.043342 0
10.455000 -0.043169 0
10.460000 -0.042879 0
10.465000 -0.042496 0
10.470000 -0.042040 0
10.475000 -0.041529 0
10.480000 -0.040956 0
10.485000 -0.040267 0
10.490000 -0.039582 0
10.495000 -0.038900 0
10.500000 -0.038221 0
10.505000 -0.037546 0
10.510000 -0.036874 0
10.515000 -0.036206 0
10.520000 -0.035541 0
10.525000 -0.034879 0
10.530000 -0.034220 0
10.535000 -0.033565 0
10.540000 -0.032913 0
10.545000 -0.032264 0
10.550000 -0.031619 0
10.555000 -0.030977 0
10.560000 -0.030338 0
10.565000 -0.029702 0
10.570000 -0.029069 0
10.575000 -0.028439 0
10.580000 -0.027813 0
10.585000 -0.027189 0
10.590000 -0.026568 0
10.595000 -0.025950 0
10.600000 -0.025333 0
10.605000 -0.024717 0
10.610000 -0.024100 0
10.615000 -0.023481 0
10.620000 -0.022853 0
10.625000 -0.022212 0
10.630000 -0.021546 0
10.635000 -0.020841 0
10.640000 -0.020074 0
10.645000 -0.019212 0
10.650000 -0.018210 0
10.655000 -0.017006 0
10.660000 -0.015515 0
10.665000 -0.013629 0
10.670000 -0.011212 0
10.675000 -0.008093 0
10.680000 -0.004075 0
10.685000 0.001071 0
10.690000 0.007592 0
10.695000 0.015743 0
10.700000 0.025771 0
10.705000 0.037889 0
10.710000 0.052252 0
10.715000 0.068922 0
10.720000 0.087844 0
10.725000 0.108818 0
10.730000 0.131480 0
10.735000 0.155298 0
10.740000 0.179581 0
10.745000 0.203501 0
10.750000 0.226137 0
10.755000 0.246528 0
10.760000 0.263742 0
10.765000 0.276942 0
10.770000 0.285455 0
10.775000 0.288826 1
10.780000 0.286858 0
10.785000 0.279631 0
10.790000 0.267493 0
10.795000 0.251034 0
10.800000 0.231037 0
10.805000 0.208414 0
10.810000 0.184139 0
10.815000 0.159178 0
10.820000 0.134424 0
10.825000 0.110647 0
10.830000 0.088449 0
10.835000 0.068214 0
10.840000 0.050039 0
10.845000 0.033595 0
10.850000 0.017928 0
10.855000 0.001260 0
10.860000 -0.018977 0
10.865000 -0.045531 0
10.870000 -0.079897 0
10.875000 -0.120344 0
10.880000 -0.160297 0
10.885000 -0.188179 0
10.890000 -0.189065 2
10.895000 -0.147408 0
10.900000 -0.049848 0
10.905000 0.111582 0
10.910000 0.334469 0
10.915000 0.599404 0
10.920000 0.866032 0
10.925000 1.078385 0
10.930000 1.182060 3
10.935000 1.145459 0
10.940000 0.975640 0
10.945000 0.715134 0
10.950000 0.422413 0
10.955000 0.150272 0
10.960000 -0.066603 0
10.965000 -0.212767 0
10.970000 -0.287500 0
10.975000 -0.300394 4
10.980000 -0.268230 0
10.985000 -0.211347 0
10.990000 -0.148790 0
10.995000 -0.093929 0
11.000000 -0.052691 0
11.005000 -0.024849 0
11.010000 -0.006909 0
11.015000 0.005214 0
11.020000 0.014738 0
11.025000 0.023672 0
11.030000 0.033088 0
11.035000 0.043497 0
11.040000 0.055136 0
11.045000 0.068123 0
11.050000 0.082516 0
11.055000 0.098340 0
11.060000 0.115587 0
11.065000 0.134215 0
11.070000 0.154143 0
11.075000 0.175251 0
11.080000 0.197378 0
11.085000 0.220318 0
11.090000 0.243826 0
11.095000 0.267617 0
11.100000 0.291372 0
11.105000 0.314744 0
11.110000 0.337364 0
11.115000 0.358852 0
11.120000 0.378827 0
11.125000 0.396916 0
11.130000 0.412767 0
11.135000 0.426058 0
11.140000 0.436511 0
11.145000 0.443896 0
11.150000 0.448045 0
11.155000 0.448851 5
11.160000 0.446280 0
11.165000 0.440365 0
11.170000 0.431208 0
11.175000 0.418978 0
11.180000 0.403905 0
11.185000 0.386271 0
11.190000 0.366401 0
11.195000 0.344653 0
11.200000 0.321410 0
11.205000 0.297065 0
11.210000 0.272008 0
11.215000 0.246622 0
11.220000 0.221270 0
11.225000 0.196284 0
11.230000 0.171964 0
11.235000 0.148570 0
11.240000 0.126319 0
11.245000 0.105383 0
11.250000 0.085892 0
11.255000 0.067931 0
11.260000 0.051548 0
11.265000 0.036754 0
11.270000 0.023527 0
11.275000 0.011820 0
11.280000 0.001563 0
11.285000 -0.007331 0
11.290000 -0.014958 0
11.295000 -0.021427 0
11.300000 -0.026847 0
11.305000 -0.031328 0
11.310000 -0.034978 0
11.315000 -0.037901 0
11.320000 -0.040194 0
11.325000 -0.041947 0
11.330000 -0.043240 0
11.335000 -0.044147 0
11.340000 -0.044732 0
11.345000 -0.045052 0
11.350000 -0.045155 0
11.355000 -0.045083 0
11.360000 -0.044870 0
11.365000 -0.044544 0
11.370000 -0.044132 0
11.375000 -0.043651 0
11.380000 -0.043118 0
11.385000 -0.042442 0
11.390000 -0.041746 0
11.395000 -0.041053 0
11.400000 -0.040364 0
11.405000 -0.039678 0
11.410000 -0.038996 0
11.415000 -0.038317 0
11.420000 -0.037641 0
11.425000 -0.036969 0
11.430000 -0.036300 0
11.435000 -0.035634 0
11.440000 -0.034972 0
11.445000 -0.034313 0
11.450000 -0.033657 0
11.455000 -0.033005 0
11.460000 -0.032356 0
11.465000 -0.031710 0
11.470000 -0.031067 0
11.475000 -0.030427 0
11.480000 -0.029791 0
11.485000 -0.029158 0
11.490000 -0.028527 0
11.495000 -0.027899 0
11.500000 -0.027273 0
11.505000 -0.026649 0
11.510000 -0.026025 0
11.515000 -0.025398 0
11.520000 -0.024767 0
11.525000 -0.024124 0
11.530000 -0.023462 0
11.535000 -0.022767 0
11.540000 -0.022019 0
11.545000 -0.021190 0
11.550000 -0.020240 0
11.555000 -0.019110 0
11.560000 -0.017724 0
11.565000 -0.015981 0
11.570000 -0.013752 0
11.575000 -0.010875 0
11.580000 -0.007156 0
11.585000 -0.002374 0
11.590000 0.003720 0
11.595000 0.011385 0
11.600000 0.020878 0
11.605000 0.032429 0
11.610000 0.046213 0
11.615000 0.062322 0
11.620000 0.080732 0
11.625000 0.101276 0
11.630000 0.123623 0
11.635000 0.147267 0
11.640000 0.171535 0
11.645000 0.195608 0
11.650000 0.218561 0
11.655000 0.239417 0
11.660000 0.257214 0
11.665000 0.271079 0
11.670000 0.280297 0
11.675000 0.284370 1
11.680000 0.283062 0
11.685000 0.276418 0
11.690000 0.264767 0
11.695000 0.248685 0
11.700000 0.228957 0
11.705000 0.206504 0
11.710000 0.182318 0
11.715000 0.157385 0
11.720000 0.132621 0
11.725000 0.108819 0
11.730000 0.086596 0
11.735000 0.066351 0
11.740000 0.048184 0
11.745000 0.031761 0
11.750000 0.016101 0
11.755000 -0.000628 0
11.760000 -0.021062 0
11.765000 -0.047981 0
11.770000 -0.082793 0
11.775000 -0.123471 0
11.780000 -0.162940 0
11.785000 -0.189043 2
11.790000 -0.186390 0
11.795000 -0.139221 0
11.800000 -0.034338 0
11.805000 0.135433 0
11.810000 0.365766 0
11.815000 0.633996 0
11.820000 0.895968 0
11.825000 1.093468 0
11.830000 1.173604 3
11.835000 1.111772 0
11.840000 0.922537 0
11.845000 0.652454 0
11.850000 0.359947 0
11.855000 0.094948 0
11.860000 -0.111365 0
11.865000 -0.246307 0
11.870000 -0.310967 0
11.875000 -0.316106 4
11.880000 -0.279136 0
11.885000 -0.220358 0
11.890000 -0.158117 0
11.895000 -0.104730 0
11.900000 -0.065173 0
11.905000 -0.038649 0
11.910000 -0.021500 0
11.915000 -0.009723 0
11.920000 -0.000260 0
11.925000 0.008766 0
11.930000 0.018342 0
11.935000 0.028939 0
11.940000 0.040774 0
11.945000 0.053958 0
11.950000 0.068545 0
11.955000 0.084557 0
11.960000 0.101983 0
11.965000 0.120779 0
11.970000 0.140862 0
11.975000 0.162111 0
11.980000 0.184363 0
11.985000 0.207411 0
11.990000 0.231011 0
11.995000 0.254877 0
12.000000 0.278692 0
12.005000 0.302110 0
12.010000 0.324765 0
12.015000 0.346281 0
12.020000 0.366279 0
12.025000 0.384389 0
12.030000 0.400264 0
12.035000 0.413585 0
12.040000 0.424075 0
12.045000 0.431510 0
12.050000 0.435719 0
12.055000 0.436601 5
12.060000 0.434118 0
12.065000 0.428303 0
12.070000 0.419259 0
12.075000 0.407150 0
12.080000 0.392205 0
12.085000 0.374700 0
12.090000 0.354957 0
12.095000 0.333333 0
12.100000 0.310205 0
12.105000 0.285961 0
12.110000 0.260992 0
12.115000 0.235676 0
12.120000 0.210374 0
12.125000 0.185419 0
12.130000 0.161109 0
12.135000 0.137705 0
12.140000 0.115426 0
12.145000 0.094445 0
12.150000 0.074894 0
12.155000 0.056862 0
12.160000 0.040399 0
12.165000 0.025518 0
12.170000 0.012201 0
12.175000 0.000404 0
12.180000 -0.009941 0
12.185000 -0.018918 0
12.190000 -0.026624 0
12.195000 -0.033162 0
12.200000 -0.038643 0
12.205000 -0.043175 0
12.210000 -0.046867 0
12.215000 -0.049821 0
12.220000 -0.052135 0
12.225000 -0.053899 0
12.230000 -0.055195 0
12.235000 -0.056096 0
12.240000 -0.056667 0
12.245000 -0.056966 0
12.250000 -0.057042 0
12.255000 -0.056937 0
12.260000 -0.056687 0
12.265000 -0.056321 0
12.270000 -0.055864 0
12.275000 -0.055337 0
12.280000 -0.054754 0
12.285000 -0.054022 0
12.290000 -0.053268 0
12.295000 -0.052518 0
12.300000 -0.051772 0
12.305000 -0.051029 0
12.310000 -0.050290 0
12.315000 -0.049555 0
12.320000 -0.048823 0
12.325000 -0.048095 0
12.330000 -0.047370 0
12.335000 -0.046650 0
12.340000 -0.045932 0
12.345000 -0.045219 0
12.350000 -0.044509 0
12.355000 -0.043802 0
12.360000 -0.043099 0
12.365000 -0.042400 0
12.370000 -0.041704 0
12.375000 -0.041011 0
12.380000 -0.040322 0
12.385000 -0.039636 0
12.390000 -0.038953 0
12.395000 -0.038273 0
12.400000 -0.037596 0
12.405000 -0.036921 0
12.410000 -0.036247 0
12.415000 -0.035571 0
12.420000 -0.034892 0
12.425000 -0.034204 0
12.430000 -0.033500 0
12.435000 -0.032768 0
12.440000 -0.031991 0
12.445000 -0.031144 0
12.450000 -0.030190 0
12.455000 -0.029079 0
12.460000 -0.027742 0
12.465000 -0.026087 0
12.470000 -0.023995 0
12.475000 -0.021318 0
12.480000 -0.017874 0
12.485000 -0.013454 0
12.490000 -0.007818 0
12.495000 -0.000713 0
12.500000 0.008121 0
12.505000 0.018923 0
12.510000 0.031890 0
12.515000 0.047150 0
12.520000 0.064726 0
12.525000 0.084510 0
12.530000 0.106238 0
12.535000 0.129478 0
12.540000 0.153626 0
12.545000 0.177926 0
12.550000 0.201496 0
12.555000 0.223380 0
12.560000 0.242611 0
12.565000 0.258276 0
12.570000 0.269593 0
12.575000 0.275969 0
12.580000 0.277052 1
12.585000 0.272768 0
12.590000 0.263318 0
12.595000 0.249171 0
12.600000 0.231020 0
12.605000 0.209727 0
12.610000 0.186250 0
12.615000 0.161581 0
12.620000 0.136668 0
12.625000 0.112361 0
12.630000 0.089358 0
12.635000 0.068167 0
12.640000 0.049041 0
12.645000 0.031881 0
12.650000 0.016056 0
12.655000 0.000185 0
12.660000 -0.017987 0
12.665000 -0.041279 0
12.670000 -0.072016 0
12.675000 -0.110183 0
12.680000 -0.151460 0
12.685000 -0.186282 0
12.690000 -0.200734 2
12.695000 -0.179010 0
12.700000 -0.106307 0
12.705000 0.028206 0
12.710000 0.227204 0
12.715000 0.478871 0
12.720000 0.750960 0
12.725000 0.991701 0
12.730000 1.142816 0
12.735000 1.161596 3
12.740000 1.038026 0
12.745000 0.803251 0
12.750000 0.514849 0
12.755000 0.231639 0
12.760000 -0.003838 0
12.765000 -0.169999 0
12.770000 -0.262399 0
12.775000 -0.288599 4
12.780000 -0.264557 0
12.785000 -0.210988 0
12.790000 -0.148338 0
12.795000 -0.091758 0
12.800000 -0.048609 0
12.805000 -0.019381 0
12.810000 -0.000695 0
12.815000 0.011719 0
12.820000 0.021295 0
12.825000 0.030195 0
12.830000 0.039563 0
12.835000 0.049941 0
12.840000 0.061576 0
12.845000 0.074588 0
12.850000 0.089038 0
12.855000 0.104949 0
12.860000 0.122310 0
12.865000 0.141073 0
12.870000 0.161151 0
12.875000 0.182412 0
12.880000 0.204682 0
12.885000 0.227741 0
12.890000 0.251323 0
12.895000 0.275126 0
12.900000 0.298809 0
12.905000 0.322006 0
12.910000 0.344329 0
12.915000 0.365381 0
12.920000 0.384768 0
12.925000 0.402107 0
12.930000 0.417043 0
12.935000 0.429256 0
12.940000 0.438476 0
12.945000 0.444488 0
12.950000 0.447145 5
12.955000 0.446368 0
12.960000 0.442156 0
12.965000 0.434577 0
12.970000 0.423773 0
12.975000 0.409955 0
12.980000 0.393391 0
12.985000 0.374401 0
12.990000 0.353345 0
12.995000 0.330612 0
13.000000 0.306606 0
13.005000 0.281736 0
13.010000 0.256405 0
13.015000 0.230996 0
13.020000 0.205865 0
13.025000 0.181334 0
13.030000 0.157683 0
13.035000 0.135149 0
13.040000 0.113922 0
13.045000 0.094144 0
13.050000 0.075914 0
13.055000 0.059286 0
13.060000 0.044276 0
13.065000 0.030867 0
13.070000 0.019012 0
13.075000 0.008640 0
13.080000 -0.000338 0
13.085000 -0.008024 0
13.090000 -0.014527 0
13.095000 -0.019962 0
13.100000 -0.024443 0
13.105000 -0.028083 0
13.110000 -0.030989 0
13.115000 -0.033261 0
13.120000 -0.034991 0
13.125000 -0.036263 0
13.130000 -0.037151 0
13.135000 -0.037721 0
13.140000 -0.038030 0
13.145000 -0.038128 0
13.150000 -0.038054 0
13.155000 -0.037844 0
13.160000 -0.037528 0
13.165000 -0.037128 0
13.170000 -0.036663 0
13.175000 -0.036127 0
13.180000 -0.035462 0
13.185000 -0.034801 0
13.190000 -0.034143 0
13.195000 -0.033488 0
13.200000 -0.032836 0
13.205000 -0.032188 0
13.210000 -0.031543 0
13.215000 -0.030901 0
13.220000 -0.030262 0
13.225000 -0.029627 0
13.230000 -0.028995 0
13.235000 -0.028366 0
13.240000 -0.027740 0
13.245000 -0.027117 0
13.250000 -0.026497 0
13.255000 -0.025880 0
13.260000 -0.025266 0
13.265000 -0.024656 0
13.270000 -0.024048 0
13.275000 -0.023443 0
13.280000 -0.022841 0
13.285000 -0.022242 0
13.290000 -0.021645 0
13.295000 -0.021049 0
13.300000 -0.020453 0
13.305000 -0.019856 0
13.310000 -0.019253 0
13.315000 -0.018640 0
13.320000 -0.018008 0
13.325000 -0.017343 0
13.330000 -0.016627 0
13.335000 -0.015829 0
13.340000 -0.014908 0
13.345000 -0.013804 0
13.350000 -0.012439 0
13.355000 -0.010705 0
13.360000 -0.008468 0
13.365000 -0.005557 0
13.370000 -0.001769 0
13.375000 0.003130 0
13.380000 0.009401 0
13.385000 0.017314 0
13.390000 0.027133 0
13.395000 0.039090 0
13.400000 0.053352 0
13.405000 0.069992 0
13.410000 0.088952 0
13.415000 0.110017 0
13.420000 0.132793 0
13.425000 0.156702 0
13.430000 0.180994 0
13.435000 0.204776 0
13.440000 0.227058 0
13.445000 0.246824 0
13.450000 0.263101 0
13.455000 0.275040 0
13.460000 0.281988 0
13.465000 0.283545 1
13.470000 0.279603 0
13.475000 0.270353 0
13.480000 0.256273 0
13.485000 0.238085 0
13.490000 0.216689 0
13.495000 0.193093 0
13.500000 0.168334 0
13.505000 0.143401 0
13.510000 0.119169 0
13.515000 0.096351 0
13.520000 0.075444 0
13.525000 0.056661 0
13.530000 0.039805 0
13.535000 0.024066 0
13.540000 0.007776 0
13.545000 -0.011639 0
13.550000 -0.037132 0
13.555000 -0.070598 0
13.560000 -0.110705 0
13.565000 -0.150975 0
13.570000 -0.179427 0
13.575000 -0.180325 2
13.580000 -0.137199 0
13.585000 -0.036017 0
13.590000 0.131160 0
13.595000 0.360410 0
13.600000 0.628590 0
13.605000 0.889838 0
13.610000 1.083622 0
13.615000 1.155789 3
13.620000 1.084194 0
13.625000 0.886874 0
13.630000 0.612757 0
13.635000 0.321032 0
13.640000 0.060831 0
13.645000 -0.138210 0
13.650000 -0.264931 0
13.655000 -0.321706 4
13.660000 -0.320411 0
13.665000 -0.279308 0
13.670000 -0.219008 0
13.675000 -0.157447 0
13.680000 -0.106017 0
13.685000 -0.068697 0
13.690000 -0.044007 0
13.695000 -0.028033 0
13.700000 -0.016827 0
13.705000 -0.007513 0
13.710000 0.001610 0
13.715000 0.011413 0
13.720000 0.022304 0
13.725000 0.034474 0
13.730000 0.048017 0
13.735000 0.062982 0
13.740000 0.079382 0
13.745000 0.097199 0
13.750000 0.116379 0
13.755000 0.136828 0
13.760000 0.158412 0
13.765000 0.180954 0
13.770000 0.204234 0
13.775000 0.227991 0
13.780000 0.251927 0
13.785000 0.275710 0
13.790000 0.298982 0
13.795000 0.321367 0
13.800000 0.342483 0
13.805000 0.361946 0
13.810000 0.379389 0
13.815000 0.394466 0
13.820000 0.406868 0
13.825000 0.416333 0
13.830000 0.422651 0
13.835000 0.425675 5
13.840000 0.425325 0
13.845000 0.421592 0
13.850000 0.414534 0
13.855000 0.404283 0
13.860000 0.391031 0
13.865000 0.375031 0
13.870000 0.356585 0
13.875000 0.336034 0
13.880000 0.313751 0
13.885000 0.290124 0
13.890000 0.265550 0
13.895000 0.240420 0
13.900000 0.215111 0
13.905000 0.189977 0
13.910000 0.165339 0
13.915000 0.141483 0
13.920000 0.118651 0
13.925000 0.097043 0
13.930000 0.076815 0
13.935000 0.058078 0
13.940000 0.040899 0
13.945000 0.025312 0
13.950000 0.011311 0
13.955000 -0.001137 0
13.960000 -0.012089 0
13.965000 -0.021625 0
13.970000 -0.029838 0
13.975000 -0.036829 0
13.980000 -0.042709 0
13.985000 -0.047588 0
13.990000 -0.051577 0
13.995000 -0.054782 0
14.000000 -0.057306 0
14.005000 -0.059241 0
14.010000 -0.060674 0
14.015000 -0.061684 0
14.020000 -0.062338 0
14.025000 -0.062699 0
14.030000 -0.062819 0
14.035000 -0.062743 0
14.040000 -0.062509 0
14.045000 -0.062149 0
14.050000 -0.061690 0
14.055000 -0.061155 0
14.060000 -0.060559 0
14.065000 -0.059898 0
14.070000 -0.059115 0
14.075000 -0.058335 0
14.080000 -0.057560 0
14.085000 -0.056788 0
14.090000 -0.056020 0
14.095000 -0.055256 0
14.100000 -0.054496 0
14.105000 -0.053740 0
14.110000 -0.052987 0
14.115000 -0.052239 0
14.120000 -0.051493 0
14.125000 -0.050752 0
14.130000 -0.050014 0
14.135000 -0.049280 0
14.140000 -0.048550 0
14.145000 -0.047823 0
14.150000 -0.047100 0
14.155000 -0.046381 0
14.160000 -0.045665 0
14.165000 -0.044952 0
14.170000 -0.044243 0
14.175000 -0.043537 0
14.180000 -0.042834 0
14.185000 -0.042133 0
14.190000 -0.041433 0
14.195000 -0.040732 0
14.200000 -0.040028 0
14.205000 -0.039316 0
14.210000 -0.038588 0
14.215000 -0.037834 0
14.220000 -0.037037 0
14.225000 -0.036171 0
14.230000 -0.035201 0
14.235000 -0.034076 0
14.240000 -0.032728 0
14.245000 -0.031064 0
14.250000 -0.028966 0
14.255000 -0.026284 0
14.260000 -0.022835 0
14.265000 -0.018406 0
14.270000 -0.012757 0
14.275000 -0.005628 0
14.280000 0.003241 0
14.285000 0.014095 0
14.290000 0.027134 0
14.295000 0.042483 0
14.300000 0.060163 0
14.305000 0.080060 0
14.310000 0.101900 0
14.315000 0.125235 0
14.320000 0.149445 0
14.325000 0.173753 0
14.330000 0.197256 0
14.335000 0.218985 0
14.340000 0.237958 0
14.345000 0.253260 0
14.350000 0.264113 0
14.355000 0.269938 0
14.360000 0.270411 1
14.365000 0.265488 0
14.370000 0.255410 0
14.375000 0.240684 0
14.380000 0.222042 0
14.385000 0.200376 0
14.390000 0.176668 0
14.395000 0.151921 0
14.400000 0.127084 0
14.405000 0.102993 0
14.410000 0.080328 0
14.415000 0.059557 0
14.420000 0.040878 0
14.425000 0.024097 0
14.430000 0.008430 0
14.435000 -0.007715 0
14.440000 -0.026804 0
14.445000 -0.051707 0
14.450000 -0.084399 0
14.455000 -0.123950 0
14.460000 -0.164651 0
14.465000 -0.195480 0
14.470000 -0.201534 2
14.475000 -0.166773 0
14.480000 -0.077000 0
14.485000 0.076901 0
14.490000 0.294019 0
14.495000 0.556531 0
14.500000 0.824965 0
14.505000 1.042713 0
14.510000 1.153224 3
14.515000 1.128246 0
14.520000 0.973737 0
14.525000 0.725132 0
14.530000 0.434620 0
14.535000 0.152707 0
14.540000 -0.084208 0
14.545000 -0.256920 0
14.550000 -0.360448 0
14.555000 -0.400000 4
14.560000 -0.388110 0
14.565000 -0.342079 0
14.570000 -0.280439 0
14.575000 -0.218862 0
14.580000 -0.167207 0
14.585000 -0.128983 0
14.590000 -0.102974 0
14.595000 -0.085727 0
14.600000 -0.073585 0
14.605000 -0.063738 0
14.610000 -0.054416 0
14.615000 -0.044654 0
14.620000 -0.033974 0
14.625000 -0.022147 0
14.630000 -0.009055 0
14.635000 0.005360 0
14.640000 0.021129 0
14.645000 0.038252 0
14.650000 0.056701 0
14.655000 0.076418 0
14.660000 0.097310 0
14.665000 0.119247 0
14.670000 0.142066 0
14.675000 0.165565 0
14.680000 0.189508 0
14.685000 0.213627 0
14.690000 0.237625 0
14.695000 0.261182 0
14.700000 0.283963 0
14.705000 0.305624 0
14.710000 0.325819 0
14.715000 0.344212 0
14.720000 0.360483 0
14.725000 0.374341 0
14.730000 0.385527 0
14.735000 0.393828 0
14.740000 0.399079 0
14.745000 0.401170 5
14.750000 0.400048 0
14.755000 0.395724 0
14.760000 0.388264 0
14.765000 0.377798 0
14.770000 0.364504 0
14.775000 0.348616 0
14.780000 0.330404 0
14.785000 0.310176 0
14.790000 0.288265 0
14.795000 0.265021 0
14.800000 0.240799 0
14.805000 0.215954 0
14.810000 0.190832 0
14.815000 0.165757 0
14.820000 0.141032 0
14.825000 0.116929 0
14.830000 0.093687 0
14.835000 0.071506 0
14.840000 0.050551 0
14.845000 0.030946 0
14.850000 0.012781 0
14.855000 -0.003892 0
14.860000 -0.019051 0
14.865000 -0.032704 0
14.870000 -0.044884 0
14.875000 -0.055643 0
14.880000 -0.065054 0
14.885000 -0.073198 0
14.890000 -0.080168 0
14.895000 -0.086063 0
14.900000 -0.090981 0
14.905000 -0.095024 0
14.910000 -0.098289 0
14.915000 -0.100869 0
14.920000 -0.102851 0
14.925000 -0.104318 0
14.930000 -0.105344 0
14.935000 -0.105995 0
14.940000 -0.106330 0
14.945000 -0.106404 0
14.950000 -0.106260 0
14.955000 -0.105939 0
14.960000 -0.105475 0
14.965000 -0.104894 0
14.970000 -0.104221 0
14.975000 -0.103477 0
14.980000 -0.102675 0
14.985000 -0.101809 0
14.990000 -0.100817 0
14.995000 -0.099829 0
15.000000 -0.098847 0
15.005000 -0.097869 0
15.010000 -0.096897 0
15.015000 -0.095929 0
15.020000 -0.094966 0
15.025000 -0.094008 0
15.030000 -0.093054 0
15.035000 -0.092106 0
15.040000 -0.091162 0
15.045000 -0.090222 0
15.050000 -0.089288 0
15.055000 -0.088358 0
15.060000 -0.087433 0
15.065000 -0.086512 0
15.070000 -0.085596 0
15.075000 -0.084685 0
15.080000 -0.083778 0
15.085000 -0.082875 0
15.090000 -0.081977 0
15.095000 -0.081083 0
15.100000 -0.080194 0
15.105000 -0.079308 0
15.110000 -0.078426 0
15.115000 -0.077546 0
15.120000 -0.076668 0
15.125000 -0.075789 0
15.130000 -0.074906 0
15.135000 -0.074015 0
15.140000 -0.073108 0
15.145000 -0.072174 0
15.150000 -0.071195 0
15.155000 -0.070149 0
15.160000 -0.069002 0
15.165000 -0.067708 0
15.170000 -0.066204 0
15.175000 -0.064409 0
15.180000 -0.062219 0
15.185000 -0.059502 0
15.190000 -0.056102 0
15.195000 -0.051833 0
15.200000 -0.046484 0
15.205000 -0.039828 0
15.210000 -0.031629 0
15.215000 -0.021656 0
15.220000 -0.009709 0
15.225000 0.004368 0
15.230000 0.020654 0
15.235000 0.039128 0
15.240000 0.059648 0
15.245000 0.081930 0
15.250000 0.105542 0
15.255000 0.129904 0
15.260000 0.154305 0
15.265000 0.177931 0
15.270000 0.199907 0
15.275000 0.219350 0
15.280000 0.235425 0
15.285000 0.247406 0
15.290000 0.254728 0
15.295000 0.257034 1
15.300000 0.254201 0
15.305000 0.246353 0
15.310000 0.233848 0
15.315000 0.217256 0
15.320000 0.197311 0
15.325000 0.174861 0
15.330000 0.150806 0
15.335000 0.126040 0
15.340000 0.101395 0
15.345000 0.077599 0
15.350000 0.055235 0
15.355000 0.034703 0
15.360000 0.016163 0
15.365000 -0.000560 0
15.370000 -0.016141 0
15.375000 -0.031938 0
15.380000 -0.050067 0
15.385000 -0.073120 0
15.390000 -0.103247 0
15.395000 -0.140623 0
15.400000 -0.181770 0
15.405000 -0.218632 0
15.410000 -0.239096 2
15.415000 -0.228873 0
15.420000 -0.173916 0
15.425000 -0.062813 0
15.430000 0.110228 0
15.435000 0.340710 0
15.440000 0.608164 0
15.445000 0.873444 0
15.450000 1.084262 0
15.455000 1.190431 3
15.460000 1.162495 0
15.465000 1.004902 0
15.470000 0.754065 0
15.475000 0.462884 0
15.480000 0.182010 0
15.485000 -0.052491 0
15.490000 -0.221957 0
15.495000 -0.321953 0
15.500000 -0.358210 4
15.505000 -0.343751 0
15.510000 -0.296247 0
15.515000 -0.234340 0
15.520000 -0.173492 0
15.525000 -0.123130 0
15.530000 -0.086307 0
15.535000 -0.061494 0
15.540000 -0.045109 0
15.545000 -0.033516 0
15.550000 -0.023989 0
15.555000 -0.014847 0
15.560000 -0.005185 0
15.565000 0.005439 0
15.570000 0.017237 0
15.575000 0.030317 0
15.580000 0.044734 0
15.585000 0.060515 0
15.590000 0.077656 0
15.595000 0.096124 0
15.600000 0.115854 0
15.605000 0.136748 0
15.610000 0.158670 0
15.615000 0.181447 0
15.620000 0.204869 0
15.625000 0.228691 0
15.630000 0.252638 0
15.635000 0.276404 0
15.640000 0.299663 0
15.645000 0.322075 0
15.650000 0.343289 0
15.655000 0.362958 0
15.660000 0.380746 0
15.665000 0.396336 0
15.670000 0.409438 0
15.675000 0.419803 0
15.680000 0.427225 0
15.685000 0.431550 0
15.690000 0.432682 5
15.695000 0.430583 0
15.700000 0.425277 0
15.705000 0.416850 0
15.710000 0.405445 0
15.715000 0.391258 0
15.720000 0.374535 0
15.725000 0.355562 0
15.730000 0.334657 0
15.735000 0.312162 0
15.740000 0.288434 0
15.745000 0.263831 0
15.750000 0.238711 0
15.755000 0.213417 0
15.760000 0.188270 0
15.765000 0.163567 0
15.770000 0.139571 0
15.775000 0.116511 0
15.780000 0.094579 0
15.785000 0.073926 0
15.790000 0.054665 0
15.795000 0.036874 0
15.800000 0.020595 0
15.805000 0.005837 0
15.810000 -0.007416 0
15.815000 -0.019205 0
15.820000 -0.029592 0
15.825000 -0.038653 0
15.830000 -0.046477 0
15.835000 -0.053158 0
15.840000 -0.058797 0
15.845000 -0.063495 0
15.850000 -0.067353 0
15.855000 -0.070468 0
15.860000 -0.072931 0
15.865000 -0.074829 0
15.870000 -0.076241 0
15.875000 -0.077238 0
15.880000 -0.077885 0
15.885000 -0.078239 0
15.890000 -0.078350 0
15.895000 -0.078261 0
15.900000 -0.078009 0
15.905000 -0.077625 0
15.910000 -0.077136 0
15.915000 -0.076564 0
15.920000 -0.075927 0
15.925000 -0.075239 0
15.930000 -0.074404 0
15.935000 -0.073549 0
15.940000 -0.072697 0
15.945000 -0.071850 0
15.950000 -0.071007 0
15.955000 -0.070169 0
15.960000 -0.069334 0
15.965000 -0.068504 0
15.970000 -0.067677 0
15.975000 -0.066855 0
15.980000 -0.066037 0
15.985000 -0.065223 0
15.990000 -0.064414 0
15.995000 -0.063608 0
16.000000 -0.062806 0
16.005000 -0.062008 0
16.010000 -0.061214 0
16.015000 -0.060425 0
16.020000 -0.059639 0
16.025000 -0.058857 0
16.030000 -0.058078 0
16.035000 -0.057304 0
16.040000 -0.056533 0
16.045000 -0.055765 0
16.050000 -0.055001 0
16.055000 -0.054239 0
16.060000 -0.053478 0
16.065000 -0.052717 0
16.070000 -0.051953 0
16.075000 -0.051182 0
16.080000 -0.050397 0
16.085000 -0.049589 0
16.090000 -0.048742 0
16.095000 -0.047837 0
16.100000 -0.046841 0
16.105000 -0.045715 0
16.110000 -0.044400 0
16.115000 -0.042821 0
16.120000 -0.040881 0
16.125000 -0.038456 0
16.130000 -0.035396 0
16.135000 -0.031522 0
16.140000 -0.026628 0
16.145000 -0.020490 0
16.150000 -0.012869 0
16.155000 -0.003530 0
16.160000 0.007741 0
16.165000 0.021117 0
16.170000 0.036700 0
16.175000 0.054500 0
16.180000 0.074408 0
16.185000 0.096175 0
16.190000 0.119403 0
16.195000 0.143544 0
16.200000 0.167909 0
16.205000 0.191697 0
16.210000 0.214036 0
16.215000 0.234030 0
16.220000 0.250820 0
16.225000 0.263642 0
16.230000 0.271888 0
16.235000 0.275149 1
16.240000 0.273252 0
16.245000 0.266270 0
16.250000 0.254522 0
16.255000 0.238546 0
16.260000 0.219055 0
16.265000 0.196890 0
16.270000 0.172954 0
16.275000 0.148155 0
16.280000 0.123348 0
16.285000 0.099288 0
16.290000 0.076588 0
16.295000 0.055683 0
16.300000 0.036775 0
16.305000 0.019742 0
16.310000 0.003981 0
16.315000 -0.011779 0
16.320000 -0.029587 0
16.325000 -0.052035 0
16.330000 -0.081415 0
16.335000 -0.118208 0
16.340000 -0.159352 0
16.345000 -0.197177 0
16.350000 -0.219775 2
16.355000 -0.212815 0
16.360000 -0.161997 0
16.365000 -0.055489 0
16.370000 0.113121 0
16.375000 0.340201 0
16.380000 0.606269 0
16.385000 0.872874 0
16.390000 1.087627 0
16.395000 1.199292 3
16.400000 1.173177 0
16.405000 1.012066 0
16.410000 0.756330 0
16.415000 0.463929 0
16.420000 0.188582 0
16.425000 -0.033532 0
16.430000 -0.185625 0
16.435000 -0.265988 0
16.440000 -0.283487 4
16.445000 -0.254398 0
16.450000 -0.198896 0
16.455000 -0.136288 0
16.460000 -0.080512 0
16.465000 -0.038111 0
16.470000 -0.009288 0
16.475000 0.009277 0
16.480000 0.021689 0
16.485000 0.031262 0
16.490000 0.040108 0
16.495000 0.049365 0
16.500000 0.059581 0
16.505000 0.071011 0
16.510000 0.083778 0
16.515000 0.097948 0
16.520000 0.113546 0
16.525000 0.130568 0
16.530000 0.148975 0
16.535000 0.168691 0
16.540000 0.189601 0
16.545000 0.211548 0
16.550000 0.234331 0
16.555000 0.257709 0
16.560000 0.281403 0
16.565000 0.305097 0
16.570000 0.328447 0
16.575000 0.351087 0
16.580000 0.372640 0
16.585000 0.392724 0
16.590000 0.410966 0
16.595000 0.427011 0
16.600000 0.440535 0
16.605000 0.451253 0
16.610000 0.458932 0
16.615000 0.463394 0
16.620000 0.464528 5
16.625000 0.462288 0
16.630000 0.456700 0
16.635000 0.447858 0
16.640000 0.435923 0
16.645000 0.421117 0
16.650000 0.403714 0
16.655000 0.384034 0
16.660000 0.362433 0
16.665000 0.339288 0
16.670000 0.314990 0
16.675000 0.289932 0
16.680000 0.264496 0
16.685000 0.239047 0
16.690000 0.213921 0
16.695000 0.189424 0
16.700000 0.165818 0
16.705000 0.143327 0
16.710000 0.122130 0
16.715000 0.102360 0
16.720000 0.084110 0
16.725000 0.067433 0
16.730000 0.052343 0
16.735000 0.038824 0
16.740000 0.026832 0
16.745000 0.016301 0
16.750000 0.007146 0
16.755000 -0.000730 0
16.760000 -0.007431 0
16.765000 -0.013067 0
16.770000 -0.017749 0
16.775000 -0.021584 0
16.780000 -0.024677 0
16.785000 -0.027126 0
16.790000 -0.029020 0
16.795000 -0.030444 0
16.800000 -0.031471 0
16.805000 -0.032166 0
16.810000 -0.032588 0
16.815000 -0.032785 0
16.820000 -0.032800 0
16.825000 -0.032669 0
16.830000 -0.032421 0
16.835000 -0.032083 0
16.840000 -0.031672 0
16.845000 -0.031207 0
16.850000 -0.030592 0
16.855000 -0.029955 0
16.860000 -0.029321 0
16.865000 -0.028690 0
16.870000 -0.028063 0
16.875000 -0.027438 0
16.880000 -0.026817 0
16.885000 -0.026199 0
16.890000 -0.025583 0
16.895000 -0.024971 0
16.900000 -0.024362 0
16.905000 -0.023756 0
16.910000 -0.023153 0
16.915000 -0.022553 0
16.920000 -0.021956 0
16.925000 -0.021362 0
16.930000 -0.020771 0
16.935000 -0.020183 0
16.940000 -0.019597 0
16.945000 -0.019015 0
16.950000 -0.018435 0
16.955000 -0.017858 0
16.960000 -0.017284 0
16.965000 -0.016711 0
16.970000 -0.016140 0
16.975000 -0.015569 0
16.980000 -0.014996 0
16.985000 -0.014418 0
16.990000 -0.013831 0
16.995000 -0.013225 0
17.000000 -0.012590 0
17.005000 -0.011906 0
17.010000 -0.011148 0
17.015000 -0.010277 0
17.020000 -0.009240 0
17.025000 -0.007965 0
17.030000 -0.006356 0
17.035000 -0.004290 0
17.040000 -0.001613 0
17.045000 0.001861 0
17.050000 0.006349 0
17.055000 0.012093 0
17.060000 0.019352 0
17.065000 0.028383 0
17.070000 0.039425 0
17.075000 0.052665 0
17.080000 0.068217 0
17.085000 0.086085 0
17.090000 0.106134 0
17.095000 0.128072 0
17.100000 0.151433 0
17.105000 0.175581 0
17.110000 0.199728 0
17.115000 0.222970 0
17.120000 0.244339 0
17.125000 0.262866 0
17.130000 0.277652 0
17.135000 0.287943 0
17.140000 0.293187 1
17.145000 0.293085 0
17.150000 0.287617 0
17.155000 0.277047 0
17.160000 0.261897 0
17.165000 0.242904 0
17.170000 0.220964 0
17.175000 0.197054 0
17.180000 0.172169 0
17.185000 0.147243 0
17.190000 0.123101 0
17.195000 0.100407 0
17.200000 0.079615 0
17.205000 0.060909 0
17.210000 0.044078 0
17.215000 0.028323 0
17.220000 0.012038 0
17.225000 -0.007243 0
17.230000 -0.032365 0
17.235000 -0.065259 0
17.240000 -0.104953 0
17.245000 -0.145735 0
17.250000 -0.176649 0
17.255000 -0.182901 2
17.260000 -0.148579 0
17.265000 -0.059574 0
17.270000 0.093239 0
17.275000 0.309162 0
17.280000 0.570898 0
17.285000 0.839777 0
17.290000 1.059914 0
17.295000 1.174837 3
17.300000 1.149576 0
17.305000 0.988115 0
17.310000 0.731640 0
17.315000 0.439215 0
17.320000 0.165221 0
17.325000 -0.054144 0
17.330000 -0.202501 0
17.335000 -0.278735 0
17.340000 -0.292399 4
17.345000 -0.260466 0
17.350000 -0.203588 0
17.355000 -0.141101 0
17.360000 -0.086509 0
17.365000 -0.045698 0
17.370000 -0.018308 0
17.375000 -0.000732 0
17.380000 0.011161 0
17.385000 0.020578 0
17.390000 0.029495 0
17.395000 0.038948 0
17.400000 0.049430 0
17.405000 0.061166 0
17.410000 0.074270 0
17.415000 0.088796 0
17.420000 0.104766 0
17.425000 0.122168 0
17.430000 0.140955 0
17.435000 0.161039 0
17.440000 0.182292 0
17.445000 0.204545 0
17.450000 0.227581 0
17.455000 0.251144 0
17.460000 0.274938 0
17.465000 0.298634 0
17.470000 0.321872 0
17.475000 0.344277 0
17.480000 0.365459 0
17.485000 0.385034 0
17.490000 0.402624 0
17.495000 0.417879 0
17.500000 0.430481 0
17.505000 0.440159 0
17.510000 0.446694 0
17.515000 0.449931 5
17.520000 0.449782 0
17.525000 0.446230 0
17.530000 0.439330 0
17.535000 0.429206 0
17.540000 0.416049 0
17.545000 0.400110 0
17.550000 0.381691 0
17.555000 0.361135 0
17.560000 0.338815 0
17.565000 0.315125 0
17.570000 0.290464 0
17.575000 0.265229 0
17.580000 0.239800 0
17.585000 0.214537 0
17.590000 0.189766 0
17.595000 0.165774 0
17.600000 0.142809 0
17.605000 0.121074 0
17.610000 0.100724 0
17.615000 0.081872 0
17.620000 0.064589 0
17.625000 0.048905 0
17.630000 0.034816 0
17.635000 0.022287 0
17.640000 0.011259 0
17.645000 0.001653 0
17.650000 -0.006625 0
17.655000 -0.013681 0
17.660000 -0.019625 0
17.665000 -0.024568 0
17.670000 -0.028622 0
17.675000 -0.031895 0
17.680000 -0.034488 0
17.685000 -0.036496 0
17.690000 -0.038006 0
17.695000 -0.039096 0
17.700000 -0.039834 0
17.705000 -0.040282 0
17.710000 -0.040491 0
17.715000 -0.040507 0
17.720000 -0.040368 0
17.725000 -0.040106 0
17.730000 -0.039747 0
17.735000 -0.039311 0
17.740000 -0.038818 0
17.745000 -0.038260 0
17.750000 -0.037584 0
17.755000 -0.036912 0
17.760000 -0.036244 0
17.765000 -0.035578 0
17.770000 -0.034916 0
17.775000 -0.034258 0
17.780000 -0.033602 0
17.785000 -0.032950 0
17.790000 -0.032301 0
17.795000 -0.031656 0
17.800000 -0.031013 0
17.805000 -0.030374 0
17.810000 -0.029738 0
17.815000 -0.029105 0
17.820000 -0.028475 0
17.825000 -0.027849 0
17.830000 -0.027225 0
17.835000 -0.026605 0
17.840000 -0.025988 0
17.845000 -0.025373 0
17.850000 -0.024762 0
17.855000 -0.024153 0
17.860000 -0.023546 0
17.865000 -0.022940 0
17.870000 -0.022335 0
17.875000 -0.021728 0
17.880000 -0.021116 0
17.885000 -0.020494 0
17.890000 -0.019853 0
17.895000 -0.019180 0
17.900000 -0.018457 0
17.905000 -0.017655 0
17.910000 -0.016734 0
17.915000 -0.015637 0
17.920000 -0.014289 0
17.925000 -0.012587 0
17.930000 -0.010402 0
17.935000 -0.007571 0
17.940000 -0.003900 0
17.945000 0.000838 0
17.950000 0.006893 0
17.955000 0.014529 0
17.960000 0.024008 0
17.965000 0.035563 0
17.970000 0.049372 0
17.975000 0.065526 0
17.980000 0.083998 0
17.985000 0.104612 0
17.990000 0.127025 0
17.995000 0.150714 0
18.000000 0.174986 0
18.005000 0.199000 0
18.010000 0.221810 0
18.015000 0.242420 0
18.020000 0.259859 0
18.025000 0.273253 0
18.030000 0.281895 0
18.035000 0.285307 1
18.040000 0.283284 0
18.045000 0.275912 0
18.050000 0.263559 0
18.055000 0.246848 0
18.060000 0.226601 0
18.065000 0.203772 0
18.070000 0.179372 0
18.075000 0.154396 0
18.080000 0.129755 0
18.085000 0.106222 0
18.090000 0.084385 0
18.095000 0.064592 0
18.100000 0.046861 0
18.105000 0.030723 0
18.110000 0.014990 0
18.115000 -0.002423 0
18.120000 -0.024329 0
18.125000 -0.053367 0
18.130000 -0.090229 0
18.135000 -0.131537 0
18.140000 -0.168533 0
18.145000 -0.187629 2
18.150000 -0.172753 0
18.155000 -0.108383 0
18.160000 0.017388 0
18.165000 0.208742 0
18.170000 0.455749 0
18.175000 0.727801 0
18.180000 0.973453 0
18.185000 1.132802 0
18.190000 1.160198 3
18.195000 1.045419 0
18.200000 0.817697 0
18.205000 0.531759 0
18.210000 0.245452 0
18.215000 0.002230 0
18.220000 -0.174514 0
18.225000 -0.278428 0
18.230000 -0.315245 4
18.235000 -0.299221 0
18.240000 -0.249887 0
18.245000 -0.187558 0
18.250000 -0.128405 0
18.255000 -0.081406 0
18.260000 -0.048501 0
18.265000 -0.027108 0
18.270000 -0.013100 0
18.275000 -0.002805 0
18.280000 0.006256 0
18.285000 0.015477 0
18.290000 0.025545 0
18.295000 0.036778 0
18.300000 0.049328 0
18.305000 0.063272 0
18.310000 0.078646 0
18.315000 0.095455 0
18.320000 0.113667 0
18.325000 0.133218 0
18.330000 0.153999 0
18.335000 0.175864 0
18.340000 0.198620 0
18.345000 0.222035 0
18.350000 0.245834 0
18.355000 0.269708 0
18.360000 0.293314 0
18.365000 0.316290 0
18.370000 0.338254 0
18.375000 0.358822 0
18.380000 0.377614 0
18.385000 0.394270 0
18.390000 0.408453 0
18.395000 0.419870 0
18.400000 0.428272 0
18.405000 0.433472 0
18.410000 0.435343 5
18.415000 0.433827 0
18.420000 0.428939 0
18.425000 0.420761 0
18.430000 0.409446 0
18.435000 0.395207 0
18.440000 0.378314 0
18.445000 0.359084 0
18.450000 0.337869 0
18.455000 0.315050 0
18.460000 0.291018 0
18.465000 0.266171 0
18.470000 0.240896 0
18.475000 0.215563 0
18.480000 0.190516 0
18.485000 0.166066 0
18.490000 0.142484 0
18.495000 0.120000 0
18.500000 0.098797 0
18.505000 0.079017 0
18.510000 0.060755 0
18.515000 0.044069 0
18.520000 0.028976 0
18.525000 0.015462 0
18.530000 0.003486 0
18.535000 -0.007020 0
18.540000 -0.016138 0
18.545000 -0.023966 0
18.550000 -0.030609 0
18.555000 -0.036177 0
18.560000 -0.040783 0
18.565000 -0.044534 0
18.570000 -0.047537 0
18.575000 -0.049889 0
18.580000 -0.051684 0
18.585000 -0.053005 0
18.590000 -0.053925 0
18.595000 -0.054513 0
18.600000 -0.054825 0
18.605000 -0.054912 0
18.610000 -0.054817 0
18.615000 -0.054576 0
18.620000 -0.054218 0
18.625000 -0.053769 0
18.630000 -0.053250 0
18.635000 -0.052676 0
18.640000 -0.051954 0
18.645000 -0.051210 0
18.650000 -0.050470 0
18.655000 -0.049734 0
18.660000 -0.049001 0
18.665000 -0.048273 0
18.670000 -0.047547 0
18.675000 -0.046826 0
18.680000 -0.046107 0
18.685000 -0.045393 0
18.690000 -0.044682 0
18.695000 -0.043975 0
18.700000 -0.043271 0
18.705000 -0.042570 0
18.710000 -0.041873 0
18.715000 -0.041180 0
18.720000 -0.040490 0
18.725000 -0.039804 0
18.730000 -0.039120 0
18.735000 -0.038441 0
18.740000 -0.037764 0
18.745000 -0.037091 0
18.750000 -0.036420 0
18.755000 -0.035752 0
18.760000 -0.035085 0
18.765000 -0.034419 0
18.770000 -0.033752 0
18.775000 -0.033079 0
18.780000 -0.032396 0
18.785000 -0.031693 0
18.790000 -0.030959 0
18.795000 -0.030174 0
18.800000 -0.029308 0
18.805000 -0.028322 0
18.810000 -0.027158 0
18.815000 -0.025741 0
18.820000 -0.023968 0
18.825000 -0.021710 0
18.830000 -0.018806 0
18.835000 -0.015062 0
18.840000 -0.010252 0
18.845000 -0.004130 0
18.850000 0.003568 0
18.855000 0.013099 0
18.860000 0.024695 0
18.865000 0.038532 0
18.870000 0.054702 0
18.875000 0.073180 0
18.880000 0.093795 0
18.885000 0.116211 0
18.890000 0.139917 0
18.895000 0.164230 0
18.900000 0.188324 0
18.905000 0.211264 0
18.910000 0.232066 0
18.915000 0.249764 0
18.920000 0.263486 0
18.925000 0.272517 0
18.930000 0.276369 1
18.935000 0.274817 0
18.940000 0.267922 0
18.945000 0.256030 0
18.950000 0.239735 0
18.955000 0.219837 0
18.960000 0.197271 0
18.965000 0.173036 0
18.970000 0.148122 0
18.975000 0.123444 0
18.980000 0.099787 0
18.985000 0.077757 0
18.990000 0.057733 0
18.995000 0.039783 0
19.000000 0.023521 0
19.005000 0.007885 0
19.010000 -0.009059 0
19.015000 -0.030024 0
19.020000 -0.057747 0
19.025000 -0.093369 0
19.030000 -0.134341 0
19.035000 -0.172911 0
19.040000 -0.196328 2
19.045000 -0.188894 0
19.050000 -0.134911 0
19.055000 -0.021649 0
19.060000 0.156947 0
19.065000 0.394412 0
19.070000 0.664939 0
19.075000 0.921311 0
19.080000 1.104292 0
19.085000 1.163503 3
19.090000 1.078559 0
19.095000 0.870378 0
19.100000 0.591163 0
19.105000 0.301072 0
19.110000 0.048020 0
19.115000 -0.140551 0
19.120000 -0.255629 0
19.125000 -0.301431 4
19.130000 -0.291448 0
19.135000 -0.245132 0
19.140000 -0.183408 0
19.145000 -0.123462 0
19.150000 -0.075253 0
19.155000 -0.041333 0
19.160000 -0.019323 0
19.165000 -0.005039 0
19.170000 0.005324 0
19.175000 0.014359 0
19.180000 0.023524 0
19.185000 0.033536 0
19.190000 0.044724 0
19.195000 0.057244 0
19.200000 0.071174 0
19.205000 0.086552 0
19.210000 0.103379 0
19.215000 0.121625 0
19.220000 0.141219 0
19.225000 0.162050 0
19.230000 0.183964 0
19.235000 0.206762 0
19.240000 0.230201 0
19.245000 0.253997 0
19.250000 0.277830 0
19.255000 0.301348 0
19.260000 0.324176 0
19.265000 0.345924 0
19.270000 0.366200 0
19.275000 0.384618 0
19.280000 0.400812 0
19.285000 0.414447 0
19.290000 0.425231 0
19.295000 0.432923 0
19.300000 0.437343 0
19.305000 0.438379 5
19.310000 0.435990 0
19.315000 0.430206 0
19.320000 0.421133 0
19.325000 0.408942 0
19.330000 0.393870 0
19.335000 0.376206 0
19.340000 0.356287 0
19.345000 0.334484 0
19.350000 0.311188 0
19.355000 0.286804 0
19.360000 0.261736 0
19.365000 0.236373 0
19.370000 0.211085 0
19.375000 0.186211 0
19.380000 0.162053 0
19.385000 0.138871 0
19.390000 0.116881 0
19.395000 0.096252 0
19.400000 0.077108 0
19.405000 0.059529 0
19.410000 0.043554 0
19.415000 0.029186 0
19.420000 0.016397 0
19.425000 0.005129 0
19.430000 -0.004692 0
19.435000 -0.013161 0
19.440000 -0.020381 0
19.445000 -0.026464 0
19.450000 -0.031522 0
19.455000 -0.035669 0
19.460000 -0.039014 0
19.465000 -0.041661 0
19.470000 -0.043708 0
19.475000 -0.045241 0
19.480000 -0.046343 0
19.485000 -0.047083 0
19.490000 -0.047525 0
19.495000 -0.047722 0
19.500000 -0.047720 0
19.505000 -0.047558 0
19.510000 -0.047270 0
19.515000 -0.046883 0
19.520000 -0.046417 0
19.525000 -0.045892 0
19.530000 -0.045301 0
19.535000 -0.044591 0
19.540000 -0.043884 0
19.545000 -0.043181 0
19.550000 -0.042481 0
19.555000 -0.041784 0
19.560000 -0.041091 0
19.565000 -0.040402 0
19.570000 -0.039716 0
19.575000 -0.039033 0
19.580000 -0.038354 0
19.585000 -0.037678 0
19.590000 -0.037006 0
19.595000 -0.036336 0
19.600000 -0.035671 0
19.605000 -0.035008 0
19.610000 -0.034349 0
19.615000 -0.033693 0
19.620000 -0.033041 0
19.625000 -0.032391 0
19.630000 -0.031745 0
19.635000 -0.031101 0
19.640000 -0.030461 0
19.645000 -0.029822 0
19.650000 -0.029185 0
19.655000 -0.028549 0
19.660000 -0.027910 0
19.665000 -0.027266 0
19.670000 -0.026612 0
19.675000 -0.025937 0
19.680000 -0.025230 0
19.685000 -0.024469 0
19.690000 -0.023624 0
19.695000 -0.022654 0
19.700000 -0.021499 0
19.705000 -0.020078 0
19.710000 -0.018286 0
19.715000 -0.015986 0
19.720000 -0.013009 0
19.725000 -0.009152 0
19.730000 -0.004183 0
19.735000 0.002155 0
19.740000 0.010132 0
19.745000 0.020007 0
19.750000 0.032009 0
19.755000 0.046303 0
19.760000 0.062962 0
19.765000 0.081929 0
19.770000 0.102993 0
19.775000 0.125768 0
19.780000 0.149687 0
19.785000 0.174012 0
19.790000 0.197862 0
19.795000 0.220263 0
19.800000 0.240207 0
19.805000 0.256729 0
19.810000 0.268981 0
19.815000 0.276302 0
19.820000 0.278280 1
19.825000 0.274785 0
19.830000 0.265985 0
19.835000 0.252331 0
19.840000 0.234517 0
19.845000 0.213421 0
19.850000 0.190034 0
19.855000 0.165381 0
19.860000 0.140449 0
19.865000 0.116120 0
19.870000 0.093122 0
19.875000 0.071975 0
19.880000 0.052933 0
19.885000 0.035868 0
19.890000 0.020078 0
19.895000 0.004051 0
19.900000 -0.014636 0
19.905000 -0.038917 0
19.910000 -0.070978 0
19.915000 -0.110199 0
19.920000 -0.151145 0
19.925000 -0.182875 0
19.930000 -0.190299 2
19.935000 -0.157015 0
19.940000 -0.068417 0
19.945000 0.084941 0
19.950000 0.302212 0
19.955000 0.565090 0
19.960000 0.832913 0
19.965000 1.047591 0
19.970000 1.151838 3
19.975000 1.116286 0
19.980000 0.949157 0
19.985000 0.691149 0
19.990000 0.398815 0
19.995000 0.124054 0
20.000000 -0.098174 0
20.005000 -0.251482 0
20.010000 -0.333974 0
20.015000 -0.353957 4
20.020000 -0.326953 0
20.025000 -0.272448 0
20.030000 -0.209450 0
20.035000 -0.152128 0
20.040000 -0.107616 0
20.045000 -0.076733 0
20.050000 -0.056546 0
20.055000 -0.043048 0
20.060000 -0.032836 0
20.065000 -0.023653 0
20.070000 -0.014236 0
20.075000 -0.003963 0
20.080000 0.007461 0
20.085000 0.020178 0
20.090000 0.034261 0
20.095000 0.049744 0
20.100000 0.066633 0
20.105000 0.084899 0
20.110000 0.104481 0
20.115000 0.125279 0
20.120000 0.147155 0
20.125000 0.169930 0
20.130000 0.193384 0
20.135000 0.217259 0
20.140000 0.241264 0
20.145000 0.265075 0
20.150000 0.288345 0
20.155000 0.310712 0
20.160000 0.331806 0
20.165000 0.351259 0
20.170000 0.368717 0
20.175000 0.383849 0
20.180000 0.396358 0
20.185000 0.405990 0
20.190000 0.412540 0
20.195000 0.415866 0
20.200000 0.415883 5
20.205000 0.412578 0
20.210000 0.406000 0
20.215000 0.396266 0
20.220000 0.383555 0
20.225000 0.368099 0
20.230000 0.350183 0
20.235000 0.330128 0
20.240000 0.308286 0
20.245000 0.285030 0
20.250000 0.260741 0
20.255000 0.235798 0
20.260000 0.210569 0
20.265000 0.185403 0
20.270000 0.160620 0
20.275000 0.136509 0
20.280000 0.113318 0
20.285000 0.091258 0
20.290000 0.070493 0
20.295000 0.051150 0
20.300000 0.033313 0
20.305000 0.017028 0
20.310000 0.002307 0
20.315000 -0.010869 0
20.320000 -0.022544 0
20.325000 -0.032783 0
20.330000 -0.041669 0
20.335000 -0.049296 0
20.340000 -0.055766 0
20.345000 -0.061186 0
20.350000 -0.065663 0
20.355000 -0.069302 0
20.360000 -0.072204 0
20.365000 -0.074465 0
20.370000 -0.076174 0
20.375000 -0.077411 0
20.380000 -0.078250 0
20.385000 -0.078755 0
20.390000 -0.078984 0
20.395000 -0.078984 0
20.400000 -0.078800 0
20.405000 -0.078467 0
20.410000 -0.078014 0
20.415000 -0.077468 0
20.420000 -0.076847 0
20.425000 -0.076170 0
20.430000 -0.075429 0
20.435000 -0.074568 0
20.440000 -0.073712 0
20.445000 -0.072860 0
20.450000 -0.072012 0
20.455000 -0.071168 0
20.460000 -0.070329 0
20.465000 -0.069493 0
20.470000 -0.068662 0
20.475000 -0.067835 0
20.480000 -0.067012 0
20.485000 -0.066194 0
20.490000 -0.065379 0
20.495000 -0.064568 0
20.500000 -0.063762 0
20.505000 -0.062959 0
20.510000 -0.062161 0
20.515000 -0.061366 0
20.520000 -0.060575 0
20.525000 -0.059789 0
20.530000 -0.059006 0
20.535000 -0.058226 0
20.540000 -0.057451 0
20.545000 -0.056678 0
20.550000 -0.055909 0
20.555000 -0.055141 0
20.560000 -0.054374 0
20.565000 -0.053606 0
20.570000 -0.052832 0
20.575000 -0.052048 0
20.580000 -0.051244 0
20.585000 -0.050408 0
20.590000 -0.049519 0
20.595000 -0.048549 0
20.600000 -0.047460 0
20.605000 -0.046194 0
20.610000 -0.044678 0
20.615000 -0.042813 0
20.620000 -0.040476 0
20.625000 -0.037512 0
20.630000 -0.033736 0
20.635000 -0.028933 0
20.640000 -0.022866 0
20.645000 -0.015283 0
20.650000 -0.005936 0
20.655000 0.005405 0
20.660000 0.018918 0
20.665000 0.034710 0
20.670000 0.052779 0
20.675000 0.072995 0
20.680000 0.095072 0
20.685000 0.118561 0
20.690000 0.142850 0
20.695000 0.167178 0
20.700000 0.190675 0
20.705000 0.212402 0
20.710000 0.231415 0
20.715000 0.246834 0
20.720000 0.257905 0
20.725000 0.264064 0
20.730000 0.264982 1
20.735000 0.260596 0
20.740000 0.251114 0
20.745000 0.236997 0
20.750000 0.218925 0
20.755000 0.197737 0
20.760000 0.174371 0
20.765000 0.149794 0
20.770000 0.124937 0
20.775000 0.100633 0
20.780000 0.077578 0
20.785000 0.056283 0
20.790000 0.037020 0
20.795000 0.019732 0
20.800000 0.003873 0
20.805000 -0.011807 0
20.810000 -0.029398 0
20.815000 -0.051622 0
20.820000 -0.080934 0
20.825000 -0.117855 0
20.830000 -0.159046 0
20.835000 -0.196142 0
20.840000 -0.216258 2
20.845000 -0.204108 0
20.850000 -0.144761 0
20.855000 -0.026402 0
20.860000 0.156106 0
20.865000 0.395638 0
20.870000 0.666520 0
20.875000 0.922891 0
20.880000 1.107648 0
20.885000 1.171879 3
20.890000 1.098893 0
20.895000 0.906218 0
20.900000 0.636920 0
20.905000 0.344149 0
20.910000 0.074166 0
20.915000 -0.142733 0
20.920000 -0.292668 0
20.925000 -0.374423 0
20.930000 -0.395799 4
20.935000 -0.371067 0
20.940000 -0.318219 0
20.945000 -0.255179 0
20.950000 -0.195925 0
20.955000 -0.148250 0
20.960000 -0.113977 0
20.965000 -0.090978 0
20.970000 -0.075597 0
20.975000 -0.064385 0
20.980000 -0.054857 0
20.985000 -0.045514 0
20.990000 -0.035565 0
20.995000 -0.024622 0
21.000000 -0.012496 0
21.005000 0.000908 0
21.010000 0.015641 0
21.015000 0.031725 0
21.020000 0.049154 0
21.025000 0.067892 0
21.030000 0.087873 0
21.035000 0.108996 0
21.040000 0.131125 0
21.045000 0.154088 0
21.050000 0.177677 0
21.055000 0.201650 0
21.060000 0.225735 0
21.065000 0.249630 0
21.070000 0.273017 0
21.075000 0.295558 0
21.080000 0.316911 0
21.085000 0.336734 0
21.090000 0.354698 0
21.095000 0.370488 0
21.100000 0.383823 0
21.105000 0.394452 0
21.110000 0.402174 0
21.115000 0.406833 0
21.120000 0.408331 5
21.125000 0.406627 0
21.130000 0.401740 0
21.135000 0.393747 0
21.140000 0.382784 0
21.145000 0.369039 0
21.150000 0.352748 0
21.155000 0.334187 0
21.160000 0.313665 0
21.165000 0.291515 0
21.170000 0.268086 0
21.175000 0.243732 0
21.180000 0.218802 0
21.185000 0.193638 0
21.190000 0.168561 0
21.195000 0.143867 0
21.200000 0.119821 0
21.205000 0.096657 0
21.210000 0.074570 0
21.215000 0.053719 0
21.220000 0.034224 0
21.225000 0.016170 0
21.230000 -0.000394 0
21.235000 -0.015449 0
21.240000 -0.029005 0
21.245000 -0.041096 0
21.250000 -0.051778 0
21.255000 -0.061121 0
21.260000 -0.069208 0
21.265000 -0.076132 0
21.270000 -0.081989 0
21.275000 -0.086880 0
21.280000 -0.090904 0
21.285000 -0.094156 0
21.290000 -0.096730 0
21.295000 -0.098713 0
21.300000 -0.100185 0
21.305000 -0.101219 0
21.310000 -0.101881 0
21.315000 -0.102231 0
21.320000 -0.102320 0
21.325000 -0.102194 0
21.330000 -0.101892 0
21.335000 -0.101446 0
21.340000 -0.100886 0
21.345000 -0.100233 0
21.350000 -0.099508 0
21.355000 -0.098727 0
21.360000 -0.097881 0
21.365000 -0.096908 0
21.370000 -0.095941 0
21.375000 -0.094977 0
21.380000 -0.094019 0
21.385000 -0.093066 0
21.390000 -0.092117 0
21.395000 -0.091173 0
21.400000 -0.090234 0
21.405000 -0.089299 0
21.410000 -0.088369 0
21.415000 -0.087444 0
21.420000 -0.086523 0
21.425000 -0.085607 0
21.430000 -0.084696 0
21.435000 -0.083789 0
21.440000 -0.082886 0
21.445000 -0.081988 0
21.450000 -0.081095 0
21.455000 -0.080206 0
21.460000 -0.079321 0
21.465000 -0.078441 0
21.470000 -0.077565 0
21.475000 -0.076693 0
21.480000 -0.075824 0
21.485000 -0.074960 0
21.490000 -0.074097 0
21.495000 -0.073237 0
21.500000 -0.072376 0
21.505000 -0.071512 0
21.510000 -0.070639 0
21.515000 -0.069752 0
21.520000 -0.068840 0
21.525000 -0.067886 0
21.530000 -0.066869 0
21.535000 -0.065757 0
21.540000 -0.064505 0
21.545000 -0.063056 0
21.550000 -0.061331 0
21.555000 -0.059231 0
21.560000 -0.056630 0
21.565000 -0.053377 0
21.570000 -0.049291 0
21.575000 -0.044170 0
21.580000 -0.037788 0
21.585000 -0.029912 0
21.590000 -0.020313 0
21.595000 -0.008781 0
21.600000 0.004846 0
21.605000 0.020664 0
21.610000 0.038676 0
21.615000 0.058766 0
21.620000 0.080683 0
21.625000 0.104031 0
21.630000 0.128265 0
21.635000 0.152706 0
21.640000 0.176566 0
21.645000 0.198988 0
21.650000 0.219092 0
21.655000 0.236031 0
21.660000 0.249056 0
21.665000 0.257561 0
21.670000 0.261137 1
21.675000 0.259603 0
21.680000 0.253017 0
21.685000 0.241678 0
21.690000 0.226097 0
21.695000 0.206966 0
21.700000 0.185101 0
21.705000 0.161385 0
21.710000 0.136714 0
21.715000 0.111937 0
21.720000 0.087808 0
21.725000 0.064953 0
21.730000 0.043827 0
21.735000 0.024667 0
21.740000 0.007415 0
21.745000 -0.008426 0
21.750000 -0.023974 0
21.755000 -0.041101 0
21.760000 -0.062293 0
21.765000 -0.089968 0
21.770000 -0.125133 0
21.775000 -0.165696 0
21.780000 -0.205206 0
21.785000 -0.232851 0
21.790000 -0.234927 2
21.795000 -0.197141 0
21.800000 -0.106971 0
21.805000 0.043736 0
21.810000 0.254827 0
21.815000 0.512313 0
21.820000 0.784020 0
21.825000 1.021579 0
21.830000 1.172173 0
21.835000 1.197045 3
21.840000 1.086521 0
21.845000 0.864716 0
21.850000 0.581763 0
21.855000 0.292267 0
21.860000 0.039155 0
21.865000 -0.152625 0
21.870000 -0.274274 0
21.875000 -0.328762 4
21.880000 -0.327429 0
21.885000 -0.287316 0
21.890000 -0.227657 0
21.895000 -0.165510 0
21.900000 -0.112231 0
21.905000 -0.072421 0
21.910000 -0.045371 0
21.915000 -0.027670 0
21.920000 -0.015495 0
21.925000 -0.005845 0
21.930000 0.003185 0
21.935000 0.012631 0
21.940000 0.023002 0
21.945000 0.034541 0
21.950000 0.047368 0
21.955000 0.061545 0
21.960000 0.077101 0
21.965000 0.094036 0
21.970000 0.112320 0
21.975000 0.131889 0
21.980000 0.152644 0
21.985000 0.174446 0
21.990000 0.197122 0
21.995000 0.220456 0
22.000000 0.244200 0
22.005000 0.268070 0
22.010000 0.291754 0
22.015000 0.314917 0
22.020000 0.337210 0
22.025000 0.358274 0
22.030000 0.377754 0
22.035000 0.395307 0
22.040000 0.410609 0
22.045000 0.423368 0
22.050000 0.433332 0
22.055000 0.440297 0
22.060000 0.444112 0
22.065000 0.444687 5
22.070000 0.441992 0
22.075000 0.436063 0
22.080000 0.426997 0
22.085000 0.414952 0
22.090000 0.400140 0
22.095000 0.382820 0
22.100000 0.363296 0
22.105000 0.341898 0
22.110000 0.318981 0
22.115000 0.294912 0
22.120000 0.270060 0
22.125000 0.244785 0
22.130000 0.219433 0
22.135000 0.194328 0
22.140000 0.169762 0
22.145000 0.145993 0
22.150000 0.123243 0
22.155000 0.101693 0
22.160000 0.081484 0
22.165000 0.062718 0
22.170000 0.045459 0
22.175000 0.029738 0
22.180000 0.015552 0
22.185000 0.002872 0
22.190000 -0.008352 0
22.195000 -0.018191 0
22.200000 -0.026729 0
22.205000 -0.034061 0
22.210000 -0.040287 0
22.215000 -0.045510 0
22.220000 -0.049834 0
22.225000 -0.053360 0
22.230000 -0.056185 0
22.235000 -0.058399 0
22.240000 -0.060088 0
22.245000 -0.061326 0
22.250000 -0.062185 0
22.255000 -0.062725 0
22.260000 -0.063000 0
22.265000 -0.063056 0
22.270000 -0.062934 0
22.275000 -0.062668 0
22.280000 -0.062287 0
22.285000 -0.061814 0
22.290000 -0.061269 0
22.295000 -0.060669 0
22.300000 -0.060005 0
22.305000 -0.059221 0
22.310000 -0.058441 0
22.315000 -0.057665 0
22.320000 -0.056893 0
22.325000 -0.056125 0
22.330000 -0.055360 0
22.335000 -0.054600 0
22.340000 -0.053843 0
22.345000 -0.053090 0
22.350000 -0.052340 0
22.355000 -0.051595 0
22.360000 -0.050853 0
22.365000 -0.050115 0
22.370000 -0.049380 0
22.375000 -0.048649 0
22.380000 -0.047922 0
22.385000 -0.047199 0
22.390000 -0.046479 0
22.395000 -0.045762 0
22.400000 -0.045049 0
22.405000 -0.044340 0
22.410000 -0.043634 0
22.415000 -0.042930 0
22.420000 -0.042230 0
22.425000 -0.041531 0
22.430000 -0.040834 0
22.435000 -0.040136 0
22.440000 -0.039434 0
22.445000 -0.038725 0
22.450000 -0.038000 0
22.455000 -0.037251 0
22.460000 -0.036461 0
22.465000 -0.035607 0
22.470000 -0.034659 0
22.475000 -0.033570 0
22.480000 -0.032281 0
22.485000 -0.030711 0
22.490000 -0.028756 0
22.495000 -0.026285 0
22.500000 -0.023139 0
22.505000 -0.019128 0
22.510000 -0.014038 0
22.515000 -0.007634 0
22.520000 0.000328 0
22.525000 0.010086 0
22.530000 0.021851 0
22.535000 0.035784 0
22.540000 0.051965 0
22.545000 0.070371 0
22.550000 0.090849 0
22.555000 0.113097 0
22.560000 0.136657 0
22.565000 0.160916 0
22.570000 0.185126 0
22.575000 0.208434 0
22.580000 0.229931 0
22.585000 0.248707 0
22.590000 0.263914 0
22.595000 0.274829 0
22.600000 0.280909 0
22.605000 0.281838 1
22.610000 0.277550 0
22.615000 0.268237 0
22.620000 0.254334 0
22.625000 0.236486 0
22.630000 0.215494 0
22.635000 0.192258 0
22.640000 0.167715 0
22.645000 0.142771 0
22.650000 0.118252 0
22.655000 0.094855 0
22.660000 0.073110 0
22.665000 0.053332 0
22.670000 0.035548 0
22.675000 0.019358 0
22.680000 0.003747 0
22.685000 -0.013090 0
22.690000 -0.033665 0
22.695000 -0.060575 0
22.700000 -0.095135 0
22.705000 -0.135562 0
22.710000 -0.175520 0
22.715000 -0.203988 0
22.720000 -0.206770 2
22.725000 -0.168962 0
22.730000 -0.077530 0
22.735000 0.075859 0
22.740000 0.290499 0
22.745000 0.550639 0
22.750000 0.821067 0
22.755000 1.050164 0
22.760000 1.183722 3
22.765000 1.183091 0
22.770000 1.042026 0
22.775000 0.796934 0
22.780000 0.506113 0
22.785000 0.226380 0
22.790000 -0.002596 0
22.795000 -0.161564 0
22.800000 -0.247518 0
22.805000 -0.268817 4
22.810000 -0.241769 0
22.815000 -0.186994 0
22.820000 -0.124448 0
22.825000 -0.068622 0
22.830000 -0.026326 0
22.835000 0.002238 0
22.840000 0.020504 0
22.845000 0.032678 0
22.850000 0.042112 0
22.855000 0.050909 0
22.860000 0.060183 0
22.865000 0.070463 0
22.870000 0.081993 0
22.875000 0.094890 0
22.880000 0.109214 0
22.885000 0.124990 0
22.890000 0.142206 0
22.895000 0.160817 0
22.900000 0.180739 0
22.905000 0.201843 0
22.910000 0.223958 0
22.915000 0.246871 0
22.920000 0.270323 0
22.925000 0.294017 0
22.930000 0.317620 0
22.935000 0.340772 0
22.940000 0.363092 0
22.945000 0.384190 0
22.950000 0.403674 0
22.955000 0.421167 0
22.960000 0.436313 0
22.965000 0.448793 0
22.970000 0.458331 0
22.975000 0.464711 0
22.980000 0.467775 5
22.985000 0.467437 0
22.990000 0.463682 0
22.995000 0.456567 0
23.000000 0.446220 0
23.005000 0.432838 0
23.010000 0.416675 0
23.015000 0.398038 0
23.020000 0.377275 0
23.025000 0.354766 0
23.030000 0.330907 0
23.035000 0.306102 0
23.040000 0.280750 0
23.045000 0.255235 0
23.050000 0.229914 0
23.055000 0.205115 0
23.060000 0.181125 0
23.065000 0.158188 0
23.070000 0.136505 0
23.075000 0.116228 0
23.080000 0.097466 0
23.085000 0.080286 0
23.090000 0.064712 0
23.095000 0.050738 0
23.100000 0.038326 0
23.105000 0.027411 0
23.110000 0.017913 0
23.115000 0.009733 0
23.120000 0.002766 0
23.125000 -0.003101 0
23.130000 -0.007981 0
23.135000 -0.011985 0
23.140000 -0.015222 0
23.145000 -0.017792 0
23.150000 -0.019790 0
23.155000 -0.021303 0
23.160000 -0.022405 0
23.165000 -0.023167 0
23.170000 -0.023648 0
23.175000 -0.023898 0
23.180000 -0.023963 0
23.185000 -0.023878 0
23.190000 -0.023675 0
23.195000 -0.023378 0
23.200000 -0.023010 0
23.205000 -0.022586 0
23.210000 -0.022014 0
23.215000 -0.021419 0
23.220000 -0.020828 0
23.225000 -0.020240 0
23.230000 -0.019654 0
23.235000 -0.019072 0
23.240000 -0.018492 0
23.245000 -0.017915 0
23.250000 -0.017341 0
23.255000 -0.016770 0
23.260000 -0.016202 0
23.265000 -0.015637 0
23.270000 -0.015074 0
23.275000 -0.014514 0
23.280000 -0.013957 0
23.285000 -0.013403 0
23.290000 -0.012852 0
23.295000 -0.012303 0
23.300000 -0.011757 0
23.305000 -0.011214 0
23.310000 -0.010673 0
23.315000 -0.010135 0
23.320000 -0.009598 0
23.325000 -0.009064 0
23.330000 -0.008530 0
23.335000 -0.007995 0
23.340000 -0.007457 0
23.345000 -0.006912 0
23.350000 -0.006354 0
23.355000 -0.005773 0
23.360000 -0.005153 0
23.365000 -0.004473 0
23.370000 -0.003700 0
23.375000 -0.002787 0
23.380000 -0.001671 0
23.385000 -0.000265 0
23.390000 0.001545 0
23.395000 0.003901 0
23.400000 0.006980 0
23.405000 0.010994 0
23.410000 0.016180 0
23.415000 0.022800 0
23.420000 0.031122 0
23.425000 0.041399 0
23.430000 0.053847 0
23.435000 0.068613 0
23.440000 0.085739 0
23.445000 0.105136 0
23.450000 0.126553 0
23.455000 0.149562 0
23.460000 0.173556 0
23.465000 0.197763 0
23.470000 0.221277 0
23.475000 0.243114 0
23.480000 0.262271 0
23.485000 0.277806 0
23.490000 0.288908 0
23.495000 0.294972 0
23.500000 0.295645 1
23.505000 0.290864 0
23.510000 0.280862 0
23.515000 0.266146 0
23.520000 0.247453 0
23.525000 0.225690 0
23.530000 0.201860 0
23.535000 0.176982 0
23.540000 0.152025 0
23.545000 0.127838 0
23.550000 0.105109 0
23.555000 0.084307 0
23.560000 0.065617 0
23.565000 0.048812 0
23.570000 0.033046 0
23.575000 0.016623 0
23.580000 -0.003033 0
23.585000 -0.028831 0
23.590000 -0.062571 0
23.595000 -0.102819 0
23.600000 -0.143062 0
23.605000 -0.171406 0
23.610000 -0.172304 2
23.615000 -0.129502 0
23.620000 -0.029131 0
23.625000 0.136747 0
23.630000 0.364565 0
23.635000 0.632052 0
23.640000 0.894627 0
23.645000 1.092775 0
23.650000 1.172188 3
23.655000 1.107434 0
23.660000 0.914143 0
23.665000 0.641319 0
23.670000 0.349355 0
23.675000 0.088688 0
23.680000 -0.110268 0
23.685000 -0.236153 0
23.690000 -0.291532 4
23.695000 -0.288711 0
23.700000 -0.246481 0
23.705000 -0.185855 0
23.710000 -0.124847 0
23.715000 -0.074578 0
23.720000 -0.038600 0
23.725000 -0.015071 0
23.730000 0.000087 0
23.735000 0.010816 0
23.740000 0.019901 0
23.745000 0.028951 0
23.750000 0.038768 0
23.755000 0.049725 0
23.760000 0.061996 0
23.765000 0.075667 0
23.770000 0.090780 0
23.775000 0.107345 0
23.780000 0.125334 0
23.785000 0.144685 0
23.790000 0.165293 0
23.795000 0.187011 0
23.800000 0.209647 0
23.805000 0.232966 0
23.810000 0.256692 0
23.815000 0.280510 0
23.820000 0.304072 0
23.825000 0.327008 0
23.830000 0.348931 0
23.835000 0.369447 0
23.840000 0.388171 0
23.845000 0.404731 0
23.850000 0.418789 0
23.855000 0.430044 0
23.860000 0.438245 0
23.865000 0.443204 0
23.870000 0.444795 5
23.875000 0.442965 0
23.880000 0.437733 0
23.885000 0.429190 0
23.890000 0.417497 0
23.895000 0.402880 0
23.900000 0.385618 0
23.905000 0.366042 0
23.910000 0.344514 0
23.915000 0.321425 0
23.920000 0.297176 0
23.925000 0.272171 0
23.930000 0.246804 0
23.935000 0.221447 0
23.940000 0.196445 0
23.945000 0.172108 0
23.950000 0.148701 0
23.955000 0.126450 0
23.960000 0.105532 0
23.965000 0.086078 0
23.970000 0.068177 0
23.975000 0.051874 0
23.980000 0.037180 0
23.985000 0.024070 0
23.990000 0.012495 0
23.995000 0.002380 0
24.000000 -0.006364 0
24.005000 -0.013840 0
24.010000 -0.020158 0
24.015000 -0.025430 0
24.020000 -0.029770 0
24.025000 -0.033287 0
24.030000 -0.036087 0
24.035000 -0.038269 0
24.040000 -0.039921 0
24.045000 -0.041127 0
24.050000 -0.041958 0
24.055000 -0.042479 0
24.060000 -0.042745 0
24.065000 -0.042804 0
24.070000 -0.042697 0
24.075000 -0.042456 0
24.080000 -0.042111 0
24.085000 -0.041684 0
24.090000 -0.041194 0
24.095000 -0.040634 0
24.100000 -0.039946 0
24.105000 -0.039263 0
24.110000 -0.038582 0
24.115000 -0.037905 0
24.120000 -0.037232 0
24.125000 -0.036561 0
24.130000 -0.035895 0
24.135000 -0.035231 0
24.140000 -0.034571 0
24.145000 -0.033914 0
24.150000 -0.033260 0
24.155000 -0.032610 0
24.160000 -0.031962 0
24.165000 -0.031318 0
24.170000 -0.030678 0
24.175000 -0.030040 0
24.180000 -0.029406 0
24.185000 -0.028775 0
24.190000 -0.028146 0
24.195000 -0.027521 0
24.200000 -0.026899 0
24.205000 -0.026279 0
24.210000 -0.025662 0
24.215000 -0.025046 0
24.220000 -0.024431 0
24.225000 -0.023815 0
24.230000 -0.023193 0
24.235000 -0.022563 0
24.240000 -0.021915 0
24.245000 -0.021237 0
24.250000 -0.020511 0
24.255000 -0.019709 0
24.260000 -0.018792 0
24.265000 -0.017706 0
24.270000 -0.016374 0
24.275000 -0.014697 0
24.280000 -0.012546 0
24.285000 -0.009761 0
24.290000 -0.006146 0
24.295000 -0.001475 0
24.300000 0.004503 0
24.305000 0.012057 0
24.310000 0.021449 0
24.315000 0.032918 0
24.320000 0.046647 0
24.325000 0.062732 0
24.330000 0.081150 0
24.335000 0.101728 0
24.340000 0.124124 0
24.345000 0.147813 0
24.350000 0.172097 0
24.355000 0.196127 0
24.360000 0.218946 0
24.365000 0.239552 0
24.370000 0.256961 0
24.375000 0.270293 0
24.380000 0.278836 0
24.385000 0.282114 1
24.390000 0.279927 0
24.395000 0.272372 0
24.400000 0.259831 0
24.405000 0.242944 0
24.410000 0.222548 0
24.415000 0.199612 0
24.420000 0.175160 0
24.425000 0.150192 0
24.430000 0.125620 0
24.435000 0.102215 0
24.440000 0.080552 0
24.445000 0.060959 0
24.450000 0.043419 0
24.455000 0.027397 0
24.460000 0.011608 0
24.465000 -0.006149 0
24.470000 -0.028756 0
24.475000 -0.058758 0
24.480000 -0.096463 0
24.485000 -0.137814 0
24.490000 -0.173246 0
24.495000 -0.188523 2
24.500000 -0.167300 0
24.505000 -0.094234 0
24.510000 0.041834 0
24.515000 0.243368 0
24.520000 0.497319 0
24.525000 0.768959 0
24.530000 1.003582 0
24.535000 1.141428 0
24.540000 1.141611 3
24.545000 1.001848 0
24.550000 0.758778 0
24.555000 0.468781 0
24.560000 0.187433 0
24.565000 -0.045698 0
24.570000 -0.210670 0
24.575000 -0.303450 0
24.580000 -0.331217 4
24.585000 -0.309062 0
24.590000 -0.256702 0
24.595000 -0.193924 0
24.600000 -0.135883 0
24.605000 -0.090507 0
24.610000 -0.059018 0
24.615000 -0.038550 0
24.620000 -0.025001 0
24.625000 -0.014846 0
24.630000 -0.005750 0
24.635000 0.003585 0
24.640000 0.013796 0
24.645000 0.025180 0
24.650000 0.037880 0
24.655000 0.051967 0
24.660000 0.067476 0
24.665000 0.084410 0
24.670000 0.102736 0
24.675000 0.122388 0
24.680000 0.143259 0
24.685000 0.165201 0
24.690000 0.188025 0
24.695000 0.211499 0
24.700000 0.235352 0
24.705000 0.259277 0
24.710000 0.282939 0
24.715000 0.305977 0
24.720000 0.328015 0
24.725000 0.348674 0
24.730000 0.367579 0
24.735000 0.384371 0
24.740000 0.398718 0
24.745000 0.410328 0
24.750000 0.418954 0
24.755000 0.424405 0
24.760000 0.426554 5
24.765000 0.425338 0
24.770000 0.420766 0
24.775000 0.412915 0
24.780000 0.401930 0
24.785000 0.388015 0
24.790000 0.371433 0
24.795000 0.352491 0
24.800000 0.331536 0
24.805000 0.308940 0
24.810000 0.285089 0
24.815000 0.260376 0
24.820000 0.235185 0
24.825000 0.209885 0
24.830000 0.184820 0
24.835000 0.160303 0
24.840000 0.136608 0
24.845000 0.113969 0
24.850000 0.092575 0
24.855000 0.072574 0
24.860000 0.054067 0
24.865000 0.037118 0
24.870000 0.021753 0
24.875000 0.007963 0
24.880000 -0.004289 0
24.885000 -0.015062 0
24.890000 -0.024436 0
24.895000 -0.032505 0
24.900000 -0.039370 0
24.905000 -0.045141 0
24.910000 -0.049927 0
24.915000 -0.053837 0
24.920000 -0.056976 0
24.925000 -0.059444 0
24.930000 -0.061334 0
24.935000 -0.062729 0
24.940000 -0.063708 0
24.945000 -0.064337 0
24.950000 -0.064677 0
24.955000 -0.064778 0
24.960000 -0.064687 0
24.965000 -0.064439 0
24.970000 -0.064068 0
24.975000 -0.063598 0
24.980000 -0.063052 0
24.985000 -0.062448 0
24.990000 -0.061777 0
24.995000 -0.060984 0
25.000000 -0.060195 0
25.005000 -0.059411 0
25.010000 -0.058630 0
25.015000 -0.057853 0
25.020000 -0.057080 0
25.025000 -0.056310 0
25.030000 -0.055545 0
25.035000 -0.054783 0
25.040000 -0.054026 0
25.045000 -0.053272 0
25.050000 -0.052521 0
25.055000 -0.051775 0
25.060000 -0.051032 0
25.065000 -0.050293 0
25.070000 -0.049558 0
25.075000 -0.048826 0
25.080000 -0.048098 0
25.085000 -0.047373 0
25.090000 -0.046652 0
25.095000 -0.045935 0
25.100000 -0.045220 0
25.105000 -0.044509 0
25.110000 -0.043799 0
25.115000 -0.043092 0
25.120000 -0.042383 0
25.125000 -0.041672 0
25.130000 -0.040954 0
25.135000 -0.040223 0
25.140000 -0.039467 0
25.145000 -0.038671 0
25.150000 -0.037813 0
25.155000 -0.036859 0
25.160000 -0.035762 0
25.165000 -0.034459 0
25.170000 -0.032862 0
25.175000 -0.030862 0
25.180000 -0.028315 0
25.185000 -0.025050 0
25.190000 -0.020862 0
25.195000 -0.015518 0
25.200000 -0.008766 0
25.205000 -0.000347 0
25.210000 0.009988 0
25.215000 0.022449 0
25.220000 0.037184 0
25.225000 0.054242 0
25.230000 0.073550 0
25.235000 0.094882 0
25.240000 0.117846 0
25.245000 0.141875 0
25.250000 0.166245 0
25.255000 0.190096 0
25.260000 0.212483 0
25.265000 0.232432 0
25.270000 0.249010 0
25.275000 0.261396 0
25.280000 0.268947 0
25.285000 0.271255 1
25.290000 0.268180 0
25.295000 0.259864 0
25.300000 0.246721 0
25.305000 0.229401 0
25.310000 0.208735 0
25.315000 0.185673 0
25.320000 0.161204 0
25.325000 0.136296 0
25.330000 0.111825 0
25.335000 0.088528 0
25.340000 0.066958 0
25.345000 0.047427 0
25.350000 0.029921 0
25.355000 0.013936 0
25.360000 -0.001746 0
25.365000 -0.019211 0
25.370000 -0.041232 0
25.375000 -0.070363 0
25.380000 -0.107222 0
25.385000 -0.148454 0
25.390000 -0.185486 0
25.395000 -0.205058 2
25.400000 -0.191460 0
25.405000 -0.129436 0
25.410000 -0.007109 0
25.415000 0.180177 0
25.420000 0.423837 0
25.425000 0.695591 0
25.430000 0.946557 0
25.435000 1.117991 0
25.440000 1.162518 3
25.445000 1.065127 0
25.450000 0.850065 0
25.455000 0.568887 0
25.460000 0.279280 0
25.465000 0.026783 0
25.470000 -0.162447 0
25.475000 -0.279625 0
25.480000 -0.328503 4
25.485000 -0.321684 0
25.490000 -0.277600 0
25.495000 -0.216462 0
25.500000 -0.155409 0
25.505000 -0.104993 0
25.510000 -0.068609 0
25.515000 -0.044542 0
25.520000 -0.028887 0
25.525000 -0.017800 0
25.530000 -0.008507 0
25.535000 0.000630 0
25.540000 0.010451 0
25.545000 0.021352 0
25.550000 0.033520 0
25.555000 0.047047 0
25.560000 0.061983 0
25.565000 0.078340 0
25.570000 0.096102 0
25.575000 0.115217 0
25.580000 0.135595 0
25.585000 0.157107 0
25.590000 0.179581 0
25.595000 0.202804 0
25.600000 0.226525 0
25.605000 0.250452 0
25.610000 0.274263 0
25.615000 0.297611 0
25.620000 0.320126 0
25.625000 0.341434 0
25.630000 0.361158 0
25.635000 0.378933 0
25.640000 0.394416 0
25.645000 0.407299 0
25.650000 0.417313 0
25.655000 0.424243 0
25.660000 0.427932 0
25.665000 0.428288 5
25.670000 0.425288 0
25.675000 0.418974 0
25.680000 0.409459 0
25.685000 0.396919 0
25.690000 0.381589 0
25.695000 0.363752 0
25.700000 0.343735 0
25.705000 0.321897 0
25.710000 0.298617 0
25.715000 0.274281 0
25.720000 0.249278 0
25.725000 0.223982 0
25.730000 0.198750 0
25.735000 0.173909 0
25.740000 0.149750 0
25.745000 0.126528 0
25.750000 0.104454 0
25.755000 0.083696 0
25.760000 0.064379 0
25.765000 0.046587 0
25.770000 0.030364 0
25.775000 0.015720 0
25.780000 0.002632 0
25.785000 -0.008946 0
25.790000 -0.019085 0
25.795000 -0.027869 0
25.800000 -0.035395 0
25.805000 -0.041770 0
25.810000 -0.047101 0
25.815000 -0.051498 0
25.820000 -0.055067 0
25.825000 -0.057911 0
25.830000 -0.060125 0
25.835000 -0.061800 0
25.840000 -0.063015 0
25.845000 -0.063843 0
25.850000 -0.064348 0
25.855000 -0.064587 0
25.860000 -0.064607 0
25.865000 -0.064450 0
25.870000 -0.064151 0
25.875000 -0.063739 0
25.880000 -0.063239 0
25.885000 -0.062669 0
25.890000 -0.062046 0
25.895000 -0.061277 0
25.900000 -0.060487 0
25.905000 -0.059701 0
25.910000 -0.058919 0
25.915000 -0.058140 0
25.920000 -0.057366 0
25.925000 -0.056595 0
25.930000 -0.055828 0
25.935000 -0.055065 0
25.940000 -0.054306 0
25.945000 -0.053551 0
25.950000 -0.052799 0
25.955000 -0.052051 0
25.960000 -0.051307 0
25.965000 -0.050567 0
25.970000 -0.049830 0
25.975000 -0.049097 0
25.980000 -0.048367 0
25.985000 -0.047641 0
25.990000 -0.046919 0
25.995000 -0.046200 0
26.000000 -0.045485 0
26.005000 -0.044772 0
26.010000 -0.044063 0
26.015000 -0.043355 0
26.020000 -0.042649 0
26.025000 -0.041941 0
26.030000 -0.041230 0
26.035000 -0.040510 0
26.040000 -0.039774 0
26.045000 -0.039010 0
26.050000 -0.038201 0
26.055000 -0.037322 0
26.060000 -0.036336 0
26.065000 -0.035194 0
26.070000 -0.033824 0
26.075000 -0.032137 0
26.080000 -0.030014 0
26.085000 -0.027306 0
26.090000 -0.023835 0
26.095000 -0.019389 0
26.100000 -0.013732 0
26.105000 -0.006610 0
26.110000 0.002234 0
26.115000 0.013040 0
26.120000 0.026005 0
26.125000 0.041257 0
26.130000 0.058819 0
26.135000 0.078589 0
26.140000 0.100305 0
26.145000 0.123542 0
26.150000 0.147703 0
26.155000 0.172036 0
26.160000 0.195667 0
26.165000 0.217646 0
26.170000 0.237008 0
26.175000 0.252841 0
26.180000 0.264360 0
26.185000 0.270965 0
26.190000 0.272299 1
26.195000 0.268272 0
26.200000 0.259075 0
26.205000 0.245163 0
26.210000 0.227217 0
26.215000 0.206087 0
26.220000 0.182728 0
26.225000 0.158124 0
26.230000 0.133225 0
26.235000 0.108884 0
26.240000 0.085808 0
26.245000 0.064515 0
26.250000 0.045276 0
26.255000 0.028020 0
26.260000 0.012162 0
26.265000 -0.003615 0
26.270000 -0.021497 0
26.275000 -0.044278 0
26.280000 -0.074366 0
26.285000 -0.112005 0
26.290000 -0.153292 0
26.295000 -0.189120 0
26.300000 -0.205916 2
26.305000 -0.187981 0
26.310000 -0.120369 0
26.315000 0.008203 0
26.320000 0.201387 0
26.325000 0.449072 0
26.330000 0.721215 0
26.335000 0.967791 0
26.340000 1.130477 0
26.345000 1.164105 3
26.350000 1.057485 0
26.355000 0.837920 0
26.360000 0.555727 0
26.365000 0.266196 0
26.370000 0.012931 0
26.375000 -0.178724 0
26.380000 -0.299859 0
26.385000 -0.353525 4
26.390000 -0.351267 0
26.395000 -0.310385 0
26.400000 -0.250326 0
26.405000 -0.188214 0
26.410000 -0.135303 0
26.415000 -0.095994 0
26.420000 -0.069389 0
26.425000 -0.051973 0
26.430000 -0.039906 0
26.435000 -0.030221 0
26.440000 -0.021062 0
26.445000 -0.011431 0
26.450000 -0.000843 0
26.455000 0.010934 0
26.460000 0.024013 0
26.465000 0.038454 0
26.470000 0.054283 0
26.475000 0.071497 0
26.480000 0.090062 0
26.485000 0.109909 0
26.490000 0.130932 0
26.495000 0.152988 0
26.500000 0.175894 0
26.505000 0.199428 0
26.510000 0.223334 0
26.515000 0.247318 0
26.520000 0.271063 0
26.525000 0.294225 0
26.530000 0.316450 0
26.535000 0.337375 0
26.540000 0.356641 0
26.545000 0.373905 0
26.550000 0.388844 0
26.555000 0.401172 0
26.560000 0.410641 0
26.565000 0.417056 0
26.570000 0.420278 5
26.575000 0.420228 0
26.580000 0.416892 0
26.585000 0.410320 0
26.590000 0.400626 0
26.595000 0.387982 0
26.600000 0.372617 0
26.605000 0.354804 0
26.610000 0.334859 0
26.615000 0.313123 0
26.620000 0.289959 0
26.625000 0.265741 0
26.630000 0.240839 0
26.635000 0.215615 0
26.640000 0.190412 0
26.645000 0.165550 0
26.650000 0.141312 0
26.655000 0.117950 0
26.660000 0.095675 0
26.665000 0.074656 0
26.670000 0.055023 0
26.675000 0.036867 0
26.680000 0.020239 0
26.685000 0.005160 0
26.690000 -0.008384 0
26.695000 -0.020430 0
26.700000 -0.031037 0
26.705000 -0.040282 0
26.710000 -0.048255 0
26.715000 -0.055053 0
26.720000 -0.060780 0
26.725000 -0.065541 0
26.730000 -0.069439 0
26.735000 -0.072576 0
26.740000 -0.075046 0
26.745000 -0.076940 0
26.750000 -0.078338 0
26.755000 -0.079316 0
26.760000 -0.079940 0
26.765000 -0.080269 0
26.770000 -0.080353 0
26.775000 -0.080237 0
26.780000 -0.079959 0
26.785000 -0.079550 0
26.790000 -0.079038 0
26.795000 -0.078444 0
26.800000 -0.077786 0
26.805000 -0.077080 0
26.810000 -0.076234 0
26.815000 -0.075370 0
26.820000 -0.074509 0
26.825000 -0.073653 0
26.830000 -0.072801 0
26.835000 -0.071954 0
26.840000 -0.071110 0
26.845000 -0.070271 0
26.850000 -0.069436 0
26.855000 -0.068605 0
26.860000 -0.067778 0
26.865000 -0.066956 0
26.870000 -0.066137 0
26.875000 -0.065323 0
26.880000 -0.064513 0
26.885000 -0.063706 0
26.890000 -0.062904 0
26.895000 -0.062106 0
26.900000 -0.061311 0
26.905000 -0.060521 0
26.910000 -0.059734 0
26.915000 -0.058951 0
26.920000 -0.058172 0
26.925000 -0.057396 0
26.930000 -0.056622 0
26.935000 -0.055851 0
26.940000 -0.055079 0
26.945000 -0.054306 0
26.950000 -0.053527 0
26.955000 -0.052736 0
26.960000 -0.051924 0
26.965000 -0.051077 0
26.970000 -0.050175 0
26.975000 -0.049190 0
26.980000 -0.048079 0
26.985000 -0.046788 0
26.990000 -0.045242 0
26.995000 -0.043342 0
27.000000 -0.040964 0
27.005000 -0.037956 0
27.010000 -0.034134 0
27.015000 -0.029289 0
27.020000 -0.023187 0
27.025000 -0.015582 0
27.030000 -0.006230 0
27.035000 0.005091 0
27.040000 0.018558 0
27.045000 0.034275 0
27.050000 0.052247 0
27.055000 0.072349 0
27.060000 0.094314 0
27.065000 0.117710 0
27.070000 0.141951 0
27.075000 0.166306 0
27.080000 0.189931 0
27.085000 0.211914 0
27.090000 0.231328 0
27.095000 0.247301 0
27.100000 0.259073 0
27.105000 0.266061 0
27.110000 0.267903 1
27.115000 0.264492 0
27.120000 0.255981 0
27.125000 0.242775 0
27.130000 0.225497 0
27.135000 0.204940 0
27.140000 0.182006 0
27.145000 0.157638 0
27.150000 0.132761 0
27.155000 0.108223 0
27.160000 0.084743 0
27.165000 0.062879 0
27.170000 0.042973 0
27.175000 0.025083 0
27.180000 0.008850 0
27.185000 -0.006695 0
27.190000 -0.023314 0
27.195000 -0.043510 0
27.200000 -0.069935 0
27.205000 -0.104043 0
27.210000 -0.144240 0
27.215000 -0.184351 0
27.220000 -0.213409 0
27.225000 -0.217130 2
27.230000 -0.180429 0
27.235000 -0.090047 0
27.240000 0.062564 0
27.245000 0.276840 0
27.250000 0.536976 0
27.255000 0.807398 0
27.260000 1.035868 0
27.265000 1.167663 3
27.270000 1.166327 0
27.275000 1.030111 0
27.280000 0.792115 0
27.285000 0.504067 0
27.290000 0.218485 0
27.295000 -0.025403 0
27.300000 -0.206030 0
27.305000 -0.316901 0
27.310000 -0.362374 4
27.315000 -0.354570 0
27.320000 -0.310769 0
27.325000 -0.249858 0
27.330000 -0.188095 0
27.335000 -0.135922 0
27.340000 -0.097235 0
27.345000 -0.070977 0
27.350000 -0.053682 0
27.355000 -0.041622 0
27.360000 -0.031917 0
27.365000 -0.022754 0
27.370000 -0.013148 0
27.375000 -0.002612 0
27.380000 0.009085 0
27.385000 0.022059 0
27.390000 0.036371 0
27.395000 0.052049 0
27.400000 0.069093 0
27.405000 0.087474 0
27.410000 0.107129 0
27.415000 0.127962 0
27.420000 0.149839 0
27.425000 0.172589 0
27.430000 0.196005 0
27.435000 0.219843 0
27.440000 0.243826 0
27.445000 0.267650 0
27.450000 0.290988 0
27.455000 0.313497 0
27.460000 0.334825 0
27.465000 0.354623 0
27.470000 0.372550 0
27.475000 0.388287 0
27.480000 0.401541 0
27.485000 0.412058 0
27.490000 0.419630 0
27.495000 0.424099 0
27.500000 0.425366 5
27.505000 0.423392 0
27.510000 0.418199 0
27.515000 0.409872 0
27.520000 0.398553 0
27.525000 0.384439 0
27.530000 0.367777 0
27.535000 0.348854 0
27.540000 0.327991 0
27.545000 0.305531 0
27.550000 0.281833 0
27.555000 0.257259 0
27.560000 0.232168 0
27.565000 0.206905 0
27.570000 0.181793 0
27.575000 0.157131 0
27.580000 0.133183 0
27.585000 0.110179 0
27.590000 0.088309 0
27.595000 0.067727 0
27.600000 0.048545 0
27.605000 0.030838 0
27.610000 0.014649 0
27.615000 -0.000014 0
27.620000 -0.013169 0
27.625000 -0.024858 0
27.630000 -0.035145 0
27.635000 -0.044107 0
27.640000 -0.051832 0
27.645000 -0.058418 0
27.650000 -0.063966 0
27.655000 -0.068577 0
27.660000 -0.072352 0
27.665000 -0.075389 0
27.670000 -0.077779 0
27.675000 -0.079610 0
27.680000 -0.080959 0
27.685000 -0.081899 0
27.690000 -0.082493 0
27.695000 -0.082799 0
27.700000 -0.082865 0
27.705000 -0.082735 0
27.710000 -0.082445 0
27.715000 -0.082026 0
27.720000 -0.081504 0
27.725000 -0.080901 0
27.730000 -0.080235 0
27.735000 -0.079520 0
27.740000 -0.078663 0
27.745000 -0.077786 0
27.750000 -0.076914 0
27.755000 -0.076045 0
27.760000 -0.075182 0
27.765000 -0.074322 0
27.770000 -0.073467 0
27.775000 -0.072616 0
27.780000 -0.071769 0
27.785000 -0.070927 0
27.790000 -0.070088 0
27.795000 -0.069254 0
27.800000 -0.068424 0
27.805000 -0.067598 0
27.810000 -0.066777 0
27.815000 -0.065959 0
27.820000 -0.065146 0
27.825000 -0.064336 0
27.830000 -0.063531 0
27.835000 -0.062729 0
27.840000 -0.061932 0
27.845000 -0.061138 0
27.850000 -0.060348 0
27.855000 -0.059561 0
27.860000 -0.058777 0
27.865000 -0.057996 0
27.870000 -0.057216 0
27.875000 -0.056435 0
27.880000 -0.055651 0
27.885000 -0.054858 0
27.890000 -0.054049 0
27.895000 -0.053215 0
27.900000 -0.052338 0
27.905000 -0.051395 0
27.910000 -0.050354 0
27.915000 -0.049168 0
27.920000 -0.047777 0
27.925000 -0.046100 0
27.930000 -0.044031 0
27.935000 -0.041440 0
27.940000 -0.038169 0
27.945000 -0.034029 0
27.950000 -0.028808 0
27.955000 -0.022275 0
27.960000 -0.014190 0
27.965000 -0.004319 0
27.970000 0.007544 0
27.975000 0.021555 0
27.980000 0.037795 0
27.985000 0.056241 0
27.990000 0.076744 0
27.995000 0.099011 0
28.000000 0.122596 0
28.005000 0.146903 0
28.010000 0.171201 0
28.015000 0.194657 0
28.020000 0.216380 0
28.025000 0.235473 0
28.030000 0.251095 0
28.035000 0.262522 0
28.040000 0.269201 0
28.045000 0.270795 1
28.050000 0.267210 0
28.055000 0.258604 0
28.060000 0.245375 0
28.065000 0.228130 0
28.070000 0.207636 0
28.075000 0.184770 0
28.080000 0.160447 0
28.085000 0.135571 0
28.090000 0.110970 0
28.095000 0.087358 0
28.100000 0.065291 0
28.105000 0.045130 0
28.110000 0.026971 0
28.115000 0.010533 0
28.120000 -0.005021 0
28.125000 -0.021266 0
28.130000 -0.040529 0
28.135000 -0.065442 0
28.140000 -0.097812 0
28.145000 -0.136919 0
28.150000 -0.177909 0
28.155000 -0.211225 0
28.160000 -0.223627 2
28.165000 -0.200402 0
28.170000 -0.127870 0
28.175000 0.004066 0
28.180000 0.198346 0
28.185000 0.445323 0
28.190000 0.717369 0
28.195000 0.968592 0
28.200000 1.144435 0
28.205000 1.200000 3
28.210000 1.117134 0
28.215000 0.913039 0
28.220000 0.636511 0
28.225000 0.344891 0
28.230000 0.085288 0
28.235000 -0.113905 0
28.240000 -0.241898 0
28.245000 -0.300841 0
28.250000 -0.302004 4
28.255000 -0.262882 0
28.260000 -0.203460 0
28.265000 -0.141502 0
28.270000 -0.088735 0
28.275000 -0.049745 0
28.280000 -0.023595 0
28.285000 -0.006649 0
28.290000 0.005022 0
28.295000 0.014410 0
28.300000 0.023361 0
28.305000 0.032848 0
28.310000 0.043339 0
28.315000 0.055055 0
28.320000 0.068104 0
28.325000 0.082541 0
28.330000 0.098391 0
28.335000 0.115643 0
28.340000 0.134258 0
28.345000 0.154156 0
28.350000 0.175223 0
28.355000 0.197301 0
28.360000 0.220192 0
28.365000 0.243660 0
28.370000 0.267430 0
28.375000 0.291194 0
28.380000 0.314614 0
28.385000 0.337335 0
