0.000000 1.138319 3
0.005000 1.055340 0
0.010000 0.843203 0
0.015000 0.554548 0
0.020000 0.251289 0
0.025000 -0.016243 0
0.030000 -0.218390 0
0.035000 -0.344596 0
0.040000 -0.398165 4
0.045000 -0.392133 0
0.050000 -0.345981 0
0.055000 -0.281270 0
0.060000 -0.216354 0
0.065000 -0.162517 0
0.070000 -0.123331 0
0.075000 -0.096897 0
0.080000 -0.079021 0
0.085000 -0.065636 0
0.090000 -0.053854 0
0.095000 -0.041998 0
0.100000 -0.029234 0
0.105000 -0.015188 0
0.110000 0.000293 0
0.115000 0.017263 0
0.120000 0.035721 0
0.125000 0.055623 0
0.130000 0.076884 0
0.135000 0.099374 0
0.140000 0.122922 0
0.145000 0.147309 0
0.150000 0.172273 0
0.155000 0.197512 0
0.160000 0.222687 0
0.165000 0.247429 0
0.170000 0.271349 0
0.175000 0.294047 0
0.180000 0.315119 0
0.185000 0.334175 0
0.190000 0.350845 0
0.195000 0.364795 0
0.200000 0.375737 0
0.205000 0.383434 0
0.210000 0.387717 0
0.215000 0.388484 5
0.220000 0.385705 0
0.225000 0.379425 0
0.230000 0.369764 0
0.235000 0.356909 0
0.240000 0.341109 0
0.245000 0.322670 0
0.250000 0.301942 0
0.255000 0.279307 0
0.260000 0.255170 0
0.265000 0.229947 0
0.270000 0.204049 0
0.275000 0.177876 0
0.280000 0.151804 0
0.285000 0.126180 0
0.290000 0.101310 0
0.295000 0.077459 0
0.300000 0.054848 0
0.305000 0.033647 0
0.310000 0.013983 0
0.315000 -0.004062 0
0.320000 -0.020448 0
0.325000 -0.035172 0
0.330000 -0.048264 0
0.335000 -0.059778 0
0.340000 -0.069795 0
0.345000 -0.078408 0
0.350000 -0.085723 0
0.355000 -0.091855 0
0.360000 -0.096920 0
0.365000 -0.101033 0
0.370000 -0.104307 0
0.375000 -0.106850 0
0.380000 -0.108761 0
0.385000 -0.110133 0
0.390000 -0.111049 0
0.395000 -0.111583 0
0.400000 -0.111801 0
0.405000 -0.111758 0
0.410000 -0.111504 0
0.415000 -0.111079 0
0.420000 -0.110519 0
0.425000 -0.109853 0
0.430000 -0.109103 0
0.435000 -0.108118 0
0.440000 -0.107098 0
0.445000 -0.106082 0
0.450000 -0.105072 0
0.455000 -0.104067 0
0.460000 -0.103066 0
0.465000 -0.102071 0
0.470000 -0.101080 0
0.475000 -0.100095 0
0.480000 -0.099114 0
0.485000 -0.098139 0
0.490000 -0.097168 0
0.495000 -0.096202 0
0.500000 -0.095241 0
0.505000 -0.094285 0
0.510000 -0.093333 0
0.515000 -0.092386 0
0.520000 -0.091444 0
0.525000 -0.090506 0
0.530000 -0.089572 0
0.535000 -0.088642 0
0.540000 -0.087715 0
0.545000 -0.086791 0
0.550000 -0.085866 0
0.555000 -0.084937 0
0.560000 -0.084001 0
0.565000 -0.083047 0
0.570000 -0.082065 0
0.575000 -0.081034 0
0.580000 -0.079927 0
0.585000 -0.078704 0
0.590000 -0.077309 0
0.595000 -0.075667 0
0.600000 -0.073675 0
0.605000 -0.071204 0
0.610000 -0.068091 0
0.615000 -0.064138 0
0.620000 -0.059117 0
0.625000 -0.052769 0
0.630000 -0.044823 0
0.635000 -0.035005 0
0.640000 -0.023067 0
0.645000 -0.008812 0
0.650000 0.007874 0
0.655000 0.026986 0
0.660000 0.048372 0
0.665000 0.071710 0
0.670000 0.096491 0
0.675000 0.122030 0
0.680000 0.147482 0
0.685000 0.171880 0
0.690000 0.194199 0
0.695000 0.213419 0
0.700000 0.228606 0
0.705000 0.238984 0
0.710000 0.244002 1
0.715000 0.243385 0
0.720000 0.237153 0
0.725000 0.225626 0
0.730000 0.209394 0
0.735000 0.189269 0
0.740000 0.166216 0
0.745000 0.141276 0
0.750000 0.115492 0
0.755000 0.089834 0
0.760000 0.065138 0
0.765000 0.042047 0
0.770000 0.020937 0
0.775000 0.001797 0
0.780000 -0.015966 0
0.785000 -0.033775 0
0.790000 -0.054001 0
0.795000 -0.079617 0
0.800000 -0.112999 0
0.805000 -0.153903 0
0.810000 -0.197371 0
0.815000 -0.232825 0
0.820000 -0.245201 2
0.825000 -0.217689 0
0.830000 -0.134866 0
0.835000 0.014031 0
0.840000 0.230310 0
0.845000 0.498775 0
0.850000 0.781855 0
0.855000 1.022276 0
0.860000 1.159101 3
0.865000 1.152127 0
0.870000 0.996910 0
0.875000 0.734089 0
0.880000 0.429503 0
0.885000 0.144638 0
0.890000 -0.080093 0
0.895000 -0.227271 0
0.900000 -0.296901 0
0.905000 -0.301019 4
0.910000 -0.259755 0
0.915000 -0.196492 0
0.920000 -0.131699 0
0.925000 -0.078111 0
0.930000 -0.039746 0
0.935000 -0.014459 0
0.940000 0.002334 0
0.945000 0.014927 0
0.950000 0.026239 0
0.955000 0.037877 0
0.960000 0.050599 0
0.965000 0.064726 0
0.970000 0.080382 0
0.975000 0.097600 0
0.980000 0.116360 0
0.985000 0.136594 0
0.990000 0.158187 0
0.995000 0.180974 0
1.000000 0.204737 0
1.005000 0.229211 0
1.010000 0.254082 0
1.015000 0.278991 0
1.020000 0.303546 0
1.025000 0.327328 0
1.030000 0.349903 0
1.035000 0.370831 0
1.040000 0.389687 0
1.045000 0.406068 0
1.050000 0.419610 0
1.055000 0.430002 0
1.060000 0.436992 0
1.065000 0.440406 5
1.070000 0.440143 0
1.075000 0.436191 0
1.080000 0.428617 0
1.085000 0.417574 0
1.090000 0.403288 0
1.095000 0.386054 0
1.100000 0.366226 0
1.105000 0.344201 0
1.110000 0.320409 0
1.115000 0.295298 0
1.120000 0.269316 0
1.125000 0.242905 0
1.130000 0.216483 0
1.135000 0.190435 0
1.140000 0.165105 0
1.145000 0.140790 0
1.150000 0.117737 0
1.155000 0.096138 0
1.160000 0.076133 0
1.165000 0.057813 0
1.170000 0.041221 0
1.175000 0.026358 0
1.180000 0.013190 0
1.185000 0.001652 0
1.190000 -0.008346 0
1.195000 -0.016907 0
1.200000 -0.024152 0
1.205000 -0.030203 0
1.210000 -0.035188 0
1.215000 -0.039230 0
1.220000 -0.042451 0
1.225000 -0.044962 0
1.230000 -0.046868 0
1.235000 -0.048263 0
1.240000 -0.049232 0
1.245000 -0.049848 0
1.250000 -0.050176 0
1.255000 -0.050270 0
1.260000 -0.050178 0
1.265000 -0.049939 0
1.270000 -0.049583 0
1.275000 -0.049137 0
1.280000 -0.048452 0
1.285000 -0.047729 0
1.290000 -0.047009 0
1.295000 -0.046293 0
1.300000 -0.045581 0
1.305000 -0.044873 0
1.310000 -0.044168 0
1.315000 -0.043466 0
1.320000 -0.042768 0
1.325000 -0.042073 0
1.330000 -0.041382 0
1.335000 -0.040694 0
1.340000 -0.040010 0
1.345000 -0.039329 0
1.350000 -0.038652 0
1.355000 -0.037977 0
1.360000 -0.037307 0
1.365000 -0.036639 0
1.370000 -0.035974 0
1.375000 -0.035311 0
1.380000 -0.034651 0
1.385000 -0.033991 0
1.390000 -0.033330 0
1.395000 -0.032664 0
1.400000 -0.031988 0
1.405000 -0.031292 0
1.410000 -0.030563 0
1.415000 -0.029779 0
1.420000 -0.028909 0
1.425000 -0.027905 0
1.430000 -0.026703 0
1.435000 -0.025213 0
1.440000 -0.023315 0
1.445000 -0.020856 0
1.450000 -0.017643 0
1.455000 -0.013447 0
1.460000 -0.008001 0
1.465000 -0.001017 0
1.470000 0.007806 0
1.475000 0.018751 0
1.480000 0.032055 0
1.485000 0.047874 0
1.490000 0.066240 0
1.495000 0.087026 0
1.500000 0.109915 0
1.505000 0.134385 0
1.510000 0.159707 0
1.515000 0.184970 0
1.520000 0.209128 0
1.525000 0.231064 0
1.530000 0.249675 0
1.535000 0.263962 0
1.540000 0.273117 0
1.545000 0.276599 1
1.550000 0.274184 0
1.555000 0.265989 0
1.560000 0.252462 0
1.565000 0.234340 0
1.570000 0.212581 0
1.575000 0.188282 0
1.580000 0.162584 0
1.585000 0.136585 0
1.590000 0.111262 0
1.595000 0.087397 0
1.600000 0.065506 0
1.605000 0.045714 0
1.610000 0.027552 0
1.615000 0.009674 0
1.620000 -0.010336 0
1.625000 -0.035667 0
1.630000 -0.068995 0
1.635000 -0.110162 0
1.640000 -0.153710 0
1.645000 -0.187854 0
1.650000 -0.195933 2
1.655000 -0.159716 0
1.660000 -0.063098 0
1.665000 0.103831 0
1.670000 0.338480 0
1.675000 0.617251 0
1.680000 0.890882 0
1.685000 1.092984 0
1.690000 1.164105 3
1.695000 1.081357 0
1.700000 0.869014 0
1.705000 0.580055 0
1.710000 0.276776 0
1.715000 0.009698 0
1.720000 -0.191553 0
1.725000 -0.316576 0
1.730000 -0.368896 4
1.735000 -0.361800 0
1.740000 -0.315007 0
1.745000 -0.250195 0
1.750000 -0.185664 0
1.755000 -0.132497 0
1.760000 -0.094035 0
1.765000 -0.068210 0
1.770000 -0.050769 0
1.775000 -0.037661 0
1.780000 -0.026043 0
1.785000 -0.014287 0
1.790000 -0.001587 0
1.795000 0.012414 0
1.800000 0.027862 0
1.805000 0.044806 0
1.810000 0.063242 0
1.815000 0.083123 0
1.820000 0.104359 0
1.825000 0.126818 0
1.830000 0.150322 0
1.835000 0.174647 0
1.840000 0.199525 0
1.845000 0.224650 0
1.850000 0.249675 0
1.855000 0.274229 0
1.860000 0.297916 0
1.865000 0.320334 0
1.870000 0.341077 0
1.875000 0.359753 0
1.880000 0.375995 0
1.885000 0.389471 0
1.890000 0.399896 0
1.895000 0.407041 0
1.900000 0.410743 0
1.905000 0.410909 5
1.910000 0.407521 0
1.915000 0.400633 0
1.920000 0.390376 0
1.925000 0.376948 0
1.930000 0.360610 0
1.935000 0.341676 0
1.940000 0.320504 0
1.945000 0.297485 0
1.950000 0.273027 0
1.955000 0.247549 0
1.960000 0.221465 0
1.965000 0.195174 0
1.970000 0.169049 0
1.975000 0.143432 0
1.980000 0.118624 0
1.985000 0.094885 0
1.990000 0.072426 0
1.995000 0.051411 0
2.000000 0.031958 0
2.005000 0.014140 0
2.010000 -0.002009 0
2.015000 -0.016494 0
2.020000 -0.029351 0
2.025000 -0.040640 0
2.030000 -0.050446 0
2.035000 -0.058865 0
2.040000 -0.066008 0
2.045000 -0.071989 0
2.050000 -0.076927 0
2.055000 -0.080936 0
2.060000 -0.084129 0
2.065000 -0.086613 0
2.070000 -0.088486 0
2.075000 -0.089840 0
2.080000 -0.090755 0
2.085000 -0.091303 0
2.090000 -0.091549 0
2.095000 -0.091547 0
2.100000 -0.091345 0
2.105000 -0.090981 0
2.110000 -0.090489 0
2.115000 -0.089896 0
2.120000 -0.089188 0
2.125000 -0.088261 0
2.130000 -0.087340 0
2.135000 -0.086423 0
2.140000 -0.085511 0
2.145000 -0.084603 0
2.150000 -0.083700 0
2.155000 -0.082801 0
2.160000 -0.081907 0
2.165000 -0.081017 0
2.170000 -0.080131 0
2.175000 -0.079250 0
2.180000 -0.078374 0
2.185000 -0.077502 0
2.190000 -0.076634 0
2.195000 -0.075770 0
2.200000 -0.074911 0
2.205000 -0.074056 0
2.210000 -0.073205 0
2.215000 -0.072358 0
2.220000 -0.071514 0
2.225000 -0.070674 0
2.230000 -0.069836 0
2.235000 -0.068999 0
2.240000 -0.068160 0
2.245000 -0.067316 0
2.250000 -0.066461 0
2.255000 -0.065584 0
2.260000 -0.064671 0
2.265000 -0.063700 0
2.270000 -0.062639 0
2.275000 -0.061442 0
2.280000 -0.060045 0
2.285000 -0.058363 0
2.290000 -0.056282 0
2.295000 -0.053660 0
2.300000 -0.050318 0
2.305000 -0.046045 0
2.310000 -0.040596 0
2.315000 -0.033706 0
2.320000 -0.025098 0
2.325000 -0.014503 0
2.330000 -0.001689 0
2.335000 0.013510 0
2.340000 0.031163 0
2.345000 0.051205 0
2.350000 0.073411 0
2.355000 0.097378 0
2.360000 0.122513 0
2.365000 0.148052 0
2.370000 0.173084 0
2.375000 0.196603 0
2.380000 0.217567 0
2.385000 0.234982 0
2.390000 0.247969 0
2.395000 0.255846 0
2.400000 0.258180 1
2.405000 0.254833 0
2.410000 0.245967 0
2.415000 0.232040 0
2.420000 0.213759 0
2.425000 0.192023 0
2.430000 0.167851 0
2.435000 0.142302 0
2.440000 0.116398 0
2.445000 0.091056 0
2.450000 0.067029 0
2.455000 0.044840 0
2.460000 0.024692 0
2.465000 0.006306 0
2.470000 -0.011311 0
2.475000 -0.030088 0
2.480000 -0.052815 0
2.485000 -0.082380 0
2.490000 -0.120081 0
2.495000 -0.163388 0
2.500000 -0.204298 0
2.505000 -0.229487 2
2.510000 -0.222453 0
2.515000 -0.166646 0
2.520000 -0.048629 0
2.525000 0.137986 0
2.530000 0.386316 0
2.535000 0.668962 0
2.540000 0.935892 0
2.545000 1.124617 0
2.550000 1.182552 3
2.555000 1.088501 0
2.560000 0.863998 0
2.565000 0.568738 0
2.570000 0.269180 0
2.575000 0.015786 0
2.580000 -0.164750 0
2.585000 -0.265892 0
2.590000 -0.295199 4
2.595000 -0.269980 0
2.600000 -0.213052 0
2.605000 -0.146891 0
2.610000 -0.087823 0
2.615000 -0.043306 0
2.620000 -0.013259 0
2.625000 0.006340 0
2.630000 0.020138 0
2.635000 0.031656 0
2.640000 0.042988 0
2.645000 0.055175 0
2.650000 0.068674 0
2.655000 0.083671 0
2.660000 0.100228 0
2.665000 0.118343 0
2.670000 0.137967 0
2.675000 0.159003 0
2.680000 0.181304 0
2.685000 0.204675 0
2.690000 0.228866 0
2.695000 0.253580 0
2.700000 0.278474 0
2.705000 0.303167 0
2.710000 0.327247 0
2.715000 0.350282 0
2.720000 0.371832 0
2.725000 0.391464 0
2.730000 0.408764 0
2.735000 0.423350 0
2.740000 0.434888 0
2.745000 0.443104 0
2.750000 0.447793 0
2.755000 0.448826 5
2.760000 0.446160 0
2.765000 0.439832 0
2.770000 0.429966 0
2.775000 0.416762 0
2.780000 0.400494 0
2.785000 0.381497 0
2.790000 0.360155 0
2.795000 0.336890 0
2.800000 0.312146 0
2.805000 0.286375 0
2.810000 0.260023 0
2.815000 0.233519 0
2.820000 0.207262 0
2.825000 0.181613 0
2.830000 0.156885 0
2.835000 0.133343 0
2.840000 0.111199 0
2.845000 0.090611 0
2.850000 0.071685 0
2.855000 0.054481 0
2.860000 0.039013 0
2.865000 0.025257 0
2.870000 0.013158 0
2.875000 0.002633 0
2.880000 -0.006418 0
2.885000 -0.014110 0
2.890000 -0.020567 0
2.895000 -0.025915 0
2.900000 -0.030281 0
2.905000 -0.033785 0
2.910000 -0.036545 0
2.915000 -0.038667 0
2.920000 -0.040248 0
2.925000 -0.041378 0
2.930000 -0.042132 0
2.935000 -0.042579 0
2.940000 -0.042777 0
2.945000 -0.042774 0
2.950000 -0.042612 0
2.955000 -0.042325 0
2.960000 -0.041940 0
2.965000 -0.041448 0
2.970000 -0.040760 0
2.975000 -0.040075 0
2.980000 -0.039394 0
2.985000 -0.038716 0
2.990000 -0.038042 0
2.995000 -0.037371 0
3.000000 -0.036703 0
3.005000 -0.036039 0
3.010000 -0.035377 0
3.015000 -0.034720 0
3.020000 -0.034065 0
3.025000 -0.033414 0
3.030000 -0.032766 0
3.035000 -0.032121 0
3.040000 -0.031480 0
3.045000 -0.030841 0
3.050000 -0.030206 0
3.055000 -0.029573 0
3.060000 -0.028943 0
3.065000 -0.028315 0
3.070000 -0.027687 0
3.075000 -0.027059 0
3.080000 -0.026427 0
3.085000 -0.025786 0
3.090000 -0.025128 0
3.095000 -0.024441 0
3.100000 -0.023705 0
3.105000 -0.022891 0
3.110000 -0.021956 0
3.115000 -0.020841 0
3.120000 -0.019462 0
3.125000 -0.017707 0
3.130000 -0.015430 0
3.135000 -0.012448 0
3.140000 -0.008538 0
3.145000 -0.003444 0
3.150000 0.003123 0
3.155000 0.011461 0
3.160000 0.021861 0
3.165000 0.034577 0
3.170000 0.049785 0
3.175000 0.067549 0
3.180000 0.087782 0
3.185000 0.110211 0
3.190000 0.134358 0
3.195000 0.159537 0
3.200000 0.184871 0
3.205000 0.209336 0
3.210000 0.231820 0
3.215000 0.251205 0
3.220000 0.266460 0
3.225000 0.276726 0
3.230000 0.281399 1
3.235000 0.280184 0
3.240000 0.273128 0
3.245000 0.260614 0
3.250000 0.243327 0
3.255000 0.222189 0
3.260000 0.198281 0
3.265000 0.172745 0
3.270000 0.146698 0
3.275000 0.121150 0
3.280000 0.096929 0
3.285000 0.074611 0
3.290000 0.054409 0
3.295000 0.035986 0
3.300000 0.018181 0
3.305000 -0.001233 0
3.310000 -0.025373 0
3.315000 -0.057166 0
3.320000 -0.097169 0
3.325000 -0.141003 0
3.330000 -0.177945 0
3.335000 -0.191940 2
3.340000 -0.164703 0
3.345000 -0.079445 0
3.350000 0.075209 0
3.355000 0.299374 0
3.360000 0.573488 0
3.365000 0.852298 0
3.370000 1.070737 0
3.375000 1.165986 3
3.380000 1.108087 0
3.385000 0.914352 0
3.390000 0.633788 0
3.395000 0.328869 0
3.400000 0.053104 0
3.405000 -0.160286 0
3.410000 -0.298055 0
3.415000 -0.361752 0
3.420000 -0.363277 4
3.425000 -0.321554 0
3.430000 -0.258319 0
3.435000 -0.192775 0
3.440000 -0.137333 0
3.445000 -0.096506 0
3.450000 -0.068891 0
3.455000 -0.050392 0
3.460000 -0.036819 0
3.465000 -0.025112 0
3.470000 -0.013464 0
3.475000 -0.000964 0
3.480000 0.012798 0
3.485000 0.027992 0
3.490000 0.044679 0
3.495000 0.062862 0
3.500000 0.082501 0
3.505000 0.103513 0
3.510000 0.125772 0
3.515000 0.149108 0
3.520000 0.173305 0
3.525000 0.198101 0
3.530000 0.223196 0
3.535000 0.248248 0
3.540000 0.272891 0
3.545000 0.296731 0
3.550000 0.319365 0
3.555000 0.340389 0
3.560000 0.359406 0
3.565000 0.376045 0
3.570000 0.389967 0
3.575000 0.400878 0
3.580000 0.408542 0
3.585000 0.412782 0
3.590000 0.413496 5
3.595000 0.410652 0
3.600000 0.404295 0
3.605000 0.394542 0
3.610000 0.381582 0
3.615000 0.365667 0
3.620000 0.347104 0
3.625000 0.326243 0
3.630000 0.303473 0
3.635000 0.279199 0
3.640000 0.253841 0
3.645000 0.227813 0
3.650000 0.201516 0
3.655000 0.175331 0
3.660000 0.149604 0
3.665000 0.124643 0
3.670000 0.100713 0
3.675000 0.078035 0
3.680000 0.056779 0
3.685000 0.037070 0
3.690000 0.018989 0
3.695000 0.002574 0
3.700000 -0.012173 0
3.705000 -0.025284 0
3.710000 -0.036817 0
3.715000 -0.046852 0
3.720000 -0.055485 0
3.725000 -0.062824 0
3.730000 -0.068984 0
3.735000 -0.074081 0
3.740000 -0.078233 0
3.745000 -0.081552 0
3.750000 -0.084146 0
3.755000 -0.086116 0
3.760000 -0.087552 0
3.765000 -0.088538 0
3.770000 -0.089147 0
3.775000 -0.089445 0
3.780000 -0.089487 0
3.785000 -0.089321 0
3.790000 -0.088989 0
3.795000 -0.088524 0
3.800000 -0.087955 0
3.805000 -0.087305 0
3.810000 -0.086427 0
3.815000 -0.085515 0
3.820000 -0.084607 0
3.825000 -0.083703 0
3.830000 -0.082805 0
3.835000 -0.081910 0
3.840000 -0.081021 0
3.845000 -0.080135 0
3.850000 -0.079254 0
3.855000 -0.078378 0
3.860000 -0.077505 0
3.865000 -0.076637 0
3.870000 -0.075774 0
3.875000 -0.074915 0
3.880000 -0.074060 0
3.885000 -0.073209 0
3.890000 -0.072362 0
3.895000 -0.071520 0
3.900000 -0.070681 0
3.905000 -0.069846 0
3.910000 -0.069015 0
3.915000 -0.068185 0
3.920000 -0.067357 0
3.925000 -0.066527 0
3.930000 -0.065693 0
3.935000 -0.064849 0
3.940000 -0.063984 0
3.945000 -0.063086 0
3.950000 -0.062134 0
3.955000 -0.061096 0
3.960000 -0.059930 0
3.965000 -0.058573 0
3.970000 -0.056945 0
3.975000 -0.054936 0
3.980000 -0.052407 0
3.985000 -0.049184 0
3.990000 -0.045061 0
3.995000 -0.039798 0
4.000000 -0.033130 0
4.005000 -0.024781 0
4.010000 -0.014481 0
4.015000 -0.001990 0
4.020000 0.012870 0
4.025000 0.030182 0
4.030000 0.049901 0
4.035000 0.071826 0
4.040000 0.095577 0
4.045000 0.120588 0
4.050000 0.146115 0
4.055000 0.171265 0
4.060000 0.195040 0
4.065000 0.216400 0
4.070000 0.234336 0
4.075000 0.247952 0
4.080000 0.256534 0
4.085000 0.259614 1
4.090000 0.257011 0
4.095000 0.248850 0
4.100000 0.235550 0
4.105000 0.217789 0
4.110000 0.196445 0
4.115000 0.172527 0
4.120000 0.147092 0
4.125000 0.121172 0
4.130000 0.095703 0
4.135000 0.071461 0
4.140000 0.049007 0
4.145000 0.028590 0
4.150000 0.010006 0
4.155000 -0.007630 0
4.160000 -0.026121 0
4.165000 -0.048171 0
4.170000 -0.076734 0
4.175000 -0.113434 0
4.180000 -0.156353 0
4.185000 -0.198224 0
4.190000 -0.226314 2
4.195000 -0.224355 0
4.200000 -0.175616 0
4.205000 -0.066072 0
4.210000 0.111855 0
4.215000 0.353388 0
4.220000 0.634019 0
4.225000 0.906295 0
4.230000 1.108223 0
4.235000 1.184522 3
4.240000 1.109702 0
4.245000 0.900749 0
4.250000 0.612178 0
4.255000 0.309007 0
4.260000 0.043748 0
4.265000 -0.153400 0
4.270000 -0.272525 0
4.275000 -0.318239 4
4.280000 -0.305273 0
4.285000 -0.254759 0
4.290000 -0.189147 0
4.295000 -0.126462 0
4.300000 -0.076656 0
4.305000 -0.041747 0
4.310000 -0.018755 0
4.315000 -0.003120 0
4.320000 0.009081 0
4.325000 0.020402 0
4.330000 0.032217 0
4.335000 0.045168 0
4.340000 0.059524 0
4.345000 0.075392 0
4.350000 0.092796 0
4.355000 0.111713 0
4.360000 0.132071 0
4.365000 0.153757 0
4.370000 0.176608 0
4.375000 0.200412 0
4.380000 0.224910 0
4.385000 0.249798 0
4.390000 0.274729 0
4.395000 0.299326 0
4.400000 0.323181 0
4.405000 0.345875 0
4.410000 0.366983 0
4.415000 0.386091 0
4.420000 0.402806 0
4.425000 0.416771 0
4.430000 0.427674 0
4.435000 0.435266 0
4.440000 0.439361 0
4.445000 0.439852 5
4.450000 0.436706 0
4.455000 0.429975 0
4.460000 0.419786 0
4.465000 0.406341 0
4.470000 0.389912 0
4.475000 0.370824 0
4.480000 0.349452 0
4.485000 0.326204 0
4.490000 0.301510 0
4.495000 0.275805 0
4.500000 0.249522 0
4.505000 0.223075 0
4.510000 0.196850 0
4.515000 0.171198 0
4.520000 0.146427 0
4.525000 0.122797 0
4.530000 0.100519 0
4.535000 0.079751 0
4.540000 0.060606 0
4.545000 0.043145 0
4.550000 0.027392 0
4.555000 0.013331 0
4.560000 0.000913 0
4.565000 -0.009935 0
4.570000 -0.019306 0
4.575000 -0.027308 0
4.580000 -0.034059 0
4.585000 -0.039681 0
4.590000 -0.044295 0
4.595000 -0.048021 0
4.600000 -0.050975 0
4.605000 -0.053261 0
4.610000 -0.054979 0
4.615000 -0.056218 0
4.620000 -0.057056 0
4.625000 -0.057563 0
4.630000 -0.057800 0
4.635000 -0.057817 0
4.640000 -0.057658 0
4.645000 -0.057360 0
4.650000 -0.056952 0
4.655000 -0.056459 0
4.660000 -0.055736 0
4.665000 -0.054976 0
4.670000 -0.054221 0
4.675000 -0.053469 0
4.680000 -0.052721 0
4.685000 -0.051977 0
4.690000 -0.051236 0
4.695000 -0.050499 0
4.700000 -0.049766 0
4.705000 -0.049037 0
4.710000 -0.048311 0
4.715000 -0.047588 0
4.720000 -0.046870 0
4.725000 -0.046155 0
4.730000 -0.045443 0
4.735000 -0.044735 0
4.740000 -0.044031 0
4.745000 -0.043329 0
4.750000 -0.042631 0
4.755000 -0.041936 0
4.760000 -0.041242 0
4.765000 -0.040550 0
4.770000 -0.039858 0
4.775000 -0.039162 0
4.780000 -0.038457 0
4.785000 -0.037737 0
4.790000 -0.036989 0
4.795000 -0.036194 0
4.800000 -0.035326 0
4.805000 -0.034344 0
4.810000 -0.033192 0
4.815000 -0.031792 0
4.820000 -0.030040 0
4.825000 -0.027802 0
4.830000 -0.024905 0
4.835000 -0.021142 0
4.840000 -0.016271 0
4.845000 -0.010021 0
4.850000 -0.002102 0
4.855000 0.007769 0
4.860000 0.019851 0
4.865000 0.034340 0
4.870000 0.051333 0
4.875000 0.070798 0
4.880000 0.092535 0
4.885000 0.116154 0
4.890000 0.141066 0
4.895000 0.166496 0
4.900000 0.191504 0
4.905000 0.215045 0
4.910000 0.236031 0
4.915000 0.253417 0
4.920000 0.266284 0
4.925000 0.273919 0
4.930000 0.275877 1
4.935000 0.272028 0
4.940000 0.262566 0
4.945000 0.247995 0
4.950000 0.229080 0
4.955000 0.206784 0
4.960000 0.182183 0
4.965000 0.156382 0
4.970000 0.130433 0
4.975000 0.105260 0
4.980000 0.081595 0
4.985000 0.059905 0
4.990000 0.040272 0
4.995000 0.022193 0
5.000000 0.004312 0
5.005000 -0.015753 0
5.010000 -0.041101 0
5.015000 -0.074323 0
5.020000 -0.115311 0
5.025000 -0.158931 0
5.030000 -0.194003 0
5.035000 -0.204569 2
5.040000 -0.172949 0
5.045000 -0.083208 0
5.050000 0.075126 0
5.055000 0.301447 0
5.060000 0.576125 0
5.065000 0.855063 0
5.070000 1.075366 0
5.075000 1.175958 3
5.080000 1.124785 0
5.085000 0.934469 0
5.090000 0.654676 0
5.095000 0.349730 0
5.100000 0.074753 0
5.105000 -0.136371 0
5.110000 -0.270549 0
5.115000 -0.329966 4
5.120000 -0.327450 0
5.125000 -0.282918 0
5.130000 -0.218757 0
5.135000 -0.154148 0
5.140000 -0.100840 0
5.145000 -0.062450 0
5.150000 -0.036881 0
5.155000 -0.019747 0
5.160000 -0.006897 0
5.165000 0.004546 0
5.170000 0.016205 0
5.175000 0.028865 0
5.180000 0.042869 0
5.185000 0.058354 0
5.190000 0.075363 0
5.195000 0.093886 0
5.200000 0.113866 0
5.205000 0.135206 0
5.210000 0.157758 0
5.215000 0.181330 0
5.220000 0.205682 0
5.225000 0.230528 0
5.230000 0.255539 0
5.235000 0.280351 0
5.240000 0.304573 0
5.245000 0.327794 0
5.250000 0.349594 0
5.255000 0.369560 0
5.260000 0.387293 0
5.265000 0.402427 0
5.270000 0.414635 0
5.275000 0.423645 0
5.280000 0.429247 0
5.285000 0.431302 5
5.290000 0.429749 0
5.295000 0.424601 0
5.300000 0.415952 0
5.305000 0.403972 0
5.310000 0.388898 0
5.315000 0.371029 0
5.320000 0.350715 0
5.325000 0.328343 0
5.330000 0.304331 0
5.335000 0.279108 0
5.340000 0.253102 0
5.345000 0.226733 0
5.350000 0.200398 0
5.355000 0.174461 0
5.360000 0.149249 0
5.365000 0.125042 0
5.370000 0.102076 0
5.375000 0.080533 0
5.380000 0.060548 0
5.385000 0.042209 0
5.390000 0.025560 0
5.395000 0.010605 0
5.400000 -0.002687 0
5.405000 -0.014374 0
5.410000 -0.024538 0
5.415000 -0.033278 0
5.420000 -0.040705 0
5.425000 -0.046937 0
5.430000 -0.052095 0
5.435000 -0.056300 0
5.440000 -0.059667 0
5.445000 -0.062306 0
5.450000 -0.064321 0
5.455000 -0.065805 0
5.460000 -0.066842 0
5.465000 -0.067506 0
5.470000 -0.067863 0
5.475000 -0.067970 0
5.480000 -0.067874 0
5.485000 -0.067616 0
5.490000 -0.067230 0
5.495000 -0.066744 0
5.500000 -0.066144 0
5.505000 -0.065333 0
5.510000 -0.064526 0
5.515000 -0.063722 0
5.520000 -0.062923 0
5.525000 -0.062128 0
5.530000 -0.061337 0
5.535000 -0.060550 0
5.540000 -0.059767 0
5.545000 -0.058987 0
5.550000 -0.058212 0
5.555000 -0.057440 0
5.560000 -0.056672 0
5.565000 -0.055908 0
5.570000 -0.055148 0
5.575000 -0.054392 0
5.580000 -0.053639 0
5.585000 -0.052890 0
5.590000 -0.052144 0
5.595000 -0.051402 0
5.600000 -0.050663 0
5.605000 -0.049926 0
5.610000 -0.049190 0
5.615000 -0.048453 0
5.620000 -0.047713 0
5.625000 -0.046964 0
5.630000 -0.046198 0
5.635000 -0.045402 0
5.640000 -0.044557 0
5.645000 -0.043636 0
5.650000 -0.042597 0
5.655000 -0.041382 0
5.660000 -0.039912 0
5.665000 -0.038081 0
5.670000 -0.035754 0
5.675000 -0.032758 0
5.680000 -0.028885 0
5.685000 -0.023895 0
5.690000 -0.017517 0
5.695000 -0.009466 0
5.700000 0.000537 0
5.705000 0.012746 0
5.710000 0.027350 0
5.715000 0.044444 0
5.720000 0.063990 0
5.725000 0.085788 0
5.730000 0.109451 0
5.735000 0.134397 0
5.740000 0.159859 0
5.745000 0.184911 0
5.750000 0.208523 0
5.755000 0.229621 0
5.760000 0.247170 0
5.765000 0.260259 0
5.770000 0.268172 0
5.775000 0.270461 1
5.780000 0.266977 0
5.785000 0.257897 0
5.790000 0.243696 0
5.795000 0.225115 0
5.800000 0.203092 0
5.805000 0.178683 0
5.810000 0.152981 0
5.815000 0.127032 0
5.820000 0.101763 0
5.825000 0.077924 0
5.830000 0.056009 0
5.835000 0.036156 0
5.840000 0.017957 0
5.845000 0.000205 0
5.850000 -0.019311 0
5.855000 -0.043597 0
5.860000 -0.075413 0
5.865000 -0.115257 0
5.870000 -0.159024 0
5.875000 -0.196695 0
5.880000 -0.213179 2
5.885000 -0.191073 0
5.890000 -0.114046 0
5.895000 0.029685 0
5.900000 0.242394 0
5.905000 0.509385 0
5.910000 0.792467 0
5.915000 1.032438 0
5.920000 1.166149 3
5.925000 1.152827 0
5.930000 0.993604 0
5.935000 0.730323 0
5.940000 0.425840 0
5.945000 0.139046 0
5.950000 -0.090578 0
5.955000 -0.245128 0
5.960000 -0.323344 0
5.965000 -0.335552 4
5.970000 -0.300078 0
5.975000 -0.239088 0
5.980000 -0.173064 0
5.985000 -0.115950 0
5.990000 -0.073434 0
5.995000 -0.044664 0
6.000000 -0.025599 0
6.005000 -0.011874 0
6.010000 -0.000234 0
6.015000 0.011260 0
6.020000 0.023584 0
6.025000 0.037178 0
6.030000 0.052222 0
6.035000 0.068779 0
6.040000 0.086854 0
6.045000 0.106405 0
6.050000 0.127346 0
6.055000 0.149546 0
6.060000 0.172829 0
6.065000 0.196969 0
6.070000 0.221696 0
6.075000 0.246697 0
6.080000 0.271619 0
6.085000 0.296080 0
6.090000 0.319678 0
6.095000 0.341995 0
6.100000 0.362618 0
6.105000 0.381143 0
6.110000 0.397193 0
6.115000 0.410429 0
6.120000 0.420561 0
6.125000 0.427357 0
6.130000 0.430655 5
6.135000 0.430365 0
6.140000 0.426475 0
6.145000 0.419052 0
6.150000 0.408238 0
6.155000 0.394244 0
6.160000 0.377349 0
6.165000 0.357883 0
6.170000 0.336221 0
6.175000 0.312767 0
6.180000 0.287946 0
6.185000 0.262186 0
6.190000 0.235909 0
6.195000 0.209520 0
6.200000 0.183395 0
6.205000 0.157874 0
6.210000 0.133254 0
6.215000 0.109787 0
6.220000 0.087675 0
6.225000 0.067070 0
6.230000 0.048078 0
6.235000 0.030760 0
6.240000 0.015134 0
6.245000 0.001184 0
6.250000 -0.011138 0
6.255000 -0.021905 0
6.260000 -0.031210 0
6.265000 -0.039158 0
6.270000 -0.045864 0
6.275000 -0.051449 0
6.280000 -0.056033 0
6.285000 -0.059733 0
6.290000 -0.062662 0
6.295000 -0.064925 0
6.300000 -0.066619 0
6.305000 -0.067832 0
6.310000 -0.068643 0
6.315000 -0.069120 0
6.320000 -0.069324 0
6.325000 -0.069305 0
6.330000 -0.069108 0
6.335000 -0.068769 0
6.340000 -0.068318 0
6.345000 -0.067780 0
6.350000 -0.067001 0
6.355000 -0.066186 0
6.360000 -0.065375 0
6.365000 -0.064567 0
6.370000 -0.063764 0
6.375000 -0.062965 0
6.380000 -0.062169 0
6.385000 -0.061378 0
6.390000 -0.060590 0
6.395000 -0.059807 0
6.400000 -0.059027 0
6.405000 -0.058252 0
6.410000 -0.057480 0
6.415000 -0.056712 0
6.420000 -0.055947 0
6.425000 -0.055187 0
6.430000 -0.054430 0
6.435000 -0.053677 0
6.440000 -0.052928 0
6.445000 -0.052181 0
6.450000 -0.051437 0
6.455000 -0.050695 0
6.460000 -0.049954 0
6.465000 -0.049210 0
6.470000 -0.048461 0
6.475000 -0.047699 0
6.480000 -0.046915 0
6.485000 -0.046094 0
6.490000 -0.045211 0
6.495000 -0.044234 0
6.500000 -0.043115 0
6.505000 -0.041787 0
6.510000 -0.040158 0
6.515000 -0.038110 0
6.520000 -0.035492 0
6.525000 -0.032116 0
6.530000 -0.027759 0
6.535000 -0.022167 0
6.540000 -0.015063 0
6.545000 -0.006163 0
6.550000 0.004804 0
6.555000 0.018065 0
6.560000 0.033771 0
6.565000 0.051962 0
6.570000 0.072533 0
6.575000 0.095205 0
6.580000 0.119509 0
6.585000 0.144785 0
6.590000 0.170195 0
6.595000 0.194767 0
6.600000 0.217447 0
6.605000 0.237175 0
6.610000 0.252962 0
6.615000 0.263973 0
6.620000 0.269601 1
6.625000 0.269519 0
6.630000 0.263711 0
6.635000 0.252479 0
6.640000 0.236411 0
6.645000 0.216329 0
6.650000 0.193227 0
6.655000 0.168178 0
6.660000 0.142261 0
6.665000 0.116478 0
6.670000 0.091691 0
6.675000 0.068557 0
6.680000 0.047445 0
6.685000 0.028313 0
6.690000 0.010482 0
6.695000 -0.007617 0
6.700000 -0.028540 0
6.705000 -0.055365 0
6.710000 -0.090280 0
6.715000 -0.132339 0
6.720000 -0.175351 0
6.725000 -0.207288 0
6.730000 -0.211918 2
6.735000 -0.171923 0
6.740000 -0.072234 0
6.745000 0.096222 0
6.750000 0.330698 0
6.755000 0.608868 0
6.760000 0.884484 0
6.765000 1.094640 0
6.770000 1.181078 3
6.775000 1.114940 0
6.780000 0.911260 0
6.785000 0.624457 0
6.790000 0.320948 0
6.795000 0.054844 0
6.800000 -0.142661 0
6.805000 -0.261348 0
6.810000 -0.305991 4
6.815000 -0.291768 0
6.820000 -0.240356 0
6.825000 -0.174599 0
6.830000 -0.112548 0
6.835000 -0.063847 0
6.840000 -0.030093 0
6.845000 -0.008003 0
6.850000 0.007085 0
6.855000 0.019043 0
6.860000 0.030328 0
6.865000 0.042228 0
6.870000 0.055328 0
6.875000 0.069875 0
6.880000 0.085957 0
6.885000 0.103592 0
6.890000 0.122747 0
6.895000 0.143342 0
6.900000 0.165250 0
6.905000 0.188295 0
6.910000 0.212250 0
6.915000 0.236841 0
6.920000 0.261744 0
6.925000 0.286599 0
6.930000 0.311009 0
6.935000 0.334556 0
6.940000 0.356807 0
6.945000 0.377330 0
6.950000 0.395709 0
6.955000 0.411550 0
6.960000 0.424503 0
6.965000 0.434271 0
6.970000 0.440619 0
6.975000 0.443385 5
6.980000 0.442488 0
6.985000 0.437926 0
6.990000 0.429782 0
6.995000 0.418216 0
7.000000 0.403466 0
7.005000 0.385832 0
7.010000 0.365671 0
7.015000 0.343380 0
7.020000 0.319389 0
7.025000 0.294141 0
7.030000 0.268079 0
7.035000 0.241639 0
7.040000 0.215231 0
7.045000 0.189231 0
7.050000 0.163977 0
7.055000 0.139757 0
7.060000 0.116811 0
7.065000 0.095325 0
7.070000 0.075433 0
7.075000 0.057222 0
7.080000 0.040731 0
7.085000 0.025959 0
7.090000 0.012870 0
7.095000 0.001399 0
7.100000 -0.008543 0
7.105000 -0.017061 0
7.110000 -0.024272 0
7.115000 -0.030299 0
7.120000 -0.035267 0
7.125000 -0.039300 0
7.130000 -0.042516 0
7.135000 -0.045027 0
7.140000 -0.046936 0
7.145000 -0.048336 0
7.150000 -0.049310 0
7.155000 -0.049933 0
7.160000 -0.050268 0
7.165000 -0.050369 0
7.170000 -0.050283 0
7.175000 -0.050048 0
7.180000 -0.049697 0
7.185000 -0.049255 0
7.190000 -0.048570 0
7.195000 -0.047846 0
7.200000 -0.047126 0
7.205000 -0.046410 0
7.210000 -0.045697 0
7.215000 -0.044988 0
7.220000 -0.044282 0
7.225000 -0.043580 0
7.230000 -0.042881 0
7.235000 -0.042186 0
7.240000 -0.041494 0
7.245000 -0.040806 0
7.250000 -0.040121 0
7.255000 -0.039440 0
7.260000 -0.038762 0
7.265000 -0.038087 0
7.270000 -0.037416 0
7.275000 -0.036747 0
7.280000 -0.036082 0
7.285000 -0.035419 0
7.290000 -0.034758 0
7.295000 -0.034099 0
7.300000 -0.033438 0
7.305000 -0.032773 0
7.310000 -0.032100 0
7.315000 -0.031409 0
7.320000 -0.030688 0
7.325000 -0.029918 0
7.330000 -0.029069 0
7.335000 -0.028100 0
7.340000 -0.026949 0
7.345000 -0.025534 0
7.350000 -0.023744 0
7.355000 -0.021436 0
7.360000 -0.018428 0
7.365000 -0.014502 0
7.370000 -0.009403 0
7.375000 -0.002850 0
7.380000 0.005453 0
7.385000 0.015794 0
7.390000 0.028423 0
7.395000 0.043520 0
7.400000 0.061156 0
7.405000 0.081252 0
7.410000 0.103555 0
7.415000 0.127608 0
7.420000 0.152751 0
7.425000 0.178135 0
7.430000 0.202762 0
7.435000 0.225540 0
7.440000 0.245364 0
7.445000 0.261203 0
7.450000 0.272183 0
7.455000 0.277672 1
7.460000 0.277336 0
7.465000 0.271171 0
7.470000 0.259506 0
7.475000 0.242972 0
7.480000 0.222447 0
7.485000 0.198973 0
7.490000 0.173675 0
7.495000 0.147664 0
7.500000 0.121962 0
7.505000 0.097428 0
7.510000 0.074690 0
7.515000 0.054046 0
7.520000 0.035307 0
7.525000 0.017541 0
7.530000 -0.001191 0
7.535000 -0.023806 0
7.540000 -0.053402 0
7.545000 -0.091387 0
7.550000 -0.134947 0
7.555000 -0.175222 0
7.560000 -0.197599 2
7.565000 -0.184300 0
7.570000 -0.117958 0
7.575000 0.014723 0
7.580000 0.218080 0
7.585000 0.479853 0
7.590000 0.763671 0
7.595000 1.010095 0
7.600000 1.153212 3
7.605000 1.150108 0
7.610000 1.001765 0
7.615000 0.746049 0
7.620000 0.443039 0
7.625000 0.151263 0
7.630000 -0.088239 0
7.635000 -0.255324 0
7.640000 -0.346555 0
7.645000 -0.370218 4
7.650000 -0.342830 0
7.655000 -0.285503 0
7.660000 -0.218939 0
7.665000 -0.158484 0
7.670000 -0.111666 0
7.675000 -0.079094 0
7.680000 -0.057405 0
7.685000 -0.042246 0
7.690000 -0.030048 0
7.695000 -0.018527 0
7.700000 -0.006458 0
7.705000 0.006736 0
7.710000 0.021304 0
7.715000 0.037343 0
7.720000 0.054877 0
7.725000 0.073885 0
7.730000 0.094302 0
7.735000 0.116024 0
7.740000 0.138901 0
7.745000 0.162737 0
7.750000 0.187294 0
7.755000 0.212289 0
7.760000 0.237402 0
7.765000 0.262278 0
7.770000 0.286539 0
7.775000 0.309786 0
7.780000 0.331617 0
7.785000 0.351633 0
7.790000 0.369452 0
7.795000 0.384719 0
7.800000 0.397121 0
7.805000 0.406392 0
7.810000 0.412329 0
7.815000 0.414792 5
7.820000 0.413715 0
7.825000 0.409104 0
7.830000 0.401041 0
7.835000 0.389677 0
7.840000 0.375232 0
7.845000 0.357984 0
7.850000 0.338262 0
7.855000 0.316431 0
7.860000 0.292889 0
7.865000 0.268047 0
7.870000 0.242319 0
7.875000 0.216114 0
7.880000 0.189822 0
7.885000 0.163804 0
7.890000 0.138390 0
7.895000 0.113866 0
7.900000 0.090475 0
7.905000 0.068414 0
7.910000 0.047833 0
7.915000 0.028835 0
7.920000 0.011482 0
7.925000 -0.004205 0
7.930000 -0.018240 0
7.935000 -0.030665 0
7.940000 -0.041549 0
7.945000 -0.050978 0
7.950000 -0.059053 0
7.955000 -0.065886 0
7.960000 -0.071591 0
7.965000 -0.076285 0
7.970000 -0.080083 0
7.975000 -0.083095 0
7.980000 -0.085426 0
7.985000 -0.087171 0
7.990000 -0.088419 0
7.995000 -0.089247 0
8.000000 -0.089726 0
8.005000 -0.089918 0
8.010000 -0.089873 0
8.015000 -0.089638 0
8.020000 -0.089251 0
8.025000 -0.088742 0
8.030000 -0.088138 0
8.035000 -0.087426 0
8.040000 -0.086508 0
8.045000 -0.085596 0
8.050000 -0.084687 0
8.055000 -0.083784 0
8.060000 -0.082885 0
8.065000 -0.081990 0
8.070000 -0.081100 0
8.075000 -0.080214 0
8.080000 -0.079332 0
8.085000 -0.078455 0
8.090000 -0.077583 0
8.095000 -0.076715 0
8.100000 -0.075851 0
8.105000 -0.074991 0
8.110000 -0.074136 0
8.115000 -0.073284 0
8.120000 -0.072437 0
8.125000 -0.071595 0
8.130000 -0.070755 0
8.135000 -0.069920 0
8.140000 -0.069087 0
8.145000 -0.068257 0
8.150000 -0.067427 0
8.155000 -0.066595 0
8.160000 -0.065757 0
8.165000 -0.064906 0
8.170000 -0.064033 0
8.175000 -0.063121 0
8.180000 -0.062147 0
8.185000 -0.061078 0
8.190000 -0.059867 0
8.195000 -0.058446 0
8.200000 -0.056729 0
8.205000 -0.054600 0
8.210000 -0.051911 0
8.215000 -0.048482 0
8.220000 -0.044099 0
8.225000 -0.038517 0
8.230000 -0.031469 0
8.235000 -0.022679 0
8.240000 -0.011883 0
8.245000 0.001144 0
8.250000 0.016561 0
8.255000 0.034424 0
8.260000 0.054656 0
8.265000 0.077020 0
8.270000 0.101096 0
8.275000 0.126283 0
8.280000 0.151808 0
8.285000 0.176757 0
8.290000 0.200123 0
8.295000 0.220874 0
8.300000 0.238024 0
8.305000 0.250711 0
8.310000 0.258270 0
8.315000 0.260287 1
8.320000 0.256639 0
8.325000 0.247506 0
8.330000 0.233354 0
8.335000 0.214897 0
8.340000 0.193035 0
8.345000 0.168785 0
8.350000 0.143198 0
8.355000 0.117290 0
8.360000 0.091967 0
8.365000 0.067973 0
8.370000 0.045821 0
8.375000 0.025704 0
8.380000 0.007334 0
8.385000 -0.010290 0
8.390000 -0.029097 0
8.395000 -0.051868 0
8.400000 -0.081473 0
8.405000 -0.119190 0
8.410000 -0.162498 0
8.415000 -0.203453 0
8.420000 -0.228824 2
8.425000 -0.222218 0
8.430000 -0.167164 0
8.435000 -0.050239 0
8.440000 0.135067 0
8.445000 0.382241 0
8.450000 0.664552 0
8.455000 0.932753 0
8.460000 1.124789 0
8.465000 1.187678 3
8.470000 1.098948 0
8.475000 0.878457 0
8.480000 0.584729 0
8.485000 0.284095 0
8.490000 0.027702 0
8.495000 -0.156827 0
8.500000 -0.262140 0
8.505000 -0.295128 4
8.510000 -0.272550 0
8.515000 -0.216910 0
8.520000 -0.150762 0
8.525000 -0.090866 0
8.530000 -0.045236 0
8.535000 -0.014224 0
8.540000 0.006010 0
8.545000 0.020121 0
8.550000 0.031727 0
8.555000 0.043016 0
8.560000 0.055096 0
8.565000 0.068457 0
8.570000 0.083300 0
8.575000 0.099695 0
8.580000 0.117645 0
8.585000 0.137108 0
8.590000 0.157990 0
8.595000 0.180152 0
8.600000 0.203405 0
8.605000 0.227506 0
8.610000 0.252166 0
8.615000 0.277050 0
8.620000 0.301782 0
8.625000 0.325957 0
8.630000 0.349147 0
8.635000 0.370916 0
8.640000 0.390830 0
8.645000 0.408475 0
8.650000 0.423466 0
8.655000 0.435464 0
8.660000 0.444187 0
8.665000 0.449419 0
8.670000 0.451022 5
8.675000 0.448937 0
8.680000 0.443191 0
8.685000 0.433891 0
8.690000 0.421225 0
8.695000 0.405453 0
8.700000 0.386899 0
8.705000 0.365936 0
8.710000 0.342979 0
8.715000 0.318466 0
8.720000 0.292845 0
8.725000 0.266563 0
8.730000 0.240049 0
8.735000 0.213707 0
8.740000 0.187903 0
8.745000 0.162959 0
8.750000 0.139149 0
8.755000 0.116693 0
8.760000 0.095759 0
8.765000 0.076465 0
8.770000 0.058879 0
8.775000 0.043024 0
8.780000 0.028885 0
8.785000 0.016412 0
8.790000 0.005530 0
8.795000 -0.003858 0
8.800000 -0.011863 0
8.805000 -0.018607 0
8.810000 -0.024215 0
8.815000 -0.028812 0
8.820000 -0.032522 0
8.825000 -0.035461 0
8.830000 -0.037738 0
8.835000 -0.039452 0
8.840000 -0.040694 0
8.845000 -0.041542 0
8.850000 -0.042068 0
8.855000 -0.042329 0
8.860000 -0.042379 0
8.865000 -0.042259 0
8.870000 -0.042006 0
8.875000 -0.041648 0
8.880000 -0.041174 0
8.885000 -0.040487 0
8.890000 -0.039804 0
8.895000 -0.039124 0
8.900000 -0.038448 0
8.905000 -0.037775 0
8.910000 -0.037105 0
8.915000 -0.036439 0
8.920000 -0.035776 0
8.925000 -0.035116 0
8.930000 -0.034459 0
8.935000 -0.033806 0
8.940000 -0.033156 0
8.945000 -0.032510 0
8.950000 -0.031866 0
8.955000 -0.031226 0
8.960000 -0.030589 0
8.965000 -0.029955 0
8.970000 -0.029323 0
8.975000 -0.028695 0
8.980000 -0.028068 0
8.985000 -0.027443 0
8.990000 -0.026818 0
8.995000 -0.026189 0
9.000000 -0.025555 0
9.005000 -0.024906 0
9.010000 -0.024234 0
9.015000 -0.023521 0
9.020000 -0.022742 0
9.025000 -0.021861 0
9.030000 -0.020825 0
9.035000 -0.019560 0
9.040000 -0.017966 0
9.045000 -0.015913 0
9.050000 -0.013231 0
9.055000 -0.009716 0
9.060000 -0.005125 0
9.065000 0.000817 0
9.070000 0.008406 0
9.075000 0.017938 0
9.080000 0.029682 0
9.085000 0.043849 0
9.090000 0.060556 0
9.095000 0.079780 0
9.100000 0.101330 0
9.105000 0.124820 0
9.110000 0.149652 0
9.115000 0.175034 0
9.120000 0.200002 0
9.125000 0.223480 0
9.130000 0.244349 0
9.135000 0.261536 0
9.140000 0.274100 0
9.145000 0.281320 0
9.150000 0.282760 1
9.155000 0.278314 0
9.160000 0.268213 0
9.165000 0.253007 0
9.170000 0.233516 0
9.175000 0.210749 0
9.180000 0.185827 0
9.185000 0.159882 0
9.190000 0.133977 0
9.195000 0.109029 0
9.200000 0.085742 0
9.205000 0.064517 0
9.210000 0.045314 0
9.215000 0.027413 0
9.220000 0.009136 0
9.225000 -0.012247 0
9.230000 -0.039947 0
9.235000 -0.076018 0
9.240000 -0.118857 0
9.245000 -0.161026 0
9.250000 -0.188972 2
9.255000 -0.185192 0
9.260000 -0.131778 0
9.265000 -0.014091 0
9.270000 0.174720 0
9.275000 0.426536 0
9.280000 0.710047 0
9.285000 0.969237 0
9.290000 1.136936 0
9.295000 1.161733 3
9.300000 1.036641 0
9.305000 0.795515 0
9.310000 0.496211 0
9.315000 0.198894 0
9.320000 -0.051850 0
9.325000 -0.232434 0
9.330000 -0.336877 0
9.335000 -0.371649 4
9.340000 -0.351988 0
9.345000 -0.298469 0
9.350000 -0.232230 0
9.355000 -0.169842 0
9.360000 -0.120277 0
9.365000 -0.085230 0
9.370000 -0.061833 0
9.375000 -0.045750 0
9.380000 -0.033201 0
9.385000 -0.021668 0
9.390000 -0.009759 0
9.395000 0.003197 0
9.400000 0.017493 0
9.405000 0.033246 0
9.410000 0.050492 0
9.415000 0.069217 0
9.420000 0.089367 0
9.425000 0.110843 0
9.430000 0.133506 0
9.435000 0.157171 0
9.440000 0.181607 0
9.445000 0.206541 0
9.450000 0.231660 0
9.455000 0.256619 0
9.460000 0.281041 0
9.465000 0.304535 0
9.470000 0.326697 0
9.475000 0.347129 0
9.480000 0.365444 0
9.485000 0.381283 0
9.490000 0.394321 0
9.495000 0.404285 0
9.500000 0.410955 0
9.505000 0.414180 5
9.510000 0.413877 0
9.515000 0.410035 0
9.520000 0.402721 0
9.525000 0.392071 0
9.530000 0.378290 0
9.535000 0.361642 0
9.540000 0.342445 0
9.545000 0.321057 0
9.550000 0.297869 0
9.555000 0.273288 0
9.560000 0.247728 0
9.565000 0.221600 0
9.570000 0.195298 0
9.575000 0.169189 0
9.580000 0.143610 0
9.585000 0.118857 0
9.590000 0.095185 0
9.595000 0.072798 0
9.600000 0.051859 0
9.605000 0.032481 0
9.610000 0.014735 0
9.615000 -0.001348 0
9.620000 -0.015775 0
9.625000 -0.028581 0
9.630000 -0.039828 0
9.635000 -0.049600 0
9.640000 -0.057994 0
9.645000 -0.065118 0
9.650000 -0.071088 0
9.655000 -0.076018 0
9.660000 -0.080026 0
9.665000 -0.083221 0
9.670000 -0.085710 0
9.675000 -0.087591 0
9.680000 -0.088953 0
9.685000 -0.089877 0
9.690000 -0.090436 0
9.695000 -0.090692 0
9.700000 -0.090700 0
9.705000 -0.090506 0
9.710000 -0.090151 0
9.715000 -0.089668 0
9.720000 -0.089083 0
9.725000 -0.088419 0
9.730000 -0.087535 0
9.735000 -0.086617 0
9.740000 -0.085704 0
9.745000 -0.084795 0
9.750000 -0.083891 0
9.755000 -0.082991 0
9.760000 -0.082096 0
9.765000 -0.081205 0
9.770000 -0.080319 0
9.775000 -0.079437 0
9.780000 -0.078559 0
9.785000 -0.077686 0
9.790000 -0.076817 0
9.795000 -0.075953 0
9.800000 -0.075093 0
9.805000 -0.074237 0
9.810000 -0.073385 0
9.815000 -0.072537 0
9.820000 -0.071694 0
9.825000 -0.070854 0
9.830000 -0.070017 0
9.835000 -0.069183 0
9.840000 -0.068349 0
9.845000 -0.067515 0
9.850000 -0.066676 0
9.855000 -0.065826 0
9.860000 -0.064958 0
9.865000 -0.064056 0
9.870000 -0.063100 0
9.875000 -0.062060 0
9.880000 -0.060894 0
9.885000 -0.059541 0
9.890000 -0.057920 0
9.895000 -0.055925 0
9.900000 -0.053420 0
9.905000 -0.050233 0
9.910000 -0.046162 0
9.915000 -0.040970 0
9.920000 -0.034396 0
9.925000 -0.026167 0
9.930000 -0.016014 0
9.935000 -0.003695 0
9.940000 0.010972 0
9.945000 0.028077 0
9.950000 0.047588 0
9.955000 0.069322 0
9.960000 0.092918 0
9.965000 0.117832 0
9.970000 0.143345 0
9.975000 0.168585 0
9.980000 0.192570 0
9.985000 0.214271 0
9.990000 0.232681 0
9.995000 0.246891 0
10.000000 0.256168 0
10.005000 0.260012 1
10.010000 0.258205 0
10.015000 0.250828 0
10.020000 0.238254 0
10.025000 0.221122 0
10.030000 0.200276 0
10.035000 0.176701 0
10.040000 0.151444 0
10.045000 0.125538 0
10.050000 0.099929 0
10.055000 0.075421 0
10.060000 0.052611 0
10.065000 0.031814 0
10.070000 0.012926 0
10.075000 -0.004781 0
10.080000 -0.022905 0
10.085000 -0.043974 0
10.090000 -0.070965 0
10.095000 -0.105935 0
10.100000 -0.147916 0
10.105000 -0.190940 0
10.110000 -0.223477 0
10.115000 -0.229938 2
10.120000 -0.193555 0
10.125000 -0.099506 0
10.130000 0.061681 0
10.135000 0.288921 0
10.140000 0.563339 0
10.145000 0.843358 0
10.150000 1.069592 0
10.155000 1.183024 3
10.160000 1.145201 0
10.165000 0.962766 0
10.170000 0.685528 0
10.175000 0.380466 0
10.180000 0.105489 0
10.185000 -0.104021 0
10.190000 -0.234790 0
10.195000 -0.289676 4
10.200000 -0.282686 0
10.205000 -0.235065 0
10.210000 -0.170087 0
10.215000 -0.106911 0
10.220000 -0.056421 0
10.225000 -0.021089 0
10.230000 0.002017 0
10.235000 0.017586 0
10.240000 0.029669 0
10.245000 0.040890 0
10.250000 0.052644 0
10.255000 0.065571 0
10.260000 0.079937 0
10.265000 0.095845 0
10.270000 0.113314 0
10.275000 0.132316 0
10.280000 0.152771 0
10.285000 0.174557 0
10.290000 0.197496 0
10.295000 0.221364 0
10.300000 0.245884 0
10.305000 0.270733 0
10.310000 0.295546 0
10.315000 0.319925 0
10.320000 0.343446 0
10.325000 0.365675 0
10.330000 0.386174 0
10.335000 0.404520 0
10.340000 0.420319 0
10.345000 0.433215 0
10.350000 0.442909 0
10.355000 0.449163 0
10.360000 0.451815 5
10.365000 0.450785 0
10.370000 0.446073 0
10.375000 0.437765 0
10.380000 0.426026 0
10.385000 0.411097 0
10.390000 0.393286 0
10.395000 0.372954 0
10.400000 0.350507 0
10.405000 0.326377 0
10.410000 0.301013 0
10.415000 0.274865 0
10.420000 0.248369 0
10.425000 0.221936 0
10.430000 0.195946 0
10.435000 0.170733 0
10.440000 0.146586 0
10.445000 0.123739 0
10.450000 0.102377 0
10.455000 0.082630 0
10.460000 0.064578 0
10.465000 0.048256 0
10.470000 0.033660 0
10.475000 0.020748 0
10.480000 0.009451 0
10.485000 -0.000324 0
10.490000 -0.008684 0
10.495000 -0.015750 0
10.500000 -0.021646 0
10.505000 -0.026498 0
10.510000 -0.030430 0
10.515000 -0.033561 0
10.520000 -0.036003 0
10.525000 -0.037857 0
10.530000 -0.039216 0
10.535000 -0.040162 0
10.540000 -0.040768 0
10.545000 -0.041096 0
10.550000 -0.041200 0
10.555000 -0.041125 0
10.560000 -0.040907 0
10.565000 -0.040578 0
10.570000 -0.040164 0
10.575000 -0.039521 0
10.580000 -0.038842 0
10.585000 -0.038167 0
10.590000 -0.037496 0
10.595000 -0.036827 0
10.600000 -0.036162 0
10.605000 -0.035501 0
10.610000 -0.034842 0
10.615000 -0.034187 0
10.620000 -0.033535 0
10.625000 -0.032887 0
10.630000 -0.032242 0
10.635000 -0.031599 0
10.640000 -0.030961 0
10.645000 -0.030325 0
10.650000 -0.029692 0
10.655000 -0.029062 0
10.660000 -0.028436 0
10.665000 -0.027812 0
10.670000 -0.027190 0
10.675000 -0.026569 0
10.680000 -0.025949 0
10.685000 -0.025327 0
10.690000 -0.024699 0
10.695000 -0.024060 0
10.700000 -0.023399 0
10.705000 -0.022701 0
10.710000 -0.021944 0
10.715000 -0.021094 0
10.720000 -0.020101 0
10.725000 -0.018896 0
10.730000 -0.017386 0
10.735000 -0.015446 0
10.740000 -0.012915 0
10.745000 -0.009597 0
10.750000 -0.005254 0
10.755000 0.000383 0
10.760000 0.007607 0
10.765000 0.016716 0
10.770000 0.027989 0
10.775000 0.041653 0
10.780000 0.057844 0
10.785000 0.076573 0
10.790000 0.097683 0
10.795000 0.120827 0
10.800000 0.145450 0
10.805000 0.170791 0
10.810000 0.195918 0
10.815000 0.219766 0
10.820000 0.241218 0
10.825000 0.259181 0
10.830000 0.272681 0
10.835000 0.280949 0
10.840000 0.283488 1
10.845000 0.280129 0
10.850000 0.271041 0
10.855000 0.256719 0
10.860000 0.237938 0
10.865000 0.215684 0
10.870000 0.191065 0
10.875000 0.165219 0
10.880000 0.139231 0
10.885000 0.114051 0
10.890000 0.090427 0
10.895000 0.068824 0
10.900000 0.049292 0
10.905000 0.031252 0
10.910000 0.013204 0
10.915000 -0.007421 0
10.920000 -0.033841 0
10.925000 -0.068475 0
10.930000 -0.110521 0
10.935000 -0.153600 0
10.940000 -0.185067 0
10.945000 -0.187811 2
10.950000 -0.143699 0
10.955000 -0.037262 0
10.960000 0.140051 0
10.965000 0.383132 0
10.970000 0.664757 0
10.975000 0.932296 0
10.980000 1.118642 0
10.985000 1.167831 3
10.990000 1.065065 0
10.995000 0.838246 0
11.000000 0.543477 0
11.005000 0.242768 0
11.010000 -0.015902 0
11.015000 -0.205898 0
11.020000 -0.319224 0
11.025000 -0.361165 4
11.030000 -0.346331 0
11.035000 -0.295205 0
11.040000 -0.229389 0
11.045000 -0.166270 0
11.050000 -0.115621 0
11.055000 -0.079653 0
11.060000 -0.055681 0
11.065000 -0.039331 0
11.070000 -0.026711 0
11.075000 -0.015203 0
11.080000 -0.003356 0
11.085000 0.009531 0
11.090000 0.023761 0
11.095000 0.039459 0
11.100000 0.056661 0
11.105000 0.075352 0
11.110000 0.095479 0
11.115000 0.116941 0
11.120000 0.139596 0
11.125000 0.163256 0
11.130000 0.187686 0
11.135000 0.212607 0
11.140000 0.237703 0
11.145000 0.262619 0
11.150000 0.286974 0
11.155000 0.310370 0
11.160000 0.332398 0
11.165000 0.352654 0
11.170000 0.370749 0
11.175000 0.386319 0
11.180000 0.399041 0
11.185000 0.408643 0
11.190000 0.414909 0
11.195000 0.417693 5
11.200000 0.416920 0
11.205000 0.412588 0
11.210000 0.404776 0
11.215000 0.393630 0
11.220000 0.379367 0
11.225000 0.362266 0
11.230000 0.342655 0
11.235000 0.320903 0
11.240000 0.297410 0
11.245000 0.272592 0
11.250000 0.246868 0
11.255000 0.220652 0
11.260000 0.194338 0
11.265000 0.168293 0
11.270000 0.142850 0
11.275000 0.118301 0
11.280000 0.094890 0
11.285000 0.072818 0
11.290000 0.052234 0
11.295000 0.033244 0
11.300000 0.015908 0
11.305000 0.000247 0
11.310000 -0.013753 0
11.315000 -0.026137 0
11.320000 -0.036974 0
11.325000 -0.046353 0
11.330000 -0.054377 0
11.335000 -0.061159 0
11.340000 -0.066814 0
11.345000 -0.071461 0
11.350000 -0.075217 0
11.355000 -0.078191 0
11.360000 -0.080488 0
11.365000 -0.082206 0
11.370000 -0.083431 0
11.375000 -0.084243 0
11.380000 -0.084711 0
11.385000 -0.084896 0
11.390000 -0.084850 0
11.395000 -0.084617 0
11.400000 -0.084236 0
11.405000 -0.083736 0
11.410000 -0.083145 0
11.415000 -0.082448 0
11.420000 -0.081556 0
11.425000 -0.080668 0
11.430000 -0.079784 0
11.435000 -0.078905 0
11.440000 -0.078030 0
11.445000 -0.077160 0
11.450000 -0.076293 0
11.455000 -0.075432 0
11.460000 -0.074574 0
11.465000 -0.073721 0
11.470000 -0.072872 0
11.475000 -0.072027 0
11.480000 -0.071187 0
11.485000 -0.070350 0
11.490000 -0.069518 0
11.495000 -0.068690 0
11.500000 -0.067866 0
11.505000 -0.067045 0
11.510000 -0.066229 0
11.515000 -0.065416 0
11.520000 -0.064605 0
11.525000 -0.063796 0
11.530000 -0.062987 0
11.535000 -0.062175 0
11.540000 -0.061355 0
11.545000 -0.060519 0
11.550000 -0.059656 0
11.555000 -0.058748 0
11.560000 -0.057768 0
11.565000 -0.056678 0
11.570000 -0.055425 0
11.575000 -0.053935 0
11.580000 -0.052109 0
11.585000 -0.049821 0
11.590000 -0.046909 0
11.595000 -0.043179 0
11.600000 -0.038403 0
11.605000 -0.032322 0
11.610000 -0.024661 0
11.615000 -0.015144 0
11.620000 -0.003515 0
11.625000 0.010432 0
11.630000 0.026819 0
11.635000 0.045653 0
11.640000 0.066793 0
11.645000 0.089923 0
11.650000 0.114543 0
11.655000 0.139967 0
11.660000 0.165346 0
11.665000 0.189708 0
11.670000 0.212014 0
11.675000 0.231232 0
11.680000 0.246412 0
11.685000 0.256765 0
11.690000 0.261731 1
11.695000 0.261028 0
11.700000 0.254677 0
11.705000 0.243004 0
11.710000 0.226608 0
11.715000 0.206313 0
11.720000 0.183100 0
11.725000 0.158023 0
11.730000 0.132137 0
11.735000 0.106419 0
11.740000 0.081707 0
11.745000 0.058639 0
11.750000 0.037576 0
11.755000 0.018475 0
11.760000 0.000681 0
11.765000 -0.017320 0
11.770000 -0.038005 0
11.775000 -0.064391 0
11.780000 -0.098719 0
11.785000 -0.140337 0
11.790000 -0.183608 0
11.795000 -0.217204 0
11.800000 -0.225496 2
11.805000 -0.191475 0
11.810000 -0.099958 0
11.815000 0.058949 0
11.820000 0.284596 0
11.825000 0.558401 0
11.830000 0.838663 0
11.835000 1.065349 0
11.840000 1.178605 3
11.845000 1.141695 0
11.850000 0.961673 0
11.855000 0.686488 0
11.860000 0.381287 0
11.865000 0.103277 0
11.870000 -0.111711 0
11.875000 -0.249379 0
11.880000 -0.311372 4
11.885000 -0.310400 0
11.890000 -0.266555 0
11.895000 -0.202589 0
11.900000 -0.138054 0
11.905000 -0.084912 0
11.910000 -0.046802 0
11.915000 -0.021545 0
11.920000 -0.004669 0
11.925000 0.008011 0
11.930000 0.019365 0
11.935000 0.030994 0
11.940000 0.043663 0
11.945000 0.057702 0
11.950000 0.073240 0
11.955000 0.090318 0
11.960000 0.108919 0
11.965000 0.128982 0
11.970000 0.150404 0
11.975000 0.173029 0
11.980000 0.196656 0
11.985000 0.221034 0
11.990000 0.245866 0
11.995000 0.270813 0
12.000000 0.295501 0
12.005000 0.319526 0
12.010000 0.342469 0
12.015000 0.363904 0
12.020000 0.383411 0
12.025000 0.400592 0
12.030000 0.415080 0
12.035000 0.426555 0
12.040000 0.434753 0
12.045000 0.439476 0
12.050000 0.440601 5
12.055000 0.438084 0
12.060000 0.431960 0
12.065000 0.422345 0
12.070000 0.409429 0
12.075000 0.393473 0
12.080000 0.374797 0
12.085000 0.353768 0
12.090000 0.330791 0
12.095000 0.306295 0
12.100000 0.280717 0
12.105000 0.254492 0
12.110000 0.228040 0
12.115000 0.201752 0
12.120000 0.175988 0
12.125000 0.151063 0
12.130000 0.127245 0
12.135000 0.104753 0
12.140000 0.083755 0
12.145000 0.064367 0
12.150000 0.046662 0
12.155000 0.030666 0
12.160000 0.016369 0
12.165000 0.003726 0
12.170000 -0.007332 0
12.175000 -0.016898 0
12.180000 -0.025079 0
12.185000 -0.031990 0
12.190000 -0.037754 0
12.195000 -0.042493 0
12.200000 -0.046329 0
12.205000 -0.049377 0
12.210000 -0.051744 0
12.215000 -0.053531 0
12.220000 -0.054828 0
12.225000 -0.055714 0
12.230000 -0.056262 0
12.235000 -0.056532 0
12.240000 -0.056577 0
12.245000 -0.056441 0
12.250000 -0.056162 0
12.255000 -0.055771 0
12.260000 -0.055292 0
12.265000 -0.054575 0
12.270000 -0.053822 0
12.275000 -0.053072 0
12.280000 -0.052326 0
12.285000 -0.051584 0
12.290000 -0.050845 0
12.295000 -0.050110 0
12.300000 -0.049379 0
12.305000 -0.048651 0
12.310000 -0.047927 0
12.315000 -0.047207 0
12.320000 -0.046490 0
12.325000 -0.045777 0
12.330000 -0.045067 0
12.335000 -0.044361 0
12.340000 -0.043659 0
12.345000 -0.042959 0
12.350000 -0.042263 0
12.355000 -0.041571 0
12.360000 -0.040881 0
12.365000 -0.040193 0
12.370000 -0.039506 0
12.375000 -0.038819 0
12.380000 -0.038129 0
12.385000 -0.037430 0
12.390000 -0.036716 0
12.395000 -0.035975 0
12.400000 -0.035189 0
12.405000 -0.034330 0
12.410000 -0.033360 0
12.415000 -0.032223 0
12.420000 -0.030842 0
12.425000 -0.029114 0
12.430000 -0.026904 0
12.435000 -0.024042 0
12.440000 -0.020323 0
12.445000 -0.015503 0
12.450000 -0.009310 0
12.455000 -0.001457 0
12.460000 0.008343 0
12.465000 0.020351 0
12.470000 0.034765 0
12.475000 0.051687 0
12.480000 0.071089 0
12.485000 0.092773 0
12.490000 0.116353 0
12.495000 0.141244 0
12.500000 0.166669 0
12.505000 0.191689 0
12.510000 0.215255 0
12.515000 0.236277 0
12.520000 0.253706 0
12.525000 0.266615 0
12.530000 0.274287 0
12.535000 0.276275 1
12.540000 0.272446 0
12.545000 0.262994 0
12.550000 0.248422 0
12.555000 0.229499 0
12.560000 0.207191 0
12.565000 0.182579 0
12.570000 0.156772 0
12.575000 0.130822 0
12.580000 0.105658 0
12.585000 0.082011 0
12.590000 0.060347 0
12.595000 0.040740 0
12.600000 0.022675 0
12.605000 0.004773 0
12.610000 -0.015374 0
12.615000 -0.040881 0
12.620000 -0.074313 0
12.625000 -0.115465 0
12.630000 -0.159030 0
12.635000 -0.193627 0
12.640000 -0.203144 2
12.645000 -0.169842 0
12.650000 -0.077849 0
12.655000 0.083067 0
12.660000 0.311744 0
12.665000 0.587598 0
12.670000 0.865413 0
12.675000 1.081654 0
12.680000 1.175748 3
12.685000 1.117737 0
12.690000 0.921982 0
12.695000 0.639537 0
12.700000 0.334932 0
12.705000 0.062552 0
12.710000 -0.144766 0
12.715000 -0.274822 0
12.720000 -0.330471 4
12.725000 -0.325053 0
12.730000 -0.278811 0
12.735000 -0.214160 0
12.740000 -0.149985 0
12.745000 -0.097561 0
12.750000 -0.060074 0
12.755000 -0.035182 0
12.760000 -0.018443 0
12.765000 -0.005761 0
12.770000 0.005655 0
12.775000 0.017363 0
12.780000 0.030109 0
12.785000 0.044214 0
12.790000 0.059809 0
12.795000 0.076930 0
12.800000 0.095565 0
12.805000 0.115653 0
12.810000 0.137093 0
12.815000 0.159734 0
12.820000 0.183379 0
12.825000 0.207782 0
12.830000 0.232655 0
12.835000 0.257663 0
12.840000 0.282440 0
12.845000 0.306591 0
12.850000 0.329703 0
12.855000 0.351354 0
12.860000 0.371132 0
12.865000 0.388639 0
12.870000 0.403510 0
12.875000 0.415424 0
12.880000 0.424111 0
12.885000 0.429370 0
12.890000 0.431068 5
12.895000 0.429149 0
12.900000 0.423638 0
12.905000 0.414635 0
12.910000 0.402318 0
12.915000 0.386932 0
12.920000 0.368782 0
12.925000 0.348224 0
12.930000 0.325651 0
12.935000 0.301482 0
12.940000 0.276148 0
12.945000 0.250080 0
12.950000 0.223695 0
12.955000 0.197388 0
12.960000 0.171521 0
12.965000 0.146415 0
12.970000 0.122347 0
12.975000 0.099545 0
12.980000 0.078188 0
12.985000 0.058404 0
12.990000 0.040277 0
12.995000 0.023844 0
13.000000 0.009104 0
13.005000 -0.003975 0
13.010000 -0.015458 0
13.015000 -0.025427 0
13.020000 -0.033985 0
13.025000 -0.041245 0
13.030000 -0.047324 0
13.035000 -0.052345 0
13.040000 -0.056427 0
13.045000 -0.059686 0
13.050000 -0.062233 0
13.055000 -0.064168 0
13.060000 -0.065583 0
13.065000 -0.066563 0
13.070000 -0.067179 0
13.075000 -0.067498 0
13.080000 -0.067573 0
13.085000 -0.067452 0
13.090000 -0.067175 0
13.095000 -0.066774 0
13.100000 -0.066276 0
13.105000 -0.065669 0
13.110000 -0.064860 0
13.115000 -0.064055 0
13.120000 -0.063254 0
13.125000 -0.062457 0
13.130000 -0.061665 0
13.135000 -0.060876 0
13.140000 -0.060091 0
13.145000 -0.059310 0
13.150000 -0.058533 0
13.155000 -0.057759 0
13.160000 -0.056990 0
13.165000 -0.056224 0
13.170000 -0.055463 0
13.175000 -0.054705 0
13.180000 -0.053951 0
13.185000 -0.053200 0
13.190000 -0.052453 0
13.195000 -0.051710 0
13.200000 -0.050970 0
13.205000 -0.050232 0
13.210000 -0.049497 0
13.215000 -0.048763 0
13.220000 -0.048027 0
13.225000 -0.047287 0
13.230000 -0.046537 0
13.235000 -0.045767 0
13.240000 -0.044965 0
13.245000 -0.044110 0
13.250000 -0.043170 0
13.255000 -0.042103 0
13.260000 -0.040845 0
13.265000 -0.039314 0
13.270000 -0.037396 0
13.275000 -0.034949 0
13.280000 -0.031793 0
13.285000 -0.027713 0
13.290000 -0.022459 0
13.295000 -0.015757 0
13.300000 -0.007320 0
13.305000 0.003129 0
13.310000 0.015833 0
13.315000 0.030964 0
13.320000 0.048594 0
13.325000 0.068650 0
13.330000 0.090894 0
13.335000 0.114894 0
13.340000 0.140026 0
13.345000 0.165481 0
13.350000 0.190304 0
13.355000 0.213445 0
13.360000 0.233828 0
13.365000 0.250439 0
13.370000 0.262399 0
13.375000 0.269049 0
13.380000 0.270004 1
13.385000 0.265192 0
13.390000 0.254860 0
13.395000 0.239554 0
13.400000 0.220068 0
13.405000 0.197379 0
13.410000 0.172563 0
13.415000 0.146709 0
13.420000 0.120845 0
13.425000 0.095863 0
13.430000 0.072460 0
13.435000 0.051057 0
13.440000 0.031677 0
13.445000 0.013738 0
13.450000 -0.004210 0
13.455000 -0.024628 0
13.460000 -0.050606 0
13.465000 -0.084561 0
13.470000 -0.126026 0
13.475000 -0.169420 0
13.480000 -0.203218 0
13.485000 -0.211375 2
13.490000 -0.176399 0
13.495000 -0.082744 0
13.500000 0.079489 0
13.505000 0.308892 0
13.510000 0.584916 0
13.515000 0.862849 0
13.520000 1.080013 0
13.525000 1.176463 3
13.530000 1.121624 0
13.535000 0.928686 0
13.540000 0.647743 0
13.545000 0.342904 0
13.550000 0.068757 0
13.555000 -0.141311 0
13.560000 -0.274518 0
13.565000 -0.333199 4
13.570000 -0.330224 0
13.575000 -0.285478 0
13.580000 -0.221260 0
13.585000 -0.156652 0
13.590000 -0.103339 0
13.595000 -0.064915 0
13.600000 -0.039298 0
13.605000 -0.022120 0
13.610000 -0.009240 0
13.615000 0.002218 0
13.620000 0.013879 0
13.625000 0.026534 0
13.630000 0.040527 0
13.635000 0.055996 0
13.640000 0.072987 0
13.645000 0.091488 0
13.650000 0.111445 0
13.655000 0.132762 0
13.660000 0.155293 0
13.665000 0.178848 0
13.670000 0.203189 0
13.675000 0.228032 0
13.680000 0.253051 0
13.685000 0.277885 0
13.690000 0.302145 0
13.695000 0.325422 0
13.700000 0.347298 0
13.705000 0.367361 0
13.710000 0.385214 0
13.715000 0.400488 0
13.720000 0.412857 0
13.725000 0.422047 0
13.730000 0.427844 0
13.735000 0.430108 5
13.740000 0.428771 0
13.745000 0.423844 0
13.750000 0.415415 0
13.755000 0.403648 0
13.760000 0.388777 0
13.765000 0.371093 0
13.770000 0.350944 0
13.775000 0.328714 0
13.780000 0.304816 0
13.785000 0.279675 0
13.790000 0.253723 0
13.795000 0.227375 0
13.800000 0.201030 0
13.805000 0.175055 0
13.810000 0.149777 0
13.815000 0.125480 0
13.820000 0.102403 0
13.825000 0.080731 0
13.830000 0.060605 0
13.835000 0.042115 0
13.840000 0.025309 0
13.845000 0.010195 0
13.850000 -0.003254 0
13.855000 -0.015094 0
13.860000 -0.025405 0
13.865000 -0.034283 0
13.870000 -0.041838 0
13.875000 -0.048188 0
13.880000 -0.053452 0
13.885000 -0.057751 0
13.890000 -0.061201 0
13.895000 -0.063912 0
13.900000 -0.065988 0
13.905000 -0.067523 0
13.910000 -0.068602 0
13.915000 -0.069300 0
13.920000 -0.069684 0
13.925000 -0.069812 0
13.930000 -0.069731 0
13.935000 -0.069484 0
13.940000 -0.069105 0
13.945000 -0.068622 0
13.950000 -0.068021 0
13.955000 -0.067200 0
13.960000 -0.066384 0
13.965000 -0.065571 0
13.970000 -0.064763 0
13.975000 -0.063959 0
13.980000 -0.063158 0
13.985000 -0.062362 0
13.990000 -0.061570 0
13.995000 -0.060781 0
14.000000 -0.059997 0
14.005000 -0.059216 0
14.010000 -0.058440 0
14.015000 -0.057667 0
14.020000 -0.056898 0
14.025000 -0.056133 0
14.030000 -0.055372 0
14.035000 -0.054614 0
14.040000 -0.053860 0
14.045000 -0.053109 0
14.050000 -0.052361 0
14.055000 -0.051616 0
14.060000 -0.050873 0
14.065000 -0.050129 0
14.070000 -0.049382 0
14.075000 -0.048627 0
14.080000 -0.047857 0
14.085000 -0.047061 0
14.090000 -0.046221 0
14.095000 -0.045310 0
14.100000 -0.044290 0
14.105000 -0.043109 0
14.110000 -0.041691 0
14.115000 -0.039938 0
14.120000 -0.037719 0
14.125000 -0.034872 0
14.130000 -0.031197 0
14.135000 -0.026460 0
14.140000 -0.020397 0
14.145000 -0.012728 0
14.150000 -0.003168 0
14.155000 0.008540 0
14.160000 0.022604 0
14.165000 0.039142 0
14.170000 0.058149 0
14.175000 0.079464 0
14.180000 0.102747 0
14.185000 0.127461 0
14.190000 0.152885 0
14.195000 0.178130 0
14.200000 0.202187 0
14.205000 0.223992 0
14.210000 0.242497 0
14.215000 0.256755 0
14.220000 0.266002 0
14.225000 0.269717 1
14.230000 0.267680 0
14.235000 0.259982 0
14.240000 0.247027 0
14.245000 0.229490 0
14.250000 0.208262 0
14.255000 0.184373 0
14.260000 0.158910 0
14.265000 0.132934 0
14.270000 0.107408 0
14.275000 0.083129 0
14.280000 0.060669 0
14.285000 0.040274 0
14.290000 0.021709 0
14.295000 0.004016 0
14.300000 -0.014725 0
14.305000 -0.037351 0
14.310000 -0.066844 0
14.315000 -0.104581 0
14.320000 -0.147980 0
14.325000 -0.188763 0
14.330000 -0.213133 2
14.335000 -0.204077 0
14.340000 -0.144671 0
14.345000 -0.021442 0
14.350000 0.171355 0
14.355000 0.424965 0
14.360000 0.708675 0
14.365000 0.968709 0
14.370000 1.140760 0
14.375000 1.174584 3
14.380000 1.055783 0
14.385000 0.815663 0
14.390000 0.515767 0
14.395000 0.220121 0
14.400000 -0.024868 0
14.405000 -0.195900 0
14.410000 -0.288515 0
14.415000 -0.311368 4
14.420000 -0.282202 0
14.425000 -0.223644 0
14.430000 -0.157460 0
14.435000 -0.099089 0
14.440000 -0.055310 0
14.445000 -0.025742 0
14.450000 -0.006344 0
14.455000 0.007428 0
14.460000 0.018994 0
14.465000 0.030391 0
14.470000 0.042634 0
14.475000 0.056175 0
14.480000 0.071195 0
14.485000 0.087758 0
14.490000 0.105865 0
14.495000 0.125469 0
14.500000 0.146477 0
14.505000 0.168749 0
14.510000 0.192094 0
14.515000 0.216275 0
14.520000 0.241002 0
14.525000 0.265943 0
14.530000 0.290729 0
14.535000 0.314959 0
14.540000 0.338210 0
14.545000 0.360052 0
14.550000 0.380058 0
14.555000 0.397816 0
14.560000 0.412948 0
14.565000 0.425116 0
14.570000 0.434040 0
14.575000 0.439504 0
14.580000 0.441368 5
14.585000 0.439569 0
14.590000 0.434127 0
14.595000 0.425144 0
14.600000 0.412800 0
14.605000 0.397344 0
14.610000 0.379093 0
14.615000 0.358409 0
14.620000 0.335700 0
14.625000 0.311394 0
14.630000 0.285936 0
14.635000 0.259766 0
14.640000 0.233311 0
14.645000 0.206973 0
14.650000 0.181120 0
14.655000 0.156077 0
14.660000 0.132120 0
14.665000 0.109477 0
14.670000 0.088322 0
14.675000 0.068780 0
14.680000 0.050925 0
14.685000 0.034789 0
14.690000 0.020364 0
14.695000 0.007607 0
14.700000 -0.003551 0
14.705000 -0.013203 0
14.710000 -0.021455 0
14.715000 -0.028426 0
14.720000 -0.034238 0
14.725000 -0.039017 0
14.730000 -0.042884 0
14.735000 -0.045956 0
14.740000 -0.048343 0
14.745000 -0.050146 0
14.750000 -0.051456 0
14.755000 -0.052354 0
14.760000 -0.052912 0
14.765000 -0.053192 0
14.770000 -0.053247 0
14.775000 -0.053121 0
14.780000 -0.052853 0
14.785000 -0.052473 0
14.790000 -0.052006 0
14.795000 -0.051305 0
14.800000 -0.050568 0
14.805000 -0.049834 0
14.810000 -0.049104 0
14.815000 -0.048378 0
14.820000 -0.047656 0
14.825000 -0.046937 0
14.830000 -0.046221 0
14.835000 -0.045509 0
14.840000 -0.044801 0
14.845000 -0.044096 0
14.850000 -0.043395 0
14.855000 -0.042697 0
14.860000 -0.042003 0
14.865000 -0.041312 0
14.870000 -0.040625 0
14.875000 -0.039941 0
14.880000 -0.039260 0
14.885000 -0.038582 0
14.890000 -0.037906 0
14.895000 -0.037233 0
14.900000 -0.036561 0
14.905000 -0.035887 0
14.910000 -0.035210 0
14.915000 -0.034522 0
14.920000 -0.033817 0
14.925000 -0.033081 0
14.930000 -0.032295 0
14.935000 -0.031427 0
14.940000 -0.030435 0
14.945000 -0.029257 0
14.950000 -0.027811 0
14.955000 -0.025982 0
14.960000 -0.023626 0
14.965000 -0.020561 0
14.970000 -0.016568 0
14.975000 -0.011391 0
14.980000 -0.004749 0
14.985000 0.003653 0
14.990000 0.014099 0
14.995000 0.026836 0
15.000000 0.042041 0
15.005000 0.059777 0
15.010000 0.079962 0
15.015000 0.102335 0
15.020000 0.126438 0
15.025000 0.151608 0
15.030000 0.176996 0
15.035000 0.201604 0
15.040000 0.224347 0
15.045000 0.244125 0
15.050000 0.259913 0
15.055000 0.270846 0
15.060000 0.276298 1
15.065000 0.275937 0
15.070000 0.269762 0
15.075000 0.258102 0
15.080000 0.241586 0
15.085000 0.221084 0
15.090000 0.197635 0
15.095000 0.172357 0
15.100000 0.146356 0
15.105000 0.120651 0
15.110000 0.096100 0
15.115000 0.073330 0
15.120000 0.052648 0
15.125000 0.033879 0
15.130000 0.016117 0
15.135000 -0.002537 0
15.140000 -0.024962 0
15.145000 -0.054263 0
15.150000 -0.091939 0
15.155000 -0.135393 0
15.160000 -0.176064 0
15.165000 -0.199615 2
15.170000 -0.188423 0
15.175000 -0.125107 0
15.180000 0.003867 0
15.185000 0.203451 0
15.190000 0.462595 0
15.195000 0.746599 0
15.200000 0.997393 0
15.205000 1.149024 0
15.210000 1.154747 3
15.215000 1.012745 0
15.220000 0.760952 0
15.225000 0.458808 0
15.230000 0.165281 0
15.235000 -0.077608 0
15.240000 -0.248746 0
15.245000 -0.343958 0
15.250000 -0.370979 4
15.255000 -0.345921 0
15.260000 -0.289718 0
15.265000 -0.223198 0
15.270000 -0.162087 0
15.275000 -0.114368 0
15.280000 -0.080990 0
15.285000 -0.058748 0
15.290000 -0.043292 0
15.295000 -0.030984 0
15.300000 -0.019465 0
15.305000 -0.007455 0
15.310000 0.005653 0
15.315000 0.020122 0
15.320000 0.036057 0
15.325000 0.053486 0
15.330000 0.072389 0
15.335000 0.092707 0
15.340000 0.114336 0
15.345000 0.137132 0
15.350000 0.160903 0
15.355000 0.185413 0
15.360000 0.210385 0
15.365000 0.235500 0
15.370000 0.260409 0
15.375000 0.284734 0
15.380000 0.308080 0
15.385000 0.330044 0
15.390000 0.350228 0
15.395000 0.368249 0
15.400000 0.383751 0
15.405000 0.396415 0
15.410000 0.405974 0
15.415000 0.412217 0
15.420000 0.415000 5
15.425000 0.414249 0
15.430000 0.409964 0
15.435000 0.402220 0
15.440000 0.391162 0
15.445000 0.377003 0
15.450000 0.360014 0
15.455000 0.340519 0
15.460000 0.318880 0
15.465000 0.295492 0
15.470000 0.270762 0
15.475000 0.245106 0
15.480000 0.218932 0
15.485000 0.192630 0
15.490000 0.166567 0
15.495000 0.141074 0
15.500000 0.116441 0
15.505000 0.092916 0
15.510000 0.070700 0
15.515000 0.049949 0
15.520000 0.030770 0
15.525000 0.013228 0
15.530000 -0.002649 0
15.535000 -0.016872 0
15.540000 -0.029481 0
15.545000 -0.040542 0
15.550000 -0.050137 0
15.555000 -0.058369 0
15.560000 -0.065344 0
15.565000 -0.071180 0
15.570000 -0.075991 0
15.575000 -0.079893 0
15.580000 -0.082997 0
15.585000 -0.085407 0
15.590000 -0.087220 0
15.595000 -0.088526 0
15.600000 -0.089403 0
15.605000 -0.089923 0
15.610000 -0.090148 0
15.615000 -0.090131 0
15.620000 -0.089918 0
15.625000 -0.089548 0
15.630000 -0.089053 0
15.635000 -0.088459 0
15.640000 -0.087753 0
15.645000 -0.086834 0
15.650000 -0.085920 0
15.655000 -0.085010 0
15.660000 -0.084105 0
15.665000 -0.083204 0
15.670000 -0.082308 0
15.675000 -0.081416 0
15.680000 -0.080529 0
15.685000 -0.079646 0
15.690000 -0.078767 0
15.695000 -0.077893 0
15.700000 -0.077023 0
15.705000 -0.076158 0
15.710000 -0.075297 0
15.715000 -0.074440 0
15.720000 -0.073587 0
15.725000 -0.072739 0
15.730000 -0.071894 0
15.735000 -0.071054 0
15.740000 -0.070217 0
15.745000 -0.069383 0
15.750000 -0.068551 0
15.755000 -0.067721 0
15.760000 -0.066889 0
15.765000 -0.066051 0
15.770000 -0.065202 0
15.775000 -0.064333 0
15.780000 -0.063428 0
15.785000 -0.062466 0
15.790000 -0.061415 0
15.795000 -0.060231 0
15.800000 -0.058852 0
15.805000 -0.057193 0
15.810000 -0.055145 0
15.815000 -0.052565 0
15.820000 -0.049281 0
15.825000 -0.045083 0
15.830000 -0.039734 0
15.835000 -0.032968 0
15.840000 -0.024512 0
15.845000 -0.014098 0
15.850000 -0.001493 0
15.855000 0.013478 0
15.860000 0.030891 0
15.865000 0.050696 0
15.870000 0.072687 0
15.875000 0.096482 0
15.880000 0.121514 0
15.885000 0.147041 0
15.890000 0.172175 0
15.895000 0.195925 0
15.900000 0.217260 0
15.905000 0.235181 0
15.910000 0.248799 0
15.915000 0.257405 0
15.920000 0.260535 1
15.925000 0.258007 0
15.930000 0.249939 0
15.935000 0.236743 0
15.940000 0.219086 0
15.945000 0.197834 0
15.950000 0.173985 0
15.955000 0.148587 0
15.960000 0.122666 0
15.965000 0.097154 0
15.970000 0.072832 0
15.975000 0.050266 0
15.980000 0.029726 0
15.985000 0.011043 0
15.990000 -0.006610 0
15.995000 -0.024954 0
16.000000 -0.046616 0
16.005000 -0.074552 0
16.010000 -0.110560 0
16.015000 -0.153128 0
16.020000 -0.195565 0
16.025000 -0.225702 0
16.030000 -0.227621 2
16.035000 -0.184634 0
16.040000 -0.082388 0
16.045000 0.087585 0
16.050000 0.322347 0
16.055000 0.600270 0
16.060000 0.876949 0
16.065000 1.091780 0
16.070000 1.187574 3
16.075000 1.131115 0
16.080000 0.934732 0
16.085000 0.651146 0
16.090000 0.346840 0
16.095000 0.077183 0
16.100000 -0.125153 0
16.105000 -0.248809 0
16.110000 -0.297775 4
16.115000 -0.286684 0
16.120000 -0.236946 0
16.125000 -0.171517 0
16.130000 -0.108895 0
16.135000 -0.059279 0
16.140000 -0.024693 0
16.145000 -0.002047 0
16.150000 0.013314 0
16.155000 0.025346 0
16.160000 0.036591 0
16.165000 0.048395 0
16.170000 0.061377 0
16.175000 0.075796 0
16.180000 0.091747 0
16.185000 0.109253 0
16.190000 0.128281 0
16.195000 0.148756 0
16.200000 0.170554 0
16.205000 0.193502 0
16.210000 0.217376 0
16.215000 0.241903 0
16.220000 0.266764 0
16.225000 0.291600 0
16.230000 0.316017 0
16.235000 0.339597 0
16.240000 0.361908 0
16.245000 0.382518 0
16.250000 0.401007 0
16.255000 0.416983 0
16.260000 0.430091 0
16.265000 0.440030 0
16.270000 0.446561 0
16.275000 0.449518 5
16.280000 0.448814 0
16.285000 0.444444 0
16.290000 0.436483 0
16.295000 0.425090 0
16.300000 0.410496 0
16.305000 0.392997 0
16.310000 0.372948 0
16.315000 0.350745 0
16.320000 0.326815 0
16.325000 0.301600 0
16.330000 0.275546 0
16.335000 0.249088 0
16.340000 0.222637 0
16.345000 0.196574 0
16.350000 0.171237 0
16.355000 0.146919 0
16.360000 0.123862 0
16.365000 0.102255 0
16.370000 0.082236 0
16.375000 0.063893 0
16.380000 0.047271 0
16.385000 0.032368 0
16.390000 0.019152 0
16.395000 0.007559 0
16.400000 -0.002499 0
16.405000 -0.011126 0
16.410000 -0.018439 0
16.415000 -0.024561 0
16.420000 -0.029616 0
16.425000 -0.033728 0
16.430000 -0.037017 0
16.435000 -0.039593 0
16.440000 -0.041562 0
16.445000 -0.043016 0
16.450000 -0.044040 0
16.455000 -0.044707 0
16.460000 -0.045083 0
16.465000 -0.045223 0
16.470000 -0.045172 0
16.475000 -0.044971 0
16.480000 -0.044651 0
16.485000 -0.044240 0
16.490000 -0.043580 0
16.495000 -0.042881 0
16.500000 -0.042186 0
16.505000 -0.041494 0
16.510000 -0.040806 0
16.515000 -0.040121 0
16.520000 -0.039440 0
16.525000 -0.038762 0
16.530000 -0.038087 0
16.535000 -0.037416 0
16.540000 -0.036748 0
16.545000 -0.036083 0
16.550000 -0.035422 0
16.555000 -0.034764 0
16.560000 -0.034109 0
16.565000 -0.033458 0
16.570000 -0.032809 0
16.575000 -0.032164 0
16.580000 -0.031522 0
16.585000 -0.030882 0
16.590000 -0.030244 0
16.595000 -0.029606 0
16.600000 -0.028969 0
16.605000 -0.028327 0
16.610000 -0.027676 0
16.615000 -0.027009 0
16.620000 -0.026312 0
16.625000 -0.025568 0
16.630000 -0.024747 0
16.635000 -0.023807 0
16.640000 -0.022691 0
16.645000 -0.021315 0
16.650000 -0.019572 0
16.655000 -0.017320 0
16.660000 -0.014379 0
16.665000 -0.010533 0
16.670000 -0.005530 0
16.675000 0.000911 0
16.680000 0.009085 0
16.685000 0.019281 0
16.690000 0.031753 0
16.695000 0.046686 0
16.700000 0.064157 0
16.705000 0.084098 0
16.710000 0.106265 0
16.715000 0.130214 0
16.720000 0.155296 0
16.725000 0.180672 0
16.730000 0.205351 0
16.735000 0.228244 0
16.740000 0.248245 0
16.745000 0.264315 0
16.750000 0.275570 0
16.755000 0.281362 1
16.760000 0.281339 0
16.765000 0.275478 0
16.770000 0.264090 0
16.775000 0.247790 0
16.780000 0.227444 0
16.785000 0.204088 0
16.790000 0.178844 0
16.795000 0.152826 0
16.800000 0.127064 0
16.805000 0.102427 0
16.810000 0.079558 0
16.815000 0.058778 0
16.820000 0.039931 0
16.825000 0.022134 0
16.830000 0.003507 0
16.835000 -0.018822 0
16.840000 -0.047984 0
16.845000 -0.085543 0
16.850000 -0.128984 0
16.855000 -0.169797 0
16.860000 -0.193639 2
16.865000 -0.182811 0
16.870000 -0.119830 0
16.875000 0.008935 0
16.880000 0.208492 0
16.885000 0.467726 0
16.890000 0.751693 0
16.895000 1.001937 0
16.900000 1.152220 0
16.905000 1.155914 3
16.910000 1.011708 0
16.915000 0.758296 0
16.920000 0.455723 0
16.925000 0.163084 0
16.930000 -0.077875 0
16.935000 -0.246485 0
16.940000 -0.339014 0
16.945000 -0.363614 4
16.950000 -0.336777 0
16.955000 -0.279681 0
16.960000 -0.213155 0
16.965000 -0.152671 0
16.970000 -0.105836 0
16.975000 -0.073282 0
16.980000 -0.051635 0
16.985000 -0.036521 0
16.990000 -0.024361 0
16.995000 -0.012867 0
17.000000 -0.000816 0
17.005000 0.012369 0
17.010000 0.026932 0
17.015000 0.042971 0
17.020000 0.060509 0
17.025000 0.079524 0
17.030000 0.099950 0
17.035000 0.121680 0
17.040000 0.144563 0
17.045000 0.168402 0
17.050000 0.192954 0
17.055000 0.217936 0
17.060000 0.243023 0
17.065000 0.267859 0
17.070000 0.292061 0
17.075000 0.315229 0
17.080000 0.336960 0
17.085000 0.356852 0
17.090000 0.374522 0
17.095000 0.389618 0
17.100000 0.401824 0
17.105000 0.410880 0
17.110000 0.416583 0
17.115000 0.418798 5
17.120000 0.417462 0
17.125000 0.412588 0
17.130000 0.404261 0
17.135000 0.392641 0
17.140000 0.377951 0
17.145000 0.360475 0
17.150000 0.340547 0
17.155000 0.318538 0
17.160000 0.294848 0
17.165000 0.269890 0
17.170000 0.244082 0
17.175000 0.217832 0
17.180000 0.191529 0
17.185000 0.165536 0
17.190000 0.140177 0
17.195000 0.115737 0
17.200000 0.092455 0
17.205000 0.070524 0
17.210000 0.050090 0
17.215000 0.031252 0
17.220000 0.014066 0
17.225000 -0.001450 0
17.230000 -0.015313 0
17.235000 -0.027570 0
17.240000 -0.038291 0
17.245000 -0.047566 0
17.250000 -0.055499 0
17.255000 -0.062200 0
17.260000 -0.067787 0
17.265000 -0.072375 0
17.270000 -0.076081 0
17.275000 -0.079014 0
17.280000 -0.081278 0
17.285000 -0.082968 0
17.290000 -0.084171 0
17.295000 -0.084966 0
17.300000 -0.085419 0
17.305000 -0.085593 0
17.310000 -0.085537 0
17.315000 -0.085297 0
17.320000 -0.084909 0
17.325000 -0.084405 0
17.330000 -0.083809 0
17.335000 -0.083108 0
17.340000 -0.082213 0
17.345000 -0.081321 0
17.350000 -0.080434 0
17.355000 -0.079552 0
17.360000 -0.078674 0
17.365000 -0.077800 0
17.370000 -0.076931 0
17.375000 -0.076066 0
17.380000 -0.075205 0
17.385000 -0.074349 0
17.390000 -0.073497 0
17.395000 -0.072649 0
17.400000 -0.071805 0
17.405000 -0.070966 0
17.410000 -0.070130 0
17.415000 -0.069299 0
17.420000 -0.068472 0
17.425000 -0.067649 0
17.430000 -0.066829 0
17.435000 -0.066013 0
17.440000 -0.065200 0
17.445000 -0.064388 0
17.450000 -0.063576 0
17.455000 -0.062762 0
17.460000 -0.061940 0
17.465000 -0.061103 0
17.470000 -0.060240 0
17.475000 -0.059334 0
17.480000 -0.058359 0
17.485000 -0.057279 0
17.490000 -0.056041 0
17.495000 -0.054575 0
17.500000 -0.052786 0
17.505000 -0.050550 0
17.510000 -0.047712 0
17.515000 -0.044080 0
17.520000 -0.039433 0
17.525000 -0.033516 0
17.530000 -0.026059 0
17.535000 -0.016784 0
17.540000 -0.005434 0
17.545000 0.008202 0
17.550000 0.024261 0
17.555000 0.042765 0
17.560000 0.063597 0
17.565000 0.086467 0
17.570000 0.110906 0
17.575000 0.136259 0
17.580000 0.161705 0
17.585000 0.186294 0
17.590000 0.208999 0
17.595000 0.228790 0
17.600000 0.244704 0
17.605000 0.255926 0
17.610000 0.261856 0
17.615000 0.262164 1
17.620000 0.256817 0
17.625000 0.246084 0
17.630000 0.230514 0
17.635000 0.210890 0
17.640000 0.188161 0
17.645000 0.163366 0
17.650000 0.137559 0
17.655000 0.111733 0
17.660000 0.086751 0
17.665000 0.063295 0
17.670000 0.041790 0
17.675000 0.022292 0
17.680000 0.004308 0
17.685000 -0.013462 0
17.690000 -0.033272 0
17.695000 -0.058077 0
17.700000 -0.090450 0
17.705000 -0.130627 0
17.710000 -0.174328 0
17.715000 -0.211616 0
17.720000 -0.227780 2
17.725000 -0.205964 0
17.730000 -0.130331 0
17.735000 0.010681 0
17.740000 0.219790 0
17.745000 0.483919 0
17.750000 0.767815 0
17.755000 1.015457 0
17.760000 1.164888 0
17.765000 1.172554 3
17.770000 1.029523 0
17.775000 0.773344 0
17.780000 0.469578 0
17.785000 0.181436 0
17.790000 -0.048467 0
17.795000 -0.201050 0
17.800000 -0.275333 0
17.805000 -0.282824 4
17.810000 -0.243477 0
17.815000 -0.180860 0
17.820000 -0.115900 0
17.825000 -0.061840 0
17.830000 -0.023049 0
17.835000 0.002480 0
17.840000 0.019345 0
17.845000 0.031905 0
17.850000 0.043137 0
17.855000 0.054681 0
17.860000 0.067310 0
17.865000 0.081350 0
17.870000 0.096926 0
17.875000 0.114073 0
17.880000 0.132769 0
17.885000 0.152945 0
17.890000 0.174484 0
17.895000 0.197219 0
17.900000 0.220930 0
17.905000 0.245346 0
17.910000 0.270149 0
17.915000 0.294977 0
17.920000 0.319431 0
17.925000 0.343088 0
17.930000 0.365508 0
17.935000 0.386250 0
17.940000 0.404884 0
17.945000 0.421006 0
17.950000 0.434253 0
17.955000 0.444313 0
17.960000 0.450941 0
17.965000 0.453963 5
17.970000 0.453288 0
17.975000 0.448910 0
17.980000 0.440906 0
17.985000 0.429437 0
17.990000 0.414740 0
17.995000 0.397120 0
18.000000 0.376938 0
18.005000 0.354601 0
18.010000 0.330546 0
18.015000 0.305224 0
18.020000 0.279090 0
18.025000 0.252585 0
18.030000 0.226127 0
18.035000 0.200099 0
18.040000 0.174842 0
18.045000 0.150648 0
18.050000 0.127756 0
18.055000 0.106352 0
18.060000 0.086569 0
18.065000 0.068490 0
18.070000 0.052149 0
18.075000 0.037541 0
18.080000 0.024625 0
18.085000 0.013331 0
18.090000 0.003565 0
18.095000 -0.004782 0
18.100000 -0.011832 0
18.105000 -0.017710 0
18.110000 -0.022543 0
18.115000 -0.026458 0
18.120000 -0.029573 0
18.125000 -0.032001 0
18.130000 -0.033844 0
18.135000 -0.035194 0
18.140000 -0.036135 0
18.145000 -0.036739 0
18.150000 -0.037068 0
18.155000 -0.037175 0
18.160000 -0.037105 0
18.165000 -0.036896 0
18.170000 -0.036578 0
18.175000 -0.036138 0
18.180000 -0.035476 0
18.185000 -0.034818 0
18.190000 -0.034163 0
18.195000 -0.033511 0
18.200000 -0.032863 0
18.205000 -0.032218 0
18.210000 -0.031576 0
18.215000 -0.030937 0
18.220000 -0.030301 0
18.225000 -0.029669 0
18.230000 -0.029040 0
18.235000 -0.028413 0
18.240000 -0.027790 0
18.245000 -0.027170 0
18.250000 -0.026554 0
18.255000 -0.025940 0
18.260000 -0.025329 0
18.265000 -0.024721 0
18.270000 -0.024115 0
18.275000 -0.023511 0
18.280000 -0.022909 0
18.285000 -0.022306 0
18.290000 -0.021700 0
18.295000 -0.021088 0
18.300000 -0.020462 0
18.305000 -0.019811 0
18.310000 -0.019119 0
18.315000 -0.018360 0
18.320000 -0.017496 0
18.325000 -0.016473 0
18.330000 -0.015217 0
18.335000 -0.013624 0
18.340000 -0.011559 0
18.345000 -0.008851 0
18.350000 -0.005289 0
18.355000 -0.000624 0
18.360000 0.005424 0
18.365000 0.013154 0
18.370000 0.022865 0
18.375000 0.034826 0
18.380000 0.049244 0
18.385000 0.066220 0
18.390000 0.085718 0
18.395000 0.107519 0
18.400000 0.131207 0
18.405000 0.156150 0
18.410000 0.181520 0
18.415000 0.206322 0
18.420000 0.229455 0
18.425000 0.249788 0
18.430000 0.266251 0
18.435000 0.277922 0
18.440000 0.284119 0
18.445000 0.284457 1
18.450000 0.278891 0
18.455000 0.267719 0
18.460000 0.251558 0
18.465000 0.231282 0
18.470000 0.207943 0
18.475000 0.182686 0
18.480000 0.156647 0
18.485000 0.130877 0
18.490000 0.106258 0
18.495000 0.083438 0
18.500000 0.062730 0
18.505000 0.043948 0
18.510000 0.026138 0
18.515000 0.007312 0
18.520000 -0.015520 0
18.525000 -0.045497 0
18.530000 -0.083922 0
18.535000 -0.127641 0
18.540000 -0.167227 0
18.545000 -0.187443 2
18.550000 -0.170054 0
18.555000 -0.097571 0
18.560000 0.042911 0
18.565000 0.254352 0
18.570000 0.521585 0
18.575000 0.804071 0
18.580000 1.038882 0
18.585000 1.160214 3
18.590000 1.132135 0
18.595000 0.961354 0
18.600000 0.692122 0
18.605000 0.387138 0
18.610000 0.103475 0
18.615000 -0.121461 0
18.620000 -0.271255 0
18.625000 -0.345478 0
18.630000 -0.354845 4
18.635000 -0.317754 0
18.640000 -0.256155 0
18.645000 -0.190131 0
18.650000 -0.133228 0
18.655000 -0.090878 0
18.660000 -0.062153 0
18.665000 -0.043040 0
18.670000 -0.029225 0
18.675000 -0.017493 0
18.680000 -0.005921 0
18.685000 0.006467 0
18.690000 0.020109 0
18.695000 0.035188 0
18.700000 0.051770 0
18.705000 0.069861 0
18.710000 0.089419 0
18.715000 0.110365 0
18.720000 0.132570 0
18.725000 0.155862 0
18.730000 0.180024 0
18.735000 0.204790 0
18.740000 0.229854 0
18.745000 0.254871 0
18.750000 0.279467 0
18.755000 0.303245 0
18.760000 0.325794 0
18.765000 0.346704 0
18.770000 0.365576 0
18.775000 0.382032 0
18.780000 0.395732 0
18.785000 0.406382 0
18.790000 0.413746 0
18.795000 0.417652 0
18.800000 0.418000 5
18.805000 0.414767 0
18.810000 0.408005 0
18.815000 0.397842 0
18.820000 0.384477 0
18.825000 0.368172 0
18.830000 0.349245 0
18.835000 0.328058 0
18.840000 0.305006 0
18.845000 0.280506 0
18.850000 0.254981 0
18.855000 0.228850 0
18.860000 0.202518 0
18.865000 0.176364 0
18.870000 0.150732 0
18.875000 0.125928 0
18.880000 0.102211 0
18.885000 0.079793 0
18.890000 0.058839 0
18.895000 0.039464 0
18.900000 0.021741 0
18.905000 0.005698 0
18.910000 -0.008671 0
18.915000 -0.021405 0
18.920000 -0.032569 0
18.925000 -0.042250 0
18.930000 -0.050547 0
18.935000 -0.057574 0
18.940000 -0.063447 0
18.945000 -0.068285 0
18.950000 -0.072206 0
18.955000 -0.075323 0
18.960000 -0.077742 0
18.965000 -0.079563 0
18.970000 -0.080875 0
18.975000 -0.081760 0
18.980000 -0.082289 0
18.985000 -0.082525 0
18.990000 -0.082522 0
18.995000 -0.082325 0
19.000000 -0.081974 0
19.005000 -0.081500 0
19.010000 -0.080931 0
19.015000 -0.080252 0
19.020000 -0.079371 0
19.025000 -0.078494 0
19.030000 -0.077621 0
19.035000 -0.076752 0
19.040000 -0.075888 0
19.045000 -0.075028 0
19.050000 -0.074173 0
19.055000 -0.073322 0
19.060000 -0.072475 0
19.065000 -0.071632 0
19.070000 -0.070793 0
19.075000 -0.069959 0
19.080000 -0.069129 0
19.085000 -0.068302 0
19.090000 -0.067480 0
19.095000 -0.066662 0
19.100000 -0.065848 0
19.105000 -0.065038 0
19.110000 -0.064232 0
19.115000 -0.063429 0
19.120000 -0.062628 0
19.125000 -0.061829 0
19.130000 -0.061030 0
19.135000 -0.060228 0
19.140000 -0.059417 0
19.145000 -0.058591 0
19.150000 -0.057738 0
19.155000 -0.056839 0
19.160000 -0.055869 0
19.165000 -0.054787 0
19.170000 -0.053541 0
19.175000 -0.052055 0
19.180000 -0.050229 0
19.185000 -0.047935 0
19.190000 -0.045010 0
19.195000 -0.041256 0
19.200000 -0.036441 0
19.205000 -0.030303 0
19.210000 -0.022566 0
19.215000 -0.012950 0
19.220000 -0.001200 0
19.225000 0.012889 0
19.230000 0.029434 0
19.235000 0.048432 0
19.240000 0.069730 0
19.245000 0.092995 0
19.250000 0.117706 0
19.255000 0.143158 0
19.260000 0.168480 0
19.265000 0.192683 0
19.270000 0.214716 0
19.275000 0.233543 0
19.280000 0.248219 0
19.285000 0.257971 0
19.290000 0.262263 1
19.295000 0.260848 0
19.300000 0.253784 0
19.305000 0.241439 0
19.310000 0.224450 0
19.315000 0.203676 0
19.320000 0.180119 0
19.325000 0.154850 0
19.330000 0.128925 0
19.335000 0.103312 0
19.340000 0.078828 0
19.345000 0.056077 0
19.350000 0.035365 0
19.355000 0.016558 0
19.360000 -0.001139 0
19.365000 -0.019435 0
19.370000 -0.040985 0
19.375000 -0.068814 0
19.380000 -0.104796 0
19.385000 -0.147405 0
19.390000 -0.189776 0
19.395000 -0.219385 0
19.400000 -0.219900 2
19.405000 -0.174293 0
19.410000 -0.068097 0
19.415000 0.106814 0
19.420000 0.346287 0
19.425000 0.626305 0
19.430000 0.899399 0
19.435000 1.102877 0
19.440000 1.180420 3
19.445000 1.105849 0
19.450000 0.897540 0
19.455000 0.609440 0
19.460000 0.306080 0
19.465000 0.039823 0
19.470000 -0.158977 0
19.475000 -0.280110 0
19.480000 -0.327841 4
19.485000 -0.316527 0
19.490000 -0.266986 0
19.495000 -0.201549 0
19.500000 -0.138384 0
19.505000 -0.087764 0
19.510000 -0.052034 0
19.515000 -0.028417 0
19.520000 -0.012402 0
19.525000 -0.000024 0
19.530000 0.011344 0
19.535000 0.023133 0
19.540000 0.036019 0
19.545000 0.050292 0
19.550000 0.066063 0
19.555000 0.083364 0
19.560000 0.102174 0
19.565000 0.122429 0
19.570000 0.144020 0
19.575000 0.166789 0
19.580000 0.190533 0
19.585000 0.214999 0
19.590000 0.239892 0
19.595000 0.264872 0
19.600000 0.289568 0
19.605000 0.313579 0
19.610000 0.336491 0
19.615000 0.357882 0
19.620000 0.377340 0
19.625000 0.394469 0
19.630000 0.408911 0
19.635000 0.420349 0
19.640000 0.428524 0
19.645000 0.433243 0
19.650000 0.434384 5
19.655000 0.431904 0
19.660000 0.425838 0
19.665000 0.416300 0
19.670000 0.403477 0
19.675000 0.387626 0
19.680000 0.369060 0
19.685000 0.348143 0
19.690000 0.325274 0
19.695000 0.300875 0
19.700000 0.275379 0
19.705000 0.249215 0
19.710000 0.222800 0
19.715000 0.196524 0
19.720000 0.170743 0
19.725000 0.145773 0
19.730000 0.121883 0
19.735000 0.099294 0
19.740000 0.078175 0
19.745000 0.058649 0
19.750000 0.040790 0
19.755000 0.024629 0
19.760000 0.010160 0
19.765000 -0.002657 0
19.770000 -0.013887 0
19.775000 -0.023620 0
19.780000 -0.031959 0
19.785000 -0.039019 0
19.790000 -0.044918 0
19.795000 -0.049780 0
19.800000 -0.053723 0
19.805000 -0.056863 0
19.810000 -0.059308 0
19.815000 -0.061158 0
19.820000 -0.062504 0
19.825000 -0.063428 0
19.830000 -0.064002 0
19.835000 -0.064287 0
19.840000 -0.064339 0
19.845000 -0.064202 0
19.850000 -0.063914 0
19.855000 -0.063509 0
19.860000 -0.063011 0
19.865000 -0.062259 0
19.870000 -0.061467 0
19.875000 -0.060679 0
19.880000 -0.059895 0
19.885000 -0.059115 0
19.890000 -0.058339 0
19.895000 -0.057567 0
19.900000 -0.056798 0
19.905000 -0.056034 0
19.910000 -0.055273 0
19.915000 -0.054516 0
19.920000 -0.053763 0
19.925000 -0.053013 0
19.930000 -0.052267 0
19.935000 -0.051525 0
19.940000 -0.050787 0
19.945000 -0.050052 0
19.950000 -0.049321 0
19.955000 -0.048593 0
19.960000 -0.047868 0
19.965000 -0.047146 0
19.970000 -0.046426 0
19.975000 -0.045706 0
19.980000 -0.044984 0
19.985000 -0.044257 0
19.990000 -0.043518 0
19.995000 -0.042757 0
20.000000 -0.041959 0
20.005000 -0.041102 0
20.010000 -0.040153 0
20.015000 -0.039063 0
20.020000 -0.037767 0
20.025000 -0.036174 0
20.030000 -0.034165 0
20.035000 -0.031589 0
20.040000 -0.028257 0
20.045000 -0.023946 0
20.050000 -0.018399 0
20.055000 -0.011338 0
20.060000 -0.002475 0
20.065000 0.008463 0
20.070000 0.021706 0
20.075000 0.037406 0
20.080000 0.055604 0
20.085000 0.076191 0
20.090000 0.098884 0
20.095000 0.123204 0
20.100000 0.148480 0
20.105000 0.173864 0
20.110000 0.198369 0
20.115000 0.220931 0
20.120000 0.240479 0
20.125000 0.256020 0
20.130000 0.266724 0
20.135000 0.271991 1
20.140000 0.271509 0
20.145000 0.265287 0
20.150000 0.253649 0
20.155000 0.237208 0
20.160000 0.216814 0
20.165000 0.193477 0
20.170000 0.168286 0
20.175000 0.142326 0
20.180000 0.116597 0
20.185000 0.091950 0
20.190000 0.069021 0
20.195000 0.048144 0
20.200000 0.029210 0
20.205000 0.011437 0
20.210000 -0.006890 0
20.215000 -0.028468 0
20.220000 -0.056387 0
20.225000 -0.092548 0
20.230000 -0.135321 0
20.235000 -0.177535 0
20.240000 -0.206213 2
20.245000 -0.204561 0
20.250000 -0.155245 0
20.255000 -0.043794 0
20.260000 0.137340 0
20.265000 0.382366 0
20.270000 0.664312 0
20.275000 0.932238 0
20.280000 1.121532 0
20.285000 1.177641 3
20.290000 1.082062 0
20.295000 0.859719 0
20.300000 0.566397 0
20.305000 0.264938 0
20.310000 0.004497 0
20.315000 -0.187384 0
20.320000 -0.302228 0
20.325000 -0.345157 4
20.330000 -0.330818 0
20.335000 -0.279866 0
20.340000 -0.214126 0
20.345000 -0.151147 0
20.350000 -0.100748 0
20.355000 -0.065088 0
20.360000 -0.041403 0
20.365000 -0.025270 0
20.370000 -0.012787 0
20.375000 -0.001354 0
20.380000 0.010462 0
20.385000 0.023342 0
20.390000 0.037584 0
20.395000 0.053305 0
20.400000 0.070539 0
20.405000 0.089269 0
20.410000 0.109436 0
20.415000 0.130937 0
20.420000 0.153624 0
20.425000 0.177304 0
20.430000 0.201734 0
20.435000 0.226630 0
20.440000 0.251667 0
20.445000 0.276484 0
20.450000 0.300694 0
20.455000 0.323892 0
20.460000 0.345666 0
20.465000 0.365608 0
20.470000 0.383328 0
20.475000 0.398463 0
20.480000 0.410694 0
20.485000 0.419752 0
20.490000 0.425430 0
20.495000 0.427592 5
20.500000 0.426172 0
20.505000 0.421185 0
20.510000 0.412719 0
20.515000 0.400937 0
20.520000 0.386070 0
20.525000 0.368408 0
20.530000 0.348293 0
20.535000 0.326106 0
20.540000 0.302252 0
20.545000 0.277155 0
20.550000 0.251238 0
20.555000 0.224916 0
20.560000 0.198581 0
20.565000 0.172597 0
20.570000 0.147291 0
20.575000 0.122947 0
20.580000 0.099802 0
20.585000 0.078043 0
20.590000 0.057812 0
20.595000 0.039203 0
20.600000 0.022266 0
20.605000 0.007012 0
20.610000 -0.006582 0
20.615000 -0.018569 0
20.620000 -0.029026 0
20.625000 -0.038047 0
20.630000 -0.045738 0
20.635000 -0.052216 0
20.640000 -0.057598 0
20.645000 -0.062004 0
20.650000 -0.065549 0
20.655000 -0.068344 0
20.660000 -0.070492 0
20.665000 -0.072087 0
20.670000 -0.073215 0
20.675000 -0.073952 0
20.680000 -0.074366 0
20.685000 -0.074515 0
20.690000 -0.074448 0
20.695000 -0.074208 0
20.700000 -0.073830 0
20.705000 -0.073344 0
20.710000 -0.072774 0
20.715000 -0.071970 0
20.720000 -0.071129 0
20.725000 -0.070293 0
20.730000 -0.069461 0
20.735000 -0.068634 0
20.740000 -0.067810 0
20.745000 -0.066990 0
20.750000 -0.066175 0
20.755000 -0.065364 0
20.760000 -0.064556 0
20.765000 -0.063753 0
20.770000 -0.062954 0
20.775000 -0.062158 0
20.780000 -0.061367 0
20.785000 -0.060580 0
20.790000 -0.059796 0
20.795000 -0.059016 0
20.800000 -0.058240 0
20.805000 -0.057468 0
20.810000 -0.056699 0
20.815000 -0.055933 0
20.820000 -0.055168 0
20.825000 -0.054405 0
20.830000 -0.053639 0
20.835000 -0.052868 0
20.840000 -0.052086 0
20.845000 -0.051281 0
20.850000 -0.050441 0
20.855000 -0.049542 0
20.860000 -0.048552 0
20.865000 -0.047424 0
20.870000 -0.046094 0
20.875000 -0.044474 0
20.880000 -0.042449 0
20.885000 -0.039872 0
20.890000 -0.036562 0
20.895000 -0.032300 0
20.900000 -0.026840 0
20.905000 -0.019908 0
20.910000 -0.011223 0
20.915000 -0.000514 0
20.920000 0.012449 0
20.925000 0.027830 0
20.930000 0.045684 0
20.935000 0.065931 0
20.940000 0.088321 0
20.945000 0.112420 0
20.950000 0.137604 0
20.955000 0.163071 0
20.960000 0.187879 0
20.965000 0.210995 0
20.970000 0.231365 0
20.975000 0.247991 0
20.980000 0.260012 0
20.985000 0.266778 0
20.990000 0.267906 1
20.995000 0.263316 0
21.000000 0.253240 0
21.005000 0.238202 0
21.010000 0.218970 0
21.015000 0.196493 0
21.020000 0.171824 0
21.025000 0.146036 0
21.030000 0.120146 0
21.035000 0.095046 0
21.040000 0.071444 0
21.045000 0.049792 0
21.050000 0.030172 0
21.055000 0.012111 0
21.060000 -0.005675 0
21.065000 -0.025454 0
21.070000 -0.050221 0
21.075000 -0.082606 0
21.080000 -0.122855 0
21.085000 -0.166582 0
21.090000 -0.203604 0
21.095000 -0.218881 2
21.100000 -0.195255 0
21.105000 -0.116728 0
21.110000 0.028147 0
21.115000 0.241418 0
21.120000 0.508457 0
21.125000 0.791652 0
21.130000 1.032794 0
21.135000 1.169539 3
21.140000 1.160344 0
21.145000 1.004732 0
21.150000 0.743558 0
21.155000 0.439348 0
21.160000 0.151306 0
21.165000 -0.080476 0
21.170000 -0.237517 0
21.175000 -0.318122 0
21.180000 -0.332285 4
21.185000 -0.298095 0
21.190000 -0.237641 0
21.195000 -0.171526 0
21.200000 -0.113959 0
21.205000 -0.070902 0
21.210000 -0.041694 0
21.215000 -0.022358 0
21.220000 -0.008512 0
21.225000 0.003148 0
21.230000 0.014604 0
21.235000 0.026863 0
21.240000 0.040379 0
21.245000 0.055338 0
21.250000 0.071809 0
21.255000 0.089797 0
21.260000 0.109262 0
21.265000 0.130122 0
21.270000 0.152247 0
21.275000 0.175463 0
21.280000 0.199549 0
21.285000 0.224235 0
21.290000 0.249210 0
21.295000 0.274126 0
21.300000 0.298603 0
21.305000 0.322238 0
21.310000 0.344616 0
21.315000 0.365323 0
21.320000 0.383955 0
21.325000 0.400136 0
21.330000 0.413522 0
21.335000 0.423821 0
21.340000 0.430799 0
21.345000 0.434289 5
21.350000 0.434197 0
21.355000 0.430508 0
21.360000 0.423281 0
21.365000 0.412655 0
21.370000 0.398838 0
21.375000 0.382101 0
21.380000 0.362773 0
21.385000 0.341225 0
21.390000 0.317860 0
21.395000 0.293100 0
21.400000 0.267373 0
21.405000 0.241102 0
21.410000 0.214692 0
21.415000 0.188520 0
21.420000 0.162929 0
21.425000 0.138219 0
21.430000 0.114645 0
21.435000 0.092411 0
21.440000 0.071674 0
21.445000 0.052543 0
21.450000 0.035081 0
21.455000 0.019310 0
21.460000 0.005216 0
21.465000 -0.007246 0
21.470000 -0.018148 0
21.475000 -0.027581 0
21.480000 -0.035649 0
21.485000 -0.042467 0
21.490000 -0.048154 0
21.495000 -0.052831 0
21.500000 -0.056615 0
21.505000 -0.059619 0
21.510000 -0.061949 0
21.515000 -0.063703 0
21.520000 -0.064968 0
21.525000 -0.065825 0
21.530000 -0.066343 0
21.535000 -0.066583 0
21.540000 -0.066596 0
21.545000 -0.066427 0
21.550000 -0.066113 0
21.555000 -0.065685 0
21.560000 -0.065167 0
21.565000 -0.064403 0
21.570000 -0.063601 0
21.575000 -0.062802 0
21.580000 -0.062008 0
21.585000 -0.061217 0
21.590000 -0.060430 0
21.595000 -0.059648 0
21.600000 -0.058869 0
21.605000 -0.058094 0
21.610000 -0.057323 0
21.615000 -0.056556 0
21.620000 -0.055792 0
21.625000 -0.055033 0
21.630000 -0.054277 0
21.635000 -0.053525 0
21.640000 -0.052776 0
21.645000 -0.052032 0
21.650000 -0.051291 0
21.655000 -0.050553 0
21.660000 -0.049818 0
21.665000 -0.049087 0
21.670000 -0.048357 0
21.675000 -0.047627 0
21.680000 -0.046896 0
21.685000 -0.046160 0
21.690000 -0.045412 0
21.695000 -0.044643 0
21.700000 -0.043838 0
21.705000 -0.042976 0
21.710000 -0.042024 0
21.715000 -0.040937 0
21.720000 -0.039649 0
21.725000 -0.038073 0
21.730000 -0.036095 0
21.735000 -0.033566 0
21.740000 -0.030305 0
21.745000 -0.026093 0
21.750000 -0.020680 0
21.755000 -0.013791 0
21.760000 -0.005142 0
21.765000 0.005540 0
21.770000 0.018489 0
21.775000 0.033867 0
21.780000 0.051731 0
21.785000 0.071995 0
21.790000 0.094405 0
21.795000 0.118519 0
21.800000 0.143700 0
21.805000 0.169134 0
21.810000 0.193866 0
21.815000 0.216850 0
21.820000 0.237024 0
21.825000 0.253386 0
21.830000 0.265078 0
21.835000 0.271457 0
21.840000 0.272158 1
21.845000 0.267122 0
21.850000 0.256605 0
21.855000 0.241158 0
21.860000 0.221574 0
21.865000 0.198825 0
21.870000 0.173976 0
21.875000 0.148108 0
21.880000 0.122238 0
21.885000 0.097251 0
21.890000 0.073834 0
21.895000 0.052408 0
21.900000 0.032998 0
21.905000 0.015039 0
21.910000 -0.002889 0
21.915000 -0.023205 0
21.920000 -0.048968 0
21.925000 -0.082624 0
21.930000 -0.123858 0
21.935000 -0.167375 0
21.940000 -0.202005 0
21.945000 -0.212004 2
21.950000 -0.180026 0
21.955000 -0.090460 0
21.960000 0.066998 0
21.965000 0.291955 0
21.970000 0.565674 0
21.975000 0.845657 0
21.980000 1.070632 0
21.985000 1.179884 3
21.990000 1.137890 0
21.995000 0.951925 0
22.000000 0.672866 0
22.005000 0.367997 0
22.010000 0.094828 0
22.015000 -0.111952 0
22.020000 -0.239709 0
22.025000 -0.291809 4
22.030000 -0.282674 0
22.035000 -0.233823 0
22.040000 -0.168561 0
22.045000 -0.105803 0
22.050000 -0.056047 0
22.055000 -0.021424 0
22.060000 0.001177 0
22.065000 0.016475 0
22.070000 0.028463 0
22.075000 0.039696 0
22.080000 0.051516 0
22.085000 0.064536 0
22.090000 0.079008 0
22.095000 0.095027 0
22.100000 0.112611 0
22.105000 0.131725 0
22.110000 0.152290 0
22.115000 0.174176 0
22.120000 0.197203 0
22.125000 0.221142 0
22.130000 0.245710 0
22.135000 0.270581 0
22.140000 0.295384 0
22.145000 0.319719 0
22.150000 0.343158 0
22.155000 0.365264 0
22.160000 0.385599 0
22.165000 0.403741 0
22.170000 0.419296 0
22.175000 0.431913 0
22.180000 0.441295 0
22.185000 0.447212 0
22.190000 0.449509 5
22.195000 0.448113 0
22.200000 0.443034 0
22.205000 0.434365 0
22.210000 0.422281 0
22.215000 0.407032 0
22.220000 0.388933 0
22.225000 0.368352 0
22.230000 0.345699 0
22.235000 0.321412 0
22.240000 0.295942 0
22.245000 0.269739 0
22.250000 0.243238 0
22.255000 0.216850 0
22.260000 0.190949 0
22.265000 0.165866 0
22.270000 0.141884 0
22.275000 0.119232 0
22.280000 0.098086 0
22.285000 0.078572 0
22.290000 0.060763 0
22.295000 0.044690 0
22.300000 0.030341 0
22.305000 0.017671 0
22.310000 0.006606 0
22.315000 -0.002948 0
22.320000 -0.011103 0
22.325000 -0.017978 0
22.330000 -0.023701 0
22.335000 -0.028398 0
22.340000 -0.032192 0
22.345000 -0.035202 0
22.350000 -0.037537 0
22.355000 -0.039299 0
22.360000 -0.040580 0
22.365000 -0.041460 0
22.370000 -0.042010 0
22.375000 -0.042291 0
22.380000 -0.042355 0
22.385000 -0.042247 0
22.390000 -0.042002 0
22.395000 -0.041651 0
22.400000 -0.041181 0
22.405000 -0.040495 0
22.410000 -0.039811 0
22.415000 -0.039131 0
22.420000 -0.038455 0
22.425000 -0.037782 0
22.430000 -0.037112 0
22.435000 -0.036446 0
22.440000 -0.035783 0
22.445000 -0.035123 0
22.450000 -0.034466 0
22.455000 -0.033813 0
22.460000 -0.033163 0
22.465000 -0.032516 0
22.470000 -0.031873 0
22.475000 -0.031233 0
22.480000 -0.030595 0
22.485000 -0.029961 0
22.490000 -0.029330 0
22.495000 -0.028701 0
22.500000 -0.028075 0
22.505000 -0.027449 0
22.510000 -0.026824 0
22.515000 -0.026196 0
22.520000 -0.025561 0
22.525000 -0.024913 0
22.530000 -0.024240 0
22.535000 -0.023526 0
22.540000 -0.022746 0
22.545000 -0.021863 0
22.550000 -0.020823 0
22.555000 -0.019551 0
22.560000 -0.017947 0
22.565000 -0.015877 0
22.570000 -0.013173 0
22.575000 -0.009624 0
22.580000 -0.004987 0
22.585000 0.001017 0
22.590000 0.008684 0
22.595000 0.018313 0
22.600000 0.030173 0
22.605000 0.044472 0
22.610000 0.061319 0
22.615000 0.080686 0
22.620000 0.102369 0
22.625000 0.125966 0
22.630000 0.150864 0
22.635000 0.176252 0
22.640000 0.201152 0
22.645000 0.224476 0
22.650000 0.245099 0
22.655000 0.261948 0
22.660000 0.274092 0
22.665000 0.280828 0
22.670000 0.281745 1
22.675000 0.276766 0
22.680000 0.266154 0
22.685000 0.250491 0
22.690000 0.230624 0
22.695000 0.207584 0
22.700000 0.182502 0
22.705000 0.156514 0
22.710000 0.130677 0
22.715000 0.105892 0
22.720000 0.082836 0
22.725000 0.061870 0
22.730000 0.042886 0
22.735000 0.025054 0
22.740000 0.006547 0
22.745000 -0.015495 0
22.750000 -0.044265 0
22.755000 -0.081485 0
22.760000 -0.124830 0
22.765000 -0.165908 0
22.770000 -0.190331 2
22.775000 -0.180201 0
22.780000 -0.117767 0
22.785000 0.010839 0
22.790000 0.210707 0
22.795000 0.470460 0
22.800000 0.754369 0
22.805000 1.002864 0
22.810000 1.148980 3
22.815000 1.148198 0
22.820000 1.000391 0
22.825000 0.744117 0
22.830000 0.440847 0
22.835000 0.150185 0
22.840000 -0.086550 0
22.845000 -0.249568 0
22.850000 -0.336096 0
22.855000 -0.355247 4
22.860000 -0.324417 0
22.865000 -0.265376 0
22.870000 -0.198947 0
22.875000 -0.139990 0
22.880000 -0.095233 0
22.885000 -0.064563 0
22.890000 -0.044234 0
22.895000 -0.029841 0
22.900000 -0.017947 0
22.905000 -0.006438 0
22.910000 0.005780 0
22.915000 0.019209 0
22.920000 0.034059 0
22.925000 0.050408 0
22.930000 0.068271 0
22.935000 0.087612 0
22.940000 0.108356 0
22.945000 0.130384 0
22.950000 0.153528 0
22.955000 0.177576 0
22.960000 0.202270 0
22.965000 0.227307 0
22.970000 0.252348 0
22.975000 0.277021 0
22.980000 0.300928 0
22.985000 0.323662 0
22.990000 0.344809 0
22.995000 0.363966 0
23.000000 0.380752 0
23.005000 0.394821 0
23.010000 0.405870 0
23.015000 0.413655 0
23.020000 0.417996 0
23.025000 0.418782 5
23.030000 0.415982 0
23.035000 0.409637 0
23.040000 0.399868 0
23.045000 0.386865 0
23.050000 0.370885 0
23.055000 0.352239 0
23.060000 0.331287 0
23.065000 0.308421 0
23.070000 0.284058 0
23.075000 0.258621 0
23.080000 0.232532 0
23.085000 0.206199 0
23.090000 0.180004 0
23.095000 0.154298 0
23.100000 0.129391 0
23.105000 0.105547 0
23.110000 0.082985 0
23.115000 0.061874 0
23.120000 0.042335 0
23.125000 0.024444 0
23.130000 0.008234 0
23.135000 -0.006297 0
23.140000 -0.019186 0
23.145000 -0.030497 0
23.150000 -0.040313 0
23.155000 -0.048735 0
23.160000 -0.055875 0
23.165000 -0.061849 0
23.170000 -0.066776 0
23.175000 -0.070775 0
23.180000 -0.073960 0
23.185000 -0.076438 0
23.190000 -0.078309 0
23.195000 -0.079664 0
23.200000 -0.080585 0
23.205000 -0.081144 0
23.210000 -0.081406 0
23.215000 -0.081424 0
23.220000 -0.081245 0
23.225000 -0.080909 0
23.230000 -0.080448 0
23.235000 -0.079890 0
23.240000 -0.079221 0
23.245000 -0.078344 0
23.250000 -0.077472 0
23.255000 -0.076605 0
23.260000 -0.075741 0
23.265000 -0.074882 0
23.270000 -0.074027 0
23.275000 -0.073177 0
23.280000 -0.072331 0
23.285000 -0.071488 0
23.290000 -0.070651 0
23.295000 -0.069817 0
23.300000 -0.068987 0
23.305000 -0.068162 0
23.310000 -0.067341 0
23.315000 -0.066523 0
23.320000 -0.065710 0
23.325000 -0.064901 0
23.330000 -0.064096 0
23.335000 -0.063294 0
23.340000 -0.062495 0
23.345000 -0.061699 0
23.350000 -0.060905 0
23.355000 -0.060111 0
23.360000 -0.059313 0
23.365000 -0.058508 0
23.370000 -0.057688 0
23.375000 -0.056840 0
23.380000 -0.055948 0
23.385000 -0.054984 0
23.390000 -0.053911 0
23.395000 -0.052674 0
23.400000 -0.051200 0
23.405000 -0.049388 0
23.410000 -0.047111 0
23.415000 -0.044205 0
23.420000 -0.040473 0
23.425000 -0.035684 0
23.430000 -0.029576 0
23.435000 -0.021870 0
23.440000 -0.012287 0
23.445000 -0.000570 0
23.450000 0.013487 0
23.455000 0.030002 0
23.460000 0.048975 0
23.465000 0.070252 0
23.470000 0.093502 0
23.475000 0.118205 0
23.480000 0.143652 0
23.485000 0.168973 0
23.490000 0.193175 0
23.495000 0.215206 0
23.500000 0.234025 0
23.505000 0.248686 0
23.510000 0.258415 0
23.515000 0.262676 1
23.520000 0.261220 0
23.525000 0.254110 0
23.530000 0.241716 0
23.535000 0.224681 0
23.540000 0.203865 0
23.545000 0.180277 0
23.550000 0.154989 0
23.555000 0.129058 0
23.560000 0.103455 0
23.565000 0.078996 0
23.570000 0.056280 0
23.575000 0.035608 0
23.580000 0.016835 0
23.585000 -0.000857 0
23.590000 -0.019203 0
23.595000 -0.040884 0
23.600000 -0.068927 0
23.605000 -0.105148 0
23.610000 -0.147885 0
23.615000 -0.190074 0
23.620000 -0.219002 2
23.625000 -0.218218 0
23.630000 -0.170684 0
23.635000 -0.062051 0
23.640000 0.115498 0
23.645000 0.357175 0
23.650000 0.637984 0
23.655000 0.909451 0
23.660000 1.108486 0
23.665000 1.179505 3
23.670000 1.098260 0
23.675000 0.884079 0
23.680000 0.593156 0
23.685000 0.290989 0
23.690000 0.029439 0
23.695000 -0.162426 0
23.700000 -0.275782 0
23.705000 -0.316176 4
23.710000 -0.299153 0
23.715000 -0.246399 0
23.720000 -0.180418 0
23.725000 -0.118743 0
23.730000 -0.070553 0
23.735000 -0.037185 0
23.740000 -0.015295 0
23.745000 -0.000270 0
23.750000 0.011700 0
23.755000 0.023024 0
23.760000 0.034964 0
23.765000 0.048100 0
23.770000 0.062673 0
23.775000 0.078774 0
23.780000 0.096418 0
23.785000 0.115575 0
23.790000 0.136166 0
23.795000 0.158067 0
23.800000 0.181105 0
23.805000 0.205059 0
23.810000 0.229656 0
23.815000 0.254581 0
23.820000 0.279478 0
23.825000 0.303956 0
23.830000 0.327603 0
23.835000 0.349991 0
23.840000 0.370692 0
23.845000 0.389291 0
23.850000 0.405399 0
23.855000 0.418663 0
23.860000 0.428785 0
23.865000 0.435524 0
23.870000 0.438714 5
23.875000 0.438264 0
23.880000 0.434165 0
23.885000 0.426488 0
23.890000 0.415382 0
23.895000 0.401073 0
23.900000 0.383851 0
23.905000 0.364060 0
23.910000 0.342091 0
23.915000 0.318362 0
23.920000 0.293313 0
23.925000 0.267383 0
23.930000 0.241004 0
23.935000 0.214588 0
23.940000 0.188514 0
23.945000 0.163123 0
23.950000 0.138710 0
23.955000 0.115523 0
23.960000 0.093754 0
23.965000 0.073549 0
23.970000 0.055002 0
23.975000 0.038161 0
23.980000 0.023034 0
23.985000 0.009593 0
23.990000 -0.002222 0
23.995000 -0.012492 0
24.000000 -0.021319 0
24.005000 -0.028816 0
24.010000 -0.035104 0
24.015000 -0.040306 0
24.020000 -0.044546 0
24.025000 -0.047942 0
24.030000 -0.050607 0
24.035000 -0.052645 0
24.040000 -0.054152 0
24.045000 -0.055212 0
24.050000 -0.055902 0
24.055000 -0.056288 0
24.060000 -0.056425 0
24.065000 -0.056363 0
24.070000 -0.056142 0
24.075000 -0.055796 0
24.080000 -0.055351 0
24.085000 -0.054798 0
24.090000 -0.054043 0
24.095000 -0.053292 0
24.100000 -0.052545 0
24.105000 -0.051802 0
24.110000 -0.051062 0
24.115000 -0.050326 0
24.120000 -0.049594 0
24.125000 -0.048865 0
24.130000 -0.048140 0
24.135000 -0.047419 0
24.140000 -0.046701 0
24.145000 -0.045987 0
24.150000 -0.045276 0
24.155000 -0.044569 0
24.160000 -0.043865 0
24.165000 -0.043165 0
24.170000 -0.042468 0
24.175000 -0.041774 0
24.180000 -0.041084 0
24.185000 -0.040395 0
24.190000 -0.039709 0
24.195000 -0.039022 0
24.200000 -0.038333 0
24.205000 -0.037638 0
24.210000 -0.036931 0
24.215000 -0.036200 0
24.220000 -0.035431 0
24.225000 -0.034599 0
24.230000 -0.033669 0
24.235000 -0.032591 0
24.240000 -0.031294 0
24.245000 -0.029684 0
24.250000 -0.027634 0
24.255000 -0.024986 0
24.260000 -0.021541 0
24.265000 -0.017066 0
24.270000 -0.011294 0
24.275000 -0.003939 0
24.280000 0.005292 0
24.285000 0.016670 0
24.290000 0.030417 0
24.295000 0.046665 0
24.300000 0.065424 0
24.305000 0.086543 0
24.310000 0.109685 0
24.315000 0.134312 0
24.320000 0.159688 0
24.325000 0.184906 0
24.330000 0.208929 0
24.335000 0.230664 0
24.340000 0.249035 0
24.345000 0.263074 0
24.350000 0.272001 0
24.355000 0.275300 1
24.360000 0.272763 0
24.365000 0.264512 0
24.370000 0.250989 0
24.375000 0.232916 0
24.380000 0.211230 0
24.385000 0.187003 0
24.390000 0.161351 0
24.395000 0.135355 0
24.400000 0.109977 0
24.405000 0.085998 0
24.410000 0.063945 0
24.415000 0.043980 0
24.420000 0.025711 0
24.425000 0.007926 0
24.430000 -0.011622 0
24.435000 -0.036006 0
24.440000 -0.068035 0
24.445000 -0.108140 0
24.450000 -0.151927 0
24.455000 -0.188878 0
24.460000 -0.203329 2
24.465000 -0.177438 0
24.470000 -0.094726 0
24.475000 0.056218 0
24.480000 0.276292 0
24.485000 0.547911 0
24.490000 0.828825 0
24.495000 1.056541 0
24.500000 1.168160 3
24.505000 1.129861 0
24.510000 0.953054 0
24.515000 0.681809 0
24.520000 0.376730 0
24.525000 0.092663 0
24.530000 -0.134195 0
24.535000 -0.287561 0
24.540000 -0.366442 0
24.545000 -0.380569 4
24.550000 -0.347170 0
24.555000 -0.287272 0
24.560000 -0.220734 0
24.565000 -0.161671 0
24.570000 -0.116522 0
24.575000 -0.085263 0
24.580000 -0.064356 0
24.585000 -0.049544 0
24.590000 -0.037426 0
24.595000 -0.025857 0
24.600000 -0.013692 0
24.605000 -0.000391 0
24.610000 0.014278 0
24.615000 0.030405 0
24.620000 0.048014 0
24.625000 0.067080 0
24.630000 0.087542 0
24.635000 0.109295 0
24.640000 0.132193 0
24.645000 0.156043 0
24.650000 0.180613 0
24.655000 0.205626 0
24.660000 0.230769 0
24.665000 0.255695 0
24.670000 0.280032 0
24.675000 0.303392 0
24.680000 0.325379 0
24.685000 0.345600 0
24.690000 0.363678 0
24.695000 0.379262 0
24.700000 0.392039 0
24.705000 0.401743 0
24.710000 0.408164 0
24.715000 0.411158 5
24.720000 0.410649 0
24.725000 0.406631 0
24.730000 0.399174 0
24.735000 0.388415 0
24.740000 0.374557 0
24.745000 0.357864 0
24.750000 0.338649 0
24.755000 0.317266 0
24.760000 0.294098 0
24.765000 0.269547 0
24.770000 0.244022 0
24.775000 0.217924 0
24.780000 0.191644 0
24.785000 0.165543 0
24.790000 0.139956 0
24.795000 0.115175 0
24.800000 0.091451 0
24.805000 0.068993 0
24.810000 0.047960 0
24.815000 0.028469 0
24.820000 0.010593 0
24.825000 -0.005635 0
24.830000 -0.020216 0
24.835000 -0.033183 0
24.840000 -0.044595 0
24.845000 -0.054531 0
24.850000 -0.063086 0
24.855000 -0.070365 0
24.860000 -0.076479 0
24.865000 -0.081545 0
24.870000 -0.085674 0
24.875000 -0.088979 0
24.880000 -0.091564 0
24.885000 -0.093527 0
24.890000 -0.094958 0
24.895000 -0.095939 0
24.900000 -0.096543 0
24.905000 -0.096833 0
24.910000 -0.096865 0
24.915000 -0.096686 0
24.920000 -0.096339 0
24.925000 -0.095855 0
24.930000 -0.095265 0
24.935000 -0.094592 0
24.940000 -0.093680 0
24.945000 -0.092731 0
24.950000 -0.091787 0
24.955000 -0.090848 0
24.960000 -0.089914 0
24.965000 -0.088984 0
24.970000 -0.088059 0
24.975000 -0.087139 0
24.980000 -0.086223 0
24.985000 -0.085311 0
24.990000 -0.084404 0
24.995000 -0.083502 0
25.000000 -0.082604 0
25.005000 -0.081711 0
25.010000 -0.080822 0
25.015000 -0.079938 0
25.020000 -0.079058 0
25.025000 -0.078182 0
25.030000 -0.077310 0
25.035000 -0.076442 0
25.040000 -0.075578 0
25.045000 -0.074717 0
25.050000 -0.073858 0
25.055000 -0.072999 0
25.060000 -0.072137 0
25.065000 -0.071268 0
25.070000 -0.070385 0
25.075000 -0.069477 0
25.080000 -0.068527 0
25.085000 -0.067511 0
25.090000 -0.066393 0
25.095000 -0.065124 0
25.100000 -0.063635 0
25.105000 -0.061837 0
25.110000 -0.059611 0
25.115000 -0.056809 0
25.120000 -0.053248 0
25.125000 -0.048714 0
25.130000 -0.042963 0
25.135000 -0.035733 0
25.140000 -0.026752 0
25.145000 -0.015763 0
25.150000 -0.002550 0
25.155000 0.013039 0
25.160000 0.031050 0
25.165000 0.051402 0
25.170000 0.073851 0
25.175000 0.097982 0
25.180000 0.123200 0
25.185000 0.148741 0
25.190000 0.173708 0
25.195000 0.197112 0
25.200000 0.217939 0
25.205000 0.235219 0
25.210000 0.248101 0
25.215000 0.255923 0
25.220000 0.258268 1
25.225000 0.254997 0
25.230000 0.246268 0
25.235000 0.232520 0
25.240000 0.214435 0
25.245000 0.192884 0
25.250000 0.168858 0
25.255000 0.143390 0
25.260000 0.117484 0
25.265000 0.092048 0
25.270000 0.067839 0
25.275000 0.045397 0
25.280000 0.024970 0
25.285000 0.006367 0
25.290000 -0.011256 0
25.295000 -0.029618 0
25.300000 -0.051326 0
25.305000 -0.079285 0
25.310000 -0.115257 0
25.315000 -0.157763 0
25.320000 -0.200274 0
25.325000 -0.230895 0
25.330000 -0.234017 2
25.335000 -0.193184 0
25.340000 -0.094113 0
25.345000 0.071933 0
25.350000 0.302909 0
25.355000 0.578935 0
25.360000 0.857886 0
25.365000 1.080805 0
25.370000 1.190061 3
25.375000 1.151062 0
25.380000 0.968857 0
25.385000 0.692300 0
25.390000 0.387109 0
25.395000 0.110499 0
25.400000 -0.102094 0
25.405000 -0.236886 0
25.410000 -0.296024 4
25.415000 -0.292701 0
25.420000 -0.247409 0
25.425000 -0.183055 0
25.430000 -0.119019 0
25.435000 -0.066858 0
25.440000 -0.029782 0
25.445000 -0.005338 0
25.450000 0.011025 0
25.455000 0.023444 0
25.460000 0.034704 0
25.465000 0.046329 0
25.470000 0.059042 0
25.475000 0.073148 0
25.480000 0.088768 0
25.485000 0.105934 0
25.490000 0.124626 0
25.495000 0.144779 0
25.500000 0.166280 0
25.505000 0.188969 0
25.510000 0.212638 0
25.515000 0.237026 0
25.520000 0.261830 0
25.525000 0.286702 0
25.530000 0.311260 0
25.535000 0.335095 0
25.540000 0.357781 0
25.545000 0.378891 0
25.550000 0.398004 0
25.555000 0.414721 0
25.560000 0.428679 0
25.565000 0.439564 0
25.570000 0.447120 0
25.575000 0.451162 0
25.580000 0.451577 5
25.585000 0.448336 0
25.590000 0.441490 0
25.595000 0.431169 0
25.600000 0.417580 0
25.605000 0.400997 0
25.610000 0.381753 0
25.615000 0.360229 0
25.620000 0.336837 0
25.625000 0.312014 0
25.630000 0.286201 0
25.635000 0.259833 0
25.640000 0.233328 0
25.645000 0.207075 0
25.650000 0.181425 0
25.655000 0.156687 0
25.660000 0.133118 0
25.665000 0.110926 0
25.670000 0.090267 0
25.675000 0.071249 0
25.680000 0.053931 0
25.685000 0.038329 0
25.690000 0.024425 0
25.695000 0.012164 0
25.700000 0.001471 0
25.705000 -0.007752 0
25.710000 -0.015615 0
25.715000 -0.022240 0
25.720000 -0.027748 0
25.725000 -0.032264 0
25.730000 -0.035908 0
25.735000 -0.038793 0
25.740000 -0.041027 0
25.745000 -0.042707 0
25.750000 -0.043922 0
25.755000 -0.044748 0
25.760000 -0.045255 0
25.765000 -0.045500 0
25.770000 -0.045536 0
25.775000 -0.045403 0
25.780000 -0.045137 0
25.785000 -0.044767 0
25.790000 -0.044280 0
25.795000 -0.043577 0
25.800000 -0.042879 0
25.805000 -0.042184 0
25.810000 -0.041492 0
25.815000 -0.040804 0
25.820000 -0.040119 0
25.825000 -0.039437 0
25.830000 -0.038759 0
25.835000 -0.038085 0
25.840000 -0.037414 0
25.845000 -0.036746 0
25.850000 -0.036081 0
25.855000 -0.035420 0
25.860000 -0.034762 0
25.865000 -0.034107 0
25.870000 -0.033456 0
25.875000 -0.032807 0
25.880000 -0.032162 0
25.885000 -0.031519 0
25.890000 -0.030879 0
25.895000 -0.030240 0
25.900000 -0.029602 0
25.905000 -0.028961 0
25.910000 -0.028316 0
25.915000 -0.027659 0
25.920000 -0.026982 0
25.925000 -0.026269 0
25.930000 -0.025500 0
25.935000 -0.024641 0
25.940000 -0.023646 0
25.945000 -0.022450 0
25.950000 -0.020962 0
25.955000 -0.019065 0
25.960000 -0.016605 0
25.965000 -0.013394 0
25.970000 -0.009205 0
25.975000 -0.003777 0
25.980000 0.003173 0
25.985000 0.011939 0
25.990000 0.022799 0
25.995000 0.035988 0
26.000000 0.051661 0
26.005000 0.069857 0
26.010000 0.090461 0
26.015000 0.113176 0
26.020000 0.137506 0
26.025000 0.162755 0
26.030000 0.188045 0
26.035000 0.212363 0
26.040000 0.234618 0
26.045000 0.253724 0
26.050000 0.268681 0
26.055000 0.278665 0
26.060000 0.283099 1
26.065000 0.281710 0
26.070000 0.274553 0
26.075000 0.262008 0
26.080000 0.244745 0
26.085000 0.223664 0
26.090000 0.199819 0
26.095000 0.174325 0
26.100000 0.148277 0
26.105000 0.122668 0
26.110000 0.098321 0
26.115000 0.075822 0
26.120000 0.055415 0
26.125000 0.036840 0
26.130000 0.019065 0
26.135000 0.000050 0
26.140000 -0.023172 0
26.145000 -0.053603 0
26.150000 -0.092338 0
26.155000 -0.136078 0
26.160000 -0.175484 0
26.165000 -0.195686 2
26.170000 -0.178967 0
26.175000 -0.108299 0
26.180000 0.029055 0
26.185000 0.236568 0
26.190000 0.500810 0
26.195000 0.784295 0
26.200000 1.027238 0
26.205000 1.164662 3
26.210000 1.153982 0
26.215000 0.995787 0
26.220000 0.732404 0
26.225000 0.427839 0
26.230000 0.141907 0
26.235000 -0.085636 0
26.240000 -0.237131 0
26.245000 -0.311835 0
26.250000 -0.320745 4
26.255000 -0.282888 0
26.260000 -0.220910 0
26.265000 -0.155300 0
26.270000 -0.099543 0
26.275000 -0.058672 0
26.280000 -0.031314 0
26.285000 -0.013194 0
26.290000 0.000041 0
26.295000 0.011519 0
26.300000 0.023046 0
26.305000 0.035509 0
26.310000 0.049297 0
26.315000 0.064567 0
26.320000 0.081372 0
26.325000 0.099704 0
26.330000 0.119513 0
26.335000 0.140702 0
26.340000 0.163127 0
26.345000 0.186597 0
26.350000 0.210872 0
26.355000 0.235663 0
26.360000 0.260642 0
26.365000 0.285440 0
26.370000 0.309662 0
26.375000 0.332890 0
26.380000 0.354700 0
26.385000 0.374673 0
26.390000 0.392403 0
26.395000 0.407518 0
26.400000 0.419687 0
26.405000 0.428634 0
26.410000 0.434147 0
26.415000 0.436087 5
26.420000 0.434391 0
26.425000 0.429078 0
26.430000 0.420246 0
26.435000 0.408069 0
26.440000 0.392791 0
26.445000 0.374720 0
26.450000 0.354212 0
26.455000 0.331665 0
26.460000 0.307500 0
26.465000 0.282156 0
26.470000 0.256065 0
26.475000 0.229652 0
26.480000 0.203316 0
26.485000 0.177421 0
26.490000 0.152295 0
26.495000 0.128215 0
26.500000 0.105412 0
26.505000 0.084066 0
26.510000 0.064305 0
26.515000 0.046211 0
26.520000 0.029822 0
26.525000 0.015134 0
26.530000 0.002113 0
26.535000 -0.009306 0
26.540000 -0.019210 0
26.545000 -0.027703 0
26.550000 -0.034898 0
26.555000 -0.040917 0
26.560000 -0.045882 0
26.565000 -0.049914 0
26.570000 -0.053130 0
26.575000 -0.055640 0
26.580000 -0.057546 0
26.585000 -0.058939 0
26.590000 -0.059903 0
26.595000 -0.060511 0
26.600000 -0.060827 0
26.605000 -0.060905 0
26.610000 -0.060792 0
26.615000 -0.060526 0
26.620000 -0.060141 0
26.625000 -0.059662 0
26.630000 -0.059079 0
26.635000 -0.058303 0
26.640000 -0.057530 0
26.645000 -0.056762 0
26.650000 -0.055998 0
26.655000 -0.055237 0
26.660000 -0.054480 0
26.665000 -0.053727 0
26.670000 -0.052978 0
26.675000 -0.052233 0
26.680000 -0.051491 0
26.685000 -0.050753 0
26.690000 -0.050018 0
26.695000 -0.049287 0
26.700000 -0.048560 0
26.705000 -0.047837 0
26.710000 -0.047117 0
26.715000 -0.046400 0
26.720000 -0.045687 0
26.725000 -0.044976 0
26.730000 -0.044269 0
26.735000 -0.043562 0
26.740000 -0.042857 0
26.745000 -0.042148 0
26.750000 -0.041434 0
26.755000 -0.040707 0
26.760000 -0.039957 0
26.765000 -0.039168 0
26.770000 -0.038316 0
26.775000 -0.037366 0
26.780000 -0.036269 0
26.785000 -0.034954 0
26.790000 -0.033328 0
26.795000 -0.031265 0
26.800000 -0.028609 0
26.805000 -0.025164 0
26.810000 -0.020699 0
26.815000 -0.014952 0
26.820000 -0.007638 0
26.825000 0.001533 0
26.830000 0.012830 0
26.835000 0.026475 0
26.840000 0.042606 0
26.845000 0.061239 0
26.850000 0.082234 0
26.855000 0.105270 0
26.860000 0.129827 0
26.865000 0.155190 0
26.870000 0.180470 0
26.875000 0.204650 0
26.880000 0.226648 0
26.885000 0.245394 0
26.890000 0.259914 0
26.895000 0.269415 0
26.900000 0.273354 1
26.905000 0.271491 0
26.910000 0.263910 0
26.915000 0.251013 0
26.920000 0.233485 0
26.925000 0.212229 0
26.930000 0.188296 0
26.935000 0.162790 0
26.940000 0.136792 0
26.945000 0.111277 0
26.950000 0.087049 0
26.955000 0.064677 0
26.960000 0.044389 0
26.965000 0.025904 0
26.970000 0.008182 0
26.975000 -0.010821 0
26.980000 -0.034051 0
26.985000 -0.064474 0
26.990000 -0.103157 0
26.995000 -0.146839 0
27.000000 -0.186308 0
27.005000 -0.206892 2
27.010000 -0.191073 0
27.015000 -0.121946 0
27.020000 0.013256 0
27.025000 0.218368 0
27.030000 0.480868 0
27.035000 0.764712 0
27.040000 1.011503 0
27.045000 1.156534 3
27.050000 1.154982 0
27.055000 1.003551 0
27.060000 0.743428 0
27.065000 0.439234 0
27.070000 0.152226 0
27.075000 -0.076584 0
27.080000 -0.228869 0
27.085000 -0.303725 0
27.090000 -0.312305 4
27.095000 -0.273977 0
27.100000 -0.211755 0
27.105000 -0.146338 0
27.110000 -0.091160 0
27.115000 -0.051029 0
27.120000 -0.024335 0
27.125000 -0.006672 0
27.130000 0.006323 0
27.135000 0.017728 0
27.140000 0.029286 0
27.145000 0.041841 0
27.150000 0.055755 0
27.155000 0.071173 0
27.160000 0.088140 0
27.165000 0.106645 0
27.170000 0.126628 0
27.175000 0.147986 0
27.180000 0.170567 0
27.185000 0.194166 0
27.190000 0.218532 0
27.195000 0.243366 0
27.200000 0.268324 0
27.205000 0.293028 0
27.210000 0.317069 0
27.215000 0.340021 0
27.220000 0.361453 0
27.225000 0.380940 0
27.230000 0.398077 0
27.235000 0.412495 0
27.240000 0.423868 0
27.245000 0.431933 0
27.250000 0.436491 0
27.255000 0.437422 5
27.260000 0.434685 0
27.265000 0.428322 0
27.270000 0.418455 0
27.275000 0.405283 0
27.280000 0.389075 0
27.285000 0.370161 0
27.290000 0.348918 0
27.295000 0.325759 0
27.300000 0.301121 0
27.305000 0.275447 0
27.310000 0.249177 0
27.315000 0.222733 0
27.320000 0.196508 0
27.325000 0.170861 0
27.330000 0.146103 0
27.335000 0.122500 0
27.340000 0.100263 0
27.345000 0.079555 0
27.350000 0.060485 0
27.355000 0.043116 0
27.360000 0.027469 0
27.365000 0.013524 0
27.370000 0.001233 0
27.375000 -0.009483 0
27.380000 -0.018719 0
27.385000 -0.026587 0
27.390000 -0.033207 0
27.395000 -0.038703 0
27.400000 -0.043199 0
27.405000 -0.046816 0
27.410000 -0.049670 0
27.415000 -0.051867 0
27.420000 -0.053507 0
27.425000 -0.054677 0
27.430000 -0.055457 0
27.435000 -0.055915 0
27.440000 -0.056111 0
27.445000 -0.056096 0
27.450000 -0.055912 0
27.455000 -0.055594 0
27.460000 -0.055172 0
27.465000 -0.054634 0
27.470000 -0.053880 0
27.475000 -0.053130 0
27.480000 -0.052383 0
27.485000 -0.051641 0
27.490000 -0.050902 0
27.495000 -0.050167 0
27.500000 -0.049435 0
27.505000 -0.048707 0
27.510000 -0.047983 0
27.515000 -0.047263 0
27.520000 -0.046545 0
27.525000 -0.045832 0
27.530000 -0.045122 0
27.535000 -0.044416 0
27.540000 -0.043713 0
27.545000 -0.043013 0
27.550000 -0.042317 0
27.555000 -0.041624 0
27.560000 -0.040935 0
27.565000 -0.040247 0
27.570000 -0.039562 0
27.575000 -0.038876 0
27.580000 -0.038190 0
27.585000 -0.037497 0
27.590000 -0.036793 0
27.595000 -0.036068 0
27.600000 -0.035306 0
27.605000 -0.034486 0
27.610000 -0.033573 0
27.615000 -0.032519 0
27.620000 -0.031256 0
27.625000 -0.029692 0
27.630000 -0.027704 0
27.635000 -0.025136 0
27.640000 -0.021794 0
27.645000 -0.017447 0
27.650000 -0.011828 0
27.655000 -0.004652 0
27.660000 0.004377 0
27.665000 0.015536 0
27.670000 0.029053 0
27.675000 0.045073 0
27.680000 0.063618 0
27.685000 0.084551 0
27.690000 0.107549 0
27.695000 0.132087 0
27.700000 0.157439 0
27.705000 0.182702 0
27.710000 0.206841 0
27.715000 0.228756 0
27.720000 0.247360 0
27.725000 0.261668 0
27.730000 0.270885 0
27.735000 0.274474 1
27.740000 0.272209 0
27.745000 0.264199 0
27.750000 0.250875 0
27.755000 0.232954 0
27.760000 0.211373 0
27.765000 0.187206 0
27.770000 0.161580 0
27.775000 0.135582 0
27.780000 0.110186 0
27.785000 0.086182 0
27.790000 0.064105 0
27.795000 0.044122 0
27.800000 0.025846 0
27.805000 0.008060 0
27.810000 -0.011494 0
27.815000 -0.035911 0
27.820000 -0.068013 0
27.825000 -0.108199 0
27.830000 -0.151977 0
27.835000 -0.188664 0
27.840000 -0.202422 2
27.845000 -0.175282 0
27.850000 -0.090734 0
27.855000 0.062492 0
27.860000 0.284830 0
27.865000 0.557760 0
27.870000 0.837773 0
27.875000 1.061446 0
27.880000 1.166121 3
27.885000 1.118331 0
27.890000 0.930284 0
27.895000 0.651431 0
27.900000 0.346475 0
27.905000 0.071101 0
27.910000 -0.140384 0
27.915000 -0.274696 0
27.920000 -0.334005 4
27.925000 -0.331231 0
27.930000 -0.286443 0
27.935000 -0.222166 0
27.940000 -0.157639 0
27.945000 -0.104566 0
27.950000 -0.066458 0
27.955000 -0.041125 0
27.960000 -0.024136 0
27.965000 -0.011340 0
27.970000 0.000114 0
27.975000 0.011824 0
27.980000 0.024559 0
27.985000 0.038651 0
27.990000 0.054232 0
27.995000 0.071344 0
28.000000 0.089972 0
28.005000 0.110059 0
28.010000 0.131502 0
28.015000 0.154152 0
28.020000 0.177810 0
28.025000 0.202233 0
28.030000 0.227129 0
28.035000 0.252164 0
28.040000 0.276971 0
28.045000 0.301151 0
28.050000 0.324292 0
28.055000 0.345971 0
28.060000 0.365771 0
28.065000 0.383296 0
28.070000 0.398177 0
28.075000 0.410093 0
28.080000 0.418775 0
28.085000 0.424020 0
28.090000 0.425695 5
28.095000 0.423746 0
28.100000 0.418198 0
28.105000 0.409155 0
28.110000 0.396795 0
28.115000 0.381366 0
28.120000 0.363176 0
28.125000 0.342582 0
28.130000 0.319982 0
28.135000 0.295794 0
28.140000 0.270453 0
28.145000 0.244391 0
28.150000 0.218026 0
28.155000 0.191753 0
28.160000 0.165933 0
28.165000 0.140889 0
28.170000 0.116896 0
28.175000 0.094180 0
28.180000 0.072919 0
28.185000 0.053239 0
28.190000 0.035222 0
28.195000 0.018902 0
28.200000 0.004279 0
28.205000 -0.008685 0
28.210000 -0.020053 0
28.215000 -0.029911 0
28.220000 -0.038362 0
28.225000 -0.045520 0
28.230000 -0.051503 0
28.235000 -0.056435 0
28.240000 -0.060435 0
28.245000 -0.063619 0
28.250000 -0.066097 0
28.255000 -0.067969 0
28.260000 -0.069328 0
28.265000 -0.070257 0
28.270000 -0.070829 0
28.275000 -0.071106 0
28.280000 -0.071144 0
28.285000 -0.070990 0
28.290000 -0.070682 0
28.295000 -0.070253 0
28.300000 -0.069729 0
28.305000 -0.069099 0
28.310000 -0.068274 0
28.315000 -0.067452 0
28.320000 -0.066634 0
28.325000 -0.065820 0
28.330000 -0.065011 0
28.335000 -0.064205 0
28.340000 -0.063404 0
28.345000 -0.062606 0
28.350000 -0.061813 0
28.355000 -0.061023 0
28.360000 -0.060237 0
28.365000 -0.059456 0
28.370000 -0.058678 0
28.375000 -0.057904 0
28.380000 -0.057133 0
28.385000 -0.056367 0
28.390000 -0.055604 0
