0.000000 1.162392 3
0.005000 1.043868 0
0.010000 0.747346 0
0.015000 0.375210 0
0.020000 0.030414 0
0.025000 -0.222757 0
0.030000 -0.362401 0
0.035000 -0.396696 4
0.040000 -0.353396 0
0.045000 -0.270246 0
0.050000 -0.182061 0
0.055000 -0.109633 0
0.060000 -0.057664 0
0.065000 -0.020946 0
0.070000 0.007972 0
0.075000 0.034532 0
0.080000 0.061483 0
0.085000 0.089767 0
0.090000 0.119440 0
0.095000 0.150176 0
0.100000 0.181480 0
0.105000 0.212756 0
0.110000 0.243338 0
0.115000 0.272517 0
0.120000 0.299563 0
0.125000 0.323760 0
0.130000 0.344432 0
0.135000 0.360977 0
0.140000 0.372895 0
0.145000 0.379811 0
0.150000 0.381497 5
0.155000 0.377881 0
0.160000 0.369053 0
0.165000 0.355260 0
0.170000 0.336895 0
0.175000 0.314479 0
0.180000 0.288631 0
0.185000 0.260047 0
0.190000 0.229461 0
0.195000 0.197622 0
0.200000 0.165255 0
0.205000 0.133041 0
0.210000 0.101594 0
0.215000 0.071440 0
0.220000 0.043012 0
0.225000 0.016641 0
0.230000 -0.007443 0
0.235000 -0.029106 0
0.240000 -0.048301 0
0.245000 -0.065057 0
0.250000 -0.079463 0
0.255000 -0.091660 0
0.260000 -0.101821 0
0.265000 -0.110143 0
0.270000 -0.116833 0
0.275000 -0.122099 0
0.280000 -0.126141 0
0.285000 -0.129150 0
0.290000 -0.131297 0
0.295000 -0.132737 0
0.300000 -0.133605 0
0.305000 -0.132843 0
0.310000 -0.131809 0
0.315000 -0.130780 0
0.320000 -0.129756 0
0.325000 -0.128737 0
0.330000 -0.127723 0
0.335000 -0.126714 0
0.340000 -0.125708 0
0.345000 -0.124706 0
0.350000 -0.123705 0
0.355000 -0.122701 0
0.360000 -0.121687 0
0.365000 -0.120652 0
0.370000 -0.119575 0
0.375000 -0.118423 0
0.380000 -0.117144 0
0.385000 -0.115655 0
0.390000 -0.113839 0
0.395000 -0.111523 0
0.400000 -0.108475 0
0.405000 -0.104390 0
0.410000 -0.098892 0
0.415000 -0.091533 0
0.420000 -0.081827 0
0.425000 -0.069279 0
0.430000 -0.053453 0
0.435000 -0.034046 0
0.440000 -0.010973 0
0.445000 0.015551 0
0.450000 0.044938 0
0.455000 0.076205 0
0.460000 0.107988 0
0.465000 0.138619 0
0.470000 0.166257 0
0.475000 0.189072 0
0.480000 0.205436 0
0.485000 0.214123 0
0.490000 0.214456 1
0.495000 0.206397 0
0.500000 0.190553 0
0.505000 0.168103 0
0.510000 0.140651 0
0.515000 0.110033 0
0.520000 0.078091 0
0.525000 0.046410 0
0.530000 0.015936 0
0.535000 -0.013608 0
0.540000 -0.044418 0
0.545000 -0.080733 0
0.550000 -0.127057 0
0.555000 -0.183667 0
0.560000 -0.241185 0
0.565000 -0.278498 2
0.570000 -0.266708 0
0.575000 -0.176832 0
0.580000 0.011736 0
0.585000 0.299154 0
0.590000 0.647305 0
0.595000 0.970281 0
0.600000 1.158048 3
0.605000 1.132969 0
0.610000 0.900601 0
0.615000 0.545942 0
0.620000 0.179566 0
0.625000 -0.115357 0
0.630000 -0.300616 0
0.635000 -0.373906 4
0.640000 -0.356551 0
0.645000 -0.284145 0
0.650000 -0.194613 0
0.655000 -0.115110 0
0.660000 -0.056017 0
0.665000 -0.014770 0
0.670000 0.016060 0
0.675000 0.042920 0
0.680000 0.069475 0
0.685000 0.097185 0
0.690000 0.126333 0
0.695000 0.156685 0
0.700000 0.187784 0
0.705000 0.219056 0
0.710000 0.249850 0
0.715000 0.279458 0
0.720000 0.307147 0
0.725000 0.332185 0
0.730000 0.353874 0
0.735000 0.371581 0
0.740000 0.384768 0
0.745000 0.393018 0
0.750000 0.396058 5
0.755000 0.393772 0
0.760000 0.386207 0
0.765000 0.373573 0
0.770000 0.356231 0
0.775000 0.334676 0
0.780000 0.309514 0
0.785000 0.281430 0
0.790000 0.251162 0
0.795000 0.219464 0
0.800000 0.187078 0
0.805000 0.154704 0
0.810000 0.122977 0
0.815000 0.092450 0
0.820000 0.063579 0
0.825000 0.036718 0
0.830000 0.012120 0
0.835000 -0.010062 0
0.840000 -0.029765 0
0.845000 -0.047006 0
0.850000 -0.061867 0
0.855000 -0.074481 0
0.860000 -0.085020 0
0.865000 -0.093679 0
0.870000 -0.100667 0
0.875000 -0.106193 0
0.880000 -0.110463 0
0.885000 -0.113669 0
0.890000 -0.115988 0
0.895000 -0.117578 0
0.900000 -0.118579 0
0.905000 -0.117900 0
0.910000 -0.116941 0
0.915000 -0.115986 0
0.920000 -0.115036 0
0.925000 -0.114090 0
0.930000 -0.113149 0
0.935000 -0.112213 0
0.940000 -0.111280 0
0.945000 -0.110350 0
0.950000 -0.109420 0
0.955000 -0.108488 0
0.960000 -0.107546 0
0.965000 -0.106583 0
0.970000 -0.105578 0
0.975000 -0.104500 0
0.980000 -0.103294 0
0.985000 -0.101880 0
0.990000 -0.100139 0
0.995000 -0.097898 0
1.000000 -0.094922 0
1.005000 -0.090906 0
1.010000 -0.085465 0
1.015000 -0.078151 0
1.020000 -0.068469 0
1.025000 -0.055921 0
1.030000 -0.040069 0
1.035000 -0.020610 0
1.040000 0.002534 0
1.045000 0.029131 0
1.050000 0.058572 0
1.055000 0.089843 0
1.060000 0.121548 0
1.065000 0.151985 0
1.070000 0.179292 0
1.075000 0.201624 0
1.080000 0.217363 0
1.085000 0.225305 1
1.090000 0.224821 0
1.095000 0.215931 0
1.100000 0.199308 0
1.105000 0.176193 0
1.110000 0.148243 0
1.115000 0.117323 0
1.120000 0.085282 0
1.125000 0.053665 0
1.130000 0.023308 0
1.135000 -0.006288 0
1.140000 -0.037647 0
1.145000 -0.075261 0
1.150000 -0.123389 0
1.155000 -0.181132 0
1.160000 -0.237120 0
1.165000 -0.268303 2
1.170000 -0.244888 0
1.175000 -0.138425 0
1.180000 0.069273 0
1.185000 0.372604 0
1.190000 0.723868 0
1.195000 1.028283 0
1.200000 1.176265 3
1.205000 1.104790 0
1.210000 0.838723 0
1.215000 0.473050 0
1.220000 0.115699 0
1.225000 -0.159271 0
1.230000 -0.321974 0
1.235000 -0.375537 4
1.240000 -0.344666 0
1.245000 -0.266296 0
1.250000 -0.177062 0
1.255000 -0.101026 0
1.260000 -0.045628 0
1.265000 -0.006834 0
1.270000 0.022887 0
1.275000 0.049495 0
1.280000 0.076179 0
1.285000 0.104125 0
1.290000 0.133490 0
1.295000 0.163990 0
1.300000 0.195148 0
1.305000 0.226378 0
1.310000 0.257019 0
1.315000 0.286362 0
1.320000 0.313676 0
1.325000 0.338233 0
1.330000 0.359349 0
1.335000 0.376404 0
1.340000 0.388880 0
1.345000 0.396381 0
1.350000 0.398657 5
1.355000 0.395615 0
1.360000 0.387327 0
1.365000 0.374020 0
1.370000 0.356076 0
1.375000 0.334002 0
1.380000 0.308413 0
1.385000 0.280001 0
1.390000 0.249504 0
1.395000 0.217673 0
1.400000 0.185243 0
1.405000 0.152903 0
1.410000 0.121278 0
1.415000 0.090907 0
1.420000 0.062233 0
1.425000 0.035599 0
1.430000 0.011243 0
1.435000 -0.010691 0
1.440000 -0.030150 0
1.445000 -0.047158 0
1.450000 -0.061801 0
1.455000 -0.074218 0
1.460000 -0.084581 0
1.465000 -0.093087 0
1.470000 -0.099944 0
1.475000 -0.105361 0
1.480000 -0.109541 0
1.485000 -0.112674 0
1.490000 -0.114936 0
1.495000 -0.116483 0
1.500000 -0.117450 0
1.505000 -0.116771 0
1.510000 -0.115817 0
1.515000 -0.114868 0
1.520000 -0.113924 0
1.525000 -0.112984 0
1.530000 -0.112049 0
1.535000 -0.111117 0
1.540000 -0.110190 0
1.545000 -0.109265 0
1.550000 -0.108341 0
1.555000 -0.107413 0
1.560000 -0.106476 0
1.565000 -0.105516 0
1.570000 -0.104514 0
1.575000 -0.103437 0
1.580000 -0.102230 0
1.585000 -0.100812 0
1.590000 -0.099061 0
1.595000 -0.096806 0
1.600000 -0.093809 0
1.605000 -0.089764 0
1.610000 -0.084287 0
1.615000 -0.076929 0
1.620000 -0.067197 0
1.625000 -0.054596 0
1.630000 -0.038692 0
1.635000 -0.019185 0
1.640000 0.003997 0
1.645000 0.030619 0
1.650000 0.060071 0
1.655000 0.091343 0
1.660000 0.123040 0
1.665000 0.153468 0
1.670000 0.180773 0
1.675000 0.203119 0
1.680000 0.218892 0
1.685000 0.226893 1
1.690000 0.226488 0
1.695000 0.217692 0
1.700000 0.201168 0
1.705000 0.178143 0
1.710000 0.150260 0
1.715000 0.119378 0
1.720000 0.087337 0
1.725000 0.055688 0
1.730000 0.025288 0
1.735000 -0.004311 0
1.740000 -0.035553 0
1.745000 -0.072869 0
1.750000 -0.120576 0
1.755000 -0.178081 0
1.760000 -0.234536 0
1.765000 -0.267416 2
1.770000 -0.247188 0
1.775000 -0.145282 0
1.780000 0.057158 0
1.785000 0.356200 0
1.790000 0.706930 0
1.795000 1.017109 0
1.800000 1.176905 3
1.805000 1.118809 0
1.810000 0.861733 0
1.815000 0.498542 0
1.820000 0.138566 0
1.825000 -0.141407 0
1.830000 -0.309352 0
1.835000 -0.367189 4
1.840000 -0.339029 0
1.845000 -0.261745 0
1.850000 -0.172436 0
1.855000 -0.095851 0
1.860000 -0.039944 0
1.865000 -0.000866 0
1.870000 0.028945 0
1.875000 0.055541 0
1.880000 0.082179 0
1.885000 0.110076 0
1.890000 0.139397 0
1.895000 0.169861 0
1.900000 0.200988 0
1.905000 0.232188 0
1.910000 0.262798 0
1.915000 0.292104 0
1.920000 0.319369 0
1.925000 0.343865 0
1.930000 0.364899 0
1.935000 0.381853 0
1.940000 0.394205 0
1.945000 0.401560 0
1.950000 0.403672 5
1.955000 0.400450 0
1.960000 0.391969 0
1.965000 0.378468 0
1.970000 0.360330 0
1.975000 0.338073 0
1.980000 0.312319 0
1.985000 0.283766 0
1.990000 0.253158 0
1.995000 0.221251 0
2.000000 0.188781 0
2.005000 0.156440 0
2.010000 0.124850 0
2.015000 0.094550 0
2.020000 0.065977 0
2.025000 0.039469 0
2.030000 0.015260 0
2.035000 -0.006513 0
2.040000 -0.025803 0
2.045000 -0.042640 0
2.050000 -0.057116 0
2.055000 -0.069372 0
2.060000 -0.079585 0
2.065000 -0.087955 0
2.070000 -0.094691 0
2.075000 -0.100003 0
2.080000 -0.104095 0
2.085000 -0.107157 0
2.090000 -0.109362 0
2.095000 -0.110865 0
2.100000 -0.111803 0
2.105000 -0.111143 0
2.110000 -0.110217 0
2.115000 -0.109296 0
2.120000 -0.108379 0
2.125000 -0.107467 0
2.130000 -0.106559 0
2.135000 -0.105655 0
2.140000 -0.104755 0
2.145000 -0.103857 0
2.150000 -0.102959 0
2.155000 -0.102056 0
2.160000 -0.101142 0
2.165000 -0.100204 0
2.170000 -0.099218 0
2.175000 -0.098150 0
2.180000 -0.096940 0
2.185000 -0.095502 0
2.190000 -0.093705 0
2.195000 -0.091365 0
2.200000 -0.088234 0
2.205000 -0.083988 0
2.210000 -0.078229 0
2.215000 -0.070496 0
2.220000 -0.060287 0
2.225000 -0.047112 0
2.230000 -0.030553 0
2.235000 -0.010346 0
2.240000 0.013529 0
2.245000 0.040763 0
2.250000 0.070662 0
2.255000 0.102127 0
2.260000 0.133684 0
2.265000 0.163583 0
2.270000 0.189943 0
2.275000 0.210951 0
2.280000 0.225058 0
2.285000 0.231174 1
2.290000 0.228805 0
2.295000 0.218117 0
2.300000 0.199919 0
2.305000 0.175560 0
2.310000 0.146764 0
2.315000 0.115416 0
2.320000 0.083327 0
2.325000 0.051929 0
2.330000 0.021822 0
2.335000 -0.007896 0
2.340000 -0.040252 0
2.345000 -0.079989 0
2.350000 -0.130709 0
2.355000 -0.189523 0
2.360000 -0.242261 0
2.365000 -0.263671 2
2.370000 -0.223485 0
2.375000 -0.094715 0
2.380000 0.136832 0
2.385000 0.457370 0
2.390000 0.807543 0
2.395000 1.084535 0
2.400000 1.183752 3
2.405000 1.060133 0
2.410000 0.758647 0
2.415000 0.385595 0
2.420000 0.045382 0
2.425000 -0.198968 0
2.430000 -0.327905 0
2.435000 -0.352158 4
2.440000 -0.301944 0
2.445000 -0.216464 0
2.450000 -0.130019 0
2.455000 -0.061305 0
2.460000 -0.012875 0
2.465000 0.021553 0
2.470000 0.049436 0
2.475000 0.075752 0
2.480000 0.102813 0
2.485000 0.131301 0
2.490000 0.161136 0
2.495000 0.191926 0
2.500000 0.223126 0
2.505000 0.254098 0
2.510000 0.284140 0
2.515000 0.312512 0
2.520000 0.338463 0
2.525000 0.361268 0
2.530000 0.380255 0
2.535000 0.394843 0
2.540000 0.404565 0
2.545000 0.409096 5
2.550000 0.408269 0
2.555000 0.402084 0
2.560000 0.390711 0
2.565000 0.374476 0
2.570000 0.353850 0
2.575000 0.329425 0
2.580000 0.301882 0
2.585000 0.271963 0
2.590000 0.240435 0
2.595000 0.208058 0
2.600000 0.175557 0
2.605000 0.143593 0
2.610000 0.112745 0
2.615000 0.083496 0
2.620000 0.056225 0
2.625000 0.031204 0
2.630000 0.008605 0
2.635000 -0.011497 0
2.640000 -0.029109 0
2.645000 -0.044306 0
2.650000 -0.057220 0
2.655000 -0.068021 0
2.660000 -0.076908 0
2.665000 -0.084091 0
2.670000 -0.089785 0
2.675000 -0.094198 0
2.680000 -0.097529 0
2.685000 -0.099957 0
2.690000 -0.101645 0
2.695000 -0.102734 0
2.700000 -0.102135 0
2.705000 -0.101254 0
2.710000 -0.100378 0
2.715000 -0.099505 0
2.720000 -0.098637 0
2.725000 -0.097774 0
2.730000 -0.096914 0
2.735000 -0.096057 0
2.740000 -0.095202 0
2.745000 -0.094348 0
2.750000 -0.093490 0
2.755000 -0.092621 0
2.760000 -0.091729 0
2.765000 -0.090791 0
2.770000 -0.089773 0
2.775000 -0.088619 0
2.780000 -0.087239 0
2.785000 -0.085507 0
2.790000 -0.083238 0
2.795000 -0.080182 0
2.800000 -0.076012 0
2.805000 -0.070328 0
2.810000 -0.062658 0
2.815000 -0.052495 0
2.820000 -0.039339 0
2.825000 -0.022766 0
2.830000 -0.002510 0
2.835000 0.021441 0
2.840000 0.048763 0
2.845000 0.078734 0
2.850000 0.110215 0
2.855000 0.141688 0
2.860000 0.171359 0
2.865000 0.197315 0
2.870000 0.217724 0
2.875000 0.231048 0
2.880000 0.236233 1
2.885000 0.232846 0
2.890000 0.221136 0
2.895000 0.202001 0
2.900000 0.176874 0
2.905000 0.147544 0
2.910000 0.115936 0
2.915000 0.083851 0
2.920000 0.052639 0
2.925000 0.022696 0
2.930000 -0.007260 0
2.935000 -0.040739 0
2.940000 -0.082655 0
2.945000 -0.135770 0
2.950000 -0.194924 0
2.955000 -0.242879 0
2.960000 -0.252050 2
2.965000 -0.191691 0
2.970000 -0.036614 0
2.975000 0.221936 0
2.980000 0.558838 0
2.985000 0.899636 0
2.990000 1.133291 0
2.995000 1.165477 3
3.000000 0.978446 0
3.005000 0.642746 0
3.010000 0.270149 0
3.015000 -0.045524 0
3.020000 -0.255579 0
3.025000 -0.351012 4
3.030000 -0.349290 0
3.035000 -0.284472 0
3.040000 -0.195685 0
3.045000 -0.113268 0
3.050000 -0.050727 0
3.055000 -0.007137 0
3.060000 0.024748 0
3.065000 0.051831 0
3.070000 0.078241 0
3.075000 0.105707 0
3.080000 0.134625 0
3.085000 0.164800 0
3.090000 0.195787 0
3.095000 0.227015 0
3.100000 0.257827 0
3.105000 0.287510 0
3.110000 0.315320 0
3.115000 0.340514 0
3.120000 0.362379 0
3.125000 0.380266 0
3.130000 0.393624 0
3.135000 0.402024 0
3.140000 0.405181 5
3.145000 0.402972 0
3.150000 0.395442 0
3.155000 0.382801 0
3.160000 0.365414 0
3.165000 0.343783 0
3.170000 0.318524 0
3.175000 0.290335 0
3.180000 0.259964 0
3.185000 0.228177 0
3.190000 0.195727 0
3.195000 0.163320 0
3.200000 0.131599 0
3.205000 0.101119 0
3.210000 0.072336 0
3.215000 0.045602 0
3.220000 0.021165 0
3.225000 -0.000829 0
3.230000 -0.020323 0
3.235000 -0.037344 0
3.240000 -0.051980 0
3.245000 -0.064372 0
3.250000 -0.074699 0
3.255000 -0.083160 0
3.260000 -0.089969 0
3.265000 -0.095338 0
3.270000 -0.099474 0
3.275000 -0.102569 0
3.280000 -0.104801 0
3.285000 -0.106327 0
3.290000 -0.107282 0
3.295000 -0.106644 0
3.300000 -0.105741 0
3.305000 -0.104842 0
3.310000 -0.103948 0
3.315000 -0.103057 0
3.320000 -0.102172 0
3.325000 -0.101289 0
3.330000 -0.100411 0
3.335000 -0.099534 0
3.340000 -0.098657 0
3.345000 -0.097775 0
3.350000 -0.096880 0
3.355000 -0.095959 0
3.360000 -0.094988 0
3.365000 -0.093927 0
3.370000 -0.092716 0
3.375000 -0.091260 0
3.380000 -0.089423 0
3.385000 -0.087009 0
3.390000 -0.083755 0
3.395000 -0.079323 0
3.400000 -0.073298 0
3.405000 -0.065203 0
3.410000 -0.054529 0
3.415000 -0.040784 0
3.420000 -0.023568 0
3.425000 -0.002652 0
3.430000 0.021923 0
3.435000 0.049770 0
3.440000 0.080101 0
3.445000 0.111713 0
3.450000 0.143039 0
3.455000 0.172258 0
3.460000 0.197463 0
3.465000 0.216861 0
3.470000 0.228983 0
3.475000 0.232867 1
3.480000 0.228187 0
3.485000 0.215294 0
3.490000 0.195173 0
3.495000 0.169320 0
3.500000 0.139551 0
3.505000 0.107785 0
3.510000 0.075776 0
3.515000 0.044769 0
3.520000 0.014968 0
3.525000 -0.015199 0
3.530000 -0.049525 0
3.535000 -0.092893 0
3.540000 -0.147342 0
3.545000 -0.206259 0
3.550000 -0.250841 0
3.555000 -0.252698 2
3.560000 -0.181403 0
3.565000 -0.013226 0
3.570000 0.257396 0
3.575000 0.599853 0
3.580000 0.933888 0
3.585000 1.147344 0
3.590000 1.152662 3
3.595000 0.943491 0
3.600000 0.598145 0
3.605000 0.227770 0
3.610000 -0.078967 0
3.615000 -0.278341 0
3.620000 -0.364383 4
3.625000 -0.356136 0
3.630000 -0.288158 0
3.635000 -0.198950 0
3.640000 -0.117508 0
3.645000 -0.056120 0
3.650000 -0.013277 0
3.655000 0.018299 0
3.660000 0.045333 0
3.665000 0.071797 0
3.670000 0.099337 0
3.675000 0.128319 0
3.680000 0.158544 0
3.685000 0.189569 0
3.690000 0.220828 0
3.695000 0.251673 0
3.700000 0.281398 0
3.705000 0.309270 0
3.710000 0.334551 0
3.715000 0.356538 0
3.720000 0.374588 0
3.725000 0.388152 0
3.730000 0.396801 0
3.735000 0.400247 5
3.740000 0.398361 0
3.745000 0.391179 0
3.750000 0.378896 0
3.755000 0.361866 0
3.760000 0.340575 0
3.765000 0.315624 0
3.770000 0.287697 0
3.775000 0.257531 0
3.780000 0.225882 0
3.785000 0.193496 0
3.790000 0.161080 0
3.795000 0.129276 0
3.800000 0.098643 0
3.805000 0.069645 0
3.810000 0.042643 0
3.815000 0.017898 0
3.820000 -0.004434 0
3.825000 -0.024284 0
3.830000 -0.041666 0
3.835000 -0.056658 0
3.840000 -0.069392 0
3.845000 -0.080039 0
3.850000 -0.088795 0
3.855000 -0.095867 0
3.860000 -0.101468 0
3.865000 -0.105802 0
3.870000 -0.109064 0
3.875000 -0.111432 0
3.880000 -0.113066 0
3.885000 -0.114104 0
3.890000 -0.113450 0
3.895000 -0.112513 0
3.900000 -0.111580 0
3.905000 -0.110652 0
3.910000 -0.109728 0
3.915000 -0.108809 0
3.920000 -0.107894 0
3.925000 -0.106983 0
3.930000 -0.106074 0
3.935000 -0.105166 0
3.940000 -0.104255 0
3.945000 -0.103334 0
3.950000 -0.102392 0
3.955000 -0.101409 0
3.960000 -0.100352 0
3.965000 -0.099167 0
3.970000 -0.097774 0
3.975000 -0.096052 0
3.980000 -0.093829 0
3.985000 -0.090870 0
3.990000 -0.086865 0
3.995000 -0.081431 0
4.000000 -0.074115 0
4.005000 -0.064421 0
4.010000 -0.051851 0
4.015000 -0.035964 0
4.020000 -0.016461 0
4.025000 0.006733 0
4.030000 0.033376 0
4.035000 0.062852 0
4.040000 0.094133 0
4.045000 0.125810 0
4.050000 0.156170 0
4.055000 0.183341 0
4.060000 0.205476 0
4.065000 0.220961 0
4.070000 0.228607 1
4.075000 0.227800 0
4.080000 0.218587 0
4.085000 0.201666 0
4.090000 0.178303 0
4.095000 0.150171 0
4.100000 0.119147 0
4.105000 0.087079 0
4.110000 0.055495 0
4.115000 0.025184 0
4.120000 -0.004439 0
4.125000 -0.036022 0
4.130000 -0.074141 0
4.135000 -0.122931 0
4.140000 -0.181019 0
4.145000 -0.236287 0
4.150000 -0.265008 2
4.155000 -0.237129 0
4.160000 -0.124476 0
4.165000 0.090135 0
4.170000 0.398824 0
4.175000 0.750322 0
4.180000 1.046936 0
4.185000 1.179931 3
4.190000 1.091411 0
4.195000 0.812791 0
4.200000 0.443744 0
4.205000 0.091887 0
4.210000 -0.172181 0
4.215000 -0.322272 0
4.220000 -0.364427 4
4.225000 -0.325634 0
4.230000 -0.244014 0
4.235000 -0.155606 0
4.240000 -0.082479 0
4.245000 -0.030044 0
4.250000 0.006795 0
4.255000 0.035637 0
4.260000 0.062062 0
4.265000 0.088884 0
4.270000 0.117059 0
4.275000 0.146631 0
4.280000 0.177267 0
4.285000 0.208454 0
4.290000 0.239583 0
4.295000 0.269972 0
4.300000 0.298894 0
4.305000 0.325607 0
4.310000 0.349382 0
4.315000 0.369536 0
4.320000 0.385464 0
4.325000 0.396670 0
4.330000 0.402789 0
4.335000 0.403608 5
4.340000 0.399078 0
4.345000 0.389314 0
4.350000 0.374594 0
4.355000 0.355342 0
4.360000 0.332108 0
4.365000 0.305541 0
4.370000 0.276361 0
4.375000 0.245323 0
4.380000 0.213184 0
4.385000 0.180679 0
4.390000 0.148485 0
4.395000 0.117208 0
4.400000 0.087361 0
4.405000 0.059357 0
4.410000 0.033505 0
4.415000 0.010011 0
4.420000 -0.011017 0
4.425000 -0.029553 0
4.430000 -0.045651 0
4.435000 -0.059418 0
4.440000 -0.071012 0
4.445000 -0.080617 0
4.450000 -0.088441 0
4.455000 -0.094694 0
4.460000 -0.099586 0
4.465000 -0.103320 0
4.470000 -0.106081 0
4.475000 -0.108037 0
4.480000 -0.109339 0
4.485000 -0.109870 0
4.490000 -0.108950 0
4.495000 -0.108035 0
4.500000 -0.107125 0
4.505000 -0.106219 0
4.510000 -0.105318 0
4.515000 -0.104420 0
4.520000 -0.103527 0
4.525000 -0.102636 0
4.530000 -0.101747 0
4.535000 -0.100857 0
4.540000 -0.099960 0
4.545000 -0.099047 0
4.550000 -0.098101 0
4.555000 -0.097097 0
4.560000 -0.095988 0
4.565000 -0.094705 0
4.570000 -0.093145 0
4.575000 -0.091156 0
4.580000 -0.088526 0
4.585000 -0.084973 0
4.590000 -0.080140 0
4.595000 -0.073596 0
4.600000 -0.064855 0
4.605000 -0.053409 0
4.610000 -0.038788 0
4.615000 -0.020627 0
4.620000 0.001239 0
4.625000 0.026692 0
4.630000 0.055250 0
4.635000 0.086026 0
4.640000 0.117732 0
4.645000 0.148738 0
4.650000 0.177199 0
4.655000 0.201226 0
4.660000 0.219093 0
4.665000 0.229443 0
4.670000 0.231452 1
4.675000 0.224942 0
4.680000 0.210407 0
4.685000 0.188947 0
4.690000 0.162132 0
4.695000 0.131808 0
4.700000 0.099870 0
4.705000 0.067991 0
4.710000 0.037255 0
4.715000 0.007582 0
4.720000 -0.023004 0
4.725000 -0.058632 0
4.730000 -0.104021 0
4.735000 -0.160073 0
4.740000 -0.218177 0
4.745000 -0.257611 2
4.750000 -0.249214 0
4.755000 -0.163250 0
4.760000 0.021830 0
4.765000 0.307103 0
4.770000 0.654775 0
4.775000 0.977913 0
4.780000 1.164482 3
4.785000 1.136704 0
4.790000 0.901637 0
4.795000 0.545732 0
4.800000 0.180214 0
4.805000 -0.112134 0
4.810000 -0.293943 0
4.815000 -0.363760 4
4.820000 -0.343694 0
4.825000 -0.269928 0
4.830000 -0.180443 0
4.835000 -0.101880 0
4.840000 -0.043910 0
4.845000 -0.003498 0
4.850000 0.026896 0
4.855000 0.053612 0
4.860000 0.080173 0
4.865000 0.107941 0
4.870000 0.137147 0
4.875000 0.167533 0
4.880000 0.198628 0
4.885000 0.229845 0
4.890000 0.260522 0
4.895000 0.289943 0
4.900000 0.317368 0
4.905000 0.342063 0
4.910000 0.363328 0
4.915000 0.380535 0
4.920000 0.393154 0
4.925000 0.400779 0
4.930000 0.403154 5
4.935000 0.400180 0
4.940000 0.391925 0
4.945000 0.378621 0
4.950000 0.360650 0
4.955000 0.338526 0
4.960000 0.312873 0
4.965000 0.284391 0
4.970000 0.253827 0
4.975000 0.221941 0
4.980000 0.189475 0
4.985000 0.157125 0
4.990000 0.125521 0
4.995000 0.095202 0
5.000000 0.066613 0
5.005000 0.040092 0
5.010000 0.015876 0
5.015000 -0.005898 0
5.020000 -0.025182 0
5.025000 -0.042005 0
5.030000 -0.056462 0
5.035000 -0.068694 0
5.040000 -0.078881 0
5.045000 -0.087223 0
5.050000 -0.093930 0
5.055000 -0.099215 0
5.060000 -0.103280 0
5.065000 -0.106318 0
5.070000 -0.108501 0
5.075000 -0.109987 0
5.080000 -0.110909 0
5.085000 -0.110251 0
5.090000 -0.109329 0
5.095000 -0.108413 0
5.100000 -0.107500 0
5.105000 -0.106593 0
5.110000 -0.105689 0
5.115000 -0.104789 0
5.120000 -0.103893 0
5.125000 -0.102999 0
5.130000 -0.102105 0
5.135000 -0.101206 0
5.140000 -0.100294 0
5.145000 -0.099357 0
5.150000 -0.098370 0
5.155000 -0.097296 0
5.160000 -0.096075 0
5.165000 -0.094614 0
5.170000 -0.092779 0
5.175000 -0.090379 0
5.180000 -0.087157 0
5.185000 -0.082781 0
5.190000 -0.076842 0
5.195000 -0.068870 0
5.200000 -0.058361 0
5.205000 -0.044825 0
5.210000 -0.027855 0
5.215000 -0.007208 0
5.220000 0.017097 0
5.225000 0.044709 0
5.230000 0.074877 0
5.235000 0.106444 0
5.240000 0.137884 0
5.245000 0.167410 0
5.250000 0.193128 0
5.255000 0.213238 0
5.260000 0.226237 0
5.265000 0.231110 1
5.270000 0.227455 0
5.275000 0.215540 0
5.280000 0.196273 0
5.285000 0.171081 0
5.290000 0.141738 0
5.295000 0.110148 0
5.300000 0.078091 0
5.305000 0.046903 0
5.310000 0.016981 0
5.315000 -0.012922 0
5.320000 -0.046244 0
5.325000 -0.087846 0
5.330000 -0.140593 0
5.335000 -0.199726 0
5.340000 -0.248654 0
5.345000 -0.260405 2
5.350000 -0.204518 0
5.355000 -0.055539 0
5.360000 0.196595 0
5.365000 0.529852 0
5.370000 0.874098 0
5.375000 1.120776 0
5.380000 1.172650 3
5.385000 1.004717 0
5.390000 0.680091 0
5.395000 0.306087 0
5.400000 -0.021671 0
5.405000 -0.249616 0
5.410000 -0.363953 0
5.415000 -0.378006 4
5.420000 -0.322571 0
5.425000 -0.235767 0
5.430000 -0.149901 0
5.435000 -0.082008 0
5.440000 -0.033965 0
5.445000 0.000452 0
5.450000 0.028453 0
5.455000 0.054869 0
5.460000 0.081980 0
5.465000 0.110481 0
5.470000 0.140323 0
5.475000 0.171140 0
5.480000 0.202413 0
5.485000 0.233535 0
5.490000 0.263833 0
5.495000 0.292594 0
5.500000 0.319092 0
5.505000 0.342621 0
5.510000 0.362517 0
5.515000 0.378199 0
5.520000 0.389189 0
5.525000 0.395138 0
5.530000 0.395845 5
5.535000 0.391267 0
5.540000 0.381520 0
5.545000 0.366875 0
5.550000 0.347746 0
5.555000 0.324667 0
5.560000 0.298272 0
5.565000 0.269260 0
5.570000 0.238367 0
5.575000 0.206334 0
5.580000 0.173881 0
5.585000 0.141676 0
5.590000 0.110318 0
5.595000 0.080318 0
5.600000 0.052094 0
5.605000 0.025959 0
5.610000 0.002130 0
5.615000 -0.019271 0
5.620000 -0.038210 0
5.625000 -0.054722 0
5.630000 -0.068905 0
5.635000 -0.080903 0
5.640000 -0.090893 0
5.645000 -0.099072 0
5.650000 -0.105646 0
5.655000 -0.110822 0
5.660000 -0.114799 0
5.665000 -0.117764 0
5.670000 -0.119887 0
5.675000 -0.121320 0
5.680000 -0.122194 0
5.685000 -0.121481 0
5.690000 -0.120504 0
5.695000 -0.119531 0
5.700000 -0.118563 0
5.705000 -0.117600 0
5.710000 -0.116642 0
5.715000 -0.115688 0
5.720000 -0.114737 0
5.725000 -0.113790 0
5.730000 -0.112842 0
5.735000 -0.111891 0
5.740000 -0.110930 0
5.745000 -0.109946 0
5.750000 -0.108918 0
5.755000 -0.107813 0
5.760000 -0.106575 0
5.765000 -0.105122 0
5.770000 -0.103333 0
5.775000 -0.101033 0
5.780000 -0.097988 0
5.785000 -0.093890 0
5.790000 -0.088359 0
5.795000 -0.080948 0
5.800000 -0.071171 0
5.805000 -0.058537 0
5.810000 -0.042617 0
5.815000 -0.023116 0
5.820000 0.000042 0
5.825000 0.026627 0
5.830000 0.056043 0
5.835000 0.087298 0
5.840000 0.119022 0
5.845000 0.149548 0
5.850000 0.177043 0
5.855000 0.199686 0
5.860000 0.215865 0
5.865000 0.224366 0
5.870000 0.224527 1
5.875000 0.216319 0
5.880000 0.200355 0
5.885000 0.177812 0
5.890000 0.150290 0
5.895000 0.119616 0
5.900000 0.087626 0
5.905000 0.055896 0
5.910000 0.025370 0
5.915000 -0.004221 0
5.920000 -0.035049 0
5.925000 -0.071319 0
5.930000 -0.117536 0
5.935000 -0.174071 0
5.940000 -0.231773 0
5.945000 -0.269815 2
5.950000 -0.259516 0
5.955000 -0.171933 0
5.960000 0.013776 0
5.965000 0.298555 0
5.970000 0.645827 0
5.975000 0.971443 0
5.980000 1.165832 3
5.985000 1.150496 0
5.990000 0.927724 0
5.995000 0.577570 0
6.000000 0.208449 0
6.005000 -0.095132 0
6.010000 -0.292094 0
6.015000 -0.377286 4
6.020000 -0.369423 0
6.025000 -0.302127 0
6.030000 -0.212983 0
6.035000 -0.130718 0
6.040000 -0.068038 0
6.045000 -0.024035 0
6.050000 0.008243 0
6.055000 0.035536 0
6.060000 0.061980 0
6.065000 0.089378 0
6.070000 0.118193 0
6.075000 0.148281 0
6.080000 0.179237 0
6.085000 0.210524 0
6.090000 0.241524 0
6.095000 0.271560 0
6.100000 0.299919 0
6.105000 0.325884 0
6.110000 0.348758 0
6.115000 0.367898 0
6.120000 0.382744 0
6.125000 0.392844 0
6.130000 0.397878 5
6.135000 0.397672 0
6.140000 0.392211 0
6.145000 0.381635 0
6.150000 0.366240 0
6.155000 0.346454 0
6.160000 0.322827 0
6.165000 0.295996 0
6.170000 0.266663 0
6.175000 0.235562 0
6.180000 0.203425 0
6.185000 0.170961 0
6.190000 0.138825 0
6.195000 0.107601 0
6.200000 0.077785 0
6.205000 0.049779 0
6.210000 0.023884 0
6.215000 0.000302 0
6.220000 -0.020854 0
6.225000 -0.039557 0
6.230000 -0.055850 0
6.235000 -0.069834 0
6.240000 -0.081656 0
6.245000 -0.091494 0
6.250000 -0.099544 0
6.255000 -0.106010 0
6.260000 -0.111099 0
6.265000 -0.115006 0
6.270000 -0.117916 0
6.275000 -0.119997 0
6.280000 -0.121397 0
6.285000 -0.122247 0
6.290000 -0.121531 0
6.295000 -0.120554 0
6.300000 -0.119581 0
6.305000 -0.118613 0
6.310000 -0.117650 0
6.315000 -0.116691 0
6.320000 -0.115736 0
6.325000 -0.114786 0
6.330000 -0.113838 0
6.335000 -0.112890 0
6.340000 -0.111939 0
6.345000 -0.110977 0
6.350000 -0.109993 0
6.355000 -0.108966 0
6.360000 -0.107862 0
6.365000 -0.106627 0
6.370000 -0.105180 0
6.375000 -0.103401 0
6.380000 -0.101121 0
6.385000 -0.098106 0
6.390000 -0.094055 0
6.395000 -0.088594 0
6.400000 -0.081282 0
6.405000 -0.071638 0
6.410000 -0.059174 0
6.415000 -0.043459 0
6.420000 -0.024190 0
6.425000 -0.001276 0
6.430000 0.025077 0
6.435000 0.054307 0
6.440000 0.085458 0
6.445000 0.117199 0
6.450000 0.147899 0
6.455000 0.175745 0
6.460000 0.198923 0
6.465000 0.215805 0
6.470000 0.225141 0
6.475000 0.226211 1
6.480000 0.218917 0
6.485000 0.203798 0
6.490000 0.181964 0
6.495000 0.154959 0
6.500000 0.124581 0
6.505000 0.092662 0
6.510000 0.060818 0
6.515000 0.030100 0
6.520000 0.000454 0
6.525000 -0.029964 0
6.530000 -0.065076 0
6.535000 -0.109529 0
6.540000 -0.164715 0
6.545000 -0.223368 0
6.550000 -0.266643 0
6.555000 -0.266924 2
6.560000 -0.194966 0
6.565000 -0.027976 0
6.570000 0.239772 0
6.575000 0.580255 0
6.580000 0.918528 0
6.585000 1.147117 0
6.590000 1.176816 3
6.595000 0.991210 0
6.600000 0.657532 0
6.605000 0.284245 0
6.610000 -0.036128 0
6.615000 -0.254007 0
6.620000 -0.358530 0
6.625000 -0.364941 4
6.630000 -0.305170 0
6.635000 -0.217365 0
6.640000 -0.132726 0
6.645000 -0.066774 0
6.650000 -0.020321 0
6.655000 0.013196 0
6.660000 0.040849 0
6.665000 0.067215 0
6.670000 0.094389 0
6.675000 0.122971 0
6.680000 0.152870 0
6.685000 0.183702 0
6.690000 0.214939 0
6.695000 0.245967 0
6.700000 0.276107 0
6.705000 0.304645 0
6.710000 0.330856 0
6.715000 0.354033 0
6.720000 0.373523 0
6.725000 0.388750 0
6.730000 0.399247 0
6.735000 0.404679 0
6.740000 0.404859 5
6.745000 0.399757 0
6.750000 0.389505 0
6.755000 0.374387 0
6.760000 0.354828 0
6.765000 0.331375 0
6.770000 0.304666 0
6.775000 0.275407 0
6.780000 0.244335 0
6.785000 0.212190 0
6.790000 0.179689 0
6.795000 0.147494 0
6.800000 0.116197 0
6.805000 0.086301 0
6.810000 0.058213 0
6.815000 0.032239 0
6.820000 0.008587 0
6.825000 -0.012632 0
6.830000 -0.031387 0
6.835000 -0.047722 0
6.840000 -0.061740 0
6.845000 -0.073587 0
6.850000 -0.083443 0
6.855000 -0.091507 0
6.860000 -0.097985 0
6.865000 -0.103083 0
6.870000 -0.107000 0
6.875000 -0.109921 0
6.880000 -0.112014 0
6.885000 -0.113430 0
6.890000 -0.114298 0
6.895000 -0.113618 0
6.900000 -0.112680 0
6.905000 -0.111747 0
6.910000 -0.110818 0
6.915000 -0.109893 0
6.920000 -0.108973 0
6.925000 -0.108057 0
6.930000 -0.107145 0
6.935000 -0.106234 0
6.940000 -0.105324 0
6.945000 -0.104410 0
6.950000 -0.103484 0
6.955000 -0.102533 0
6.960000 -0.101537 0
6.965000 -0.100458 0
6.970000 -0.099240 0
6.975000 -0.097798 0
6.980000 -0.096005 0
6.985000 -0.093682 0
6.990000 -0.090588 0
6.995000 -0.086409 0
7.000000 -0.080756 0
7.005000 -0.073181 0
7.010000 -0.063191 0
7.015000 -0.050301 0
7.020000 -0.034089 0
7.025000 -0.014278 0
7.030000 0.009182 0
7.035000 0.036031 0
7.040000 0.065634 0
7.045000 0.096963 0
7.050000 0.128616 0
7.055000 0.158903 0
7.060000 0.185985 0
7.065000 0.208050 0
7.070000 0.223517 0
7.075000 0.231218 1
7.080000 0.230549 0
7.085000 0.221541 0
7.090000 0.204865 0
7.095000 0.181747 0
7.100000 0.153815 0
7.105000 0.122909 0
7.110000 0.090851 0
7.115000 0.059177 0
7.120000 0.028745 0
7.125000 -0.000867 0
7.130000 -0.032035 0
7.135000 -0.069110 0
7.140000 -0.116432 0
7.145000 -0.173686 0
7.150000 -0.230616 0
7.155000 -0.265392 2
7.160000 -0.248956 0
7.165000 -0.152760 0
7.170000 0.042757 0
7.175000 0.335773 0
7.180000 0.685279 0
7.185000 1.003081 0
7.190000 1.179796 3
7.195000 1.143065 0
7.200000 0.903786 0
7.205000 0.547221 0
7.210000 0.181286 0
7.215000 -0.113427 0
7.220000 -0.299780 0
7.225000 -0.375301 4
7.230000 -0.360427 0
7.235000 -0.289633 0
7.240000 -0.200169 0
7.245000 -0.119424 0
7.250000 -0.058635 0
7.255000 -0.016021 0
7.260000 0.015548 0
7.265000 0.042615 0
7.270000 0.069073 0
7.275000 0.096566 0
7.280000 0.125480 0
7.285000 0.155638 0
7.290000 0.186620 0
7.295000 0.217885 0
7.300000 0.248807 0
7.305000 0.278705 0
7.310000 0.306867 0
7.315000 0.332577 0
7.320000 0.355141 0
7.325000 0.373924 0
7.330000 0.388373 0
7.335000 0.398048 0
7.340000 0.402638 5
7.345000 0.401985 0
7.350000 0.396085 0
7.355000 0.385092 0
7.360000 0.369310 0
7.365000 0.349180 0
7.370000 0.325257 0
7.375000 0.298184 0
7.380000 0.268668 0
7.385000 0.237439 0
7.390000 0.205232 0
7.395000 0.172750 0
7.400000 0.140642 0
7.405000 0.109485 0
7.410000 0.079770 0
7.415000 0.051889 0
7.420000 0.026137 0
7.425000 0.002708 0
7.430000 -0.018292 0
7.435000 -0.036840 0
7.440000 -0.052986 0
7.445000 -0.066832 0
7.450000 -0.078530 0
7.455000 -0.088256 0
7.460000 -0.096209 0
7.465000 -0.102594 0
7.470000 -0.107616 0
7.475000 -0.111469 0
7.480000 -0.114337 0
7.485000 -0.116387 0
7.490000 -0.117766 0
7.495000 -0.118603 0
7.500000 -0.117901 0
7.505000 -0.116941 0
7.510000 -0.115986 0
7.515000 -0.115036 0
7.520000 -0.114091 0
7.525000 -0.113150 0
7.530000 -0.112213 0
7.535000 -0.111280 0
7.540000 -0.110349 0
7.545000 -0.109418 0
7.550000 -0.108484 0
7.555000 -0.107538 0
7.560000 -0.106569 0
7.565000 -0.105555 0
7.570000 -0.104462 0
7.575000 -0.103234 0
7.580000 -0.101789 0
7.585000 -0.100003 0
7.590000 -0.097705 0
7.595000 -0.094658 0
7.600000 -0.090557 0
7.605000 -0.085023 0
7.610000 -0.077615 0
7.615000 -0.067850 0
7.620000 -0.055241 0
7.625000 -0.039363 0
7.630000 -0.019921 0
7.635000 0.003160 0
7.640000 0.029660 0
7.645000 0.058996 0
7.650000 0.090194 0
7.655000 0.121909 0
7.660000 0.152497 0
7.665000 0.180144 0
7.670000 0.203041 0
7.675000 0.219577 0
7.680000 0.228524 0
7.685000 0.229191 1
7.690000 0.221509 0
7.695000 0.206045 0
7.700000 0.183930 0
7.705000 0.156722 0
7.710000 0.126224 0
7.715000 0.094263 0
7.720000 0.062436 0
7.725000 0.031760 0
7.730000 0.002119 0
7.735000 -0.028415 0
7.740000 -0.063834 0
7.745000 -0.108743 0
7.750000 -0.164291 0
7.755000 -0.222786 0
7.760000 -0.264970 2
7.765000 -0.263045 0
7.770000 -0.187890 0
7.775000 -0.017149 0
7.780000 0.253986 0
7.785000 0.595959 0
7.790000 0.932248 0
7.795000 1.155097 0
7.800000 1.177141 3
7.805000 0.985496 0
7.810000 0.649639 0
7.815000 0.276483 0
7.820000 -0.043484 0
7.825000 -0.261770 0
7.830000 -0.367612 0
7.835000 -0.375752 4
7.840000 -0.317336 0
7.845000 -0.229883 0
7.850000 -0.144555 0
7.855000 -0.077384 0
7.860000 -0.029798 0
7.865000 0.004436 0
7.870000 0.032388 0
7.875000 0.058783 0
7.880000 0.085861 0
7.885000 0.114314 0
7.890000 0.144102 0
7.895000 0.174868 0
7.900000 0.206108 0
7.905000 0.237228 0
7.910000 0.267570 0
7.915000 0.296433 0
7.920000 0.323107 0
7.925000 0.346892 0
7.930000 0.367134 0
7.935000 0.383250 0
7.940000 0.394759 0
7.945000 0.401305 0
7.950000 0.402671 5
7.955000 0.398794 0
7.960000 0.389767 0
7.965000 0.375834 0
7.970000 0.357381 0
7.975000 0.334918 0
7.980000 0.309049 0
7.985000 0.280454 0
7.990000 0.249851 0
7.995000 0.217971 0
8.000000 0.185527 0
8.005000 0.153189 0
8.010000 0.121562 0
8.015000 0.091170 0
8.020000 0.062447 0
8.025000 0.035726 0
8.030000 0.011246 0
8.035000 -0.010852 0
8.040000 -0.030509 0
8.045000 -0.047742 0
8.050000 -0.062631 0
8.055000 -0.075305 0
8.060000 -0.085930 0
8.065000 -0.094693 0
8.070000 -0.101797 0
8.075000 -0.107444 0
8.080000 -0.111835 0
8.085000 -0.115156 0
8.090000 -0.117583 0
8.095000 -0.119270 0
8.100000 -0.120356 0
8.105000 -0.120729 0
8.110000 -0.119756 0
8.115000 -0.118787 0
8.120000 -0.117823 0
8.125000 -0.116864 0
8.130000 -0.115909 0
8.135000 -0.114959 0
8.140000 -0.114013 0
8.145000 -0.113070 0
8.150000 -0.112128 0
8.155000 -0.111186 0
8.160000 -0.110236 0
8.165000 -0.109272 0
8.170000 -0.108276 0
8.175000 -0.107222 0
8.180000 -0.106068 0
8.185000 -0.104750 0
8.190000 -0.103169 0
8.195000 -0.101183 0
8.200000 -0.098598 0
8.205000 -0.095151 0
8.210000 -0.090511 0
8.215000 -0.084273 0
8.220000 -0.075980 0
8.225000 -0.065146 0
8.230000 -0.051305 0
8.235000 -0.034074 0
8.240000 -0.013236 0
8.245000 0.011182 0
8.250000 0.038833 0
8.255000 0.068995 0
8.260000 0.100561 0
8.265000 0.132078 0
8.270000 0.161837 0
8.275000 0.188020 0
8.280000 0.208879 0
8.285000 0.222928 0
8.290000 0.229117 1
8.295000 0.226965 0
8.300000 0.216618 0
8.305000 0.198834 0
8.310000 0.174892 0
8.315000 0.146438 0
8.320000 0.115292 0
8.325000 0.083225 0
8.330000 0.051688 0
8.335000 0.021414 0
8.340000 -0.008186 0
8.345000 -0.039657 0
8.350000 -0.077398 0
8.355000 -0.125514 0
8.360000 -0.183157 0
8.365000 -0.239520 0
8.370000 -0.272592 2
8.375000 -0.253650 0
8.380000 -0.154800 0
8.385000 0.042799 0
8.390000 0.336805 0
8.395000 0.686423 0
8.400000 1.004834 0
8.405000 1.184392 3
8.410000 1.151841 0
8.415000 0.914725 0
8.420000 0.558583 0
8.425000 0.192617 0
8.430000 -0.101595 0
8.435000 -0.286672 0
8.440000 -0.360426 4
8.445000 -0.343861 0
8.450000 -0.272074 0
8.455000 -0.182624 0
8.460000 -0.102686 0
8.465000 -0.042960 0
8.470000 -0.001208 0
8.475000 0.029865 0
8.480000 0.056740 0
8.485000 0.083178 0
8.490000 0.110720 0
8.495000 0.139693 0
8.500000 0.169889 0
8.505000 0.200868 0
8.510000 0.232072 0
8.515000 0.262861 0
8.520000 0.292542 0
8.525000 0.320392 0
8.530000 0.345685 0
8.535000 0.367728 0
8.540000 0.385885 0
8.545000 0.399611 0
8.550000 0.408479 0
8.555000 0.412197 5
8.560000 0.410628 0
8.565000 0.403795 0
8.570000 0.391881 0
8.575000 0.375220 0
8.580000 0.354279 0
8.585000 0.329640 0
8.590000 0.301969 0
8.595000 0.271988 0
8.600000 0.240440 0
8.605000 0.208064 0
8.610000 0.175561 0
8.615000 0.143575 0
8.620000 0.112669 0
8.625000 0.083317 0
8.630000 0.055893 0
8.635000 0.030668 0
8.640000 0.007817 0
8.645000 -0.012578 0
8.650000 -0.030513 0
8.655000 -0.046054 0
8.660000 -0.059322 0
8.665000 -0.070477 0
8.670000 -0.079707 0
8.675000 -0.087215 0
8.680000 -0.093208 0
8.685000 -0.097893 0
8.690000 -0.101463 0
8.695000 -0.104099 0
8.700000 -0.105963 0
8.705000 -0.107197 0
8.710000 -0.107689 0
8.715000 -0.106781 0
8.720000 -0.105876 0
8.725000 -0.104977 0
8.730000 -0.104082 0
8.735000 -0.103191 0
8.740000 -0.102304 0
8.745000 -0.101421 0
8.750000 -0.100541 0
8.755000 -0.099662 0
8.760000 -0.098782 0
8.765000 -0.097895 0
8.770000 -0.096993 0
8.775000 -0.096058 0
8.780000 -0.095065 0
8.785000 -0.093971 0
8.790000 -0.092708 0
8.795000 -0.091176 0
8.800000 -0.089229 0
8.805000 -0.086664 0
8.810000 -0.083211 0
8.815000 -0.078526 0
8.820000 -0.072193 0
8.825000 -0.063739 0
8.830000 -0.052670 0
8.835000 -0.038513 0
8.840000 -0.020896 0
8.845000 0.000379 0
8.850000 0.025244 0
8.855000 0.053290 0
8.860000 0.083721 0
8.865000 0.115346 0
8.870000 0.146625 0
8.875000 0.175783 0
8.880000 0.200962 0
8.885000 0.220419 0
8.890000 0.232720 0
8.895000 0.236914 1
8.900000 0.232660 0
8.905000 0.220265 0
8.910000 0.200651 0
8.915000 0.175240 0
8.920000 0.145782 0
8.925000 0.114143 0
8.930000 0.082066 0
8.935000 0.050857 0
8.940000 0.020908 0
8.945000 -0.008983 0
8.950000 -0.042143 0
8.955000 -0.083339 0
8.960000 -0.135573 0
8.965000 -0.194687 0
8.970000 -0.245126 0
8.975000 -0.260952 2
8.980000 -0.212244 0
8.985000 -0.073237 0
8.990000 0.168066 0
8.995000 0.494436 0
9.000000 0.842890 0
9.005000 1.109695 0
9.010000 1.193984 3
9.015000 1.056685 0
9.020000 0.748081 0
9.025000 0.374367 0
9.030000 0.036967 0
9.035000 -0.203944 0
9.040000 -0.330291 0
9.045000 -0.353186 4
9.050000 -0.302591 0
9.055000 -0.217115 0
9.060000 -0.130545 0
9.065000 -0.061448 0
9.070000 -0.012557 0
9.075000 0.022208 0
9.080000 0.050234 0
9.085000 0.076543 0
9.090000 0.103519 0
9.095000 0.131894 0
9.100000 0.161626 0
9.105000 0.192341 0
9.110000 0.223512 0
9.115000 0.254521 0
9.120000 0.284681 0
9.125000 0.313266 0
9.130000 0.339538 0
9.135000 0.362779 0
9.140000 0.382319 0
9.145000 0.397572 0
9.150000 0.408060 0
9.155000 0.413440 0
9.160000 0.413524 5
9.165000 0.408281 0
9.170000 0.397848 0
9.175000 0.382519 0
9.180000 0.362731 0
9.185000 0.339044 0
9.190000 0.312112 0
9.195000 0.282654 0
9.200000 0.251423 0
9.205000 0.219171 0
9.210000 0.186622 0
9.215000 0.154443 0
9.220000 0.123229 0
9.225000 0.093480 0
9.230000 0.065598 0
9.235000 0.039882 0
9.240000 0.016527 0
9.245000 -0.004363 0
9.250000 -0.022772 0
9.255000 -0.038755 0
9.260000 -0.052423 0
9.265000 -0.063935 0
9.270000 -0.073477 0
9.275000 -0.081252 0
9.280000 -0.087473 0
9.285000 -0.092348 0
9.290000 -0.096075 0
9.295000 -0.098839 0
9.300000 -0.100807 0
9.305000 -0.102127 0
9.310000 -0.102683 0
9.315000 -0.101799 0
9.320000 -0.100920 0
9.325000 -0.100045 0
9.330000 -0.099174 0
9.335000 -0.098308 0
9.340000 -0.097445 0
9.345000 -0.096587 0
9.350000 -0.095731 0
9.355000 -0.094876 0
9.360000 -0.094020 0
9.365000 -0.093157 0
9.370000 -0.092279 0
9.375000 -0.091368 0
9.380000 -0.090398 0
9.385000 -0.089326 0
9.390000 -0.088083 0
9.395000 -0.086566 0
9.400000 -0.084626 0
9.405000 -0.082057 0
9.410000 -0.078579 0
9.415000 -0.073842 0
9.420000 -0.067420 0
9.425000 -0.058831 0
9.430000 -0.047573 0
9.435000 -0.033172 0
9.440000 -0.015261 0
9.445000 0.006341 0
9.450000 0.031535 0
9.455000 0.059868 0
9.460000 0.090489 0
9.465000 0.122144 0
9.470000 0.153237 0
9.475000 0.181946 0
9.480000 0.206391 0
9.485000 0.224835 0
9.490000 0.235889 0
9.495000 0.238682 1
9.500000 0.232971 0
9.505000 0.219184 0
9.510000 0.198355 0
9.515000 0.172004 0
9.520000 0.141946 0
9.525000 0.110070 0
9.530000 0.078078 0
9.535000 0.047145 0
9.540000 0.017371 0
9.545000 -0.012934 0
9.550000 -0.047629 0
9.555000 -0.091519 0
9.560000 -0.146362 0
9.565000 -0.205199 0
9.570000 -0.249089 0
9.575000 -0.249842 2
9.580000 -0.177464 0
9.585000 -0.008667 0
9.590000 0.261908 0
9.595000 0.604093 0
9.600000 0.938990 0
9.605000 1.155936 0
9.610000 1.167284 3
9.615000 0.964253 0
9.620000 0.621840 0
9.625000 0.250429 0
9.630000 -0.060287 0
9.635000 -0.264986 0
9.640000 -0.356332 4
9.645000 -0.352268 0
9.650000 -0.286584 0
9.655000 -0.197698 0
9.660000 -0.115276 0
9.665000 -0.052559 0
9.670000 -0.008700 0
9.675000 0.023390 0
9.680000 0.050554 0
9.685000 0.076942 0
9.690000 0.104334 0
9.695000 0.133162 0
9.700000 0.163256 0
9.705000 0.194194 0
9.710000 0.225421 0
9.715000 0.256298 0
9.720000 0.286129 0
9.725000 0.314187 0
9.730000 0.339739 0
9.735000 0.362080 0
9.740000 0.380563 0
9.745000 0.394631 0
9.750000 0.403842 0
9.755000 0.407894 5
9.760000 0.406638 0
9.765000 0.400088 0
9.770000 0.388421 0
9.775000 0.371966 0
9.780000 0.351191 0
9.785000 0.326679 0
9.790000 0.299100 0
9.795000 0.269180 0
9.800000 0.237671 0
9.805000 0.205317 0
9.810000 0.172828 0
9.815000 0.140853 0
9.820000 0.109962 0
9.825000 0.080632 0
9.830000 0.053241 0
9.835000 0.028061 0
9.840000 0.005268 0
9.845000 -0.015057 0
9.850000 -0.032913 0
9.855000 -0.048367 0
9.860000 -0.061543 0
9.865000 -0.072604 0
9.870000 -0.081739 0
9.875000 -0.089155 0
9.880000 -0.095062 0
9.885000 -0.099665 0
9.890000 -0.103161 0
9.895000 -0.105730 0
9.900000 -0.107535 0
9.905000 -0.108717 0
9.910000 -0.109170 0
9.915000 -0.108254 0
9.920000 -0.107343 0
9.925000 -0.106436 0
9.930000 -0.105533 0
9.935000 -0.104635 0
9.940000 -0.103741 0
9.945000 -0.102851 0
9.950000 -0.101963 0
9.955000 -0.101077 0
9.960000 -0.100189 0
9.965000 -0.099293 0
9.970000 -0.098379 0
9.975000 -0.097431 0
9.980000 -0.096418 0
9.985000 -0.095295 0
9.990000 -0.093990 0
9.995000 -0.092394 0
10.000000 -0.090351 0
10.005000 -0.087647 0
10.010000 -0.083995 0
10.015000 -0.079035 0
10.020000 -0.072335 0
10.025000 -0.063412 0
10.030000 -0.051764 0
10.035000 -0.036930 0
10.040000 -0.018562 0
10.045000 0.003491 0
10.050000 0.029095 0
10.055000 0.057756 0
10.060000 0.088582 0
10.065000 0.120284 0
10.070000 0.151245 0
10.075000 0.179637 0
10.080000 0.203593 0
10.085000 0.221413 0
10.090000 0.231754 0
10.095000 0.233804 1
10.100000 0.227383 0
10.105000 0.212971 0
10.110000 0.191646 0
10.115000 0.164953 0
10.120000 0.134710 0
10.125000 0.102794 0
10.130000 0.070873 0
10.135000 0.040060 0
10.140000 0.010353 0
10.145000 -0.020072 0
10.150000 -0.055183 0
10.155000 -0.099717 0
10.160000 -0.155064 0
10.165000 -0.213656 0
10.170000 -0.256002 2
10.175000 -0.253746 0
10.180000 -0.177170 0
10.185000 -0.003650 0
10.190000 0.270972 0
10.195000 0.614755 0
10.200000 0.947295 0
10.205000 1.158140 0
10.210000 1.162041 3
10.215000 0.952188 0
10.220000 0.606237 0
10.225000 0.236125 0
10.230000 -0.069286 0
10.235000 -0.266591 0
10.240000 -0.350331 4
10.245000 -0.340131 0
10.250000 -0.271067 0
10.255000 -0.181814 0
10.260000 -0.101077 0
10.265000 -0.040614 0
10.270000 0.001493 0
10.275000 0.032651 0
10.280000 0.059519 0
10.285000 0.085952 0
10.290000 0.113513 0
10.295000 0.142522 0
10.300000 0.172756 0
10.305000 0.203757 0
10.310000 0.234949 0
10.315000 0.265674 0
10.320000 0.295217 0
10.325000 0.322838 0
10.330000 0.347796 0
10.335000 0.369386 0
10.340000 0.386968 0
10.345000 0.399999 0
10.350000 0.408060 0
10.355000 0.410879 5
10.360000 0.408342 0
10.365000 0.400503 0
10.370000 0.387579 0
10.375000 0.369941 0
10.380000 0.348098 0
10.385000 0.322664 0
10.390000 0.294339 0
10.395000 0.263869 0
10.400000 0.232018 0
10.405000 0.199531 0
10.410000 0.167114 0
10.415000 0.135400 0
10.420000 0.104941 0
10.425000 0.076187 0
10.430000 0.049486 0
10.435000 0.025083 0
10.440000 0.003119 0
10.445000 -0.016350 0
10.450000 -0.033351 0
10.455000 -0.047974 0
10.460000 -0.060360 0
10.465000 -0.070687 0
10.470000 -0.079154 0
10.475000 -0.085974 0
10.480000 -0.091358 0
10.485000 -0.095512 0
10.490000 -0.098628 0
10.495000 -0.100882 0
10.500000 -0.102429 0
10.505000 -0.103408 0
10.510000 -0.102790 0
10.515000 -0.101906 0
10.520000 -0.101026 0
10.525000 -0.100151 0
10.530000 -0.099280 0
10.535000 -0.098412 0
10.540000 -0.097549 0
10.545000 -0.096689 0
10.550000 -0.095831 0
10.555000 -0.094972 0
10.560000 -0.094109 0
10.565000 -0.093234 0
10.570000 -0.092332 0
10.575000 -0.091382 0
10.580000 -0.090344 0
10.585000 -0.089159 0
10.590000 -0.087734 0
10.595000 -0.085936 0
10.600000 -0.083573 0
10.605000 -0.080387 0
10.610000 -0.076045 0
10.615000 -0.070137 0
10.620000 -0.062192 0
10.625000 -0.051703 0
10.630000 -0.038177 0
10.635000 -0.021209 0
10.640000 -0.000557 0
10.645000 0.023759 0
10.650000 0.051380 0
10.655000 0.081549 0
10.660000 0.113096 0
10.665000 0.144487 0
10.670000 0.173923 0
10.675000 0.199504 0
10.680000 0.219427 0
10.685000 0.232196 0
10.690000 0.236805 1
10.695000 0.232869 0
10.700000 0.220678 0
10.705000 0.201161 0
10.710000 0.175764 0
10.715000 0.146277 0
10.720000 0.114609 0
10.725000 0.082537 0
10.730000 0.051374 0
10.735000 0.021466 0
10.740000 -0.008532 0
10.745000 -0.042164 0
10.750000 -0.084315 0
10.755000 -0.137621 0
10.760000 -0.196766 0
10.765000 -0.244459 0
10.770000 -0.253233 2
10.775000 -0.192576 0
10.780000 -0.037518 0
10.785000 0.220650 0
10.790000 0.557184 0
10.795000 0.898560 0
10.800000 1.134702 0
10.805000 1.171180 3
10.810000 0.987161 0
10.815000 0.652136 0
10.820000 0.279590 0
10.825000 -0.035183 0
10.830000 -0.243115 0
10.835000 -0.335640 4
10.840000 -0.331090 0
10.845000 -0.264497 0
10.850000 -0.175517 0
10.855000 -0.094195 0
10.860000 -0.033206 0
10.865000 0.009112 0
10.870000 0.040277 0
10.875000 0.067101 0
10.880000 0.093510 0
10.885000 0.121076 0
10.890000 0.150104 0
10.895000 0.180354 0
10.900000 0.211355 0
10.905000 0.242509 0
10.910000 0.273139 0
10.915000 0.302514 0
10.920000 0.329875 0
10.925000 0.354468 0
10.930000 0.375577 0
10.935000 0.392561 0
10.940000 0.404878 0
10.945000 0.412122 0
10.950000 0.414038 5
10.955000 0.410539 0
10.960000 0.401708 0
10.965000 0.387799 0
10.970000 0.369219 0
10.975000 0.346512 0
10.980000 0.320329 0
10.985000 0.291396 0
10.990000 0.260484 0
10.995000 0.228371 0
11.000000 0.195811 0
11.005000 0.163505 0
11.010000 0.132080 0
11.015000 0.102068 0
11.020000 0.073900 0
11.025000 0.047896 0
11.030000 0.024271 0
11.035000 0.003139 0
11.040000 -0.015473 0
11.045000 -0.031617 0
11.050000 -0.045408 0
11.055000 -0.057004 0
11.060000 -0.066597 0
11.065000 -0.074397 0
11.070000 -0.080622 0
11.075000 -0.085486 0
11.080000 -0.089195 0
11.085000 -0.091936 0
11.090000 -0.093881 0
11.095000 -0.095181 0
11.100000 -0.095728 0
11.105000 -0.094879 0
11.110000 -0.094035 0
11.115000 -0.093194 0
11.120000 -0.092358 0
11.125000 -0.091525 0
11.130000 -0.090696 0
11.135000 -0.089871 0
11.140000 -0.089048 0
11.145000 -0.088226 0
11.150000 -0.087401 0
11.155000 -0.086566 0
11.160000 -0.085712 0
11.165000 -0.084818 0
11.170000 -0.083851 0
11.175000 -0.082761 0
11.180000 -0.081465 0
11.185000 -0.079841 0
11.190000 -0.077716 0
11.195000 -0.074849 0
11.200000 -0.070922 0
11.205000 -0.065541 0
11.210000 -0.058239 0
11.215000 -0.048504 0
11.220000 -0.035825 0
11.225000 -0.019755 0
11.230000 0.000001 0
11.235000 0.023494 0
11.240000 0.050439 0
11.245000 0.080152 0
11.250000 0.111522 0
11.255000 0.143046 0
11.260000 0.172923 0
11.265000 0.199218 0
11.270000 0.220059 0
11.275000 0.233859 0
11.280000 0.239513 1
11.285000 0.236543 0
11.290000 0.225165 0
11.295000 0.206263 0
11.300000 0.181273 0
11.305000 0.152001 0
11.310000 0.120395 0
11.315000 0.088287 0
11.320000 0.057051 0
11.325000 0.027090 0
11.330000 -0.002910 0
11.335000 -0.036528 0
11.340000 -0.078744 0
11.345000 -0.132220 0
11.350000 -0.191361 0
11.355000 -0.238198 0
11.360000 -0.244440 2
11.365000 -0.179004 0
11.370000 -0.017005 0
11.375000 0.248723 0
11.380000 0.589345 0
11.385000 0.925336 0
11.390000 1.143060 0
11.395000 1.152136 3
11.400000 0.944753 0
11.405000 0.599448 0
11.410000 0.229397 0
11.415000 -0.075472 0
11.420000 -0.271450 0
11.425000 -0.353341 4
11.430000 -0.341339 0
11.435000 -0.271159 0
11.440000 -0.181810 0
11.445000 -0.101781 0
11.450000 -0.042282 0
11.455000 -0.000932 0
11.460000 0.029837 0
11.465000 0.056614 0
11.470000 0.083121 0
11.475000 0.110817 0
11.480000 0.139966 0
11.485000 0.170314 0
11.490000 0.201387 0
11.495000 0.232590 0
11.500000 0.263251 0
11.505000 0.292643 0
11.510000 0.320014 0
11.515000 0.344618 0
11.520000 0.365748 0
11.525000 0.382766 0
11.530000 0.395140 0
11.535000 0.402464 0
11.540000 0.404487 5
11.545000 0.401119 0
11.550000 0.392441 0
11.555000 0.378702 0
11.560000 0.360300 0
11.565000 0.337772 0
11.570000 0.311759 0
11.575000 0.282979 0
11.580000 0.252194 0
11.585000 0.220175 0
11.590000 0.187670 0
11.595000 0.155380 0
11.600000 0.123929 0
11.605000 0.093852 0
11.610000 0.065581 0
11.615000 0.039445 0
11.620000 0.015663 0
11.625000 -0.005643 0
11.630000 -0.024441 0
11.635000 -0.040774 0
11.640000 -0.054751 0
11.645000 -0.066523 0
11.650000 -0.076281 0
11.655000 -0.084229 0
11.660000 -0.090583 0
11.665000 -0.095556 0
11.670000 -0.099354 0
11.675000 -0.102164 0
11.680000 -0.104160 0
11.685000 -0.105493 0
11.690000 -0.106049 0
11.695000 -0.105148 0
11.700000 -0.104252 0
11.705000 -0.103361 0
11.710000 -0.102474 0
11.715000 -0.101591 0
11.720000 -0.100712 0
11.725000 -0.099837 0
11.730000 -0.098965 0
11.735000 -0.098094 0
11.740000 -0.097221 0
11.745000 -0.096341 0
11.750000 -0.095444 0
11.755000 -0.094513 0
11.760000 -0.093519 0
11.765000 -0.092414 0
11.770000 -0.091127 0
11.775000 -0.089546 0
11.780000 -0.087512 0
11.785000 -0.084803 0
11.790000 -0.081124 0
11.795000 -0.076102 0
11.800000 -0.069292 0
11.805000 -0.060193 0
11.810000 -0.048295 0
11.815000 -0.033128 0
11.820000 -0.014354 0
11.825000 0.008156 0
11.830000 0.034218 0
11.835000 0.063272 0
11.840000 0.094338 0
11.845000 0.126032 0
11.850000 0.156645 0
11.855000 0.184281 0
11.860000 0.207041 0
11.865000 0.223244 0
11.870000 0.231625 1
11.875000 0.231500 0
11.880000 0.222861 0
11.885000 0.206372 0
11.890000 0.183291 0
11.895000 0.155307 0
11.900000 0.124330 0
11.905000 0.092246 0
11.910000 0.060625 0
11.915000 0.030284 0
11.920000 0.000631 0
11.925000 -0.031048 0
11.930000 -0.069433 0
11.935000 -0.118655 0
11.940000 -0.176995 0
11.945000 -0.231527 0
11.950000 -0.257536 2
11.955000 -0.224260 0
11.960000 -0.103476 0
11.965000 0.120814 0
11.970000 0.437138 0
11.975000 0.787921 0
11.980000 1.069756 0
11.985000 1.174852 3
11.990000 1.056468 0
11.995000 0.758785 0
12.000000 0.386296 0
12.005000 0.043378 0
12.010000 -0.205740 0
12.015000 -0.340106 0
12.020000 -0.369193 4
12.025000 -0.322148 0
12.030000 -0.237657 0
12.035000 -0.150402 0
12.040000 -0.080085 0
12.045000 -0.030188 0
12.050000 0.005154 0
12.055000 0.033430 0
12.060000 0.059826 0
12.065000 0.086835 0
12.070000 0.115240 0
12.075000 0.145012 0
12.080000 0.175785 0
12.085000 0.207031 0
12.090000 0.238129 0
12.095000 0.268388 0
12.100000 0.297080 0
12.105000 0.323460 0
12.110000 0.346804 0
12.115000 0.366439 0
12.120000 0.381773 0
12.125000 0.392326 0
12.130000 0.397753 0
12.135000 0.397864 5
12.140000 0.392631 0
12.145000 0.382193 0
12.150000 0.366848 0
12.155000 0.347040 0
12.160000 0.323334 0
12.165000 0.296390 0
12.170000 0.266936 0
12.175000 0.235727 0
12.180000 0.203522 0
12.185000 0.171046 0
12.190000 0.138970 0
12.195000 0.107887 0
12.200000 0.078298 0
12.205000 0.050600 0
12.210000 0.025088 0
12.215000 0.001954 0
12.220000 -0.018705 0
12.225000 -0.036876 0
12.230000 -0.052619 0
12.235000 -0.066052 0
12.240000 -0.077336 0
12.245000 -0.086659 0
12.250000 -0.094228 0
12.255000 -0.100257 0
12.260000 -0.104954 0
12.265000 -0.108519 0
12.270000 -0.111135 0
12.275000 -0.112970 0
12.280000 -0.114168 0
12.285000 -0.114621 0
12.290000 -0.113678 0
12.295000 -0.112739 0
12.300000 -0.111805 0
12.305000 -0.110876 0
12.310000 -0.109951 0
12.315000 -0.109031 0
12.320000 -0.108114 0
12.325000 -0.107200 0
12.330000 -0.106288 0
12.335000 -0.105374 0
12.340000 -0.104452 0
12.345000 -0.103513 0
12.350000 -0.102538 0
12.355000 -0.101499 0
12.360000 -0.100349 0
12.365000 -0.099013 0
12.370000 -0.097381 0
12.375000 -0.095294 0
12.380000 -0.092533 0
12.385000 -0.088804 0
12.390000 -0.083739 0
12.395000 -0.076898 0
12.400000 -0.067790 0
12.405000 -0.055909 0
12.410000 -0.040793 0
12.415000 -0.022101 0
12.420000 0.000299 0
12.425000 0.026241 0
12.430000 0.055190 0
12.435000 0.086203 0
12.440000 0.117936 0
12.445000 0.148723 0
12.450000 0.176700 0
12.455000 0.199989 0
12.460000 0.216904 0
12.465000 0.226150 0
12.470000 0.226990 1
12.475000 0.219341 0
12.480000 0.203785 0
12.485000 0.181498 0
12.490000 0.154101 0
12.495000 0.123461 0
12.500000 0.091459 0
12.505000 0.059713 0
12.510000 0.029185 0
12.515000 -0.000427 0
12.520000 -0.031406 0
12.525000 -0.068119 0
12.530000 -0.115078 0
12.535000 -0.172187 0
12.540000 -0.229174 0
12.545000 -0.263777 2
12.550000 -0.246243 0
12.555000 -0.147434 0
12.560000 0.052242 0
12.565000 0.349614 0
12.570000 0.700130 0
12.575000 1.010902 0
12.580000 1.170671 3
12.585000 1.110786 0
12.590000 0.851316 0
12.595000 0.487119 0
12.600000 0.128711 0
12.605000 -0.147375 0
12.610000 -0.310163 0
12.615000 -0.362804 4
12.620000 -0.330665 0
12.625000 -0.251545 0
12.630000 -0.162570 0
12.635000 -0.087601 0
12.640000 -0.033463 0
12.645000 0.004388 0
12.650000 0.033628 0
12.655000 0.060108 0
12.660000 0.086854 0
12.665000 0.114927 0
12.670000 0.144416 0
12.675000 0.175001 0
12.680000 0.206174 0
12.685000 0.237326 0
12.690000 0.267773 0
12.695000 0.296785 0
12.700000 0.323614 0
12.705000 0.347525 0
12.710000 0.367826 0
12.715000 0.383906 0
12.720000 0.395260 0
12.725000 0.401516 0
12.730000 0.402456 5
12.735000 0.398027 0
12.740000 0.388342 0
12.745000 0.373677 0
12.750000 0.354460 0
12.755000 0.331242 0
12.760000 0.304679 0
12.765000 0.275493 0
12.770000 0.244446 0
12.775000 0.212302 0
12.780000 0.179798 0
12.785000 0.147618 0
12.790000 0.116369 0
12.795000 0.086566 0
12.800000 0.058622 0
12.805000 0.032846 0
12.810000 0.009441 0
12.815000 -0.011486 0
12.820000 -0.029914 0
12.825000 -0.045898 0
12.830000 -0.059551 0
12.835000 -0.071031 0
12.840000 -0.080529 0
12.845000 -0.088250 0
12.850000 -0.094409 0
12.855000 -0.099217 0
12.860000 -0.102876 0
12.865000 -0.105572 0
12.870000 -0.107473 0
12.875000 -0.108729 0
12.880000 -0.109228 0
12.885000 -0.108312 0
12.890000 -0.107400 0
12.895000 -0.106493 0
12.900000 -0.105590 0
12.905000 -0.104692 0
12.910000 -0.103797 0
12.915000 -0.102907 0
12.920000 -0.102019 0
12.925000 -0.101133 0
12.930000 -0.100244 0
12.935000 -0.099348 0
12.940000 -0.098435 0
12.945000 -0.097486 0
12.950000 -0.096472 0
12.955000 -0.095345 0
12.960000 -0.094032 0
12.965000 -0.092420 0
12.970000 -0.090349 0
12.975000 -0.087595 0
12.980000 -0.083863 0
12.985000 -0.078779 0
12.990000 -0.071900 0
12.995000 -0.062727 0
13.000000 -0.050753 0
13.005000 -0.035515 0
13.010000 -0.016677 0
13.015000 0.005883 0
13.020000 0.031980 0
13.025000 0.061054 0
13.030000 0.092131 0
13.035000 0.123837 0
13.040000 0.154475 0
13.045000 0.182160 0
13.050000 0.205007 0
13.055000 0.221342 0
13.060000 0.229899 0
13.065000 0.229987 1
13.070000 0.221580 0
13.075000 0.205322 0
13.080000 0.182446 0
13.085000 0.154620 0
13.090000 0.123735 0
13.095000 0.091673 0
13.100000 0.060013 0
13.105000 0.029617 0
13.110000 -0.000013 0
13.115000 -0.031448 0
13.120000 -0.069266 0
13.125000 -0.117737 0
13.130000 -0.175712 0
13.135000 -0.231204 0
13.140000 -0.260360 2
13.145000 -0.232784 0
13.150000 -0.119928 0
13.155000 0.095555 0
13.160000 0.405353 0
13.165000 0.756783 0
13.170000 1.050203 0
13.175000 1.176155 3
13.180000 1.079619 0
13.185000 0.795830 0
13.190000 0.425713 0
13.195000 0.075998 0
13.200000 -0.184408 0
13.205000 -0.330668 0
13.210000 -0.369663 4
13.215000 -0.328871 0
13.220000 -0.246519 0
13.225000 -0.158311 0
13.230000 -0.085767 0
13.235000 -0.033859 0
13.240000 0.002676 0
13.245000 0.031414 0
13.250000 0.057849 0
13.255000 0.084725 0
13.260000 0.112961 0
13.265000 0.142589 0
13.270000 0.173268 0
13.275000 0.204485 0
13.280000 0.235629 0
13.285000 0.266016 0
13.290000 0.294922 0
13.295000 0.321603 0
13.300000 0.345334 0
13.305000 0.365433 0
13.310000 0.381299 0
13.315000 0.392438 0
13.320000 0.398487 0
13.325000 0.399238 5
13.330000 0.394644 0
13.335000 0.384822 0
13.340000 0.370053 0
13.345000 0.350763 0
13.350000 0.327501 0
13.355000 0.300918 0
13.360000 0.271732 0
13.365000 0.240698 0
13.370000 0.208573 0
13.375000 0.176089 0
13.380000 0.143922 0
13.385000 0.112677 0
13.390000 0.082864 0
13.395000 0.054897 0
13.400000 0.029081 0
13.405000 0.005623 0
13.410000 -0.015370 0
13.415000 -0.033874 0
13.420000 -0.049941 0
13.425000 -0.063680 0
13.430000 -0.075247 0
13.435000 -0.084828 0
13.440000 -0.092628 0
13.445000 -0.098860 0
13.450000 -0.103732 0
13.455000 -0.107445 0
13.460000 -0.110187 0
13.465000 -0.112125 0
13.470000 -0.113408 0
13.475000 -0.113919 0
13.480000 -0.112980 0
13.485000 -0.112045 0
13.490000 -0.111114 0
13.495000 -0.110189 0
13.500000 -0.109267 0
13.505000 -0.108350 0
13.510000 -0.107437 0
13.515000 -0.106527 0
13.520000 -0.105619 0
13.525000 -0.104709 0
13.530000 -0.103793 0
13.535000 -0.102861 0
13.540000 -0.101897 0
13.545000 -0.100875 0
13.550000 -0.099749 0
13.555000 -0.098451 0
13.560000 -0.096878 0
13.565000 -0.094878 0
13.570000 -0.092242 0
13.575000 -0.088690 0
13.580000 -0.083865 0
13.585000 -0.077339 0
13.590000 -0.068626 0
13.595000 -0.057221 0
13.600000 -0.042651 0
13.605000 -0.024550 0
13.610000 -0.002747 0
13.615000 0.022646 0
13.620000 0.051158 0
13.625000 0.081912 0
13.630000 0.113630 0
13.635000 0.144693 0
13.640000 0.173259 0
13.645000 0.197444 0
13.650000 0.215515 0
13.655000 0.226104 0
13.660000 0.228372 1
13.665000 0.222124 0
13.670000 0.207831 0
13.675000 0.186577 0
13.680000 0.159918 0
13.685000 0.129693 0
13.690000 0.097794 0
13.695000 0.065906 0
13.700000 0.035140 0
13.705000 0.005466 0
13.710000 -0.025012 0
13.715000 -0.060355 0
13.720000 -0.105313 0
13.725000 -0.161032 0
13.730000 -0.219348 0
13.735000 -0.260002 2
13.740000 -0.254061 0
13.745000 -0.171691 0
13.750000 0.009149 0
13.755000 0.290706 0
13.760000 0.637197 0
13.765000 0.963695 0
13.770000 1.158316 3
13.775000 1.142811 0
13.780000 0.919898 0
13.785000 0.569704 0
13.790000 0.200656 0
13.795000 -0.102775 0
13.800000 -0.299554 0
13.805000 -0.384567 4
13.810000 -0.376557 0
13.815000 -0.309164 0
13.820000 -0.219978 0
13.825000 -0.137703 0
13.830000 -0.075022 0
13.835000 -0.031012 0
13.840000 0.001286 0
13.845000 0.028610 0
13.850000 0.055089 0
13.855000 0.082524 0
13.860000 0.111377 0
13.865000 0.141502 0
13.870000 0.172493 0
13.875000 0.203814 0
13.880000 0.234847 0
13.885000 0.264913 0
13.890000 0.293301 0
13.895000 0.319291 0
13.900000 0.342190 0
13.905000 0.361352 0
13.910000 0.376218 0
13.915000 0.386337 0
13.920000 0.391387 5
13.925000 0.391198 0
13.930000 0.385753 0
13.935000 0.375194 0
13.940000 0.359815 0
13.945000 0.340048 0
13.950000 0.316440 0
13.955000 0.289631 0
13.960000 0.260322 0
13.965000 0.229246 0
13.970000 0.197138 0
13.975000 0.164705 0
13.980000 0.132602 0
13.985000 0.101413 0
13.990000 0.071633 0
13.995000 0.043665 0
14.000000 0.017809 0
14.005000 -0.005733 0
14.010000 -0.026849 0
14.015000 -0.045512 0
14.020000 -0.061765 0
14.025000 -0.075710 0
14.030000 -0.087494 0
14.035000 -0.097295 0
14.040000 -0.105308 0
14.045000 -0.111739 0
14.050000 -0.116793 0
14.055000 -0.120666 0
14.060000 -0.123544 0
14.065000 -0.125593 0
14.070000 -0.126962 0
14.075000 -0.127782 0
14.080000 -0.127038 0
14.085000 -0.126033 0
14.090000 -0.125033 0
14.095000 -0.124038 0
14.100000 -0.123047 0
14.105000 -0.122062 0
14.110000 -0.121081 0
14.115000 -0.120103 0
14.120000 -0.119129 0
14.125000 -0.118154 0
14.130000 -0.117177 0
14.135000 -0.116189 0
14.140000 -0.115179 0
14.145000 -0.114125 0
14.150000 -0.112995 0
14.155000 -0.111733 0
14.160000 -0.110259 0
14.165000 -0.108453 0
14.170000 -0.106143 0
14.175000 -0.103097 0
14.180000 -0.099013 0
14.185000 -0.093516 0
14.190000 -0.086166 0
14.195000 -0.076480 0
14.200000 -0.063971 0
14.205000 -0.048207 0
14.210000 -0.028888 0
14.215000 -0.005925 0
14.220000 0.020476 0
14.225000 0.049747 0
14.230000 0.080931 0
14.235000 0.112695 0
14.240000 0.143404 0
14.245000 0.171245 0
14.250000 0.194405 0
14.255000 0.211257 0
14.260000 0.220554 0
14.265000 0.221582 1
14.270000 0.214247 0
14.275000 0.199093 0
14.280000 0.177233 0
14.285000 0.150217 0
14.290000 0.119841 0
14.295000 0.087939 0
14.300000 0.056123 0
14.305000 0.025438 0
14.310000 -0.004181 0
14.315000 -0.034597 0
14.320000 -0.069749 0
14.325000 -0.114275 0
14.330000 -0.169517 0
14.335000 -0.228112 0
14.340000 -0.271116 2
14.345000 -0.270860 0
14.350000 -0.198116 0
14.355000 -0.030186 0
14.360000 0.238436 0
14.365000 0.579332 0
14.370000 0.917124 0
14.375000 1.144218 0
14.380000 1.171858 3
14.385000 0.985046 0
14.390000 0.651411 0
14.395000 0.278018 0
14.400000 -0.043566 0
14.405000 -0.263820 0
14.410000 -0.371376 0
14.415000 -0.380692 4
14.420000 -0.322851 0
14.425000 -0.235501 0
14.430000 -0.150039 0
14.435000 -0.082701 0
14.440000 -0.035003 0
14.445000 -0.000711 0
14.450000 0.027272 0
14.455000 0.053692 0
14.460000 0.080799 0
14.465000 0.109284 0
14.470000 0.139104 0
14.475000 0.169902 0
14.480000 0.201170 0
14.485000 0.232312 0
14.490000 0.262664 0
14.495000 0.291527 0
14.500000 0.318185 0
14.505000 0.341937 0
14.510000 0.362126 0
14.515000 0.378171 0
14.520000 0.389592 0
14.525000 0.396033 0
14.530000 0.397281 5
14.535000 0.393276 0
14.540000 0.384116 0
14.545000 0.370053 0
14.550000 0.351477 0
14.555000 0.328902 0
14.560000 0.302941 0
14.565000 0.274275 0
14.570000 0.243628 0
14.575000 0.211733 0
14.580000 0.179303 0
14.585000 0.147009 0
14.590000 0.115455 0
14.595000 0.085162 0
14.600000 0.056560 0
14.605000 0.029979 0
14.610000 0.005652 0
14.615000 -0.016282 0
14.620000 -0.035770 0
14.625000 -0.052834 0
14.630000 -0.067556 0
14.635000 -0.080070 0
14.640000 -0.090542 0
14.645000 -0.099164 0
14.650000 -0.106137 0
14.655000 -0.111667 0
14.660000 -0.115951 0
14.665000 -0.119179 0
14.670000 -0.121523 0
14.675000 -0.123139 0
14.680000 -0.124162 0
14.685000 -0.123463 0
14.690000 -0.122475 0
14.695000 -0.121493 0
14.700000 -0.120516 0
14.705000 -0.119543 0
14.710000 -0.118575 0
14.715000 -0.117611 0
14.720000 -0.116652 0
14.725000 -0.115695 0
14.730000 -0.114740 0
14.735000 -0.113784 0
14.740000 -0.112820 0
14.745000 -0.111840 0
14.750000 -0.110825 0
14.755000 -0.109750 0
14.760000 -0.108568 0
14.765000 -0.107213 0
14.770000 -0.105580 0
14.775000 -0.103523 0
14.780000 -0.100837 0
14.785000 -0.097253 0
14.790000 -0.092426 0
14.795000 -0.085947 0
14.800000 -0.077347 0
14.805000 -0.066141 0
14.810000 -0.051866 0
14.815000 -0.034156 0
14.820000 -0.012819 0
14.825000 0.012078 0
14.830000 0.040137 0
14.835000 0.070581 0
14.840000 0.102250 0
14.845000 0.133639 0
14.850000 0.163009 0
14.855000 0.188533 0
14.860000 0.208485 0
14.865000 0.221426 0
14.870000 0.226382 1
14.875000 0.222963 0
14.880000 0.211412 0
14.885000 0.192580 0
14.890000 0.167820 0
14.895000 0.138823 0
14.900000 0.107426 0
14.905000 0.075372 0
14.910000 0.044034 0
14.915000 0.013973 0
14.920000 -0.015693 0
14.925000 -0.047882 0
14.930000 -0.087185 0
14.935000 -0.137247 0
14.940000 -0.195775 0
14.945000 -0.249858 0
14.950000 -0.275727 2
14.955000 -0.244124 0
14.960000 -0.128058 0
14.965000 0.088577 0
14.970000 0.397578 0
14.975000 0.749181 0
14.980000 1.049123 0
14.985000 1.191371 3
14.990000 1.115877 0
14.995000 0.848166 0
15.000000 0.482287 0
15.005000 0.124538 0
15.010000 -0.151909 0
15.015000 -0.317123 0
15.020000 -0.373640 4
15.025000 -0.345296 0
15.030000 -0.268219 0
15.035000 -0.178806 0
15.040000 -0.101604 0
15.045000 -0.044849 0
15.050000 -0.005069 0
15.055000 0.025125 0
15.060000 0.051821 0
15.065000 0.078394 0
15.070000 0.106158 0
15.075000 0.135340 0
15.080000 0.165695 0
15.085000 0.196769 0
15.090000 0.227998 0
15.095000 0.258739 0
15.100000 0.288301 0
15.105000 0.315964 0
15.110000 0.341012 0
15.115000 0.362759 0
15.120000 0.380583 0
15.125000 0.393952 0
15.130000 0.402453 0
15.135000 0.405809 5
15.140000 0.403896 0
15.145000 0.396747 0
15.150000 0.384554 0
15.155000 0.367658 0
15.160000 0.346531 0
15.165000 0.321753 0
15.170000 0.293991 0
15.175000 0.263961 0
15.180000 0.232402 0
15.185000 0.200044 0
15.190000 0.167582 0
15.195000 0.135653 0
15.200000 0.104813 0
15.205000 0.075530 0
15.210000 0.048172 0
15.215000 0.023008 0
15.220000 0.000210 0
15.225000 -0.020141 0
15.230000 -0.038043 0
15.235000 -0.053560 0
15.240000 -0.066812 0
15.245000 -0.077957 0
15.250000 -0.087181 0
15.255000 -0.094686 0
15.260000 -0.100679 0
15.265000 -0.105362 0
15.270000 -0.108929 0
15.275000 -0.111560 0
15.280000 -0.113415 0
15.285000 -0.114639 0
15.290000 -0.115113 0
15.295000 -0.114167 0
15.300000 -0.113226 0
15.305000 -0.112290 0
15.310000 -0.111358 0
15.315000 -0.110431 0
15.320000 -0.109508 0
15.325000 -0.108589 0
15.330000 -0.107674 0
15.335000 -0.106760 0
15.340000 -0.105845 0
15.345000 -0.104924 0
15.350000 -0.103989 0
15.355000 -0.103024 0
15.360000 -0.102005 0
15.365000 -0.100891 0
15.370000 -0.099618 0
15.375000 -0.098091 0
15.380000 -0.096172 0
15.385000 -0.093666 0
15.390000 -0.090315 0
15.395000 -0.085787 0
15.400000 -0.079679 0
15.405000 -0.071529 0
15.410000 -0.060844 0
15.415000 -0.047153 0
15.420000 -0.030062 0
15.425000 -0.009345 0
15.430000 0.014980 0
15.435000 0.042566 0
15.440000 0.072690 0
15.445000 0.104235 0
15.450000 0.135730 0
15.455000 0.165445 0
15.460000 0.191539 0
15.465000 0.212245 0
15.470000 0.226067 0
15.475000 0.231959 1
15.480000 0.229452 0
15.485000 0.218721 0
15.490000 0.200560 0
15.495000 0.176288 0
15.500000 0.147588 0
15.505000 0.116303 0
15.510000 0.084215 0
15.515000 0.052752 0
15.520000 0.022568 0
15.525000 -0.007088 0
15.530000 -0.039000 0
15.535000 -0.077734 0
15.540000 -0.127157 0
15.545000 -0.185472 0
15.550000 -0.240316 0
15.555000 -0.268197 2
15.560000 -0.239699 0
15.565000 -0.127340 0
15.570000 0.085743 0
15.575000 0.392402 0
15.580000 0.743881 0
15.585000 1.046051 0
15.590000 1.191688 3
15.595000 1.120724 0
15.600000 0.857291 0
15.605000 0.492935 0
15.610000 0.132976 0
15.615000 -0.148639 0
15.620000 -0.320479 0
15.625000 -0.383548 4
15.630000 -0.360221 0
15.635000 -0.285577 0
15.640000 -0.195966 0
15.645000 -0.116937 0
15.650000 -0.058049 0
15.655000 -0.016701 0
15.660000 0.014295 0
15.665000 0.041227 0
15.670000 0.067740 0
15.675000 0.095339 0
15.680000 0.124352 0
15.685000 0.154581 0
15.690000 0.185605 0
15.695000 0.216880 0
15.700000 0.247787 0
15.705000 0.277649 0
15.710000 0.305763 0
15.715000 0.331419 0
15.720000 0.353934 0
15.725000 0.372680 0
15.730000 0.387111 0
15.735000 0.396792 0
15.740000 0.401417 5
15.745000 0.400828 0
15.750000 0.395020 0
15.755000 0.384142 0
15.760000 0.368493 0
15.765000 0.348505 0
15.770000 0.324724 0
15.775000 0.297785 0
15.780000 0.268380 0
15.785000 0.237237 0
15.790000 0.205079 0
15.795000 0.172605 0
15.800000 0.140462 0
15.805000 0.109227 0
15.810000 0.079390 0
15.815000 0.051348 0
15.820000 0.025401 0
15.825000 0.001752 0
15.830000 -0.019488 0
15.835000 -0.038289 0
15.840000 -0.054690 0
15.845000 -0.068791 0
15.850000 -0.080733 0
15.855000 -0.090691 0
15.860000 -0.098858 0
15.865000 -0.105437 0
15.870000 -0.110630 0
15.875000 -0.114633 0
15.880000 -0.117628 0
15.885000 -0.119784 0
15.890000 -0.121250 0
15.895000 -0.122155 0
15.900000 -0.121448 0
15.905000 -0.120471 0
15.910000 -0.119498 0
15.915000 -0.118531 0
15.920000 -0.117568 0
15.925000 -0.116610 0
15.930000 -0.115656 0
15.935000 -0.114706 0
15.940000 -0.113759 0
15.945000 -0.112812 0
15.950000 -0.111863 0
15.955000 -0.110906 0
15.960000 -0.109929 0
15.965000 -0.108913 0
15.970000 -0.107829 0
15.975000 -0.106628 0
15.980000 -0.105237 0
15.985000 -0.103545 0
15.990000 -0.101397 0
15.995000 -0.098578 0
16.000000 -0.094806 0
16.005000 -0.089728 0
16.010000 -0.082924 0
16.015000 -0.073925 0
16.020000 -0.062247 0
16.025000 -0.047441 0
16.030000 -0.029166 0
16.035000 -0.007268 0
16.040000 0.018140 0
16.045000 0.046607 0
16.050000 0.077304 0
16.055000 0.109021 0
16.060000 0.140224 0
16.065000 0.169162 0
16.070000 0.194023 0
16.075000 0.213117 0
16.080000 0.225069 0
16.085000 0.228979 1
16.090000 0.224536 0
16.095000 0.212058 0
16.100000 0.192457 0
16.105000 0.167123 0
16.110000 0.137766 0
16.115000 0.106210 0
16.120000 0.074166 0
16.125000 0.042937 0
16.130000 0.012972 0
16.135000 -0.016779 0
16.140000 -0.049408 0
16.145000 -0.089540 0
16.150000 -0.140513 0
16.155000 -0.199326 0
16.160000 -0.252227 0
16.165000 -0.274945 2
16.170000 -0.238302 0
16.175000 -0.115926 0
16.180000 0.107088 0
16.185000 0.420499 0
16.190000 0.772042 0
16.195000 1.066146 0
16.200000 1.198359 3
16.205000 1.113526 0
16.210000 0.840719 0
16.215000 0.473772 0
16.220000 0.116765 0
16.225000 -0.159089 0
16.230000 -0.324659 0
16.235000 -0.382375 4
16.240000 -0.355449 0
16.245000 -0.279232 0
16.250000 -0.189677 0
16.255000 -0.111513 0
16.260000 -0.053555 0
16.265000 -0.012832 0
16.270000 0.017869 0
16.275000 0.044718 0
16.280000 0.071244 0
16.285000 0.098882 0
16.290000 0.127930 0
16.295000 0.158182 0
16.300000 0.189210 0
16.305000 0.220470 0
16.310000 0.251343 0
16.315000 0.281154 0
16.320000 0.309199 0
16.325000 0.334773 0
16.330000 0.357196 0
16.335000 0.375842 0
16.340000 0.390170 0
16.345000 0.399749 0
16.350000 0.404278 5
16.355000 0.403599 0
16.360000 0.397710 0
16.365000 0.386763 0
16.370000 0.371057 0
16.375000 0.351023 0
16.380000 0.327207 0
16.385000 0.300241 0
16.390000 0.270818 0
16.395000 0.239660 0
16.400000 0.207490 0
16.405000 0.175004 0
16.410000 0.142847 0
16.415000 0.111595 0
16.420000 0.081736 0
16.425000 0.053668 0
16.430000 0.027688 0
16.435000 0.004001 0
16.440000 -0.017281 0
16.445000 -0.036128 0
16.450000 -0.052578 0
16.455000 -0.066728 0
16.460000 -0.078721 0
16.465000 -0.088728 0
16.470000 -0.096943 0
16.475000 -0.103567 0
16.480000 -0.108803 0
16.485000 -0.112845 0
16.490000 -0.115876 0
16.495000 -0.118064 0
16.500000 -0.119559 0
16.505000 -0.120490 0
16.510000 -0.119793 0
16.515000 -0.118824 0
16.520000 -0.117860 0
16.525000 -0.116901 0
16.530000 -0.115946 0
16.535000 -0.114996 0
16.540000 -0.114050 0
16.545000 -0.113108 0
16.550000 -0.112169 0
16.555000 -0.111231 0
16.560000 -0.110290 0
16.565000 -0.109342 0
16.570000 -0.108374 0
16.575000 -0.107369 0
16.580000 -0.106299 0
16.585000 -0.105115 0
16.590000 -0.103746 0
16.595000 -0.102086 0
16.600000 -0.099981 0
16.605000 -0.097223 0
16.610000 -0.093535 0
16.615000 -0.088570 0
16.620000 -0.081915 0
16.625000 -0.073102 0
16.630000 -0.061650 0
16.635000 -0.047107 0
16.640000 -0.029122 0
16.645000 -0.007523 0
16.650000 0.017601 0
16.655000 0.045831 0
16.660000 0.076370 0
16.665000 0.108047 0
16.670000 0.139355 0
16.675000 0.168563 0
16.680000 0.193862 0
16.685000 0.213550 0
16.690000 0.226218 0
16.695000 0.230919 1
16.700000 0.227284 0
16.705000 0.215568 0
16.710000 0.196624 0
16.715000 0.171797 0
16.720000 0.142767 0
16.725000 0.111351 0
16.730000 0.079278 0
16.735000 0.047909 0
16.740000 0.017813 0
16.745000 -0.011854 0
16.750000 -0.043939 0
16.755000 -0.082969 0
16.760000 -0.132652 0
16.765000 -0.191026 0
16.770000 -0.245772 0
16.775000 -0.273750 2
16.780000 -0.246072 0
16.785000 -0.135675 0
16.790000 0.074348 0
16.795000 0.377983 0
16.800000 0.729217 0
16.805000 1.037318 0
16.810000 1.196128 3
16.815000 1.138587 0
16.820000 0.882659 0
16.825000 0.519982 0
16.830000 0.159028 0
16.835000 -0.123376 0
16.840000 -0.294612 0
16.845000 -0.355837 4
16.850000 -0.330355 0
16.855000 -0.254410 0
16.860000 -0.165027 0
16.865000 -0.087485 0
16.870000 -0.030472 0
16.875000 0.009380 0
16.880000 0.039533 0
16.885000 0.066157 0
16.890000 0.092666 0
16.895000 0.120378 0
16.900000 0.149518 0
16.905000 0.179829 0
16.910000 0.210851 0
16.915000 0.242009 0
16.920000 0.272651 0
16.925000 0.302075 0
16.930000 0.329553 0
16.935000 0.354361 0
16.940000 0.375809 0
16.945000 0.393270 0
16.950000 0.406217 0
16.955000 0.414239 0
16.960000 0.417069 5
16.965000 0.414596 0
16.970000 0.406869 0
16.975000 0.394097 0
16.980000 0.376641 0
16.985000 0.354990 0
16.990000 0.329746 0
16.995000 0.301588 0
17.000000 0.271248 0
17.005000 0.239473 0
17.010000 0.206998 0
17.015000 0.174520 0
17.020000 0.142669 0
17.025000 0.111998 0
17.030000 0.082961 0
17.035000 0.055915 0
17.040000 0.031114 0
17.045000 0.008713 0
17.050000 -0.011220 0
17.055000 -0.028697 0
17.060000 -0.043797 0
17.065000 -0.056648 0
17.070000 -0.067419 0
17.075000 -0.076302 0
17.080000 -0.083503 0
17.085000 -0.089231 0
17.090000 -0.093689 0
17.095000 -0.097071 0
17.100000 -0.099552 0
17.105000 -0.101293 0
17.110000 -0.102432 0
17.115000 -0.101842 0
17.120000 -0.100962 0
17.125000 -0.100087 0
17.130000 -0.099217 0
17.135000 -0.098350 0
17.140000 -0.097488 0
17.145000 -0.096629 0
17.150000 -0.095774 0
17.155000 -0.094922 0
17.160000 -0.094070 0
17.165000 -0.093216 0
17.170000 -0.092353 0
17.175000 -0.091471 0
17.180000 -0.090552 0
17.185000 -0.089565 0
17.190000 -0.088462 0
17.195000 -0.087169 0
17.200000 -0.085574 0
17.205000 -0.083518 0
17.210000 -0.080780 0
17.215000 -0.077072 0
17.220000 -0.072027 0
17.225000 -0.065213 0
17.230000 -0.056146 0
17.235000 -0.044327 0
17.240000 -0.029305 0
17.245000 -0.010741 0
17.250000 0.011499 0
17.255000 0.037261 0
17.260000 0.066033 0
17.265000 0.096905 0
17.270000 0.128577 0
17.275000 0.159428 0
17.280000 0.187633 0
17.285000 0.211341 0
17.290000 0.228868 0
17.295000 0.238899 0
17.300000 0.240646 1
17.305000 0.233951 0
17.310000 0.219309 0
17.315000 0.197807 0
17.320000 0.170989 0
17.325000 0.140668 0
17.330000 0.108707 0
17.335000 0.076764 0
17.340000 0.045932 0
17.345000 0.016198 0
17.350000 -0.014264 0
17.355000 -0.049407 0
17.360000 -0.093945 0
17.365000 -0.149277 0
17.370000 -0.207935 0
17.375000 -0.250624 2
17.380000 -0.249202 0
17.385000 -0.174075 0
17.390000 -0.002550 0
17.395000 0.270013 0
17.400000 0.612846 0
17.405000 0.947121 0
17.410000 1.163175 0
17.415000 1.174502 3
17.420000 0.971376 0
17.425000 0.628634 0
17.430000 0.257365 0
17.435000 -0.052435 0
17.440000 -0.255597 0
17.445000 -0.345154 4
17.450000 -0.339513 0
17.455000 -0.272904 0
17.460000 -0.183932 0
17.465000 -0.102063 0
17.470000 -0.040113 0
17.475000 0.003114 0
17.480000 0.034836 0
17.485000 0.061849 0
17.490000 0.088210 0
17.495000 0.115622 0
17.500000 0.144477 0
17.505000 0.174586 0
17.510000 0.205511 0
17.515000 0.236688 0
17.520000 0.267471 0
17.525000 0.297156 0
17.530000 0.325008 0
17.535000 0.350292 0
17.540000 0.372300 0
17.545000 0.390388 0
17.550000 0.404003 0
17.555000 0.412713 0
17.560000 0.416226 5
17.565000 0.414408 0
17.570000 0.407289 0
17.575000 0.395062 0
17.580000 0.378076 0
17.585000 0.356814 0
17.590000 0.331874 0
17.595000 0.303939 0
17.600000 0.273744 0
17.605000 0.242048 0
17.610000 0.209596 0
17.615000 0.177096 0
17.620000 0.145193 0
17.625000 0.114449 0
17.630000 0.085329 0
17.635000 0.058200 0
17.640000 0.033321 0
17.645000 0.010854 0
17.650000 -0.009130 0
17.655000 -0.026645 0
17.660000 -0.041766 0
17.665000 -0.054625 0
17.670000 -0.065392 0
17.675000 -0.074262 0
17.680000 -0.081443 0
17.685000 -0.087147 0
17.690000 -0.091579 0
17.695000 -0.094934 0
17.700000 -0.097391 0
17.705000 -0.099109 0
17.710000 -0.100229 0
17.715000 -0.099646 0
17.720000 -0.098777 0
17.725000 -0.097913 0
17.730000 -0.097053 0
17.735000 -0.096197 0
17.740000 -0.095346 0
17.745000 -0.094498 0
17.750000 -0.093653 0
17.755000 -0.092811 0
17.760000 -0.091969 0
17.765000 -0.091124 0
17.770000 -0.090270 0
17.775000 -0.089393 0
17.780000 -0.088476 0
17.785000 -0.087485 0
17.790000 -0.086368 0
17.795000 -0.085044 0
17.800000 -0.083394 0
17.805000 -0.081246 0
17.810000 -0.078365 0
17.815000 -0.074446 0
17.820000 -0.069104 0
17.825000 -0.061889 0
17.830000 -0.052305 0
17.835000 -0.039851 0
17.840000 -0.024088 0
17.845000 -0.004710 0
17.850000 0.018359 0
17.855000 0.044888 0
17.860000 0.074263 0
17.865000 0.105465 0
17.870000 0.137089 0
17.875000 0.167427 0
17.880000 0.194607 0
17.885000 0.216779 0
17.890000 0.232322 0
17.895000 0.240040 1
17.900000 0.239310 0
17.905000 0.230166 0
17.910000 0.213297 0
17.915000 0.189963 0
17.920000 0.161832 0
17.925000 0.130781 0
17.930000 0.098661 0
17.935000 0.067006 0
17.940000 0.036622 0
17.945000 0.006947 0
17.950000 -0.024636 0
17.955000 -0.062687 0
17.960000 -0.111377 0
17.965000 -0.169448 0
17.970000 -0.224937 0
17.975000 -0.254240 2
17.980000 -0.227326 0
17.985000 -0.115931 0
17.990000 0.097343 0
17.995000 0.405037 0
18.000000 0.756472 0
18.005000 1.054357 0
18.010000 1.189697 3
18.015000 1.104206 0
18.020000 0.828292 0
18.025000 0.459978 0
18.030000 0.106359 0
18.035000 -0.161340 0
18.040000 -0.315890 0
18.045000 -0.362298 4
18.050000 -0.326583 0
18.055000 -0.246255 0
18.060000 -0.157472 0
18.065000 -0.083079 0
18.070000 -0.029346 0
18.075000 0.008344 0
18.080000 0.037548 0
18.085000 0.064011 0
18.090000 0.090719 0
18.095000 0.118736 0
18.100000 0.148160 0
18.105000 0.178685 0
18.110000 0.209818 0
18.115000 0.240963 0
18.120000 0.271451 0
18.125000 0.300566 0
18.130000 0.327575 0
18.135000 0.351752 0
18.140000 0.372413 0
18.145000 0.388947 0
18.150000 0.400844 0
18.155000 0.407725 0
18.160000 0.409354 5
18.165000 0.405657 0
18.170000 0.396722 0
18.175000 0.382798 0
18.180000 0.364282 0
18.185000 0.341698 0
18.190000 0.315673 0
18.195000 0.286911 0
18.200000 0.256153 0
18.205000 0.224152 0
18.210000 0.191643 0
18.215000 0.159310 0
18.220000 0.127768 0
18.225000 0.097548 0
18.230000 0.069080 0
18.235000 0.042693 0
18.240000 0.018614 0
18.245000 -0.003028 0
18.250000 -0.022188 0
18.255000 -0.038902 0
18.260000 -0.053265 0
18.265000 -0.065420 0
18.270000 -0.075546 0
18.275000 -0.083843 0
18.280000 -0.090519 0
18.285000 -0.095784 0
18.290000 -0.099840 0
18.295000 -0.102877 0
18.300000 -0.105066 0
18.305000 -0.106562 0
18.310000 -0.107497 0
18.315000 -0.106856 0
18.320000 -0.105952 0
18.325000 -0.105052 0
18.330000 -0.104156 0
18.335000 -0.103265 0
18.340000 -0.102378 0
18.345000 -0.101495 0
18.350000 -0.100615 0
18.355000 -0.099737 0
18.360000 -0.098860 0
18.365000 -0.097977 0
18.370000 -0.097083 0
18.375000 -0.096164 0
18.380000 -0.095197 0
18.385000 -0.094145 0
18.390000 -0.092951 0
18.395000 -0.091525 0
18.400000 -0.089737 0
18.405000 -0.087403 0
18.410000 -0.084272 0
18.415000 -0.080020 0
18.420000 -0.074250 0
18.425000 -0.066499 0
18.430000 -0.056268 0
18.435000 -0.043068 0
18.440000 -0.026483 0
18.445000 -0.006253 0
18.450000 0.017638 0
18.455000 0.044880 0
18.460000 0.074777 0
18.465000 0.106228 0
18.470000 0.137762 0
18.475000 0.167631 0
18.480000 0.193962 0
18.485000 0.214943 0
18.490000 0.229033 0
18.495000 0.235142 1
18.500000 0.232778 0
18.505000 0.222104 0
18.510000 0.203924 0
18.515000 0.179582 0
18.520000 0.150795 0
18.525000 0.119443 0
18.530000 0.087335 0
18.535000 0.055905 0
18.540000 0.025764 0
18.545000 -0.003960 0
18.550000 -0.036256 0
18.555000 -0.075843 0
18.560000 -0.126374 0
18.565000 -0.185143 0
18.570000 -0.238254 0
18.575000 -0.260709 2
18.580000 -0.222337 0
18.585000 -0.096041 0
18.590000 0.132808 0
18.595000 0.451443 0
18.600000 0.802042 0
18.605000 1.082901 0
18.610000 1.188808 3
18.615000 1.071112 0
18.620000 0.772973 0
18.625000 0.400280 0
18.630000 0.058476 0
18.635000 -0.188139 0
18.640000 -0.319185 0
18.645000 -0.344981 4
18.650000 -0.295609 0
18.655000 -0.210376 0
18.660000 -0.123849 0
18.665000 -0.054983 0
18.670000 -0.006463 0
18.675000 0.027984 0
18.680000 0.055846 0
18.685000 0.082130 0
18.690000 0.109161 0
18.695000 0.137621 0
18.700000 0.167431 0
18.705000 0.198194 0
18.710000 0.229365 0
18.715000 0.260302 0
18.720000 0.290299 0
18.725000 0.318614 0
18.730000 0.344493 0
18.735000 0.367209 0
18.740000 0.386089 0
18.745000 0.400550 0
18.750000 0.410128 0
18.755000 0.414500 5
18.760000 0.413502 0
18.765000 0.407139 0
18.770000 0.395585 0
18.775000 0.379173 0
18.780000 0.358380 0
18.785000 0.333803 0
18.790000 0.306129 0
18.795000 0.276104 0
18.800000 0.244499 0
18.805000 0.212075 0
18.810000 0.179557 0
18.815000 0.147606 0
18.820000 0.116799 0
18.825000 0.087615 0
18.830000 0.060429 0
18.835000 0.035510 0
18.840000 0.013023 0
18.845000 -0.006960 0
18.850000 -0.024451 0
18.855000 -0.039530 0
18.860000 -0.052331 0
18.865000 -0.063028 0
18.870000 -0.071821 0
18.875000 -0.078921 0
18.880000 -0.084544 0
18.885000 -0.088899 0
18.890000 -0.092183 0
18.895000 -0.094576 0
18.900000 -0.096239 0
18.905000 -0.097313 0
18.910000 -0.096735 0
18.915000 -0.095881 0
18.920000 -0.095031 0
18.925000 -0.094186 0
18.930000 -0.093344 0
18.935000 -0.092507 0
18.940000 -0.091673 0
18.945000 -0.090842 0
18.950000 -0.090014 0
18.955000 -0.089185 0
18.960000 -0.088351 0
18.965000 -0.087506 0
18.970000 -0.086635 0
18.975000 -0.085716 0
18.980000 -0.084711 0
18.985000 -0.083561 0
18.990000 -0.082174 0
18.995000 -0.080414 0
19.000000 -0.078092 0
19.005000 -0.074946 0
19.010000 -0.070641 0
19.015000 -0.064764 0
19.020000 -0.056836 0
19.025000 -0.046346 0
19.030000 -0.032797 0
19.035000 -0.015779 0
19.040000 0.004947 0
19.045000 0.029353 0
19.050000 0.057063 0
19.055000 0.087296 0
19.060000 0.118852 0
19.065000 0.150164 0
19.070000 0.179401 0
19.075000 0.204642 0
19.080000 0.224079 0
19.085000 0.236227 0
19.090000 0.240115 1
19.095000 0.235409 0
19.100000 0.222462 0
19.105000 0.202267 0
19.110000 0.176332 0
19.115000 0.146491 0
19.120000 0.114671 0
19.125000 0.082634 0
19.130000 0.051620 0
19.135000 0.021801 0
19.140000 -0.008465 0
19.145000 -0.043057 0
19.150000 -0.086875 0
19.155000 -0.141750 0
19.160000 -0.200555 0
19.165000 -0.243833 2
19.170000 -0.242708 0
19.175000 -0.166678 0
19.180000 0.007499 0
19.185000 0.283846 0
19.190000 0.628669 0
19.195000 0.958070 0
19.200000 1.158732 3
19.205000 1.146878 0
19.210000 0.921696 0
19.215000 0.568372 0
19.220000 0.202195 0
19.225000 -0.090212 0
19.230000 -0.270017 0
19.235000 -0.336191 4
19.240000 -0.312332 0
19.245000 -0.236375 0
19.250000 -0.147199 0
19.255000 -0.070866 0
19.260000 -0.015613 0
19.265000 0.022739 0
19.270000 0.052064 0
19.275000 0.078469 0
19.280000 0.105119 0
19.285000 0.133115 0
19.290000 0.162547 0
19.295000 0.193078 0
19.300000 0.224183 0
19.305000 0.255230 0
19.310000 0.285512 0
19.315000 0.314277 0
19.320000 0.340755 0
19.325000 0.364192 0
19.330000 0.383887 0
19.335000 0.399223 0
19.340000 0.409699 0
19.345000 0.414960 5
19.350000 0.414807 0
19.355000 0.409220 0
19.360000 0.398349 0
19.365000 0.382514 0
19.370000 0.362186 0
19.375000 0.337961 0
19.380000 0.310533 0
19.385000 0.280660 0
19.390000 0.249129 0
19.395000 0.216720 0
19.400000 0.184176 0
19.405000 0.152177 0
19.410000 0.121314 0
19.415000 0.092083 0
19.420000 0.064866 0
19.425000 0.039939 0
19.430000 0.017472 0
19.435000 -0.002466 0
19.440000 -0.019887 0
19.445000 -0.034874 0
19.450000 -0.047569 0
19.455000 -0.058150 0
19.460000 -0.066823 0
19.465000 -0.073804 0
19.470000 -0.079313 0
19.475000 -0.083564 0
19.480000 -0.086755 0
19.485000 -0.089067 0
19.490000 -0.090663 0
19.495000 -0.091684 0
19.500000 -0.091121 0
19.505000 -0.090295 0
19.510000 -0.089473 0
19.515000 -0.088656 0
19.520000 -0.087842 0
19.525000 -0.087032 0
19.530000 -0.086225 0
19.535000 -0.085421 0
19.540000 -0.084618 0
19.545000 -0.083815 0
19.550000 -0.083004 0
19.555000 -0.082179 0
19.560000 -0.081321 0
19.565000 -0.080405 0
19.570000 -0.079386 0
19.575000 -0.078194 0
19.580000 -0.076720 0
19.585000 -0.074810 0
19.590000 -0.072243 0
19.595000 -0.068726 0
19.600000 -0.063886 0
19.605000 -0.057271 0
19.610000 -0.048375 0
19.615000 -0.036674 0
19.620000 -0.021688 0
19.625000 -0.003060 0
19.630000 0.019342 0
19.635000 0.045338 0
19.640000 0.074357 0
19.645000 0.105394 0
19.650000 0.137031 0
19.655000 0.167512 0
19.660000 0.194898 0
19.665000 0.217258 0
19.670000 0.232893 0
19.675000 0.240549 1
19.680000 0.239583 0
19.685000 0.230050 0
19.690000 0.212696 0
19.695000 0.188864 0
19.700000 0.160318 0
19.705000 0.129021 0
19.710000 0.096872 0
19.715000 0.065387 0
19.720000 0.035213 0
19.725000 0.005402 0
19.730000 -0.027256 0
19.735000 -0.067726 0
19.740000 -0.119479 0
19.745000 -0.178602 0
19.750000 -0.228924 0
19.755000 -0.243005 2
19.760000 -0.189258 0
19.765000 -0.041074 0
19.770000 0.212082 0
19.775000 0.546784 0
19.780000 0.888805 0
19.785000 1.124897 0
19.790000 1.157713 3
19.795000 0.969860 0
19.800000 0.633320 0
19.805000 0.261048 0
19.810000 -0.052771 0
19.815000 -0.259853 0
19.820000 -0.351919 4
19.825000 -0.347265 0
19.830000 -0.280708 0
19.835000 -0.191672 0
19.840000 -0.110110 0
19.845000 -0.048776 0
19.850000 -0.006143 0
19.855000 0.025235 0
19.860000 0.052174 0
19.865000 0.078637 0
19.870000 0.106231 0
19.875000 0.135283 0
19.880000 0.165567 0
19.885000 0.196616 0
19.890000 0.227844 0
19.895000 0.258580 0
19.900000 0.288099 0
19.905000 0.315647 0
19.910000 0.340474 0
19.915000 0.361867 0
19.920000 0.379182 0
19.925000 0.391876 0
19.930000 0.399535 0
19.935000 0.401895 5
19.940000 0.398857 0
19.945000 0.390493 0
19.950000 0.377040 0
19.955000 0.358893 0
19.960000 0.336581 0
19.965000 0.310742 0
19.970000 0.282095 0
19.975000 0.251401 0
19.980000 0.219435 0
19.985000 0.186948 0
19.990000 0.154645 0
19.995000 0.123157 0
20.000000 0.093024 0
20.005000 0.064685 0
20.010000 0.038471 0
20.015000 0.014609 0
20.020000 -0.006777 0
20.025000 -0.025650 0
20.030000 -0.042054 0
20.035000 -0.056092 0
20.040000 -0.067920 0
20.045000 -0.077722 0
20.050000 -0.085708 0
20.055000 -0.092091 0
20.060000 -0.097087 0
20.065000 -0.100900 0
20.070000 -0.103722 0
20.075000 -0.105724 0
20.080000 -0.107060 0
20.085000 -0.107614 0
20.090000 -0.106705 0
20.095000 -0.105802 0
20.100000 -0.104903 0
20.105000 -0.104008 0
20.110000 -0.103117 0
20.115000 -0.102231 0
20.120000 -0.101348 0
20.125000 -0.100468 0
20.130000 -0.099590 0
20.135000 -0.098710 0
20.140000 -0.097823 0
20.145000 -0.096918 0
20.150000 -0.095980 0
20.155000 -0.094978 0
20.160000 -0.093865 0
20.165000 -0.092569 0
20.170000 -0.090978 0
20.175000 -0.088931 0
20.180000 -0.086206 0
20.185000 -0.082505 0
20.190000 -0.077454 0
20.195000 -0.070604 0
20.200000 -0.061454 0
20.205000 -0.049491 0
20.210000 -0.034248 0
20.215000 -0.015386 0
20.220000 0.007216 0
20.225000 0.033368 0
20.230000 0.062496 0
20.235000 0.093607 0
20.240000 0.125303 0
20.245000 0.155863 0
20.250000 0.183380 0
20.255000 0.205956 0
20.260000 0.221914 0
20.265000 0.230004 1
20.270000 0.229564 0
20.275000 0.220609 0
20.280000 0.203834 0
20.285000 0.180520 0
20.290000 0.152373 0
20.295000 0.121315 0
20.300000 0.089230 0
20.305000 0.057667 0
20.310000 0.027396 0
20.315000 -0.002269 0
20.320000 -0.034165 0
20.325000 -0.073046 0
20.330000 -0.122894 0
20.335000 -0.181477 0
20.340000 -0.235116 0
20.345000 -0.258462 2
20.350000 -0.220573 0
20.355000 -0.093590 0
20.360000 0.137337 0
20.365000 0.458253 0
20.370000 0.808017 0
20.375000 1.080869 0
20.380000 1.170822 3
20.385000 1.037091 0
20.390000 0.730037 0
20.395000 0.356529 0
20.400000 0.019134 0
20.405000 -0.221306 0
20.410000 -0.346639 0
20.415000 -0.368269 4
20.420000 -0.316628 0
20.425000 -0.230727 0
20.430000 -0.144402 0
20.435000 -0.075917 0
20.440000 -0.027612 0
20.445000 0.006810 0
20.450000 0.034750 0
20.455000 0.061138 0
20.460000 0.088270 0
20.465000 0.116821 0
20.470000 0.146718 0
20.475000 0.177569 0
20.480000 0.208837 0
20.485000 0.239888 0
20.490000 0.270026 0
20.495000 0.298516 0
20.500000 0.324612 0
20.505000 0.347592 0
20.510000 0.366788 0
20.515000 0.381618 0
20.520000 0.391612 0
20.525000 0.396444 5
20.530000 0.395939 0
20.535000 0.390089 0
20.540000 0.379055 0
20.545000 0.363152 0
20.550000 0.342841 0
20.555000 0.318703 0
20.560000 0.291411 0
20.565000 0.261698 0
20.570000 0.230326 0
20.575000 0.198051 0
20.580000 0.165597 0
20.585000 0.133627 0
20.590000 0.102724 0
20.595000 0.073376 0
20.600000 0.045969 0
20.605000 0.020784 0
20.610000 -0.002000 0
20.615000 -0.022299 0
20.620000 -0.040111 0
20.625000 -0.055506 0
20.630000 -0.068608 0
20.635000 -0.079584 0
20.640000 -0.088627 0
20.645000 -0.095946 0
20.650000 -0.101754 0
20.655000 -0.106259 0
20.660000 -0.109661 0
20.665000 -0.112140 0
20.670000 -0.113860 0
20.675000 -0.114966 0
20.680000 -0.114317 0
20.685000 -0.113375 0
20.690000 -0.112438 0
20.695000 -0.111506 0
20.700000 -0.110578 0
20.705000 -0.109655 0
20.710000 -0.108736 0
20.715000 -0.107821 0
20.720000 -0.106908 0
20.725000 -0.105996 0
20.730000 -0.105082 0
20.735000 -0.104158 0
20.740000 -0.103215 0
20.745000 -0.102232 0
20.750000 -0.101177 0
20.755000 -0.099999 0
20.760000 -0.098618 0
20.765000 -0.096915 0
20.770000 -0.094720 0
20.775000 -0.091798 0
20.780000 -0.087843 0
20.785000 -0.082469 0
20.790000 -0.075224 0
20.795000 -0.065608 0
20.800000 -0.053116 0
20.805000 -0.037304 0
20.810000 -0.017865 0
20.815000 0.005282 0
20.820000 0.031899 0
20.825000 0.061367 0
20.830000 0.092653 0
20.835000 0.124336 0
20.840000 0.154688 0
20.845000 0.181822 0
20.850000 0.203876 0
20.855000 0.219227 0
20.860000 0.226687 1
20.865000 0.225652 0
20.870000 0.216187 0
20.875000 0.199016 0
20.880000 0.175434 0
20.885000 0.147141 0
20.890000 0.116033 0
20.895000 0.083964 0
20.900000 0.052448 0
20.905000 0.022220 0
20.910000 -0.007421 0
20.915000 -0.039296 0
20.920000 -0.078097 0
20.925000 -0.127777 0
20.930000 -0.186258 0
20.935000 -0.240290 0
20.940000 -0.265113 2
20.945000 -0.230247 0
20.950000 -0.107913 0
20.955000 0.117447 0
20.960000 0.434142 0
20.965000 0.784998 0
20.970000 1.067716 0
20.975000 1.175411 3
20.980000 1.059103 0
20.985000 0.761857 0
20.990000 0.389340 0
20.995000 0.047141 0
21.000000 -0.200145 0
21.005000 -0.331896 0
21.010000 -0.358263 4
21.015000 -0.309218 0
21.020000 -0.224039 0
21.025000 -0.137365 0
21.030000 -0.068278 0
21.035000 -0.019558 0
21.040000 0.015029 0
21.045000 0.042983 0
21.050000 0.069331 0
21.055000 0.096414 0
21.060000 0.124924 0
21.065000 0.154786 0
21.070000 0.185605 0
21.075000 0.216837 0
21.080000 0.247840 0
21.085000 0.277909 0
21.090000 0.306303 0
21.095000 0.332268 0
21.100000 0.355076 0
21.105000 0.374054 0
21.110000 0.388619 0
21.115000 0.398305 0
21.120000 0.402787 5
21.125000 0.401901 0
21.130000 0.395649 0
21.135000 0.384204 0
21.140000 0.367897 0
21.145000 0.347204 0
21.150000 0.322721 0
21.155000 0.295133 0
21.160000 0.265185 0
21.165000 0.233649 0
21.170000 0.201286 0
21.175000 0.168821 0
21.180000 0.136916 0
21.185000 0.106148 0
21.190000 0.076997 0
21.195000 0.049841 0
21.200000 0.024948 0
21.205000 0.002486 0
21.210000 -0.017474 0
21.215000 -0.034942 0
21.220000 -0.049997 0
21.225000 -0.062772 0
21.230000 -0.073442 0
21.235000 -0.082205 0
21.240000 -0.089273 0
21.245000 -0.094862 0
21.250000 -0.099181 0
21.255000 -0.102426 0
21.260000 -0.104779 0
21.265000 -0.106400 0
21.270000 -0.107430 0
21.275000 -0.106802 0
21.280000 -0.105898 0
21.285000 -0.104998 0
21.290000 -0.104103 0
21.295000 -0.103212 0
21.300000 -0.102326 0
21.305000 -0.101443 0
21.310000 -0.100564 0
21.315000 -0.099686 0
21.320000 -0.098809 0
21.325000 -0.097928 0
21.330000 -0.097035 0
21.335000 -0.096117 0
21.340000 -0.095152 0
21.345000 -0.094102 0
21.350000 -0.092908 0
21.355000 -0.091479 0
21.360000 -0.089681 0
21.365000 -0.087323 0
21.370000 -0.084147 0
21.375000 -0.079819 0
21.380000 -0.073926 0
21.385000 -0.065992 0
21.390000 -0.055504 0
21.395000 -0.041967 0
21.400000 -0.024966 0
21.405000 -0.004261 0
21.410000 0.020128 0
21.415000 0.047829 0
21.420000 0.078070 0
21.425000 0.109659 0
21.430000 0.141034 0
21.435000 0.170368 0
21.440000 0.195741 0
21.445000 0.215341 0
21.450000 0.227676 0
21.455000 0.231764 1
21.460000 0.227259 0
21.465000 0.214501 0
21.470000 0.194473 0
21.475000 0.168672 0
21.480000 0.138928 0
21.485000 0.107170 0
21.490000 0.075163 0
21.495000 0.044164 0
21.500000 0.014370 0
21.505000 -0.015817 0
21.510000 -0.050233 0
21.515000 -0.093788 0
21.520000 -0.148430 0
21.525000 -0.207270 0
21.530000 -0.251096 0
21.535000 -0.251167 2
21.540000 -0.176933 0
21.545000 -0.004907 0
21.550000 0.269509 0
21.555000 0.613617 0
21.560000 0.944547 0
21.565000 1.149113 3
21.570000 1.142226 0
21.575000 0.922733 0
21.580000 0.573016 0
21.585000 0.204307 0
21.590000 -0.097009 0
21.595000 -0.289695 0
21.600000 -0.369533 4
21.605000 -0.356731 0
21.610000 -0.286458 0
21.615000 -0.197037 0
21.620000 -0.116595 0
21.625000 -0.056439 0
21.630000 -0.014479 0
21.635000 0.016673 0
21.640000 0.043605 0
21.645000 0.070121 0
21.650000 0.097764 0
21.655000 0.126849 0
21.660000 0.157155 0
21.665000 0.188229 0
21.670000 0.219498 0
21.675000 0.250310 0
21.680000 0.279956 0
21.685000 0.307700 0
21.690000 0.332807 0
21.695000 0.354575 0
21.700000 0.372366 0
21.705000 0.385637 0
21.710000 0.393967 0
21.715000 0.397081 5
21.720000 0.394857 0
21.725000 0.387343 0
21.730000 0.374746 0
21.735000 0.357428 0
21.740000 0.335885 0
21.745000 0.310725 0
21.750000 0.282636 0
21.755000 0.252359 0
21.760000 0.220651 0
21.765000 0.188257 0
21.770000 0.155878 0
21.775000 0.124153 0
21.780000 0.093636 0
21.785000 0.064782 0
21.790000 0.037949 0
21.795000 0.013385 0
21.800000 -0.008756 0
21.805000 -0.028413 0
21.810000 -0.045604 0
21.815000 -0.060413 0
21.820000 -0.072975 0
21.825000 -0.083463 0
21.830000 -0.092074 0
21.835000 -0.099016 0
21.840000 -0.104502 0
21.845000 -0.108737 0
21.850000 -0.111912 0
21.855000 -0.114206 0
21.860000 -0.115777 0
21.865000 -0.116762 0
21.870000 -0.116089 0
21.875000 -0.115138 0
21.880000 -0.114193 0
21.885000 -0.113252 0
21.890000 -0.112315 0
21.895000 -0.111383 0
21.900000 -0.110455 0
21.905000 -0.109531 0
21.910000 -0.108609 0
21.915000 -0.107688 0
21.920000 -0.106764 0
21.925000 -0.105829 0
21.930000 -0.104872 0
21.935000 -0.103871 0
21.940000 -0.102793 0
21.945000 -0.101582 0
21.950000 -0.100155 0
21.955000 -0.098387 0
21.960000 -0.096100 0
21.965000 -0.093054 0
21.970000 -0.088934 0
21.975000 -0.083348 0
21.980000 -0.075840 0
21.985000 -0.065910 0
21.990000 -0.053062 0
21.995000 -0.036865 0
22.000000 -0.017034 0
22.005000 0.006482 0
22.010000 0.033411 0
22.015000 0.063101 0
22.020000 0.094490 0
22.025000 0.126135 0
22.030000 0.156304 0
22.035000 0.183117 0
22.040000 0.204738 0
22.045000 0.219582 0
22.050000 0.226505 1
22.055000 0.224950 0
22.060000 0.215021 0
22.065000 0.197475 0
22.070000 0.173620 0
22.075000 0.145159 0
22.080000 0.113979 0
22.085000 0.081910 0
22.090000 0.050436 0
22.095000 0.020251 0
22.100000 -0.009396 0
22.105000 -0.041361 0
22.110000 -0.080327 0
22.115000 -0.130165 0
22.120000 -0.188685 0
22.125000 -0.242612 0
22.130000 -0.267305 2
22.135000 -0.232508 0
22.140000 -0.110644 0
22.145000 0.113827 0
22.150000 0.429639 0
22.155000 0.780696 0
22.160000 1.065973 0
22.165000 1.178813 3
22.170000 1.070549 0
22.175000 0.781938 0
22.180000 0.411326 0
22.185000 0.061109 0
22.190000 -0.202220 0
22.195000 -0.353860 0
22.200000 -0.399300 4
22.205000 -0.363893 0
22.210000 -0.283963 0
22.215000 -0.194762 0
22.220000 -0.119074 0
22.225000 -0.063763 0
22.230000 -0.024816 0
22.235000 0.005099 0
22.240000 0.031826 0
22.245000 0.058547 0
22.250000 0.086481 0
22.255000 0.115819 0
22.260000 0.146308 0
22.265000 0.177495 0
22.270000 0.208820 0
22.275000 0.239649 0
22.280000 0.269298 0
22.285000 0.297057 0
22.290000 0.322220 0
22.295000 0.344109 0
22.300000 0.362109 0
22.305000 0.375695 0
22.310000 0.384453 0
22.315000 0.388108 5
22.320000 0.386528 0
22.325000 0.379742 0
22.330000 0.367931 0
22.335000 0.351421 0
22.340000 0.330672 0
22.345000 0.306249 0
22.350000 0.278805 0
22.355000 0.249042 0
22.360000 0.217691 0
22.365000 0.185474 0
22.370000 0.153082 0
22.375000 0.121150 0
22.380000 0.090237 0
22.385000 0.060817 0
22.390000 0.033267 0
22.395000 0.007864 0
22.400000 -0.015207 0
22.405000 -0.035854 0
22.410000 -0.054063 0
22.415000 -0.069889 0
22.420000 -0.083439 0
22.425000 -0.094866 0
22.430000 -0.104348 0
22.435000 -0.112083 0
22.440000 -0.118275 0
22.445000 -0.123124 0
22.450000 -0.126826 0
22.455000 -0.129559 0
22.460000 -0.131487 0
22.465000 -0.132757 0
22.470000 -0.133236 0
22.475000 -0.132200 0
22.480000 -0.131169 0
22.485000 -0.130143 0
22.490000 -0.129123 0
22.495000 -0.128107 0
22.500000 -0.127096 0
22.505000 -0.126090 0
22.510000 -0.125087 0
22.515000 -0.124087 0
22.520000 -0.123088 0
22.525000 -0.122086 0
22.530000 -0.121072 0
22.535000 -0.120036 0
22.540000 -0.118956 0
22.545000 -0.117797 0
22.550000 -0.116506 0
22.555000 -0.115001 0
22.560000 -0.113162 0
22.565000 -0.110819 0
22.570000 -0.107740 0
22.575000 -0.103627 0
22.580000 -0.098106 0
22.585000 -0.090743 0
22.590000 -0.081059 0
22.595000 -0.068573 0
22.600000 -0.052857 0
22.605000 -0.033608 0
22.610000 -0.010733 0
22.615000 0.015574 0
22.620000 0.044765 0
22.625000 0.075906 0
22.630000 0.107696 0
22.635000 0.138527 0
22.640000 0.166612 0
22.645000 0.190149 0
22.650000 0.207511 0
22.655000 0.217431 0
22.660000 0.219157 1
22.665000 0.212546 0
22.670000 0.198083 0
22.675000 0.176824 0
22.680000 0.150267 0
22.685000 0.120176 0
22.690000 0.088373 0
22.695000 0.056494 0
22.700000 0.025663 0
22.705000 -0.004013 0
22.710000 -0.034119 0
22.715000 -0.068307 0
22.720000 -0.111255 0
22.725000 -0.165091 0
22.730000 -0.224099 0
22.735000 -0.271249 0
22.740000 -0.280102 2
22.745000 -0.221430 0
22.750000 -0.071066 0
22.755000 0.180442 0
22.760000 0.512319 0
22.765000 0.858531 0
22.770000 1.115574 0
22.775000 1.187047 3
22.780000 1.040597 0
22.785000 0.728804 0
22.790000 0.354953 0
22.795000 0.016792 0
22.800000 -0.227193 0
22.805000 -0.358648 0
22.810000 -0.387281 4
22.815000 -0.341117 0
22.820000 -0.257228 0
22.825000 -0.169294 0
22.830000 -0.097200 0
22.835000 -0.045333 0
22.840000 -0.008573 0
22.845000 0.020376 0
22.850000 0.046888 0
22.855000 0.073723 0
22.860000 0.101855 0
22.865000 0.131370 0
22.870000 0.161966 0
22.875000 0.193168 0
22.880000 0.224403 0
22.885000 0.255027 0
22.890000 0.284349 0
22.895000 0.311659 0
22.900000 0.336253 0
22.905000 0.357465 0
22.910000 0.374692 0
22.915000 0.387426 0
22.920000 0.395279 0
22.925000 0.397996 5
22.930000 0.395476 0
22.935000 0.387772 0
22.940000 0.375090 0
22.945000 0.357780 0
22.950000 0.336322 0
22.955000 0.311296 0
22.960000 0.283366 0
22.965000 0.253240 0
22.970000 0.221648 0
22.975000 0.189309 0
22.980000 0.156905 0
22.985000 0.125059 0
22.990000 0.094318 0
22.995000 0.065138 0
23.000000 0.037879 0
23.005000 0.012804 0
23.010000 -0.009919 0
23.015000 -0.030211 0
23.020000 -0.048070 0
23.025000 -0.063561 0
23.030000 -0.076799 0
23.035000 -0.087942 0
23.040000 -0.097172 0
23.045000 -0.104687 0
23.050000 -0.110693 0
23.055000 -0.115388 0
23.060000 -0.118965 0
23.065000 -0.121601 0
23.070000 -0.123457 0
23.075000 -0.124676 0
23.080000 -0.125133 0
23.085000 -0.124137 0
23.090000 -0.123146 0
23.095000 -0.122161 0
23.100000 -0.121180 0
23.105000 -0.120204 0
23.110000 -0.119232 0
23.115000 -0.118265 0
23.120000 -0.117301 0
23.125000 -0.116340 0
23.130000 -0.115378 0
23.135000 -0.114412 0
23.140000 -0.113434 0
23.145000 -0.112430 0
23.150000 -0.111377 0
23.155000 -0.110239 0
23.160000 -0.108959 0
23.165000 -0.107449 0
23.170000 -0.105583 0
23.175000 -0.103182 0
23.180000 -0.100005 0
23.185000 -0.095742 0
23.190000 -0.090011 0
23.195000 -0.082370 0
23.200000 -0.072336 0
23.205000 -0.059432 0
23.210000 -0.043245 0
23.215000 -0.023497 0
23.220000 -0.000134 0
23.225000 0.026603 0
23.230000 0.056111 0
23.235000 0.087402 0
23.240000 0.119124 0
23.245000 0.149636 0
23.250000 0.177141 0
23.255000 0.199849 0
23.260000 0.216177 0
23.265000 0.224924 0
23.270000 0.225422 1
23.275000 0.217617 0
23.280000 0.202081 0
23.285000 0.179940 0
23.290000 0.152742 0
23.295000 0.122269 0
23.300000 0.090332 0
23.305000 0.058517 0
23.310000 0.027840 0
23.315000 -0.001787 0
23.320000 -0.032227 0
23.325000 -0.067387 0
23.330000 -0.111858 0
23.335000 -0.167011 0
23.340000 -0.225691 0
23.345000 -0.269345 0
23.350000 -0.270724 2
23.355000 -0.200848 0
23.360000 -0.036902 0
23.365000 0.227519 0
23.370000 0.566203 0
23.375000 0.906887 0
23.380000 1.143797 0
23.385000 1.186167 3
23.390000 1.012742 0
23.395000 0.685724 0
23.400000 0.311702 0
23.405000 -0.015221 0
23.410000 -0.242552 0
23.415000 -0.356854 0
23.420000 -0.371339 4
23.425000 -0.316430 0
23.430000 -0.229854 0
23.435000 -0.143769 0
23.440000 -0.075372 0
23.445000 -0.026828 0
23.450000 0.007905 0
23.455000 0.036012 0
23.460000 0.062390 0
23.465000 0.089393 0
23.470000 0.117766 0
23.475000 0.147487 0
23.480000 0.178206 0
23.485000 0.209419 0
23.490000 0.240530 0
23.495000 0.270876 0
23.500000 0.299757 0
23.505000 0.326452 0
23.510000 0.350260 0
23.515000 0.370520 0
23.520000 0.386644 0
23.525000 0.398150 0
23.530000 0.404675 0
23.535000 0.406002 5
23.540000 0.402069 0
23.545000 0.392969 0
23.550000 0.378952 0
23.555000 0.360407 0
23.560000 0.337847 0
23.565000 0.311886 0
23.570000 0.283207 0
23.575000 0.252535 0
23.580000 0.220605 0
23.585000 0.188134 0
23.590000 0.155794 0
23.595000 0.124192 0
23.600000 0.093852 0
23.605000 0.065204 0
23.610000 0.038580 0
23.615000 0.014213 0
23.620000 -0.007756 0
23.625000 -0.027276 0
23.630000 -0.044367 0
23.635000 -0.059115 0
23.640000 -0.071651 0
23.645000 -0.082145 0
23.650000 -0.090787 0
23.655000 -0.097780 0
23.660000 -0.103331 0
23.665000 -0.107638 0
23.670000 -0.110889 0
23.675000 -0.113259 0
23.680000 -0.114901 0
23.685000 -0.115953 0
23.690000 -0.115293 0
23.695000 -0.114346 0
23.700000 -0.113404 0
23.705000 -0.112467 0
23.710000 -0.111535 0
23.715000 -0.110607 0
23.720000 -0.109683 0
23.725000 -0.108763 0
23.730000 -0.107846 0
23.735000 -0.106930 0
23.740000 -0.106012 0
23.745000 -0.105086 0
23.750000 -0.104143 0
23.755000 -0.103165 0
23.760000 -0.102123 0
23.765000 -0.100973 0
23.770000 -0.099644 0
23.775000 -0.098030 0
23.780000 -0.095982 0
23.785000 -0.093292 0
23.790000 -0.089684 0
23.795000 -0.084810 0
23.800000 -0.078253 0
23.805000 -0.069544 0
23.810000 -0.058194 0
23.815000 -0.043743 0
23.820000 -0.025832 0
23.825000 -0.004285 0
23.830000 0.020813 0
23.835000 0.049036 0
23.840000 0.079579 0
23.845000 0.111248 0
23.850000 0.142514 0
23.855000 0.171621 0
23.860000 0.196735 0
23.865000 0.216141 0
23.870000 0.228428 0
23.875000 0.232662 1
23.880000 0.228504 0
23.885000 0.216252 0
23.890000 0.196808 0
23.895000 0.171564 0
23.900000 0.142242 0
23.905000 0.110683 0
23.910000 0.078616 0
23.915000 0.047362 0
23.920000 0.017376 0
23.925000 -0.012406 0
23.930000 -0.045121 0
23.935000 -0.085441 0
23.940000 -0.136670 0
23.945000 -0.195577 0
23.950000 -0.247967 0
23.955000 -0.269078 2
23.960000 -0.229427 0
23.965000 -0.102676 0
23.970000 0.125406 0
23.975000 0.442699 0
23.980000 0.793775 0
23.985000 1.080274 0
23.990000 1.198216 3
23.995000 1.097801 0
24.000000 0.815167 0
24.005000 0.445928 0
24.010000 0.092185 0
24.015000 -0.177986 0
24.020000 -0.337776 0
24.025000 -0.390872 4
24.030000 -0.361055 0
24.035000 -0.283666 0
24.040000 -0.194134 0
24.045000 -0.116472 0
24.050000 -0.058980 0
24.055000 -0.018510 0
24.060000 0.012115 0
24.065000 0.038974 0
24.070000 0.065533 0
24.075000 0.093205 0
24.080000 0.122281 0
24.085000 0.152555 0
24.090000 0.183604 0
24.095000 0.214892 0
24.100000 0.245802 0
24.105000 0.275669 0
24.110000 0.303795 0
24.115000 0.329479 0
24.120000 0.352046 0
24.125000 0.370875 0
24.130000 0.385424 0
24.135000 0.395261 0
24.140000 0.400081 5
24.145000 0.399720 0
24.150000 0.394167 0
24.155000 0.383564 0
24.160000 0.368197 0
24.165000 0.348487 0
24.170000 0.324967 0
24.175000 0.298257 0
24.180000 0.269041 0
24.185000 0.238033 0
24.190000 0.205952 0
24.195000 0.173492 0
24.200000 0.141297 0
24.205000 0.109946 0
24.210000 0.079933 0
24.215000 0.051664 0
24.220000 0.025445 0
24.225000 0.001488 0
24.230000 -0.020083 0
24.235000 -0.039228 0
24.240000 -0.055978 0
24.245000 -0.070421 0
24.250000 -0.082693 0
24.255000 -0.092961 0
24.260000 -0.101413 0
24.265000 -0.108250 0
24.270000 -0.113672 0
24.275000 -0.117874 0
24.280000 -0.121040 0
24.285000 -0.123338 0
24.290000 -0.124920 0
24.295000 -0.125919 0
24.300000 -0.125209 0
24.305000 -0.124213 0
24.310000 -0.123222 0
24.315000 -0.122236 0
24.320000 -0.121255 0
24.325000 -0.120278 0
24.330000 -0.119306 0
24.335000 -0.118338 0
24.340000 -0.117373 0
24.345000 -0.116410 0
24.350000 -0.115446 0
24.355000 -0.114476 0
24.360000 -0.113489 0
24.365000 -0.112472 0
24.370000 -0.111397 0
24.375000 -0.110224 0
24.380000 -0.108887 0
24.385000 -0.107293 0
24.390000 -0.105302 0
24.395000 -0.102722 0
24.400000 -0.099300 0
24.405000 -0.094710 0
24.410000 -0.088559 0
24.415000 -0.080397 0
24.420000 -0.069747 0
24.425000 -0.056145 0
24.430000 -0.039207 0
24.435000 -0.018698 0
24.440000 0.005379 0
24.445000 0.032718 0
24.450000 0.062649 0
24.455000 0.094127 0
24.460000 0.125756 0
24.465000 0.155879 0
24.470000 0.182710 0
24.475000 0.204503 0
24.480000 0.219743 0
24.485000 0.227316 1
24.490000 0.226646 0
24.495000 0.217769 0
24.500000 0.201325 0
24.505000 0.178489 0
24.510000 0.150824 0
24.515000 0.120106 0
24.520000 0.088110 0
24.525000 0.056366 0
24.530000 0.025801 0
24.535000 -0.003795 0
24.540000 -0.034426 0
24.545000 -0.070069 0
24.550000 -0.115204 0
24.555000 -0.170827 0
24.560000 -0.229308 0
24.565000 -0.271816 2
24.570000 -0.271226 0
24.575000 -0.198999 0
24.580000 -0.032894 0
24.585000 0.232935 0
24.590000 0.572027 0
24.595000 0.912653 0
24.600000 1.150303 0
24.605000 1.195084 3
24.610000 1.025253 0
24.615000 0.701083 0
24.620000 0.326823 0
24.625000 -0.003961 0
24.630000 -0.237731 0
24.635000 -0.359473 0
24.640000 -0.380722 4
24.645000 -0.330328 0
24.650000 -0.245174 0
24.655000 -0.157870 0
24.660000 -0.087026 0
24.665000 -0.036194 0
24.670000 -0.000015 0
24.675000 0.028701 0
24.680000 0.055152 0
24.685000 0.081982 0
24.690000 0.110115 0
24.695000 0.139617 0
24.700000 0.170187 0
24.705000 0.201354 0
24.710000 0.232548 0
24.715000 0.263132 0
24.720000 0.292425 0
24.725000 0.319724 0
24.730000 0.344333 0
24.735000 0.365592 0
24.740000 0.382902 0
24.745000 0.395760 0
24.750000 0.403775 0
24.755000 0.406692 5
24.760000 0.404402 0
24.765000 0.396950 0
24.770000 0.384532 0
24.775000 0.367486 0
24.780000 0.346277 0
24.785000 0.321474 0
24.790000 0.293725 0
24.795000 0.263731 0
24.800000 0.232212 0
24.805000 0.199880 0
24.810000 0.167417 0
24.815000 0.135444 0
24.820000 0.104511 0
24.825000 0.075082 0
24.830000 0.047524 0
24.835000 0.022110 0
24.840000 -0.000983 0
24.845000 -0.021664 0
24.850000 -0.039921 0
24.855000 -0.055808 0
24.860000 -0.069433 0
24.865000 -0.080946 0
24.870000 -0.090523 0
24.875000 -0.098359 0
24.880000 -0.104656 0
24.885000 -0.109613 0
24.890000 -0.113421 0
24.895000 -0.116259 0
24.900000 -0.118290 0
24.905000 -0.119658 0
24.910000 -0.120490 0
24.915000 -0.119779 0
24.920000 -0.118810 0
24.925000 -0.117846 0
24.930000 -0.116887 0
24.935000 -0.115932 0
24.940000 -0.114982 0
24.945000 -0.114036 0
24.950000 -0.113094 0
24.955000 -0.112154 0
24.960000 -0.111215 0
24.965000 -0.110273 0
24.970000 -0.109322 0
24.975000 -0.108349 0
24.980000 -0.107336 0
24.985000 -0.106251 0
24.990000 -0.105044 0
24.995000 -0.103640 0
25.000000 -0.101926 0
25.005000 -0.099745 0
25.010000 -0.096878 0
25.015000 -0.093043 0
25.020000 -0.087885 0
25.025000 -0.080986 0
25.030000 -0.071878 0
25.035000 -0.060083 0
25.040000 -0.045161 0
25.045000 -0.026778 0
25.050000 -0.004790 0
25.055000 0.020683 0
25.060000 0.049187 0
25.065000 0.079894 0
25.070000 0.111602 0
25.075000 0.142790 0
25.080000 0.171725 0
25.085000 0.196611 0
25.090000 0.215776 0
25.095000 0.227851 0
25.100000 0.231937 1
25.105000 0.227711 0
25.110000 0.215473 0
25.115000 0.196106 0
25.120000 0.170972 0
25.125000 0.141753 0
25.130000 0.110257 0
25.135000 0.078188 0
25.140000 0.046872 0
25.145000 0.016824 0
25.150000 -0.012871 0
25.155000 -0.045122 0
25.160000 -0.084458 0
25.165000 -0.134466 0
25.170000 -0.192955 0
25.175000 -0.247389 0
25.180000 -0.274582 2
25.185000 -0.245796 0
25.190000 -0.134239 0
25.195000 0.076701 0
25.200000 0.380780 0
25.205000 0.732049 0
25.210000 1.040288 0
25.215000 1.200000 3
25.220000 1.145034 0
25.225000 0.890831 0
25.230000 0.528646 0
25.235000 0.167233 0
25.240000 -0.116058 0
25.245000 -0.288209 0
25.250000 -0.350168 4
25.255000 -0.325147 0
25.260000 -0.249400 0
25.265000 -0.160036 0
25.270000 -0.082449 0
25.275000 -0.025400 0
25.280000 0.014458 0
25.285000 0.044595 0
25.290000 0.071195 0
25.295000 0.097679 0
25.300000 0.125368 0
25.305000 0.154484 0
25.310000 0.184774 0
25.315000 0.215773 0
25.320000 0.246906 0
25.325000 0.277520 0
25.330000 0.306912 0
25.335000 0.334353 0
25.340000 0.359117 0
25.345000 0.380513 0
25.350000 0.397915 0
25.355000 0.410795 0
25.360000 0.418744 0
25.365000 0.421495 5
25.370000 0.418938 0
25.375000 0.411125 0
25.380000 0.398268 0
25.385000 0.380727 0
25.390000 0.358998 0
25.395000 0.333681 0
25.400000 0.305461 0
25.405000 0.275068 0
25.410000 0.243252 0
25.415000 0.210749 0
25.420000 0.178255 0
25.425000 0.146402 0
25.430000 0.115738 0
25.435000 0.086720 0
25.440000 0.059699 0
25.445000 0.034930 0
25.450000 0.012567 0
25.455000 -0.007327 0
25.460000 -0.024764 0
25.465000 -0.039825 0
25.470000 -0.052639 0
25.475000 -0.063377 0
25.480000 -0.072230 0
25.485000 -0.079407 0
25.490000 -0.085115 0
25.495000 -0.089558 0
25.500000 -0.092930 0
25.505000 -0.095406 0
25.510000 -0.097145 0
25.515000 -0.098287 0
25.520000 -0.097715 0
25.525000 -0.096856 0
25.530000 -0.096002 0
25.535000 -0.095151 0
25.540000 -0.094305 0
25.545000 -0.093463 0
25.550000 -0.092625 0
25.555000 -0.091790 0
25.560000 -0.090957 0
25.565000 -0.090125 0
25.570000 -0.089290 0
25.575000 -0.088446 0
25.580000 -0.087582 0
25.585000 -0.086679 0
25.590000 -0.085707 0
25.595000 -0.084617 0
25.600000 -0.083331 0
25.605000 -0.081737 0
25.610000 -0.079672 0
25.615000 -0.076913 0
25.620000 -0.073165 0
25.625000 -0.068060 0
25.630000 -0.061159 0
25.635000 -0.051977 0
25.640000 -0.040017 0
25.645000 -0.024828 0
25.650000 -0.006081 0
25.655000 0.016344 0
25.660000 0.042275 0
25.665000 0.071178 0
25.670000 0.102118 0
25.675000 0.133773 0
25.680000 0.164502 0
25.685000 0.192471 0
25.690000 0.215831 0
25.695000 0.232913 0
25.700000 0.242427 0
25.705000 0.243621 1
25.710000 0.236379 0
25.715000 0.221238 0
25.720000 0.199320 0
25.725000 0.172195 0
25.730000 0.141691 0
25.735000 0.109668 0
25.740000 0.077759 0
25.745000 0.047005 0
25.750000 0.017289 0
25.755000 -0.013369 0
25.760000 -0.049056 0
25.765000 -0.094421 0
25.770000 -0.150405 0
25.775000 -0.208698 0
25.780000 -0.249141 2
25.785000 -0.243155 0
25.790000 -0.161329 0
25.795000 0.018150 0
25.800000 0.297869 0
25.805000 0.643488 0
25.810000 0.972464 0
25.815000 1.174494 3
25.820000 1.167562 0
25.825000 0.949803 0
25.830000 0.600767 0
25.835000 0.231587 0
25.840000 -0.070977 0
25.845000 -0.265218 0
25.850000 -0.346550 4
25.855000 -0.334903 0
25.860000 -0.265277 0
25.865000 -0.176006 0
25.870000 -0.095410 0
25.875000 -0.035036 0
25.880000 0.007056 0
25.885000 0.038218 0
25.890000 0.065073 0
25.895000 0.091469 0
25.900000 0.118976 0
25.905000 0.147926 0
25.910000 0.178103 0
25.915000 0.209060 0
25.920000 0.240224 0
25.925000 0.270946 0
25.930000 0.300520 0
25.935000 0.328209 0
25.940000 0.353280 0
25.945000 0.375030 0
25.950000 0.392820 0
25.955000 0.406105 0
25.960000 0.414462 0
25.965000 0.417610 5
25.970000 0.415426 0
25.975000 0.407951 0
25.980000 0.395389 0
25.985000 0.378097 0
25.990000 0.356568 0
25.995000 0.331404 0
26.000000 0.303294 0
26.005000 0.272973 0
26.010000 0.241200 0
26.015000 0.208719 0
26.020000 0.176233 0
26.025000 0.144381 0
26.030000 0.113719 0
26.035000 0.084708 0
26.040000 0.057705 0
26.045000 0.032965 0
26.050000 0.010643 0
26.055000 -0.009197 0
26.060000 -0.026569 0
26.065000 -0.041557 0
26.070000 -0.054292 0
26.075000 -0.064947 0
26.080000 -0.073718 0
26.085000 -0.080812 0
26.090000 -0.086442 0
26.095000 -0.090813 0
26.100000 -0.094117 0
26.105000 -0.096533 0
26.110000 -0.098219 0
26.115000 -0.099314 0
26.120000 -0.098731 0
26.125000 -0.097867 0
26.130000 -0.097007 0
26.135000 -0.096152 0
26.140000 -0.095301 0
26.145000 -0.094454 0
26.150000 -0.093610 0
26.155000 -0.092770 0
26.160000 -0.091932 0
26.165000 -0.091094 0
26.170000 -0.090253 0
26.175000 -0.089402 0
26.180000 -0.088528 0
26.185000 -0.087612 0
26.190000 -0.086621 0
26.195000 -0.085499 0
26.200000 -0.084167 0
26.205000 -0.082501 0
26.210000 -0.080327 0
26.215000 -0.077409 0
26.220000 -0.073436 0
26.225000 -0.068021 0
26.230000 -0.060711 0
26.235000 -0.051010 0
26.240000 -0.038418 0
26.245000 -0.022500 0
26.250000 -0.002961 0
26.255000 0.020266 0
26.260000 0.046931 0
26.265000 0.076405 0
26.270000 0.107654 0
26.275000 0.139256 0
26.280000 0.169494 0
26.285000 0.196495 0
26.290000 0.218418 0
26.295000 0.233655 0
26.300000 0.241032 1
26.305000 0.239952 0
26.310000 0.230478 0
26.315000 0.213322 0
26.320000 0.189762 0
26.325000 0.161479 0
26.330000 0.130350 0
26.335000 0.098218 0
26.340000 0.066599 0
26.345000 0.036258 0
26.350000 0.006570 0
26.355000 -0.025163 0
26.360000 -0.063543 0
26.365000 -0.112642 0
26.370000 -0.170902 0
26.375000 -0.225939 0
26.380000 -0.253827 2
26.385000 -0.224478 0
26.390000 -0.109859 0
26.395000 0.106850 0
26.400000 0.417054 0
26.405000 0.768481 0
26.410000 1.062759 0
26.415000 1.191592 3
26.420000 1.099035 0
26.425000 0.818455 0
26.430000 0.449074 0
26.435000 0.097297 0
26.440000 -0.167114 0
26.445000 -0.318149 0
26.450000 -0.361600 4
26.455000 -0.323970 0
26.460000 -0.242912 0
26.465000 -0.154314 0
26.470000 -0.080512 0
26.475000 -0.027343 0
26.480000 0.009997 0
26.485000 0.039053 0
26.490000 0.065490 0
26.495000 0.092223 0
26.500000 0.120276 0
26.505000 0.149732 0
26.510000 0.180276 0
26.515000 0.211414 0
26.520000 0.242546 0
26.525000 0.273004 0
26.530000 0.302071 0
26.535000 0.329012 0
26.540000 0.353105 0
26.545000 0.373666 0
26.550000 0.390087 0
26.555000 0.401862 0
26.560000 0.408615 0
26.565000 0.410113 5
26.570000 0.406287 0
26.575000 0.397229 0
26.580000 0.383192 0
26.585000 0.364573 0
26.590000 0.341901 0
26.595000 0.315805 0
26.600000 0.286987 0
26.605000 0.256191 0
26.610000 0.224169 0
26.615000 0.191653 0
26.620000 0.159327 0
26.625000 0.127804 0
26.630000 0.097611 0
26.635000 0.069178 0
26.640000 0.042831 0
26.645000 0.018795 0
26.650000 -0.002803 0
26.655000 -0.021920 0
26.660000 -0.038593 0
26.665000 -0.052917 0
26.670000 -0.065037 0
26.675000 -0.075133 0
26.680000 -0.083403 0
26.685000 -0.090056 0
26.690000 -0.095302 0
26.695000 -0.099343 0
26.700000 -0.102367 0
26.705000 -0.104547 0
26.710000 -0.106036 0
26.715000 -0.106967 0
26.720000 -0.106327 0
26.725000 -0.105425 0
26.730000 -0.104528 0
26.735000 -0.103635 0
26.740000 -0.102746 0
26.745000 -0.101862 0
26.750000 -0.100981 0
26.755000 -0.100104 0
26.760000 -0.099229 0
26.765000 -0.098354 0
26.770000 -0.097474 0
26.775000 -0.096582 0
26.780000 -0.095664 0
26.785000 -0.094699 0
26.790000 -0.093649 0
26.795000 -0.092455 0
26.800000 -0.091029 0
26.805000 -0.089239 0
26.810000 -0.086900 0
26.815000 -0.083763 0
26.820000 -0.079501 0
26.825000 -0.073718 0
26.830000 -0.065950 0
26.835000 -0.055699 0
26.840000 -0.042475 0
26.845000 -0.025865 0
26.850000 -0.005609 0
26.855000 0.018305 0
26.860000 0.045565 0
26.865000 0.075474 0
26.870000 0.106928 0
26.875000 0.138455 0
26.880000 0.168307 0
26.885000 0.194610 0
26.890000 0.215557 0
26.895000 0.229607 0
26.900000 0.235675 1
26.905000 0.233271 0
26.910000 0.222562 0
26.915000 0.204354 0
26.920000 0.179990 0
26.925000 0.151189 0
26.930000 0.119830 0
26.935000 0.087720 0
26.940000 0.056290 0
26.945000 0.026150 0
26.950000 -0.003577 0
26.955000 -0.035883 0
26.960000 -0.075483 0
26.965000 -0.126027 0
26.970000 -0.184800 0
26.975000 -0.237908 0
26.980000 -0.260363 2
26.985000 -0.222010 0
26.990000 -0.095766 0
26.995000 0.133000 0
27.000000 0.451559 0
27.005000 0.802176 0
27.010000 1.083244 0
27.015000 1.189561 3
27.020000 1.072889 0
27.025000 0.774853 0
27.030000 0.402123 0
27.035000 0.060856 0
27.040000 -0.184483 0
27.045000 -0.313774 0
27.050000 -0.337790 4
27.055000 -0.287146 0
27.060000 -0.201508 0
27.065000 -0.115384 0
27.070000 -0.047312 0
27.075000 0.000471 0
27.080000 0.034458 0
27.085000 0.062131 0
27.090000 0.088392 0
27.095000 0.115471 0
27.100000 0.143996 0
27.105000 0.173858 0
27.110000 0.204647 0
27.115000 0.235802 0
27.120000 0.266672 0
27.125000 0.296542 0
27.130000 0.324660 0
27.135000 0.350269 0
27.140000 0.372639 0
27.145000 0.391098 0
27.150000 0.405068 0
27.155000 0.414096 0
27.160000 0.417872 5
27.165000 0.416248 0
27.170000 0.409249 0
27.175000 0.397069 0
27.180000 0.380064 0
27.185000 0.358729 0
27.190000 0.333681 0
27.195000 0.305622 0
27.200000 0.275309 0
27.205000 0.243519 0
27.210000 0.211018 0
27.215000 0.178526 0
27.220000 0.146700 0
27.225000 0.116104 0
27.230000 0.087208 0
27.235000 0.060369 0
27.240000 0.035842 0
27.245000 0.013775 0
27.250000 -0.005774 0
27.255000 -0.022832 0
27.260000 -0.037489 0
27.265000 -0.049891 0
27.270000 -0.060217 0
27.275000 -0.068674 0
27.280000 -0.075475 0
27.285000 -0.080838 0
27.290000 -0.084971 0
27.295000 -0.088070 0
27.300000 -0.090311 0
27.305000 -0.091852 0
27.310000 -0.092831 0
27.315000 -0.092258 0
27.320000 -0.091426 0
27.325000 -0.090599 0
27.330000 -0.089775 0
27.335000 -0.088956 0
27.340000 -0.088140 0
27.345000 -0.087328 0
27.350000 -0.086519 0
27.355000 -0.085710 0
27.360000 -0.084901 0
27.365000 -0.084085 0
27.370000 -0.083255 0
27.375000 -0.082393 0
27.380000 -0.081474 0
27.385000 -0.080454 0
27.390000 -0.079264 0
27.395000 -0.077802 0
27.400000 -0.075914 0
27.405000 -0.073388 0
27.410000 -0.069940 0
27.415000 -0.065205 0
27.420000 -0.058744 0
27.425000 -0.050061 0
27.430000 -0.038638 0
27.435000 -0.023994 0
27.440000 -0.005762 0
27.445000 0.016218 0
27.450000 0.041807 0
27.455000 0.070490 0
27.460000 0.101332 0
27.465000 0.132983 0
27.470000 0.163752 0
27.475000 0.191740 0
27.480000 0.215026 0
27.485000 0.231884 0
27.490000 0.240990 0
27.495000 0.241597 1
27.500000 0.233629 0
27.505000 0.217702 0
27.510000 0.195038 0
27.515000 0.167311 0
27.520000 0.136435 0
27.525000 0.104322 0
27.530000 0.072585 0
27.535000 0.042116 0
27.540000 0.012422 0
27.545000 -0.019096 0
27.550000 -0.057083 0
27.555000 -0.105832 0
27.560000 -0.164007 0
27.565000 -0.219122 0
27.570000 -0.246659 2
27.575000 -0.215707 0
27.580000 -0.097628 0
27.585000 0.124183 0
27.590000 0.439024 0
27.595000 0.789907 0
27.600000 1.073217 0
27.605000 1.180081 3
27.610000 1.060899 0
27.615000 0.759853 0
27.620000 0.386714 0
27.625000 0.049015 0
27.630000 -0.189577 0
27.635000 -0.310704 0
27.640000 -0.327150 4
27.645000 -0.271484 0
27.650000 -0.184428 0
27.655000 -0.099900 0
27.660000 -0.034682 0
27.665000 0.010610 0
27.670000 0.043154 0
27.675000 0.070316 0
27.680000 0.096606 0
27.685000 0.123931 0
27.690000 0.152737 0
27.695000 0.182828 0
27.700000 0.213742 0
27.705000 0.244882 0
27.710000 0.275563 0
27.715000 0.305039 0
27.720000 0.332537 0
27.725000 0.357286 0
27.730000 0.378549 0
27.735000 0.395667 0
27.740000 0.408083 0
27.745000 0.415377 0
27.750000 0.417286 5
27.755000 0.413720 0
27.760000 0.404767 0
27.765000 0.390688 0
27.770000 0.371905 0
27.775000 0.348977 0
27.780000 0.322575 0
27.785000 0.293446 0
27.790000 0.262377 0
27.795000 0.230164 0
27.800000 0.197573 0
27.805000 0.165313 0
27.810000 0.134015 0
27.815000 0.104209 0
27.820000 0.076319 0
27.825000 0.050658 0
27.830000 0.027427 0
27.835000 0.006727 0
27.840000 -0.011432 0
27.845000 -0.027116 0
27.850000 -0.040451 0
27.855000 -0.051609 0
27.860000 -0.060791 0
27.865000 -0.068215 0
27.870000 -0.074102 0
27.875000 -0.078671 0
27.880000 -0.082126 0
27.885000 -0.084655 0
27.890000 -0.086428 0
27.895000 -0.087590 0
27.900000 -0.087065 0
27.905000 -0.086260 0
27.910000 -0.085458 0
27.915000 -0.084660 0
27.920000 -0.083866 0
27.925000 -0.083076 0
27.930000 -0.082289 0
27.935000 -0.081505 0
27.940000 -0.080723 0
27.945000 -0.079940 0
27.950000 -0.079151 0
27.955000 -0.078349 0
27.960000 -0.077518 0
27.965000 -0.076634 0
27.970000 -0.075654 0
27.975000 -0.074513 0
27.980000 -0.073108 0
27.985000 -0.071289 0
27.990000 -0.068845 0
27.995000 -0.065490 0
28.000000 -0.060856 0
28.005000 -0.054498 0
28.010000 -0.045908 0
28.015000 -0.034556 0
28.020000 -0.019948 0
28.025000 -0.001709 0
28.030000 0.020324 0
28.035000 0.046002 0
28.040000 0.074785 0
28.045000 0.105695 0
28.050000 0.137330 0
28.055000 0.167939 0
28.060000 0.195567 0
28.065000 0.218258 0
28.070000 0.234275 0
28.075000 0.242325 1
28.080000 0.241723 0
28.085000 0.232494 0
28.090000 0.215368 0
28.095000 0.191683 0
28.100000 0.163212 0
28.105000 0.131934 0
28.110000 0.099774 0
28.115000 0.068267 0
28.120000 0.038076 0
28.125000 0.008246 0
28.130000 -0.024472 0
28.135000 -0.065097 0
28.140000 -0.117070 0
28.145000 -0.176236 0
28.150000 -0.225949 0
28.155000 -0.238258 2
28.160000 -0.181281 0
28.165000 -0.028538 0
28.170000 0.229516 0
28.175000 0.566965 0
28.180000 0.905993 0
28.185000 1.131316 0
28.190000 1.148156 3
28.195000 0.945290 0
28.200000 0.601643 0
28.205000 0.231244 0
28.210000 -0.074599 0
28.215000 -0.271299 0
28.220000 -0.353403 4
28.225000 -0.341227 0
28.230000 -0.270805 0
28.235000 -0.181440 0
28.240000 -0.101686 0
28.245000 -0.042591 0
28.250000 -0.001579 0
28.255000 0.029009 0
28.260000 0.055744 0
28.265000 0.082289 0
28.270000 0.110055 0
28.275000 0.139277 0
28.280000 0.169684 0
28.285000 0.200791 0
28.290000 0.231994 0
28.295000 0.262609 0
28.300000 0.291901 0
28.305000 0.319113 0
28.310000 0.343491 0
28.315000 0.364327 0
28.320000 0.380986 0
28.325000 0.392940 0
28.330000 0.399794 0
28.335000 0.401306 5
28.340000 0.397406 0
28.345000 0.388191 0
28.350000 0.373928 0
28.355000 0.355038 0
28.360000 0.332072 0
28.365000 0.305691 0
28.370000 0.276624 0
28.375000 0.245644 0
28.380000 0.213526 0
28.385000 0.181022 0
