0.000000 1.168767 3
0.005000 1.034574 0
0.010000 0.702232 0
0.015000 0.299724 0
0.020000 -0.052673 0
0.025000 -0.288559 0
0.030000 -0.393293 4
0.035000 -0.386700 0
0.040000 -0.309656 0
0.045000 -0.208691 0
0.050000 -0.118009 0
0.055000 -0.050510 0
0.060000 -0.002781 0
0.065000 0.034072 0
0.070000 0.067111 0
0.075000 0.099844 0
0.080000 0.133295 0
0.085000 0.167301 0
0.090000 0.201236 0
0.095000 0.234301 0
0.100000 0.265618 0
0.105000 0.294291 0
0.110000 0.319448 0
0.115000 0.340282 0
0.120000 0.356095 0
0.125000 0.366337 0
0.130000 0.370639 5
0.135000 0.368830 0
0.140000 0.360949 0
0.145000 0.347247 0
0.150000 0.328169 0
0.155000 0.304330 0
0.160000 0.276486 0
0.165000 0.245487 0
0.170000 0.212239 0
0.175000 0.177659 0
0.180000 0.142633 0
0.185000 0.107980 0
0.190000 0.074423 0
0.195000 0.042568 0
0.200000 0.012893 0
0.205000 -0.014259 0
0.210000 -0.038672 0
0.215000 -0.060252 0
0.220000 -0.079005 0
0.225000 -0.095027 0
0.230000 -0.108481 0
0.235000 -0.119576 0
0.240000 -0.128552 0
0.245000 -0.135663 0
0.250000 -0.141164 0
0.255000 -0.145300 0
0.260000 -0.148299 0
0.265000 -0.149909 0
0.270000 -0.148837 0
0.275000 -0.147771 0
0.280000 -0.146709 0
0.285000 -0.145652 0
0.290000 -0.144598 0
0.295000 -0.143546 0
0.300000 -0.142491 0
0.305000 -0.141426 0
0.310000 -0.140337 0
0.315000 -0.139199 0
0.320000 -0.137972 0
0.325000 -0.136586 0
0.330000 -0.134937 0
0.335000 -0.132863 0
0.340000 -0.130133 0
0.345000 -0.126431 0
0.350000 -0.121344 0
0.355000 -0.114364 0
0.360000 -0.104909 0
0.365000 -0.092366 0
0.370000 -0.076168 0
0.375000 -0.055890 0
0.380000 -0.031370 0
0.385000 -0.002823 0
0.390000 0.029056 0
0.395000 0.063052 0
0.400000 0.097455 0
0.405000 0.130174 0
0.410000 0.158929 0
0.415000 0.181512 0
0.420000 0.196067 0
0.425000 0.201337 1
0.430000 0.196852 0
0.435000 0.182994 0
0.440000 0.160946 0
0.445000 0.132525 0
0.450000 0.099921 0
0.455000 0.065354 0
0.460000 0.030596 0
0.465000 -0.003779 0
0.470000 -0.039415 0
0.475000 -0.080725 0
0.480000 -0.133080 0
0.485000 -0.197062 0
0.490000 -0.260983 0
0.495000 -0.298057 2
0.500000 -0.272285 0
0.505000 -0.149323 0
0.510000 0.091095 0
0.515000 0.435848 0
0.520000 0.814587 0
0.525000 1.102072 0
0.530000 1.175818 3
0.535000 0.996686 0
0.540000 0.639701 0
0.545000 0.239048 0
0.550000 -0.092570 0
0.555000 -0.300061 0
0.560000 -0.377488 4
0.565000 -0.350764 0
0.570000 -0.264199 0
0.575000 -0.163485 0
0.580000 -0.078298 0
0.585000 -0.016693 0
0.590000 0.027215 0
0.595000 0.062402 0
0.600000 0.095046 0
0.605000 0.127857 0
0.610000 0.161423 0
0.615000 0.195393 0
0.620000 0.229065 0
0.625000 0.261595 0
0.630000 0.292085 0
0.635000 0.319628 0
0.640000 0.343357 0
0.645000 0.362486 0
0.650000 0.376355 0
0.655000 0.384465 0
0.660000 0.386511 5
0.665000 0.382395 0
0.670000 0.372235 0
0.675000 0.356361 0
0.680000 0.335292 0
0.685000 0.309710 0
0.690000 0.280424 0
0.695000 0.248324 0
0.700000 0.214337 0
0.705000 0.179384 0
0.710000 0.144339 0
0.715000 0.109994 0
0.720000 0.077032 0
0.725000 0.046012 0
0.730000 0.017358 0
0.735000 -0.008643 0
0.740000 -0.031828 0
0.745000 -0.052152 0
0.750000 -0.069668 0
0.755000 -0.084506 0
0.760000 -0.096856 0
0.765000 -0.106949 0
0.770000 -0.115036 0
0.775000 -0.121377 0
0.780000 -0.126225 0
0.785000 -0.129822 0
0.790000 -0.132386 0
0.795000 -0.131916 0
0.800000 -0.130934 0
0.805000 -0.129956 0
0.810000 -0.128983 0
0.815000 -0.128014 0
0.820000 -0.127046 0
0.825000 -0.126078 0
0.830000 -0.125102 0
0.835000 -0.124108 0
0.840000 -0.123077 0
0.845000 -0.121974 0
0.850000 -0.120742 0
0.855000 -0.119290 0
0.860000 -0.117478 0
0.865000 -0.115100 0
0.870000 -0.111870 0
0.875000 -0.107403 0
0.880000 -0.101219 0
0.885000 -0.092748 0
0.890000 -0.081375 0
0.895000 -0.066498 0
0.900000 -0.047628 0
0.905000 -0.024501 0
0.910000 0.002794 0
0.915000 0.033709 0
0.920000 0.067173 0
0.925000 0.101589 0
0.930000 0.134931 0
0.935000 0.164920 0
0.940000 0.189269 0
0.945000 0.205975 0
0.950000 0.213588 1
0.955000 0.211420 0
0.960000 0.199645 0
0.965000 0.179282 0
0.970000 0.152044 0
0.975000 0.120092 0
0.980000 0.085702 0
0.985000 0.050818 0
0.990000 0.016346 0
0.995000 -0.018861 0
1.000000 -0.058776 0
1.005000 -0.108970 0
1.010000 -0.171450 0
1.015000 -0.236896 0
1.020000 -0.280484 2
1.025000 -0.266528 0
1.030000 -0.159246 0
1.035000 0.064870 0
1.040000 0.398599 0
1.045000 0.779004 0
1.050000 1.084067 0
1.055000 1.185023 3
1.060000 1.030679 0
1.065000 0.685820 0
1.070000 0.283663 0
1.075000 -0.057563 0
1.080000 -0.276865 0
1.085000 -0.364637 4
1.090000 -0.344822 0
1.095000 -0.261154 0
1.100000 -0.160269 0
1.105000 -0.073613 0
1.110000 -0.010651 0
1.115000 0.033999 0
1.120000 0.069427 0
1.125000 0.102068 0
1.130000 0.134805 0
1.135000 0.168300 0
1.140000 0.202226 0
1.145000 0.235881 0
1.150000 0.268418 0
1.155000 0.298934 0
1.160000 0.326512 0
1.165000 0.350277 0
1.170000 0.369435 0
1.175000 0.383319 0
1.180000 0.391423 0
1.185000 0.393438 5
1.190000 0.389266 0
1.195000 0.379027 0
1.200000 0.363054 0
1.205000 0.341872 0
1.210000 0.316173 0
1.215000 0.286772 0
1.220000 0.254570 0
1.225000 0.220500 0
1.230000 0.185492 0
1.235000 0.150424 0
1.240000 0.116089 0
1.245000 0.083173 0
1.250000 0.052231 0
1.255000 0.023683 0
1.260000 -0.002186 0
1.265000 -0.025224 0
1.270000 -0.045389 0
1.275000 -0.062741 0
1.280000 -0.077417 0
1.285000 -0.089613 0
1.290000 -0.099562 0
1.295000 -0.107521 0
1.300000 -0.113750 0
1.305000 -0.118505 0
1.310000 -0.122025 0
1.315000 -0.124530 0
1.320000 -0.124085 0
1.325000 -0.123142 0
1.330000 -0.122203 0
1.335000 -0.121269 0
1.340000 -0.120338 0
1.345000 -0.119408 0
1.350000 -0.118476 0
1.355000 -0.117536 0
1.360000 -0.116575 0
1.365000 -0.115573 0
1.370000 -0.114491 0
1.375000 -0.113267 0
1.380000 -0.111804 0
1.385000 -0.109950 0
1.390000 -0.107487 0
1.395000 -0.104107 0
1.400000 -0.099407 0
1.405000 -0.092884 0
1.410000 -0.083953 0
1.415000 -0.071989 0
1.420000 -0.056400 0
1.425000 -0.036727 0
1.430000 -0.012764 0
1.435000 0.015312 0
1.440000 0.046843 0
1.445000 0.080633 0
1.450000 0.114969 0
1.455000 0.147733 0
1.460000 0.176600 0
1.465000 0.199307 0
1.470000 0.213939 0
1.475000 0.219200 1
1.480000 0.214602 0
1.485000 0.200535 0
1.490000 0.178220 0
1.495000 0.149524 0
1.500000 0.116691 0
1.505000 0.081981 0
1.510000 0.047155 0
1.515000 0.012679 0
1.520000 -0.023351 0
1.525000 -0.065659 0
1.530000 -0.119553 0
1.535000 -0.184561 0
1.540000 -0.246820 0
1.545000 -0.277185 2
1.550000 -0.238415 0
1.555000 -0.096765 0
1.560000 0.164395 0
1.565000 0.522783 0
1.570000 0.894230 0
1.575000 1.145048 0
1.580000 1.162145 3
1.585000 0.933600 0
1.590000 0.555766 0
1.595000 0.161566 0
1.600000 -0.148885 0
1.605000 -0.332208 0
1.610000 -0.389362 4
1.615000 -0.349757 0
1.620000 -0.258320 0
1.625000 -0.158430 0
1.630000 -0.076192 0
1.635000 -0.017110 0
1.640000 0.025468 0
1.645000 0.060219 0
1.650000 0.092834 0
1.655000 0.125723 0
1.660000 0.159355 0
1.665000 0.193349 0
1.670000 0.227006 0
1.675000 0.259496 0
1.680000 0.289937 0
1.685000 0.317443 0
1.690000 0.341164 0
1.695000 0.360331 0
1.700000 0.374297 0
1.705000 0.382572 0
1.710000 0.384850 5
1.715000 0.381030 0
1.720000 0.371217 0
1.725000 0.355722 0
1.730000 0.335044 0
1.735000 0.309840 0
1.740000 0.280891 0
1.745000 0.249066 0
1.750000 0.215270 0
1.755000 0.180408 0
1.760000 0.145345 0
1.765000 0.110869 0
1.770000 0.077667 0
1.775000 0.046306 0
1.780000 0.017224 0
1.785000 -0.009274 0
1.790000 -0.033005 0
1.795000 -0.053905 0
1.800000 -0.072006 0
1.805000 -0.087420 0
1.810000 -0.100323 0
1.815000 -0.110932 0
1.820000 -0.119490 0
1.825000 -0.126251 0
1.830000 -0.131465 0
1.835000 -0.135374 0
1.840000 -0.138198 0
1.845000 -0.139706 0
1.850000 -0.138685 0
1.855000 -0.137669 0
1.860000 -0.136658 0
1.865000 -0.135651 0
1.870000 -0.134646 0
1.875000 -0.133642 0
1.880000 -0.132635 0
1.885000 -0.131614 0
1.890000 -0.130566 0
1.895000 -0.129463 0
1.900000 -0.128260 0
1.905000 -0.126884 0
1.910000 -0.125220 0
1.915000 -0.123099 0
1.920000 -0.120278 0
1.925000 -0.116426 0
1.930000 -0.111117 0
1.935000 -0.103834 0
1.940000 -0.093991 0
1.945000 -0.080980 0
1.950000 -0.064253 0
1.955000 -0.043419 0
1.960000 -0.018362 0
1.965000 0.010642 0
1.970000 0.042834 0
1.975000 0.076940 0
1.980000 0.111207 0
1.985000 0.143521 0
1.990000 0.171615 0
1.995000 0.193322 0
2.000000 0.206856 0
2.005000 0.211048 1
2.010000 0.205520 0
2.015000 0.190738 0
2.020000 0.167947 0
2.025000 0.139001 0
2.030000 0.106090 0
2.035000 0.071404 0
2.040000 0.036634 0
2.045000 0.002212 0
2.050000 -0.033701 0
2.055000 -0.075663 0
2.060000 -0.128908 0
2.065000 -0.193433 0
2.070000 -0.256694 0
2.075000 -0.291314 2
2.080000 -0.261337 0
2.085000 -0.133058 0
2.090000 0.112586 0
2.095000 0.460527 0
2.100000 0.838330 0
2.105000 1.120346 0
2.110000 1.186478 3
2.115000 1.001908 0
2.120000 0.642893 0
2.125000 0.242386 0
2.130000 -0.088748 0
2.135000 -0.296388 0
2.140000 -0.374663 4
2.145000 -0.349022 0
2.150000 -0.263132 0
2.155000 -0.162322 0
2.160000 -0.076447 0
2.165000 -0.014049 0
2.170000 0.030398 0
2.175000 0.065809 0
2.180000 0.098469 0
2.185000 0.131211 0
2.190000 0.164703 0
2.195000 0.198637 0
2.200000 0.232333 0
2.205000 0.264965 0
2.210000 0.295647 0
2.215000 0.323484 0
2.220000 0.347612 0
2.225000 0.367245 0
2.230000 0.381715 0
2.235000 0.390511 0
2.240000 0.393304 5
2.245000 0.389973 0
2.250000 0.380606 0
2.255000 0.365501 0
2.260000 0.345145 0
2.265000 0.320191 0
2.270000 0.291420 0
2.275000 0.259701 0
2.280000 0.225949 0
2.285000 0.191078 0
2.290000 0.155961 0
2.295000 0.121399 0
2.300000 0.088089 0
2.305000 0.056610 0
2.310000 0.027405 0
2.315000 0.000790 0
2.320000 -0.023051 0
2.325000 -0.044049 0
2.330000 -0.062234 0
2.335000 -0.077720 0
2.340000 -0.090682 0
2.345000 -0.101340 0
2.350000 -0.109938 0
2.355000 -0.116733 0
2.360000 -0.121977 0
2.365000 -0.125913 0
2.370000 -0.128763 0
2.375000 -0.130301 0
2.380000 -0.129328 0
2.385000 -0.128358 0
2.390000 -0.127394 0
2.395000 -0.126433 0
2.400000 -0.125474 0
2.405000 -0.124516 0
2.410000 -0.123553 0
2.415000 -0.122576 0
2.420000 -0.121570 0
2.425000 -0.120506 0
2.430000 -0.119338 0
2.435000 -0.117988 0
2.440000 -0.116338 0
2.445000 -0.114210 0
2.450000 -0.111353 0
2.455000 -0.107424 0
2.460000 -0.101986 0
2.465000 -0.094506 0
2.470000 -0.084390 0
2.475000 -0.071026 0
2.480000 -0.053875 0
2.485000 -0.032566 0
2.490000 -0.007027 0
2.495000 0.022406 0
2.500000 0.054903 0
2.505000 0.089109 0
2.510000 0.123195 0
2.515000 0.154993 0
2.520000 0.182214 0
2.525000 0.202714 0
2.530000 0.214772 0
2.535000 0.217330 1
2.540000 0.210146 0
2.545000 0.193830 0
2.550000 0.169761 0
2.555000 0.139890 0
2.560000 0.106455 0
2.565000 0.071614 0
2.570000 0.036899 0
2.575000 0.002380 0
2.580000 -0.034361 0
2.585000 -0.078345 0
2.590000 -0.134356 0
2.595000 -0.200241 0
2.600000 -0.259997 0
2.605000 -0.283286 2
2.610000 -0.233370 0
2.615000 -0.078421 0
2.620000 0.194836 0
2.625000 0.559141 0
2.630000 0.926038 0
2.635000 1.162739 0
2.640000 1.163236 3
2.645000 0.922123 0
2.650000 0.538801 0
2.655000 0.148508 0
2.660000 -0.151122 0
2.665000 -0.320738 0
2.670000 -0.364962 4
2.675000 -0.316347 0
2.680000 -0.221599 0
2.685000 -0.123338 0
2.690000 -0.044962 0
2.695000 0.010599 0
2.700000 0.051091 0
2.705000 0.085020 0
2.710000 0.117491 0
2.715000 0.150451 0
2.720000 0.184127 0
2.725000 0.218028 0
2.730000 0.251395 0
2.735000 0.283365 0
2.740000 0.313029 0
2.745000 0.339489 0
2.750000 0.361893 0
2.755000 0.379490 0
2.760000 0.391661 0
2.765000 0.397961 0
2.770000 0.398143 5
2.775000 0.392174 0
2.780000 0.380235 0
2.785000 0.362712 0
2.790000 0.340178 0
2.795000 0.313357 0
2.800000 0.283086 0
2.805000 0.250271 0
2.810000 0.215845 0
2.815000 0.180718 0
2.820000 0.145744 0
2.825000 0.111686 0
2.830000 0.079192 0
2.835000 0.048780 0
2.840000 0.020836 0
2.845000 -0.004392 0
2.850000 -0.026779 0
2.855000 -0.046309 0
2.860000 -0.063061 0
2.865000 -0.077185 0
2.870000 -0.088887 0
2.875000 -0.098404 0
2.880000 -0.105993 0
2.885000 -0.111912 0
2.890000 -0.116412 0
2.895000 -0.119729 0
2.900000 -0.122073 0
2.905000 -0.121615 0
2.910000 -0.120684 0
2.915000 -0.119758 0
2.920000 -0.118835 0
2.925000 -0.117916 0
2.930000 -0.116997 0
2.935000 -0.116076 0
2.940000 -0.115145 0
2.945000 -0.114190 0
2.950000 -0.113189 0
2.955000 -0.112101 0
2.960000 -0.110860 0
2.965000 -0.109362 0
2.970000 -0.107447 0
2.975000 -0.104887 0
2.980000 -0.101366 0
2.985000 -0.096468 0
2.990000 -0.089682 0
2.995000 -0.080420 0
3.000000 -0.068060 0
3.005000 -0.052026 0
3.010000 -0.031883 0
3.015000 -0.007466 0
3.020000 0.021003 0
3.025000 0.052815 0
3.030000 0.086729 0
3.035000 0.120999 0
3.040000 0.153492 0
3.045000 0.181896 0
3.050000 0.203981 0
3.055000 0.217890 0
3.060000 0.222394 1
3.065000 0.217073 0
3.070000 0.202380 0
3.075000 0.179574 0
3.080000 0.150544 0
3.085000 0.117530 0
3.090000 0.082763 0
3.095000 0.047946 0
3.100000 0.013451 0
3.105000 -0.022741 0
3.110000 -0.065418 0
3.115000 -0.119775 0
3.120000 -0.185003 0
3.125000 -0.246853 0
3.130000 -0.276041 2
3.135000 -0.235537 0
3.140000 -0.092029 0
3.145000 0.170585 0
3.150000 0.529558 0
3.155000 0.900774 0
3.160000 1.151359 0
3.165000 1.169067 3
3.170000 0.941491 0
3.175000 0.563955 0
3.180000 0.169597 0
3.185000 -0.141139 0
3.190000 -0.324679 0
3.195000 -0.381932 4
3.200000 -0.342342 0
3.205000 -0.250911 0
3.210000 -0.151076 0
3.215000 -0.068941 0
3.220000 -0.009970 0
3.225000 0.032520 0
3.230000 0.067214 0
3.235000 0.099792 0
3.240000 0.132653 0
3.245000 0.166256 0
3.250000 0.200218 0
3.255000 0.233835 0
3.260000 0.266276 0
3.265000 0.296657 0
3.270000 0.324090 0
3.275000 0.347725 0
3.280000 0.366793 0
3.285000 0.380648 0
3.290000 0.388801 0
3.295000 0.390950 5
3.300000 0.386994 0
3.305000 0.377045 0
3.310000 0.361418 0
3.315000 0.340613 0
3.320000 0.315294 0
3.325000 0.286245 0
3.330000 0.254335 0
3.335000 0.220474 0
3.340000 0.185568 0
3.345000 0.150481 0
3.350000 0.115999 0
3.355000 0.082809 0
3.360000 0.051475 0
3.365000 0.022432 0
3.370000 -0.004018 0
3.375000 -0.027695 0
3.380000 -0.048539 0
3.385000 -0.066582 0
3.390000 -0.081942 0
3.395000 -0.094795 0
3.400000 -0.105360 0
3.405000 -0.113880 0
3.410000 -0.120611 0
3.415000 -0.125803 0
3.420000 -0.129696 0
3.425000 -0.132511 0
3.430000 -0.134022 0
3.435000 -0.133029 0
3.440000 -0.132042 0
3.445000 -0.131059 0
3.450000 -0.130079 0
3.455000 -0.129102 0
3.460000 -0.128126 0
3.465000 -0.127145 0
3.470000 -0.126151 0
3.475000 -0.125128 0
3.480000 -0.124049 0
3.485000 -0.122866 0
3.490000 -0.121505 0
3.495000 -0.119850 0
3.500000 -0.117726 0
3.505000 -0.114886 0
3.510000 -0.110995 0
3.515000 -0.105621 0
3.520000 -0.098240 0
3.525000 -0.088263 0
3.530000 -0.075084 0
3.535000 -0.058158 0
3.540000 -0.037105 0
3.545000 -0.011830 0
3.550000 0.017364 0
3.555000 0.049688 0
3.560000 0.083834 0
3.565000 0.118020 0
3.570000 0.150113 0
3.575000 0.177840 0
3.580000 0.199047 0
3.585000 0.211977 0
3.590000 0.215508 1
3.595000 0.209315 0
3.600000 0.193920 0
3.605000 0.170621 0
3.610000 0.141305 0
3.615000 0.108178 0
3.620000 0.073417 0
3.625000 0.038656 0
3.630000 0.004199 0
3.635000 -0.031997 0
3.640000 -0.074662 0
3.645000 -0.128895 0
3.650000 -0.193982 0
3.655000 -0.256200 0
3.660000 -0.287146 2
3.665000 -0.250577 0
3.670000 -0.113392 0
3.675000 0.141633 0
3.680000 0.495547 0
3.685000 0.870651 0
3.690000 1.138624 0
3.695000 1.183496 3
3.700000 0.979900 0
3.705000 0.611965 0
3.710000 0.213831 0
3.715000 -0.107741 0
3.720000 -0.303452 0
3.725000 -0.370851 4
3.730000 -0.337660 0
3.735000 -0.248600 0
3.740000 -0.148296 0
3.745000 -0.064653 0
3.750000 -0.004414 0
3.755000 0.038730 0
3.760000 0.073620 0
3.765000 0.106184 0
3.770000 0.138976 0
3.775000 0.172517 0
3.780000 0.206441 0
3.785000 0.240042 0
3.790000 0.272484 0
3.795000 0.302876 0
3.800000 0.330320 0
3.805000 0.353956 0
3.810000 0.373009 0
3.815000 0.386824 0
3.820000 0.394908 0
3.825000 0.396957 5
3.830000 0.392872 0
3.835000 0.382769 0
3.840000 0.366969 0
3.845000 0.345984 0
3.850000 0.320486 0
3.855000 0.291272 0
3.860000 0.259221 0
3.865000 0.225254 0
3.870000 0.190283 0
3.875000 0.155176 0
3.880000 0.120725 0
3.885000 0.087613 0
3.890000 0.056401 0
3.895000 0.027519 0
3.900000 0.001263 0
3.905000 -0.022199 0
3.910000 -0.042812 0
3.915000 -0.060621 0
3.920000 -0.075748 0
3.925000 -0.088378 0
3.930000 -0.098735 0
3.935000 -0.107068 0
3.940000 -0.113633 0
3.945000 -0.118683 0
3.950000 -0.122458 0
3.955000 -0.125179 0
3.960000 -0.126633 0
3.965000 -0.125677 0
3.970000 -0.124726 0
3.975000 -0.123779 0
3.980000 -0.122836 0
3.985000 -0.121895 0
3.990000 -0.120953 0
3.995000 -0.120006 0
4.000000 -0.119043 0
4.005000 -0.118046 0
4.010000 -0.116985 0
4.015000 -0.115809 0
4.020000 -0.114433 0
4.025000 -0.112731 0
4.030000 -0.110512 0
4.035000 -0.107509 0
4.040000 -0.103362 0
4.045000 -0.097614 0
4.050000 -0.089718 0
4.055000 -0.079070 0
4.060000 -0.065063 0
4.065000 -0.047177 0
4.070000 -0.025089 0
4.075000 0.001207 0
4.080000 0.031286 0
4.085000 0.064214 0
4.090000 0.098538 0
4.095000 0.132343 0
4.100000 0.163415 0
4.105000 0.189462 0
4.110000 0.208399 0
4.115000 0.218613 0
4.120000 0.219197 1
4.125000 0.210081 0
4.130000 0.192043 0
4.135000 0.166602 0
4.140000 0.135797 0
4.145000 0.101892 0
4.150000 0.066971 0
4.155000 0.032347 0
4.160000 -0.002356 0
4.165000 -0.040170 0
4.170000 -0.086457 0
4.175000 -0.145185 0
4.180000 -0.211664 0
4.185000 -0.266443 0
4.190000 -0.276809 2
4.195000 -0.206014 0
4.200000 -0.024878 0
4.205000 0.273089 0
4.210000 0.647940 0
4.215000 0.997400 0
4.220000 1.186770 3
4.225000 1.127197 0
4.230000 0.840147 0
4.235000 0.443262 0
4.240000 0.068610 0
4.245000 -0.200037 0
4.250000 -0.335942 0
4.255000 -0.352208 4
4.260000 -0.286806 0
4.265000 -0.187612 0
4.270000 -0.093424 0
4.275000 -0.021726 0
4.280000 0.028659 0
4.285000 0.066530 0
4.290000 0.099657 0
4.295000 0.132147 0
4.300000 0.165315 0
4.305000 0.199102 0
4.310000 0.232904 0
4.315000 0.265915 0
4.320000 0.297245 0
4.325000 0.325976 0
4.330000 0.351213 0
4.335000 0.372125 0
4.340000 0.387993 0
4.345000 0.398247 0
4.350000 0.402503 5
4.355000 0.400581 0
4.360000 0.392521 0
4.365000 0.378579 0
4.370000 0.359211 0
4.375000 0.335052 0
4.380000 0.306877 0
4.385000 0.275559 0
4.390000 0.242027 0
4.395000 0.207217 0
4.400000 0.172030 0
4.405000 0.137295 0
4.410000 0.103740 0
4.415000 0.071970 0
4.420000 0.042456 0
4.425000 0.015532 0
4.430000 -0.008601 0
4.435000 -0.029864 0
4.440000 -0.048281 0
4.445000 -0.063963 0
4.450000 -0.077087 0
4.455000 -0.087874 0
4.460000 -0.096574 0
4.465000 -0.103449 0
4.470000 -0.108756 0
4.475000 -0.112743 0
4.480000 -0.115637 0
4.485000 -0.117219 0
4.490000 -0.116311 0
4.495000 -0.115406 0
4.500000 -0.114506 0
4.505000 -0.113609 0
4.510000 -0.112714 0
4.515000 -0.111819 0
4.520000 -0.110918 0
4.525000 -0.110001 0
4.530000 -0.109052 0
4.535000 -0.108039 0
4.540000 -0.106910 0
4.545000 -0.105583 0
4.550000 -0.103926 0
4.555000 -0.101748 0
4.560000 -0.098776 0
4.565000 -0.094641 0
4.570000 -0.088877 0
4.575000 -0.080923 0
4.580000 -0.070163 0
4.585000 -0.055982 0
4.590000 -0.037859 0
4.595000 -0.015482 0
4.600000 0.011124 0
4.605000 0.041485 0
4.610000 0.074599 0
4.615000 0.108933 0
4.620000 0.142495 0
4.625000 0.173006 0
4.630000 0.198146 0
4.635000 0.215841 0
4.640000 0.224546 1
4.645000 0.223464 0
4.650000 0.212671 0
4.655000 0.193102 0
4.660000 0.166422 0
4.665000 0.134775 0
4.670000 0.100467 0
4.675000 0.065511 0
4.680000 0.030952 0
4.685000 -0.004146 0
4.690000 -0.043563 0
4.695000 -0.092920 0
4.700000 -0.154750 0
4.705000 -0.220641 0
4.710000 -0.266509 2
4.715000 -0.256744 0
4.720000 -0.154958 0
4.725000 0.063530 0
4.730000 0.393403 0
4.735000 0.773884 0
4.740000 1.083609 0
4.745000 1.191629 3
4.750000 1.043931 0
4.755000 0.703388 0
4.760000 0.300863 0
4.765000 -0.045000 0
4.770000 -0.271251 0
4.775000 -0.366251 4
4.780000 -0.352138 0
4.785000 -0.271320 0
4.790000 -0.170335 0
4.795000 -0.081848 0
4.800000 -0.016862 0
4.805000 0.029124 0
4.810000 0.065127 0
4.815000 0.097877 0
4.820000 0.130544 0
4.825000 0.163956 0
4.830000 0.197863 0
4.835000 0.231599 0
4.840000 0.264343 0
4.845000 0.295203 0
4.850000 0.323275 0
4.855000 0.347686 0
4.860000 0.367634 0
4.865000 0.382438 0
4.870000 0.391571 0
4.875000 0.394692 5
4.880000 0.391664 0
4.885000 0.382566 0
4.890000 0.367690 0
4.895000 0.347517 0
4.900000 0.322701 0
4.905000 0.294025 0
4.910000 0.262364 0
4.915000 0.228638 0
4.920000 0.193768 0
4.925000 0.158639 0
4.930000 0.124056 0
4.935000 0.090725 0
4.940000 0.059229 0
4.945000 0.030017 0
4.950000 0.003405 0
4.955000 -0.020421 0
4.960000 -0.041392 0
4.965000 -0.059541 0
4.970000 -0.074983 0
4.975000 -0.087896 0
4.980000 -0.098502 0
4.985000 -0.107049 0
4.990000 -0.113794 0
4.995000 -0.118993 0
5.000000 -0.122889 0
5.005000 -0.125706 0
5.010000 -0.127223 0
5.015000 -0.126264 0
5.020000 -0.125310 0
5.025000 -0.124361 0
5.030000 -0.123415 0
5.035000 -0.122471 0
5.040000 -0.121527 0
5.045000 -0.120578 0
5.050000 -0.119614 0
5.055000 -0.118618 0
5.060000 -0.117561 0
5.065000 -0.116392 0
5.070000 -0.115032 0
5.075000 -0.113353 0
5.080000 -0.111171 0
5.085000 -0.108222 0
5.090000 -0.104151 0
5.095000 -0.098502 0
5.100000 -0.090730 0
5.105000 -0.080230 0
5.110000 -0.066390 0
5.115000 -0.048681 0
5.120000 -0.026767 0
5.125000 -0.000627 0
5.130000 0.029332 0
5.135000 0.062190 0
5.140000 0.096501 0
5.145000 0.130355 0
5.150000 0.161530 0
5.155000 0.187722 0
5.160000 0.206825 0
5.165000 0.217207 0
5.170000 0.217942 1
5.175000 0.208946 0
5.180000 0.190992 0
5.185000 0.165600 0
5.190000 0.134818 0
5.195000 0.100920 0
5.200000 0.066004 0
5.205000 0.031386 0
5.210000 -0.003321 0
5.215000 -0.041187 0
5.220000 -0.087610 0
5.225000 -0.146517 0
5.230000 -0.212999 0
5.235000 -0.267227 0
5.240000 -0.276125 2
5.245000 -0.202796 0
5.250000 -0.018275 0
5.255000 0.282988 0
5.260000 0.658970 0
5.265000 1.004931 0
5.270000 1.185648 3
5.275000 1.115884 0
5.280000 0.822494 0
5.285000 0.424402 0
5.290000 0.051947 0
5.295000 -0.213423 0
5.300000 -0.346412 0
5.305000 -0.360726 4
5.310000 -0.294412 0
5.315000 -0.195037 0
5.320000 -0.100941 0
5.325000 -0.029308 0
5.330000 0.021098 0
5.335000 0.059026 0
5.340000 0.092202 0
5.345000 0.124723 0
5.350000 0.157916 0
5.355000 0.191731 0
5.360000 0.225574 0
5.365000 0.258647 0
5.370000 0.290066 0
5.375000 0.318923 0
5.380000 0.344325 0
5.385000 0.365445 0
5.390000 0.381563 0
5.395000 0.392108 0
5.400000 0.396688 5
5.405000 0.395116 0
5.410000 0.387420 0
5.415000 0.373841 0
5.420000 0.354824 0
5.425000 0.330987 0
5.430000 0.303092 0
5.435000 0.272002 0
5.440000 0.238636 0
5.445000 0.203924 0
5.450000 0.168766 0
5.455000 0.133993 0
5.460000 0.100336 0
5.465000 0.068408 0
5.470000 0.038691 0
5.475000 0.011527 0
5.480000 -0.012871 0
5.485000 -0.034410 0
5.490000 -0.053107 0
5.495000 -0.069061 0
5.500000 -0.082443 0
5.505000 -0.093468 0
5.510000 -0.102383 0
5.515000 -0.109444 0
5.520000 -0.114911 0
5.525000 -0.119030 0
5.530000 -0.122029 0
5.535000 -0.123676 0
5.540000 -0.122735 0
5.545000 -0.121799 0
5.550000 -0.120867 0
5.555000 -0.119939 0
5.560000 -0.119013 0
5.565000 -0.118087 0
5.570000 -0.117157 0
5.575000 -0.116214 0
5.580000 -0.115241 0
5.585000 -0.114213 0
5.590000 -0.113081 0
5.595000 -0.111768 0
5.600000 -0.110157 0
5.605000 -0.108069 0
5.610000 -0.105248 0
5.615000 -0.101351 0
5.620000 -0.095931 0
5.625000 -0.088450 0
5.630000 -0.078303 0
5.635000 -0.064872 0
5.640000 -0.047611 0
5.645000 -0.026156 0
5.650000 -0.000447 0
5.655000 0.029155 0
5.660000 0.061777 0
5.665000 0.096014 0
5.670000 0.129983 0
5.675000 0.161469 0
5.680000 0.188153 0
5.685000 0.207889 0
5.690000 0.218987 0
5.695000 0.220454 1
5.700000 0.212139 0
5.705000 0.194760 0
5.710000 0.169797 0
5.715000 0.139282 0
5.720000 0.105500 0
5.725000 0.070584 0
5.730000 0.035926 0
5.735000 0.001259 0
5.740000 -0.036345 0
5.745000 -0.082251 0
5.750000 -0.140624 0
5.755000 -0.207086 0
5.760000 -0.262361 0
5.765000 -0.273570 2
5.770000 -0.203552 0
5.775000 -0.022713 0
5.780000 0.275560 0
5.785000 0.650669 0
5.790000 0.998752 0
5.795000 1.183782 3
5.800000 1.117940 0
5.805000 0.825992 0
5.810000 0.427988 0
5.815000 0.056061 0
5.820000 -0.207560 0
5.825000 -0.337849 0
5.830000 -0.349338 4
5.835000 -0.281107 0
5.840000 -0.181371 0
5.845000 -0.088233 0
5.850000 -0.018016 0
5.855000 0.031266 0
5.860000 0.068604 0
5.865000 0.101593 0
5.870000 0.134116 0
5.875000 0.167350 0
5.880000 0.201169 0
5.885000 0.234940 0
5.890000 0.267840 0
5.895000 0.298968 0
5.900000 0.327399 0
5.905000 0.352236 0
5.910000 0.372652 0
5.915000 0.387934 0
5.920000 0.397530 0
5.925000 0.401074 5
5.930000 0.398410 0
5.935000 0.389605 0
5.940000 0.374943 0
5.945000 0.354909 0
5.950000 0.330163 0
5.955000 0.301501 0
5.960000 0.269813 0
5.965000 0.236040 0
5.970000 0.201121 0
5.975000 0.165955 0
5.980000 0.131364 0
5.985000 0.098063 0
5.990000 0.066640 0
5.995000 0.037546 0
6.000000 0.011095 0
6.005000 -0.012534 0
6.010000 -0.033279 0
6.015000 -0.051182 0
6.020000 -0.066369 0
6.025000 -0.079028 0
6.030000 -0.089389 0
6.035000 -0.097707 0
6.040000 -0.104245 0
6.045000 -0.109262 0
6.050000 -0.113003 0
6.055000 -0.115693 0
6.060000 -0.115312 0
6.065000 -0.114413 0
6.070000 -0.113518 0
6.075000 -0.112627 0
6.080000 -0.111739 0
6.085000 -0.110852 0
6.090000 -0.109964 0
6.095000 -0.109069 0
6.100000 -0.108154 0
6.105000 -0.107200 0
6.110000 -0.106172 0
6.115000 -0.105009 0
6.120000 -0.103618 0
6.125000 -0.101852 0
6.130000 -0.099498 0
6.135000 -0.096256 0
6.140000 -0.091728 0
6.145000 -0.085415 0
6.150000 -0.076733 0
6.155000 -0.065054 0
6.160000 -0.049774 0
6.165000 -0.030418 0
6.170000 -0.006759 0
6.175000 0.021053 0
6.180000 0.052386 0
6.185000 0.086063 0
6.190000 0.120383 0
6.195000 0.153224 0
6.200000 0.182251 0
6.205000 0.205171 0
6.210000 0.220040 0
6.215000 0.225529 1
6.220000 0.221122 0
6.225000 0.207194 0
6.230000 0.184958 0
6.235000 0.156288 0
6.240000 0.123444 0
6.245000 0.088704 0
6.250000 0.053846 0
6.255000 0.019334 0
6.260000 -0.016763 0
6.265000 -0.059225 0
6.270000 -0.113370 0
6.275000 -0.178549 0
6.280000 -0.240459 0
6.285000 -0.269417 2
6.290000 -0.227834 0
6.295000 -0.082030 0
6.300000 0.183769 0
6.305000 0.544938 0
6.310000 0.913779 0
6.315000 1.154618 0
6.320000 1.157136 3
6.325000 0.915645 0
6.330000 0.532166 0
6.335000 0.142078 0
6.340000 -0.157041 0
6.345000 -0.326002 0
6.350000 -0.369592 4
6.355000 -0.320526 0
6.360000 -0.225605 0
6.365000 -0.127412 0
6.370000 -0.049210 0
6.375000 0.006200 0
6.380000 0.046618 0
6.385000 0.080537 0
6.390000 0.113031 0
6.395000 0.146025 0
6.400000 0.179732 0
6.405000 0.213655 0
6.410000 0.247033 0
6.415000 0.279000 0
6.420000 0.308647 0
6.425000 0.335072 0
6.430000 0.357428 0
6.435000 0.374959 0
6.440000 0.387053 0
6.445000 0.393265 0
6.450000 0.393352 5
6.455000 0.387285 0
6.460000 0.375249 0
6.465000 0.357636 0
6.470000 0.335023 0
6.475000 0.308137 0
6.480000 0.277818 0
6.485000 0.244977 0
6.490000 0.210544 0
6.495000 0.175433 0
6.500000 0.140496 0
6.505000 0.106493 0
6.510000 0.074071 0
6.515000 0.043746 0
6.520000 0.015898 0
6.525000 -0.009226 0
6.530000 -0.031505 0
6.535000 -0.050927 0
6.540000 -0.067573 0
6.545000 -0.081596 0
6.550000 -0.093201 0
6.555000 -0.102630 0
6.560000 -0.110137 0
6.565000 -0.115982 0
6.570000 -0.120417 0
6.575000 -0.123675 0
6.580000 -0.125968 0
6.585000 -0.125485 0
6.590000 -0.124535 0
6.595000 -0.123590 0
6.600000 -0.122648 0
6.605000 -0.121709 0
6.610000 -0.120772 0
6.615000 -0.119831 0
6.620000 -0.118880 0
6.625000 -0.117906 0
6.630000 -0.116883 0
6.635000 -0.115771 0
6.640000 -0.114503 0
6.645000 -0.112970 0
6.650000 -0.111013 0
6.655000 -0.108397 0
6.660000 -0.104801 0
6.665000 -0.099805 0
6.670000 -0.092892 0
6.675000 -0.083471 0
6.680000 -0.070919 0
6.685000 -0.054663 0
6.690000 -0.034280 0
6.695000 -0.009620 0
6.700000 0.019069 0
6.705000 0.051051 0
6.710000 0.085053 0
6.715000 0.119300 0
6.720000 0.151642 0
6.725000 0.179759 0
6.730000 0.201434 0
6.735000 0.214836 0
6.740000 0.218778 1
6.745000 0.212891 0
6.750000 0.197679 0
6.755000 0.174449 0
6.760000 0.145122 0
6.765000 0.111953 0
6.770000 0.077158 0
6.775000 0.042387 0
6.780000 0.007891 0
6.785000 -0.028539 0
6.790000 -0.071837 0
6.795000 -0.127045 0
6.800000 -0.192658 0
6.805000 -0.253337 0
6.810000 -0.278909 2
6.815000 -0.232174 0
6.820000 -0.080485 0
6.825000 0.190371 0
6.830000 0.553827 0
6.835000 0.921049 0
6.840000 1.157580 3
6.845000 1.156078 0
6.850000 0.912524 0
6.855000 0.528473 0
6.860000 0.138644 0
6.865000 -0.160138 0
6.870000 -0.329030 0
6.875000 -0.372823 4
6.880000 -0.324041 0
6.885000 -0.229248 0
6.890000 -0.130926 0
6.895000 -0.052432 0
6.900000 0.003264 0
6.905000 0.043861 0
6.910000 0.077853 0
6.915000 0.110358 0
6.920000 0.143343 0
6.925000 0.177045 0
6.930000 0.210980 0
6.935000 0.244396 0
6.940000 0.276432 0
6.945000 0.306184 0
6.950000 0.332755 0
6.955000 0.355297 0
6.960000 0.373055 0
6.965000 0.385410 0
6.970000 0.391915 0
6.975000 0.392316 5
6.980000 0.386574 0
6.985000 0.374862 0
6.990000 0.357559 0
6.995000 0.335230 0
7.000000 0.308591 0
7.005000 0.278473 0
7.010000 0.245778 0
7.015000 0.211433 0
7.020000 0.176349 0
7.025000 0.141380 0
7.030000 0.107290 0
7.035000 0.074732 0
7.040000 0.044231 0
7.045000 0.016175 0
7.050000 -0.009180 0
7.055000 -0.031701 0
7.060000 -0.051370 0
7.065000 -0.068257 0
7.070000 -0.082511 0
7.075000 -0.094332 0
7.080000 -0.103956 0
7.085000 -0.111637 0
7.090000 -0.117634 0
7.095000 -0.122197 0
7.100000 -0.125562 0
7.105000 -0.127943 0
7.110000 -0.127465 0
7.115000 -0.126505 0
7.120000 -0.125550 0
7.125000 -0.124599 0
7.130000 -0.123650 0
7.135000 -0.122704 0
7.140000 -0.121755 0
7.145000 -0.120797 0
7.150000 -0.119818 0
7.155000 -0.118795 0
7.160000 -0.117690 0
7.165000 -0.116440 0
7.170000 -0.114945 0
7.175000 -0.113054 0
7.180000 -0.110545 0
7.185000 -0.107112 0
7.190000 -0.102353 0
7.195000 -0.095767 0
7.200000 -0.086774 0
7.205000 -0.074756 0
7.210000 -0.059128 0
7.215000 -0.039436 0
7.220000 -0.015479 0
7.225000 0.012572 0
7.230000 0.044070 0
7.235000 0.077840 0
7.240000 0.112198 0
7.245000 0.145056 0
7.250000 0.174117 0
7.255000 0.197134 0
7.260000 0.212194 0
7.265000 0.217980 1
7.270000 0.213963 0
7.275000 0.200480 0
7.280000 0.178689 0
7.285000 0.150402 0
7.290000 0.117823 0
7.295000 0.083201 0
7.300000 0.048350 0
7.305000 0.013888 0
7.310000 -0.021796 0
7.315000 -0.063131 0
7.320000 -0.115546 0
7.325000 -0.179640 0
7.330000 -0.243539 0
7.335000 -0.280054 2
7.340000 -0.252748 0
7.345000 -0.127067 0
7.350000 0.116889 0
7.355000 0.464380 0
7.360000 0.841953 0
7.365000 1.121652 0
7.370000 1.182052 3
7.375000 0.990443 0
7.380000 0.627334 0
7.385000 0.228057 0
7.390000 -0.097210 0
7.395000 -0.296589 0
7.400000 -0.366516 4
7.405000 -0.334540 0
7.410000 -0.245785 0
7.415000 -0.145500 0
7.420000 -0.061980 0
7.425000 -0.001983 0
7.430000 0.040941 0
7.435000 0.075718 0
7.440000 0.108262 0
7.445000 0.141076 0
7.450000 0.174641 0
7.455000 0.208564 0
7.460000 0.242122 0
7.465000 0.274462 0
7.470000 0.304680 0
7.475000 0.331868 0
7.480000 0.355160 0
7.485000 0.373779 0
7.490000 0.387074 0
7.495000 0.394564 0
7.500000 0.395960 5
7.505000 0.391185 0
7.510000 0.380381 0
7.515000 0.363896 0
7.520000 0.342272 0
7.525000 0.316209 0
7.530000 0.286526 0
7.535000 0.254125 0
7.540000 0.219938 0
7.545000 0.184884 0
7.550000 0.149834 0
7.555000 0.115570 0
7.560000 0.082765 0
7.565000 0.051963 0
7.570000 0.023572 0
7.575000 -0.002133 0
7.580000 -0.025007 0
7.585000 -0.045016 0
7.590000 -0.062224 0
7.595000 -0.076771 0
7.600000 -0.088855 0
7.605000 -0.098711 0
7.610000 -0.106592 0
7.615000 -0.112759 0
7.620000 -0.117465 0
7.625000 -0.120949 0
7.630000 -0.123428 0
7.635000 -0.122983 0
7.640000 -0.122046 0
7.645000 -0.121113 0
7.650000 -0.120184 0
7.655000 -0.119258 0
7.660000 -0.118333 0
7.665000 -0.117407 0
7.670000 -0.116472 0
7.675000 -0.115516 0
7.680000 -0.114518 0
7.685000 -0.113440 0
7.690000 -0.112221 0
7.695000 -0.110761 0
7.700000 -0.108912 0
7.705000 -0.106454 0
7.710000 -0.103082 0
7.715000 -0.098396 0
7.720000 -0.091895 0
7.725000 -0.082997 0
7.730000 -0.071081 0
7.735000 -0.055556 0
7.740000 -0.035962 0
7.745000 -0.012090 0
7.750000 0.015894 0
7.755000 0.047346 0
7.760000 0.081089 0
7.765000 0.115431 0
7.770000 0.148273 0
7.775000 0.177304 0
7.780000 0.200265 0
7.785000 0.215233 0
7.790000 0.220890 1
7.795000 0.216714 0
7.800000 0.203056 0
7.805000 0.181094 0
7.810000 0.152663 0
7.815000 0.119985 0
7.820000 0.085318 0
7.825000 0.050463 0
7.830000 0.015985 0
7.835000 -0.019839 0
7.840000 -0.061559 0
7.845000 -0.114575 0
7.850000 -0.179073 0
7.855000 -0.242361 0
7.860000 -0.276391 2
7.865000 -0.244314 0
7.870000 -0.111842 0
7.875000 0.139607 0
7.880000 0.492080 0
7.885000 0.867342 0
7.890000 1.134548 0
7.895000 1.175549 3
7.900000 0.967006 0
7.905000 0.596974 0
7.910000 0.199582 0
7.915000 -0.119632 0
7.920000 -0.312585 0
7.925000 -0.377594 4
7.930000 -0.342827 0
7.935000 -0.253136 0
7.940000 -0.152922 0
7.945000 -0.069663 0
7.950000 -0.009765 0
7.955000 0.033200 0
7.960000 0.068044 0
7.965000 0.100630 0
7.970000 0.133463 0
7.975000 0.167044 0
7.980000 0.200998 0
7.985000 0.234619 0
7.990000 0.267069 0
7.995000 0.297457 0
8.000000 0.324888 0
8.005000 0.348503 0
8.010000 0.367528 0
8.015000 0.381312 0
8.020000 0.389363 0
8.025000 0.391379 5
8.030000 0.387265 0
8.035000 0.377137 0
8.040000 0.361320 0
8.045000 0.340324 0
8.050000 0.314822 0
8.055000 0.285613 0
8.060000 0.253575 0
8.065000 0.219626 0
8.070000 0.184679 0
8.075000 0.149601 0
8.080000 0.115181 0
8.085000 0.082102 0
8.090000 0.050925 0
8.095000 0.022077 0
8.100000 -0.004146 0
8.105000 -0.027576 0
8.110000 -0.048159 0
8.115000 -0.065939 0
8.120000 -0.081039 0
8.125000 -0.093644 0
8.130000 -0.103976 0
8.135000 -0.112285 0
8.140000 -0.118827 0
8.145000 -0.123854 0
8.150000 -0.127607 0
8.155000 -0.130305 0
8.160000 -0.131735 0
8.165000 -0.130754 0
8.170000 -0.129778 0
8.175000 -0.128806 0
8.180000 -0.127838 0
8.185000 -0.126872 0
8.190000 -0.125905 0
8.195000 -0.124933 0
8.200000 -0.123946 0
8.205000 -0.122925 0
8.210000 -0.121841 0
8.215000 -0.120641 0
8.220000 -0.119244 0
8.225000 -0.117522 0
8.230000 -0.115286 0
8.235000 -0.112270 0
8.240000 -0.108116 0
8.245000 -0.102368 0
8.250000 -0.094480 0
8.255000 -0.083849 0
8.260000 -0.069870 0
8.265000 -0.052020 0
8.270000 -0.029972 0
8.275000 -0.003717 0
8.280000 0.026330 0
8.285000 0.059245 0
8.290000 0.093581 0
8.295000 0.127436 0
8.300000 0.158598 0
8.305000 0.184780 0
8.310000 0.203889 0
8.315000 0.214304 0
8.320000 0.215105 1
8.325000 0.206203 0
8.330000 0.188359 0
8.335000 0.163077 0
8.340000 0.132387 0
8.345000 0.098547 0
8.350000 0.063651 0
8.355000 0.029037 0
8.360000 -0.005620 0
8.365000 -0.043279 0
8.370000 -0.089267 0
8.375000 -0.147662 0
8.380000 -0.214096 0
8.385000 -0.269544 0
8.390000 -0.281580 2
8.395000 -0.213448 0
8.400000 -0.035623 0
8.405000 0.259307 0
8.410000 0.633100 0
8.415000 0.985265 0
8.420000 1.181191 3
8.425000 1.130548 0
8.430000 0.852015 0
8.435000 0.457658 0
8.440000 0.077733 0
8.445000 -0.201814 0
8.450000 -0.350770 0
8.455000 -0.378831 4
8.460000 -0.320934 0
8.465000 -0.223563 0
8.470000 -0.126793 0
8.475000 -0.050989 0
8.480000 0.002702 0
8.485000 0.042342 0
8.490000 0.076067 0
8.495000 0.108592 0
8.500000 0.141657 0
8.505000 0.175414 0
8.510000 0.209359 0
8.515000 0.242742 0
8.520000 0.274711 0
8.525000 0.304374 0
8.530000 0.330850 0
8.535000 0.353303 0
8.540000 0.370995 0
8.545000 0.383318 0
8.550000 0.389831 0
8.555000 0.390287 5
8.560000 0.384645 0
8.565000 0.373072 0
8.570000 0.355939 0
8.575000 0.333796 0
8.580000 0.307344 0
8.585000 0.277399 0
8.590000 0.244845 0
8.595000 0.210598 0
8.600000 0.175555 0
8.605000 0.140564 0
8.610000 0.106386 0
8.615000 0.073675 0
8.620000 0.042960 0
8.625000 0.014638 0
8.630000 -0.011025 0
8.635000 -0.033886 0
8.640000 -0.053910 0
8.645000 -0.071159 0
8.650000 -0.085769 0
8.655000 -0.097930 0
8.660000 -0.107870 0
8.665000 -0.115840 0
8.670000 -0.122093 0
8.675000 -0.126878 0
8.680000 -0.130431 0
8.685000 -0.132967 0
8.690000 -0.132491 0
8.695000 -0.131507 0
8.700000 -0.130527 0
8.705000 -0.129551 0
8.710000 -0.128578 0
8.715000 -0.127608 0
8.720000 -0.126637 0
8.725000 -0.125659 0
8.730000 -0.124664 0
8.735000 -0.123634 0
8.740000 -0.122535 0
8.745000 -0.121313 0
8.750000 -0.119883 0
8.755000 -0.118111 0
8.760000 -0.115802 0
8.765000 -0.112684 0
8.770000 -0.108391 0
8.775000 -0.102460 0
8.780000 -0.094344 0
8.785000 -0.083440 0
8.790000 -0.069150 0
8.795000 -0.050968 0
8.800000 -0.028590 0
8.805000 -0.002035 0
8.810000 0.028249 0
8.815000 0.061309 0
8.820000 0.095676 0
8.825000 0.129436 0
8.830000 0.160383 0
8.835000 0.186249 0
8.840000 0.204973 0
8.845000 0.214976 0
8.850000 0.215377 1
8.855000 0.206125 0
8.860000 0.188004 0
8.865000 0.162529 0
8.870000 0.131727 0
8.875000 0.097841 0
8.880000 0.062942 0
8.885000 0.028335 0
8.890000 -0.006331 0
8.895000 -0.044028 0
8.900000 -0.090057 0
8.905000 -0.148455 0
8.910000 -0.214886 0
8.915000 -0.270512 0
8.920000 -0.283197 2
8.925000 -0.216434 0
8.930000 -0.040711 0
8.935000 0.251918 0
8.940000 0.624736 0
8.945000 0.979413 0
8.950000 1.182279 3
8.955000 1.140279 0
8.960000 0.867293 0
8.965000 0.474241 0
8.970000 0.092779 0
8.975000 -0.189205 0
8.980000 -0.340299 0
8.985000 -0.369743 4
8.990000 -0.312470 0
8.995000 -0.215246 0
9.000000 -0.118498 0
9.005000 -0.042777 0
9.010000 0.010778 0
9.015000 0.050299 0
9.020000 0.083952 0
9.025000 0.116441 0
9.030000 0.149485 0
9.035000 0.183218 0
9.040000 0.217125 0
9.045000 0.250444 0
9.050000 0.282316 0
9.055000 0.311845 0
9.060000 0.338140 0
9.065000 0.360367 0
9.070000 0.377784 0
9.075000 0.389787 0
9.080000 0.395944 0
9.085000 0.396013 5
9.090000 0.389967 0
9.095000 0.377987 0
9.100000 0.360460 0
9.105000 0.337949 0
9.110000 0.311172 0
9.115000 0.280956 0
9.120000 0.248196 0
9.125000 0.213813 0
9.130000 0.178710 0
9.135000 0.143732 0
9.140000 0.109638 0
9.145000 0.077074 0
9.150000 0.046559 0
9.155000 0.018479 0
9.160000 -0.006910 0
9.165000 -0.029478 0
9.170000 -0.049204 0
9.175000 -0.066157 0
9.180000 -0.080482 0
9.185000 -0.092377 0
9.190000 -0.102077 0
9.195000 -0.109832 0
9.200000 -0.115900 0
9.205000 -0.120530 0
9.210000 -0.123955 0
9.215000 -0.126390 0
9.220000 -0.125927 0
9.225000 -0.124975 0
9.230000 -0.124027 0
9.235000 -0.123083 0
9.240000 -0.122143 0
9.245000 -0.121204 0
9.250000 -0.120263 0
9.255000 -0.119314 0
9.260000 -0.118346 0
9.265000 -0.117336 0
9.270000 -0.116249 0
9.275000 -0.115025 0
9.280000 -0.113570 0
9.285000 -0.111738 0
9.290000 -0.109320 0
9.295000 -0.106021 0
9.300000 -0.101453 0
9.305000 -0.095132 0
9.310000 -0.086490 0
9.315000 -0.074915 0
9.320000 -0.059816 0
9.325000 -0.040721 0
9.330000 -0.017386 0
9.335000 0.010078 0
9.340000 0.041106 0
9.345000 0.074611 0
9.350000 0.108996 0
9.355000 0.142242 0
9.360000 0.172090 0
9.365000 0.196282 0
9.370000 0.212842 0
9.375000 0.220344 1
9.380000 0.218114 0
9.385000 0.206328 0
9.390000 0.185991 0
9.395000 0.158796 0
9.400000 0.126876 0
9.405000 0.092488 0
9.410000 0.057570 0
9.415000 0.023060 0
9.420000 -0.012087 0
9.425000 -0.051697 0
9.430000 -0.101297 0
9.435000 -0.163235 0
9.440000 -0.229085 0
9.445000 -0.275160 2
9.450000 -0.266542 0
9.455000 -0.167436 0
9.460000 0.046875 0
9.465000 0.372671 0
9.470000 0.753184 0
9.475000 1.071730 0
9.480000 1.197738 3
9.485000 1.070035 0
9.490000 0.741372 0
9.495000 0.338848 0
9.500000 -0.016185 0
9.505000 -0.255739 0
9.510000 -0.364010 4
9.515000 -0.360083 0
9.520000 -0.284448 0
9.525000 -0.183729 0
9.530000 -0.092646 0
9.535000 -0.024658 0
9.540000 0.023350 0
9.545000 0.060250 0
9.550000 0.093195 0
9.555000 0.125782 0
9.560000 0.159079 0
9.565000 0.192943 0
9.570000 0.226758 0
9.575000 0.259725 0
9.580000 0.290969 0
9.585000 0.319594 0
9.590000 0.344725 0
9.595000 0.365553 0
9.600000 0.381377 0
9.605000 0.391645 0
9.610000 0.395979 5
9.615000 0.394204 0
9.620000 0.386355 0
9.625000 0.372676 0
9.630000 0.353606 0
9.635000 0.329759 0
9.640000 0.301886 0
9.645000 0.270835 0
9.650000 0.237512 0
9.655000 0.202833 0
9.660000 0.167687 0
9.665000 0.132895 0
9.670000 0.099181 0
9.675000 0.067156 0
9.680000 0.037301 0
9.685000 0.009962 0
9.690000 -0.014641 0
9.695000 -0.036411 0
9.700000 -0.055352 0
9.705000 -0.071559 0
9.710000 -0.085191 0
9.715000 -0.096459 0
9.720000 -0.105600 0
9.725000 -0.112869 0
9.730000 -0.118521 0
9.735000 -0.122801 0
9.740000 -0.125938 0
9.745000 -0.127678 0
9.750000 -0.126717 0
9.755000 -0.125761 0
9.760000 -0.124809 0
9.765000 -0.123861 0
9.770000 -0.122916 0
9.775000 -0.121972 0
9.780000 -0.121025 0
9.785000 -0.120068 0
9.790000 -0.119086 0
9.795000 -0.118056 0
9.800000 -0.116937 0
9.805000 -0.115662 0
9.810000 -0.114125 0
9.815000 -0.112168 0
9.820000 -0.109562 0
9.825000 -0.105993 0
9.830000 -0.101048 0
9.835000 -0.094224 0
9.840000 -0.084940 0
9.845000 -0.072582 0
9.850000 -0.056582 0
9.855000 -0.036508 0
9.860000 -0.012192 0
9.865000 0.016162 0
9.870000 0.047873 0
9.875000 0.081737 0
9.880000 0.116057 0
9.885000 0.148748 0
9.890000 0.177531 0
9.895000 0.200195 0
9.900000 0.214869 0
9.905000 0.220282 1
9.910000 0.215940 0
9.915000 0.202206 0
9.920000 0.180246 0
9.925000 0.151862 0
9.930000 0.119240 0
9.935000 0.084605 0
9.940000 0.049746 0
9.945000 0.015279 0
9.950000 -0.020375 0
9.955000 -0.061571 0
9.960000 -0.113706 0
9.965000 -0.177573 0
9.970000 -0.241844 0
9.975000 -0.280062 2
9.980000 -0.256326 0
9.985000 -0.136115 0
9.990000 0.101361 0
9.995000 0.444083 0
10.000000 0.823236 0
10.005000 1.114434 0
10.010000 1.194115 3
10.015000 1.021345 0
10.020000 0.668121 0
10.025000 0.266592 0
10.030000 -0.069926 0
10.035000 -0.284390 0
10.040000 -0.368912 4
10.045000 -0.347657 0
10.050000 -0.263711 0
10.055000 -0.162779 0
10.060000 -0.075783 0
10.065000 -0.012265 0
10.070000 0.032858 0
10.075000 0.068526 0
10.080000 0.101210 0
10.085000 0.133897 0
10.090000 0.167332 0
10.095000 0.201236 0
10.100000 0.234942 0
10.105000 0.267628 0
10.110000 0.298412 0
10.115000 0.326396 0
10.120000 0.350714 0
10.125000 0.370575 0
10.130000 0.385305 0
10.135000 0.394382 0
10.140000 0.397469 5
10.145000 0.394434 0
10.150000 0.385353 0
10.155000 0.370514 0
10.160000 0.350394 0
10.165000 0.325639 0
10.170000 0.297025 0
10.175000 0.265417 0
10.180000 0.231728 0
10.185000 0.196873 0
10.190000 0.161728 0
10.195000 0.127100 0
10.200000 0.093690 0
10.205000 0.062084 0
10.210000 0.032733 0
10.215000 0.005958 0
10.220000 -0.018049 0
10.225000 -0.039214 0
10.230000 -0.057563 0
10.235000 -0.073204 0
10.240000 -0.086311 0
10.245000 -0.097102 0
10.250000 -0.105820 0
10.255000 -0.112721 0
10.260000 -0.118058 0
10.265000 -0.122075 0
10.270000 -0.124996 0
10.275000 -0.126587 0
10.280000 -0.125632 0
10.285000 -0.124681 0
10.290000 -0.123735 0
10.295000 -0.122792 0
10.300000 -0.121852 0
10.305000 -0.120912 0
10.310000 -0.119967 0
10.315000 -0.119010 0
10.320000 -0.118024 0
10.325000 -0.116983 0
10.330000 -0.115839 0
10.335000 -0.114519 0
10.340000 -0.112906 0
10.345000 -0.110826 0
10.350000 -0.108033 0
10.355000 -0.104188 0
10.360000 -0.098859 0
10.365000 -0.091518 0
10.370000 -0.081573 0
10.375000 -0.068412 0
10.380000 -0.051488 0
10.385000 -0.030421 0
10.390000 -0.005117 0
10.395000 0.024110 0
10.400000 0.056458 0
10.405000 0.090599 0
10.410000 0.124727 0
10.415000 0.156687 0
10.420000 0.184189 0
10.425000 0.205076 0
10.430000 0.217598 0
10.435000 0.220656 1
10.440000 0.213963 0
10.445000 0.198086 0
10.450000 0.174368 0
10.455000 0.144733 0
10.460000 0.111415 0
10.465000 0.076585 0
10.470000 0.041829 0
10.475000 0.007319 0
10.480000 -0.029211 0
10.485000 -0.072681 0
10.490000 -0.128025 0
10.495000 -0.193663 0
10.500000 -0.254418 0
10.505000 -0.280579 2
10.510000 -0.235469 0
10.515000 -0.086701 0
10.520000 0.180453 0
10.525000 0.541551 0
10.530000 0.911481 0
10.535000 1.158413 0
10.540000 1.172698 3
10.545000 0.942231 0
10.550000 0.562850 0
10.555000 0.169978 0
10.560000 -0.135897 0
10.565000 -0.312628 0
10.570000 -0.362959 4
10.575000 -0.318240 0
10.580000 -0.224800 0
10.585000 -0.125923 0
10.590000 -0.046220 0
10.595000 0.010449 0
10.600000 0.051530 0
10.605000 0.085648 0
10.610000 0.118114 0
10.615000 0.151017 0
10.620000 0.184648 0
10.625000 0.218542 0
10.630000 0.251952 0
10.635000 0.284018 0
10.640000 0.313836 0
10.645000 0.340503 0
10.650000 0.363168 0
10.655000 0.381070 0
10.660000 0.393582 0
10.665000 0.400250 0
10.670000 0.400812 5
10.675000 0.395221 0
10.680000 0.383644 0
10.685000 0.366457 0
10.690000 0.344218 0
10.695000 0.317643 0
10.700000 0.287562 0
10.705000 0.254877 0
10.710000 0.220519 0
10.715000 0.185400 0
10.720000 0.150379 0
10.725000 0.116224 0
10.730000 0.083591 0
10.735000 0.053010 0
10.740000 0.024871 0
10.745000 -0.000566 0
10.750000 -0.023168 0
10.755000 -0.042912 0
10.760000 -0.059871 0
10.765000 -0.074191 0
10.770000 -0.086073 0
10.775000 -0.095753 0
10.780000 -0.103486 0
10.785000 -0.109532 0
10.790000 -0.114140 0
10.795000 -0.117549 0
10.800000 -0.119971 0
10.805000 -0.119532 0
10.810000 -0.118612 0
10.815000 -0.117696 0
10.820000 -0.116784 0
10.825000 -0.115875 0
10.830000 -0.114967 0
10.835000 -0.114056 0
10.840000 -0.113137 0
10.845000 -0.112195 0
10.850000 -0.111210 0
10.855000 -0.110141 0
10.860000 -0.108927 0
10.865000 -0.107465 0
10.870000 -0.105603 0
10.875000 -0.103118 0
10.880000 -0.099702 0
10.885000 -0.094949 0
10.890000 -0.088356 0
10.895000 -0.079341 0
10.900000 -0.067282 0
10.905000 -0.051596 0
10.910000 -0.031833 0
10.915000 -0.007799 0
10.920000 0.020324 0
10.925000 0.051872 0
10.930000 0.085653 0
10.935000 0.119963 0
10.940000 0.152701 0
10.945000 0.181560 0
10.950000 0.204296 0
10.955000 0.219007 0
10.960000 0.224398 1
10.965000 0.219972 0
10.970000 0.206099 0
10.975000 0.183971 0
10.980000 0.155425 0
10.985000 0.122679 0
10.990000 0.087983 0
10.995000 0.053117 0
11.000000 0.018624 0
11.005000 -0.017244 0
11.010000 -0.059042 0
11.015000 -0.112143 0
11.020000 -0.176685 0
11.025000 -0.239965 0
11.030000 -0.274010 2
11.035000 -0.242099 0
11.040000 -0.110047 0
11.045000 0.140751 0
11.050000 0.492691 0
11.055000 0.868286 0
11.060000 1.137398 0
11.065000 1.181648 3
11.070000 0.975461 0
11.075000 0.605751 0
11.080000 0.208544 0
11.085000 -0.109300 0
11.090000 -0.299627 0
11.095000 -0.361452 4
11.100000 -0.324010 0
11.105000 -0.233123 0
11.110000 -0.133388 0
11.115000 -0.051579 0
11.120000 0.006856 0
11.125000 0.048877 0
11.130000 0.083309 0
11.135000 0.115795 0
11.140000 0.148639 0
11.145000 0.182227 0
11.150000 0.216125 0
11.155000 0.249595 0
11.160000 0.281777 0
11.165000 0.311763 0
11.170000 0.338646 0
11.175000 0.361565 0
11.180000 0.379747 0
11.185000 0.392557 0
11.190000 0.399524 0
11.195000 0.400379 5
11.200000 0.395062 0
11.205000 0.383732 0
11.210000 0.366758 0
11.215000 0.344695 0
11.220000 0.318256 0
11.225000 0.288273 0
11.230000 0.255652 0
11.235000 0.221326 0
11.240000 0.186216 0
11.245000 0.151184 0
11.250000 0.117006 0
11.255000 0.084344 0
11.260000 0.053730 0
11.265000 0.025562 0
11.270000 0.000100 0
11.275000 -0.022520 0
11.280000 -0.042275 0
11.285000 -0.059238 0
11.290000 -0.073556 0
11.295000 -0.085430 0
11.300000 -0.095098 0
11.305000 -0.102816 0
11.310000 -0.108846 0
11.315000 -0.113438 0
11.320000 -0.116831 0
11.325000 -0.119239 0
11.330000 -0.118801 0
11.335000 -0.117885 0
11.340000 -0.116972 0
11.345000 -0.116064 0
11.350000 -0.115158 0
11.355000 -0.114253 0
11.360000 -0.113346 0
11.365000 -0.112429 0
11.370000 -0.111490 0
11.375000 -0.110505 0
11.380000 -0.109434 0
11.385000 -0.108212 0
11.390000 -0.106737 0
11.395000 -0.104849 0
11.400000 -0.102321 0
11.405000 -0.098838 0
11.410000 -0.093986 0
11.415000 -0.087252 0
11.420000 -0.078046 0
11.425000 -0.065746 0
11.430000 -0.049770 0
11.435000 -0.029680 0
11.440000 -0.005307 0
11.445000 0.023130 0
11.450000 0.054922 0
11.455000 0.088823 0
11.460000 0.123081 0
11.465000 0.155555 0
11.470000 0.183923 0
11.475000 0.205945 0
11.480000 0.219762 0
11.485000 0.224146 1
11.490000 0.218685 0
11.495000 0.203845 0
11.500000 0.180902 0
11.505000 0.151762 0
11.510000 0.118678 0
11.515000 0.083883 0
11.520000 0.049068 0
11.525000 0.014556 0
11.530000 -0.021763 0
11.535000 -0.064760 0
11.540000 -0.119576 0
11.545000 -0.185040 0
11.550000 -0.246260 0
11.555000 -0.273348 2
11.560000 -0.229043 0
11.565000 -0.080331 0
11.570000 0.187736 0
11.575000 0.549803 0
11.580000 0.918232 0
11.585000 1.158584 0
11.590000 1.161836 3
11.595000 0.921465 0
11.600000 0.538204 0
11.605000 0.148085 0
11.610000 -0.150816 0
11.615000 -0.319209 0
11.620000 -0.362056 4
11.625000 -0.312372 0
11.630000 -0.217232 0
11.635000 -0.119257 0
11.640000 -0.041499 0
11.645000 0.013501 0
11.650000 0.053665 0
11.655000 0.087475 0
11.660000 0.119938 0
11.665000 0.152925 0
11.670000 0.186619 0
11.675000 0.220508 0
11.680000 0.253822 0
11.685000 0.285687 0
11.690000 0.315190 0
11.695000 0.341427 0
11.700000 0.363546 0
11.705000 0.380798 0
11.710000 0.392570 0
11.715000 0.398430 5
11.720000 0.398142 0
11.725000 0.391690 0
11.730000 0.379272 0
11.735000 0.361294 0
11.740000 0.338347 0
11.745000 0.311170 0
11.750000 0.280615 0
11.755000 0.247598 0
11.760000 0.213057 0
11.765000 0.177903 0
11.770000 0.142988 0
11.775000 0.109068 0
11.780000 0.076782 0
11.785000 0.046637 0
11.790000 0.019002 0
11.795000 -0.005886 0
11.800000 -0.027916 0
11.805000 -0.047087 0
11.810000 -0.063487 0
11.815000 -0.077276 0
11.820000 -0.088667 0
11.825000 -0.097901 0
11.830000 -0.105239 0
11.835000 -0.110940 0
11.840000 -0.115254 0
11.845000 -0.118415 0
11.850000 -0.120176 0
11.855000 -0.119253 0
11.860000 -0.118334 0
11.865000 -0.117419 0
11.870000 -0.116508 0
11.875000 -0.115600 0
11.880000 -0.114692 0
11.885000 -0.113780 0
11.890000 -0.112856 0
11.895000 -0.111906 0
11.900000 -0.110902 0
11.905000 -0.109801 0
11.910000 -0.108530 0
11.915000 -0.106973 0
11.920000 -0.104959 0
11.925000 -0.102239 0
11.930000 -0.098477 0
11.935000 -0.093233 0
11.940000 -0.085974 0
11.945000 -0.076096 0
11.950000 -0.062976 0
11.955000 -0.046055 0
11.960000 -0.024947 0
11.965000 0.000436 0
11.970000 0.029766 0
11.975000 0.062203 0
11.980000 0.096373 0
11.985000 0.130410 0
11.990000 0.162101 0
11.995000 0.189115 0
12.000000 0.209274 0
12.005000 0.220847 0
12.010000 0.222796 1
12.015000 0.214922 0
12.020000 0.197908 0
12.025000 0.173213 0
12.030000 0.142862 0
12.035000 0.109147 0
12.040000 0.074227 0
12.045000 0.039541 0
12.050000 0.004887 0
12.055000 -0.032599 0
12.060000 -0.078273 0
12.065000 -0.136415 0
12.070000 -0.202866 0
12.075000 -0.258513 0
12.080000 -0.270445 2
12.085000 -0.201285 0
12.090000 -0.021162 0
12.095000 0.276756 0
12.100000 0.651821 0
12.105000 0.999641 0
12.110000 1.183510 3
12.115000 1.115977 0
12.120000 0.823375 0
12.125000 0.425325 0
12.130000 0.053226 0
12.135000 -0.211036 0
12.140000 -0.342345 0
12.145000 -0.354915 4
12.150000 -0.287417 0
12.155000 -0.187808 0
12.160000 -0.094283 0
12.165000 -0.023504 0
12.170000 0.026222 0
12.175000 0.063794 0
12.180000 0.096859 0
12.185000 0.129385 0
12.190000 0.162608 0
12.195000 0.196431 0
12.200000 0.230237 0
12.205000 0.263212 0
12.210000 0.294462 0
12.215000 0.323070 0
12.220000 0.348139 0
12.225000 0.368842 0
12.230000 0.384464 0
12.235000 0.394444 0
12.240000 0.398407 5
12.245000 0.396184 0
12.250000 0.387825 0
12.255000 0.373599 0
12.260000 0.353972 0
12.265000 0.329590 0
12.270000 0.301235 0
12.275000 0.269786 0
12.280000 0.236174 0
12.285000 0.201337 0
12.290000 0.166173 0
12.295000 0.131508 0
12.300000 0.098064 0
12.305000 0.066440 0
12.310000 0.037098 0
12.315000 0.010365 0
12.320000 -0.013568 0
12.325000 -0.034626 0
12.330000 -0.052842 0
12.335000 -0.068330 0
12.340000 -0.081271 0
12.345000 -0.091891 0
12.350000 -0.100440 0
12.355000 -0.107180 0
12.360000 -0.112370 0
12.365000 -0.116255 0
12.370000 -0.119061 0
12.375000 -0.120578 0
12.380000 -0.119652 0
12.385000 -0.118731 0
12.390000 -0.117815 0
12.395000 -0.116901 0
12.400000 -0.115989 0
12.405000 -0.115077 0
12.410000 -0.114159 0
12.415000 -0.113224 0
12.420000 -0.112254 0
12.425000 -0.111218 0
12.430000 -0.110060 0
12.435000 -0.108695 0
12.440000 -0.106987 0
12.445000 -0.104737 0
12.450000 -0.101665 0
12.455000 -0.097394 0
12.460000 -0.091446 0
12.465000 -0.083255 0
12.470000 -0.072200 0
12.475000 -0.057669 0
12.480000 -0.039154 0
12.485000 -0.016369 0
12.490000 0.010625 0
12.495000 0.041307 0
12.500000 0.074625 0
12.505000 0.108993 0
12.510000 0.142381 0
12.515000 0.172491 0
12.520000 0.197010 0
12.525000 0.213900 0
12.530000 0.221678 1
12.535000 0.219630 0
12.540000 0.207918 0
12.545000 0.187562 0
12.550000 0.160288 0
12.555000 0.128279 0
12.560000 0.093835 0
12.565000 0.058911 0
12.570000 0.024400 0
12.575000 -0.010911 0
12.580000 -0.051104 0
12.585000 -0.101792 0
12.590000 -0.164719 0
12.595000 -0.229858 0
12.600000 -0.271454 2
12.605000 -0.253174 0
12.610000 -0.139224 0
12.615000 0.092861 0
12.620000 0.432769 0
12.625000 0.812189 0
12.630000 1.104733 0
12.635000 1.183730 3
12.640000 1.007846 0
12.645000 0.651934 0
12.650000 0.251176 0
12.655000 -0.080482 0
12.660000 -0.287414 0
12.665000 -0.363793 4
12.670000 -0.335990 0
12.675000 -0.248856 0
12.680000 -0.148329 0
12.685000 -0.063847 0
12.690000 -0.003011 0
12.695000 0.040363 0
12.700000 0.075291 0
12.705000 0.107849 0
12.710000 0.140641 0
12.715000 0.174189 0
12.720000 0.208110 0
12.725000 0.241681 0
12.730000 0.274046 0
12.735000 0.304297 0
12.740000 0.331519 0
12.745000 0.354842 0
12.750000 0.373482 0
12.755000 0.386786 0
12.760000 0.394267 0
12.765000 0.395635 5
12.770000 0.390816 0
12.775000 0.379952 0
12.780000 0.363397 0
12.785000 0.341696 0
12.790000 0.315556 0
12.795000 0.285804 0
12.800000 0.253347 0
12.805000 0.219123 0
12.810000 0.184056 0
12.815000 0.149018 0
12.820000 0.114794 0
12.825000 0.082056 0
12.830000 0.051346 0
12.835000 0.023068 0
12.840000 -0.002507 0
12.845000 -0.025239 0
12.850000 -0.045099 0
12.855000 -0.062156 0
12.860000 -0.076556 0
12.865000 -0.088498 0
12.870000 -0.098222 0
12.875000 -0.105983 0
12.880000 -0.112043 0
12.885000 -0.116656 0
12.890000 -0.120061 0
12.895000 -0.122473 0
12.900000 -0.122023 0
12.905000 -0.121090 0
12.910000 -0.120162 0
12.915000 -0.119237 0
12.920000 -0.118316 0
12.925000 -0.117395 0
12.930000 -0.116473 0
12.935000 -0.115540 0
12.940000 -0.114585 0
12.945000 -0.113585 0
12.950000 -0.112499 0
12.955000 -0.111262 0
12.960000 -0.109770 0
12.965000 -0.107864 0
12.970000 -0.105315 0
12.975000 -0.101805 0
12.980000 -0.096918 0
12.985000 -0.090138 0
12.990000 -0.080872 0
12.995000 -0.068494 0
13.000000 -0.052422 0
13.005000 -0.032220 0
13.010000 -0.007726 0
13.015000 0.020828 0
13.020000 0.052717 0
13.025000 0.086675 0
13.030000 0.120926 0
13.035000 0.153311 0
13.040000 0.181495 0
13.045000 0.203241 0
13.050000 0.216699 0
13.055000 0.220670 1
13.060000 0.214777 0
13.065000 0.199528 0
13.070000 0.176241 0
13.075000 0.146853 0
13.080000 0.113637 0
13.085000 0.078820 0
13.090000 0.044047 0
13.095000 0.009529 0
13.100000 -0.027030 0
13.105000 -0.070655 0
13.110000 -0.126329 0
13.115000 -0.192152 0
13.120000 -0.252054 0
13.125000 -0.275153 2
13.130000 -0.223940 0
13.135000 -0.066092 0
13.140000 0.211172 0
13.145000 0.577969 0
13.150000 0.941042 0
13.155000 1.164149 3
13.160000 1.144817 0
13.165000 0.887306 0
13.170000 0.498467 0
13.175000 0.112905 0
13.180000 -0.176380 0
13.185000 -0.334445 0
13.190000 -0.368886 4
13.195000 -0.314173 0
13.200000 -0.217549 0
13.205000 -0.120457 0
13.210000 -0.044295 0
13.215000 0.009480 0
13.220000 0.049052 0
13.225000 0.082707 0
13.230000 0.115206 0
13.235000 0.148272 0
13.240000 0.182026 0
13.245000 0.215937 0
13.250000 0.249230 0
13.255000 0.281031 0
13.260000 0.310429 0
13.265000 0.336525 0
13.270000 0.358477 0
13.275000 0.375540 0
13.280000 0.387113 0
13.285000 0.392772 5
13.290000 0.392291 0
13.295000 0.385660 0
13.300000 0.373085 0
13.305000 0.354977 0
13.310000 0.331929 0
13.315000 0.304682 0
13.320000 0.274085 0
13.325000 0.241053 0
13.330000 0.206519 0
13.335000 0.171392 0
13.340000 0.136517 0
13.345000 0.102646 0
13.350000 0.070414 0
13.355000 0.040323 0
13.360000 0.012741 0
13.365000 -0.012098 0
13.370000 -0.034085 0
13.375000 -0.053218 0
13.380000 -0.069586 0
13.385000 -0.083348 0
13.390000 -0.094715 0
13.395000 -0.103930 0
13.400000 -0.111250 0
13.405000 -0.116934 0
13.410000 -0.121233 0
13.415000 -0.124377 0
13.420000 -0.126119 0
13.425000 -0.125166 0
13.430000 -0.124218 0
13.435000 -0.123274 0
13.440000 -0.122333 0
13.445000 -0.121396 0
13.450000 -0.120459 0
13.455000 -0.119519 0
13.460000 -0.118567 0
13.465000 -0.117590 0
13.470000 -0.116561 0
13.475000 -0.115436 0
13.480000 -0.114145 0
13.485000 -0.112575 0
13.490000 -0.110557 0
13.495000 -0.107848 0
13.500000 -0.104116 0
13.505000 -0.098929 0
13.510000 -0.091758 0
13.515000 -0.082006 0
13.520000 -0.069051 0
13.525000 -0.052330 0
13.530000 -0.031445 0
13.535000 -0.006288 0
13.540000 0.022840 0
13.545000 0.055139 0
13.550000 0.089272 0
13.555000 0.123409 0
13.560000 0.155364 0
13.565000 0.182813 0
13.570000 0.203567 0
13.575000 0.215860 0
13.580000 0.218597 1
13.585000 0.211514 0
13.590000 0.195223 0
13.595000 0.171120 0
13.600000 0.141186 0
13.605000 0.107696 0
13.610000 0.072832 0
13.615000 0.038123 0
13.620000 0.003564 0
13.625000 -0.033423 0
13.630000 -0.078023 0
13.635000 -0.134886 0
13.640000 -0.201069 0
13.645000 -0.259156 0
13.650000 -0.277443 2
13.655000 -0.218613 0
13.660000 -0.051493 0
13.665000 0.234275 0
13.670000 0.604739 0
13.675000 0.962686 0
13.680000 1.172021 3
13.685000 1.136469 0
13.690000 0.867803 0
13.695000 0.475885 0
13.700000 0.093267 0
13.705000 -0.190718 0
13.710000 -0.343687 0
13.715000 -0.374442 4
13.720000 -0.317812 0
13.725000 -0.220713 0
13.730000 -0.123857 0
13.735000 -0.048014 0
13.740000 0.005605 0
13.745000 0.045151 0
13.750000 0.078824 0
13.755000 0.111340 0
13.760000 0.144416 0
13.765000 0.178180 0
13.770000 0.212111 0
13.775000 0.245445 0
13.780000 0.277316 0
13.785000 0.306825 0
13.790000 0.333079 0
13.795000 0.355239 0
13.800000 0.372566 0
13.805000 0.384455 0
13.810000 0.390476 5
13.815000 0.390394 0
13.820000 0.384186 0
13.825000 0.372041 0
13.830000 0.354353 0
13.835000 0.331695 0
13.840000 0.304792 0
13.845000 0.274477 0
13.850000 0.241653 0
13.855000 0.207243 0
13.860000 0.172151 0
13.865000 0.137225 0
13.870000 0.103219 0
13.875000 0.070776 0
13.880000 0.040412 0
13.885000 0.012506 0
13.890000 -0.012694 0
13.895000 -0.035063 0
13.900000 -0.054585 0
13.905000 -0.071337 0
13.910000 -0.085468 0
13.915000 -0.097179 0
13.920000 -0.106709 0
13.925000 -0.114309 0
13.930000 -0.120237 0
13.935000 -0.124744 0
13.940000 -0.128062 0
13.945000 -0.130404 0
13.950000 -0.129910 0
13.955000 -0.128938 0
13.960000 -0.127970 0
13.965000 -0.127007 0
13.970000 -0.126047 0
13.975000 -0.125088 0
13.980000 -0.124127 0
13.985000 -0.123157 0
13.990000 -0.122165 0
13.995000 -0.121130 0
14.000000 -0.120012 0
14.005000 -0.118749 0
14.010000 -0.117241 0
14.015000 -0.115337 0
14.020000 -0.112815 0
14.025000 -0.109371 0
14.030000 -0.104603 0
14.035000 -0.098014 0
14.040000 -0.089026 0
14.045000 -0.077023 0
14.050000 -0.061421 0
14.055000 -0.041767 0
14.060000 -0.017856 0
14.065000 0.010146 0
14.070000 0.041603 0
14.075000 0.075353 0
14.080000 0.109728 0
14.085000 0.142654 0
14.090000 0.171846 0
14.095000 0.195059 0
14.100000 0.210376 0
14.105000 0.216464 1
14.110000 0.212770 0
14.115000 0.199604 0
14.120000 0.178093 0
14.125000 0.150021 0
14.130000 0.117577 0
14.135000 0.083007 0
14.140000 0.048149 0
14.145000 0.013693 0
14.150000 -0.021844 0
14.155000 -0.062753 0
14.160000 -0.114500 0
14.165000 -0.178124 0
14.170000 -0.242607 0
14.175000 -0.281620 2
14.180000 -0.259105 0
14.185000 -0.140196 0
14.190000 0.096286 0
14.195000 0.438603 0
14.200000 0.817770 0
14.205000 1.108630 0
14.210000 1.186920 3
14.215000 1.012510 0
14.220000 0.658415 0
14.225000 0.257066 0
14.230000 -0.078480 0
14.235000 -0.291632 0
14.240000 -0.374870 4
14.245000 -0.352650 0
14.250000 -0.268235 0
14.255000 -0.167302 0
14.260000 -0.080561 0
14.265000 -0.017313 0
14.270000 0.027646 0
14.275000 0.063262 0
14.280000 0.095960 0
14.285000 0.128686 0
14.290000 0.162161 0
14.295000 0.196097 0
14.300000 0.229820 0
14.305000 0.262508 0
14.310000 0.293276 0
14.315000 0.321225 0
14.320000 0.345489 0
14.325000 0.365278 0
14.330000 0.379919 0
14.335000 0.388895 0
14.340000 0.391872 5
14.345000 0.388722 0
14.350000 0.379527 0
14.355000 0.364579 0
14.360000 0.344362 0
14.365000 0.319524 0
14.370000 0.290847 0
14.375000 0.259197 0
14.380000 0.225490 0
14.385000 0.190641 0
14.390000 0.155527 0
14.395000 0.120950 0
14.400000 0.087613 0
14.405000 0.056095 0
14.410000 0.026846 0
14.415000 0.000182 0
14.420000 -0.023708 0
14.425000 -0.044754 0
14.430000 -0.062984 0
14.435000 -0.078511 0
14.440000 -0.091509 0
14.445000 -0.102198 0
14.450000 -0.110822 0
14.455000 -0.117637 0
14.460000 -0.122897 0
14.465000 -0.126845 0
14.470000 -0.129704 0
14.475000 -0.131245 0
14.480000 -0.130267 0
14.485000 -0.129293 0
14.490000 -0.128324 0
14.495000 -0.127358 0
14.500000 -0.126395 0
14.505000 -0.125432 0
14.510000 -0.124464 0
14.515000 -0.123484 0
14.520000 -0.122473 0
14.525000 -0.121406 0
14.530000 -0.120234 0
14.535000 -0.118880 0
14.540000 -0.117228 0
14.545000 -0.115098 0
14.550000 -0.112240 0
14.555000 -0.108311 0
14.560000 -0.102873 0
14.565000 -0.095394 0
14.570000 -0.085277 0
14.575000 -0.071912 0
14.580000 -0.054757 0
14.585000 -0.033442 0
14.590000 -0.007895 0
14.595000 0.021548 0
14.600000 0.054055 0
14.605000 0.088268 0
14.610000 0.122355 0
14.615000 0.154144 0
14.620000 0.181344 0
14.625000 0.201809 0
14.630000 0.213820 0
14.635000 0.216321 1
14.640000 0.209075 0
14.645000 0.192699 0
14.650000 0.168579 0
14.655000 0.138672 0
14.660000 0.105219 0
14.665000 0.070377 0
14.670000 0.035673 0
14.675000 0.001151 0
14.680000 -0.035638 0
14.685000 -0.079744 0
14.690000 -0.135916 0
14.695000 -0.201857 0
14.700000 -0.261331 0
14.705000 -0.283805 2
14.710000 -0.232485 0
14.715000 -0.075675 0
14.720000 0.199462 0
14.725000 0.564740 0
14.730000 0.930535 0
14.735000 1.163638 3
14.740000 1.159236 0
14.745000 0.914663 0
14.750000 0.530573 0
14.755000 0.140415 0
14.760000 -0.159642 0
14.765000 -0.330615 0
14.770000 -0.376730 4
14.775000 -0.329750 0
14.780000 -0.235643 0
14.785000 -0.136879 0
14.790000 -0.057379 0
14.795000 -0.000752 0
14.800000 0.040398 0
14.805000 0.074596 0
14.810000 0.107117 0
14.815000 0.140055 0
14.820000 0.173721 0
14.825000 0.207667 0
14.830000 0.241160 0
14.835000 0.273354 0
14.840000 0.303357 0
14.845000 0.330278 0
14.850000 0.353269 0
14.855000 0.371574 0
14.860000 0.384564 0
14.865000 0.391775 0
14.870000 0.392932 5
14.875000 0.387970 0
14.880000 0.377034 0
14.885000 0.360475 0
14.890000 0.338825 0
14.895000 0.312776 0
14.900000 0.283136 0
14.905000 0.250790 0
14.910000 0.216654 0
14.915000 0.181636 0
14.920000 0.146592 0
14.925000 0.112298 0
14.930000 0.079420 0
14.935000 0.048502 0
14.940000 0.019953 0
14.945000 -0.005947 0
14.950000 -0.029046 0
14.955000 -0.049300 0
14.960000 -0.066766 0
14.965000 -0.081574 0
14.970000 -0.093913 0
14.975000 -0.104011 0
14.980000 -0.112115 0
14.985000 -0.118483 0
14.990000 -0.123365 0
14.995000 -0.126999 0
15.000000 -0.129601 0
15.005000 -0.129149 0
15.010000 -0.128181 0
15.015000 -0.127218 0
15.020000 -0.126258 0
15.025000 -0.125303 0
15.030000 -0.124349 0
15.035000 -0.123394 0
15.040000 -0.122433 0
15.045000 -0.121456 0
15.050000 -0.120442 0
15.055000 -0.119362 0
15.060000 -0.118160 0
15.065000 -0.116752 0
15.070000 -0.115005 0
15.075000 -0.112724 0
15.080000 -0.109637 0
15.085000 -0.105379 0
15.090000 -0.099485 0
15.095000 -0.091406 0
15.100000 -0.080537 0
15.105000 -0.066277 0
15.110000 -0.048117 0
15.115000 -0.025751 0
15.120000 0.000802 0
15.125000 0.031090 0
15.130000 0.064153 0
15.135000 0.098512 0
15.140000 0.132238 0
15.145000 0.163114 0
15.150000 0.188860 0
15.155000 0.207415 0
15.160000 0.217202 0
15.165000 0.217354 1
15.170000 0.207839 0
15.175000 0.189468 0
15.180000 0.163781 0
15.185000 0.132826 0
15.190000 0.098858 0
15.195000 0.063942 0
15.200000 0.029343 0
15.205000 -0.005385 0
15.210000 -0.043353 0
15.215000 -0.089938 0
15.220000 -0.148967 0
15.225000 -0.215448 0
15.230000 -0.269628 0
15.235000 -0.278699 2
15.240000 -0.206073 0
15.245000 -0.022926 0
15.250000 0.276657 0
15.255000 0.651993 0
15.260000 1.000396 0
15.265000 1.187633 3
15.270000 1.127361 0
15.275000 0.842284 0
15.280000 0.446341 0
15.285000 0.068714 0
15.290000 -0.206816 0
15.295000 -0.351698 0
15.300000 -0.376586 4
15.305000 -0.316899 0
15.310000 -0.219084 0
15.315000 -0.122708 0
15.320000 -0.047512 0
15.325000 0.005728 0
15.330000 0.045146 0
15.335000 0.078798 0
15.340000 0.111314 0
15.345000 0.144383 0
15.350000 0.178138 0
15.355000 0.212070 0
15.360000 0.245428 0
15.365000 0.277360 0
15.370000 0.306978 0
15.375000 0.333401 0
15.380000 0.355800 0
15.385000 0.373436 0
15.390000 0.385706 0
15.395000 0.392171 0
15.400000 0.392586 5
15.405000 0.386910 0
15.410000 0.375313 0
15.415000 0.358163 0
15.420000 0.336009 0
15.425000 0.309552 0
15.430000 0.279604 0
15.435000 0.247049 0
15.440000 0.212797 0
15.445000 0.177747 0
15.450000 0.142743 0
15.455000 0.108545 0
15.460000 0.075807 0
15.465000 0.045058 0
15.470000 0.016694 0
15.475000 -0.009015 0
15.480000 -0.031927 0
15.485000 -0.052006 0
15.490000 -0.069311 0
15.495000 -0.083977 0
15.500000 -0.096192 0
15.505000 -0.106186 0
15.510000 -0.114205 0
15.515000 -0.120503 0
15.520000 -0.125330 0
15.525000 -0.128920 0
15.530000 -0.131489 0
15.535000 -0.131024 0
15.540000 -0.130046 0
15.545000 -0.129074 0
15.550000 -0.128105 0
15.555000 -0.127140 0
15.560000 -0.126177 0
15.565000 -0.125213 0
15.570000 -0.124243 0
15.575000 -0.123257 0
15.580000 -0.122235 0
15.585000 -0.121147 0
15.590000 -0.119939 0
15.595000 -0.118528 0
15.600000 -0.116782 0
15.605000 -0.114511 0
15.610000 -0.111446 0
15.615000 -0.107228 0
15.620000 -0.101399 0
15.625000 -0.093418 0
15.630000 -0.082683 0
15.635000 -0.068597 0
15.640000 -0.050649 0
15.645000 -0.028519 0
15.650000 -0.002205 0
15.655000 0.027873 0
15.660000 0.060794 0
15.665000 0.095124 0
15.670000 0.128977 0
15.675000 0.160166 0
15.680000 0.186422 0
15.685000 0.205670 0
15.690000 0.216293 0
15.695000 0.217362 1
15.700000 0.208764 0
15.705000 0.191228 0
15.710000 0.166217 0
15.715000 0.135726 0
15.720000 0.101987 0
15.725000 0.067097 0
15.730000 0.032446 0
15.735000 -0.002152 0
15.740000 -0.039435 0
15.745000 -0.084581 0
15.750000 -0.141957 0
15.755000 -0.208225 0
15.760000 -0.265895 0
15.765000 -0.283774 2
15.770000 -0.225377 0
15.775000 -0.060163 0
15.780000 0.222538 0
15.785000 0.591169 0
15.790000 0.953085 0
15.795000 1.175509 3
15.800000 1.157943 0
15.805000 0.903420 0
15.810000 0.515991 0
15.815000 0.128395 0
15.820000 -0.166053 0
15.825000 -0.330892 0
15.830000 -0.371919 4
15.835000 -0.321813 0
15.840000 -0.226721 0
15.845000 -0.128479 0
15.850000 -0.050020 0
15.855000 0.005755 0
15.860000 0.046445 0
15.865000 0.080476 0
15.870000 0.112967 0
15.875000 0.145912 0
15.880000 0.179576 0
15.885000 0.213496 0
15.890000 0.246935 0
15.895000 0.279044 0
15.900000 0.308932 0
15.905000 0.335709 0
15.910000 0.358534 0
15.915000 0.376654 0
15.920000 0.389445 0
15.925000 0.396450 0
15.930000 0.397401 5
15.935000 0.392239 0
15.940000 0.381116 0
15.945000 0.364385 0
15.950000 0.342586 0
15.955000 0.316411 0
15.960000 0.286670 0
15.965000 0.254247 0
15.970000 0.220059 0
15.975000 0.185010 0
15.980000 0.149954 0
15.985000 0.115663 0
15.990000 0.082800 0
15.995000 0.051905 0
16.000000 0.023384 0
16.005000 -0.002486 0
16.010000 -0.025554 0
16.015000 -0.045781 0
16.020000 -0.063223 0
16.025000 -0.078011 0
16.030000 -0.090335 0
16.035000 -0.100423 0
16.040000 -0.108522 0
16.045000 -0.114889 0
16.050000 -0.119774 0
16.055000 -0.123414 0
16.060000 -0.126026 0
16.065000 -0.125591 0
16.070000 -0.124641 0
16.075000 -0.123695 0
16.080000 -0.122753 0
16.085000 -0.121815 0
16.090000 -0.120878 0
16.095000 -0.119941 0
16.100000 -0.118997 0
16.105000 -0.118036 0
16.110000 -0.117040 0
16.115000 -0.115977 0
16.120000 -0.114792 0
16.125000 -0.113400 0
16.130000 -0.111671 0
16.135000 -0.109408 0
16.140000 -0.106341 0
16.145000 -0.102104 0
16.150000 -0.096236 0
16.155000 -0.088187 0
16.160000 -0.077353 0
16.165000 -0.063135 0
16.170000 -0.045023 0
16.175000 -0.022710 0
16.180000 0.003789 0
16.185000 0.034027 0
16.190000 0.067050 0
16.195000 0.101388 0
16.200000 0.135119 0
16.205000 0.166031 0
16.210000 0.191849 0
16.215000 0.210507 0
16.220000 0.220423 0
16.225000 0.220719 1
16.230000 0.211349 0
16.235000 0.193110 0
16.240000 0.167526 0
16.245000 0.136637 0
16.250000 0.102693 0
16.255000 0.067763 0
16.260000 0.033139 0
16.265000 -0.001578 0
16.270000 -0.039427 0
16.275000 -0.085753 0
16.280000 -0.144492 0
16.285000 -0.210976 0
16.290000 -0.265884 0
16.295000 -0.276704 2
16.300000 -0.206857 0
16.305000 -0.027172 0
16.310000 0.269224 0
16.315000 0.643455 0
16.320000 0.994740 0
16.325000 1.188979 3
16.330000 1.135435 0
16.335000 0.853446 0
16.340000 0.457889 0
16.345000 0.080392 0
16.350000 -0.193805 0
16.355000 -0.336111 0
16.360000 -0.357986 4
16.365000 -0.296038 0
16.370000 -0.197621 0
16.375000 -0.102239 0
16.380000 -0.028730 0
16.385000 0.023059 0
16.390000 0.061645 0
16.395000 0.094984 0
16.400000 0.127453 0
16.405000 0.160550 0
16.410000 0.194301 0
16.415000 0.228144 0
16.420000 0.261295 0
16.425000 0.292879 0
16.430000 0.321989 0
16.435000 0.347732 0
16.440000 0.369276 0
16.445000 0.385891 0
16.450000 0.396991 0
16.455000 0.402166 5
16.460000 0.401209 0
16.465000 0.394124 0
16.470000 0.381131 0
16.475000 0.362650 0
16.480000 0.339283 0
16.485000 0.311774 0
16.490000 0.280974 0
16.495000 0.247797 0
16.500000 0.213169 0
16.505000 0.177993 0
16.510000 0.143107 0
16.515000 0.109255 0
16.520000 0.077062 0
16.525000 0.047023 0
16.530000 0.019499 0
16.535000 -0.005283 0
16.540000 -0.027216 0
16.545000 -0.046304 0
16.550000 -0.062636 0
16.555000 -0.076373 0
16.560000 -0.087726 0
16.565000 -0.096937 0
16.570000 -0.104262 0
16.575000 -0.109958 0
16.580000 -0.114275 0
16.585000 -0.117444 0
16.590000 -0.119215 0
16.595000 -0.118296 0
16.600000 -0.117382 0
16.605000 -0.116472 0
16.610000 -0.115566 0
16.615000 -0.114662 0
16.620000 -0.113759 0
16.625000 -0.112852 0
16.630000 -0.111934 0
16.635000 -0.110990 0
16.640000 -0.109995 0
16.645000 -0.108906 0
16.650000 -0.107652 0
16.655000 -0.106123 0
16.660000 -0.104151 0
16.665000 -0.101498 0
16.670000 -0.097834 0
16.675000 -0.092733 0
16.680000 -0.085674 0
16.685000 -0.076060 0
16.690000 -0.063275 0
16.695000 -0.046753 0
16.700000 -0.026089 0
16.705000 -0.001160 0
16.710000 0.027756 0
16.715000 0.059889 0
16.720000 0.093933 0
16.725000 0.128093 0
16.730000 0.160206 0
16.735000 0.187962 0
16.740000 0.209163 0
16.745000 0.222019 0
16.750000 0.225390 1
16.755000 0.218954 0
16.760000 0.203260 0
16.765000 0.179647 0
16.770000 0.150052 0
16.775000 0.116730 0
16.780000 0.081876 0
16.785000 0.047095 0
16.790000 0.012553 0
16.795000 -0.024064 0
16.800000 -0.067751 0
16.805000 -0.123435 0
16.810000 -0.189249 0
16.815000 -0.249390 0
16.820000 -0.273427 2
16.825000 -0.224254 0
16.830000 -0.069636 0
16.835000 0.203887 0
16.840000 0.568583 0
16.845000 0.934569 0
16.850000 1.167537 3
16.855000 1.161805 0
16.860000 0.915343 0
16.865000 0.530318 0
16.870000 0.141097 0
16.875000 -0.156369 0
16.880000 -0.323911 0
16.885000 -0.366672 4
16.890000 -0.317319 0
16.895000 -0.222385 0
16.900000 -0.124172 0
16.905000 -0.045846 0
16.910000 0.009722 0
16.915000 0.050247 0
16.920000 0.084197 0
16.925000 0.116671 0
16.930000 0.149625 0
16.935000 0.183296 0
16.940000 0.217200 0
16.945000 0.250586 0
16.950000 0.282596 0
16.955000 0.312326 0
16.960000 0.338882 0
16.965000 0.361416 0
16.970000 0.379175 0
16.975000 0.391541 0
16.980000 0.398063 0
16.985000 0.398490 5
16.990000 0.392778 0
16.995000 0.381099 0
17.000000 0.363829 0
17.005000 0.341530 0
17.010000 0.314915 0
17.015000 0.284812 0
17.020000 0.252121 0
17.025000 0.217767 0
17.030000 0.182659 0
17.035000 0.147652 0
17.040000 0.113511 0
17.045000 0.080889 0
17.050000 0.050312 0
17.055000 0.022172 0
17.060000 -0.003273 0
17.065000 -0.025890 0
17.070000 -0.045655 0
17.075000 -0.062639 0
17.080000 -0.076986 0
17.085000 -0.088897 0
17.090000 -0.098606 0
17.095000 -0.106366 0
17.100000 -0.112435 0
17.105000 -0.117065 0
17.110000 -0.120490 0
17.115000 -0.122925 0
17.120000 -0.122476 0
17.125000 -0.121542 0
17.130000 -0.120611 0
17.135000 -0.119684 0
17.140000 -0.118761 0
17.145000 -0.117839 0
17.150000 -0.116914 0
17.155000 -0.115981 0
17.160000 -0.115028 0
17.165000 -0.114031 0
17.170000 -0.112955 0
17.175000 -0.111737 0
17.180000 -0.110280 0
17.185000 -0.108435 0
17.190000 -0.105985 0
17.195000 -0.102628 0
17.200000 -0.097968 0
17.205000 -0.091510 0
17.210000 -0.082677 0
17.215000 -0.070853 0
17.220000 -0.055451 0
17.225000 -0.036008 0
17.230000 -0.012306 0
17.235000 0.015507 0
17.240000 0.046815 0
17.245000 0.080473 0
17.250000 0.114827 0
17.255000 0.147814 0
17.260000 0.177145 0
17.265000 0.200567 0
17.270000 0.216142 0
17.275000 0.222512 1
17.280000 0.219096 0
17.285000 0.206176 0
17.290000 0.184857 0
17.295000 0.156914 0
17.300000 0.124529 0
17.305000 0.089959 0
17.310000 0.055063 0
17.315000 0.020573 0
17.320000 -0.014930 0
17.325000 -0.055685 0
17.330000 -0.107186 0
17.335000 -0.170654 0
17.340000 -0.235355 0
17.345000 -0.275191 2
17.350000 -0.254121 0
17.355000 -0.137093 0
17.360000 0.097471 0
17.365000 0.438525 0
17.370000 0.817909 0
17.375000 1.110757 0
17.380000 1.192021 3
17.385000 1.019200 0
17.390000 0.665085 0
17.395000 0.263901 0
17.400000 -0.070086 0
17.405000 -0.280310 0
17.410000 -0.360009 4
17.415000 -0.334733 0
17.420000 -0.248770 0
17.425000 -0.148093 0
17.430000 -0.062749 0
17.435000 -0.001034 0
17.440000 0.042883 0
17.445000 0.078017 0
17.450000 0.110585 0
17.455000 0.143317 0
17.460000 0.176806 0
17.465000 0.210701 0
17.470000 0.244294 0
17.475000 0.276739 0
17.480000 0.307133 0
17.485000 0.334569 0
17.490000 0.358174 0
17.495000 0.377162 0
17.500000 0.390872 0
17.505000 0.398807 0
17.510000 0.400662 5
17.515000 0.396345 0
17.520000 0.385978 0
17.525000 0.369896 0
17.530000 0.348626 0
17.535000 0.322857 0
17.540000 0.293401 0
17.545000 0.261155 0
17.550000 0.227051 0
17.555000 0.192010 0
17.560000 0.156909 0
17.565000 0.122537 0
17.570000 0.089577 0
17.575000 0.058583 0
17.580000 0.029975 0
17.585000 0.004036 0
17.590000 -0.019078 0
17.595000 -0.039326 0
17.600000 -0.056764 0
17.605000 -0.071529 0
17.610000 -0.083813 0
17.615000 -0.093850 0
17.620000 -0.101892 0
17.625000 -0.108200 0
17.630000 -0.113029 0
17.635000 -0.116618 0
17.640000 -0.119186 0
17.645000 -0.118772 0
17.650000 -0.117856 0
17.655000 -0.116944 0
17.660000 -0.116035 0
17.665000 -0.115130 0
17.670000 -0.114227 0
17.675000 -0.113321 0
17.680000 -0.112408 0
17.685000 -0.111475 0
17.690000 -0.110501 0
17.695000 -0.109452 0
17.700000 -0.108266 0
17.705000 -0.106849 0
17.710000 -0.105055 0
17.715000 -0.102671 0
17.720000 -0.099398 0
17.725000 -0.094844 0
17.730000 -0.088514 0
17.735000 -0.079831 0
17.740000 -0.068175 0
17.745000 -0.052949 0
17.750000 -0.033681 0
17.755000 -0.010137 0
17.760000 0.017546 0
17.765000 0.048761 0
17.770000 0.082371 0
17.775000 0.116717 0
17.780000 0.149724 0
17.785000 0.179088 0
17.790000 0.202534 0
17.795000 0.218108 0
17.800000 0.224439 1
17.805000 0.220944 0
17.810000 0.207912 0
17.815000 0.186469 0
17.820000 0.158408 0
17.825000 0.125936 0
17.830000 0.091324 0
17.835000 0.056426 0
17.840000 0.021928 0
17.845000 -0.013701 0
17.850000 -0.054834 0
17.855000 -0.106963 0
17.860000 -0.170904 0
17.865000 -0.235043 0
17.870000 -0.272284 2
17.875000 -0.246031 0
17.880000 -0.121423 0
17.885000 0.121764 0
17.890000 0.468973 0
17.895000 0.846483 0
17.900000 1.125578 0
17.905000 1.184304 3
17.910000 0.989633 0
17.915000 0.624374 0
17.920000 0.225980 0
17.925000 -0.095262 0
17.930000 -0.288764 0
17.935000 -0.352594 4
17.940000 -0.315969 0
17.945000 -0.225228 0
17.950000 -0.125581 0
17.955000 -0.044073 0
17.960000 0.013960 0
17.965000 0.055669 0
17.970000 0.089947 0
17.975000 0.122395 0
17.980000 0.155249 0
17.985000 0.188844 0
17.990000 0.222715 0
17.995000 0.256105 0
18.000000 0.288136 0
18.005000 0.317887 0
18.010000 0.344440 0
18.015000 0.366927 0
18.020000 0.384577 0
18.025000 0.396761 0
18.030000 0.403022 0
18.035000 0.403111 5
18.040000 0.396993 0
18.045000 0.384859 0
18.050000 0.367107 0
18.055000 0.344327 0
18.060000 0.317262 0
18.065000 0.286768 0
18.070000 0.253773 0
18.075000 0.219223 0
18.080000 0.184043 0
18.085000 0.149095 0
18.090000 0.115145 0
18.095000 0.082838 0
18.100000 0.052687 0
18.105000 0.025064 0
18.110000 0.000207 0
18.115000 -0.021775 0
18.120000 -0.040883 0
18.125000 -0.057209 0
18.130000 -0.070918 0
18.135000 -0.082226 0
18.140000 -0.091380 0
18.145000 -0.098641 0
18.150000 -0.104273 0
18.155000 -0.108528 0
18.160000 -0.111640 0
18.165000 -0.113375 0
18.170000 -0.112485 0
18.175000 -0.111600 0
18.180000 -0.110719 0
18.185000 -0.109841 0
18.190000 -0.108966 0
18.195000 -0.108090 0
18.200000 -0.107210 0
18.205000 -0.106316 0
18.210000 -0.105392 0
18.215000 -0.104409 0
18.220000 -0.103320 0
18.225000 -0.102044 0
18.230000 -0.100457 0
18.235000 -0.098375 0
18.240000 -0.095532 0
18.245000 -0.091568 0
18.250000 -0.086024 0
18.255000 -0.078341 0
18.260000 -0.067901 0
18.265000 -0.054080 0
18.270000 -0.036336 0
18.275000 -0.014333 0
18.280000 0.011939 0
18.285000 0.042038 0
18.290000 0.074994 0
18.295000 0.109293 0
18.300000 0.142947 0
18.305000 0.173665 0
18.310000 0.199100 0
18.315000 0.217139 0
18.320000 0.226191 1
18.325000 0.225422 0
18.330000 0.214878 0
18.335000 0.195482 0
18.340000 0.168898 0
18.345000 0.137290 0
18.350000 0.102982 0
18.355000 0.068014 0
18.360000 0.033443 0
18.365000 -0.001686 0
18.370000 -0.041212 0
18.375000 -0.090809 0
18.380000 -0.152898 0
18.385000 -0.218635 0
18.390000 -0.263272 2
18.395000 -0.250631 0
18.400000 -0.144182 0
18.405000 0.080136 0
18.410000 0.414800 0
18.415000 0.794890 0
18.420000 1.095294 0
18.425000 1.186193 3
18.430000 1.021434 0
18.435000 0.671333 0
18.440000 0.269647 0
18.445000 -0.067640 0
18.450000 -0.282011 0
18.455000 -0.365425 4
18.460000 -0.342676 0
18.465000 -0.257767 0
18.470000 -0.156960 0
18.475000 -0.070953 0
18.480000 -0.008603 0
18.485000 0.035696 0
18.490000 0.070993 0
18.495000 0.103611 0
18.500000 0.136358 0
18.505000 0.169862 0
18.510000 0.203785 0
18.515000 0.237424 0
18.520000 0.269934 0
18.525000 0.300412 0
18.530000 0.327948 0
18.535000 0.351667 0
18.540000 0.370781 0
18.545000 0.384623 0
18.550000 0.392695 0
18.555000 0.394685 5
18.560000 0.390499 0
18.565000 0.380255 0
18.570000 0.364286 0
18.575000 0.343116 0
18.580000 0.317432 0
18.585000 0.288049 0
18.590000 0.255860 0
18.595000 0.221800 0
18.600000 0.186793 0
18.605000 0.151716 0
18.610000 0.117361 0
18.615000 0.084413 0
18.620000 0.053428 0
18.625000 0.024827 0
18.630000 -0.001105 0
18.635000 -0.024210 0
18.640000 -0.044448 0
18.645000 -0.061875 0
18.650000 -0.076625 0
18.655000 -0.088892 0
18.660000 -0.098909 0
18.665000 -0.106930 0
18.670000 -0.113216 0
18.675000 -0.118021 0
18.680000 -0.121585 0
18.685000 -0.124128 0
18.690000 -0.123690 0
18.695000 -0.122749 0
18.700000 -0.121813 0
18.705000 -0.120880 0
18.710000 -0.119951 0
18.715000 -0.119023 0
18.720000 -0.118094 0
18.725000 -0.117156 0
18.730000 -0.116200 0
18.735000 -0.115202 0
18.740000 -0.114128 0
18.745000 -0.112918 0
18.750000 -0.111475 0
18.755000 -0.109653 0
18.760000 -0.107238 0
18.765000 -0.103931 0
18.770000 -0.099336 0
18.775000 -0.092957 0
18.780000 -0.084217 0
18.785000 -0.072493 0
18.790000 -0.057189 0
18.795000 -0.037834 0
18.800000 -0.014200 0
18.805000 0.013570 0
18.810000 0.044860 0
18.815000 0.078521 0
18.820000 0.112884 0
18.825000 0.145865 0
18.830000 0.175156 0
18.835000 0.198481 0
18.840000 0.213892 0
18.845000 0.220034 1
18.850000 0.216339 0
18.855000 0.203118 0
18.860000 0.181515 0
18.865000 0.153341 0
18.870000 0.120809 0
18.875000 0.086191 0
18.880000 0.051323 0
18.885000 0.016847 0
18.890000 -0.018843 0
18.895000 -0.060199 0
18.900000 -0.112685 0
18.905000 -0.176859 0
18.910000 -0.240628 0
18.915000 -0.276437 2
18.920000 -0.247516 0
18.925000 -0.119213 0
18.930000 0.127962 0
18.935000 0.477809 0
18.940000 0.854278 0
18.945000 1.127368 0
18.950000 1.176858 3
18.955000 0.975400 0
18.960000 0.608017 0
18.965000 0.209937 0
18.970000 -0.111126 0
18.975000 -0.305650 0
18.980000 -0.371472 4
18.985000 -0.336871 0
18.990000 -0.247118 0
18.995000 -0.147001 0
19.000000 -0.064086 0
19.005000 -0.004604 0
19.010000 0.038057 0
19.015000 0.072756 0
19.020000 0.105308 0
19.025000 0.138152 0
19.030000 0.171744 0
19.035000 0.205685 0
19.040000 0.239250 0
19.045000 0.271589 0
19.050000 0.301802 0
19.055000 0.328983 0
19.060000 0.352272 0
19.065000 0.370892 0
19.070000 0.384198 0
19.075000 0.391709 0
19.080000 0.393138 5
19.085000 0.388407 0
19.090000 0.377657 0
19.095000 0.361233 0
19.100000 0.339674 0
19.105000 0.313674 0
19.110000 0.284052 0
19.115000 0.251702 0
19.120000 0.217553 0
19.125000 0.182523 0
19.130000 0.147480 0
19.135000 0.113205 0
19.140000 0.080371 0
19.145000 0.049525 0
19.150000 0.021076 0
19.155000 -0.004698 0
19.160000 -0.027649 0
19.165000 -0.047740 0
19.170000 -0.065032 0
19.175000 -0.079661 0
19.180000 -0.091823 0
19.185000 -0.101749 0
19.190000 -0.109695 0
19.195000 -0.115917 0
19.200000 -0.120671 0
19.205000 -0.124193 0
19.210000 -0.126702 0
19.215000 -0.126248 0
19.220000 -0.125294 0
19.225000 -0.124345 0
19.230000 -0.123400 0
19.235000 -0.122458 0
19.240000 -0.121518 0
19.245000 -0.120576 0
19.250000 -0.119626 0
19.255000 -0.118657 0
19.260000 -0.117647 0
19.265000 -0.116562 0
19.270000 -0.115341 0
19.275000 -0.113889 0
19.280000 -0.112062 0
19.285000 -0.109647 0
19.290000 -0.106348 0
19.295000 -0.101774 0
19.300000 -0.095435 0
19.305000 -0.086755 0
19.310000 -0.075117 0
19.315000 -0.059926 0
19.320000 -0.040707 0
19.325000 -0.017224 0
19.330000 0.010398 0
19.335000 0.041567 0
19.340000 0.075162 0
19.345000 0.109545 0
19.350000 0.142660 0
19.355000 0.172215 0
19.360000 0.195938 0
19.365000 0.211866 0
19.370000 0.218609 1
19.375000 0.215551 0
19.380000 0.202945 0
19.385000 0.181878 0
19.390000 0.154112 0
19.395000 0.121832 0
19.400000 0.087308 0
19.405000 0.052422 0
19.410000 0.017946 0
19.415000 -0.017495 0
19.420000 -0.058108 0
19.425000 -0.109421 0
19.430000 -0.172766 0
19.435000 -0.237537 0
19.440000 -0.277661 2
19.445000 -0.256988 0
19.450000 -0.140288 0
19.455000 0.094165 0
19.460000 0.435313 0
19.465000 0.814641 0
19.470000 1.106669 0
19.475000 1.186099 3
19.480000 1.010932 0
19.485000 0.655312 0
19.490000 0.254503 0
19.495000 -0.077333 0
19.500000 -0.284422 0
19.505000 -0.360884 4
19.510000 -0.333100 0
19.515000 -0.245966 0
19.520000 -0.145459 0
19.525000 -0.061025 0
19.530000 -0.000246 0
19.535000 0.043084 0
19.540000 0.077985 0
19.545000 0.110528 0
19.550000 0.143310 0
19.555000 0.176848 0
19.560000 0.210757 0
19.565000 0.244311 0
19.570000 0.276655 0
19.575000 0.306876 0
19.580000 0.334062 0
19.585000 0.357341 0
19.590000 0.375929 0
19.595000 0.389172 0
19.600000 0.396587 0
19.605000 0.397885 5
19.610000 0.392992 0
19.615000 0.382054 0
19.620000 0.365427 0
19.625000 0.343659 0
19.630000 0.317458 0
19.635000 0.287656 0
19.640000 0.255158 0
19.645000 0.220905 0
19.650000 0.185821 0
19.655000 0.150778 0
19.660000 0.116561 0
19.665000 0.083840 0
19.670000 0.053154 0
19.675000 0.024908 0
19.680000 -0.000630 0
19.685000 -0.023322 0
19.690000 -0.043142 0
19.695000 -0.060159 0
19.700000 -0.074521 0
19.705000 -0.086429 0
19.710000 -0.096121 0
19.715000 -0.103855 0
19.720000 -0.109893 0
19.725000 -0.114489 0
19.730000 -0.117881 0
19.735000 -0.120284 0
19.740000 -0.119841 0
19.745000 -0.118920 0
19.750000 -0.118002 0
19.755000 -0.117088 0
19.760000 -0.116178 0
19.765000 -0.115268 0
19.770000 -0.114355 0
19.775000 -0.113433 0
19.780000 -0.112488 0
19.785000 -0.111496 0
19.790000 -0.110417 0
19.795000 -0.109184 0
19.800000 -0.107693 0
19.805000 -0.105782 0
19.810000 -0.103219 0
19.815000 -0.099683 0
19.820000 -0.094755 0
19.825000 -0.087915 0
19.830000 -0.078567 0
19.835000 -0.066086 0
19.840000 -0.049891 0
19.845000 -0.029553 0
19.850000 -0.004923 0
19.855000 0.023755 0
19.860000 0.055733 0
19.865000 0.089725 0
19.870000 0.123939 0
19.875000 0.156201 0
19.880000 0.184174 0
19.885000 0.205626 0
19.890000 0.218728 0
19.895000 0.222306 1
19.900000 0.216019 0
19.905000 0.200410 0
19.910000 0.176826 0
19.915000 0.147226 0
19.920000 0.113892 0
19.925000 0.079042 0
19.930000 0.044282 0
19.935000 0.009735 0
19.940000 -0.027020 0
19.945000 -0.071101 0
19.950000 -0.127362 0
19.955000 -0.193395 0
19.960000 -0.252389 0
19.965000 -0.272895 2
19.970000 -0.217343 0
19.975000 -0.053926 0
19.980000 0.228730 0
19.985000 0.598000 0
19.990000 0.957499 0
19.995000 1.170384 3
20.000000 1.139388 0
20.005000 0.874524 0
20.010000 0.483829 0
20.015000 0.099628 0
20.020000 -0.187731 0
20.025000 -0.344648 0
20.030000 -0.378912 4
20.035000 -0.324541 0
20.040000 -0.228103 0
20.045000 -0.130666 0
20.050000 -0.053781 0
20.055000 0.000702 0
20.060000 0.040721 0
20.065000 0.074557 0
20.070000 0.107084 0
20.075000 0.140129 0
20.080000 0.173875 0
20.085000 0.207828 0
20.090000 0.241235 0
20.095000 0.273239 0
20.100000 0.302945 0
20.105000 0.329464 0
20.110000 0.351957 0
20.115000 0.369677 0
20.120000 0.382013 0
20.125000 0.388522 0
20.130000 0.388955 5
20.135000 0.383270 0
20.140000 0.371639 0
20.145000 0.354436 0
20.150000 0.332218 0
20.155000 0.305691 0
20.160000 0.275679 0
20.165000 0.243073 0
20.170000 0.208792 0
20.175000 0.173742 0
20.180000 0.138770 0
20.185000 0.104641 0
20.190000 0.072006 0
20.195000 0.041394 0
20.200000 0.013196 0
20.205000 -0.012324 0
20.210000 -0.035028 0
20.215000 -0.054890 0
20.220000 -0.071974 0
20.225000 -0.086421 0
20.230000 -0.098426 0
20.235000 -0.108221 0
20.240000 -0.116057 0
20.245000 -0.122190 0
20.250000 -0.126870 0
20.255000 -0.130333 0
20.260000 -0.132792 0
20.265000 -0.132306 0
20.270000 -0.131322 0
20.275000 -0.130343 0
20.280000 -0.129368 0
20.285000 -0.128396 0
20.290000 -0.127426 0
20.295000 -0.126455 0
20.300000 -0.125476 0
20.305000 -0.124479 0
20.310000 -0.123443 0
20.315000 -0.122332 0
20.320000 -0.121091 0
20.325000 -0.119626 0
20.330000 -0.117797 0
20.335000 -0.115399 0
20.340000 -0.112145 0
20.345000 -0.107653 0
20.350000 -0.101447 0
20.355000 -0.092963 0
20.360000 -0.081592 0
20.365000 -0.066740 0
20.370000 -0.047921 0
20.375000 -0.024871 0
20.380000 0.002329 0
20.385000 0.033150 0
20.390000 0.066546 0
20.395000 0.100957 0
20.400000 0.134395 0
20.405000 0.164610 0
20.410000 0.189337 0
20.415000 0.206571 0
20.420000 0.214835 1
20.425000 0.213394 0
20.430000 0.202356 0
20.435000 0.182664 0
20.440000 0.155963 0
20.445000 0.124362 0
20.450000 0.090118 0
20.455000 0.055214 0
20.460000 0.020703 0
20.465000 -0.014263 0
20.470000 -0.053279 0
20.475000 -0.101854 0
20.480000 -0.162874 0
20.485000 -0.229066 0
20.490000 -0.278001 2
20.495000 -0.275373 0
20.500000 -0.185047 0
20.505000 0.019140 0
20.510000 0.336799 0
20.515000 0.716513 0
20.520000 1.045867 0
20.525000 1.192429 3
20.530000 1.086896 0
20.535000 0.772208 0
20.540000 0.370904 0
20.545000 0.006882 0
20.550000 -0.246487 0
20.555000 -0.368858 0
20.560000 -0.376049 4
20.565000 -0.306426 0
20.570000 -0.206479 0
20.575000 -0.112894 0
20.580000 -0.041716 0
20.585000 0.008577 0
20.590000 0.046575 0
20.595000 0.079836 0
20.600000 0.112405 0
20.605000 0.145624 0
20.610000 0.179473 0
20.615000 0.213388 0
20.620000 0.246595 0
20.625000 0.278238 0
20.630000 0.307427 0
20.635000 0.333289 0
20.640000 0.355007 0
20.645000 0.371863 0
20.650000 0.383278 0
20.655000 0.388844 5
20.660000 0.388346 0
20.665000 0.381775 0
20.670000 0.369332 0
20.675000 0.351413 0
20.680000 0.328592 0
20.685000 0.301585 0
20.690000 0.271217 0
20.695000 0.238377 0
20.700000 0.203975 0
20.705000 0.168900 0
20.710000 0.133985 0
20.715000 0.099977 0
20.720000 0.067508 0
20.725000 0.037090 0
20.730000 0.009100 0
20.735000 -0.016212 0
20.740000 -0.038717 0
20.745000 -0.058396 0
20.750000 -0.075318 0
20.755000 -0.089626 0
20.760000 -0.101514 0
20.765000 -0.111215 0
20.770000 -0.118976 0
20.775000 -0.125051 0
20.780000 -0.129687 0
20.785000 -0.133116 0
20.790000 -0.135551 0
20.795000 -0.135049 0
20.800000 -0.134052 0
20.805000 -0.133059 0
20.810000 -0.132070 0
20.815000 -0.131085 0
20.820000 -0.130102 0
20.825000 -0.129118 0
20.830000 -0.128127 0
20.835000 -0.127117 0
20.840000 -0.126070 0
20.845000 -0.124952 0
20.850000 -0.123706 0
20.855000 -0.122244 0
20.860000 -0.120431 0
20.865000 -0.118068 0
20.870000 -0.114877 0
20.875000 -0.110488 0
20.880000 -0.104435 0
20.885000 -0.096169 0
20.890000 -0.085089 0
20.895000 -0.070601 0
20.900000 -0.052210 0
20.905000 -0.029626 0
20.910000 -0.002884 0
20.915000 0.027549 0
20.920000 0.060701 0
20.925000 0.095092 0
20.930000 0.128802 0
20.935000 0.159627 0
20.940000 0.185314 0
20.945000 0.203821 0
20.950000 0.213593 0
20.955000 0.213773 1
20.960000 0.204329 0
20.965000 0.186061 0
20.970000 0.160488 0
20.975000 0.129633 0
20.980000 0.095731 0
20.985000 0.060839 0
20.990000 0.026245 0
20.995000 -0.008416 0
21.000000 -0.046119 0
21.005000 -0.092145 0
21.010000 -0.150514 0
21.015000 -0.216932 0
21.020000 -0.272704 0
21.025000 -0.285896 2
21.030000 -0.220146 0
21.035000 -0.045936 0
21.040000 0.245065 0
21.045000 0.617174 0
21.050000 0.973511 0
21.055000 1.181030 3
21.060000 1.143829 0
21.065000 0.873546 0
21.070000 0.481040 0
21.075000 0.099221 0
21.080000 -0.182941 0
21.085000 -0.333673 0
21.090000 -0.362377 4
21.095000 -0.304413 0
21.100000 -0.206968 0
21.105000 -0.110558 0
21.110000 -0.035460 0
21.115000 0.017533 0
21.120000 0.056720 0
21.125000 0.090243 0
21.130000 0.122712 0
21.135000 0.155769 0
21.140000 0.189504 0
21.145000 0.223376 0
21.150000 0.256613 0
21.155000 0.288343 0
21.160000 0.317659 0
21.165000 0.343669 0
21.170000 0.365533 0
21.175000 0.382515 0
21.180000 0.394018 0
21.185000 0.399619 5
21.190000 0.399096 0
21.195000 0.392439 0
21.200000 0.379853 0
21.205000 0.361747 0
21.210000 0.338707 0
21.215000 0.311471 0
21.220000 0.280884 0
21.225000 0.247854 0
21.230000 0.213309 0
21.235000 0.178155 0
21.240000 0.143235 0
21.245000 0.109299 0
21.250000 0.076982 0
21.255000 0.046788 0
21.260000 0.019086 0
21.265000 -0.005885 0
21.270000 -0.028013 0
21.275000 -0.047293 0
21.280000 -0.063808 0
21.285000 -0.077715 0
21.290000 -0.089223 0
21.295000 -0.098570 0
21.300000 -0.106012 0
21.305000 -0.111809 0
21.310000 -0.116208 0
21.315000 -0.119443 0
21.320000 -0.121256 0
21.325000 -0.120328 0
21.330000 -0.119403 0
21.335000 -0.118483 0
21.340000 -0.117567 0
21.345000 -0.116654 0
21.350000 -0.115741 0
21.355000 -0.114825 0
21.360000 -0.113899 0
21.365000 -0.112948 0
21.370000 -0.111949 0
21.375000 -0.110860 0
21.380000 -0.109612 0
21.385000 -0.108100 0
21.390000 -0.106161 0
21.395000 -0.103561 0
21.400000 -0.099981 0
21.405000 -0.095000 0
21.410000 -0.088104 0
21.415000 -0.078703 0
21.420000 -0.066179 0
21.425000 -0.049958 0
21.430000 -0.029620 0
21.435000 -0.005015 0
21.440000 0.023616 0
21.445000 0.055543 0
21.450000 0.089504 0
21.455000 0.123738 0
21.460000 0.156108 0
21.465000 0.184305 0
21.470000 0.206115 0
21.475000 0.219703 0
21.480000 0.223871 1
21.485000 0.218228 0
21.490000 0.203253 0
21.495000 0.180227 0
21.500000 0.151046 0
21.505000 0.117950 0
21.510000 0.083157 0
21.515000 0.048345 0
21.520000 0.013839 0
21.525000 -0.022439 0
21.530000 -0.065309 0
21.535000 -0.119912 0
21.540000 -0.185255 0
21.545000 -0.246857 0
21.550000 -0.275314 2
21.555000 -0.233661 0
21.560000 -0.088805 0
21.565000 0.175012 0
21.570000 0.534571 0
21.575000 0.905407 0
21.580000 1.154816 0
21.585000 1.171245 3
21.590000 0.942723 0
21.595000 0.564693 0
21.600000 0.170653 0
21.605000 -0.139067 0
21.610000 -0.321237 0
21.615000 -0.377135 4
21.620000 -0.336557 0
21.625000 -0.244736 0
21.630000 -0.145067 0
21.635000 -0.063376 0
21.640000 -0.004832 0
21.645000 0.037391 0
21.650000 0.071970 0
21.655000 0.104518 0
21.660000 0.137378 0
21.665000 0.170979 0
21.670000 0.204923 0
21.675000 0.238499 0
21.680000 0.270870 0
21.685000 0.301150 0
21.690000 0.328448 0
21.695000 0.351914 0
21.700000 0.370780 0
21.705000 0.384404 0
21.710000 0.392301 0
21.715000 0.394177 5
21.720000 0.389940 0
21.725000 0.379711 0
21.730000 0.363814 0
21.735000 0.342760 0
21.740000 0.317220 0
21.745000 0.287987 0
21.750000 0.255935 0
21.755000 0.221978 0
21.760000 0.187023 0
21.765000 0.151932 0
21.770000 0.117491 0
21.775000 0.084380 0
21.780000 0.053158 0
21.785000 0.024253 0
21.790000 -0.002039 0
21.795000 -0.025548 0
21.800000 -0.046218 0
21.805000 -0.064090 0
21.810000 -0.079285 0
21.815000 -0.091983 0
21.820000 -0.102407 0
21.825000 -0.110803 0
21.830000 -0.117425 0
21.835000 -0.122526 0
21.840000 -0.126343 0
21.845000 -0.129098 0
21.850000 -0.130572 0
21.855000 -0.129597 0
21.860000 -0.128626 0
21.865000 -0.127660 0
21.870000 -0.126697 0
21.875000 -0.125737 0
21.880000 -0.124777 0
21.885000 -0.123811 0
21.890000 -0.122832 0
21.895000 -0.121821 0
21.900000 -0.120749 0
21.905000 -0.119569 0
21.910000 -0.118201 0
21.915000 -0.116522 0
21.920000 -0.114352 0
21.925000 -0.111435 0
21.930000 -0.107423 0
21.935000 -0.101874 0
21.940000 -0.094254 0
21.945000 -0.083965 0
21.950000 -0.070404 0
21.955000 -0.053036 0
21.960000 -0.031508 0
21.965000 -0.005764 0
21.970000 0.023839 0
21.975000 0.056447 0
21.980000 0.090689 0
21.985000 0.124724 0
21.990000 0.156384 0
21.995000 0.183389 0
22.000000 0.203613 0
22.005000 0.215364 0
22.010000 0.217613 1
22.015000 0.210144 0
22.020000 0.193591 0
22.025000 0.169346 0
22.030000 0.139363 0
22.035000 0.105875 0
22.040000 0.071024 0
22.045000 0.036318 0
22.050000 0.001791 0
22.055000 -0.035008 0
22.060000 -0.079108 0
22.065000 -0.135240 0
22.070000 -0.201160 0
22.075000 -0.260810 0
22.080000 -0.283907 2
22.085000 -0.233851 0
22.090000 -0.078953 0
22.095000 0.194032 0
22.100000 0.558092 0
22.105000 0.925394 0
22.110000 1.163744 0
22.115000 1.166930 3
22.120000 0.928857 0
22.125000 0.547356 0
22.130000 0.155184 0
22.135000 -0.150015 0
22.140000 -0.327288 0
22.145000 -0.379208 4
22.150000 -0.336205 0
22.155000 -0.243554 0
22.160000 -0.144127 0
22.165000 -0.063032 0
22.170000 -0.004965 0
22.175000 0.037018 0
22.180000 0.071523 0
22.185000 0.104069 0
22.190000 0.136944 0
22.195000 0.170557 0
22.200000 0.204505 0
22.205000 0.238078 0
22.210000 0.270443 0
22.215000 0.300718 0
22.220000 0.328016 0
22.225000 0.351489 0
22.230000 0.370375 0
22.235000 0.384033 0
22.240000 0.391979 0
22.245000 0.393920 5
22.250000 0.389761 0
22.255000 0.379620 0
22.260000 0.363817 0
22.265000 0.342859 0
22.270000 0.317409 0
22.275000 0.288257 0
22.280000 0.256270 0
22.285000 0.222357 0
22.290000 0.187422 0
22.295000 0.152326 0
22.300000 0.117854 0
22.305000 0.084687 0
22.310000 0.053387 0
22.315000 0.024383 0
22.320000 -0.002023 0
22.325000 -0.025658 0
22.330000 -0.046459 0
22.335000 -0.064465 0
22.340000 -0.079791 0
22.345000 -0.092616 0
22.350000 -0.103158 0
22.355000 -0.111661 0
22.360000 -0.118379 0
22.365000 -0.123563 0
22.370000 -0.127452 0
22.375000 -0.130267 0
22.380000 -0.131781 0
22.385000 -0.130800 0
22.390000 -0.129823 0
22.395000 -0.128851 0
22.400000 -0.127883 0
22.405000 -0.126917 0
22.410000 -0.125951 0
22.415000 -0.124981 0
22.420000 -0.123998 0
22.425000 -0.122985 0
22.430000 -0.121916 0
22.435000 -0.120744 0
22.440000 -0.119393 0
22.445000 -0.117747 0
22.450000 -0.115633 0
22.455000 -0.112804 0
22.460000 -0.108924 0
22.465000 -0.103562 0
22.470000 -0.096196 0
22.475000 -0.086237 0
22.480000 -0.073080 0
22.485000 -0.056181 0
22.490000 -0.035159 0
22.495000 -0.009918 0
22.500000 0.019242 0
22.505000 0.051537 0
22.510000 0.085665 0
22.515000 0.119849 0
22.520000 0.151962 0
22.525000 0.179734 0
22.530000 0.201012 0
22.535000 0.214035 0
22.540000 0.217675 1
22.545000 0.211598 0
22.550000 0.196313 0
22.555000 0.173107 0
22.560000 0.143856 0
22.565000 0.110763 0
22.570000 0.076003 0
22.575000 0.041225 0
22.580000 0.006762 0
22.585000 -0.029373 0
22.590000 -0.071862 0
22.595000 -0.125840 0
22.600000 -0.190792 0
22.605000 -0.253344 0
22.610000 -0.285410 2
22.615000 -0.250861 0
22.620000 -0.116437 0
22.625000 0.135647 0
22.630000 0.487698 0
22.635000 0.863764 0
22.640000 1.136457 0
22.645000 1.188480 3
22.650000 0.990484 0
22.655000 0.624000 0
22.660000 0.225831 0
22.665000 -0.094825 0
22.670000 -0.288005 0
22.675000 -0.351899 4
22.680000 -0.315547 0
22.685000 -0.224995 0
22.690000 -0.125267 0
22.695000 -0.043465 0
22.700000 0.014884 0
22.705000 0.056798 0
22.710000 0.091152 0
22.715000 0.123597 0
22.720000 0.156419 0
22.725000 0.189985 0
22.730000 0.223847 0
22.735000 0.257258 0
22.740000 0.289349 0
22.745000 0.319203 0
22.750000 0.345908 0
22.755000 0.368598 0
22.760000 0.386501 0
22.765000 0.398983 0
22.770000 0.405580 0
22.775000 0.406031 5
22.780000 0.400291 0
22.785000 0.388534 0
22.790000 0.371142 0
22.795000 0.348691 0
22.800000 0.321908 0
22.805000 0.291638 0
22.810000 0.258800 0
22.815000 0.224334 0
22.820000 0.189164 0
22.825000 0.154152 0
22.830000 0.120069 0
22.835000 0.087570 0
22.840000 0.057177 0
22.845000 0.029275 0
22.850000 0.004112 0
22.855000 -0.018191 0
22.860000 -0.037623 0
22.865000 -0.054266 0
22.870000 -0.068278 0
22.875000 -0.079868 0
22.880000 -0.089279 0
22.885000 -0.096771 0
22.890000 -0.102604 0
22.895000 -0.107033 0
22.900000 -0.110292 0
22.905000 -0.112131 0
22.910000 -0.111248 0
22.915000 -0.110369 0
22.920000 -0.109494 0
22.925000 -0.108623 0
22.930000 -0.107754 0
22.935000 -0.106885 0
22.940000 -0.106013 0
22.945000 -0.105128 0
22.950000 -0.104218 0
22.955000 -0.103254 0
22.960000 -0.102194 0
22.965000 -0.100965 0
22.970000 -0.099452 0
22.975000 -0.097483 0
22.980000 -0.094810 0
22.985000 -0.091094 0
22.990000 -0.085896 0
22.995000 -0.078679 0
23.000000 -0.068835 0
23.005000 -0.055739 0
23.010000 -0.038828 0
23.015000 -0.017717 0
23.020000 0.007682 0
23.025000 0.037029 0
23.030000 0.069477 0
23.035000 0.103630 0
23.040000 0.137606 0
23.045000 0.169174 0
23.050000 0.195988 0
23.055000 0.215870 0
23.060000 0.227096 0
23.065000 0.228649 1
23.070000 0.220363 0
23.075000 0.202958 0
23.080000 0.177928 0
23.085000 0.147332 0
23.090000 0.113476 0
23.095000 0.078512 0
23.100000 0.043823 0
23.105000 0.009078 0
23.110000 -0.028779 0
23.115000 -0.075214 0
23.120000 -0.134227 0
23.125000 -0.200763 0
23.130000 -0.254467 0
23.135000 -0.261536 2
23.140000 -0.184534 0
23.145000 0.005407 0
23.150000 0.312256 0
23.155000 0.689927 0
23.160000 1.028436 0
23.165000 1.191098 3
23.170000 1.099606 0
23.175000 0.791869 0
23.180000 0.391299 0
23.185000 0.025780 0
23.190000 -0.228362 0
23.195000 -0.349943 0
23.200000 -0.355340 4
23.205000 -0.284165 0
23.210000 -0.183981 0
23.215000 -0.091554 0
23.220000 -0.022108 0
23.225000 0.026755 0
23.230000 0.063965 0
23.235000 0.096953 0
23.240000 0.129503 0
23.245000 0.162760 0
23.250000 0.196599 0
23.255000 0.230397 0
23.260000 0.263343 0
23.265000 0.294547 0
23.270000 0.323099 0
23.275000 0.348110 0
23.280000 0.368760 0
23.285000 0.384343 0
23.290000 0.394301 0
23.295000 0.398263 5
23.300000 0.396062 0
23.305000 0.387748 0
23.310000 0.373584 0
23.315000 0.354034 0
23.320000 0.329734 0
23.325000 0.301458 0
23.330000 0.270080 0
23.335000 0.236522 0
23.340000 0.201714 0
23.345000 0.166551 0
23.350000 0.131856 0
23.355000 0.098350 0
23.360000 0.066633 0
23.365000 0.037171 0
23.370000 0.010294 0
23.375000 -0.013800 0
23.380000 -0.035031 0
23.385000 -0.053424 0
23.390000 -0.069090 0
23.395000 -0.082203 0
23.400000 -0.092985 0
23.405000 -0.101684 0
23.410000 -0.108558 0
23.415000 -0.113866 0
23.420000 -0.117852 0
23.425000 -0.120744 0
23.430000 -0.122318 0
23.435000 -0.121384 0
23.440000 -0.120454 0
23.445000 -0.119529 0
23.450000 -0.118607 0
23.455000 -0.117687 0
23.460000 -0.116768 0
23.465000 -0.115842 0
23.470000 -0.114903 0
23.475000 -0.113931 0
23.480000 -0.112899 0
23.485000 -0.111755 0
23.490000 -0.110419 0
23.495000 -0.108766 0
23.500000 -0.106607 0
23.505000 -0.103678 0
23.510000 -0.099620 0
23.515000 -0.093976 0
23.520000 -0.086194 0
23.525000 -0.075666 0
23.530000 -0.061775 0
23.535000 -0.043992 0
23.540000 -0.021984 0
23.545000 0.004260 0
23.550000 0.034314 0
23.555000 0.067236 0
23.560000 0.101549 0
23.565000 0.135316 0
23.570000 0.166289 0
23.575000 0.192152 0
23.580000 0.210803 0
23.585000 0.220631 0
23.590000 0.220750 1
23.595000 0.211130 0
23.600000 0.192601 0
23.605000 0.166737 0
23.610000 0.135628 0
23.615000 0.101564 0
23.620000 0.066622 0
23.625000 0.032026 0
23.630000 -0.002813 0
23.635000 -0.041241 0
23.640000 -0.088781 0
23.645000 -0.148884 0
23.650000 -0.215309 0
23.655000 -0.266489 0
23.660000 -0.268196 2
23.665000 -0.183569 0
23.670000 0.014819 0
23.675000 0.328362 0
23.680000 0.707429 0
23.685000 1.039820 0
23.690000 1.190880 3
23.695000 1.088021 0
23.700000 0.773993 0
23.705000 0.372691 0
23.710000 0.009512 0
23.715000 -0.241744 0
23.720000 -0.361171 0
23.725000 -0.365457 4
23.730000 -0.293956 0
23.735000 -0.193712 0
23.740000 -0.101107 0
23.745000 -0.031326 0
23.750000 0.017869 0
23.755000 0.055292 0
23.760000 0.088370 0
23.765000 0.120941 0
23.770000 0.154203 0
23.775000 0.188062 0
23.780000 0.221915 0
23.785000 0.254966 0
23.790000 0.286341 0
23.795000 0.315137 0
23.800000 0.340473 0
23.805000 0.361534 0
23.810000 0.377607 0
23.815000 0.388131 0
23.820000 0.392718 5
23.825000 0.391185 0
23.830000 0.383557 0
23.835000 0.370073 0
23.840000 0.351170 0
23.845000 0.327458 0
23.850000 0.299688 0
23.855000 0.268713 0
23.860000 0.235439 0
23.865000 0.200791 0
23.870000 0.165658 0
23.875000 0.130869 0
23.880000 0.097153 0
23.885000 0.065125 0
23.890000 0.035269 0
23.895000 0.007933 0
23.900000 -0.016661 0
23.905000 -0.038414 0
23.910000 -0.057334 0
23.915000 -0.073513 0
23.920000 -0.087113 0
23.925000 -0.098344 0
23.930000 -0.107448 0
23.935000 -0.114680 0
23.940000 -0.120295 0
23.945000 -0.124540 0
23.950000 -0.127644 0
23.955000 -0.129357 0
23.960000 -0.128388 0
23.965000 -0.127423 0
23.970000 -0.126463 0
23.975000 -0.125507 0
23.980000 -0.124554 0
23.985000 -0.123601 0
23.990000 -0.122646 0
23.995000 -0.121679 0
24.000000 -0.120688 0
24.005000 -0.119646 0
24.010000 -0.118513 0
24.015000 -0.117218 0
24.020000 -0.115653 0
24.025000 -0.113656 0
24.030000 -0.110992 0
24.035000 -0.107337 0
24.040000 -0.102275 0
24.045000 -0.095289 0
24.050000 -0.085794 0
24.055000 -0.073173 0
24.060000 -0.056861 0
24.065000 -0.036443 0
24.070000 -0.011771 0
24.075000 0.016910 0
24.080000 0.048873 0
24.085000 0.082864 0
24.090000 0.117135 0
24.095000 0.149565 0
24.100000 0.177859 0
24.105000 0.199816 0
24.110000 0.213605 0
24.115000 0.218021 1
24.120000 0.212657 0
24.125000 0.197968 0
24.130000 0.175203 0
24.135000 0.146233 0
24.140000 0.113277 0
24.145000 0.078546 0
24.150000 0.043744 0
24.155000 0.009280 0
24.160000 -0.026773 0
24.165000 -0.069090 0
24.170000 -0.122897 0
24.175000 -0.187799 0
24.180000 -0.250380 0
24.185000 -0.282250 2
24.190000 -0.246848 0
24.195000 -0.110616 0
24.200000 0.144031 0
24.205000 0.498062 0
24.210000 0.872819 0
24.215000 1.138506 0
24.220000 1.178766 3
24.225000 0.969384 0
24.230000 0.597540 0
24.235000 0.201590 0
24.240000 -0.111553 0
24.245000 -0.295195 0
24.250000 -0.350196 4
24.255000 -0.307671 0
24.260000 -0.214758 0
24.265000 -0.115902 0
24.270000 -0.036396 0
24.275000 0.019884 0
24.280000 0.060621 0
24.285000 0.094561 0
24.290000 0.126985 0
24.295000 0.159904 0
24.300000 0.193544 0
24.305000 0.227397 0
24.310000 0.260687 0
24.315000 0.292525 0
24.320000 0.321984 0
24.325000 0.348147 0
24.330000 0.370149 0
24.335000 0.387231 0
24.340000 0.398777 0
24.345000 0.404352 5
24.350000 0.403726 0
24.355000 0.396893 0
24.360000 0.384068 0
24.365000 0.365676 0
24.370000 0.342327 0
24.375000 0.314784 0
24.380000 0.283919 0
24.385000 0.250667 0
24.390000 0.215978 0
24.395000 0.180775 0
24.400000 0.145911 0
24.405000 0.112141 0
24.410000 0.080095 0
24.415000 0.050268 0
24.420000 0.023016 0
24.425000 -0.001443 0
24.430000 -0.023014 0
24.435000 -0.041715 0
24.440000 -0.057649 0
24.445000 -0.070990 0
24.450000 -0.081961 0
24.455000 -0.090814 0
24.460000 -0.097813 0
24.465000 -0.103219 0
24.470000 -0.107285 0
24.475000 -0.110241 0
24.480000 -0.111870 0
24.485000 -0.110988 0
24.490000 -0.110110 0
24.495000 -0.109236 0
24.500000 -0.108365 0
24.505000 -0.107497 0
24.510000 -0.106627 0
24.515000 -0.105752 0
24.520000 -0.104860 0
24.525000 -0.103935 0
24.530000 -0.102943 0
24.535000 -0.101833 0
24.540000 -0.100516 0
24.545000 -0.098858 0
24.550000 -0.096659 0
24.555000 -0.093637 0
24.560000 -0.089410 0
24.565000 -0.083496 0
24.570000 -0.075321 0
24.575000 -0.064256 0
24.580000 -0.049682 0
24.585000 -0.031089 0
24.590000 -0.008195 0
24.595000 0.018924 0
24.600000 0.049721 0
24.605000 0.083102 0
24.610000 0.117439 0
24.615000 0.150654 0
24.620000 0.180411 0
24.625000 0.204379 0
24.630000 0.220529 0
24.635000 0.227416 1
24.640000 0.224395 0
24.645000 0.211716 0
24.650000 0.190493 0
24.655000 0.162535 0
24.660000 0.130084 0
24.665000 0.095456 0
24.670000 0.060539 0
24.675000 0.026017 0
24.680000 -0.009717 0
24.685000 -0.051186 0
24.690000 -0.103930 0
24.695000 -0.168348 0
24.700000 -0.231734 0
24.705000 -0.265590 2
24.710000 -0.232365 0
24.715000 -0.097255 0
24.720000 0.158047 0
24.725000 0.513482 0
24.730000 0.886475 0
24.735000 1.142385 0
24.740000 1.164816 3
24.745000 0.938764 0
24.750000 0.560859 0
24.755000 0.167429 0
24.760000 -0.139603 0
24.765000 -0.317224 0
24.770000 -0.367934 4
24.775000 -0.323206 0
24.780000 -0.229669 0
24.785000 -0.130844 0
24.790000 -0.051357 0
24.795000 0.005071 0
24.800000 0.046002 0
24.805000 0.080079 0
24.810000 0.112573 0
24.815000 0.145529 0
24.820000 0.179210 0
24.825000 0.213133 0
24.830000 0.246542 0
24.835000 0.278568 0
24.840000 0.308299 0
24.845000 0.334829 0
24.850000 0.357302 0
24.855000 0.374960 0
24.860000 0.387180 0
24.865000 0.393513 0
24.870000 0.393711 5
24.875000 0.387740 0
24.880000 0.375782 0
24.885000 0.358229 0
24.890000 0.335657 0
24.895000 0.308796 0
24.900000 0.278490 0
24.905000 0.245651 0
24.910000 0.211216 0
24.915000 0.176101 0
24.920000 0.141162 0
24.925000 0.107163 0
24.930000 0.074752 0
24.935000 0.044447 0
24.940000 0.016627 0
24.945000 -0.008461 0
24.950000 -0.030696 0
24.955000 -0.050069 0
24.960000 -0.066662 0
24.965000 -0.080631 0
24.970000 -0.092183 0
24.975000 -0.101559 0
24.980000 -0.109019 0
24.985000 -0.114821 0
24.990000 -0.119217 0
24.995000 -0.122442 0
25.000000 -0.124242 0
25.005000 -0.123298 0
25.010000 -0.122359 0
25.015000 -0.121424 0
25.020000 -0.120493 0
25.025000 -0.119565 0
25.030000 -0.118638 0
25.035000 -0.117707 0
25.040000 -0.116766 0
25.045000 -0.115800 0
25.050000 -0.114783 0
25.055000 -0.113674 0
25.060000 -0.112402 0
25.065000 -0.110856 0
25.070000 -0.108871 0
25.075000 -0.106205 0
25.080000 -0.102530 0
25.085000 -0.097415 0
25.090000 -0.090335 0
25.095000 -0.080691 0
25.100000 -0.067859 0
25.105000 -0.051270 0
25.110000 -0.030520 0
25.115000 -0.005488 0
25.120000 0.023538 0
25.125000 0.055766 0
25.130000 0.089868 0
25.135000 0.124020 0
25.140000 0.156032 0
25.145000 0.183574 0
25.150000 0.204444 0
25.155000 0.216860 0
25.160000 0.219715 1
25.165000 0.212731 0
25.170000 0.196514 0
25.175000 0.172456 0
25.180000 0.142544 0
25.185000 0.109058 0
25.190000 0.074189 0
25.195000 0.039473 0
25.200000 0.004906 0
25.205000 -0.032102 0
25.210000 -0.076757 0
25.215000 -0.133706 0
25.220000 -0.199920 0
25.225000 -0.257799 0
25.230000 -0.275432 2
25.235000 -0.215381 0
25.240000 -0.046534 0
25.245000 0.241034 0
25.250000 0.612305 0
25.255000 0.968642 0
25.260000 1.173424 3
25.265000 1.132141 0
25.270000 0.860489 0
25.275000 0.468036 0
25.280000 0.085567 0
25.285000 -0.198876 0
25.290000 -0.353167 0
25.295000 -0.385687 4
25.300000 -0.330503 0
25.305000 -0.233875 0
25.310000 -0.136448 0
25.315000 -0.059523 0
25.320000 -0.004929 0
25.325000 0.035197 0
25.330000 0.069097 0
25.335000 0.101648 0
25.340000 0.134700 0
25.345000 0.168457 0
25.350000 0.202436 0
25.355000 0.235896 0
25.360000 0.267988 0
25.365000 0.297825 0
25.370000 0.324525 0
25.375000 0.347251 0
25.380000 0.365258 0
25.385000 0.377931 0
25.390000 0.384822 0
25.395000 0.385669 5
25.400000 0.380419 0
25.405000 0.369229 0
25.410000 0.352454 0
25.415000 0.330635 0
25.420000 0.304462 0
25.425000 0.274742 0
25.430000 0.242357 0
25.435000 0.208219 0
25.440000 0.173226 0
25.445000 0.138230 0
25.450000 0.103996 0
25.455000 0.071185 0
25.460000 0.040336 0
25.465000 0.011852 0
25.470000 -0.013990 0
25.475000 -0.037038 0
25.480000 -0.057252 0
25.485000 -0.074685 0
25.490000 -0.089469 0
25.495000 -0.101790 0
25.500000 -0.111875 0
25.505000 -0.119969 0
25.510000 -0.126328 0
25.515000 -0.131201 0
25.520000 -0.134825 0
25.525000 -0.137416 0
25.530000 -0.136929 0
25.535000 -0.135922 0
25.540000 -0.134920 0
25.545000 -0.133922 0
25.550000 -0.132928 0
25.555000 -0.131937 0
25.560000 -0.130945 0
25.565000 -0.129947 0
25.570000 -0.128933 0
25.575000 -0.127886 0
25.580000 -0.126775 0
25.585000 -0.125547 0
25.590000 -0.124121 0
25.595000 -0.122369 0
25.600000 -0.120104 0
25.605000 -0.117060 0
25.610000 -0.112882 0
25.615000 -0.107119 0
25.620000 -0.099231 0
25.625000 -0.088620 0
25.630000 -0.074685 0
25.635000 -0.056907 0
25.640000 -0.034956 0
25.645000 -0.008810 0
25.650000 0.021131 0
25.655000 0.053973 0
25.660000 0.088302 0
25.665000 0.122250 0
25.670000 0.153638 0
25.675000 0.180194 0
25.680000 0.199826 0
25.685000 0.210891 0
25.690000 0.212423 1
25.695000 0.204272 0
25.700000 0.187130 0
25.705000 0.162433 0
25.710000 0.132158 0
25.715000 0.098539 0
25.720000 0.063687 0
25.725000 0.029039 0
25.730000 -0.005503 0
25.735000 -0.042557 0
25.740000 -0.087241 0
25.745000 -0.144077 0
25.750000 -0.210194 0
25.755000 -0.268720 0
25.760000 -0.288872 2
25.765000 -0.234141 0
25.770000 -0.073503 0
25.775000 0.204866 0
25.780000 0.571512 0
25.785000 0.936078 0
25.790000 1.166140 3
25.795000 1.158814 0
25.800000 0.911854 0
25.805000 0.526267 0
25.810000 0.137941 0
25.815000 -0.156868 0
25.820000 -0.320642 0
25.825000 -0.359551 4
25.830000 -0.307405 0
25.835000 -0.211513 0
25.840000 -0.114030 0
25.845000 -0.037195 0
25.850000 0.017053 0
25.855000 0.056821 0
25.860000 0.090499 0
25.865000 0.122955 0
25.870000 0.155966 0
25.875000 0.189673 0
25.880000 0.223546 0
25.885000 0.256808 0
25.890000 0.288583 0
25.895000 0.317953 0
25.900000 0.344017 0
25.905000 0.365925 0
25.910000 0.382931 0
25.915000 0.394431 0
25.920000 0.399999 5
25.925000 0.399410 0
25.930000 0.392657 0
25.935000 0.379950 0
25.940000 0.361706 0
25.945000 0.338521 0
25.950000 0.311146 0
25.955000 0.280435 0
25.960000 0.247309 0
25.965000 0.212706 0
25.970000 0.177536 0
25.975000 0.142649 0
25.980000 0.108795 0
25.985000 0.076607 0
25.990000 0.046584 0
25.995000 0.019091 0
26.000000 -0.005645 0
26.005000 -0.027519 0
26.010000 -0.046534 0
26.015000 -0.062784 0
26.020000 -0.076434 0
26.025000 -0.087696 0
26.030000 -0.096817 0
26.035000 -0.104055 0
26.040000 -0.109672 0
26.045000 -0.113916 0
26.050000 -0.117019 0
26.055000 -0.118743 0
26.060000 -0.117826 0
26.065000 -0.116915 0
26.070000 -0.116007 0
26.075000 -0.115103 0
26.080000 -0.114201 0
26.085000 -0.113300 0
26.090000 -0.112394 0
26.095000 -0.111476 0
26.100000 -0.110529 0
26.105000 -0.109527 0
26.110000 -0.108424 0
26.115000 -0.107143 0
26.120000 -0.105566 0
26.125000 -0.103517 0
26.130000 -0.100741 0
26.135000 -0.096893 0
26.140000 -0.091526 0
26.145000 -0.084100 0
26.150000 -0.074006 0
26.155000 -0.060623 0
26.160000 -0.043399 0
26.165000 -0.021967 0
26.170000 0.003734 0
26.175000 0.033337 0
26.180000 0.065962 0
26.185000 0.100189 0
26.190000 0.134118 0
26.195000 0.165514 0
26.200000 0.192043 0
26.205000 0.211553 0
26.210000 0.222358 0
26.215000 0.223482 1
26.220000 0.214802 0
26.225000 0.197071 0
26.230000 0.171807 0
26.235000 0.141073 0
26.240000 0.107171 0
26.245000 0.072226 0
26.250000 0.037577 0
26.255000 0.002828 0
26.260000 -0.035150 0
26.265000 -0.081831 0
26.270000 -0.141082 0
26.275000 -0.207592 0
26.280000 -0.260781 0
26.285000 -0.266826 2
26.290000 -0.188486 0
26.295000 0.002787 0
26.300000 0.310566 0
26.305000 0.688440 0
26.310000 1.026524 0
26.315000 1.188735 3
26.320000 1.097393 0
26.325000 0.790319 0
26.330000 0.389916 0
26.335000 0.023452 0
26.340000 -0.232613 0
26.345000 -0.356569 0
26.350000 -0.364137 4
26.355000 -0.294288 0
26.360000 -0.194291 0
26.365000 -0.101201 0
26.370000 -0.030844 0
26.375000 0.018715 0
26.380000 0.056285 0
26.385000 0.089390 0
26.390000 0.121947 0
26.395000 0.155191 0
26.400000 0.189038 0
26.405000 0.222889 0
26.410000 0.255944 0
26.415000 0.287324 0
26.420000 0.316125 0
26.425000 0.341462 0
26.430000 0.362515 0
26.435000 0.378569 0
26.440000 0.389060 0
26.445000 0.393601 5
26.450000 0.392008 0
26.455000 0.384309 0
26.460000 0.370746 0
26.465000 0.351759 0
26.470000 0.327965 0
26.475000 0.300119 0
26.480000 0.269079 0
26.485000 0.235757 0
26.490000 0.201078 0
26.495000 0.165938 0
26.500000 0.131165 0
26.505000 0.097488 0
26.510000 0.065520 0
26.515000 0.035742 0
26.520000 0.008501 0
26.525000 -0.015987 0
26.530000 -0.037627 0
26.535000 -0.056430 0
26.540000 -0.072492 0
26.545000 -0.085980 0
26.550000 -0.097106 0
26.555000 -0.106113 0
26.560000 -0.113257 0
26.565000 -0.118796 0
26.570000 -0.122976 0
26.575000 -0.126025 0
26.580000 -0.127702 0
26.585000 -0.126741 0
26.590000 -0.125785 0
26.595000 -0.124833 0
26.600000 -0.123885 0
26.605000 -0.122940 0
26.610000 -0.121995 0
26.615000 -0.121046 0
26.620000 -0.120086 0
26.625000 -0.119099 0
26.630000 -0.118059 0
26.635000 -0.116922 0
26.640000 -0.115616 0
26.645000 -0.114027 0
26.650000 -0.111986 0
26.655000 -0.109250 0
26.660000 -0.105486 0
26.665000 -0.100263 0
26.670000 -0.093057 0
26.675000 -0.083273 0
26.680000 -0.070294 0
26.685000 -0.053562 0
26.690000 -0.032683 0
26.695000 -0.007548 0
26.700000 0.021548 0
26.705000 0.053816 0
26.710000 0.087935 0
26.715000 0.122097 0
26.720000 0.154140 0
26.725000 0.181755 0
26.730000 0.202763 0
26.735000 0.215393 0
26.740000 0.218529 1
26.745000 0.211877 0
26.750000 0.196004 0
26.755000 0.172263 0
26.760000 0.142597 0
26.765000 0.109256 0
26.770000 0.074426 0
26.775000 0.039687 0
26.780000 0.005173 0
26.785000 -0.031471 0
26.790000 -0.075254 0
26.795000 -0.131054 0
26.800000 -0.196884 0
26.805000 -0.256827 0
26.810000 -0.280432 2
26.815000 -0.230688 0
26.820000 -0.075513 0
26.825000 0.198394 0
26.830000 0.563224 0
26.835000 0.929242 0
26.840000 1.162492 3
26.845000 1.158672 0
26.850000 0.916526 0
26.855000 0.533950 0
26.860000 0.142170 0
26.865000 -0.162728 0
26.870000 -0.340414 0
26.875000 -0.393332 4
26.880000 -0.351373 0
26.885000 -0.259200 0
26.890000 -0.159449 0
26.895000 -0.077514 0
26.900000 -0.018589 0
26.905000 0.023969 0
26.910000 0.058741 0
26.915000 0.091366 0
26.920000 0.124249 0
26.925000 0.157871 0
26.930000 0.191867 0
26.935000 0.225550 0
26.940000 0.258102 0
26.945000 0.288653 0
26.950000 0.316326 0
26.955000 0.340278 0
26.960000 0.359744 0
26.965000 0.374075 0
26.970000 0.382776 0
26.975000 0.385531 5
26.980000 0.382223 0
26.985000 0.372939 0
26.990000 0.357970 0
26.995000 0.337790 0
27.000000 0.313036 0
27.005000 0.284470 0
27.010000 0.252940 0
27.015000 0.219342 0
27.020000 0.184571 0
27.025000 0.149490 0
27.030000 0.114889 0
27.035000 0.081464 0
27.040000 0.049794 0
27.045000 0.020330 0
27.050000 -0.006604 0
27.055000 -0.030809 0
27.060000 -0.052202 0
27.065000 -0.070798 0
27.070000 -0.086698 0
27.075000 -0.100063 0
27.080000 -0.111101 0
27.085000 -0.120050 0
27.090000 -0.127159 0
27.095000 -0.132678 0
27.100000 -0.136847 0
27.105000 -0.139890 0
27.110000 -0.141549 0
27.115000 -0.140519 0
27.120000 -0.139494 0
27.125000 -0.138474 0
27.130000 -0.137458 0
27.135000 -0.136446 0
27.140000 -0.135434 0
27.145000 -0.134421 0
27.150000 -0.133398 0
27.155000 -0.132352 0
27.160000 -0.131262 0
27.165000 -0.130088 0
27.170000 -0.128767 0
27.175000 -0.127201 0
27.180000 -0.125239 0
27.185000 -0.122668 0
27.190000 -0.119189 0
27.195000 -0.114412 0
27.200000 -0.107855 0
27.205000 -0.098958 0
27.210000 -0.087119 0
27.215000 -0.071766 0
27.220000 -0.052444 0
27.225000 -0.028927 0
27.230000 -0.001333 0
27.235000 0.029774 0
27.240000 0.063329 0
27.245000 0.097770 0
27.250000 0.131128 0
27.255000 0.161193 0
27.260000 0.185750 0
27.265000 0.202849 0
27.270000 0.211055 1
27.275000 0.209653 0
27.280000 0.198750 0
27.285000 0.179260 0
27.290000 0.152780 0
27.295000 0.121367 0
27.300000 0.087233 0
27.305000 0.052350 0
27.310000 0.017836 0
27.315000 -0.016959 0
27.320000 -0.055321 0
27.325000 -0.102601 0
27.330000 -0.162246 0
27.335000 -0.228681 0
27.340000 -0.281840 0
27.345000 -0.289208 2
27.350000 -0.214932 0
27.355000 -0.030948 0
27.360000 0.268383 0
27.365000 0.643377 0
27.370000 0.993977 0
27.375000 1.188295 3
27.380000 1.136653 0
27.385000 0.855572 0
27.390000 0.460145 0
27.395000 0.082648 0
27.400000 -0.191267 0
27.405000 -0.332974 0
27.410000 -0.354127 4
27.415000 -0.291634 0
27.420000 -0.193079 0
27.425000 -0.097951 0
27.430000 -0.024859 0
27.435000 0.026578 0
27.440000 0.064967 0
27.445000 0.098237 0
27.450000 0.130701 0
27.455000 0.163809 0
27.460000 0.197562 0
27.465000 0.231385 0
27.470000 0.264485 0
27.475000 0.295981 0
27.480000 0.324961 0
27.485000 0.350531 0
27.490000 0.371857 0
27.495000 0.388211 0
27.500000 0.399013 0
27.505000 0.403861 5
27.510000 0.402557 0
27.515000 0.395116 0
27.520000 0.381773 0
27.525000 0.362961 0
27.530000 0.339293 0
27.535000 0.311528 0
27.540000 0.280525 0
27.545000 0.247202 0
27.550000 0.212494 0
27.555000 0.177302 0
27.560000 0.142462 0
27.565000 0.108713 0
27.570000 0.076672 0
27.575000 0.046826 0
27.580000 0.019526 0
27.585000 -0.005011 0
27.590000 -0.026689 0
27.595000 -0.045520 0
27.600000 -0.061601 0
27.605000 -0.075101 0
27.610000 -0.086235 0
27.615000 -0.095247 0
27.620000 -0.102397 0
27.625000 -0.107942 0
27.630000 -0.112132 0
27.635000 -0.115195 0
27.640000 -0.116895 0
27.645000 -0.115988 0
27.650000 -0.115085 0
27.655000 -0.114187 0
27.660000 -0.113292 0
27.665000 -0.112399 0
27.670000 -0.111507 0
27.675000 -0.110609 0
27.680000 -0.109699 0
27.685000 -0.108761 0
27.690000 -0.107766 0
27.695000 -0.106669 0
27.700000 -0.105393 0
27.705000 -0.103820 0
27.710000 -0.101773 0
27.715000 -0.098998 0
27.720000 -0.095151 0
27.725000 -0.089788 0
27.730000 -0.082369 0
27.735000 -0.072290 0
27.740000 -0.058932 0
27.745000 -0.041746 0
27.750000 -0.020365 0
27.755000 0.005276 0
27.760000 0.034817 0
27.765000 0.067391 0
27.770000 0.101594 0
27.775000 0.135542 0
27.780000 0.167019 0
27.785000 0.193701 0
27.790000 0.213437 0
27.795000 0.224533 0
27.800000 0.225992 1
27.805000 0.217662 0
27.810000 0.200258 0
27.815000 0.175264 0
27.820000 0.144717 0
27.825000 0.110904 0
27.830000 0.075959 0
27.835000 0.041275 0
27.840000 0.006577 0
27.845000 -0.031084 0
27.850000 -0.077086 0
27.855000 -0.135571 0
27.860000 -0.202068 0
27.865000 -0.257145 0
27.870000 -0.267790 2
27.875000 -0.196796 0
27.880000 -0.014668 0
27.885000 0.284840 0
27.890000 0.660350 0
27.895000 1.007106 0
27.900000 1.188937 3
27.905000 1.119821 0
27.910000 0.826772 0
27.915000 0.428720 0
27.920000 0.056178 0
27.925000 -0.209260 0
27.930000 -0.342246 0
27.935000 -0.356508 4
27.940000 -0.290144 0
27.945000 -0.190772 0
27.950000 -0.096739 0
27.955000 -0.025196 0
27.960000 0.025131 0
27.965000 0.063007 0
27.970000 0.096154 0
27.975000 0.128659 0
27.980000 0.161837 0
27.985000 0.195636 0
27.990000 0.229458 0
27.995000 0.262504 0
28.000000 0.293889 0
28.005000 0.322702 0
28.010000 0.348051 0
28.015000 0.369108 0
28.020000 0.385155 0
28.025000 0.395621 0
28.030000 0.400116 5
28.035000 0.398454 0
28.040000 0.390666 0
28.045000 0.376997 0
28.050000 0.357893 0
28.055000 0.333977 0
28.060000 0.306012 0
28.065000 0.274864 0
28.070000 0.241453 0
28.075000 0.206710 0
28.080000 0.171535 0
28.085000 0.136758 0
28.090000 0.103111 0
28.095000 0.071204 0
28.100000 0.041515 0
28.105000 0.014387 0
28.110000 -0.009971 0
28.115000 -0.031468 0
28.120000 -0.050122 0
28.125000 -0.066035 0
28.130000 -0.079379 0
28.135000 -0.090369 0
28.140000 -0.099254 0
28.145000 -0.106291 0
28.150000 -0.111738 0
28.155000 -0.115842 0
28.160000 -0.118832 0
28.165000 -0.120477 0
28.170000 -0.119552 0
28.175000 -0.118632 0
28.180000 -0.117716 0
28.185000 -0.116803 0
28.190000 -0.115893 0
28.195000 -0.114982 0
28.200000 -0.114067 0
28.205000 -0.113139 0
28.210000 -0.112181 0
28.215000 -0.111164 0
28.220000 -0.110043 0
28.225000 -0.108738 0
28.230000 -0.107129 0
28.235000 -0.105035 0
28.240000 -0.102199 0
28.245000 -0.098270 0
28.250000 -0.092801 0
28.255000 -0.085249 0
28.260000 -0.075006 0
28.265000 -0.061456 0
28.270000 -0.044056 0
28.275000 -0.022450 0
28.280000 0.003407 0
28.285000 0.033134 0
28.290000 0.065837 0
28.295000 0.100089 0
28.300000 0.133988 0
28.305000 0.165307 0
28.310000 0.191726 0
28.315000 0.211109 0
28.320000 0.221791 0
28.325000 0.222813 1
28.330000 0.214061 0
28.335000 0.196290 0
28.340000 0.171014 0
28.345000 0.140286 0
28.350000 0.106394 0
28.355000 0.071455 0
28.360000 0.036807 0
28.365000 0.002078 0
28.370000 -0.035809 0
28.375000 -0.082284 0
28.380000 -0.141284 0
28.385000 -0.207791 0
28.390000 -0.261706 0
