0.000000 1.167882 3
0.005000 1.046685 0
0.010000 0.744141 0
0.015000 0.367728 0
0.020000 0.023742 0
0.025000 -0.223370 0
0.030000 -0.353461 0
0.035000 -0.377270 4
0.040000 -0.325407 0
0.045000 -0.237662 0
0.050000 -0.148861 0
0.055000 -0.077971 0
0.060000 -0.027565 0
0.065000 0.008718 0
0.070000 0.038390 0
0.075000 0.066427 0
0.080000 0.095093 0
0.085000 0.125006 0
0.090000 0.156019 0
0.095000 0.187674 0
0.100000 0.219366 0
0.105000 0.250407 0
0.110000 0.280057 0
0.115000 0.307556 0
0.120000 0.332154 0
0.125000 0.353142 0
0.130000 0.369890 0
0.135000 0.381876 0
0.140000 0.388712 0
0.145000 0.390164 5
0.150000 0.386167 0
0.155000 0.376826 0
0.160000 0.362413 0
0.165000 0.343354 0
0.170000 0.320205 0
0.175000 0.293628 0
0.180000 0.264357 0
0.185000 0.233165 0
0.190000 0.200829 0
0.195000 0.168102 0
0.200000 0.135681 0
0.205000 0.104187 0
0.210000 0.074146 0
0.215000 0.045983 0
0.220000 0.020011 0
0.225000 -0.003558 0
0.230000 -0.024616 0
0.235000 -0.043140 0
0.240000 -0.059185 0
0.245000 -0.072865 0
0.250000 -0.084343 0
0.255000 -0.093809 0
0.260000 -0.101477 0
0.265000 -0.107562 0
0.270000 -0.112279 0
0.275000 -0.115835 0
0.280000 -0.118417 0
0.285000 -0.120198 0
0.290000 -0.121328 0
0.295000 -0.120594 0
0.300000 -0.119548 0
0.305000 -0.118508 0
0.310000 -0.117472 0
0.315000 -0.116442 0
0.320000 -0.115416 0
0.325000 -0.114394 0
0.330000 -0.113375 0
0.335000 -0.112356 0
0.340000 -0.111333 0
0.345000 -0.110298 0
0.350000 -0.109236 0
0.355000 -0.108123 0
0.360000 -0.106920 0
0.365000 -0.105564 0
0.370000 -0.103958 0
0.375000 -0.101961 0
0.380000 -0.099373 0
0.385000 -0.095924 0
0.390000 -0.091267 0
0.395000 -0.084977 0
0.400000 -0.076566 0
0.405000 -0.065515 0
0.410000 -0.051327 0
0.415000 -0.033598 0
0.420000 -0.012111 0
0.425000 0.013077 0
0.430000 0.041549 0
0.435000 0.072474 0
0.440000 0.104599 0
0.445000 0.136308 0
0.450000 0.165733 0
0.455000 0.190934 0
0.460000 0.210102 0
0.465000 0.221779 0
0.470000 0.225040 1
0.475000 0.219613 0
0.480000 0.205921 0
0.485000 0.185024 0
0.490000 0.158489 0
0.495000 0.128186 0
0.500000 0.096051 0
0.505000 0.063796 0
0.510000 0.032482 0
0.515000 0.001885 0
0.520000 -0.030273 0
0.525000 -0.068412 0
0.530000 -0.117029 0
0.535000 -0.175707 0
0.540000 -0.233391 0
0.545000 -0.266757 2
0.550000 -0.245136 0
0.555000 -0.138998 0
0.560000 0.070649 0
0.565000 0.378054 0
0.570000 0.733450 0
0.575000 1.038170 0
0.580000 1.179566 3
0.585000 1.094041 0
0.590000 0.812570 0
0.595000 0.439396 0
0.600000 0.086652 0
0.605000 -0.173534 0
0.610000 -0.315921 0
0.615000 -0.348759 4
0.620000 -0.301829 0
0.625000 -0.215517 0
0.630000 -0.126222 0
0.635000 -0.054432 0
0.640000 -0.003474 0
0.645000 0.032955 0
0.650000 0.062563 0
0.655000 0.090481 0
0.660000 0.119038 0
0.665000 0.148857 0
0.670000 0.179783 0
0.675000 0.211339 0
0.680000 0.242904 0
0.685000 0.273770 0
0.690000 0.303180 0
0.695000 0.330355 0
0.700000 0.354529 0
0.705000 0.374986 0
0.710000 0.391091 0
0.715000 0.402325 0
0.720000 0.408310 0
0.725000 0.408831 5
0.730000 0.403848 0
0.735000 0.393497 0
0.740000 0.378085 0
0.745000 0.358072 0
0.750000 0.334052 0
0.755000 0.306720 0
0.760000 0.276836 0
0.765000 0.245196 0
0.770000 0.212592 0
0.775000 0.179779 0
0.780000 0.147454 0
0.785000 0.116224 0
0.790000 0.086600 0
0.795000 0.058982 0
0.800000 0.033657 0
0.805000 0.010807 0
0.810000 -0.009487 0
0.815000 -0.027230 0
0.820000 -0.042503 0
0.825000 -0.055441 0
0.830000 -0.066224 0
0.835000 -0.075055 0
0.840000 -0.082156 0
0.845000 -0.087748 0
0.850000 -0.092048 0
0.855000 -0.095257 0
0.860000 -0.097564 0
0.865000 -0.099131 0
0.870000 -0.099828 0
0.875000 -0.098886 0
0.880000 -0.097948 0
0.885000 -0.097015 0
0.890000 -0.096087 0
0.895000 -0.095163 0
0.900000 -0.094243 0
0.905000 -0.093325 0
0.910000 -0.092409 0
0.915000 -0.091490 0
0.920000 -0.090562 0
0.925000 -0.089613 0
0.930000 -0.088624 0
0.935000 -0.087560 0
0.940000 -0.086368 0
0.945000 -0.084962 0
0.950000 -0.083215 0
0.955000 -0.080946 0
0.960000 -0.077903 0
0.965000 -0.073756 0
0.970000 -0.068095 0
0.975000 -0.060437 0
0.980000 -0.050256 0
0.985000 -0.037032 0
0.990000 -0.020318 0
0.995000 0.000166 0
1.000000 0.024438 0
1.005000 0.052161 0
1.010000 0.082580 0
1.015000 0.114505 0
1.020000 0.146345 0
1.025000 0.176229 0
1.030000 0.202171 0
1.035000 0.222284 0
1.040000 0.235010 0
1.045000 0.239318 1
1.050000 0.234838 0
1.055000 0.221919 0
1.060000 0.201580 0
1.065000 0.175381 0
1.070000 0.145215 0
1.075000 0.113067 0
1.080000 0.080708 0
1.085000 0.049273 0
1.090000 0.018594 0
1.095000 -0.013590 0
1.100000 -0.051764 0
1.105000 -0.100526 0
1.110000 -0.159388 0
1.115000 -0.216831 0
1.120000 -0.248718 2
1.125000 -0.223588 0
1.130000 -0.111563 0
1.135000 0.105692 0
1.140000 0.419634 0
1.145000 0.774942 0
1.150000 1.067222 0
1.155000 1.183729 3
1.160000 1.071536 0
1.165000 0.773709 0
1.170000 0.397762 0
1.175000 0.052023 0
1.180000 -0.197157 0
1.185000 -0.328692 0
1.190000 -0.353145 4
1.195000 -0.301393 0
1.200000 -0.213677 0
1.205000 -0.125144 0
1.210000 -0.054761 0
1.215000 -0.004898 0
1.220000 0.030980 0
1.225000 0.060422 0
1.230000 0.088351 0
1.235000 0.116971 0
1.240000 0.146849 0
1.245000 0.177816 0
1.250000 0.209394 0
1.255000 0.240966 0
1.260000 0.271829 0
1.265000 0.301234 0
1.270000 0.328409 0
1.275000 0.352598 0
1.280000 0.373091 0
1.285000 0.389259 0
1.290000 0.400587 0
1.295000 0.406700 0
1.300000 0.407380 5
1.305000 0.402582 0
1.310000 0.392436 0
1.315000 0.377241 0
1.320000 0.357445 0
1.325000 0.333631 0
1.330000 0.306481 0
1.335000 0.276746 0
1.340000 0.245212 0
1.345000 0.212664 0
1.350000 0.179854 0
1.355000 0.147476 0
1.360000 0.116140 0
1.365000 0.086359 0
1.370000 0.058541 0
1.375000 0.032980 0
1.380000 0.009868 0
1.385000 -0.010705 0
1.390000 -0.028736 0
1.395000 -0.044295 0
1.400000 -0.057512 0
1.405000 -0.068558 0
1.410000 -0.077634 0
1.415000 -0.084956 0
1.420000 -0.090744 0
1.425000 -0.095214 0
1.430000 -0.098568 0
1.435000 -0.100995 0
1.440000 -0.102660 0
1.445000 -0.103420 0
1.450000 -0.102460 0
1.455000 -0.101504 0
1.460000 -0.100554 0
1.465000 -0.099608 0
1.470000 -0.098666 0
1.475000 -0.097729 0
1.480000 -0.096795 0
1.485000 -0.095862 0
1.490000 -0.094928 0
1.495000 -0.093987 0
1.500000 -0.093028 0
1.505000 -0.092035 0
1.510000 -0.090978 0
1.515000 -0.089809 0
1.520000 -0.088452 0
1.525000 -0.086794 0
1.530000 -0.084670 0
1.535000 -0.081851 0
1.540000 -0.078032 0
1.545000 -0.072829 0
1.550000 -0.065782 0
1.555000 -0.056379 0
1.560000 -0.044097 0
1.565000 -0.028463 0
1.570000 -0.009142 0
1.575000 0.013975 0
1.580000 0.040674 0
1.585000 0.070343 0
1.590000 0.101941 0
1.595000 0.134016 0
1.600000 0.164793 0
1.605000 0.192321 0
1.610000 0.214675 0
1.615000 0.230174 0
1.620000 0.237594 1
1.625000 0.236321 0
1.630000 0.226444 0
1.635000 0.208736 0
1.640000 0.184561 0
1.645000 0.155694 0
1.650000 0.124098 0
1.655000 0.091648 0
1.660000 0.059781 0
1.665000 0.028944 0
1.670000 -0.002176 0
1.675000 -0.037203 0
1.680000 -0.081102 0
1.685000 -0.136298 0
1.690000 -0.196617 0
1.695000 -0.243305 0
1.700000 -0.247393 2
1.705000 -0.177480 0
1.710000 -0.008884 0
1.715000 0.264419 0
1.720000 0.610994 0
1.725000 0.947865 0
1.730000 1.159464 3
1.735000 1.157213 0
1.740000 0.937710 0
1.745000 0.584466 0
1.750000 0.212692 0
1.755000 -0.088686 0
1.760000 -0.278089 0
1.765000 -0.352340 4
1.770000 -0.333442 0
1.775000 -0.258489 0
1.780000 -0.166832 0
1.785000 -0.086163 0
1.790000 -0.026476 0
1.795000 0.015428 0
1.800000 0.047311 0
1.805000 0.075579 0
1.810000 0.103691 0
1.815000 0.132904 0
1.820000 0.163348 0
1.825000 0.194672 0
1.830000 0.226322 0
1.835000 0.257637 0
1.840000 0.287893 0
1.845000 0.316329 0
1.850000 0.342180 0
1.855000 0.364711 0
1.860000 0.383247 0
1.865000 0.397213 0
1.870000 0.406157 0
1.875000 0.409776 5
1.880000 0.407933 0
1.885000 0.400661 0
1.890000 0.388169 0
1.895000 0.370823 0
1.900000 0.349135 0
1.905000 0.323732 0
1.910000 0.295328 0
1.915000 0.264691 0
1.920000 0.232606 0
1.925000 0.199846 0
1.930000 0.167136 0
1.935000 0.135132 0
1.940000 0.104404 0
1.945000 0.075416 0
1.950000 0.048525 0
1.955000 0.023982 0
1.960000 0.001931 0
1.965000 -0.017574 0
1.970000 -0.034564 0
1.975000 -0.049135 0
1.980000 -0.061436 0
1.985000 -0.071650 0
1.990000 -0.079985 0
1.995000 -0.086661 0
2.000000 -0.091894 0
2.005000 -0.095895 0
2.010000 -0.098860 0
2.015000 -0.100968 0
2.020000 -0.102378 0
2.025000 -0.101766 0
2.030000 -0.100814 0
2.035000 -0.099867 0
2.040000 -0.098925 0
2.045000 -0.097987 0
2.050000 -0.097053 0
2.055000 -0.096123 0
2.060000 -0.095196 0
2.065000 -0.094269 0
2.070000 -0.093340 0
2.075000 -0.092400 0
2.080000 -0.091437 0
2.085000 -0.090431 0
2.090000 -0.089346 0
2.095000 -0.088125 0
2.100000 -0.086681 0
2.105000 -0.084884 0
2.110000 -0.082549 0
2.115000 -0.079421 0
2.120000 -0.075169 0
2.125000 -0.069383 0
2.130000 -0.061583 0
2.135000 -0.051250 0
2.140000 -0.037873 0
2.145000 -0.021018 0
2.150000 -0.000415 0
2.155000 0.023942 0
2.160000 0.051716 0
2.165000 0.082155 0
2.170000 0.114082 0
2.175000 0.145932 0
2.180000 0.175861 0
2.185000 0.201912 0
2.190000 0.222222 0
2.195000 0.235243 0
2.200000 0.239936 1
2.205000 0.235906 0
2.210000 0.223462 0
2.215000 0.203572 0
2.220000 0.177742 0
2.225000 0.147823 0
2.230000 0.115774 0
2.235000 0.083373 0
2.240000 0.051824 0
2.245000 0.021134 0
2.250000 -0.010665 0
2.255000 -0.047787 0
2.260000 -0.094980 0
2.265000 -0.152813 0
2.270000 -0.211713 0
2.275000 -0.249552 2
2.280000 -0.235891 0
2.285000 -0.140405 0
2.290000 0.057770 0
2.295000 0.356412 0
2.300000 0.710677 0
2.305000 1.025275 0
2.310000 1.185458 3
2.315000 1.120849 0
2.320000 0.853113 0
2.325000 0.483036 0
2.330000 0.125144 0
2.335000 -0.143933 0
2.340000 -0.295462 0
2.345000 -0.335636 4
2.350000 -0.293148 0
2.355000 -0.208306 0
2.360000 -0.118451 0
2.365000 -0.045396 0
2.370000 0.006604 0
2.375000 0.043569 0
2.380000 0.073322 0
2.385000 0.101189 0
2.390000 0.129633 0
2.395000 0.159337 0
2.400000 0.190166 0
2.405000 0.221651 0
2.410000 0.253170 0
2.415000 0.284015 0
2.420000 0.313423 0
2.425000 0.340612 0
2.430000 0.364812 0
2.435000 0.385299 0
2.440000 0.401434 0
2.445000 0.412690 0
2.450000 0.418688 0
2.455000 0.419207 5
2.460000 0.414205 0
2.465000 0.403819 0
2.470000 0.388356 0
2.475000 0.368281 0
2.480000 0.344189 0
2.485000 0.316780 0
2.490000 0.286820 0
2.495000 0.255108 0
2.500000 0.222442 0
2.505000 0.189580 0
2.510000 0.157221 0
2.515000 0.125975 0
2.520000 0.096351 0
2.525000 0.068749 0
2.530000 0.043456 0
2.535000 0.020648 0
2.540000 0.000406 0
2.545000 -0.017280 0
2.550000 -0.032494 0
2.555000 -0.045374 0
2.560000 -0.056101 0
2.565000 -0.064884 0
2.570000 -0.071944 0
2.575000 -0.077503 0
2.580000 -0.081779 0
2.585000 -0.084975 0
2.590000 -0.087276 0
2.595000 -0.088848 0
2.600000 -0.089562 0
2.605000 -0.088671 0
2.610000 -0.087785 0
2.615000 -0.086903 0
2.620000 -0.086025 0
2.625000 -0.085151 0
2.630000 -0.084280 0
2.635000 -0.083412 0
2.640000 -0.082545 0
2.645000 -0.081674 0
2.650000 -0.080793 0
2.655000 -0.079890 0
2.660000 -0.078942 0
2.665000 -0.077914 0
2.670000 -0.076749 0
2.675000 -0.075357 0
2.680000 -0.073604 0
2.685000 -0.071299 0
2.690000 -0.068180 0
2.695000 -0.063905 0
2.700000 -0.058049 0
2.705000 -0.050121 0
2.710000 -0.039587 0
2.715000 -0.025930 0
2.720000 -0.008720 0
2.725000 0.012294 0
2.730000 0.037080 0
2.735000 0.065240 0
2.740000 0.095946 0
2.745000 0.127932 0
2.750000 0.159544 0
2.755000 0.188867 0
2.760000 0.213903 0
2.765000 0.232798 0
2.770000 0.244060 0
2.775000 0.246763 1
2.780000 0.240663 0
2.785000 0.226239 0
2.790000 0.204631 0
2.795000 0.177484 0
2.800000 0.146744 0
2.805000 0.114389 0
2.810000 0.082116 0
2.815000 0.050864 0
2.820000 0.020101 0
2.825000 -0.012947 0
2.830000 -0.053091 0
2.835000 -0.104396 0
2.840000 -0.164425 0
2.845000 -0.218730 0
2.850000 -0.240748 2
2.855000 -0.198387 0
2.860000 -0.063260 0
2.865000 0.178542 0
2.870000 0.509157 0
2.875000 0.860214 0
2.880000 1.119312 0
2.885000 1.181350 3
2.890000 1.016519 0
2.895000 0.689651 0
2.900000 0.312098 0
2.905000 -0.016937 0
2.910000 -0.242654 0
2.915000 -0.351867 0
2.920000 -0.359539 4
2.925000 -0.298553 0
2.930000 -0.208570 0
2.935000 -0.121987 0
2.940000 -0.054652 0
2.945000 -0.007074 0
2.950000 0.027677 0
2.955000 0.056792 0
2.960000 0.084759 0
2.965000 0.113517 0
2.970000 0.143527 0
2.975000 0.174583 0
2.980000 0.206207 0
2.985000 0.237784 0
2.990000 0.268625 0
2.995000 0.297992 0
3.000000 0.325131 0
3.005000 0.349301 0
3.010000 0.369805 0
3.015000 0.386030 0
3.020000 0.397469 0
3.025000 0.403751 0
3.030000 0.404659 5
3.035000 0.400143 0
3.040000 0.390322 0
3.045000 0.375479 0
3.050000 0.356044 0
3.055000 0.332580 0
3.060000 0.305746 0
3.065000 0.276276 0
3.070000 0.244936 0
3.075000 0.212498 0
3.080000 0.179704 0
3.085000 0.147245 0
3.090000 0.115731 0
3.095000 0.085681 0
3.100000 0.057513 0
3.105000 0.031535 0
3.110000 0.007953 0
3.115000 -0.013125 0
3.120000 -0.031680 0
3.125000 -0.047766 0
3.130000 -0.061498 0
3.135000 -0.073035 0
3.140000 -0.082570 0
3.145000 -0.090309 0
3.150000 -0.096471 0
3.155000 -0.101266 0
3.160000 -0.104900 0
3.165000 -0.107561 0
3.170000 -0.109418 0
3.175000 -0.110622 0
3.180000 -0.109944 0
3.185000 -0.108952 0
3.190000 -0.107964 0
3.195000 -0.106981 0
3.200000 -0.106003 0
3.205000 -0.105029 0
3.210000 -0.104059 0
3.215000 -0.103092 0
3.220000 -0.102125 0
3.225000 -0.101154 0
3.230000 -0.100171 0
3.235000 -0.099163 0
3.240000 -0.098107 0
3.245000 -0.096966 0
3.250000 -0.095678 0
3.255000 -0.094153 0
3.260000 -0.092256 0
3.265000 -0.089795 0
3.270000 -0.086511 0
3.275000 -0.082068 0
3.280000 -0.076054 0
3.285000 -0.067991 0
3.290000 -0.057367 0
3.295000 -0.043680 0
3.300000 -0.026515 0
3.305000 -0.005623 0
3.310000 0.018983 0
3.315000 0.046948 0
3.320000 0.077510 0
3.325000 0.109493 0
3.330000 0.141345 0
3.335000 0.171243 0
3.340000 0.197262 0
3.345000 0.217570 0
3.350000 0.230645 0
3.355000 0.235462 1
3.360000 0.231626 0
3.365000 0.219425 0
3.370000 0.199798 0
3.375000 0.174212 0
3.380000 0.144478 0
3.385000 0.112527 0
3.390000 0.080129 0
3.395000 0.048525 0
3.400000 0.017837 0
3.405000 -0.013684 0
3.410000 -0.050016 0
3.415000 -0.095950 0
3.420000 -0.152784 0
3.425000 -0.212480 0
3.430000 -0.254669 2
3.435000 -0.250010 0
3.440000 -0.168100 0
3.445000 0.013643 0
3.450000 0.297756 0
3.455000 0.648103 0
3.460000 0.978402 0
3.465000 1.174823 3
3.470000 1.153756 0
3.475000 0.916791 0
3.480000 0.555842 0
3.485000 0.189185 0
3.490000 -0.097355 0
3.495000 -0.267489 0
3.500000 -0.322934 4
3.505000 -0.289978 0
3.510000 -0.208561 0
3.515000 -0.117792 0
3.520000 -0.042180 0
3.525000 0.012036 0
3.530000 0.050213 0
3.535000 0.080368 0
3.540000 0.108225 0
3.545000 0.136521 0
3.550000 0.166068 0
3.555000 0.196777 0
3.560000 0.228189 0
3.565000 0.259684 0
3.570000 0.290548 0
3.575000 0.320012 0
3.580000 0.347285 0
3.585000 0.371583 0
3.590000 0.392173 0
3.595000 0.408403 0
3.600000 0.419736 0
3.605000 0.425783 0
3.610000 0.426320 5
3.615000 0.421301 0
3.620000 0.410863 0
3.625000 0.395318 0
3.630000 0.375139 0
3.635000 0.350930 0
3.640000 0.323400 0
3.645000 0.293328 0
3.650000 0.261523 0
3.655000 0.228792 0
3.660000 0.195900 0
3.665000 0.163551 0
3.670000 0.132356 0
3.675000 0.102824 0
3.680000 0.075352 0
3.685000 0.050221 0
3.690000 0.027603 0
3.695000 0.007568 0
3.700000 -0.009901 0
3.705000 -0.024894 0
3.710000 -0.037558 0
3.715000 -0.048081 0
3.720000 -0.056674 0
3.725000 -0.063562 0
3.730000 -0.068972 0
3.735000 -0.073121 0
3.740000 -0.076213 0
3.745000 -0.078432 0
3.750000 -0.079942 0
3.755000 -0.079439 0
3.760000 -0.078598 0
3.765000 -0.077762 0
3.770000 -0.076930 0
3.775000 -0.076102 0
3.780000 -0.075277 0
3.785000 -0.074456 0
3.790000 -0.073636 0
3.795000 -0.072816 0
3.800000 -0.071991 0
3.805000 -0.071153 0
3.810000 -0.070289 0
3.815000 -0.069372 0
3.820000 -0.068362 0
3.825000 -0.067194 0
3.830000 -0.065765 0
3.835000 -0.063928 0
3.840000 -0.061469 0
3.845000 -0.058100 0
3.850000 -0.053452 0
3.855000 -0.047071 0
3.860000 -0.038444 0
3.865000 -0.027028 0
3.870000 -0.012318 0
3.875000 0.006075 0
3.880000 0.028320 0
3.885000 0.054274 0
3.890000 0.083389 0
3.895000 0.114672 0
3.900000 0.146693 0
3.905000 0.177666 0
3.910000 0.205596 0
3.915000 0.228488 0
3.920000 0.244576 0
3.925000 0.252549 1
3.930000 0.251726 0
3.935000 0.242152 0
3.940000 0.224593 0
3.945000 0.200435 0
3.950000 0.171498 0
3.955000 0.139800 0
3.960000 0.107270 0
3.965000 0.075362 0
3.970000 0.044476 0
3.975000 0.013132 0
3.980000 -0.022557 0
3.985000 -0.067667 0
3.990000 -0.124072 0
3.995000 -0.184030 0
4.000000 -0.226596 2
4.005000 -0.221058 0
4.010000 -0.135581 0
4.015000 0.052937 0
4.020000 0.345039 0
4.025000 0.698120 0
4.030000 1.016310 0
4.035000 1.180903 3
4.040000 1.120462 0
4.045000 0.859045 0
4.050000 0.491603 0
4.055000 0.129082 0
4.060000 -0.151218 0
4.065000 -0.317550 0
4.070000 -0.372485 4
4.075000 -0.340991 0
4.080000 -0.260762 0
4.085000 -0.169301 0
4.090000 -0.091221 0
4.095000 -0.034063 0
4.100000 0.006347 0
4.105000 0.037666 0
4.110000 0.065875 0
4.115000 0.094109 0
4.120000 0.123470 0
4.125000 0.154034 0
4.130000 0.185441 0
4.135000 0.217142 0
4.140000 0.248491 0
4.145000 0.278777 0
4.150000 0.307255 0
4.155000 0.333178 0
4.160000 0.355826 0
4.165000 0.374541 0
4.170000 0.388755 0
4.175000 0.398020 0
4.180000 0.402034 5
4.185000 0.400649 0
4.190000 0.393889 0
4.195000 0.381940 0
4.200000 0.365148 0
4.205000 0.343998 0
4.210000 0.319090 0
4.215000 0.291115 0
4.220000 0.260818 0
4.225000 0.228965 0
4.230000 0.196317 0
4.235000 0.163592 0
4.240000 0.131448 0
4.245000 0.100458 0
4.250000 0.071099 0
4.255000 0.043744 0
4.260000 0.018662 0
4.265000 -0.003982 0
4.270000 -0.024113 0
4.275000 -0.041742 0
4.280000 -0.056944 0
4.285000 -0.069853 0
4.290000 -0.080640 0
4.295000 -0.089502 0
4.300000 -0.096650 0
4.305000 -0.102299 0
4.310000 -0.106658 0
4.315000 -0.109924 0
4.320000 -0.112279 0
4.325000 -0.113885 0
4.330000 -0.114592 0
4.335000 -0.113576 0
4.340000 -0.112565 0
4.345000 -0.111560 0
4.350000 -0.110559 0
4.355000 -0.109563 0
4.360000 -0.108571 0
4.365000 -0.107583 0
4.370000 -0.106597 0
4.375000 -0.105610 0
4.380000 -0.104618 0
4.385000 -0.103611 0
4.390000 -0.102574 0
4.395000 -0.101480 0
4.400000 -0.100286 0
4.405000 -0.098926 0
4.410000 -0.097298 0
4.415000 -0.095253 0
4.420000 -0.092584 0
4.425000 -0.089015 0
4.430000 -0.084192 0
4.435000 -0.077686 0
4.440000 -0.069011 0
4.445000 -0.057655 0
4.450000 -0.043135 0
4.455000 -0.025070 0
4.460000 -0.003266 0
4.465000 0.022189 0
4.470000 0.050851 0
4.475000 0.081869 0
4.480000 0.113984 0
4.485000 0.145581 0
4.490000 0.174813 0
4.495000 0.199769 0
4.500000 0.218679 0
4.505000 0.230119 0
4.510000 0.233194 1
4.515000 0.227648 0
4.520000 0.213902 0
4.525000 0.193005 0
4.530000 0.166494 0
4.535000 0.136212 0
4.540000 0.104068 0
4.545000 0.071758 0
4.550000 0.040363 0
4.555000 0.009734 0
4.560000 -0.022254 0
4.565000 -0.059860 0
4.570000 -0.107643 0
4.575000 -0.165772 0
4.580000 -0.224366 0
4.585000 -0.261413 2
4.590000 -0.247047 0
4.595000 -0.151647 0
4.600000 0.045234 0
4.605000 0.341871 0
4.610000 0.695640 0
4.615000 1.014788 0
4.620000 1.186556 3
4.625000 1.136411 0
4.630000 0.877864 0
4.635000 0.510022 0
4.640000 0.149654 0
4.645000 -0.123491 0
4.650000 -0.278691 0
4.655000 -0.321337 4
4.660000 -0.280048 0
4.665000 -0.195536 0
4.670000 -0.105718 0
4.675000 -0.032770 0
4.680000 0.019015 0
4.685000 0.055766 0
4.690000 0.085380 0
4.695000 0.113186 0
4.700000 0.141614 0
4.705000 0.171315 0
4.710000 0.202134 0
4.715000 0.233586 0
4.720000 0.265035 0
4.725000 0.295759 0
4.730000 0.324984 0
4.735000 0.351918 0
4.740000 0.375782 0
4.745000 0.395849 0
4.750000 0.411481 0
4.755000 0.422159 0
4.760000 0.427512 5
4.765000 0.427339 0
4.770000 0.421616 0
4.775000 0.410505 0
4.780000 0.394338 0
4.785000 0.373605 0
4.790000 0.348927 0
4.795000 0.321024 0
4.800000 0.290680 0
4.805000 0.258707 0
4.810000 0.225907 0
4.815000 0.193041 0
4.820000 0.160800 0
4.825000 0.129784 0
4.830000 0.100490 0
4.835000 0.073297 0
4.840000 0.048473 0
4.845000 0.026177 0
4.850000 0.006466 0
4.855000 -0.010686 0
4.860000 -0.025378 0
4.865000 -0.037762 0
4.870000 -0.048031 0
4.875000 -0.056399 0
4.880000 -0.063091 0
4.885000 -0.068333 0
4.890000 -0.072341 0
4.895000 -0.075317 0
4.900000 -0.077441 0
4.905000 -0.078877 0
4.910000 -0.078367 0
4.915000 -0.077532 0
4.920000 -0.076701 0
4.925000 -0.075874 0
4.930000 -0.075051 0
4.935000 -0.074232 0
4.940000 -0.073415 0
4.945000 -0.072601 0
4.950000 -0.071785 0
4.955000 -0.070963 0
4.960000 -0.070128 0
4.965000 -0.069262 0
4.970000 -0.068341 0
4.975000 -0.067319 0
4.980000 -0.066128 0
4.985000 -0.064661 0
4.990000 -0.062760 0
4.995000 -0.060204 0
5.000000 -0.056696 0
5.005000 -0.051852 0
5.010000 -0.045212 0
5.015000 -0.036254 0
5.020000 -0.024438 0
5.025000 -0.009267 0
5.030000 0.009623 0
5.035000 0.032369 0
5.040000 0.058775 0
5.045000 0.088237 0
5.050000 0.119704 0
5.055000 0.151692 0
5.060000 0.182375 0
5.065000 0.209748 0
5.070000 0.231831 0
5.075000 0.246905 0
5.080000 0.253734 1
5.085000 0.251730 0
5.090000 0.241035 0
5.095000 0.222506 0
5.100000 0.197598 0
5.105000 0.168173 0
5.110000 0.136256 0
5.115000 0.103736 0
5.120000 0.071970 0
5.125000 0.041155 0
5.130000 0.009503 0
5.135000 -0.027163 0
5.140000 -0.073820 0
5.145000 -0.131429 0
5.150000 -0.190561 0
5.155000 -0.228600 2
5.160000 -0.214126 0
5.165000 -0.115874 0
5.170000 0.087209 0
5.175000 0.391143 0
5.180000 0.746147 0
5.185000 1.050385 0
5.190000 1.186903 3
5.195000 1.095027 0
5.200000 0.811456 0
5.205000 0.438199 0
5.210000 0.084371 0
5.215000 -0.179197 0
5.220000 -0.326832 0
5.225000 -0.365413 4
5.230000 -0.322931 0
5.235000 -0.238354 0
5.240000 -0.148004 0
5.245000 -0.073634 0
5.250000 -0.020125 0
5.255000 0.017961 0
5.260000 0.048279 0
5.265000 0.076302 0
5.270000 0.104696 0
5.275000 0.134295 0
5.280000 0.165052 0
5.285000 0.196550 0
5.290000 0.228212 0
5.295000 0.259367 0
5.300000 0.289289 0
5.305000 0.317224 0
5.310000 0.342423 0
5.315000 0.364171 0
5.320000 0.381822 0
5.325000 0.394832 0
5.330000 0.402784 0
5.335000 0.405409 5
5.340000 0.402604 0
5.345000 0.394434 0
5.350000 0.381132 0
5.355000 0.363084 0
5.360000 0.340815 0
5.365000 0.314958 0
5.370000 0.286228 0
5.375000 0.255384 0
5.380000 0.223203 0
5.385000 0.190440 0
5.390000 0.157805 0
5.395000 0.125936 0
5.400000 0.095383 0
5.405000 0.066596 0
5.410000 0.039917 0
5.415000 0.015583 0
5.420000 -0.006268 0
5.425000 -0.025592 0
5.430000 -0.042422 0
5.435000 -0.056855 0
5.440000 -0.069041 0
5.445000 -0.079161 0
5.450000 -0.087421 0
5.455000 -0.094037 0
5.460000 -0.099223 0
5.465000 -0.103188 0
5.470000 -0.106123 0
5.475000 -0.108206 0
5.480000 -0.109592 0
5.485000 -0.108946 0
5.490000 -0.107959 0
5.495000 -0.106976 0
5.500000 -0.105998 0
5.505000 -0.105025 0
5.510000 -0.104057 0
5.515000 -0.103092 0
5.520000 -0.102130 0
5.525000 -0.101169 0
5.530000 -0.100206 0
5.535000 -0.099234 0
5.540000 -0.098241 0
5.545000 -0.097208 0
5.550000 -0.096102 0
5.555000 -0.094870 0
5.560000 -0.093430 0
5.565000 -0.091662 0
5.570000 -0.089389 0
5.575000 -0.086374 0
5.580000 -0.082302 0
5.585000 -0.076781 0
5.590000 -0.069350 0
5.595000 -0.059499 0
5.600000 -0.046719 0
5.605000 -0.030561 0
5.610000 -0.010720 0
5.615000 0.012873 0
5.620000 0.039964 0
5.625000 0.069906 0
5.630000 0.101634 0
5.635000 0.133689 0
5.640000 0.164306 0
5.645000 0.191566 0
5.650000 0.213588 0
5.655000 0.228744 0
5.660000 0.235854 1
5.665000 0.234346 0
5.670000 0.224322 0
5.675000 0.206556 0
5.680000 0.182391 0
5.685000 0.153570 0
5.690000 0.122019 0
5.695000 0.089585 0
5.700000 0.057695 0
5.705000 0.026841 0
5.710000 -0.004167 0
5.715000 -0.038761 0
5.720000 -0.081819 0
5.725000 -0.136119 0
5.730000 -0.196541 0
5.735000 -0.245848 0
5.740000 -0.256329 2
5.745000 -0.196977 0
5.750000 -0.042229 0
5.755000 0.217186 0
5.760000 0.556845 0
5.765000 0.902789 0
5.770000 1.143442 0
5.775000 1.182424 3
5.780000 0.998226 0
5.785000 0.659892 0
5.790000 0.283893 0
5.795000 -0.032269 0
5.800000 -0.238943 0
5.805000 -0.328120 4
5.810000 -0.319311 0
5.815000 -0.248942 0
5.820000 -0.157575 0
5.825000 -0.075186 0
5.830000 -0.013692 0
5.835000 0.029294 0
5.840000 0.061571 0
5.845000 0.089856 0
5.850000 0.117852 0
5.855000 0.146933 0
5.860000 0.177263 0
5.865000 0.208496 0
5.870000 0.240074 0
5.875000 0.271324 0
5.880000 0.301509 0
5.885000 0.329854 0
5.890000 0.355580 0
5.895000 0.377938 0
5.900000 0.396245 0
5.905000 0.409920 0
5.910000 0.418507 0
5.915000 0.421708 5
5.920000 0.419393 0
5.925000 0.411611 0
5.930000 0.398588 0
5.935000 0.380710 0
5.940000 0.358513 0
5.945000 0.332646 0
5.950000 0.303845 0
5.955000 0.272896 0
5.960000 0.240599 0
5.965000 0.207735 0
5.970000 0.175033 0
5.975000 0.143149 0
5.980000 0.112642 0
5.985000 0.083968 0
5.990000 0.057469 0
5.995000 0.033376 0
6.000000 0.011817 0
6.005000 -0.007174 0
6.010000 -0.023645 0
6.015000 -0.037707 0
6.020000 -0.049523 0
6.025000 -0.059287 0
6.030000 -0.067214 0
6.035000 -0.073528 0
6.040000 -0.078450 0
6.045000 -0.082189 0
6.050000 -0.084941 0
6.055000 -0.086880 0
6.060000 -0.088162 0
6.065000 -0.087591 0
6.070000 -0.086710 0
6.075000 -0.085833 0
6.080000 -0.084961 0
6.085000 -0.084092 0
6.090000 -0.083228 0
6.095000 -0.082366 0
6.100000 -0.081506 0
6.105000 -0.080645 0
6.110000 -0.079778 0
6.115000 -0.078896 0
6.120000 -0.077983 0
6.125000 -0.077012 0
6.130000 -0.075937 0
6.135000 -0.074689 0
6.140000 -0.073159 0
6.145000 -0.071189 0
6.150000 -0.068558 0
6.155000 -0.064969 0
6.160000 -0.060043 0
6.165000 -0.053324 0
6.170000 -0.044297 0
6.175000 -0.032429 0
6.180000 -0.017234 0
6.185000 0.001651 0
6.190000 0.024360 0
6.195000 0.050710 0
6.200000 0.080119 0
6.205000 0.111564 0
6.210000 0.143600 0
6.215000 0.174444 0
6.220000 0.202124 0
6.225000 0.224682 0
6.230000 0.240398 0
6.235000 0.248010 1
6.240000 0.246879 0
6.245000 0.237075 0
6.250000 0.219375 0
6.255000 0.195155 0
6.260000 0.166215 0
6.265000 0.134543 0
6.270000 0.102038 0
6.275000 0.070143 0
6.280000 0.039272 0
6.285000 0.008020 0
6.290000 -0.027377 0
6.295000 -0.071940 0
6.300000 -0.127804 0
6.305000 -0.187985 0
6.310000 -0.232607 2
6.315000 -0.231809 0
6.320000 -0.153974 0
6.325000 0.024803 0
6.330000 0.307867 0
6.335000 0.658268 0
6.340000 0.986486 0
6.345000 1.175001 3
6.350000 1.142777 0
6.355000 0.899640 0
6.360000 0.537319 0
6.365000 0.170992 0
6.370000 -0.116092 0
6.375000 -0.288396 0
6.380000 -0.347082 4
6.385000 -0.317171 0
6.390000 -0.237272 0
6.395000 -0.145992 0
6.400000 -0.068500 0
6.405000 -0.012208 0
6.410000 0.027438 0
6.415000 0.058302 0
6.420000 0.086342 0
6.425000 0.114573 0
6.430000 0.143991 0
6.435000 0.174603 0
6.440000 0.206007 0
6.445000 0.237619 0
6.450000 0.268762 0
6.455000 0.298694 0
6.460000 0.326648 0
6.465000 0.351856 0
6.470000 0.373587 0
6.475000 0.391182 0
6.480000 0.404085 0
6.485000 0.411870 0
6.490000 0.414269 5
6.495000 0.411180 0
6.500000 0.402677 0
6.505000 0.389006 0
6.510000 0.370573 0
6.515000 0.347921 0
6.520000 0.321706 0
6.525000 0.292663 0
6.530000 0.261572 0
6.535000 0.229224 0
6.540000 0.196386 0
6.545000 0.163773 0
6.550000 0.132026 0
6.555000 0.101690 0
6.560000 0.073205 0
6.565000 0.046902 0
6.570000 0.023003 0
6.575000 0.001629 0
6.580000 -0.017193 0
6.585000 -0.033513 0
6.590000 -0.047443 0
6.595000 -0.059146 0
6.600000 -0.068814 0
6.605000 -0.076662 0
6.610000 -0.082909 0
6.615000 -0.087774 0
6.620000 -0.091465 0
6.625000 -0.094174 0
6.630000 -0.096075 0
6.635000 -0.097320 0
6.640000 -0.096705 0
6.645000 -0.095778 0
6.650000 -0.094856 0
6.655000 -0.093939 0
6.660000 -0.093026 0
6.665000 -0.092116 0
6.670000 -0.091211 0
6.675000 -0.090307 0
6.680000 -0.089402 0
6.685000 -0.088493 0
6.690000 -0.087569 0
6.695000 -0.086617 0
6.700000 -0.085610 0
6.705000 -0.084505 0
6.710000 -0.083237 0
6.715000 -0.081702 0
6.720000 -0.079751 0
6.725000 -0.077173 0
6.730000 -0.073683 0
6.735000 -0.068918 0
6.740000 -0.062435 0
6.745000 -0.053733 0
6.750000 -0.042284 0
6.755000 -0.027595 0
6.760000 -0.009283 0
6.765000 0.012829 0
6.770000 0.038617 0
6.775000 0.067577 0
6.780000 0.098778 0
6.785000 0.130865 0
6.790000 0.162128 0
6.795000 0.190641 0
6.800000 0.214446 0
6.805000 0.231778 0
6.810000 0.241275 0
6.815000 0.242161 1
6.820000 0.234344 0
6.825000 0.218437 0
6.830000 0.195675 0
6.835000 0.167753 0
6.840000 0.136616 0
6.845000 0.104194 0
6.850000 0.072073 0
6.855000 0.041005 0
6.860000 0.010170 0
6.865000 -0.023513 0
6.870000 -0.064930 0
6.875000 -0.117625 0
6.880000 -0.177969 0
6.885000 -0.230179 0
6.890000 -0.247043 2
6.895000 -0.196853 0
6.900000 -0.052454 0
6.905000 0.197922 0
6.910000 0.533188 0
6.915000 0.881919 0
6.920000 1.131618 0
6.925000 1.181263 3
6.930000 1.005855 0
6.935000 0.673022 0
6.940000 0.295981 0
6.945000 -0.027386 0
6.950000 -0.244874 0
6.955000 -0.345605 0
6.960000 -0.346381 4
6.965000 -0.281420 0
6.970000 -0.190681 0
6.975000 -0.105589 0
6.980000 -0.040454 0
6.985000 0.005357 0
6.990000 0.039135 0
6.995000 0.067908 0
7.000000 0.095868 0
7.005000 0.124739 0
7.010000 0.154868 0
7.015000 0.185997 0
7.020000 0.217617 0
7.025000 0.249097 0
7.030000 0.279733 0
7.035000 0.308773 0
7.040000 0.335457 0
7.045000 0.359040 0
7.050000 0.378833 0
7.055000 0.394230 0
7.060000 0.404742 0
7.065000 0.410021 5
7.070000 0.409878 0
7.075000 0.404295 0
7.080000 0.393423 0
7.085000 0.377580 0
7.090000 0.357229 0
7.095000 0.332961 0
7.100000 0.305460 0
7.105000 0.275477 0
7.110000 0.243790 0
7.115000 0.211173 0
7.120000 0.178367 0
7.125000 0.146051 0
7.130000 0.114821 0
7.135000 0.085176 0
7.140000 0.057510 0
7.145000 0.032108 0
7.150000 0.009151 0
7.155000 -0.011277 0
7.160000 -0.029178 0
7.165000 -0.044625 0
7.170000 -0.057748 0
7.175000 -0.068719 0
7.180000 -0.077737 0
7.185000 -0.085017 0
7.190000 -0.090775 0
7.195000 -0.095226 0
7.200000 -0.098570 0
7.205000 -0.100992 0
7.210000 -0.102658 0
7.215000 -0.103419 0
7.220000 -0.102459 0
7.225000 -0.101504 0
7.230000 -0.100554 0
7.235000 -0.099608 0
7.240000 -0.098666 0
7.245000 -0.097729 0
7.250000 -0.096794 0
7.255000 -0.095862 0
7.260000 -0.094928 0
7.265000 -0.093988 0
7.270000 -0.093032 0
7.275000 -0.092042 0
7.280000 -0.090991 0
7.285000 -0.089834 0
7.290000 -0.088497 0
7.295000 -0.086872 0
7.300000 -0.084802 0
7.305000 -0.082065 0
7.310000 -0.078369 0
7.315000 -0.073341 0
7.320000 -0.066535 0
7.325000 -0.057447 0
7.330000 -0.045559 0
7.335000 -0.030392 0
7.340000 -0.011591 0
7.345000 0.010988 0
7.350000 0.037183 0
7.355000 0.066452 0
7.360000 0.097827 0
7.365000 0.129934 0
7.370000 0.161059 0
7.375000 0.189287 0
7.380000 0.212695 0
7.385000 0.229559 0
7.390000 0.238569 0
7.395000 0.238998 1
7.400000 0.230794 0
7.405000 0.214592 0
7.410000 0.191635 0
7.415000 0.163611 0
7.420000 0.132442 0
7.425000 0.100031 0
7.430000 0.067937 0
7.435000 0.036892 0
7.440000 0.006083 0
7.445000 -0.027525 0
7.450000 -0.068753 0
7.455000 -0.121173 0
7.460000 -0.181436 0
7.465000 -0.234329 0
7.470000 -0.253282 2
7.475000 -0.206984 0
7.480000 -0.068183 0
7.485000 0.175959 0
7.490000 0.507211 0
7.495000 0.858549 0
7.500000 1.120498 0
7.505000 1.189755 3
7.510000 1.032010 0
7.515000 0.706509 0
7.520000 0.329109 0
7.525000 0.002929 0
7.530000 -0.216355 0
7.535000 -0.316889 4
7.540000 -0.316094 0
7.545000 -0.249613 0
7.550000 -0.158679 0
7.555000 -0.074937 0
7.560000 -0.011878 0
7.565000 0.032124 0
7.570000 0.064830 0
7.575000 0.093194 0
7.580000 0.121133 0
7.585000 0.150129 0
7.590000 0.180388 0
7.595000 0.211576 0
7.600000 0.243131 0
7.605000 0.274380 0
7.610000 0.304576 0
7.615000 0.332939 0
7.620000 0.358679 0
7.625000 0.381040 0
7.630000 0.399332 0
7.635000 0.412964 0
7.640000 0.421480 0
7.645000 0.424579 5
7.650000 0.422133 0
7.655000 0.414194 0
7.660000 0.400994 0
7.665000 0.382931 0
7.670000 0.360548 0
7.675000 0.334508 0
7.680000 0.305557 0
7.685000 0.274490 0
7.690000 0.242117 0
7.695000 0.209223 0
7.700000 0.176541 0
7.705000 0.144727 0
7.710000 0.114339 0
7.715000 0.085827 0
7.720000 0.059527 0
7.725000 0.035662 0
7.730000 0.014353 0
7.735000 -0.004378 0
7.740000 -0.020585 0
7.745000 -0.034388 0
7.750000 -0.045955 0
7.755000 -0.055488 0
7.760000 -0.063204 0
7.765000 -0.069331 0
7.770000 -0.074089 0
7.775000 -0.077689 0
7.780000 -0.080325 0
7.785000 -0.082171 0
7.790000 -0.083081 0
7.795000 -0.082222 0
7.800000 -0.081368 0
7.805000 -0.080518 0
7.810000 -0.079672 0
7.815000 -0.078830 0
7.820000 -0.077991 0
7.825000 -0.077155 0
7.830000 -0.076321 0
7.835000 -0.075484 0
7.840000 -0.074639 0
7.845000 -0.073776 0
7.850000 -0.072877 0
7.855000 -0.071910 0
7.860000 -0.070825 0
7.865000 -0.069542 0
7.870000 -0.067941 0
7.875000 -0.065847 0
7.880000 -0.063018 0
7.885000 -0.059131 0
7.890000 -0.053782 0
7.895000 -0.046490 0
7.900000 -0.036725 0
7.905000 -0.023955 0
7.910000 -0.007715 0
7.915000 0.012304 0
7.920000 0.036150 0
7.925000 0.063520 0
7.930000 0.093690 0
7.935000 0.125484 0
7.940000 0.157320 0
7.945000 0.187314 0
7.950000 0.213451 0
7.955000 0.233810 0
7.960000 0.246789 0
7.965000 0.251318 1
7.970000 0.246999 0
7.975000 0.234167 0
7.980000 0.213844 0
7.985000 0.187606 0
7.990000 0.157371 0
7.995000 0.125152 0
8.000000 0.092740 0
8.005000 0.061268 0
8.010000 0.030523 0
8.015000 -0.001864 0
8.020000 -0.040501 0
8.025000 -0.089943 0
8.030000 -0.149234 0
8.035000 -0.205909 0
8.040000 -0.234773 2
8.045000 -0.203736 0
8.050000 -0.083048 0
8.055000 0.144218 0
8.060000 0.465711 0
8.065000 0.819786 0
8.070000 1.096904 0
8.075000 1.186310 3
8.080000 1.047029 0
8.085000 0.734796 0
8.090000 0.357438 0
8.095000 0.017609 0
8.100000 -0.224050 0
8.105000 -0.349560 0
8.110000 -0.370462 4
8.115000 -0.317333 0
8.120000 -0.229367 0
8.125000 -0.140656 0
8.130000 -0.069745 0
8.135000 -0.019182 0
8.140000 0.017253 0
8.145000 0.046980 0
8.150000 0.074973 0
8.155000 0.103539 0
8.160000 0.133334 0
8.165000 0.164239 0
8.170000 0.195815 0
8.175000 0.227475 0
8.180000 0.258549 0
8.185000 0.288313 0
8.190000 0.316019 0
8.195000 0.340928 0
8.200000 0.362337 0
8.205000 0.379616 0
8.210000 0.392235 0
8.215000 0.399795 0
8.220000 0.402041 5
8.225000 0.398884 0
8.230000 0.390399 0
8.235000 0.376827 0
8.240000 0.358559 0
8.245000 0.336122 0
8.250000 0.310145 0
8.255000 0.281340 0
8.260000 0.250461 0
8.265000 0.218274 0
8.270000 0.185527 0
8.275000 0.152922 0
8.280000 0.121087 0
8.285000 0.090568 0
8.290000 0.061808 0
8.295000 0.035145 0
8.300000 0.010816 0
8.305000 -0.011045 0
8.310000 -0.030390 0
8.315000 -0.047252 0
8.320000 -0.061726 0
8.325000 -0.073959 0
8.330000 -0.084129 0
8.335000 -0.092440 0
8.340000 -0.099105 0
8.345000 -0.104337 0
8.350000 -0.108341 0
8.355000 -0.111310 0
8.360000 -0.113421 0
8.365000 -0.114828 0
8.370000 -0.114163 0
8.375000 -0.113149 0
8.380000 -0.112141 0
8.385000 -0.111137 0
8.390000 -0.110138 0
8.395000 -0.109144 0
8.400000 -0.108154 0
8.405000 -0.107167 0
8.410000 -0.106182 0
8.415000 -0.105195 0
8.420000 -0.104200 0
8.425000 -0.103187 0
8.430000 -0.102138 0
8.435000 -0.101021 0
8.440000 -0.099789 0
8.445000 -0.098365 0
8.450000 -0.096637 0
8.455000 -0.094440 0
8.460000 -0.091550 0
8.465000 -0.087668 0
8.470000 -0.082421 0
8.475000 -0.075362 0
8.480000 -0.065995 0
8.485000 -0.053810 0
8.490000 -0.038345 0
8.495000 -0.019263 0
8.500000 0.003562 0
8.505000 0.029951 0
8.510000 0.059355 0
8.515000 0.090809 0
8.520000 0.122954 0
8.525000 0.154101 0
8.530000 0.182371 0
8.535000 0.205874 0
8.540000 0.222916 0
8.545000 0.232201 0
8.550000 0.232996 1
8.555000 0.225223 0
8.560000 0.209478 0
8.565000 0.186949 0
8.570000 0.159272 0
8.575000 0.128326 0
8.580000 0.095991 0
8.585000 0.063848 0
8.590000 0.032729 0
8.595000 0.002046 0
8.600000 -0.030900 0
8.605000 -0.070723 0
8.610000 -0.121407 0
8.615000 -0.181071 0
8.620000 -0.236768 0
8.625000 -0.263940 2
8.630000 -0.232035 0
8.635000 -0.112876 0
8.640000 0.109968 0
8.645000 0.426506 0
8.650000 0.781911 0
8.655000 1.075194 0
8.660000 1.197468 3
8.665000 1.092807 0
8.670000 0.797223 0
8.675000 0.421277 0
8.680000 0.076966 0
8.685000 -0.167972 0
8.690000 -0.293143 0
8.695000 -0.310898 4
8.700000 -0.254346 0
8.705000 -0.165283 0
8.710000 -0.078626 0
8.715000 -0.011601 0
8.720000 0.035242 0
8.725000 0.069281 0
8.730000 0.097969 0
8.735000 0.125782 0
8.740000 0.154534 0
8.745000 0.184574 0
8.750000 0.215616 0
8.755000 0.247116 0
8.760000 0.278406 0
8.765000 0.308739 0
8.770000 0.337327 0
8.775000 0.363371 0
8.780000 0.386102 0
8.785000 0.404810 0
8.790000 0.418888 0
8.795000 0.427859 0
8.800000 0.431402 5
8.805000 0.429373 0
8.810000 0.421809 0
8.815000 0.408932 0
8.820000 0.391132 0
8.825000 0.368950 0
8.830000 0.343049 0
8.835000 0.314182 0
8.840000 0.283151 0
8.845000 0.250773 0
8.850000 0.217845 0
8.855000 0.185111 0
8.860000 0.153236 0
8.865000 0.122787 0
8.870000 0.094219 0
8.875000 0.067874 0
8.880000 0.043978 0
8.885000 0.022652 0
8.890000 0.003918 0
8.895000 -0.012279 0
8.900000 -0.026063 0
8.905000 -0.037605 0
8.910000 -0.047107 0
8.915000 -0.054792 0
8.920000 -0.060889 0
8.925000 -0.065621 0
8.930000 -0.069200 0
8.935000 -0.071822 0
8.940000 -0.073660 0
8.945000 -0.074575 0
8.950000 -0.073759 0
8.955000 -0.072947 0
8.960000 -0.072139 0
8.965000 -0.071335 0
8.970000 -0.070534 0
8.975000 -0.069737 0
8.980000 -0.068942 0
8.985000 -0.068147 0
8.990000 -0.067350 0
8.995000 -0.066544 0
9.000000 -0.065717 0
9.005000 -0.064850 0
9.010000 -0.063908 0
9.015000 -0.062837 0
9.020000 -0.061550 0
9.025000 -0.059918 0
9.030000 -0.057753 0
9.035000 -0.054797 0
9.040000 -0.050708 0
9.045000 -0.045062 0
9.050000 -0.037360 0
9.055000 -0.027061 0
9.060000 -0.013635 0
9.065000 0.003364 0
9.070000 0.024200 0
9.075000 0.048852 0
9.080000 0.076920 0
9.085000 0.107566 0
9.090000 0.139499 0
9.095000 0.171029 0
9.100000 0.200201 0
9.105000 0.224979 0
9.110000 0.243481 0
9.115000 0.254212 0
9.120000 0.256264 1
9.125000 0.249439 0
9.130000 0.234282 0
9.135000 0.212004 0
9.140000 0.184326 0
9.145000 0.153246 0
9.150000 0.120766 0
9.155000 0.088548 0
9.160000 0.057393 0
9.165000 0.026459 0
9.170000 -0.007466 0
9.175000 -0.049444 0
9.180000 -0.102919 0
9.185000 -0.163441 0
9.190000 -0.213627 0
9.195000 -0.224536 2
9.200000 -0.163472 0
9.205000 -0.003728 0
9.210000 0.263108 0
9.215000 0.607521 0
9.220000 0.946009 0
9.225000 1.159335 3
9.230000 1.155315 0
9.235000 0.934918 0
9.240000 0.582222 0
9.245000 0.209708 0
9.250000 -0.094998 0
9.255000 -0.289897 0
9.260000 -0.370507 4
9.265000 -0.357114 0
9.270000 -0.285208 0
9.275000 -0.193571 0
9.280000 -0.110772 0
9.285000 -0.048393 0
9.290000 -0.004426 0
9.295000 0.028547 0
9.300000 0.057157 0
9.305000 0.085224 0
9.310000 0.114264 0
9.315000 0.144542 0
9.320000 0.175781 0
9.325000 0.207470 0
9.330000 0.238987 0
9.335000 0.269636 0
9.340000 0.298683 0
9.345000 0.325380 0
9.350000 0.348998 0
9.355000 0.368862 0
9.360000 0.384377 0
9.365000 0.395062 0
9.370000 0.400573 0
9.375000 0.400718 5
9.380000 0.395473 0
9.385000 0.384978 0
9.390000 0.369534 0
9.395000 0.349586 0
9.400000 0.325704 0
9.405000 0.298552 0
9.410000 0.268861 0
9.415000 0.237392 0
9.420000 0.204907 0
9.425000 0.172139 0
9.430000 0.139763 0
9.435000 0.108377 0
9.440000 0.078487 0
9.445000 0.050496 0
9.450000 0.024704 0
9.455000 0.001307 0
9.460000 -0.019596 0
9.465000 -0.037988 0
9.470000 -0.053929 0
9.475000 -0.067532 0
9.480000 -0.078960 0
9.485000 -0.088401 0
9.490000 -0.096064 0
9.495000 -0.102162 0
9.500000 -0.106906 0
9.505000 -0.110497 0
9.510000 -0.113121 0
9.515000 -0.114947 0
9.520000 -0.116124 0
9.525000 -0.115419 0
9.530000 -0.114400 0
9.535000 -0.113385 0
9.540000 -0.112375 0
9.545000 -0.111370 0
9.550000 -0.110369 0
9.555000 -0.109373 0
9.560000 -0.108379 0
9.565000 -0.107386 0
9.570000 -0.106389 0
9.575000 -0.105382 0
9.580000 -0.104350 0
9.585000 -0.103273 0
9.590000 -0.102113 0
9.595000 -0.100815 0
9.600000 -0.099288 0
9.605000 -0.097404 0
9.610000 -0.094979 0
9.615000 -0.091763 0
9.620000 -0.087430 0
9.625000 -0.081579 0
9.630000 -0.073744 0
9.635000 -0.063418 0
9.640000 -0.050102 0
9.645000 -0.033368 0
9.650000 -0.012946 0
9.655000 0.011192 0
9.660000 0.038742 0
9.665000 0.069010 0
9.670000 0.100890 0
9.675000 0.132895 0
9.680000 0.163253 0
9.685000 0.190062 0
9.690000 0.211477 0
9.695000 0.225926 0
9.700000 0.232295 1
9.705000 0.230074 0
9.710000 0.219425 0
9.715000 0.201161 0
9.720000 0.176645 0
9.725000 0.147621 0
9.730000 0.115994 0
9.735000 0.083579 0
9.740000 0.051757 0
9.745000 0.020957 0
9.750000 -0.010076 0
9.755000 -0.044806 0
9.760000 -0.088065 0
9.765000 -0.142503 0
9.770000 -0.202901 0
9.775000 -0.252089 0
9.780000 -0.262632 2
9.785000 -0.203865 0
9.790000 -0.050431 0
9.795000 0.207159 0
9.800000 0.545582 0
9.805000 0.892925 0
9.810000 1.139330 0
9.815000 1.187732 3
9.820000 1.010152 0
9.825000 0.674335 0
9.830000 0.298054 0
9.835000 -0.019076 0
9.840000 -0.226151 0
9.845000 -0.314907 4
9.850000 -0.305226 0
9.855000 -0.234175 0
9.860000 -0.142813 0
9.865000 -0.061105 0
9.870000 -0.000542 0
9.875000 0.041685 0
9.880000 0.073540 0
9.885000 0.101680 0
9.890000 0.129679 0
9.895000 0.158813 0
9.900000 0.189191 0
9.905000 0.220436 0
9.910000 0.251968 0
9.915000 0.283097 0
9.920000 0.313069 0
9.925000 0.341096 0
9.930000 0.366387 0
9.935000 0.388192 0
9.940000 0.405827 0
9.945000 0.418720 0
9.950000 0.426431 0
9.955000 0.428684 5
9.960000 0.425377 0
9.965000 0.416591 0
9.970000 0.402583 0
9.975000 0.383779 0
9.980000 0.360745 0
9.985000 0.334161 0
9.990000 0.304787 0
9.995000 0.273427 0
10.000000 0.240891 0
10.005000 0.207962 0
10.010000 0.175363 0
10.015000 0.143738 0
10.020000 0.113629 0
10.025000 0.085467 0
10.030000 0.059569 0
10.035000 0.036141 0
10.040000 0.015284 0
10.045000 -0.002993 0
10.050000 -0.018760 0
10.055000 -0.032146 0
10.060000 -0.043329 0
10.065000 -0.052514 0
10.070000 -0.059924 0
10.075000 -0.065784 0
10.080000 -0.070317 0
10.085000 -0.073729 0
10.090000 -0.076213 0
10.095000 -0.077939 0
10.100000 -0.078772 0
10.105000 -0.077935 0
10.110000 -0.077102 0
10.115000 -0.076273 0
10.120000 -0.075449 0
10.125000 -0.074628 0
10.130000 -0.073810 0
10.135000 -0.072994 0
10.140000 -0.072179 0
10.145000 -0.071361 0
10.150000 -0.070533 0
10.155000 -0.069683 0
10.160000 -0.068791 0
10.165000 -0.067821 0
10.170000 -0.066717 0
10.175000 -0.065389 0
10.180000 -0.063707 0
10.185000 -0.061478 0
10.190000 -0.058441 0
10.195000 -0.054252 0
10.200000 -0.048484 0
10.205000 -0.040639 0
10.210000 -0.030180 0
10.215000 -0.016580 0
10.220000 0.000595 0
10.225000 0.021598 0
10.230000 0.046395 0
10.235000 0.074575 0
10.240000 0.105293 0
10.245000 0.137252 0
10.250000 0.168770 0
10.255000 0.197899 0
10.260000 0.222621 0
10.265000 0.241069 0
10.270000 0.251765 0
10.275000 0.253811 1
10.280000 0.247011 0
10.285000 0.231906 0
10.290000 0.209697 0
10.295000 0.182086 0
10.300000 0.151057 0
10.305000 0.118601 0
10.310000 0.086378 0
10.315000 0.055210 0
10.320000 0.024321 0
10.325000 -0.009405 0
10.330000 -0.050969 0
10.335000 -0.103961 0
10.340000 -0.164422 0
10.345000 -0.215704 0
10.350000 -0.229488 2
10.355000 -0.173261 0
10.360000 -0.019899 0
10.365000 0.240526 0
10.370000 0.581768 0
10.375000 0.924487 0
10.380000 1.151107 0
10.385000 1.165506 3
10.390000 0.959482 0
10.395000 0.612336 0
10.400000 0.238108 0
10.405000 -0.071682 0
10.410000 -0.271952 0
10.415000 -0.356695 4
10.420000 -0.345731 0
10.425000 -0.274770 0
10.430000 -0.183254 0
10.435000 -0.100405 0
10.440000 -0.038105 0
10.445000 0.005682 0
10.450000 0.038488 0
10.455000 0.067008 0
10.460000 0.095048 0
10.465000 0.124095 0
10.470000 0.154386 0
10.475000 0.185624 0
10.480000 0.217283 0
10.485000 0.248723 0
10.490000 0.279236 0
10.495000 0.308072 0
10.500000 0.334473 0
10.505000 0.357702 0
10.510000 0.377080 0
10.515000 0.392014 0
10.520000 0.402032 0
10.525000 0.406801 5
10.530000 0.406150 0
10.535000 0.400077 0
10.540000 0.388750 0
10.545000 0.372497 0
10.550000 0.351794 0
10.555000 0.327238 0
10.560000 0.299518 0
10.565000 0.269384 0
10.570000 0.237613 0
10.575000 0.204974 0
10.580000 0.172201 0
10.585000 0.139964 0
10.590000 0.108850 0
10.595000 0.079350 0
10.600000 0.051847 0
10.605000 0.026619 0
10.610000 0.003839 0
10.615000 -0.016415 0
10.620000 -0.034149 0
10.625000 -0.049441 0
10.630000 -0.062422 0
10.635000 -0.073265 0
10.640000 -0.082170 0
10.645000 -0.089351 0
10.650000 -0.095025 0
10.655000 -0.099402 0
10.660000 -0.102684 0
10.665000 -0.105053 0
10.670000 -0.106673 0
10.675000 -0.107398 0
10.680000 -0.106418 0
10.685000 -0.105443 0
10.690000 -0.104473 0
10.695000 -0.103508 0
10.700000 -0.102547 0
10.705000 -0.101590 0
10.710000 -0.100637 0
10.715000 -0.099685 0
10.720000 -0.098732 0
10.725000 -0.097772 0
10.730000 -0.096797 0
10.735000 -0.095788 0
10.740000 -0.094718 0
10.745000 -0.093541 0
10.750000 -0.092184 0
10.755000 -0.090540 0
10.760000 -0.088452 0
10.765000 -0.085698 0
10.770000 -0.081989 0
10.775000 -0.076953 0
10.780000 -0.070145 0
10.785000 -0.061066 0
10.790000 -0.049197 0
10.795000 -0.034063 0
10.800000 -0.015307 0
10.805000 0.007219 0
10.810000 0.033360 0
10.815000 0.062584 0
10.820000 0.093938 0
10.825000 0.126062 0
10.830000 0.157257 0
10.835000 0.185619 0
10.840000 0.209230 0
10.845000 0.226363 0
10.850000 0.235698 0
10.855000 0.236484 1
10.860000 0.228642 0
10.865000 0.212780 0
10.870000 0.190111 0
10.875000 0.162299 0
10.880000 0.131254 0
10.885000 0.098878 0
10.890000 0.066753 0
10.895000 0.035667 0
10.900000 0.004920 0
10.905000 -0.028376 0
10.910000 -0.068971 0
10.915000 -0.120649 0
10.920000 -0.180704 0
10.925000 -0.234835 0
10.930000 -0.257198 2
10.935000 -0.216655 0
10.940000 -0.085467 0
10.945000 0.150711 0
10.950000 0.476839 0
10.955000 0.830288 0
10.960000 1.104176 0
10.965000 1.192496 3
10.970000 1.052918 0
10.975000 0.738357 0
10.980000 0.360824 0
10.985000 0.025363 0
10.990000 -0.207874 0
10.995000 -0.322943 0
11.000000 -0.334003 4
11.005000 -0.274312 0
11.010000 -0.184587 0
11.015000 -0.098212 0
11.020000 -0.031397 0
11.025000 0.015536 0
11.030000 0.049784 0
11.035000 0.078635 0
11.040000 0.106522 0
11.045000 0.135291 0
11.050000 0.165330 0
11.055000 0.196389 0
11.060000 0.227954 0
11.065000 0.259382 0
11.070000 0.289956 0
11.075000 0.318913 0
11.080000 0.345477 0
11.085000 0.368891 0
11.090000 0.388456 0
11.095000 0.403559 0
11.100000 0.413710 0
11.105000 0.418564 5
11.110000 0.417941 0
11.115000 0.411835 0
11.120000 0.400417 0
11.125000 0.384023 0
11.130000 0.363143 0
11.135000 0.338387 0
11.140000 0.310465 0
11.145000 0.280145 0
11.150000 0.248220 0
11.155000 0.215477 0
11.160000 0.182660 0
11.165000 0.150447 0
11.170000 0.119428 0
11.175000 0.090093 0
11.180000 0.062820 0
11.185000 0.037877 0
11.190000 0.015427 0
11.195000 -0.004466 0
11.200000 -0.021821 0
11.205000 -0.036729 0
11.210000 -0.049332 0
11.215000 -0.059816 0
11.220000 -0.068387 0
11.225000 -0.075266 0
11.230000 -0.080675 0
11.235000 -0.084826 0
11.240000 -0.087919 0
11.245000 -0.090138 0
11.250000 -0.091643 0
11.255000 -0.091090 0
11.260000 -0.090192 0
11.265000 -0.089298 0
11.270000 -0.088408 0
11.275000 -0.087523 0
11.280000 -0.086641 0
11.285000 -0.085763 0
11.290000 -0.084888 0
11.295000 -0.084013 0
11.300000 -0.083134 0
11.305000 -0.082245 0
11.310000 -0.081333 0
11.315000 -0.080377 0
11.320000 -0.079340 0
11.325000 -0.078166 0
11.330000 -0.076763 0
11.335000 -0.075001 0
11.340000 -0.072688 0
11.345000 -0.069565 0
11.350000 -0.065293 0
11.355000 -0.059454 0
11.360000 -0.051558 0
11.365000 -0.041078 0
11.370000 -0.027501 0
11.375000 -0.010397 0
11.380000 0.010489 0
11.385000 0.035138 0
11.390000 0.063170 0
11.395000 0.093783 0
11.400000 0.125743 0
11.405000 0.157428 0
11.410000 0.186951 0
11.415000 0.212330 0
11.420000 0.231711 0
11.425000 0.243585 0
11.430000 0.246984 1
11.435000 0.241611 0
11.440000 0.227884 0
11.445000 0.206878 0
11.450000 0.180187 0
11.455000 0.149720 0
11.460000 0.117449 0
11.465000 0.085104 0
11.470000 0.053730 0
11.475000 0.023010 0
11.480000 -0.009515 0
11.485000 -0.048450 0
11.490000 -0.098196 0
11.495000 -0.157575 0
11.500000 -0.214075 0
11.505000 -0.242793 2
11.510000 -0.212159 0
11.515000 -0.092872 0
11.520000 0.132007 0
11.525000 0.451262 0
11.530000 0.805985 0
11.535000 1.089694 0
11.540000 1.191816 3
11.545000 1.065034 0
11.550000 0.757891 0
11.555000 0.380824 0
11.560000 0.040767 0
11.565000 -0.199233 0
11.570000 -0.321036 0
11.575000 -0.337381 4
11.580000 -0.280693 0
11.585000 -0.191656 0
11.590000 -0.104452 0
11.595000 -0.036362 0
11.600000 0.011568 0
11.605000 0.046340 0
11.610000 0.075362 0
11.615000 0.103243 0
11.620000 0.131949 0
11.625000 0.161925 0
11.630000 0.192946 0
11.635000 0.224506 0
11.640000 0.255970 0
11.645000 0.286622 0
11.650000 0.315701 0
11.655000 0.342432 0
11.660000 0.366055 0
11.665000 0.385867 0
11.670000 0.401249 0
11.675000 0.411704 0
11.680000 0.416877 5
11.685000 0.416578 0
11.690000 0.410791 0
11.695000 0.399677 0
11.700000 0.383565 0
11.705000 0.362933 0
11.710000 0.338389 0
11.715000 0.310635 0
11.720000 0.280438 0
11.725000 0.248591 0
11.730000 0.215881 0
11.735000 0.183056 0
11.740000 0.150799 0
11.745000 0.119706 0
11.750000 0.090271 0
11.755000 0.062880 0
11.760000 0.037807 0
11.765000 0.015219 0
11.770000 -0.004812 0
11.775000 -0.022302 0
11.780000 -0.037338 0
11.785000 -0.050060 0
11.790000 -0.060651 0
11.795000 -0.069318 0
11.800000 -0.076280 0
11.805000 -0.081759 0
11.810000 -0.085968 0
11.815000 -0.089110 0
11.820000 -0.091367 0
11.825000 -0.092901 0
11.830000 -0.093586 0
11.835000 -0.092675 0
11.840000 -0.091768 0
11.845000 -0.090866 0
11.850000 -0.089969 0
11.855000 -0.089075 0
11.860000 -0.088185 0
11.865000 -0.087298 0
11.870000 -0.086411 0
11.875000 -0.085521 0
11.880000 -0.084621 0
11.885000 -0.083699 0
11.890000 -0.082735 0
11.895000 -0.081692 0
11.900000 -0.080516 0
11.905000 -0.079118 0
11.910000 -0.077368 0
11.915000 -0.075081 0
11.920000 -0.072000 0
11.925000 -0.067791 0
11.930000 -0.062039 0
11.935000 -0.054260 0
11.940000 -0.043926 0
11.945000 -0.030522 0
11.950000 -0.013610 0
11.955000 0.007076 0
11.960000 0.031534 0
11.965000 0.059407 0
11.970000 0.089917 0
11.975000 0.121853 0
11.980000 0.153611 0
11.985000 0.183315 0
11.990000 0.208982 0
11.995000 0.228746 0
12.000000 0.241072 0
12.005000 0.244959 1
12.010000 0.240073 0
12.015000 0.226790 0
12.020000 0.206155 0
12.025000 0.179737 0
12.030000 0.149434 0
12.035000 0.117224 0
12.040000 0.084857 0
12.045000 0.053432 0
12.050000 0.022728 0
12.055000 -0.009585 0
12.060000 -0.048029 0
12.065000 -0.097130 0
12.070000 -0.156178 0
12.075000 -0.213365 0
12.080000 -0.244364 2
12.085000 -0.217741 0
12.090000 -0.103835 0
12.095000 0.115293 0
12.100000 0.430476 0
12.105000 0.785691 0
12.110000 1.076315 0
12.115000 1.190252 3
12.120000 1.076898 0
12.125000 0.779228 0
12.130000 0.403374 0
12.135000 0.056506 0
12.140000 -0.195177 0
12.145000 -0.330056 0
12.150000 -0.357848 4
12.155000 -0.308486 0
12.160000 -0.221579 0
12.165000 -0.132392 0
12.170000 -0.060646 0
12.175000 -0.009514 0
12.180000 0.027145 0
12.185000 0.056894 0
12.190000 0.084840 0
12.195000 0.113353 0
12.200000 0.143105 0
12.205000 0.173974 0
12.210000 0.205512 0
12.215000 0.237122 0
12.220000 0.268118 0
12.225000 0.297767 0
12.230000 0.325307 0
12.235000 0.349990 0
12.240000 0.371104 0
12.245000 0.388016 0
12.250000 0.400196 0
12.255000 0.407250 0
12.260000 0.408935 5
12.265000 0.405174 0
12.270000 0.396062 0
12.275000 0.381863 0
12.280000 0.362991 0
12.285000 0.339994 0
12.290000 0.313528 0
12.295000 0.284320 0
12.300000 0.253142 0
12.305000 0.220770 0
12.310000 0.187959 0
12.315000 0.155408 0
12.320000 0.123743 0
12.325000 0.093498 0
12.330000 0.065101 0
12.335000 0.038877 0
12.340000 0.015041 0
12.345000 -0.006289 0
12.350000 -0.025086 0
12.355000 -0.041400 0
12.360000 -0.055339 0
12.365000 -0.067064 0
12.370000 -0.076763 0
12.375000 -0.084647 0
12.380000 -0.090932 0
12.385000 -0.095833 0
12.390000 -0.099557 0
12.395000 -0.102293 0
12.400000 -0.104214 0
12.405000 -0.105473 0
12.410000 -0.104825 0
12.415000 -0.103858 0
12.420000 -0.102896 0
12.425000 -0.101939 0
12.430000 -0.100986 0
12.435000 -0.100037 0
12.440000 -0.099092 0
12.445000 -0.098149 0
12.450000 -0.097207 0
12.455000 -0.096260 0
12.460000 -0.095302 0
12.465000 -0.094319 0
12.470000 -0.093288 0
12.475000 -0.092170 0
12.480000 -0.090907 0
12.485000 -0.089404 0
12.490000 -0.087527 0
12.495000 -0.085082 0
12.500000 -0.081807 0
12.505000 -0.077363 0
12.510000 -0.071333 0
12.515000 -0.063237 0
12.520000 -0.052556 0
12.525000 -0.038788 0
12.530000 -0.021519 0
12.535000 -0.000505 0
12.540000 0.024229 0
12.545000 0.052308 0
12.550000 0.082949 0
12.555000 0.114947 0
12.560000 0.146721 0
12.565000 0.176428 0
12.570000 0.202129 0
12.575000 0.221993 0
12.580000 0.234515 0
12.585000 0.238701 1
12.590000 0.234204 0
12.595000 0.221364 0
12.600000 0.201174 0
12.605000 0.175145 0
12.610000 0.145122 0
12.615000 0.113044 0
12.620000 0.080663 0
12.625000 0.049149 0
12.630000 0.018475 0
12.635000 -0.013351 0
12.640000 -0.050530 0
12.645000 -0.097761 0
12.650000 -0.155581 0
12.655000 -0.214513 0
12.660000 -0.252677 2
12.665000 -0.239946 0
12.670000 -0.146198 0
12.675000 0.049525 0
12.680000 0.345780 0
12.685000 0.699534 0
12.690000 1.017713 0
12.695000 1.186204 3
12.700000 1.130082 0
12.705000 0.867770 0
12.710000 0.499002 0
12.715000 0.139574 0
12.720000 -0.132057 0
12.725000 -0.285954 0
12.730000 -0.327791 4
12.735000 -0.286162 0
12.740000 -0.201573 0
12.745000 -0.111707 0
12.750000 -0.038637 0
12.755000 0.013312 0
12.760000 0.050199 0
12.765000 0.079890 0
12.770000 0.107724 0
12.775000 0.136154 0
12.780000 0.165851 0
12.785000 0.196671 0
12.790000 0.228136 0
12.795000 0.259618 0
12.800000 0.290401 0
12.805000 0.319718 0
12.810000 0.346779 0
12.815000 0.370811 0
12.820000 0.391088 0
12.825000 0.406970 0
12.830000 0.417935 0
12.835000 0.423607 0
12.840000 0.423775 5
12.845000 0.418406 0
12.850000 0.407650 0
12.855000 0.391826 0
12.860000 0.371412 0
12.865000 0.347017 0
12.870000 0.319351 0
12.875000 0.289190 0
12.880000 0.257339 0
12.885000 0.224599 0
12.890000 0.191731 0
12.895000 0.159428 0
12.900000 0.128297 0
12.905000 0.098839 0
12.910000 0.071445 0
12.915000 0.046392 0
12.920000 0.023847 0
12.925000 0.003879 0
12.930000 -0.013532 0
12.935000 -0.028476 0
12.940000 -0.041099 0
12.945000 -0.051588 0
12.950000 -0.060154 0
12.955000 -0.067022 0
12.960000 -0.072416 0
12.965000 -0.076552 0
12.970000 -0.079633 0
12.975000 -0.081842 0
12.980000 -0.083343 0
12.985000 -0.082824 0
12.990000 -0.081967 0
12.995000 -0.081114 0
13.000000 -0.080265 0
13.005000 -0.079420 0
13.010000 -0.078579 0
13.015000 -0.077741 0
13.020000 -0.076905 0
13.025000 -0.076069 0
13.030000 -0.075229 0
13.035000 -0.074376 0
13.040000 -0.073497 0
13.045000 -0.072567 0
13.050000 -0.071548 0
13.055000 -0.070375 0
13.060000 -0.068951 0
13.065000 -0.067128 0
13.070000 -0.064702 0
13.075000 -0.061390 0
13.080000 -0.056830 0
13.085000 -0.050578 0
13.090000 -0.042126 0
13.095000 -0.030934 0
13.100000 -0.016496 0
13.105000 0.001589 0
13.110000 0.023512 0
13.115000 0.049160 0
13.120000 0.078028 0
13.125000 0.109171 0
13.130000 0.141206 0
13.135000 0.172386 0
13.140000 0.200742 0
13.145000 0.224278 0
13.150000 0.241202 0
13.155000 0.250152 0
13.160000 0.250374 1
13.165000 0.241826 0
13.170000 0.225188 0
13.175000 0.201770 0
13.180000 0.173343 0
13.185000 0.141902 0
13.190000 0.109394 0
13.195000 0.077358 0
13.200000 0.046379 0
13.205000 0.015295 0
13.210000 -0.019431 0
13.215000 -0.062867 0
13.220000 -0.117745 0
13.225000 -0.178181 0
13.230000 -0.225333 0
13.235000 -0.229684 2
13.240000 -0.159116 0
13.245000 0.011505 0
13.250000 0.287738 0
13.255000 0.635838 0
13.260000 0.968778 0
13.265000 1.168151 3
13.270000 1.151362 0
13.275000 0.922223 0
13.280000 0.565772 0
13.285000 0.195134 0
13.290000 -0.103811 0
13.295000 -0.291363 0
13.300000 -0.364900 4
13.305000 -0.346161 0
13.310000 -0.271564 0
13.315000 -0.179837 0
13.320000 -0.098530 0
13.325000 -0.037959 0
13.330000 0.004686 0
13.335000 0.036989 0
13.340000 0.065399 0
13.345000 0.093497 0
13.350000 0.122639 0
13.355000 0.153013 0
13.360000 0.184304 0
13.365000 0.215983 0
13.370000 0.247410 0
13.375000 0.277881 0
13.380000 0.306651 0
13.385000 0.332967 0
13.390000 0.356102 0
13.395000 0.375383 0
13.400000 0.390225 0
13.405000 0.400163 0
13.410000 0.404869 5
13.415000 0.404176 0
13.420000 0.398083 0
13.425000 0.386758 0
13.430000 0.370528 0
13.435000 0.349864 0
13.440000 0.325357 0
13.445000 0.297690 0
13.450000 0.267607 0
13.455000 0.235877 0
13.460000 0.203264 0
13.465000 0.170498 0
13.470000 0.138246 0
13.475000 0.107092 0
13.480000 0.077528 0
13.485000 0.049939 0
13.490000 0.024605 0
13.495000 0.001702 0
13.500000 -0.018687 0
13.505000 -0.036564 0
13.510000 -0.052000 0
13.515000 -0.065125 0
13.520000 -0.076106 0
13.525000 -0.085141 0
13.530000 -0.092441 0
13.535000 -0.098221 0
13.540000 -0.102692 0
13.545000 -0.106053 0
13.550000 -0.108488 0
13.555000 -0.110161 0
13.560000 -0.110918 0
13.565000 -0.109921 0
13.570000 -0.108929 0
13.575000 -0.107941 0
13.580000 -0.106958 0
13.585000 -0.105980 0
13.590000 -0.105006 0
13.595000 -0.104036 0
13.600000 -0.103068 0
13.605000 -0.102099 0
13.610000 -0.101125 0
13.615000 -0.100137 0
13.620000 -0.099119 0
13.625000 -0.098046 0
13.630000 -0.096875 0
13.635000 -0.095540 0
13.640000 -0.093940 0
13.645000 -0.091930 0
13.650000 -0.089302 0
13.655000 -0.085782 0
13.660000 -0.081016 0
13.665000 -0.074576 0
13.670000 -0.065976 0
13.675000 -0.054700 0
13.680000 -0.040263 0
13.685000 -0.022278 0
13.690000 -0.000549 0
13.695000 0.024844 0
13.700000 0.053459 0
13.705000 0.084446 0
13.710000 0.116543 0
13.715000 0.148134 0
13.720000 0.177362 0
13.725000 0.202310 0
13.730000 0.221200 0
13.735000 0.232602 0
13.740000 0.235620 1
13.745000 0.229998 0
13.750000 0.216167 0
13.755000 0.195183 0
13.760000 0.168596 0
13.765000 0.138258 0
13.770000 0.106084 0
13.775000 0.073772 0
13.780000 0.042388 0
13.785000 0.011746 0
13.790000 -0.020342 0
13.795000 -0.058195 0
13.800000 -0.106343 0
13.805000 -0.164722 0
13.810000 -0.223014 0
13.815000 -0.258741 2
13.820000 -0.241772 0
13.825000 -0.142548 0
13.830000 0.058854 0
13.835000 0.359330 0
13.840000 0.713845 0
13.845000 1.028303 0
13.850000 1.189931 3
13.855000 1.126048 0
13.860000 0.858056 0
13.865000 0.487718 0
13.870000 0.130498 0
13.875000 -0.136801 0
13.880000 -0.285845 0
13.885000 -0.323472 4
13.890000 -0.279102 0
13.895000 -0.193566 0
13.900000 -0.104165 0
13.905000 -0.032153 0
13.910000 0.018842 0
13.915000 0.055166 0
13.920000 0.084638 0
13.925000 0.112448 0
13.930000 0.140926 0
13.935000 0.170680 0
13.940000 0.201537 0
13.945000 0.233007 0
13.950000 0.264453 0
13.955000 0.295152 0
13.960000 0.324333 0
13.965000 0.351204 0
13.970000 0.374990 0
13.975000 0.394969 0
13.980000 0.410506 0
13.985000 0.421087 0
13.990000 0.426346 5
13.995000 0.426084 0
14.000000 0.420283 0
14.005000 0.409104 0
14.010000 0.392883 0
14.015000 0.372109 0
14.020000 0.347403 0
14.025000 0.319484 0
14.030000 0.289134 0
14.035000 0.257161 0
14.040000 0.224367 0
14.045000 0.191508 0
14.050000 0.159275 0
14.055000 0.128266 0
14.060000 0.098975 0
14.065000 0.071781 0
14.070000 0.046952 0
14.075000 0.024647 0
14.080000 0.004923 0
14.085000 -0.012246 0
14.090000 -0.026956 0
14.095000 -0.039360 0
14.100000 -0.049649 0
14.105000 -0.058037 0
14.110000 -0.064747 0
14.115000 -0.070006 0
14.120000 -0.074028 0
14.125000 -0.077015 0
14.130000 -0.079149 0
14.135000 -0.080591 0
14.140000 -0.080075 0
14.145000 -0.079232 0
14.150000 -0.078392 0
14.155000 -0.077557 0
14.160000 -0.076726 0
14.165000 -0.075898 0
14.170000 -0.075073 0
14.175000 -0.074250 0
14.180000 -0.073426 0
14.185000 -0.072597 0
14.190000 -0.071755 0
14.195000 -0.070883 0
14.200000 -0.069957 0
14.205000 -0.068933 0
14.210000 -0.067744 0
14.215000 -0.066286 0
14.220000 -0.064404 0
14.225000 -0.061881 0
14.230000 -0.058424 0
14.235000 -0.053658 0
14.240000 -0.047125 0
14.245000 -0.038308 0
14.250000 -0.026668 0
14.255000 -0.011706 0
14.260000 0.006954 0
14.265000 0.029463 0
14.270000 0.055650 0
14.275000 0.084944 0
14.280000 0.116323 0
14.285000 0.148336 0
14.290000 0.179183 0
14.295000 0.206870 0
14.300000 0.229413 0
14.305000 0.245072 0
14.310000 0.252571 1
14.315000 0.251270 0
14.320000 0.241253 0
14.325000 0.223319 0
14.330000 0.198879 0
14.335000 0.169763 0
14.340000 0.137986 0
14.345000 0.105459 0
14.350000 0.073601 0
14.355000 0.042745 0
14.360000 0.011316 0
14.365000 -0.024650 0
14.370000 -0.070198 0
14.375000 -0.126949 0
14.380000 -0.186723 0
14.385000 -0.228181 2
14.390000 -0.220498 0
14.395000 -0.132052 0
14.400000 0.059740 0
14.405000 0.354449 0
14.410000 0.708080 0
14.415000 1.023765 0
14.420000 1.183340 3
14.425000 1.118896 0
14.430000 0.854062 0
14.435000 0.485471 0
14.440000 0.124461 0
14.445000 -0.152437 0
14.450000 -0.314572 0
14.455000 -0.365516 4
14.460000 -0.331116 0
14.465000 -0.249621 0
14.470000 -0.158433 0
14.475000 -0.081473 0
14.480000 -0.025502 0
14.485000 0.014098 0
14.490000 0.045036 0
14.495000 0.073150 0
14.500000 0.101420 0
14.505000 0.130853 0
14.510000 0.161476 0
14.515000 0.192906 0
14.520000 0.224581 0
14.525000 0.255840 0
14.530000 0.285963 0
14.535000 0.314201 0
14.540000 0.339800 0
14.545000 0.362041 0
14.550000 0.380267 0
14.555000 0.393920 0
14.560000 0.402565 0
14.565000 0.405912 5
14.570000 0.403836 0
14.575000 0.396378 0
14.580000 0.383749 0
14.585000 0.366316 0
14.590000 0.344586 0
14.595000 0.319177 0
14.600000 0.290794 0
14.605000 0.260194 0
14.610000 0.228150 0
14.615000 0.195422 0
14.620000 0.162727 0
14.625000 0.130713 0
14.630000 0.099945 0
14.635000 0.070884 0
14.640000 0.043889 0
14.645000 0.019211 0
14.650000 -0.002999 0
14.655000 -0.022684 0
14.660000 -0.039867 0
14.665000 -0.054637 0
14.670000 -0.067137 0
14.675000 -0.077544 0
14.680000 -0.086061 0
14.685000 -0.092904 0
14.690000 -0.098286 0
14.695000 -0.102418 0
14.700000 -0.105494 0
14.705000 -0.107693 0
14.710000 -0.109174 0
14.715000 -0.109802 0
14.720000 -0.108810 0
14.725000 -0.107823 0
14.730000 -0.106841 0
14.735000 -0.105864 0
14.740000 -0.104891 0
14.745000 -0.103922 0
14.750000 -0.102957 0
14.755000 -0.101993 0
14.760000 -0.101027 0
14.765000 -0.100053 0
14.770000 -0.099062 0
14.775000 -0.098033 0
14.780000 -0.096938 0
14.785000 -0.095726 0
14.790000 -0.094322 0
14.795000 -0.092611 0
14.800000 -0.090428 0
14.805000 -0.087544 0
14.810000 -0.083659 0
14.815000 -0.078391 0
14.820000 -0.071290 0
14.825000 -0.061853 0
14.830000 -0.049566 0
14.835000 -0.033967 0
14.840000 -0.014721 0
14.845000 0.008283 0
14.850000 0.034849 0
14.855000 0.064397 0
14.860000 0.095929 0
14.865000 0.128046 0
14.870000 0.159027 0
14.875000 0.186967 0
14.880000 0.209965 0
14.885000 0.226340 0
14.890000 0.234827 1
14.895000 0.234748 0
14.900000 0.226093 0
14.905000 0.209530 0
14.910000 0.186315 0
14.915000 0.158139 0
14.920000 0.126911 0
14.925000 0.094510 0
14.930000 0.062464 0
14.935000 0.031466 0
14.940000 0.000664 0
14.945000 -0.032991 0
14.950000 -0.074294 0
14.955000 -0.126750 0
14.960000 -0.186994 0
14.965000 -0.239938 0
14.970000 -0.259281 2
14.975000 -0.213992 0
14.980000 -0.076950 0
14.985000 0.164949 0
14.990000 0.494557 0
14.995000 0.846833 0
15.000000 1.114039 0
15.005000 1.192352 3
15.010000 1.042517 0
15.015000 0.721551 0
15.020000 0.343961 0
15.025000 0.013925 0
15.030000 -0.210945 0
15.035000 -0.317148 0
15.040000 -0.320858 4
15.045000 -0.256868 0
15.050000 -0.166309 0
15.055000 -0.081556 0
15.060000 -0.017130 0
15.065000 0.027901 0
15.070000 0.061126 0
15.075000 0.089639 0
15.080000 0.117544 0
15.085000 0.146450 0
15.090000 0.176626 0
15.095000 0.207765 0
15.100000 0.239321 0
15.105000 0.270629 0
15.110000 0.300954 0
15.115000 0.329520 0
15.120000 0.355541 0
15.125000 0.378259 0
15.130000 0.396981 0
15.135000 0.411109 0
15.140000 0.420172 0
15.145000 0.423855 5
15.150000 0.422012 0
15.155000 0.414676 0
15.160000 0.402057 0
15.165000 0.384535 0
15.170000 0.362634 0
15.175000 0.337001 0
15.180000 0.308371 0
15.185000 0.277531 0
15.190000 0.245285 0
15.195000 0.212422 0
15.200000 0.179677 0
15.205000 0.147716 0
15.210000 0.117108 0
15.215000 0.088316 0
15.220000 0.061689 0
15.225000 0.037466 0
15.230000 0.015781 0
15.235000 -0.003329 0
15.240000 -0.019910 0
15.245000 -0.034070 0
15.250000 -0.045971 0
15.255000 -0.055809 0
15.260000 -0.063799 0
15.265000 -0.070165 0
15.270000 -0.075130 0
15.275000 -0.078906 0
15.280000 -0.081688 0
15.285000 -0.083653 0
15.290000 -0.084957 0
15.295000 -0.084403 0
15.300000 -0.083538 0
15.305000 -0.082677 0
15.310000 -0.081820 0
15.315000 -0.080967 0
15.320000 -0.080118 0
15.325000 -0.079272 0
15.330000 -0.078428 0
15.335000 -0.077582 0
15.340000 -0.076730 0
15.345000 -0.075863 0
15.350000 -0.074964 0
15.355000 -0.074005 0
15.360000 -0.072941 0
15.365000 -0.071701 0
15.370000 -0.070173 0
15.375000 -0.068198 0
15.380000 -0.065550 0
15.385000 -0.061928 0
15.390000 -0.056946 0
15.395000 -0.050143 0
15.400000 -0.040999 0
15.405000 -0.028980 0
15.410000 -0.013600 0
15.415000 0.005494 0
15.420000 0.028423 0
15.425000 0.054979 0
15.430000 0.084548 0
15.435000 0.116073 0
15.440000 0.148075 0
15.445000 0.178740 0
15.450000 0.206080 0
15.455000 0.228135 0
15.460000 0.243207 0
15.465000 0.250073 1
15.470000 0.248148 0
15.475000 0.237571 0
15.480000 0.219179 0
15.485000 0.194408 0
15.490000 0.165095 0
15.495000 0.133245 0
15.500000 0.100739 0
15.505000 0.068949 0
15.510000 0.038135 0
15.515000 0.006631 0
15.520000 -0.029593 0
15.525000 -0.075523 0
15.530000 -0.132542 0
15.535000 -0.192140 0
15.540000 -0.232771 2
15.545000 -0.223678 0
15.550000 -0.133529 0
15.555000 0.059852 0
15.560000 0.355583 0
15.565000 0.709389 0
15.570000 1.024676 0
15.575000 1.184059 3
15.580000 1.118946 0
15.585000 0.852932 0
15.590000 0.483828 0
15.595000 0.123738 0
15.600000 -0.150895 0
15.605000 -0.310011 0
15.610000 -0.357915 4
15.615000 -0.321220 0
15.620000 -0.238730 0
15.625000 -0.147840 0
15.630000 -0.071913 0
15.635000 -0.017027 0
15.640000 0.021834 0
15.645000 0.052428 0
15.650000 0.080461 0
15.655000 0.108772 0
15.660000 0.138277 0
15.665000 0.168959 0
15.670000 0.200409 0
15.675000 0.232051 0
15.680000 0.263211 0
15.685000 0.293159 0
15.690000 0.321135 0
15.695000 0.346382 0
15.700000 0.368178 0
15.705000 0.385872 0
15.710000 0.398912 0
15.715000 0.406876 0
15.720000 0.409492 5
15.725000 0.406657 0
15.730000 0.398434 0
15.735000 0.385060 0
15.740000 0.366927 0
15.745000 0.344564 0
15.750000 0.318613 0
15.755000 0.289794 0
15.760000 0.258875 0
15.765000 0.226638 0
15.770000 0.193844 0
15.775000 0.161206 0
15.780000 0.129364 0
15.785000 0.098867 0
15.790000 0.070164 0
15.795000 0.043594 0
15.800000 0.019390 0
15.805000 -0.002316 0
15.810000 -0.021484 0
15.815000 -0.038153 0
15.820000 -0.052426 0
15.825000 -0.064456 0
15.830000 -0.074430 0
15.835000 -0.082556 0
15.840000 -0.089051 0
15.845000 -0.094131 0
15.850000 -0.098005 0
15.855000 -0.100867 0
15.860000 -0.102890 0
15.865000 -0.104231 0
15.870000 -0.103601 0
15.875000 -0.102640 0
15.880000 -0.101684 0
15.885000 -0.100733 0
15.890000 -0.099786 0
15.895000 -0.098843 0
15.900000 -0.097904 0
15.905000 -0.096968 0
15.910000 -0.096032 0
15.915000 -0.095093 0
15.920000 -0.094143 0
15.925000 -0.093170 0
15.930000 -0.092151 0
15.935000 -0.091052 0
15.940000 -0.089814 0
15.945000 -0.088348 0
15.950000 -0.086523 0
15.955000 -0.084151 0
15.960000 -0.080979 0
15.965000 -0.076672 0
15.970000 -0.070821 0
15.975000 -0.062948 0
15.980000 -0.052536 0
15.985000 -0.039076 0
15.990000 -0.022142 0
15.995000 -0.001469 0
16.000000 0.022945 0
16.005000 0.050757 0
16.010000 0.081218 0
16.015000 0.113154 0
16.020000 0.145008 0
16.025000 0.174948 0
16.030000 0.201026 0
16.035000 0.221392 0
16.040000 0.234503 0
16.045000 0.239320 1
16.050000 0.235442 0
16.055000 0.223163 0
16.060000 0.203433 0
16.065000 0.177740 0
16.070000 0.147916 0
16.075000 0.115910 0
16.080000 0.083502 0
16.085000 0.051915 0
16.090000 0.021219 0
16.095000 -0.010448 0
16.100000 -0.047191 0
16.105000 -0.093791 0
16.110000 -0.151176 0
16.115000 -0.210494 0
16.120000 -0.250404 2
16.125000 -0.240926 0
16.130000 -0.151641 0
16.135000 0.039152 0
16.140000 0.331442 0
16.145000 0.684298 0
16.150000 1.006272 0
16.155000 1.182664 3
16.160000 1.136720 0
16.165000 0.882846 0
16.170000 0.516848 0
16.175000 0.153887 0
16.180000 -0.125518 0
16.185000 -0.288775 0
16.190000 -0.339267 4
16.195000 -0.303668 0
16.200000 -0.221419 0
16.205000 -0.130665 0
16.210000 -0.055132 0
16.215000 -0.000803 0
16.220000 0.037578 0
16.225000 0.067893 0
16.230000 0.095823 0
16.235000 0.124130 0
16.240000 0.153664 0
16.245000 0.184365 0
16.250000 0.215797 0
16.255000 0.247360 0
16.260000 0.278361 0
16.265000 0.308049 0
16.270000 0.335649 0
16.275000 0.360391 0
16.280000 0.381547 0
16.285000 0.398465 0
16.290000 0.410604 0
16.295000 0.417557 0
16.300000 0.419078 5
16.305000 0.415092 0
16.310000 0.405703 0
16.315000 0.391184 0
16.320000 0.371969 0
16.325000 0.348626 0
16.330000 0.321831 0
16.335000 0.292336 0
16.340000 0.260929 0
16.345000 0.228406 0
16.350000 0.195530 0
16.355000 0.163011 0
16.360000 0.131474 0
16.365000 0.101450 0
16.370000 0.073358 0
16.375000 0.047511 0
16.380000 0.024110 0
16.385000 0.003254 0
16.390000 -0.015046 0
16.395000 -0.030855 0
16.400000 -0.044298 0
16.405000 -0.055548 0
16.410000 -0.064806 0
16.415000 -0.072287 0
16.420000 -0.078215 0
16.425000 -0.082807 0
16.430000 -0.086269 0
16.435000 -0.088791 0
16.440000 -0.090542 0
16.445000 -0.091377 0
16.450000 -0.090477 0
16.455000 -0.089582 0
16.460000 -0.088691 0
16.465000 -0.087804 0
16.470000 -0.086921 0
16.475000 -0.086042 0
16.480000 -0.085166 0
16.485000 -0.084291 0
16.490000 -0.083415 0
16.495000 -0.082531 0
16.500000 -0.081629 0
16.505000 -0.080692 0
16.510000 -0.079689 0
16.515000 -0.078571 0
16.520000 -0.077261 0
16.525000 -0.075643 0
16.530000 -0.073548 0
16.535000 -0.070742 0
16.540000 -0.066912 0
16.545000 -0.061667 0
16.550000 -0.054540 0
16.555000 -0.045010 0
16.560000 -0.032551 0
16.565000 -0.016695 0
16.570000 0.002886 0
16.575000 0.026275 0
16.580000 0.053225 0
16.585000 0.083081 0
16.590000 0.114750 0
16.595000 0.146730 0
16.600000 0.177201 0
16.605000 0.204189 0
16.610000 0.225767 0
16.615000 0.240285 0
16.620000 0.246573 1
16.625000 0.244102 0
16.630000 0.233052 0
16.635000 0.214295 0
16.640000 0.189277 0
16.645000 0.159831 0
16.650000 0.127942 0
16.655000 0.095463 0
16.660000 0.063725 0
16.665000 0.032946 0
16.670000 0.001425 0
16.675000 -0.034866 0
16.680000 -0.080858 0
16.685000 -0.137877 0
16.690000 -0.197473 0
16.695000 -0.238348 2
16.700000 -0.230089 0
16.705000 -0.141623 0
16.710000 0.049277 0
16.715000 0.342507 0
16.720000 0.695722 0
16.725000 1.014776 0
16.730000 1.183055 3
16.735000 1.127724 0
16.740000 0.867866 0
16.745000 0.500302 0
16.750000 0.138699 0
16.755000 -0.138428 0
16.760000 -0.299727 0
16.765000 -0.349020 4
16.770000 -0.312936 0
16.775000 -0.230590 0
16.780000 -0.139759 0
16.785000 -0.064006 0
16.790000 -0.009377 0
16.795000 0.029258 0
16.800000 0.059717 0
16.805000 0.087700 0
16.810000 0.116010 0
16.815000 0.145531 0
16.820000 0.176223 0
16.825000 0.207667 0
16.830000 0.239272 0
16.835000 0.270357 0
16.840000 0.300180 0
16.845000 0.327974 0
16.850000 0.352976 0
16.855000 0.374461 0
16.860000 0.391776 0
16.865000 0.404374 0
16.870000 0.411842 0
16.875000 0.413920 5
16.880000 0.410517 0
16.885000 0.401718 0
16.890000 0.387777 0
16.895000 0.369107 0
16.900000 0.346256 0
16.905000 0.319883 0
16.910000 0.290724 0
16.915000 0.259558 0
16.920000 0.227174 0
16.925000 0.194334 0
16.930000 0.161749 0
16.935000 0.130053 0
16.940000 0.099787 0
16.945000 0.071384 0
16.950000 0.045172 0
16.955000 0.021366 0
16.960000 0.000083 0
16.965000 -0.018652 0
16.970000 -0.034890 0
16.975000 -0.048747 0
16.980000 -0.060384 0
16.985000 -0.069996 0
16.990000 -0.077795 0
16.995000 -0.084002 0
17.000000 -0.088834 0
17.005000 -0.092497 0
17.010000 -0.095184 0
17.015000 -0.097066 0
17.020000 -0.098297 0
17.025000 -0.097675 0
17.030000 -0.096744 0
17.035000 -0.095817 0
17.040000 -0.094895 0
17.045000 -0.093977 0
17.050000 -0.093063 0
17.055000 -0.092153 0
17.060000 -0.091244 0
17.065000 -0.090335 0
17.070000 -0.089421 0
17.075000 -0.088493 0
17.080000 -0.087536 0
17.085000 -0.086524 0
17.090000 -0.085416 0
17.095000 -0.084144 0
17.100000 -0.082607 0
17.105000 -0.080656 0
17.110000 -0.078080 0
17.115000 -0.074598 0
17.120000 -0.069847 0
17.125000 -0.063387 0
17.130000 -0.054719 0
17.135000 -0.043316 0
17.140000 -0.028686 0
17.145000 -0.010444 0
17.150000 0.011590 0
17.155000 0.037302 0
17.160000 0.066199 0
17.165000 0.097361 0
17.170000 0.129448 0
17.175000 0.160764 0
17.180000 0.189390 0
17.185000 0.213374 0
17.190000 0.230944 0
17.195000 0.240729 0
17.200000 0.241930 1
17.205000 0.234432 0
17.210000 0.218821 0
17.215000 0.196305 0
17.220000 0.168562 0
17.225000 0.137525 0
17.230000 0.105124 0
17.235000 0.072967 0
17.240000 0.041855 0
17.245000 0.011064 0
17.250000 -0.022362 0
17.255000 -0.063255 0
17.260000 -0.115346 0
17.265000 -0.175557 0
17.270000 -0.228859 0
17.275000 -0.248618 2
17.280000 -0.203231 0
17.285000 -0.065089 0
17.290000 0.178890 0
17.295000 0.510328 0
17.300000 0.861357 0
17.305000 1.121275 0
17.310000 1.186392 3
17.315000 1.024924 0
17.320000 0.698782 0
17.325000 0.321282 0
17.330000 -0.006607 0
17.335000 -0.229631 0
17.340000 -0.335139 0
17.345000 -0.339136 4
17.350000 -0.275708 0
17.355000 -0.185237 0
17.360000 -0.099848 0
17.365000 -0.034389 0
17.370000 0.011578 0
17.375000 0.045379 0
17.380000 0.074125 0
17.385000 0.102058 0
17.390000 0.130910 0
17.395000 0.161026 0
17.400000 0.192141 0
17.405000 0.223739 0
17.410000 0.255179 0
17.415000 0.285747 0
17.420000 0.314685 0
17.425000 0.341223 0
17.430000 0.364612 0
17.435000 0.384157 0
17.440000 0.399253 0
17.445000 0.409414 0
17.450000 0.414299 5
17.455000 0.413726 0
17.460000 0.407692 0
17.465000 0.396363 0
17.470000 0.380071 0
17.475000 0.359300 0
17.480000 0.334654 0
17.485000 0.306834 0
17.490000 0.276601 0
17.495000 0.244744 0
17.500000 0.212042 0
17.505000 0.179237 0
17.510000 0.147006 0
17.515000 0.115938 0
17.520000 0.086524 0
17.525000 0.059146 0
17.530000 0.034077 0
17.535000 0.011483 0
17.540000 -0.008564 0
17.545000 -0.026079 0
17.550000 -0.041147 0
17.555000 -0.053906 0
17.560000 -0.064537 0
17.565000 -0.073244 0
17.570000 -0.080245 0
17.575000 -0.085760 0
17.580000 -0.090001 0
17.585000 -0.093170 0
17.590000 -0.095448 0
17.595000 -0.096999 0
17.600000 -0.097689 0
17.605000 -0.096758 0
17.610000 -0.095831 0
17.615000 -0.094909 0
17.620000 -0.093991 0
17.625000 -0.093078 0
17.630000 -0.092168 0
17.635000 -0.091261 0
17.640000 -0.090355 0
17.645000 -0.089446 0
17.650000 -0.088529 0
17.655000 -0.087591 0
17.660000 -0.086613 0
17.665000 -0.085563 0
17.670000 -0.084387 0
17.675000 -0.083003 0
17.680000 -0.081287 0
17.685000 -0.079063 0
17.690000 -0.076085 0
17.695000 -0.072033 0
17.700000 -0.066505 0
17.705000 -0.059029 0
17.710000 -0.049086 0
17.715000 -0.036158 0
17.720000 -0.019793 0
17.725000 0.000303 0
17.730000 0.024179 0
17.735000 0.051543 0
17.740000 0.081693 0
17.745000 0.113500 0
17.750000 0.145435 0
17.755000 0.175672 0
17.760000 0.202249 0
17.765000 0.223274 0
17.770000 0.237146 0
17.775000 0.242757 1
17.780000 0.239638 0
17.785000 0.228023 0
17.790000 0.208819 0
17.795000 0.183491 0
17.800000 0.153872 0
17.805000 0.121931 0
17.810000 0.089484 0
17.815000 0.057816 0
17.820000 0.027079 0
17.825000 -0.004499 0
17.830000 -0.040975 0
17.835000 -0.087215 0
17.840000 -0.144378 0
17.845000 -0.203866 0
17.850000 -0.244405 2
17.855000 -0.235810 0
17.860000 -0.147311 0
17.865000 0.043119 0
17.870000 0.335544 0
17.875000 0.688506 0
17.880000 1.009350 0
17.885000 1.182357 3
17.890000 1.132138 0
17.895000 0.875211 0
17.900000 0.508306 0
17.905000 0.146273 0
17.910000 -0.131256 0
17.915000 -0.292464 0
17.920000 -0.341223 4
17.925000 -0.304501 0
17.930000 -0.221822 0
17.935000 -0.131165 0
17.940000 -0.055952 0
17.945000 -0.001918 0
17.950000 0.036292 0
17.955000 0.066546 0
17.960000 0.094476 0
17.965000 0.122807 0
17.970000 0.152368 0
17.975000 0.183091 0
17.980000 0.214538 0
17.985000 0.246107 0
17.990000 0.277104 0
17.995000 0.306778 0
18.000000 0.334355 0
18.005000 0.359065 0
18.010000 0.380182 0
18.015000 0.397055 0
18.020000 0.409144 0
18.025000 0.416045 0
18.030000 0.417513 5
18.035000 0.413477 0
18.040000 0.404040 0
18.045000 0.389479 0
18.050000 0.370227 0
18.055000 0.346855 0
18.060000 0.320040 0
18.065000 0.290531 0
18.070000 0.259119 0
18.075000 0.226597 0
18.080000 0.193729 0
18.085000 0.161223 0
18.090000 0.129704 0
18.095000 0.099700 0
18.100000 0.071632 0
18.105000 0.045808 0
18.110000 0.022431 0
18.115000 0.001599 0
18.120000 -0.016677 0
18.125000 -0.032464 0
18.130000 -0.045887 0
18.135000 -0.057119 0
18.140000 -0.066358 0
18.145000 -0.073824 0
18.150000 -0.079738 0
18.155000 -0.084317 0
18.160000 -0.087768 0
18.165000 -0.090280 0
18.170000 -0.092021 0
18.175000 -0.092847 0
18.180000 -0.091939 0
18.185000 -0.091037 0
18.190000 -0.090138 0
18.195000 -0.089245 0
18.200000 -0.088355 0
18.205000 -0.087469 0
18.210000 -0.086585 0
18.215000 -0.085704 0
18.220000 -0.084820 0
18.225000 -0.083929 0
18.230000 -0.083020 0
18.235000 -0.082076 0
18.240000 -0.081066 0
18.245000 -0.079942 0
18.250000 -0.078625 0
18.255000 -0.077001 0
18.260000 -0.074900 0
18.265000 -0.072088 0
18.270000 -0.068254 0
18.275000 -0.063006 0
18.280000 -0.055877 0
18.285000 -0.046348 0
18.290000 -0.033893 0
18.295000 -0.018041 0
18.300000 0.001532 0
18.305000 0.024914 0
18.310000 0.051857 0
18.315000 0.081709 0
18.320000 0.113379 0
18.325000 0.145367 0
18.330000 0.175857 0
18.335000 0.202875 0
18.340000 0.224495 0
18.345000 0.239064 0
18.350000 0.245411 1
18.355000 0.243002 0
18.360000 0.232014 0
18.365000 0.213313 0
18.370000 0.188339 0
18.375000 0.158925 0
18.380000 0.127053 0
18.385000 0.094578 0
18.390000 0.062837 0
18.395000 0.032059 0
18.400000 0.000565 0
18.405000 -0.035653 0
18.410000 -0.081531 0
18.415000 -0.138458 0
18.420000 -0.198107 0
18.425000 -0.239313 2
18.430000 -0.231732 0
18.435000 -0.144266 0
18.440000 0.045454 0
18.445000 0.337674 0
18.450000 0.690650 0
18.455000 1.010808 0
18.460000 1.181511 3
18.465000 1.129705 0
18.470000 0.873114 0
18.475000 0.506734 0
18.480000 0.143604 0
18.485000 -0.137103 0
18.490000 -0.302908 0
18.495000 -0.356539 4
18.500000 -0.323623 0
18.505000 -0.242626 0
18.510000 -0.151431 0
18.515000 -0.074385 0
18.520000 -0.018421 0
18.525000 0.021103 0
18.530000 0.051966 0
18.535000 0.080036 0
18.540000 0.108292 0
18.545000 0.137724 0
18.550000 0.168346 0
18.555000 0.199764 0
18.560000 0.231407 0
18.565000 0.262605 0
18.570000 0.292629 0
18.575000 0.320720 0
18.580000 0.346120 0
18.585000 0.368104 0
18.590000 0.386014 0
18.595000 0.399295 0
18.600000 0.407515 0
18.605000 0.410397 5
18.610000 0.407825 0
18.615000 0.399859 0
18.620000 0.386723 0
18.625000 0.368805 0
18.630000 0.346628 0
18.635000 0.320827 0
18.640000 0.292123 0
18.645000 0.261281 0
18.650000 0.229084 0
18.655000 0.196295 0
18.660000 0.163630 0
18.665000 0.131734 0
18.670000 0.101161 0
18.675000 0.072363 0
18.680000 0.045686 0
18.685000 0.021368 0
18.690000 -0.000455 0
18.695000 -0.019740 0
18.700000 -0.036522 0
18.705000 -0.050901 0
18.710000 -0.063029 0
18.715000 -0.073092 0
18.720000 -0.081297 0
18.725000 -0.087861 0
18.730000 -0.093002 0
18.735000 -0.096927 0
18.740000 -0.099832 0
18.745000 -0.101891 0
18.750000 -0.103262 0
18.755000 -0.102640 0
18.760000 -0.101684 0
18.765000 -0.100733 0
18.770000 -0.099786 0
18.775000 -0.098844 0
18.780000 -0.097906 0
18.785000 -0.096972 0
18.790000 -0.096040 0
18.795000 -0.095109 0
18.800000 -0.094175 0
18.805000 -0.093231 0
18.810000 -0.092263 0
18.815000 -0.091252 0
18.820000 -0.090161 0
18.825000 -0.088934 0
18.830000 -0.087482 0
18.835000 -0.085678 0
18.840000 -0.083334 0
18.845000 -0.080199 0
18.850000 -0.075943 0
18.855000 -0.070158 0
18.860000 -0.062367 0
18.865000 -0.052054 0
18.870000 -0.038709 0
18.875000 -0.021900 0
18.880000 -0.001356 0
18.885000 0.022934 0
18.890000 0.050642 0
18.895000 0.081030 0
18.900000 0.112937 0
18.905000 0.144817 0
18.910000 0.174841 0
18.915000 0.201063 0
18.920000 0.221625 0
18.925000 0.234971 0
18.930000 0.240042 1
18.935000 0.236417 0
18.940000 0.224371 0
18.945000 0.204835 0
18.950000 0.179285 0
18.955000 0.149549 0
18.960000 0.117575 0
18.965000 0.085153 0
18.970000 0.053532 0
18.975000 0.022822 0
18.980000 -0.008778 0
18.985000 -0.045323 0
18.990000 -0.091626 0
18.995000 -0.148793 0
19.000000 -0.208281 0
19.005000 -0.249039 2
19.010000 -0.241194 0
19.015000 -0.154215 0
19.020000 0.033959 0
19.025000 0.324065 0
19.030000 0.676349 0
19.035000 1.000386 0
19.040000 1.181311 3
19.045000 1.140070 0
19.050000 0.888957 0
19.055000 0.523619 0
19.060000 0.160270 0
19.065000 -0.119533 0
19.070000 -0.282754 0
19.075000 -0.332803 4
19.080000 -0.296652 0
19.085000 -0.214111 0
19.090000 -0.123509 0
19.095000 -0.048450 0
19.100000 0.005355 0
19.105000 0.043367 0
19.110000 0.073504 0
19.115000 0.101392 0
19.120000 0.129721 0
19.125000 0.159294 0
19.130000 0.190023 0
19.135000 0.221459 0
19.140000 0.252990 0
19.145000 0.283912 0
19.150000 0.313467 0
19.155000 0.340871 0
19.160000 0.365351 0
19.165000 0.386176 0
19.170000 0.402698 0
19.175000 0.414380 0
19.180000 0.420826 0
19.185000 0.421803 5
19.190000 0.417253 0
19.195000 0.407297 0
19.200000 0.392229 0
19.205000 0.372503 0
19.210000 0.348704 0
19.215000 0.321525 0
19.220000 0.291731 0
19.225000 0.260119 0
19.230000 0.227488 0
19.235000 0.194603 0
19.240000 0.162169 0
19.245000 0.130804 0
19.250000 0.101026 0
19.255000 0.073244 0
19.260000 0.047753 0
19.265000 0.024741 0
19.270000 0.004292 0
19.275000 -0.013597 0
19.280000 -0.029003 0
19.285000 -0.042061 0
19.290000 -0.052952 0
19.295000 -0.061881 0
19.300000 -0.069070 0
19.305000 -0.074741 0
19.310000 -0.079114 0
19.315000 -0.082392 0
19.320000 -0.084762 0
19.325000 -0.086391 0
19.330000 -0.087148 0
19.335000 -0.086269 0
19.340000 -0.085395 0
19.345000 -0.084525 0
19.350000 -0.083659 0
19.355000 -0.082796 0
19.360000 -0.081938 0
19.365000 -0.081082 0
19.370000 -0.080226 0
19.375000 -0.079368 0
19.380000 -0.078499 0
19.385000 -0.077609 0
19.390000 -0.076677 0
19.395000 -0.075667 0
19.400000 -0.074524 0
19.405000 -0.073161 0
19.410000 -0.071445 0
19.415000 -0.069191 0
19.420000 -0.066140 0
19.425000 -0.061954 0
19.430000 -0.056214 0
19.435000 -0.048429 0
19.440000 -0.038068 0
19.445000 -0.024610 0
19.450000 -0.007616 0
19.455000 0.013175 0
19.460000 0.037752 0
19.465000 0.065737 0
19.470000 0.096326 0
19.475000 0.128272 0
19.480000 0.159939 0
19.485000 0.189419 0
19.490000 0.214712 0
19.495000 0.233946 0
19.500000 0.245608 0
19.505000 0.248735 1
19.510000 0.243051 0
19.515000 0.228998 0
19.520000 0.207689 0
19.525000 0.180752 0
19.530000 0.150124 0
19.535000 0.117794 0
19.540000 0.085479 0
19.545000 0.054169 0
19.550000 0.023414 0
19.555000 -0.009452 0
19.560000 -0.049192 0
19.565000 -0.100011 0
19.570000 -0.159878 0
19.575000 -0.214890 0
19.580000 -0.238866 2
19.585000 -0.199728 0
19.590000 -0.068722 0
19.595000 0.168928 0
19.600000 0.497000 0
19.605000 0.849155 0
19.610000 1.113886 0
19.615000 1.184403 3
19.620000 1.028487 0
19.625000 0.706240 0
19.630000 0.328570 0
19.635000 -0.003657 0
19.640000 -0.233661 0
19.645000 -0.346913 0
19.650000 -0.357604 4
19.655000 -0.298254 0
19.660000 -0.208634 0
19.665000 -0.121647 0
19.670000 -0.053716 0
19.675000 -0.005694 0
19.680000 0.029274 0
19.685000 0.058449 0
19.690000 0.086401 0
19.695000 0.115123 0
19.700000 0.145098 0
19.705000 0.176129 0
19.710000 0.207737 0
19.715000 0.239310 0
19.720000 0.270156 0
19.725000 0.299537 0
19.730000 0.326695 0
19.735000 0.350887 0
19.740000 0.371415 0
19.745000 0.387661 0
19.750000 0.399117 0
19.755000 0.405410 0
19.760000 0.406322 5
19.765000 0.401802 0
19.770000 0.391970 0
19.775000 0.377108 0
19.780000 0.357649 0
19.785000 0.334158 0
19.790000 0.307297 0
19.795000 0.277800 0
19.800000 0.246437 0
19.805000 0.213982 0
19.810000 0.181179 0
19.815000 0.148719 0
19.820000 0.117214 0
19.825000 0.087183 0
19.830000 0.059041 0
19.835000 0.033098 0
19.840000 0.009558 0
19.845000 -0.011475 0
19.850000 -0.029980 0
19.855000 -0.046016 0
19.860000 -0.059698 0
19.865000 -0.071187 0
19.870000 -0.080675 0
19.875000 -0.088373 0
19.880000 -0.094498 0
19.885000 -0.099262 0
19.890000 -0.102869 0
19.895000 -0.105507 0
19.900000 -0.107347 0
19.905000 -0.108539 0
19.910000 -0.107868 0
19.915000 -0.106886 0
19.920000 -0.105909 0
19.925000 -0.104936 0
19.930000 -0.103968 0
19.935000 -0.103005 0
19.940000 -0.102045 0
19.945000 -0.101087 0
19.950000 -0.100130 0
19.955000 -0.099168 0
19.960000 -0.098194 0
19.965000 -0.097193 0
19.970000 -0.096143 0
19.975000 -0.095004 0
19.980000 -0.093715 0
19.985000 -0.092180 0
19.990000 -0.090262 0
19.995000 -0.087765 0
20.000000 -0.084424 0
20.005000 -0.079896 0
20.010000 -0.073763 0
20.015000 -0.065543 0
20.020000 -0.054719 0
20.025000 -0.040795 0
20.030000 -0.023361 0
20.035000 -0.002186 0
20.040000 0.022696 0
20.045000 0.050895 0
20.050000 0.081615 0
20.055000 0.113644 0
20.060000 0.145395 0
20.065000 0.175029 0
20.070000 0.200610 0
20.075000 0.220324 0
20.080000 0.232679 0
20.085000 0.236700 1
20.090000 0.232054 0
20.095000 0.219093 0
20.100000 0.198815 0
20.105000 0.172734 0
20.110000 0.142688 0
20.115000 0.110610 0
20.120000 0.078243 0
20.125000 0.046746 0
20.130000 0.016085 0
20.135000 -0.015733 0
20.140000 -0.052894 0
20.145000 -0.100083 0
20.150000 -0.157857 0
20.155000 -0.216828 0
20.160000 -0.255272 2
20.165000 -0.243207 0
20.170000 -0.150579 0
20.175000 0.043670 0
20.180000 0.338548 0
20.185000 0.691981 0
20.190000 1.012004 0
20.195000 1.184768 3
20.200000 1.133771 0
20.205000 0.875154 0
20.210000 0.507439 0
20.215000 0.146731 0
20.220000 -0.127426 0
20.225000 -0.284109 0
20.230000 -0.328327 4
20.235000 -0.288234 0
20.240000 -0.204191 0
20.245000 -0.114112 0
20.250000 -0.040511 0
20.255000 0.011914 0
20.260000 0.049079 0
20.265000 0.078875 0
20.270000 0.106717 0
20.275000 0.135119 0
20.280000 0.164784 0
20.285000 0.195581 0
20.290000 0.227038 0
20.295000 0.258529 0
20.300000 0.289343 0
20.305000 0.318712 0
20.310000 0.345848 0
20.315000 0.369976 0
20.320000 0.390369 0
20.325000 0.406386 0
20.330000 0.417500 0
20.335000 0.423331 0
20.340000 0.423663 5
20.345000 0.418458 0
20.350000 0.407860 0
20.355000 0.392184 0
20.360000 0.371902 0
20.365000 0.347620 0
20.370000 0.320045 0
20.375000 0.289951 0
20.380000 0.258142 0
20.385000 0.225420 0
20.390000 0.192545 0
20.395000 0.160215 0
20.400000 0.129039 0
20.405000 0.099521 0
20.410000 0.072055 0
20.415000 0.046921 0
20.420000 0.024292 0
20.425000 0.004237 0
20.430000 -0.013258 0
20.435000 -0.028283 0
20.440000 -0.040982 0
20.445000 -0.051541 0
20.450000 -0.060170 0
20.455000 -0.067093 0
20.460000 -0.072535 0
20.465000 -0.076711 0
20.470000 -0.079825 0
20.475000 -0.082062 0
20.480000 -0.083584 0
20.485000 -0.083068 0
20.490000 -0.082209 0
20.495000 -0.081355 0
20.500000 -0.080505 0
20.505000 -0.079659 0
20.510000 -0.078817 0
20.515000 -0.077978 0
20.520000 -0.077141 0
20.525000 -0.076304 0
20.530000 -0.075462 0
20.535000 -0.074609 0
20.540000 -0.073731 0
20.545000 -0.072803 0
20.550000 -0.071788 0
20.555000 -0.070622 0
20.560000 -0.069209 0
20.565000 -0.067406 0
20.570000 -0.065008 0
20.575000 -0.061739 0
20.580000 -0.057239 0
20.585000 -0.051068 0
20.590000 -0.042720 0
20.595000 -0.031656 0
20.600000 -0.017366 0
20.605000 0.000555 0
20.610000 0.022311 0
20.615000 0.047804 0
20.620000 0.076547 0
20.625000 0.107616 0
20.630000 0.139646 0
20.635000 0.170907 0
20.640000 0.199435 0
20.645000 0.223233 0
20.650000 0.240494 0
20.655000 0.249834 0
20.660000 0.250467 1
20.665000 0.242319 0
20.670000 0.226035 0
20.675000 0.202901 0
20.680000 0.174668 0
20.685000 0.143325 0
20.690000 0.110829 0
20.695000 0.078747 0
20.700000 0.047726 0
20.705000 0.016710 0
20.710000 -0.017721 0
20.715000 -0.060620 0
20.720000 -0.114974 0
20.725000 -0.175467 0
20.730000 -0.223923 0
20.735000 -0.231212 2
20.740000 -0.165136 0
20.745000 0.000028 0
20.750000 0.271257 0
20.755000 0.617338 0
20.760000 0.953910 0
20.765000 1.162930 3
20.770000 1.154845 0
20.775000 0.930929 0
20.780000 0.576389 0
20.785000 0.204909 0
20.790000 -0.096208 0
20.795000 -0.286098 0
20.800000 -0.361522 4
20.805000 -0.343966 0
20.810000 -0.269860 0
20.815000 -0.178160 0
20.820000 -0.096710 0
20.825000 -0.036017 0
20.830000 0.006677 0
20.835000 0.038984 0
20.840000 0.067385 0
20.845000 0.095475 0
20.850000 0.124614 0
20.855000 0.154987 0
20.860000 0.186276 0
20.865000 0.217947 0
20.870000 0.249359 0
20.875000 0.279801 0
20.880000 0.308525 0
20.885000 0.334778 0
20.890000 0.357826 0
20.895000 0.376997 0
20.900000 0.391705 0
20.905000 0.401487 0
20.910000 0.406019 5
20.915000 0.405136 0
20.920000 0.398846 0
20.925000 0.387320 0
20.930000 0.370895 0
20.935000 0.350048 0
20.940000 0.325378 0
20.945000 0.297573 0
20.950000 0.267383 0
20.955000 0.235582 0
20.960000 0.202936 0
20.965000 0.170175 0
20.970000 0.137963 0
20.975000 0.106885 0
20.980000 0.077427 0
20.985000 0.049968 0
20.990000 0.024784 0
20.995000 0.002046 0
21.000000 -0.018171 0
21.005000 -0.035873 0
21.010000 -0.051138 0
21.015000 -0.064097 0
21.020000 -0.074924 0
21.025000 -0.083817 0
21.030000 -0.090989 0
21.035000 -0.096656 0
21.040000 -0.101029 0
21.045000 -0.104308 0
21.050000 -0.106674 0
21.055000 -0.108292 0
21.060000 -0.109014 0
21.065000 -0.108026 0
21.070000 -0.107043 0
21.075000 -0.106065 0
21.080000 -0.105092 0
21.085000 -0.104123 0
21.090000 -0.103158 0
21.095000 -0.102197 0
21.100000 -0.101237 0
21.105000 -0.100277 0
21.110000 -0.099310 0
21.115000 -0.098328 0
21.120000 -0.097313 0
21.125000 -0.096238 0
21.130000 -0.095059 0
21.135000 -0.093704 0
21.140000 -0.092067 0
21.145000 -0.089993 0
21.150000 -0.087268 0
21.155000 -0.083603 0
21.160000 -0.078633 0
21.165000 -0.071918 0
21.170000 -0.062962 0
21.175000 -0.051249 0
21.180000 -0.036300 0
21.185000 -0.017750 0
21.190000 0.004560 0
21.195000 0.030498 0
21.200000 0.059558 0
21.205000 0.090817 0
21.210000 0.122944 0
21.215000 0.154266 0
21.220000 0.182896 0
21.225000 0.206915 0
21.230000 0.224582 0
21.235000 0.234546 0
21.240000 0.236011 1
21.245000 0.228846 0
21.250000 0.213602 0
21.255000 0.191444 0
21.260000 0.164000 0
21.265000 0.133163 0
21.270000 0.100839 0
21.275000 0.068647 0
21.280000 0.037471 0
21.285000 0.006784 0
21.290000 -0.026072 0
21.295000 -0.065725 0
21.300000 -0.116254 0
21.305000 -0.175888 0
21.310000 -0.231667 0
21.315000 -0.258827 2
21.320000 -0.226500 0
21.325000 -0.106257 0
21.330000 0.118290 0
21.335000 0.436414 0
21.340000 0.791578 0
21.345000 1.080849 0
21.350000 1.195072 3
21.355000 1.080565 0
21.360000 0.780065 0
21.365000 0.403612 0
21.370000 0.060641 0
21.375000 -0.183161 0
21.380000 -0.308152 0
21.385000 -0.326524 4
21.390000 -0.270738 0
21.395000 -0.181900 0
21.400000 -0.094700 0
21.405000 -0.026692 0
21.410000 0.021070 0
21.415000 0.055683 0
21.420000 0.084609 0
21.425000 0.112454 0
21.430000 0.141155 0
21.435000 0.171135 0
21.440000 0.202149 0
21.445000 0.233681 0
21.450000 0.265082 0
21.455000 0.295627 0
21.460000 0.324543 0
21.465000 0.351045 0
21.470000 0.374370 0
21.475000 0.393810 0
21.480000 0.408748 0
21.485000 0.418694 0
21.490000 0.423302 5
21.495000 0.422397 0
21.500000 0.415983 0
21.505000 0.404241 0
21.510000 0.387521 0
21.515000 0.366325 0
21.520000 0.341280 0
21.525000 0.313109 0
21.530000 0.282592 0
21.535000 0.250533 0
21.540000 0.217723 0
21.545000 0.184910 0
21.550000 0.152772 0
21.555000 0.121896 0
21.560000 0.092763 0
21.565000 0.065743 0
21.570000 0.041093 0
21.575000 0.018963 0
21.580000 -0.000593 0
21.585000 -0.017606 0
21.590000 -0.032177 0
21.595000 -0.044459 0
21.600000 -0.054641 0
21.605000 -0.062937 0
21.610000 -0.069571 0
21.615000 -0.074765 0
21.620000 -0.078734 0
21.625000 -0.081676 0
21.630000 -0.083772 0
21.635000 -0.085181 0
21.640000 -0.084641 0
21.645000 -0.083775 0
21.650000 -0.082913 0
21.655000 -0.082055 0
21.660000 -0.081201 0
21.665000 -0.080351 0
21.670000 -0.079504 0
21.675000 -0.078659 0
21.680000 -0.077813 0
21.685000 -0.076963 0
21.690000 -0.076099 0
21.695000 -0.075207 0
21.700000 -0.074261 0
21.705000 -0.073221 0
21.710000 -0.072019 0
21.715000 -0.070554 0
21.720000 -0.068675 0
21.725000 -0.066170 0
21.730000 -0.062751 0
21.735000 -0.058051 0
21.740000 -0.051620 0
21.745000 -0.042947 0
21.750000 -0.031497 0
21.755000 -0.016769 0
21.760000 0.001622 0
21.765000 0.023845 0
21.770000 0.049762 0
21.775000 0.078838 0
21.780000 0.110099 0
21.785000 0.142142 0
21.790000 0.173205 0
21.795000 0.201319 0
21.800000 0.224504 0
21.805000 0.240996 0
21.810000 0.249469 1
21.815000 0.249211 0
21.820000 0.240220 0
21.825000 0.223209 0
21.830000 0.199513 0
21.835000 0.170907 0
21.840000 0.139386 0
21.845000 0.106876 0
21.850000 0.074886 0
21.855000 0.043944 0
21.860000 0.012813 0
21.865000 -0.022109 0
21.870000 -0.065874 0
21.875000 -0.121042 0
21.880000 -0.181423 0
21.885000 -0.227914 0
21.890000 -0.230950 2
21.895000 -0.158598 0
21.900000 0.013929 0
21.905000 0.291674 0
21.910000 0.640277 0
21.915000 0.972411 0
21.920000 1.170106 3
21.925000 1.149214 0
21.930000 0.915669 0
21.935000 0.557095 0
21.940000 0.187958 0
21.945000 -0.106404 0
21.950000 -0.287745 0
21.955000 -0.354978 4
21.960000 -0.331307 0
21.965000 -0.254243 0
21.970000 -0.162623 0
21.975000 -0.083034 0
21.980000 -0.024479 0
21.985000 0.016703 0
21.990000 0.048276 0
21.995000 0.076481 0
22.000000 0.104630 0
22.005000 0.133901 0
22.010000 0.164392 0
22.015000 0.195741 0
22.020000 0.227391 0
22.025000 0.258682 0
22.030000 0.288891 0
22.035000 0.317259 0
22.040000 0.343025 0
22.045000 0.365458 0
22.050000 0.383890 0
22.055000 0.397749 0
22.060000 0.406590 0
22.065000 0.410113 5
22.070000 0.408185 0
22.075000 0.400843 0
22.080000 0.388294 0
22.085000 0.370907 0
22.090000 0.349192 0
22.095000 0.323773 0
22.100000 0.295363 0
22.105000 0.264726 0
22.110000 0.232644 0
22.115000 0.199886 0
22.120000 0.167174 0
22.125000 0.135163 0
22.130000 0.104419 0
22.135000 0.075406 0
22.140000 0.048484 0
22.145000 0.023900 0
22.150000 0.001802 0
22.155000 -0.017757 0
22.160000 -0.034805 0
22.165000 -0.049435 0
22.170000 -0.061794 0
22.175000 -0.072066 0
22.180000 -0.080457 0
22.185000 -0.087183 0
22.190000 -0.092462 0
22.195000 -0.096505 0
22.200000 -0.099506 0
22.205000 -0.101645 0
22.210000 -0.103080 0
22.215000 -0.102468 0
22.220000 -0.101513 0
22.225000 -0.100563 0
22.230000 -0.099617 0
22.235000 -0.098675 0
22.240000 -0.097738 0
22.245000 -0.096805 0
22.250000 -0.095875 0
22.255000 -0.094945 0
22.260000 -0.094013 0
22.265000 -0.093071 0
22.270000 -0.092108 0
22.275000 -0.091103 0
22.280000 -0.090023 0
22.285000 -0.088812 0
22.290000 -0.087388 0
22.295000 -0.085624 0
22.300000 -0.083340 0
22.305000 -0.080291 0
22.310000 -0.076154 0
22.315000 -0.070526 0
22.320000 -0.062936 0
22.325000 -0.052869 0
22.330000 -0.039811 0
22.335000 -0.023321 0
22.340000 -0.003109 0
22.345000 0.020864 0
22.350000 0.048299 0
22.355000 0.078497 0
22.360000 0.110330 0
22.365000 0.142279 0
22.370000 0.172532 0
22.375000 0.199144 0
22.380000 0.220238 0
22.385000 0.234223 0
22.390000 0.239993 1
22.395000 0.237072 0
22.400000 0.225675 0
22.405000 0.206689 0
22.410000 0.181552 0
22.415000 0.152074 0
22.420000 0.120206 0
22.425000 0.087764 0
22.430000 0.056058 0
22.435000 0.025312 0
22.440000 -0.006105 0
22.445000 -0.042102 0
22.450000 -0.087556 0
22.455000 -0.144062 0
22.460000 -0.203950 0
22.465000 -0.247023 2
22.470000 -0.243770 0
22.475000 -0.163375 0
22.480000 0.017203 0
22.485000 0.300814 0
22.490000 0.651128 0
22.495000 0.980865 0
22.500000 1.174963 3
22.505000 1.151131 0
22.510000 0.914156 0
22.515000 0.553915 0
22.520000 0.186134 0
22.525000 -0.104226 0
22.530000 -0.280147 0
22.535000 -0.341892 4
22.540000 -0.313984 0
22.545000 -0.234909 0
22.550000 -0.143556 0
22.555000 -0.065601 0
22.560000 -0.008865 0
22.565000 0.031037 0
22.570000 0.061991 0
22.575000 0.090028 0
22.580000 0.118221 0
22.585000 0.147597 0
22.590000 0.178172 0
22.595000 0.209548 0
22.600000 0.241142 0
22.605000 0.272275 0
22.610000 0.302206 0
22.615000 0.330164 0
22.620000 0.355380 0
22.625000 0.377121 0
22.630000 0.394726 0
22.635000 0.407635 0
22.640000 0.415423 0
22.645000 0.417818 5
22.650000 0.414720 0
22.655000 0.406200 0
22.660000 0.392508 0
22.665000 0.374047 0
22.670000 0.351365 0
22.675000 0.325118 0
22.680000 0.296043 0
22.685000 0.264923 0
22.690000 0.232550 0
22.695000 0.199693 0
22.700000 0.167068 0
22.705000 0.135316 0
22.710000 0.104982 0
22.715000 0.076508 0
22.720000 0.050222 0
22.725000 0.026345 0
22.730000 0.004997 0
22.735000 -0.013796 0
22.740000 -0.030085 0
22.745000 -0.043985 0
22.750000 -0.055658 0
22.755000 -0.065300 0
22.760000 -0.073123 0
22.765000 -0.079351 0
22.770000 -0.084200 0
22.775000 -0.087878 0
22.780000 -0.090579 0
22.785000 -0.092476 0
22.790000 -0.093721 0
22.795000 -0.093120 0
22.800000 -0.092212 0
22.805000 -0.091308 0
22.810000 -0.090408 0
22.815000 -0.089513 0
22.820000 -0.088621 0
22.825000 -0.087732 0
22.830000 -0.086846 0
22.835000 -0.085958 0
22.840000 -0.085065 0
22.845000 -0.084158 0
22.850000 -0.083220 0
22.855000 -0.082226 0
22.860000 -0.081132 0
22.865000 -0.079870 0
22.870000 -0.078335 0
22.875000 -0.076373 0
22.880000 -0.073770 0
22.885000 -0.070237 0
22.890000 -0.065404 0
22.895000 -0.058824 0
22.900000 -0.049992 0
22.905000 -0.038379 0
22.910000 -0.023494 0
22.915000 -0.004965 0
22.920000 0.017370 0
22.925000 0.043367 0
22.930000 0.072493 0
22.935000 0.103785 0
22.940000 0.135859 0
22.945000 0.166981 0
22.950000 0.195212 0
22.955000 0.218596 0
22.960000 0.235385 0
22.965000 0.244252 0
22.970000 0.244466 1
22.975000 0.235989 0
22.980000 0.219488 0
22.985000 0.196240 0
22.990000 0.167976 0
22.995000 0.136653 0
23.000000 0.104190 0
23.005000 0.072131 0
23.010000 0.041128 0
23.015000 0.010190 0
23.020000 -0.023974 0
23.025000 -0.066317 0
23.030000 -0.120013 0
23.035000 -0.180481 0
23.040000 -0.230725 0
23.045000 -0.242700 2
23.050000 -0.184662 0
23.055000 -0.030315 0
23.060000 0.229867 0
23.065000 0.570453 0
23.070000 0.914727 0
23.075000 1.148112 0
23.080000 1.174403 3
23.085000 0.977910 0
23.090000 0.634147 0
23.095000 0.259276 0
23.100000 -0.052107 0
23.105000 -0.253131 0
23.110000 -0.337430 4
23.115000 -0.325330 0
23.120000 -0.253453 0
23.125000 -0.161951 0
23.130000 -0.080057 0
23.135000 -0.019084 0
23.140000 0.023602 0
23.145000 0.055781 0
23.150000 0.084071 0
23.155000 0.112105 0
23.160000 0.141227 0
23.165000 0.171591 0
23.170000 0.202854 0
23.175000 0.234459 0
23.180000 0.265741 0
23.185000 0.295966 0
23.190000 0.324365 0
23.195000 0.350166 0
23.200000 0.372622 0
23.205000 0.391056 0
23.210000 0.404885 0
23.215000 0.413656 0
23.220000 0.417066 5
23.225000 0.414982 0
23.230000 0.407444 0
23.235000 0.394669 0
23.240000 0.377037 0
23.245000 0.355071 0
23.250000 0.329411 0
23.255000 0.300785 0
23.260000 0.269970 0
23.265000 0.237762 0
23.270000 0.204938 0
23.275000 0.172227 0
23.280000 0.140286 0
23.285000 0.109678 0
23.290000 0.080864 0
23.295000 0.054192 0
23.300000 0.029903 0
23.305000 0.008131 0
23.310000 -0.011081 0
23.315000 -0.027773 0
23.320000 -0.042052 0
23.325000 -0.054072 0
23.330000 -0.064025 0
23.335000 -0.072124 0
23.340000 -0.078589 0
23.345000 -0.083640 0
23.350000 -0.087488 0
23.355000 -0.090328 0
23.360000 -0.092338 0
23.365000 -0.093672 0
23.370000 -0.093086 0
23.375000 -0.092177 0
23.380000 -0.091273 0
23.385000 -0.090374 0
23.390000 -0.089478 0
23.395000 -0.088587 0
23.400000 -0.087699 0
23.405000 -0.086813 0
23.410000 -0.085927 0
23.415000 -0.085036 0
23.420000 -0.084132 0
23.425000 -0.083201 0
23.430000 -0.082217 0
23.435000 -0.081141 0
23.440000 -0.079908 0
23.445000 -0.078418 0
23.450000 -0.076525 0
23.455000 -0.074023 0
23.460000 -0.070632 0
23.465000 -0.065993 0
23.470000 -0.059668 0
23.475000 -0.051156 0
23.480000 -0.039926 0
23.485000 -0.025479 0
23.490000 -0.007421 0
23.495000 0.014443 0
23.500000 0.040009 0
23.505000 0.068796 0
23.510000 0.099893 0
23.515000 0.131958 0
23.520000 0.163293 0
23.525000 0.191967 0
23.530000 0.216012 0
23.535000 0.233638 0
23.540000 0.243459 0
23.545000 0.244667 1
23.550000 0.237143 0
23.555000 0.221479 0
23.560000 0.198894 0
23.565000 0.171083 0
23.570000 0.139993 0
23.575000 0.107569 0
23.580000 0.075416 0
23.585000 0.044314 0
23.590000 0.013480 0
23.595000 -0.020141 0
23.600000 -0.061445 0
23.605000 -0.114038 0
23.610000 -0.174378 0
23.615000 -0.226715 0
23.620000 -0.243767 2
23.625000 -0.193684 0
23.630000 -0.049178 0
23.635000 0.201535 0
23.640000 0.537112 0
23.645000 0.885497 0
23.650000 1.133536 0
23.655000 1.180268 3
23.660000 1.001967 0
23.665000 0.667707 0
23.670000 0.290829 0
23.675000 -0.031355 0
23.680000 -0.247301 0
23.685000 -0.346586 4
23.690000 -0.346289 0
23.695000 -0.280766 0
23.700000 -0.189935 0
23.705000 -0.105029 0
23.710000 -0.040141 0
23.715000 0.005490 0
23.720000 0.039180 0
23.725000 0.067928 0
23.730000 0.095894 0
23.735000 0.124779 0
23.740000 0.154920 0
23.745000 0.186058 0
23.750000 0.217681 0
23.755000 0.249159 0
23.760000 0.279784 0
23.765000 0.308808 0
23.770000 0.335470 0
23.775000 0.359026 0
23.780000 0.378788 0
23.785000 0.394150 0
23.790000 0.404625 0
23.795000 0.409867 5
23.800000 0.409688 0
23.805000 0.404070 0
23.810000 0.393167 0
23.815000 0.377295 0
23.820000 0.356921 0
23.825000 0.332634 0
23.830000 0.305120 0
23.835000 0.275127 0
23.840000 0.243434 0
23.845000 0.210816 0
23.850000 0.178012 0
23.855000 0.145700 0
23.860000 0.114476 0
23.865000 0.084839 0
23.870000 0.057181 0
23.875000 0.031787 0
23.880000 0.008838 0
23.885000 -0.011583 0
23.890000 -0.029478 0
23.895000 -0.044919 0
23.900000 -0.058037 0
23.905000 -0.069004 0
23.910000 -0.078019 0
23.915000 -0.085296 0
23.920000 -0.091052 0
23.925000 -0.095502 0
23.930000 -0.098844 0
23.935000 -0.101265 0
23.940000 -0.102930 0
23.945000 -0.103690 0
23.950000 -0.102729 0
23.955000 -0.101772 0
23.960000 -0.100821 0
23.965000 -0.099873 0
23.970000 -0.098931 0
23.975000 -0.097992 0
23.980000 -0.097056 0
23.985000 -0.096122 0
23.990000 -0.095187 0
23.995000 -0.094246 0
24.000000 -0.093288 0
24.005000 -0.092298 0
24.010000 -0.091246 0
24.015000 -0.090088 0
24.020000 -0.088751 0
24.025000 -0.087127 0
24.030000 -0.085058 0
24.035000 -0.082325 0
24.040000 -0.078634 0
24.045000 -0.073615 0
24.050000 -0.066820 0
24.055000 -0.057748 0
24.060000 -0.045879 0
24.065000 -0.030736 0
24.070000 -0.011962 0
24.075000 0.010589 0
24.080000 0.036758 0
24.085000 0.066006 0
24.090000 0.097370 0
24.095000 0.129478 0
24.100000 0.160621 0
24.105000 0.188886 0
24.110000 0.212349 0
24.115000 0.229285 0
24.120000 0.238380 0
24.125000 0.238900 1
24.130000 0.230785 0
24.135000 0.214666 0
24.140000 0.191775 0
24.145000 0.163799 0
24.150000 0.132656 0
24.155000 0.100251 0
24.160000 0.068147 0
24.165000 0.037091 0
24.170000 0.006293 0
24.175000 -0.027248 0
24.180000 -0.068343 0
24.185000 -0.120610 0
24.190000 -0.180837 0
24.195000 -0.233996 0
24.200000 -0.253653 2
24.205000 -0.208519 0
24.210000 -0.071233 0
24.215000 0.171353 0
24.220000 0.501640 0
24.225000 0.853439 0
24.230000 1.117722 0
24.235000 1.190605 3
24.240000 1.036450 0
24.245000 0.713139 0
24.250000 0.335612 0
24.255000 0.007308 0
24.260000 -0.215166 0
24.265000 -0.319049 0
24.270000 -0.320994 4
24.275000 -0.256057 0
24.280000 -0.165343 0
24.285000 -0.080917 0
24.290000 -0.016927 0
24.295000 0.027786 0
24.300000 0.060858 0
24.305000 0.089333 0
24.310000 0.117253 0
24.315000 0.146189 0
24.320000 0.176394 0
24.325000 0.207551 0
24.330000 0.239113 0
24.335000 0.270413 0
24.340000 0.300715 0
24.345000 0.329240 0
24.350000 0.355205 0
24.355000 0.377854 0
24.360000 0.396492 0
24.365000 0.410524 0
24.370000 0.419485 0
24.375000 0.423060 5
24.380000 0.421108 0
24.385000 0.413665 0
24.390000 0.400947 0
24.395000 0.383333 0
24.400000 0.361354 0
24.405000 0.335656 0
24.410000 0.306976 0
24.415000 0.276103 0
24.420000 0.243841 0
24.425000 0.210977 0
24.430000 0.178246 0
24.435000 0.146311 0
24.440000 0.115740 0
24.445000 0.086992 0
24.450000 0.060416 0
24.455000 0.036249 0
24.460000 0.014620 0
24.465000 -0.004435 0
24.470000 -0.020960 0
24.475000 -0.035069 0
24.480000 -0.046922 0
24.485000 -0.056716 0
24.490000 -0.064667 0
24.495000 -0.070999 0
24.500000 -0.075934 0
24.505000 -0.079683 0
24.510000 -0.082443 0
24.515000 -0.084390 0
24.520000 -0.085678 0
24.525000 -0.085118 0
24.530000 -0.084250 0
24.535000 -0.083385 0
24.540000 -0.082525 0
24.545000 -0.081669 0
24.550000 -0.080816 0
24.555000 -0.079967 0
24.560000 -0.079119 0
24.565000 -0.078269 0
24.570000 -0.077414 0
24.575000 -0.076542 0
24.580000 -0.075639 0
24.585000 -0.074675 0
24.590000 -0.073605 0
24.595000 -0.072357 0
24.600000 -0.070818 0
24.605000 -0.068829 0
24.610000 -0.066160 0
24.615000 -0.062510 0
24.620000 -0.057492 0
24.625000 -0.050643 0
24.630000 -0.041442 0
24.635000 -0.029355 0
24.640000 -0.013898 0
24.645000 0.005279 0
24.650000 0.028289 0
24.655000 0.054919 0
24.660000 0.084544 0
24.665000 0.116099 0
24.670000 0.148095 0
24.675000 0.178715 0
24.680000 0.205968 0
24.685000 0.227897 0
24.690000 0.242812 0
24.695000 0.249502 1
24.700000 0.247397 0
24.705000 0.236649 0
24.710000 0.218112 0
24.715000 0.193230 0
24.720000 0.163847 0
24.725000 0.131968 0
24.730000 0.099468 0
24.735000 0.067704 0
24.740000 0.036903 0
24.745000 0.005353 0
24.750000 -0.031022 0
24.755000 -0.077189 0
24.760000 -0.134390 0
24.765000 -0.193853 0
24.770000 -0.233777 2
24.775000 -0.223295 0
24.780000 -0.131165 0
24.785000 0.064479 0
24.790000 0.362063 0
24.795000 0.716216 0
24.800000 1.029415 0
24.805000 1.184502 3
24.810000 1.113665 0
24.815000 0.844229 0
24.820000 0.474341 0
24.825000 0.115036 0
24.830000 -0.158453 0
24.835000 -0.316734 0
24.840000 -0.364277 4
24.845000 -0.327570 0
24.850000 -0.245143 0
24.855000 -0.154169 0
24.860000 -0.077980 0
24.865000 -0.022775 0
24.870000 0.016335 0
24.875000 0.047061 0
24.880000 0.075136 0
24.885000 0.103441 0
24.890000 0.132926 0
24.895000 0.163591 0
24.900000 0.195042 0
24.905000 0.226708 0
24.910000 0.257927 0
24.915000 0.287974 0
24.920000 0.316097 0
24.925000 0.341542 0
24.930000 0.363591 0
24.935000 0.381590 0
24.940000 0.394985 0
24.945000 0.403348 0
24.950000 0.406397 5
24.955000 0.404016 0
24.960000 0.396256 0
24.965000 0.383336 0
24.970000 0.365634 0
24.975000 0.343663 0
24.980000 0.318051 0
24.985000 0.289508 0
24.990000 0.258792 0
24.995000 0.226679 0
25.000000 0.193929 0
25.005000 0.161256 0
25.010000 0.129306 0
25.015000 0.098635 0
25.020000 0.069702 0
25.025000 0.042856 0
25.030000 0.018343 0
25.035000 -0.003692 0
25.040000 -0.023200 0
25.045000 -0.040207 0
25.050000 -0.054808 0
25.055000 -0.067149 0
25.060000 -0.077410 0
25.065000 -0.085796 0
25.070000 -0.092521 0
25.075000 -0.097802 0
25.080000 -0.101847 0
25.085000 -0.104850 0
25.090000 -0.106989 0
25.095000 -0.108423 0
25.100000 -0.107788 0
25.105000 -0.106807 0
25.110000 -0.105830 0
25.115000 -0.104858 0
25.120000 -0.103890 0
25.125000 -0.102927 0
25.130000 -0.101968 0
25.135000 -0.101012 0
25.140000 -0.100057 0
25.145000 -0.099100 0
25.150000 -0.098135 0
25.155000 -0.097149 0
25.160000 -0.096125 0
25.165000 -0.095030 0
25.170000 -0.093813 0
25.175000 -0.092394 0
25.180000 -0.090653 0
25.185000 -0.088420 0
25.190000 -0.085460 0
25.195000 -0.081461 0
25.200000 -0.076036 0
25.205000 -0.068726 0
25.210000 -0.059023 0
25.215000 -0.046416 0
25.220000 -0.030451 0
25.225000 -0.010811 0
25.230000 0.012586 0
25.235000 0.039505 0
25.240000 0.069320 0
25.245000 0.100985 0
25.250000 0.133059 0
25.255000 0.163786 0
25.260000 0.191250 0
25.265000 0.213560 0
25.270000 0.229069 0
25.275000 0.236573 1
25.280000 0.235465 0
25.285000 0.225818 0
25.290000 0.208376 0
25.295000 0.184461 0
25.300000 0.155804 0
25.305000 0.124328 0
25.310000 0.091893 0
25.315000 0.059956 0
25.320000 0.029063 0
25.325000 -0.001890 0
25.330000 -0.036244 0
25.335000 -0.078871 0
25.340000 -0.132744 0
25.345000 -0.193172 0
25.350000 -0.243402 0
25.355000 -0.256001 2
25.360000 -0.199898 0
25.365000 -0.049122 0
25.370000 0.206505 0
25.375000 0.544172 0
25.380000 0.891738 0
25.385000 1.138183 0
25.390000 1.185300 3
25.395000 1.008048 0
25.400000 0.672821 0
25.405000 0.296361 0
25.410000 -0.022142 0
25.415000 -0.231514 0
25.420000 -0.322909 4
25.425000 -0.315509 0
25.430000 -0.245743 0
25.435000 -0.154442 0
25.440000 -0.071927 0
25.445000 -0.010336 0
25.450000 0.032672 0
25.455000 0.064931 0
25.460000 0.093196 0
25.465000 0.121181 0
25.470000 0.150257 0
25.475000 0.180586 0
25.480000 0.211814 0
25.485000 0.243378 0
25.490000 0.274600 0
25.495000 0.304739 0
25.500000 0.333013 0
25.505000 0.358640 0
25.510000 0.380868 0
25.515000 0.399013 0
25.520000 0.412494 0
25.525000 0.420858 0
25.530000 0.423812 5
25.535000 0.421233 0
25.540000 0.413179 0
25.545000 0.399883 0
25.550000 0.381745 0
25.555000 0.359307 0
25.560000 0.333231 0
25.565000 0.304260 0
25.570000 0.273186 0
25.575000 0.240813 0
25.580000 0.207925 0
25.585000 0.175249 0
25.590000 0.143439 0
25.595000 0.113050 0
25.600000 0.084531 0
25.605000 0.058216 0
25.610000 0.034330 0
25.615000 0.012991 0
25.620000 -0.005775 0
25.625000 -0.022021 0
25.630000 -0.035866 0
25.635000 -0.047476 0
25.640000 -0.057051 0
25.645000 -0.064808 0
25.650000 -0.070972 0
25.655000 -0.075764 0
25.660000 -0.079394 0
25.665000 -0.082055 0
25.670000 -0.083922 0
25.675000 -0.084843 0
25.680000 -0.083976 0
25.685000 -0.083113 0
25.690000 -0.082254 0
25.695000 -0.081399 0
25.700000 -0.080549 0
25.705000 -0.079702 0
25.710000 -0.078857 0
25.715000 -0.078014 0
25.720000 -0.077170 0
25.725000 -0.076318 0
25.730000 -0.075449 0
25.735000 -0.074545 0
25.740000 -0.073577 0
25.745000 -0.072495 0
25.750000 -0.071224 0
25.755000 -0.069648 0
25.760000 -0.067596 0
25.765000 -0.064836 0
25.770000 -0.061052 0
25.775000 -0.055850 0
25.780000 -0.048757 0
25.785000 -0.039250 0
25.790000 -0.026796 0
25.795000 -0.010921 0
25.800000 0.008701 0
25.805000 0.032151 0
25.810000 0.059169 0
25.815000 0.089081 0
25.820000 0.120768 0
25.825000 0.152697 0
25.830000 0.183020 0
25.835000 0.209739 0
25.840000 0.230915 0
25.845000 0.244905 0
25.850000 0.250565 1
25.855000 0.247410 0
25.860000 0.235676 0
25.865000 0.216297 0
25.870000 0.190774 0
25.875000 0.160985 0
25.880000 0.128935 0
25.885000 0.096463 0
25.890000 0.064828 0
25.895000 0.034070 0
25.900000 0.002196 0
25.905000 -0.035108 0
25.910000 -0.082674 0
25.915000 -0.140864 0
25.920000 -0.199384 0
25.925000 -0.234996 2
25.930000 -0.216288 0
25.935000 -0.112597 0
25.940000 0.096031 0
25.945000 0.403872 0
25.950000 0.759144 0
25.955000 1.059244 0
25.960000 1.188951 3
25.965000 1.090251 0
25.970000 0.801704 0
25.975000 0.427356 0
25.980000 0.076223 0
25.985000 -0.182333 0
25.990000 -0.324243 0
25.995000 -0.357707 4
26.000000 -0.311784 0
26.005000 -0.225969 0
26.010000 -0.136226 0
26.015000 -0.063321 0
26.020000 -0.011199 0
26.025000 0.026017 0
26.030000 0.055968 0
26.035000 0.083926 0
26.040000 0.112385 0
26.045000 0.142074 0
26.050000 0.172897 0
26.055000 0.204415 0
26.060000 0.236034 0
26.065000 0.267070 0
26.070000 0.296790 0
26.075000 0.324431 0
26.080000 0.349240 0
26.085000 0.370505 0
26.090000 0.387585 0
26.095000 0.399946 0
26.100000 0.407186 0
26.105000 0.409056 5
26.110000 0.405475 0
26.115000 0.396532 0
26.120000 0.382484 0
26.125000 0.363743 0
26.130000 0.340855 0
26.135000 0.314473 0
26.140000 0.285327 0
26.145000 0.254188 0
26.150000 0.221835 0
26.155000 0.189024 0
26.160000 0.156459 0
26.165000 0.124768 0
26.170000 0.094488 0
26.175000 0.066052 0
26.180000 0.039786 0
26.185000 0.015908 0
26.190000 -0.005463 0
26.195000 -0.024298 0
26.200000 -0.040646 0
26.205000 -0.054615 0
26.210000 -0.066365 0
26.215000 -0.076085 0
26.220000 -0.083986 0
26.225000 -0.090285 0
26.230000 -0.095197 0
26.235000 -0.098929 0
26.240000 -0.101672 0
26.245000 -0.103598 0
26.250000 -0.104860 0
26.255000 -0.104216 0
26.260000 -0.103252 0
26.265000 -0.102293 0
26.270000 -0.101338 0
26.275000 -0.100388 0
26.280000 -0.099442 0
26.285000 -0.098500 0
26.290000 -0.097561 0
26.295000 -0.096621 0
26.300000 -0.095678 0
26.305000 -0.094722 0
26.310000 -0.093741 0
26.315000 -0.092712 0
26.320000 -0.091596 0
26.325000 -0.090332 0
26.330000 -0.088827 0
26.335000 -0.086945 0
26.340000 -0.084489 0
26.345000 -0.081197 0
26.350000 -0.076726 0
26.355000 -0.070659 0
26.360000 -0.062510 0
26.365000 -0.051761 0
26.370000 -0.037911 0
26.375000 -0.020545 0
26.380000 0.000572 0
26.385000 0.025409 0
26.390000 0.053577 0
26.395000 0.084279 0
26.400000 0.116295 0
26.405000 0.148029 0
26.410000 0.177628 0
26.415000 0.203149 0
26.420000 0.222764 0
26.425000 0.234981 0
26.430000 0.238827 1
26.435000 0.233980 0
26.440000 0.220811 0
26.445000 0.200336 0
26.450000 0.174091 0
26.455000 0.143933 0
26.460000 0.111804 0
26.465000 0.079443 0
26.470000 0.047982 0
26.475000 0.017315 0
26.480000 -0.014668 0
26.485000 -0.052266 0
26.490000 -0.100111 0
26.495000 -0.158347 0
26.500000 -0.216810 0
26.505000 -0.252950 2
26.510000 -0.236338 0
26.515000 -0.137055 0
26.520000 0.065023 0
26.525000 0.366517 0
26.530000 0.721221 0
26.535000 1.033233 0
26.540000 1.188830 3
26.545000 1.119841 0
26.550000 0.849653 0
26.555000 0.479075 0
26.560000 0.121605 0
26.565000 -0.147067 0
26.570000 -0.298598 0
26.575000 -0.339144 4
26.580000 -0.297120 0
26.585000 -0.212505 0
26.590000 -0.122492 0
26.595000 -0.049014 0
26.600000 0.003433 0
26.605000 0.040701 0
26.610000 0.070586 0
26.615000 0.098472 0
26.620000 0.126882 0
26.625000 0.156539 0
26.630000 0.187333 0
26.635000 0.218806 0
26.640000 0.250346 0
26.645000 0.281255 0
26.650000 0.310778 0
26.655000 0.338139 0
26.660000 0.362572 0
26.665000 0.383354 0
26.670000 0.399843 0
26.675000 0.411509 0
26.680000 0.417960 0
26.685000 0.418966 5
26.690000 0.414469 0
26.695000 0.404587 0
26.700000 0.389612 0
26.705000 0.369988 0
26.710000 0.346296 0
26.715000 0.319220 0
26.720000 0.289515 0
26.725000 0.257973 0
26.730000 0.225386 0
26.735000 0.192515 0
26.740000 0.160061 0
26.745000 0.128642 0
26.750000 0.098777 0
26.755000 0.070878 0
26.760000 0.045245 0
26.765000 0.022070 0
26.770000 0.001445 0
26.775000 -0.016627 0
26.780000 -0.032218 0
26.785000 -0.045458 0
26.790000 -0.056522 0
26.795000 -0.065612 0
26.800000 -0.072947 0
26.805000 -0.078747 0
26.810000 -0.083231 0
26.815000 -0.086603 0
26.820000 -0.089051 0
26.825000 -0.090742 0
26.830000 -0.091535 0
26.835000 -0.090634 0
26.840000 -0.089738 0
26.845000 -0.088846 0
26.850000 -0.087959 0
26.855000 -0.087075 0
26.860000 -0.086195 0
26.865000 -0.085318 0
26.870000 -0.084443 0
26.875000 -0.083564 0
26.880000 -0.082678 0
26.885000 -0.081773 0
26.890000 -0.080831 0
26.895000 -0.079819 0
26.900000 -0.078688 0
26.905000 -0.077356 0
26.910000 -0.075704 0
26.915000 -0.073559 0
26.920000 -0.070679 0
26.925000 -0.066747 0
26.930000 -0.061363 0
26.935000 -0.054056 0
26.940000 -0.044304 0
26.945000 -0.031581 0
26.950000 -0.015427 0
26.955000 0.004466 0
26.960000 0.028162 0
26.965000 0.055380 0
26.970000 0.085430 0
26.975000 0.117186 0
26.980000 0.149115 0
26.985000 0.179381 0
26.990000 0.206004 0
26.995000 0.227074 0
27.000000 0.240970 0
27.005000 0.246571 1
27.010000 0.243403 0
27.015000 0.231704 0
27.020000 0.212394 0
27.025000 0.186957 0
27.030000 0.157248 0
27.035000 0.125251 0
27.040000 0.092792 0
27.045000 0.061142 0
27.050000 0.030396 0
27.055000 -0.001322 0
27.060000 -0.038196 0
27.065000 -0.085076 0
27.070000 -0.142752 0
27.075000 -0.201823 0
27.080000 -0.240083 2
27.085000 -0.226756 0
27.090000 -0.131110 0
27.095000 0.067944 0
27.100000 0.367839 0
27.105000 0.722341 0
27.110000 1.034027 0
27.115000 1.187082 3
27.120000 1.114082 0
27.125000 0.841736 0
27.130000 0.470760 0
27.135000 0.113640 0
27.140000 -0.154799 0
27.145000 -0.306527 0
27.150000 -0.347610 4
27.155000 -0.306154 0
27.160000 -0.221795 0
27.165000 -0.131587 0
27.170000 -0.057615 0
27.175000 -0.004651 0
27.180000 0.032976 0
27.185000 0.063034 0
27.190000 0.090966 0
27.195000 0.119363 0
27.200000 0.148994 0
27.205000 0.179772 0
27.210000 0.211253 0
27.215000 0.242836 0
27.220000 0.273832 0
27.225000 0.303495 0
27.230000 0.331055 0
27.235000 0.355750 0
27.240000 0.376858 0
27.245000 0.393736 0
27.250000 0.405848 0
27.255000 0.412792 0
27.260000 0.414325 5
27.265000 0.410374 0
27.270000 0.401040 0
27.275000 0.386596 0
27.280000 0.367468 0
27.285000 0.344219 0
27.290000 0.317519 0
27.295000 0.288110 0
27.300000 0.256776 0
27.305000 0.224304 0
27.310000 0.191456 0
27.315000 0.158935 0
27.320000 0.127367 0
27.325000 0.097281 0
27.330000 0.069103 0
27.335000 0.043145 0
27.340000 0.019613 0
27.345000 -0.001387 0
27.350000 -0.019838 0
27.355000 -0.035802 0
27.360000 -0.049399 0
27.365000 -0.060795 0
27.370000 -0.070188 0
27.375000 -0.077794 0
27.380000 -0.083831 0
27.385000 -0.088517 0
27.390000 -0.092058 0
27.395000 -0.094643 0
27.400000 -0.096443 0
27.405000 -0.097303 0
27.410000 -0.096374 0
27.415000 -0.095449 0
27.420000 -0.094528 0
27.425000 -0.093613 0
27.430000 -0.092701 0
27.435000 -0.091793 0
27.440000 -0.090889 0
27.445000 -0.089986 0
27.450000 -0.089083 0
27.455000 -0.088173 0
27.460000 -0.087248 0
27.465000 -0.086291 0
27.470000 -0.085275 0
27.475000 -0.084155 0
27.480000 -0.082859 0
27.485000 -0.081282 0
27.490000 -0.079265 0
27.495000 -0.076590 0
27.500000 -0.072962 0
27.505000 -0.068009 0
27.510000 -0.061279 0
27.515000 -0.052266 0
27.520000 -0.040444 0
27.525000 -0.025329 0
27.530000 -0.006560 0
27.535000 0.016010 0
27.540000 0.042214 0
27.545000 0.071500 0
27.550000 0.102884 0
27.555000 0.134966 0
27.560000 0.166007 0
27.565000 0.194065 0
27.570000 0.217199 0
27.575000 0.233681 0
27.580000 0.242211 1
27.585000 0.242089 0
27.590000 0.233306 0
27.595000 0.216549 0
27.600000 0.193112 0
27.605000 0.164730 0
27.610000 0.133356 0
27.615000 0.100898 0
27.620000 0.068876 0
27.625000 0.037908 0
27.630000 0.006955 0
27.635000 -0.027313 0
27.640000 -0.069843 0
27.645000 -0.123712 0
27.650000 -0.184174 0
27.655000 -0.234098 0
27.660000 -0.245434 2
27.665000 -0.186562 0
27.670000 -0.031379 0
27.675000 0.229420 0
27.680000 0.570236 0
27.685000 0.914418 0
27.690000 1.147755 0
27.695000 1.174390 3
27.700000 0.978691 0
27.705000 0.635663 0
27.710000 0.260480 0
27.715000 -0.052524 0
27.720000 -0.256086 0
27.725000 -0.343207 4
27.730000 -0.333498 0
27.735000 -0.262949 0
27.740000 -0.171514 0
27.745000 -0.088809 0
27.750000 -0.026794 0
27.755000 0.016684 0
27.760000 0.049274 0
27.765000 0.077690 0
27.770000 0.105704 0
27.775000 0.134758 0
27.780000 0.165060 0
27.785000 0.196292 0
27.790000 0.227913 0
27.795000 0.259270 0
27.800000 0.289641 0
27.805000 0.318267 0
27.810000 0.344378 0
27.815000 0.367233 0
27.820000 0.386150 0
27.825000 0.400541 0
27.830000 0.409939 0
27.835000 0.414027 5
27.840000 0.412651 0
27.845000 0.405831 0
27.850000 0.393758 0
27.855000 0.376788 0
27.860000 0.355422 0
27.865000 0.330280 0
27.870000 0.302071 0
27.875000 0.271564 0
27.880000 0.239544 0
27.885000 0.206787 0
27.890000 0.174027 0
27.895000 0.141927 0
27.900000 0.111064 0
27.905000 0.081913 0
27.910000 0.054840 0
27.915000 0.030103 0
27.920000 0.007854 0
27.925000 -0.011848 0
27.930000 -0.029026 0
27.935000 -0.043775 0
27.940000 -0.056238 0
27.945000 -0.066601 0
27.950000 -0.075069 0
27.955000 -0.081861 0
27.960000 -0.087196 0
27.965000 -0.091285 0
27.970000 -0.094327 0
27.975000 -0.096500 0
27.980000 -0.097966 0
27.985000 -0.097381 0
27.990000 -0.096451 0
27.995000 -0.095526 0
28.000000 -0.094605 0
28.005000 -0.093689 0
28.010000 -0.092776 0
28.015000 -0.091868 0
28.020000 -0.090962 0
28.025000 -0.090057 0
28.030000 -0.089148 0
28.035000 -0.088230 0
28.040000 -0.087290 0
28.045000 -0.086307 0
28.050000 -0.085247 0
28.055000 -0.084053 0
28.060000 -0.082639 0
28.065000 -0.080877 0
28.070000 -0.078582 0
28.075000 -0.075503 0
28.080000 -0.071310 0
28.085000 -0.065593 0
28.090000 -0.057875 0
28.095000 -0.047634 0
28.100000 -0.034357 0
28.105000 -0.017606 0
28.110000 0.002894 0
28.115000 0.027156 0
28.120000 0.054850 0
28.125000 0.085231 0
28.130000 0.117127 0
28.135000 0.148974 0
28.140000 0.178928 0
28.145000 0.205026 0
28.150000 0.225398 0
28.155000 0.238489 0
28.160000 0.243248 1
28.165000 0.239275 0
28.170000 0.226872 0
28.175000 0.207005 0
28.180000 0.181182 0
28.185000 0.151258 0
28.190000 0.119194 0
28.195000 0.086777 0
28.200000 0.055211 0
28.205000 0.024504 0
28.210000 -0.007321 0
28.215000 -0.044493 0
28.220000 -0.091765 0
28.225000 -0.149666 0
28.230000 -0.208519 0
28.235000 -0.246050 2
28.240000 -0.231710 0
28.245000 -0.135146 0
28.250000 0.064379 0
28.255000 0.364213 0
28.260000 0.718678 0
28.265000 1.031607 0
28.270000 1.188169 3
28.275000 1.119627 0
28.280000 0.849849 0
28.285000 0.479401 0
28.290000 0.121702 0
28.295000 -0.147465 0
28.300000 -0.299603 0
28.305000 -0.340722 4
28.310000 -0.299100 0
28.315000 -0.214636 0
28.320000 -0.124547 0
28.325000 -0.050883 0
28.330000 0.001743 0
28.335000 0.039125 0
28.340000 0.069060 0
28.345000 0.096955 0
28.350000 0.125358 0
28.355000 0.155006 0
28.360000 0.185793 0
28.365000 0.217266 0
28.370000 0.248816 0
28.375000 0.279745 0
28.380000 0.309301 0
28.385000 0.336708 0
28.390000 0.361201 0
28.395000 0.382057 0
28.400000 0.398634 0
28.405000 0.410400 0
28.410000 0.416960 0
28.415000 0.418081 5
28.420000 0.413702 0
