0.000000 1.163043 3
0.005000 1.038946 0
0.010000 0.730113 0
0.015000 0.348519 0
0.020000 0.003473 0
0.025000 -0.240299 0
0.030000 -0.364032 0
0.035000 -0.380596 4
0.040000 -0.322997 0
0.045000 -0.232671 0
0.050000 -0.144368 0
0.055000 -0.075546 0
0.060000 -0.027141 0
0.065000 0.008024 0
0.070000 0.037459 0
0.075000 0.065800 0
0.080000 0.095003 0
0.085000 0.125496 0
0.090000 0.157037 0
0.095000 0.189106 0
0.100000 0.221052 0
0.105000 0.252145 0
0.110000 0.281608 0
0.115000 0.308650 0
0.120000 0.332500 0
0.125000 0.352444 0
0.130000 0.367859 0
0.135000 0.378244 0
0.140000 0.383247 5
0.145000 0.382686 0
0.150000 0.376555 0
0.155000 0.365030 0
0.160000 0.348457 0
0.165000 0.327335 0
0.170000 0.302289 0
0.175000 0.274042 0
0.180000 0.243379 0
0.185000 0.211108 0
0.190000 0.178029 0
0.195000 0.144899 0
0.200000 0.112406 0
0.205000 0.081148 0
0.210000 0.051618 0
0.215000 0.024197 0
0.220000 -0.000848 0
0.225000 -0.023356 0
0.230000 -0.043266 0
0.235000 -0.060602 0
0.240000 -0.075460 0
0.245000 -0.087990 0
0.250000 -0.098380 0
0.255000 -0.106844 0
0.260000 -0.113606 0
0.265000 -0.118891 0
0.270000 -0.122916 0
0.275000 -0.125884 0
0.280000 -0.127978 0
0.285000 -0.129361 0
0.290000 -0.128709 0
0.295000 -0.127716 0
0.300000 -0.126728 0
0.305000 -0.125744 0
0.310000 -0.124765 0
0.315000 -0.123791 0
0.320000 -0.122820 0
0.325000 -0.121853 0
0.330000 -0.120885 0
0.335000 -0.119914 0
0.340000 -0.118932 0
0.345000 -0.117924 0
0.350000 -0.116868 0
0.355000 -0.115725 0
0.360000 -0.114432 0
0.365000 -0.112892 0
0.370000 -0.110964 0
0.375000 -0.108444 0
0.380000 -0.105058 0
0.385000 -0.100446 0
0.390000 -0.094171 0
0.395000 -0.085727 0
0.400000 -0.074575 0
0.405000 -0.060199 0
0.410000 -0.042182 0
0.415000 -0.020307 0
0.420000 0.005354 0
0.425000 0.034342 0
0.430000 0.065765 0
0.435000 0.098289 0
0.440000 0.130204 0
0.445000 0.159553 0
0.450000 0.184326 0
0.455000 0.202681 0
0.460000 0.213174 0
0.465000 0.214943 1
0.470000 0.207828 0
0.475000 0.192397 0
0.480000 0.169865 0
0.485000 0.141941 0
0.490000 0.110607 0
0.495000 0.077848 0
0.500000 0.045319 0
0.505000 0.013853 0
0.510000 -0.017296 0
0.515000 -0.051179 0
0.520000 -0.092767 0
0.525000 -0.145802 0
0.530000 -0.206827 0
0.535000 -0.259944 0
0.540000 -0.277427 2
0.545000 -0.226817 0
0.550000 -0.080285 0
0.555000 0.174141 0
0.560000 0.514492 0
0.565000 0.866917 0
0.570000 1.115891 0
0.575000 1.159251 3
0.580000 0.973996 0
0.585000 0.632063 0
0.590000 0.251227 0
0.595000 -0.069574 0
0.600000 -0.279747 0
0.605000 -0.370914 4
0.610000 -0.362633 0
0.615000 -0.291657 0
0.620000 -0.199061 0
0.625000 -0.115337 0
0.630000 -0.052728 0
0.635000 -0.008930 0
0.640000 0.023934 0
0.645000 0.052693 0
0.650000 0.081129 0
0.655000 0.110653 0
0.660000 0.141445 0
0.665000 0.173157 0
0.670000 0.205226 0
0.675000 0.236974 0
0.680000 0.267656 0
0.685000 0.296487 0
0.690000 0.322679 0
0.695000 0.345474 0
0.700000 0.364181 0
0.705000 0.378205 0
0.710000 0.387088 0
0.715000 0.390521 5
0.720000 0.388372 0
0.725000 0.380686 0
0.730000 0.367686 0
0.735000 0.349763 0
0.740000 0.327453 0
0.745000 0.301413 0
0.750000 0.272385 0
0.755000 0.241164 0
0.760000 0.208558 0
0.765000 0.175360 0
0.770000 0.142308 0
0.775000 0.110068 0
0.780000 0.079209 0
0.785000 0.050193 0
0.790000 0.023372 0
0.795000 -0.001019 0
0.800000 -0.022848 0
0.805000 -0.042077 0
0.810000 -0.058753 0
0.815000 -0.072987 0
0.820000 -0.084942 0
0.825000 -0.094814 0
0.830000 -0.102821 0
0.835000 -0.109187 0
0.840000 -0.114138 0
0.845000 -0.117885 0
0.850000 -0.120627 0
0.855000 -0.122542 0
0.860000 -0.123787 0
0.865000 -0.123138 0
0.870000 -0.122172 0
0.875000 -0.121211 0
0.880000 -0.120255 0
0.885000 -0.119304 0
0.890000 -0.118357 0
0.895000 -0.117413 0
0.900000 -0.116471 0
0.905000 -0.115529 0
0.910000 -0.114581 0
0.915000 -0.113619 0
0.920000 -0.112626 0
0.925000 -0.111576 0
0.930000 -0.110425 0
0.935000 -0.109101 0
0.940000 -0.107498 0
0.945000 -0.105458 0
0.950000 -0.102761 0
0.955000 -0.099108 0
0.960000 -0.094122 0
0.965000 -0.087342 0
0.970000 -0.078250 0
0.975000 -0.066307 0
0.980000 -0.051016 0
0.985000 -0.032004 0
0.990000 -0.009120 0
0.995000 0.017466 0
1.000000 0.047186 0
1.005000 0.079026 0
1.010000 0.111545 0
1.015000 0.142952 0
1.020000 0.171256 0
1.025000 0.194469 0
1.030000 0.210836 0
1.035000 0.219050 1
1.040000 0.218429 0
1.045000 0.209007 0
1.050000 0.191534 0
1.055000 0.167374 0
1.060000 0.138330 0
1.065000 0.106411 0
1.070000 0.073553 0
1.075000 0.041252 0
1.080000 0.010004 0
1.085000 -0.021488 0
1.090000 -0.056903 0
1.095000 -0.101329 0
1.100000 -0.157262 0
1.105000 -0.218326 0
1.110000 -0.265162 0
1.115000 -0.267952 2
1.120000 -0.194547 0
1.125000 -0.019994 0
1.130000 0.260864 0
1.135000 0.613704 0
1.140000 0.951000 0
1.145000 1.153967 3
1.150000 1.136767 0
1.155000 0.903562 0
1.160000 0.541775 0
1.165000 0.167147 0
1.170000 -0.133183 0
1.175000 -0.319598 0
1.180000 -0.390292 4
1.185000 -0.368220 0
1.190000 -0.291043 0
1.195000 -0.198158 0
1.200000 -0.116909 0
1.205000 -0.056893 0
1.210000 -0.014676 0
1.215000 0.017565 0
1.220000 0.046230 0
1.225000 0.074761 0
1.230000 0.104408 0
1.235000 0.135296 0
1.240000 0.167070 0
1.245000 0.199175 0
1.250000 0.230947 0
1.255000 0.261657 0
1.260000 0.290540 0
1.265000 0.316827 0
1.270000 0.339777 0
1.275000 0.358711 0
1.280000 0.373047 0
1.285000 0.382327 0
1.290000 0.386241 5
1.295000 0.384644 0
1.300000 0.377563 0
1.305000 0.365201 0
1.310000 0.347918 0
1.315000 0.326222 0
1.320000 0.300739 0
1.325000 0.272183 0
1.330000 0.241324 0
1.335000 0.208950 0
1.340000 0.175842 0
1.345000 0.142732 0
1.350000 0.110287 0
1.355000 0.079086 0
1.360000 0.049606 0
1.365000 0.022216 0
1.370000 -0.002823 0
1.375000 -0.025356 0
1.380000 -0.045323 0
1.385000 -0.062744 0
1.390000 -0.077710 0
1.395000 -0.090367 0
1.400000 -0.100896 0
1.405000 -0.109503 0
1.410000 -0.116409 0
1.415000 -0.121832 0
1.420000 -0.125986 0
1.425000 -0.129070 0
1.430000 -0.131266 0
1.435000 -0.132736 0
1.440000 -0.133346 0
1.445000 -0.132329 0
1.450000 -0.131318 0
1.455000 -0.130312 0
1.460000 -0.129310 0
1.465000 -0.128313 0
1.470000 -0.127321 0
1.475000 -0.126331 0
1.480000 -0.125343 0
1.485000 -0.124353 0
1.490000 -0.123354 0
1.495000 -0.122336 0
1.500000 -0.121278 0
1.505000 -0.120150 0
1.510000 -0.118897 0
1.515000 -0.117440 0
1.520000 -0.115657 0
1.525000 -0.113374 0
1.530000 -0.110349 0
1.535000 -0.106268 0
1.540000 -0.100733 0
1.545000 -0.093276 0
1.550000 -0.083379 0
1.555000 -0.070521 0
1.560000 -0.054241 0
1.565000 -0.034223 0
1.570000 -0.010389 0
1.575000 0.017008 0
1.580000 0.047318 0
1.585000 0.079457 0
1.590000 0.111941 0
1.595000 0.142972 0
1.600000 0.170592 0
1.605000 0.192881 0
1.610000 0.208181 0
1.615000 0.215294 1
1.620000 0.213642 0
1.625000 0.203344 0
1.630000 0.185200 0
1.635000 0.160592 0
1.640000 0.131307 0
1.645000 0.099309 0
1.650000 0.066475 0
1.655000 0.034237 0
1.660000 0.003038 0
1.665000 -0.028431 0
1.670000 -0.063782 0
1.675000 -0.107994 0
1.680000 -0.163604 0
1.685000 -0.224721 0
1.690000 -0.272952 0
1.695000 -0.279537 2
1.700000 -0.212946 0
1.705000 -0.047908 0
1.710000 0.223054 0
1.715000 0.571280 0
1.720000 0.916949 0
1.725000 1.144967 0
1.730000 1.162028 3
1.735000 0.957169 0
1.740000 0.608046 0
1.745000 0.228068 0
1.750000 -0.090156 0
1.755000 -0.299663 0
1.760000 -0.392708 4
1.765000 -0.387651 0
1.770000 -0.319207 0
1.775000 -0.226876 0
1.780000 -0.141144 0
1.785000 -0.075583 0
1.790000 -0.029297 0
1.795000 0.004982 0
1.800000 0.034219 0
1.805000 0.062597 0
1.810000 0.091864 0
1.815000 0.122389 0
1.820000 0.153936 0
1.825000 0.186009 0
1.830000 0.217989 0
1.835000 0.249182 0
1.840000 0.278850 0
1.845000 0.306237 0
1.850000 0.330603 0
1.855000 0.351257 0
1.860000 0.367587 0
1.865000 0.379090 0
1.870000 0.385397 0
1.875000 0.386296 5
1.880000 0.381737 0
1.885000 0.371838 0
1.890000 0.356883 0
1.895000 0.337300 0
1.900000 0.313649 0
1.905000 0.286590 0
1.910000 0.256851 0
1.915000 0.225200 0
1.920000 0.192408 0
1.925000 0.159221 0
1.930000 0.126331 0
1.935000 0.094356 0
1.940000 0.063820 0
1.945000 0.035149 0
1.950000 0.008660 0
1.955000 -0.015431 0
1.960000 -0.037010 0
1.965000 -0.056046 0
1.970000 -0.072589 0
1.975000 -0.086746 0
1.980000 -0.098673 0
1.985000 -0.108557 0
1.990000 -0.116605 0
1.995000 -0.123034 0
2.000000 -0.128058 0
2.005000 -0.131881 0
2.010000 -0.134694 0
2.015000 -0.136672 0
2.020000 -0.137968 0
2.025000 -0.137267 0
2.030000 -0.136231 0
2.035000 -0.135200 0
2.040000 -0.134175 0
2.045000 -0.133154 0
2.050000 -0.132138 0
2.055000 -0.131126 0
2.060000 -0.130117 0
2.065000 -0.129109 0
2.070000 -0.128099 0
2.075000 -0.127079 0
2.080000 -0.126039 0
2.085000 -0.124957 0
2.090000 -0.123802 0
2.095000 -0.122519 0
2.100000 -0.121027 0
2.105000 -0.119204 0
2.110000 -0.116877 0
2.115000 -0.113808 0
2.120000 -0.109684 0
2.125000 -0.104116 0
2.130000 -0.096645 0
2.135000 -0.086766 0
2.140000 -0.073966 0
2.145000 -0.057793 0
2.150000 -0.037931 0
2.155000 -0.014292 0
2.160000 0.012897 0
2.165000 0.043027 0
2.170000 0.075069 0
2.175000 0.107602 0
2.180000 0.138891 0
2.185000 0.167028 0
2.190000 0.190118 0
2.195000 0.206493 0
2.200000 0.214906 1
2.205000 0.214692 0
2.210000 0.205855 0
2.215000 0.189069 0
2.220000 0.165592 0
2.225000 0.137113 0
2.230000 0.105539 0
2.235000 0.072751 0
2.240000 0.040289 0
2.245000 0.008882 0
2.250000 -0.022251 0
2.255000 -0.056058 0
2.260000 -0.097293 0
2.265000 -0.149675 0
2.270000 -0.210461 0
2.275000 -0.265462 0
2.280000 -0.289070 2
2.285000 -0.250334 0
2.290000 -0.121426 0
2.295000 0.112714 0
2.300000 0.439045 0
2.305000 0.798269 0
2.310000 1.086012 0
2.315000 1.194338 3
2.320000 1.074792 0
2.325000 0.770930 0
2.330000 0.389960 0
2.335000 0.039210 0
2.340000 -0.215246 0
2.345000 -0.351873 0
2.350000 -0.380440 4
2.355000 -0.330949 0
2.360000 -0.243167 0
2.365000 -0.152665 0
2.370000 -0.079556 0
2.375000 -0.027312 0
2.380000 0.010115 0
2.385000 0.040360 0
2.390000 0.068655 0
2.395000 0.097468 0
2.400000 0.127521 0
2.405000 0.158717 0
2.410000 0.190616 0
2.415000 0.222622 0
2.420000 0.254055 0
2.425000 0.284178 0
2.430000 0.312229 0
2.435000 0.337451 0
2.440000 0.359129 0
2.445000 0.376617 0
2.450000 0.389375 0
2.455000 0.396993 0
2.460000 0.399212 5
2.465000 0.395940 0
2.470000 0.387254 0
2.475000 0.373400 0
2.480000 0.354781 0
2.485000 0.331931 0
2.490000 0.305499 0
2.495000 0.276207 0
2.500000 0.244828 0
2.505000 0.212142 0
2.510000 0.178911 0
2.515000 0.145847 0
2.520000 0.113591 0
2.525000 0.082693 0
2.530000 0.053600 0
2.535000 0.026654 0
2.540000 0.002088 0
2.545000 -0.019963 0
2.550000 -0.039458 0
2.555000 -0.056433 0
2.560000 -0.070991 0
2.565000 -0.083281 0
2.570000 -0.093491 0
2.575000 -0.101828 0
2.580000 -0.108510 0
2.585000 -0.113752 0
2.590000 -0.117766 0
2.595000 -0.120744 0
2.600000 -0.122865 0
2.605000 -0.124285 0
2.610000 -0.123661 0
2.615000 -0.122693 0
2.620000 -0.121730 0
2.625000 -0.120771 0
2.630000 -0.119817 0
2.635000 -0.118868 0
2.640000 -0.117922 0
2.645000 -0.116979 0
2.650000 -0.116037 0
2.655000 -0.115092 0
2.660000 -0.114138 0
2.665000 -0.113163 0
2.670000 -0.112147 0
2.675000 -0.111057 0
2.680000 -0.109839 0
2.685000 -0.108411 0
2.690000 -0.106650 0
2.695000 -0.104380 0
2.700000 -0.101361 0
2.705000 -0.097275 0
2.710000 -0.091727 0
2.715000 -0.084251 0
2.720000 -0.074334 0
2.725000 -0.061462 0
2.730000 -0.045180 0
2.735000 -0.025177 0
2.740000 -0.001379 0
2.745000 0.025965 0
2.750000 0.056209 0
2.755000 0.088287 0
2.760000 0.120734 0
2.765000 0.151776 0
2.770000 0.179475 0
2.775000 0.201929 0
2.780000 0.217484 0
2.785000 0.224934 1
2.790000 0.223676 0
2.795000 0.213793 0
2.800000 0.196043 0
2.805000 0.171762 0
2.810000 0.142698 0
2.815000 0.110793 0
2.820000 0.077920 0
2.825000 0.045551 0
2.830000 0.014237 0
2.835000 -0.017124 0
2.840000 -0.051888 0
2.845000 -0.094966 0
2.850000 -0.149409 0
2.855000 -0.210625 0
2.860000 -0.261906 0
2.865000 -0.275717 2
2.870000 -0.220706 0
2.875000 -0.070472 0
2.880000 0.185799 0
2.885000 0.526211 0
2.890000 0.879428 0
2.895000 1.134050 0
2.900000 1.189534 3
2.905000 1.018300 0
2.910000 0.684575 0
2.915000 0.302333 0
2.920000 -0.028246 0
2.925000 -0.252757 0
2.930000 -0.358979 0
2.935000 -0.363069 4
2.940000 -0.299135 0
2.945000 -0.207610 0
2.950000 -0.120832 0
2.955000 -0.053996 0
2.960000 -0.006938 0
2.965000 0.027596 0
2.970000 0.056805 0
2.975000 0.085061 0
2.980000 0.114197 0
2.985000 0.144607 0
2.990000 0.176049 0
2.995000 0.208017 0
3.000000 0.239879 0
3.005000 0.270925 0
3.010000 0.300398 0
3.015000 0.327529 0
3.020000 0.351564 0
3.025000 0.371801 0
3.030000 0.387624 0
3.035000 0.398530 0
3.040000 0.404159 0
3.045000 0.404310 5
3.050000 0.398953 0
3.055000 0.388232 0
3.060000 0.372455 0
3.065000 0.352085 0
3.070000 0.327708 0
3.075000 0.300012 0
3.080000 0.269752 0
3.085000 0.237713 0
3.090000 0.204680 0
3.095000 0.171405 0
3.100000 0.138577 0
3.105000 0.106808 0
3.110000 0.076608 0
3.115000 0.048384 0
3.120000 0.022433 0
3.125000 -0.001055 0
3.130000 -0.021988 0
3.135000 -0.040360 0
3.140000 -0.056242 0
3.145000 -0.069759 0
3.150000 -0.081083 0
3.155000 -0.090413 0
3.160000 -0.097965 0
3.165000 -0.103960 0
3.170000 -0.108613 0
3.175000 -0.112128 0
3.180000 -0.114694 0
3.185000 -0.116480 0
3.190000 -0.117331 0
3.195000 -0.116395 0
3.200000 -0.115463 0
3.205000 -0.114536 0
3.210000 -0.113613 0
3.215000 -0.112695 0
3.220000 -0.111780 0
3.225000 -0.110869 0
3.230000 -0.109959 0
3.235000 -0.109049 0
3.240000 -0.108132 0
3.245000 -0.107200 0
3.250000 -0.106237 0
3.255000 -0.105216 0
3.260000 -0.104092 0
3.265000 -0.102796 0
3.270000 -0.101223 0
3.275000 -0.099220 0
3.280000 -0.096571 0
3.285000 -0.092988 0
3.290000 -0.088105 0
3.295000 -0.081478 0
3.300000 -0.072603 0
3.305000 -0.060955 0
3.310000 -0.046043 0
3.315000 -0.027488 0
3.320000 -0.005113 0
3.325000 0.020959 0
3.330000 0.050231 0
3.335000 0.081778 0
3.340000 0.114259 0
3.345000 0.145979 0
3.350000 0.175019 0
3.355000 0.199424 0
3.360000 0.217414 0
3.365000 0.227601 0
3.370000 0.229165 1
3.375000 0.221961 0
3.380000 0.206543 0
3.385000 0.184091 0
3.390000 0.156263 0
3.395000 0.124984 0
3.400000 0.092196 0
3.405000 0.059547 0
3.410000 0.027931 0
3.415000 -0.003204 0
3.420000 -0.036592 0
3.425000 -0.076963 0
3.430000 -0.128418 0
3.435000 -0.188967 0
3.440000 -0.245122 0
3.445000 -0.271405 2
3.450000 -0.236331 0
3.455000 -0.111165 0
3.460000 0.120129 0
3.465000 0.445204 0
3.470000 0.804371 0
3.475000 1.091395 0
3.480000 1.196416 3
3.485000 1.071945 0
3.490000 0.764833 0
3.495000 0.383416 0
3.500000 0.034682 0
3.505000 -0.216390 0
3.510000 -0.349322 0
3.515000 -0.374707 4
3.520000 -0.323180 0
3.525000 -0.234755 0
3.530000 -0.144705 0
3.535000 -0.072511 0
3.540000 -0.021090 0
3.545000 0.015837 0
3.550000 0.045877 0
3.555000 0.074138 0
3.560000 0.102987 0
3.565000 0.133088 0
3.570000 0.164316 0
3.575000 0.196218 0
3.580000 0.228192 0
3.585000 0.259549 0
3.590000 0.289547 0
3.595000 0.317420 0
3.600000 0.342411 0
3.605000 0.363806 0
3.610000 0.380962 0
3.615000 0.393345 0
3.620000 0.400554 0
3.625000 0.402341 5
3.630000 0.398626 0
3.635000 0.389501 0
3.640000 0.375225 0
3.645000 0.356213 0
3.650000 0.333014 0
3.655000 0.306286 0
3.660000 0.276760 0
3.665000 0.245212 0
3.670000 0.212427 0
3.675000 0.179165 0
3.680000 0.146136 0
3.685000 0.113974 0
3.690000 0.083221 0
3.695000 0.054317 0
3.700000 0.027593 0
3.705000 0.003273 0
3.710000 -0.018519 0
3.715000 -0.037751 0
3.720000 -0.054468 0
3.725000 -0.068776 0
3.730000 -0.080834 0
3.735000 -0.090830 0
3.740000 -0.098975 0
3.745000 -0.105489 0
3.750000 -0.110587 0
3.755000 -0.114478 0
3.760000 -0.117356 0
3.765000 -0.119396 0
3.770000 -0.120753 0
3.775000 -0.120135 0
3.780000 -0.119184 0
3.785000 -0.118238 0
3.790000 -0.117297 0
3.795000 -0.116361 0
3.800000 -0.115428 0
3.805000 -0.114499 0
3.810000 -0.113573 0
3.815000 -0.112647 0
3.820000 -0.111718 0
3.825000 -0.110778 0
3.830000 -0.109814 0
3.835000 -0.108805 0
3.840000 -0.107714 0
3.845000 -0.106485 0
3.850000 -0.105028 0
3.855000 -0.103213 0
3.860000 -0.100853 0
3.865000 -0.097693 0
3.870000 -0.093404 0
3.875000 -0.087574 0
3.880000 -0.079727 0
3.885000 -0.069343 0
3.890000 -0.055909 0
3.895000 -0.038991 0
3.900000 -0.018310 0
3.905000 0.006154 0
3.910000 0.034082 0
3.915000 0.064750 0
3.920000 0.097009 0
3.925000 0.129319 0
3.930000 0.159856 0
3.935000 0.186665 0
3.940000 0.207869 0
3.945000 0.221880 0
3.950000 0.227599 1
3.955000 0.224554 0
3.960000 0.212968 0
3.965000 0.193733 0
3.970000 0.168291 0
3.975000 0.138455 0
3.980000 0.106184 0
3.985000 0.073306 0
3.990000 0.041149 0
3.995000 0.009979 0
4.000000 -0.021775 0
4.005000 -0.057963 0
4.010000 -0.103504 0
4.015000 -0.160280 0
4.020000 -0.221175 0
4.025000 -0.266580 0
4.030000 -0.267227 2
4.035000 -0.192009 0
4.040000 -0.016945 0
4.045000 0.262896 0
4.050000 0.614807 0
4.055000 0.955139 0
4.060000 1.168728 3
4.065000 1.167591 0
4.070000 0.947182 0
4.075000 0.589947 0
4.080000 0.213215 0
4.085000 -0.092247 0
4.090000 -0.283999 0
4.095000 -0.358836 4
4.100000 -0.339247 0
4.105000 -0.263078 0
4.110000 -0.170345 0
4.115000 -0.089034 0
4.120000 -0.029061 0
4.125000 0.012995 0
4.130000 0.045051 0
4.135000 0.073562 0
4.140000 0.101977 0
4.145000 0.131529 0
4.150000 0.162324 0
4.155000 0.193995 0
4.160000 0.225972 0
4.165000 0.257581 0
4.170000 0.288079 0
4.175000 0.316690 0
4.180000 0.342637 0
4.185000 0.365173 0
4.190000 0.383615 0
4.195000 0.397385 0
4.200000 0.406030 0
4.205000 0.409252 5
4.210000 0.406924 0
4.215000 0.399091 0
4.220000 0.385979 0
4.225000 0.367973 0
4.230000 0.345603 0
4.235000 0.319518 0
4.240000 0.290452 0
4.245000 0.259188 0
4.250000 0.226528 0
4.255000 0.193253 0
4.260000 0.160099 0
4.265000 0.127725 0
4.270000 0.096699 0
4.275000 0.067486 0
4.280000 0.040436 0
4.285000 0.015792 0
4.290000 -0.006309 0
4.295000 -0.025825 0
4.300000 -0.042795 0
4.305000 -0.057323 0
4.310000 -0.069567 0
4.315000 -0.079719 0
4.320000 -0.087991 0
4.325000 -0.094607 0
4.330000 -0.099788 0
4.335000 -0.103746 0
4.340000 -0.106680 0
4.345000 -0.108768 0
4.350000 -0.110168 0
4.355000 -0.109600 0
4.360000 -0.108702 0
4.365000 -0.107809 0
4.370000 -0.106920 0
4.375000 -0.106035 0
4.380000 -0.105154 0
4.385000 -0.104276 0
4.390000 -0.103401 0
4.395000 -0.102525 0
4.400000 -0.101645 0
4.405000 -0.100752 0
4.410000 -0.099833 0
4.415000 -0.098864 0
4.420000 -0.097805 0
4.425000 -0.096593 0
4.430000 -0.095133 0
4.435000 -0.093280 0
4.440000 -0.090834 0
4.445000 -0.087521 0
4.450000 -0.082985 0
4.455000 -0.076792 0
4.460000 -0.068444 0
4.465000 -0.057407 0
4.470000 -0.043170 0
4.475000 -0.025322 0
4.480000 -0.003639 0
4.485000 0.021815 0
4.490000 0.050600 0
4.495000 0.081851 0
4.500000 0.114270 0
4.505000 0.146183 0
4.510000 0.175665 0
4.515000 0.200725 0
4.520000 0.219527 0
4.525000 0.230604 0
4.530000 0.233056 1
4.535000 0.226660 0
4.540000 0.211914 0
4.545000 0.189962 0
4.550000 0.162451 0
4.555000 0.131323 0
4.560000 0.098554 0
4.565000 0.065843 0
4.570000 0.034153 0
4.575000 0.003008 0
4.580000 -0.030270 0
4.585000 -0.070432 0
4.590000 -0.121704 0
4.595000 -0.182225 0
4.600000 -0.238457 0
4.605000 -0.264616 2
4.610000 -0.228774 0
4.615000 -0.101883 0
4.620000 0.131961 0
4.625000 0.459244 0
4.630000 0.817749 0
4.635000 1.098591 0
4.640000 1.191925 3
4.645000 1.053063 0
4.650000 0.734250 0
4.655000 0.351895 0
4.660000 0.014629 0
4.665000 -0.216464 0
4.670000 -0.326415 0
4.675000 -0.331346 4
4.680000 -0.266846 0
4.685000 -0.175190 0
4.690000 -0.089604 0
4.695000 -0.024822 0
4.700000 0.020311 0
4.705000 0.053647 0
4.710000 0.082388 0
4.715000 0.110628 0
4.720000 0.139930 0
4.725000 0.170521 0
4.730000 0.202063 0
4.735000 0.233983 0
4.740000 0.265591 0
4.745000 0.296126 0
4.750000 0.324786 0
4.755000 0.350765 0
4.760000 0.373289 0
4.765000 0.391654 0
4.770000 0.405261 0
4.775000 0.413646 0
4.780000 0.416507 5
4.785000 0.413721 0
4.790000 0.405353 0
4.795000 0.391647 0
4.800000 0.373021 0
4.805000 0.350039 0
4.810000 0.323385 0
4.815000 0.293830 0
4.820000 0.262188 0
4.825000 0.229287 0
4.830000 0.195928 0
4.835000 0.162853 0
4.840000 0.130724 0
4.845000 0.100102 0
4.850000 0.071434 0
4.855000 0.045050 0
4.860000 0.021165 0
4.865000 -0.000111 0
4.870000 -0.018765 0
4.875000 -0.034864 0
4.880000 -0.048538 0
4.885000 -0.059965 0
4.890000 -0.069354 0
4.895000 -0.076931 0
4.900000 -0.082927 0
4.905000 -0.087568 0
4.910000 -0.091066 0
4.915000 -0.093616 0
4.920000 -0.095393 0
4.925000 -0.096260 0
4.930000 -0.095429 0
4.935000 -0.094601 0
4.940000 -0.093778 0
4.945000 -0.092959 0
4.950000 -0.092143 0
4.955000 -0.091331 0
4.960000 -0.090521 0
4.965000 -0.089711 0
4.970000 -0.088898 0
4.975000 -0.088075 0
4.980000 -0.087229 0
4.985000 -0.086339 0
4.990000 -0.085370 0
4.995000 -0.084261 0
5.000000 -0.082923 0
5.005000 -0.081218 0
5.010000 -0.078950 0
5.015000 -0.075848 0
5.020000 -0.071558 0
5.025000 -0.065643 0
5.030000 -0.057592 0
5.035000 -0.046854 0
5.040000 -0.032899 0
5.045000 -0.015290 0
5.050000 0.006215 0
5.055000 0.031560 0
5.060000 0.060300 0
5.065000 0.091538 0
5.070000 0.123924 0
5.075000 0.155717 0
5.080000 0.184919 0
5.085000 0.209475 0
5.090000 0.227511 0
5.095000 0.237563 0
5.100000 0.238778 1
5.105000 0.231028 0
5.110000 0.214932 0
5.115000 0.191776 0
5.120000 0.163336 0
5.125000 0.131646 0
5.130000 0.098718 0
5.135000 0.066177 0
5.140000 0.034715 0
5.145000 0.003288 0
5.150000 -0.031583 0
5.155000 -0.075070 0
5.160000 -0.130219 0
5.165000 -0.191499 0
5.170000 -0.240105 0
5.175000 -0.246040 2
5.180000 -0.176357 0
5.185000 -0.005074 0
5.190000 0.273874 0
5.195000 0.626285 0
5.200000 0.963132 0
5.205000 1.163176 3
5.210000 1.138916 0
5.215000 0.896225 0
5.220000 0.529596 0
5.225000 0.159280 0
5.230000 -0.128350 0
5.235000 -0.297416 0
5.240000 -0.350471 4
5.245000 -0.314849 0
5.250000 -0.231440 0
5.255000 -0.139747 0
5.260000 -0.064014 0
5.265000 -0.009945 0
5.270000 0.028199 0
5.275000 0.058541 0
5.280000 0.086754 0
5.285000 0.115495 0
5.290000 0.145518 0
5.295000 0.176701 0
5.300000 0.208563 0
5.305000 0.240466 0
5.310000 0.271677 0
5.315000 0.301411 0
5.320000 0.328860 0
5.325000 0.353231 0
5.330000 0.373780 0
5.335000 0.389852 0
5.340000 0.400912 0
5.345000 0.406576 0
5.350000 0.406633 5
5.355000 0.401052 0
5.360000 0.389990 0
5.365000 0.373781 0
5.370000 0.352921 0
5.375000 0.328039 0
5.380000 0.299865 0
5.385000 0.269197 0
5.390000 0.236862 0
5.395000 0.203677 0
5.400000 0.170416 0
5.405000 0.137786 0
5.410000 0.106397 0
5.415000 0.076754 0
5.420000 0.049246 0
5.425000 0.024144 0
5.430000 0.001609 0
5.435000 -0.018301 0
5.440000 -0.035614 0
5.445000 -0.050430 0
5.450000 -0.062907 0
5.455000 -0.073240 0
5.460000 -0.081647 0
5.465000 -0.088360 0
5.470000 -0.093606 0
5.475000 -0.097606 0
5.480000 -0.100564 0
5.485000 -0.102664 0
5.490000 -0.104071 0
5.495000 -0.103529 0
5.500000 -0.102661 0
5.505000 -0.101798 0
5.510000 -0.100939 0
5.515000 -0.100083 0
5.520000 -0.099232 0
5.525000 -0.098384 0
5.530000 -0.097537 0
5.535000 -0.096689 0
5.540000 -0.095835 0
5.545000 -0.094966 0
5.550000 -0.094065 0
5.555000 -0.093105 0
5.560000 -0.092039 0
5.565000 -0.090793 0
5.570000 -0.089256 0
5.575000 -0.087263 0
5.580000 -0.084581 0
5.585000 -0.080900 0
5.590000 -0.075822 0
5.595000 -0.068872 0
5.600000 -0.059513 0
5.605000 -0.047196 0
5.610000 -0.031427 0
5.615000 -0.011852 0
5.620000 0.011634 0
5.625000 0.038790 0
5.630000 0.068951 0
5.635000 0.100991 0
5.640000 0.133352 0
5.645000 0.164144 0
5.650000 0.191314 0
5.655000 0.212868 0
5.660000 0.227107 0
5.665000 0.232852 1
5.670000 0.229602 0
5.675000 0.217606 0
5.680000 0.197832 0
5.685000 0.171833 0
5.690000 0.141548 0
5.695000 0.109036 0
5.700000 0.076170 0
5.705000 0.044198 0
5.710000 0.013058 0
5.715000 -0.019463 0
5.720000 -0.057938 0
5.725000 -0.107180 0
5.730000 -0.166816 0
5.735000 -0.224964 0
5.740000 -0.256522 2
5.745000 -0.228820 0
5.750000 -0.111089 0
5.755000 0.114839 0
5.760000 0.437881 0
5.765000 0.796887 0
5.770000 1.080830 0
5.775000 1.175681 3
5.780000 1.036419 0
5.785000 0.718303 0
5.790000 0.336031 0
5.795000 -0.002837 0
5.800000 -0.237094 0
5.805000 -0.350980 0
5.810000 -0.359553 4
5.815000 -0.297321 0
5.820000 -0.206016 0
5.825000 -0.119259 0
5.830000 -0.052772 0
5.835000 -0.006236 0
5.840000 0.027904 0
5.845000 0.056964 0
5.850000 0.085263 0
5.855000 0.114535 0
5.860000 0.145098 0
5.865000 0.176659 0
5.870000 0.208674 0
5.875000 0.240474 0
5.880000 0.271316 0
5.885000 0.300414 0
5.890000 0.326973 0
5.895000 0.350223 0
5.900000 0.369455 0
5.905000 0.384059 0
5.910000 0.393552 0
5.915000 0.397605 5
5.920000 0.396061 0
5.925000 0.388947 0
5.930000 0.376467 0
5.935000 0.358998 0
5.940000 0.337065 0
5.945000 0.311318 0
5.950000 0.282499 0
5.955000 0.251405 0
5.960000 0.218850 0
5.965000 0.185634 0
5.970000 0.152507 0
5.975000 0.120146 0
5.980000 0.089133 0
5.985000 0.059940 0
5.990000 0.032929 0
5.995000 0.008346 0
6.000000 -0.013671 0
6.005000 -0.033080 0
6.010000 -0.049922 0
6.015000 -0.064307 0
6.020000 -0.076396 0
6.025000 -0.086387 0
6.030000 -0.094496 0
6.035000 -0.100953 0
6.040000 -0.105981 0
6.045000 -0.109796 0
6.050000 -0.112598 0
6.055000 -0.114566 0
6.060000 -0.115859 0
6.065000 -0.115250 0
6.070000 -0.114324 0
6.075000 -0.113402 0
6.080000 -0.112485 0
6.085000 -0.111573 0
6.090000 -0.110664 0
6.095000 -0.109758 0
6.100000 -0.108855 0
6.105000 -0.107950 0
6.110000 -0.107040 0
6.115000 -0.106115 0
6.120000 -0.105158 0
6.125000 -0.104143 0
6.130000 -0.103023 0
6.135000 -0.101728 0
6.140000 -0.100146 0
6.145000 -0.098117 0
6.150000 -0.095415 0
6.155000 -0.091736 0
6.160000 -0.086695 0
6.165000 -0.079823 0
6.170000 -0.070598 0
6.175000 -0.058475 0
6.180000 -0.042960 0
6.185000 -0.023691 0
6.190000 -0.000536 0
6.195000 0.026305 0
6.200000 0.056222 0
6.205000 0.088157 0
6.210000 0.120621 0
6.215000 0.151785 0
6.220000 0.179634 0
6.225000 0.202180 0
6.230000 0.217691 0
6.235000 0.224913 1
6.240000 0.223235 0
6.245000 0.212778 0
6.250000 0.194375 0
6.255000 0.169466 0
6.260000 0.139908 0
6.265000 0.107730 0
6.270000 0.074847 0
6.275000 0.042666 0
6.280000 0.011485 0
6.285000 -0.020329 0
6.290000 -0.056812 0
6.295000 -0.103035 0
6.300000 -0.160546 0
6.305000 -0.220992 0
6.310000 -0.262800 2
6.315000 -0.254914 0
6.320000 -0.165497 0
6.325000 0.028225 0
6.330000 0.326008 0
6.335000 0.684012 0
6.340000 1.005220 0
6.345000 1.170491 3
6.350000 1.106287 0
6.355000 0.835181 0
6.360000 0.460232 0
6.365000 0.098477 0
6.370000 -0.172208 0
6.375000 -0.323090 0
6.380000 -0.361097 4
6.385000 -0.316050 0
6.390000 -0.229332 0
6.395000 -0.138735 0
6.400000 -0.065774 0
6.405000 -0.014098 0
6.410000 0.022731 0
6.415000 0.052637 0
6.420000 0.080868 0
6.425000 0.109781 0
6.430000 0.139987 0
6.435000 0.171308 0
6.440000 0.203247 0
6.445000 0.235158 0
6.450000 0.266309 0
6.455000 0.295917 0
6.460000 0.323179 0
6.465000 0.347312 0
6.470000 0.367583 0
6.475000 0.383349 0
6.480000 0.394090 0
6.485000 0.399437 5
6.490000 0.399189 0
6.495000 0.393330 0
6.500000 0.382024 0
6.505000 0.365613 0
6.510000 0.344595 0
6.515000 0.319599 0
6.520000 0.291355 0
6.525000 0.260656 0
6.530000 0.228322 0
6.535000 0.195163 0
6.540000 0.161948 0
6.545000 0.129374 0
6.550000 0.098046 0
6.555000 0.068463 0
6.560000 0.041010 0
6.565000 0.015955 0
6.570000 -0.006543 0
6.575000 -0.026425 0
6.580000 -0.043720 0
6.585000 -0.058526 0
6.590000 -0.070999 0
6.595000 -0.081332 0
6.600000 -0.089742 0
6.605000 -0.096458 0
6.610000 -0.101706 0
6.615000 -0.105706 0
6.620000 -0.108661 0
6.625000 -0.110754 0
6.630000 -0.112149 0
6.635000 -0.111572 0
6.640000 -0.110664 0
6.645000 -0.109761 0
6.650000 -0.108862 0
6.655000 -0.107967 0
6.660000 -0.107076 0
6.665000 -0.106189 0
6.670000 -0.105303 0
6.675000 -0.104418 0
6.680000 -0.103526 0
6.685000 -0.102621 0
6.690000 -0.101686 0
6.695000 -0.100696 0
6.700000 -0.099606 0
6.705000 -0.098347 0
6.710000 -0.096812 0
6.715000 -0.094843 0
6.720000 -0.092220 0
6.725000 -0.088642 0
6.730000 -0.083727 0
6.735000 -0.077010 0
6.740000 -0.067966 0
6.745000 -0.056048 0
6.750000 -0.040752 0
6.755000 -0.021703 0
6.760000 0.001245 0
6.765000 0.027910 0
6.770000 0.057700 0
6.775000 0.089567 0
6.780000 0.122029 0
6.785000 0.153253 0
6.790000 0.181217 0
6.795000 0.203912 0
6.800000 0.219587 0
6.805000 0.226965 1
6.810000 0.225419 0
6.815000 0.215056 0
6.820000 0.196709 0
6.825000 0.171822 0
6.830000 0.142261 0
6.835000 0.110070 0
6.840000 0.077175 0
6.845000 0.044990 0
6.850000 0.013802 0
6.855000 -0.018061 0
6.860000 -0.054693 0
6.865000 -0.101181 0
6.870000 -0.158934 0
6.875000 -0.219219 0
6.880000 -0.259968 2
6.885000 -0.249749 0
6.890000 -0.156662 0
6.895000 0.041630 0
6.900000 0.343464 0
6.905000 0.702274 0
6.910000 1.018198 0
6.915000 1.171921 3
6.920000 1.094429 0
6.925000 0.814642 0
6.930000 0.437697 0
6.935000 0.078987 0
6.940000 -0.186484 0
6.945000 -0.332122 0
6.950000 -0.366033 4
6.955000 -0.318593 0
6.960000 -0.231132 0
6.965000 -0.140847 0
6.970000 -0.068518 0
6.975000 -0.017333 0
6.980000 0.019259 0
6.985000 0.049104 0
6.990000 0.077354 0
6.995000 0.106306 0
7.000000 0.136549 0
7.005000 0.167899 0
7.010000 0.199859 0
7.015000 0.231786 0
7.020000 0.262951 0
7.025000 0.292575 0
7.030000 0.319860 0
7.035000 0.344026 0
7.040000 0.364345 0
7.045000 0.380176 0
7.050000 0.391000 0
7.055000 0.396448 5
7.060000 0.396319 0
7.065000 0.390591 0
7.070000 0.379426 0
7.075000 0.363159 0
7.080000 0.342281 0
7.085000 0.317416 0
7.090000 0.289286 0
7.095000 0.258679 0
7.100000 0.226410 0
7.105000 0.193287 0
7.110000 0.160075 0
7.115000 0.127473 0
7.120000 0.096086 0
7.125000 0.066418 0
7.130000 0.038856 0
7.135000 0.013673 0
7.140000 -0.008965 0
7.145000 -0.028995 0
7.150000 -0.046440 0
7.155000 -0.061395 0
7.160000 -0.074011 0
7.165000 -0.084477 0
7.170000 -0.093008 0
7.175000 -0.099831 0
7.180000 -0.105173 0
7.185000 -0.109252 0
7.190000 -0.112271 0
7.195000 -0.114417 0
7.200000 -0.115851 0
7.205000 -0.115264 0
7.210000 -0.114338 0
7.215000 -0.113416 0
7.220000 -0.112499 0
7.225000 -0.111586 0
7.230000 -0.110678 0
7.235000 -0.109772 0
7.240000 -0.108869 0
7.245000 -0.107967 0
7.250000 -0.107059 0
7.255000 -0.106139 0
7.260000 -0.105193 0
7.265000 -0.104194 0
7.270000 -0.103104 0
7.275000 -0.101856 0
7.280000 -0.100350 0
7.285000 -0.098437 0
7.290000 -0.095906 0
7.295000 -0.092471 0
7.300000 -0.087764 0
7.305000 -0.081332 0
7.310000 -0.072662 0
7.315000 -0.061208 0
7.320000 -0.046458 0
7.325000 -0.028013 0
7.330000 -0.005682 0
7.335000 0.020411 0
7.340000 0.049750 0
7.345000 0.081369 0
7.350000 0.113864 0
7.355000 0.145464 0
7.360000 0.174174 0
7.365000 0.197979 0
7.370000 0.215071 0
7.375000 0.224080 0
7.380000 0.224251 1
7.385000 0.215551 0
7.390000 0.198675 0
7.395000 0.174953 0
7.400000 0.146178 0
7.405000 0.114367 0
7.410000 0.081489 0
7.415000 0.049096 0
7.420000 0.017772 0
7.425000 -0.013668 0
7.430000 -0.048809 0
7.435000 -0.092776 0
7.440000 -0.148322 0
7.445000 -0.209484 0
7.450000 -0.257207 0
7.455000 -0.261648 2
7.460000 -0.190330 0
7.465000 -0.017810 0
7.470000 0.261623 0
7.475000 0.614042 0
7.480000 0.951693 0
7.485000 1.154865 3
7.490000 1.137476 0
7.495000 0.904565 0
7.500000 0.543051 0
7.505000 0.168154 0
7.510000 -0.133108 0
7.515000 -0.320911 0
7.520000 -0.393113 4
7.525000 -0.372282 0
7.530000 -0.295748 0
7.535000 -0.202832 0
7.540000 -0.121107 0
7.545000 -0.060519 0
7.550000 -0.017883 0
7.555000 0.014570 0
7.560000 0.043293 0
7.565000 0.071807 0
7.570000 0.101412 0
7.575000 0.132262 0
7.580000 0.164017 0
7.585000 0.196128 0
7.590000 0.227940 0
7.595000 0.258730 0
7.600000 0.287739 0
7.605000 0.314199 0
7.610000 0.337371 0
7.615000 0.356577 0
7.620000 0.371228 0
7.625000 0.380861 0
7.630000 0.385157 5
7.635000 0.383960 0
7.640000 0.377285 0
7.645000 0.365321 0
7.650000 0.348416 0
7.655000 0.327063 0
7.660000 0.301877 0
7.665000 0.273562 0
7.670000 0.242882 0
7.675000 0.210621 0
7.680000 0.177556 0
7.685000 0.144423 0
7.690000 0.111893 0
7.695000 0.080551 0
7.700000 0.050881 0
7.705000 0.023263 0
7.710000 -0.002032 0
7.715000 -0.024840 0
7.720000 -0.045090 0
7.725000 -0.062794 0
7.730000 -0.078036 0
7.735000 -0.090953 0
7.740000 -0.101725 0
7.745000 -0.110553 0
7.750000 -0.117655 0
7.755000 -0.123250 0
7.760000 -0.127552 0
7.765000 -0.130760 0
7.770000 -0.133059 0
7.775000 -0.134612 0
7.780000 -0.135277 0
7.785000 -0.134251 0
7.790000 -0.133230 0
7.795000 -0.132214 0
7.800000 -0.131203 0
7.805000 -0.130197 0
7.810000 -0.129195 0
7.815000 -0.128196 0
7.820000 -0.127199 0
7.825000 -0.126201 0
7.830000 -0.125196 0
7.835000 -0.124174 0
7.840000 -0.123117 0
7.845000 -0.121996 0
7.850000 -0.120763 0
7.855000 -0.119342 0
7.860000 -0.117622 0
7.865000 -0.115440 0
7.870000 -0.112570 0
7.875000 -0.108711 0
7.880000 -0.103484 0
7.885000 -0.096436 0
7.890000 -0.087059 0
7.895000 -0.074830 0
7.900000 -0.059272 0
7.905000 -0.040033 0
7.910000 -0.016980 0
7.915000 0.009712 0
7.920000 0.039481 0
7.925000 0.071344 0
7.930000 0.103903 0
7.935000 0.135426 0
7.940000 0.163984 0
7.945000 0.187641 0
7.950000 0.204667 0
7.955000 0.213751 0
7.960000 0.214166 1
7.965000 0.205864 0
7.970000 0.189488 0
7.975000 0.166290 0
7.980000 0.137969 0
7.985000 0.106460 0
7.990000 0.073680 0
7.995000 0.041205 0
8.000000 0.009789 0
8.005000 -0.021354 0
8.010000 -0.055232 0
8.015000 -0.096682 0
8.020000 -0.149401 0
8.025000 -0.210308 0
8.030000 -0.264497 0
8.035000 -0.285525 2
8.040000 -0.241884 0
8.045000 -0.105786 0
8.050000 0.136629 0
8.055000 0.468941 0
8.060000 0.826280 0
8.065000 1.099773 0
8.070000 1.183222 3
8.075000 1.038464 0
8.080000 0.720518 0
8.085000 0.338228 0
8.090000 -0.005448 0
8.095000 -0.249836 0
8.100000 -0.376983 0
8.105000 -0.398494 4
8.110000 -0.345074 0
8.115000 -0.256137 0
8.120000 -0.166107 0
8.125000 -0.093889 0
8.130000 -0.042278 0
8.135000 -0.005109 0
8.140000 0.025115 0
8.145000 0.053482 0
8.150000 0.082383 0
8.155000 0.112517 0
8.160000 0.143783 0
8.165000 0.175751 0
8.170000 0.207833 0
8.175000 0.239359 0
8.180000 0.269603 0
8.185000 0.297815 0
8.190000 0.323248 0
8.195000 0.345194 0
8.200000 0.363011 0
8.205000 0.376161 0
8.210000 0.384229 0
8.215000 0.386950 5
8.220000 0.384218 0
8.225000 0.376096 0
8.230000 0.362812 0
8.235000 0.344746 0
8.240000 0.322415 0
8.245000 0.296445 0
8.250000 0.267543 0
8.255000 0.236466 0
8.260000 0.203984 0
8.265000 0.170852 0
8.270000 0.137784 0
8.275000 0.105421 0
8.280000 0.074323 0
8.285000 0.044949 0
8.290000 0.017654 0
8.295000 -0.007313 0
8.300000 -0.029801 0
8.305000 -0.049752 0
8.310000 -0.067187 0
8.315000 -0.082194 0
8.320000 -0.094913 0
8.325000 -0.105521 0
8.330000 -0.114218 0
8.335000 -0.121219 0
8.340000 -0.126737 0
8.345000 -0.130982 0
8.350000 -0.134150 0
8.355000 -0.136420 0
8.360000 -0.137954 0
8.365000 -0.138604 0
8.370000 -0.137561 0
8.375000 -0.136524 0
8.380000 -0.135492 0
8.385000 -0.134464 0
8.390000 -0.133442 0
8.395000 -0.132424 0
8.400000 -0.131409 0
8.405000 -0.130397 0
8.410000 -0.129384 0
8.415000 -0.128365 0
8.420000 -0.127330 0
8.425000 -0.126263 0
8.430000 -0.125138 0
8.435000 -0.123910 0
8.440000 -0.122509 0
8.445000 -0.120833 0
8.450000 -0.118729 0
8.455000 -0.115990 0
8.460000 -0.112332 0
8.465000 -0.107401 0
8.470000 -0.100764 0
8.475000 -0.091932 0
8.480000 -0.080391 0
8.485000 -0.065656 0
8.490000 -0.047347 0
8.495000 -0.025269 0
8.500000 0.000492 0
8.505000 0.029492 0
8.510000 0.060884 0
8.515000 0.093409 0
8.520000 0.125455 0
8.525000 0.155171 0
8.530000 0.180637 0
8.535000 0.200069 0
8.540000 0.212020 0
8.545000 0.215565 1
8.550000 0.210413 0
8.555000 0.196953 0
8.560000 0.176203 0
8.565000 0.149683 0
8.570000 0.119227 0
8.575000 0.086757 0
8.580000 0.054002 0
8.585000 0.022119 0
8.590000 -0.008908 0
8.595000 -0.041009 0
8.600000 -0.078296 0
8.605000 -0.125486 0
8.610000 -0.183486 0
8.615000 -0.243664 0
8.620000 -0.285189 2
8.625000 -0.278603 0
8.630000 -0.193681 0
8.635000 -0.008166 0
8.640000 0.280122 0
8.645000 0.634930 0
8.650000 0.970313 0
8.655000 1.172692 3
8.660000 1.158778 0
8.665000 0.929044 0
8.670000 0.568888 0
8.675000 0.193026 0
8.680000 -0.110957 0
8.685000 -0.302294 0
8.690000 -0.377983 4
8.695000 -0.359850 0
8.700000 -0.284712 0
8.705000 -0.191876 0
8.710000 -0.109420 0
8.715000 -0.047950 0
8.720000 -0.004698 0
8.725000 0.028016 0
8.730000 0.056749 0
8.735000 0.085149 0
8.740000 0.114604 0
8.745000 0.145308 0
8.750000 0.176944 0
8.755000 0.208976 0
8.760000 0.240757 0
8.765000 0.271572 0
8.770000 0.300667 0
8.775000 0.327278 0
8.780000 0.350668 0
8.785000 0.370155 0
8.790000 0.385145 0
8.795000 0.395167 0
8.800000 0.399888 5
8.805000 0.399139 0
8.810000 0.392919 0
8.815000 0.381399 0
8.820000 0.364909 0
8.825000 0.343926 0
8.830000 0.319052 0
8.835000 0.290977 0
8.840000 0.260457 0
8.845000 0.228270 0
8.850000 0.195193 0
8.855000 0.161963 0
8.860000 0.129256 0
8.865000 0.097667 0
8.870000 0.067690 0
8.875000 0.039716 0
8.880000 0.014029 0
8.885000 -0.009193 0
8.890000 -0.029868 0
8.895000 -0.047998 0
8.900000 -0.063655 0
8.905000 -0.076971 0
8.910000 -0.088117 0
8.915000 -0.097293 0
8.920000 -0.104713 0
8.925000 -0.110595 0
8.930000 -0.115152 0
8.935000 -0.118588 0
8.940000 -0.121086 0
8.945000 -0.122815 0
8.950000 -0.123618 0
8.955000 -0.122650 0
8.960000 -0.121687 0
8.965000 -0.120729 0
8.970000 -0.119775 0
8.975000 -0.118826 0
8.980000 -0.117881 0
8.985000 -0.116939 0
8.990000 -0.116000 0
8.995000 -0.115059 0
9.000000 -0.114113 0
9.005000 -0.113152 0
9.010000 -0.112160 0
9.015000 -0.111111 0
9.020000 -0.109962 0
9.025000 -0.108645 0
9.030000 -0.107058 0
9.035000 -0.105050 0
9.040000 -0.102411 0
9.045000 -0.098861 0
9.050000 -0.094039 0
9.055000 -0.087511 0
9.060000 -0.078782 0
9.065000 -0.067329 0
9.070000 -0.052662 0
9.075000 -0.034393 0
9.080000 -0.012327 0
9.085000 0.013444 0
9.090000 0.042463 0
9.095000 0.073857 0
9.100000 0.106338 0
9.105000 0.138256 0
9.110000 0.167728 0
9.115000 0.192809 0
9.120000 0.211705 0
9.125000 0.222980 0
9.130000 0.225742 1
9.135000 0.219753 0
9.140000 0.205471 0
9.145000 0.183982 0
9.150000 0.156873 0
9.155000 0.126024 0
9.160000 0.093376 0
9.165000 0.060635 0
9.170000 0.028854 0
9.175000 -0.002213 0
9.180000 -0.034862 0
9.185000 -0.073528 0
9.190000 -0.122736 0
9.195000 -0.182145 0
9.200000 -0.240853 0
9.205000 -0.275677 2
9.210000 -0.255941 0
9.215000 -0.151870 0
9.220000 0.056144 0
9.225000 0.363701 0
9.230000 0.723193 0
9.235000 1.037636 0
9.240000 1.193180 3
9.245000 1.123101 0
9.250000 0.851816 0
9.255000 0.477699 0
9.260000 0.112796 0
9.265000 -0.166375 0
9.270000 -0.329422 0
9.275000 -0.380233 4
9.280000 -0.345028 0
9.285000 -0.262427 0
9.290000 -0.170129 0
9.295000 -0.092230 0
9.300000 -0.035549 0
9.305000 0.004561 0
9.310000 0.035877 0
9.315000 0.064306 0
9.320000 0.092876 0
9.325000 0.122618 0
9.330000 0.153565 0
9.335000 0.185336 0
9.340000 0.217365 0
9.345000 0.248988 0
9.350000 0.279480 0
9.355000 0.308085 0
9.360000 0.334043 0
9.365000 0.356626 0
9.370000 0.375171 0
9.375000 0.389111 0
9.380000 0.398002 0
9.385000 0.401547 5
9.390000 0.399613 0
9.395000 0.392235 0
9.400000 0.379618 0
9.405000 0.362127 0
9.410000 0.340266 0
9.415000 0.314654 0
9.420000 0.285999 0
9.425000 0.255062 0
9.430000 0.222623 0
9.435000 0.189450 0
9.440000 0.156269 0
9.445000 0.123740 0
9.450000 0.092436 0
9.455000 0.062831 0
9.460000 0.035293 0
9.465000 0.010083 0
9.470000 -0.012641 0
9.475000 -0.032813 0
9.480000 -0.050451 0
9.485000 -0.065642 0
9.490000 -0.078524 0
9.495000 -0.089275 0
9.500000 -0.098098 0
9.505000 -0.105209 0
9.510000 -0.110825 0
9.515000 -0.115157 0
9.520000 -0.118405 0
9.525000 -0.120750 0
9.530000 -0.122354 0
9.535000 -0.123074 0
9.540000 -0.122109 0
9.545000 -0.121149 0
9.550000 -0.120193 0
9.555000 -0.119242 0
9.560000 -0.118296 0
9.565000 -0.117353 0
9.570000 -0.116414 0
9.575000 -0.115476 0
9.580000 -0.114536 0
9.585000 -0.113590 0
9.590000 -0.112627 0
9.595000 -0.111629 0
9.600000 -0.110568 0
9.605000 -0.109398 0
9.610000 -0.108045 0
9.615000 -0.106399 0
9.620000 -0.104302 0
9.625000 -0.101533 0
9.630000 -0.097798 0
9.635000 -0.092725 0
9.640000 -0.085868 0
9.645000 -0.076726 0
9.650000 -0.064778 0
9.655000 -0.049547 0
9.660000 -0.030670 0
9.665000 -0.007992 0
9.670000 0.018339 0
9.675000 0.047805 0
9.680000 0.079466 0
9.685000 0.111973 0
9.690000 0.143633 0
9.695000 0.172545 0
9.700000 0.196776 0
9.705000 0.214578 0
9.710000 0.224591 0
9.715000 0.226018 1
9.720000 0.218728 0
9.725000 0.203278 0
9.730000 0.180838 0
9.735000 0.153048 0
9.740000 0.121812 0
9.745000 0.089052 0
9.750000 0.056405 0
9.755000 0.024781 0
9.760000 -0.006319 0
9.765000 -0.039517 0
9.770000 -0.079447 0
9.775000 -0.130298 0
9.780000 -0.190557 0
9.785000 -0.247590 0
9.790000 -0.276804 2
9.795000 -0.247183 0
9.800000 -0.129812 0
9.805000 0.092614 0
9.810000 0.411017 0
9.815000 0.771013 0
9.820000 1.070707 0
9.825000 1.198781 3
9.830000 1.099487 0
9.835000 0.809007 0
9.840000 0.430388 0
9.845000 0.072567 0
9.850000 -0.194014 0
9.855000 -0.343830 0
9.860000 -0.383728 4
9.865000 -0.341604 0
9.870000 -0.256418 0
9.875000 -0.164734 0
9.880000 -0.088781 0
9.885000 -0.033899 0
9.890000 0.005140 0
9.895000 0.036034 0
9.900000 0.064406 0
9.905000 0.093060 0
9.910000 0.122907 0
9.915000 0.153938 0
9.920000 0.185755 0
9.925000 0.217787 0
9.930000 0.249370 0
9.935000 0.279781 0
9.940000 0.308268 0
9.945000 0.334077 0
9.950000 0.356487 0
9.955000 0.374845 0
9.960000 0.388591 0
9.965000 0.397289 0
9.970000 0.400652 5
9.975000 0.398552 0
9.980000 0.391031 0
9.985000 0.378297 0
9.990000 0.360714 0
9.995000 0.338786 0
10.000000 0.313132 0
10.005000 0.284454 0
10.010000 0.253509 0
10.015000 0.221073 0
10.020000 0.187907 0
10.025000 0.154733 0
10.030000 0.122207 0
10.035000 0.090898 0
10.040000 0.061278 0
10.045000 0.033714 0
10.050000 0.008467 0
10.055000 -0.014303 0
10.060000 -0.034531 0
10.065000 -0.052232 0
10.070000 -0.067490 0
10.075000 -0.080441 0
10.080000 -0.091260 0
10.085000 -0.100150 0
10.090000 -0.107323 0
10.095000 -0.112996 0
10.100000 -0.117379 0
10.105000 -0.120671 0
10.110000 -0.123053 0
10.115000 -0.124688 0
10.120000 -0.125426 0
10.125000 -0.124449 0
10.130000 -0.123477 0
10.135000 -0.122510 0
10.140000 -0.121547 0
10.145000 -0.120589 0
10.150000 -0.119635 0
10.155000 -0.118685 0
10.160000 -0.117736 0
10.165000 -0.116786 0
10.170000 -0.115830 0
10.175000 -0.114858 0
10.180000 -0.113855 0
10.185000 -0.112793 0
10.190000 -0.111627 0
10.195000 -0.110290 0
10.200000 -0.108676 0
10.205000 -0.106635 0
10.210000 -0.103956 0
10.215000 -0.100356 0
10.220000 -0.095477 0
10.225000 -0.088884 0
10.230000 -0.080084 0
10.235000 -0.068562 0
10.240000 -0.053832 0
10.245000 -0.035510 0
10.250000 -0.013408 0
10.255000 0.012381 0
10.260000 0.041403 0
10.265000 0.072794 0
10.270000 0.105275 0
10.275000 0.137218 0
10.280000 0.166754 0
10.285000 0.191957 0
10.290000 0.211040 0
10.295000 0.222569 0
10.300000 0.225641 1
10.305000 0.219996 0
10.310000 0.206060 0
10.315000 0.184887 0
10.320000 0.158029 0
10.325000 0.127342 0
10.330000 0.094754 0
10.335000 0.061980 0
10.340000 0.030125 0
10.345000 -0.000939 0
10.350000 -0.033318 0
10.355000 -0.071282 0
10.360000 -0.119463 0
10.365000 -0.178196 0
10.370000 -0.237796 0
10.375000 -0.276330 2
10.380000 -0.263770 0
10.385000 -0.170088 0
10.390000 0.025794 0
10.395000 0.323154 0
10.400000 0.680672 0
10.405000 1.007304 0
10.410000 1.189009 3
10.415000 1.147277 0
10.420000 0.894174 0
10.425000 0.524875 0
10.430000 0.155681 0
10.435000 -0.130912 0
10.440000 -0.300657 0
10.445000 -0.355916 4
10.450000 -0.322816 0
10.455000 -0.240783 0
10.460000 -0.148614 0
10.465000 -0.071072 0
10.470000 -0.014993 0
10.475000 0.024544 0
10.480000 0.055503 0
10.485000 0.083791 0
10.490000 0.112350 0
10.495000 0.142128 0
10.500000 0.173104 0
10.505000 0.204859 0
10.510000 0.236797 0
10.515000 0.268226 0
10.520000 0.298395 0
10.525000 0.326523 0
10.530000 0.351834 0
10.535000 0.373591 0
10.540000 0.391128 0
10.545000 0.403888 0
10.550000 0.411448 0
10.555000 0.413541 5
10.560000 0.410074 0
10.565000 0.401131 0
10.570000 0.386969 0
10.575000 0.368006 0
10.580000 0.344801 0
10.585000 0.318021 0
10.590000 0.288416 0
10.595000 0.256777 0
10.600000 0.223905 0
10.605000 0.190576 0
10.610000 0.157512 0
10.615000 0.125355 0
10.620000 0.094655 0
10.625000 0.065851 0
10.630000 0.039274 0
10.635000 0.015141 0
10.640000 -0.006431 0
10.645000 -0.025417 0
10.650000 -0.041872 0
10.655000 -0.055914 0
10.660000 -0.067709 0
10.665000 -0.077455 0
10.670000 -0.085368 0
10.675000 -0.091672 0
10.680000 -0.096587 0
10.685000 -0.100325 0
10.690000 -0.103078 0
10.695000 -0.105021 0
10.700000 -0.106308 0
10.705000 -0.105739 0
10.710000 -0.104861 0
10.715000 -0.103986 0
10.720000 -0.103116 0
10.725000 -0.102250 0
10.730000 -0.101388 0
10.735000 -0.100529 0
10.740000 -0.099671 0
10.745000 -0.098812 0
10.750000 -0.097948 0
10.755000 -0.097068 0
10.760000 -0.096157 0
10.765000 -0.095188 0
10.770000 -0.094118 0
10.775000 -0.092875 0
10.780000 -0.091354 0
10.785000 -0.089399 0
10.790000 -0.086793 0
10.795000 -0.083241 0
10.800000 -0.078370 0
10.805000 -0.071726 0
10.810000 -0.062799 0
10.815000 -0.051054 0
10.820000 -0.035995 0
10.825000 -0.017246 0
10.830000 0.005355 0
10.835000 0.031659 0
10.840000 0.061128 0
10.845000 0.092786 0
10.850000 0.125233 0
10.855000 0.156716 0
10.860000 0.185273 0
10.865000 0.208928 0
10.870000 0.225912 0
10.875000 0.234882 0
10.880000 0.235098 1
10.885000 0.226518 0
10.890000 0.209812 0
10.895000 0.186271 0
10.900000 0.157641 0
10.905000 0.125899 0
10.910000 0.092989 0
10.915000 0.060477 0
10.920000 0.029034 0
10.925000 -0.002319 0
10.930000 -0.036883 0
10.935000 -0.079659 0
10.940000 -0.133918 0
10.945000 -0.195184 0
10.950000 -0.246465 0
10.955000 -0.259537 2
10.960000 -0.202288 0
10.965000 -0.047949 0
10.970000 0.213567 0
10.975000 0.557428 0
10.980000 0.907119 0
10.985000 1.147125 0
10.990000 1.178997 3
10.995000 0.982459 0
11.000000 0.634067 0
11.005000 0.254917 0
11.010000 -0.057121 0
11.015000 -0.254747 0
11.020000 -0.332967 4
11.025000 -0.314420 0
11.030000 -0.238174 0
11.035000 -0.145616 0
11.040000 -0.065282 0
11.045000 -0.006711 0
11.050000 0.034156 0
11.055000 0.065541 0
11.060000 0.093836 0
11.065000 0.122287 0
11.070000 0.151962 0
11.075000 0.182866 0
11.080000 0.214571 0
11.085000 0.246459 0
11.090000 0.277814 0
11.095000 0.307855 0
11.100000 0.335775 0
11.105000 0.360771 0
11.110000 0.382082 0
11.115000 0.399033 0
11.120000 0.411058 0
11.125000 0.417742 0
11.130000 0.418836 5
11.135000 0.414275 0
11.140000 0.404180 0
11.145000 0.388854 0
11.150000 0.368763 0
11.155000 0.344517 0
11.160000 0.316833 0
11.165000 0.286502 0
11.170000 0.254349 0
11.175000 0.221199 0
11.180000 0.187841 0
11.185000 0.154994 0
11.190000 0.123292 0
11.195000 0.093260 0
11.200000 0.065307 0
11.205000 0.039726 0
11.210000 0.016696 0
11.215000 -0.003706 0
11.220000 -0.021497 0
11.225000 -0.036767 0
11.230000 -0.049665 0
11.235000 -0.060382 0
11.240000 -0.069134 0
11.245000 -0.076152 0
11.250000 -0.081665 0
11.255000 -0.085897 0
11.260000 -0.089056 0
11.265000 -0.091329 0
11.270000 -0.092884 0
11.275000 -0.092411 0
11.280000 -0.091599 0
11.285000 -0.090791 0
11.290000 -0.089986 0
11.295000 -0.089186 0
11.300000 -0.088389 0
11.305000 -0.087595 0
11.310000 -0.086802 0
11.315000 -0.086009 0
11.320000 -0.085210 0
11.325000 -0.084397 0
11.330000 -0.083555 0
11.335000 -0.082657 0
11.340000 -0.081660 0
11.345000 -0.080494 0
11.350000 -0.079052 0
11.355000 -0.077176 0
11.360000 -0.074641 0
11.365000 -0.071145 0
11.370000 -0.066300 0
11.375000 -0.059637 0
11.380000 -0.050622 0
11.385000 -0.038704 0
11.390000 -0.023375 0
11.395000 -0.004262 0
11.400000 0.018772 0
11.405000 0.045527 0
11.410000 0.075381 0
11.415000 0.107250 0
11.420000 0.139611 0
11.425000 0.170595 0
11.430000 0.198147 0
11.435000 0.220250 0
11.440000 0.235165 0
11.445000 0.241652 1
11.450000 0.239144 0
11.455000 0.227825 0
11.460000 0.208607 0
11.465000 0.183007 0
11.470000 0.152947 0
11.475000 0.120494 0
11.480000 0.087555 0
11.485000 0.055451 0
11.490000 0.024250 0
11.495000 -0.008086 0
11.500000 -0.046007 0
11.505000 -0.094467 0
11.510000 -0.153666 0
11.515000 -0.212593 0
11.520000 -0.246837 2
11.525000 -0.223834 0
11.530000 -0.112310 0
11.535000 0.107112 0
11.540000 0.425644 0
11.545000 0.785170 0
11.550000 1.076313 0
11.555000 1.182991 3
11.560000 1.055061 0
11.565000 0.742806 0
11.570000 0.360799 0
11.575000 0.019076 0
11.580000 -0.218704 0
11.585000 -0.335451 0
11.590000 -0.345778 4
11.595000 -0.284285 0
11.600000 -0.193138 0
11.605000 -0.106421 0
11.610000 -0.040070 0
11.615000 0.006264 0
11.620000 0.040230 0
11.625000 0.069187 0
11.630000 0.097441 0
11.635000 0.126696 0
11.640000 0.157247 0
11.645000 0.188784 0
11.650000 0.220751 0
11.655000 0.252467 0
11.660000 0.283179 0
11.665000 0.312091 0
11.670000 0.338399 0
11.675000 0.361327 0
11.680000 0.380166 0
11.685000 0.394307 0
11.690000 0.403275 0
11.695000 0.406751 5
11.700000 0.404596 0
11.705000 0.396853 0
11.710000 0.383749 0
11.715000 0.365681 0
11.720000 0.343198 0
11.725000 0.316969 0
11.730000 0.287753 0
11.735000 0.256360 0
11.740000 0.223614 0
11.745000 0.190317 0
11.750000 0.157218 0
11.755000 0.124988 0
11.760000 0.094197 0
11.765000 0.065305 0
11.770000 0.038657 0
11.775000 0.014483 0
11.780000 -0.007097 0
11.785000 -0.026057 0
11.790000 -0.042453 0
11.795000 -0.056409 0
11.800000 -0.068094 0
11.805000 -0.077714 0
11.810000 -0.085493 0
11.815000 -0.091661 0
11.820000 -0.096443 0
11.825000 -0.100054 0
11.830000 -0.102690 0
11.835000 -0.104530 0
11.840000 -0.105426 0
11.845000 -0.104549 0
11.850000 -0.103676 0
11.855000 -0.102807 0
11.860000 -0.101943 0
11.865000 -0.101083 0
11.870000 -0.100226 0
11.875000 -0.099372 0
11.880000 -0.098519 0
11.885000 -0.097664 0
11.890000 -0.096800 0
11.895000 -0.095917 0
11.900000 -0.094995 0
11.905000 -0.094001 0
11.910000 -0.092882 0
11.915000 -0.091553 0
11.920000 -0.089889 0
11.925000 -0.087705 0
11.930000 -0.084747 0
11.935000 -0.080679 0
11.940000 -0.075080 0
11.945000 -0.067455 0
11.950000 -0.057259 0
11.955000 -0.043954 0
11.960000 -0.027079 0
11.965000 -0.006344 0
11.970000 0.018265 0
11.975000 0.046389 0
11.980000 0.077234 0
11.985000 0.109547 0
11.990000 0.141668 0
11.995000 0.171646 0
12.000000 0.197430 0
12.005000 0.217090 0
12.010000 0.229059 0
12.015000 0.232339 1
12.020000 0.226633 0
12.025000 0.212394 0
12.030000 0.190761 0
12.035000 0.163411 0
12.040000 0.132333 0
12.045000 0.099564 0
12.050000 0.066856 0
12.055000 0.035184 0
12.060000 0.004007 0
12.065000 -0.029535 0
12.070000 -0.070396 0
12.075000 -0.122677 0
12.080000 -0.183605 0
12.085000 -0.237881 0
12.090000 -0.257826 2
12.095000 -0.210438 0
12.100000 -0.067058 0
12.105000 0.185153 0
12.110000 0.524709 0
12.115000 0.877097 0
12.120000 1.124923 0
12.125000 1.164689 3
12.130000 0.974921 0
12.135000 0.630279 0
12.140000 0.250092 0
12.145000 -0.066995 0
12.150000 -0.271734 0
12.155000 -0.357200 4
12.160000 -0.344312 0
12.165000 -0.270886 0
12.170000 -0.178204 0
12.175000 -0.095943 0
12.180000 -0.035143 0
12.185000 0.007314 0
12.190000 0.039494 0
12.195000 0.068039 0
12.200000 0.096491 0
12.205000 0.126100 0
12.210000 0.156962 0
12.215000 0.188693 0
12.220000 0.220703 0
12.225000 0.252296 0
12.230000 0.282712 0
12.235000 0.311153 0
12.240000 0.336824 0
12.245000 0.358967 0
12.250000 0.376893 0
12.255000 0.390025 0
12.260000 0.397920 0
12.265000 0.400297 5
12.270000 0.397053 0
12.275000 0.388270 0
12.280000 0.374206 0
12.285000 0.355287 0
12.290000 0.332084 0
12.295000 0.305281 0
12.300000 0.275645 0
12.305000 0.243986 0
12.310000 0.211120 0
12.315000 0.177840 0
12.320000 0.144877 0
12.325000 0.112881 0
12.330000 0.082404 0
12.335000 0.053883 0
12.340000 0.027643 0
12.345000 0.003894 0
12.350000 -0.017259 0
12.355000 -0.035803 0
12.360000 -0.051806 0
12.365000 -0.065396 0
12.370000 -0.076750 0
12.375000 -0.086075 0
12.380000 -0.093595 0
12.385000 -0.099537 0
12.390000 -0.104126 0
12.395000 -0.107573 0
12.400000 -0.110071 0
12.405000 -0.111793 0
12.410000 -0.112600 0
12.415000 -0.111687 0
12.420000 -0.110779 0
12.425000 -0.109875 0
12.430000 -0.108975 0
12.435000 -0.108080 0
12.440000 -0.107188 0
12.445000 -0.106299 0
12.450000 -0.105411 0
12.455000 -0.104521 0
12.460000 -0.103621 0
12.465000 -0.102702 0
12.470000 -0.101741 0
12.475000 -0.100707 0
12.480000 -0.099542 0
12.485000 -0.098163 0
12.490000 -0.096439 0
12.495000 -0.094184 0
12.500000 -0.091140 0
12.505000 -0.086970 0
12.510000 -0.081251 0
12.515000 -0.073486 0
12.520000 -0.063134 0
12.525000 -0.049662 0
12.530000 -0.032615 0
12.535000 -0.011716 0
12.540000 0.013040 0
12.545000 0.041283 0
12.550000 0.072211 0
12.555000 0.104568 0
12.560000 0.136695 0
12.565000 0.166652 0
12.570000 0.192398 0
12.575000 0.212020 0
12.580000 0.223965 0
12.585000 0.227242 1
12.590000 0.221562 0
12.595000 0.207374 0
12.600000 0.185808 0
12.605000 0.158528 0
12.610000 0.127509 0
12.615000 0.094779 0
12.620000 0.062083 0
12.625000 0.030415 0
12.630000 -0.000722 0
12.635000 -0.034107 0
12.640000 -0.074631 0
12.645000 -0.126480 0
12.650000 -0.187247 0
12.655000 -0.242239 0
12.660000 -0.264340 2
12.665000 -0.220781 0
12.670000 -0.082648 0
12.675000 0.163975 0
12.680000 0.500116 0
12.685000 0.854823 0
12.690000 1.112742 0
12.695000 1.167915 3
12.700000 0.990991 0
12.705000 0.651817 0
12.710000 0.270801 0
12.715000 -0.049987 0
12.720000 -0.258569 0
12.725000 -0.346778 4
12.730000 -0.335289 0
12.735000 -0.262278 0
12.740000 -0.169661 0
12.745000 -0.087568 0
12.750000 -0.027103 0
12.755000 0.015017 0
12.760000 0.046983 0
12.765000 0.075451 0
12.770000 0.103909 0
12.775000 0.133557 0
12.780000 0.164456 0
12.785000 0.196198 0
12.790000 0.228176 0
12.795000 0.259677 0
12.800000 0.289925 0
12.805000 0.318110 0
12.810000 0.343426 0
12.815000 0.365108 0
12.820000 0.382470 0
12.825000 0.394939 0
12.830000 0.402084 0
12.835000 0.403646 5
12.840000 0.399546 0
12.845000 0.389892 0
12.850000 0.374976 0
12.855000 0.355256 0
12.860000 0.331333 0
12.865000 0.303919 0
12.870000 0.273803 0
12.875000 0.241812 0
12.880000 0.208773 0
12.885000 0.175477 0
12.890000 0.142654 0
12.895000 0.110941 0
12.900000 0.080870 0
12.905000 0.052861 0
12.910000 0.027212 0
12.915000 0.004110 0
12.920000 -0.016365 0
12.925000 -0.034225 0
12.930000 -0.049554 0
12.935000 -0.062501 0
12.940000 -0.073255 0
12.945000 -0.082032 0
12.950000 -0.089062 0
12.955000 -0.094576 0
12.960000 -0.098797 0
12.965000 -0.101935 0
12.970000 -0.104179 0
12.975000 -0.105697 0
12.980000 -0.105165 0
12.985000 -0.104289 0
12.990000 -0.103418 0
12.995000 -0.102550 0
13.000000 -0.101687 0
13.005000 -0.100828 0
13.010000 -0.099972 0
13.015000 -0.099118 0
13.020000 -0.098263 0
13.025000 -0.097404 0
13.030000 -0.096531 0
13.035000 -0.095629 0
13.040000 -0.094674 0
13.045000 -0.093621 0
13.050000 -0.092402 0
13.055000 -0.090911 0
13.060000 -0.088990 0
13.065000 -0.086418 0
13.070000 -0.082894 0
13.075000 -0.078031 0
13.080000 -0.071360 0
13.085000 -0.062350 0
13.090000 -0.050446 0
13.095000 -0.035139 0
13.100000 -0.016050 0
13.105000 0.006964 0
13.110000 0.033709 0
13.115000 0.063571 0
13.120000 0.095473 0
13.125000 0.127897 0
13.130000 0.158972 0
13.135000 0.186644 0
13.140000 0.208890 0
13.145000 0.223959 0
13.150000 0.230605 1
13.155000 0.228249 0
13.160000 0.217069 0
13.165000 0.197970 0
13.170000 0.172468 0
13.175000 0.142486 0
13.180000 0.110095 0
13.185000 0.077208 0
13.190000 0.045151 0
13.195000 0.014001 0
13.200000 -0.018277 0
13.205000 -0.056133 0
13.210000 -0.104533 0
13.215000 -0.163682 0
13.220000 -0.222547 0
13.225000 -0.256659 2
13.230000 -0.233390 0
13.235000 -0.121428 0
13.240000 0.098563 0
13.245000 0.417590 0
13.250000 0.777109 0
13.255000 1.067311 0
13.260000 1.172143 3
13.265000 1.042770 0
13.270000 0.730094 0
13.275000 0.348118 0
13.280000 0.006204 0
13.285000 -0.232245 0
13.290000 -0.350021 0
13.295000 -0.361420 4
13.300000 -0.300646 0
13.305000 -0.209613 0
13.310000 -0.122476 0
13.315000 -0.055490 0
13.320000 -0.008611 0
13.325000 0.025687 0
13.330000 0.054794 0
13.335000 0.083098 0
13.340000 0.112365 0
13.345000 0.142926 0
13.350000 0.174491 0
13.355000 0.206515 0
13.360000 0.238327 0
13.365000 0.269180 0
13.370000 0.298284 0
13.375000 0.324842 0
13.380000 0.348079 0
13.385000 0.367285 0
13.390000 0.381847 0
13.395000 0.391281 0
13.400000 0.395261 5
13.405000 0.393631 0
13.410000 0.386419 0
13.415000 0.373837 0
13.420000 0.356264 0
13.425000 0.334232 0
13.430000 0.308398 0
13.435000 0.279507 0
13.440000 0.248361 0
13.445000 0.215780 0
13.450000 0.182563 0
13.455000 0.149463 0
13.460000 0.117156 0
13.465000 0.086222 0
13.470000 0.057131 0
13.475000 0.030240 0
13.480000 0.005792 0
13.485000 -0.016081 0
13.490000 -0.035340 0
13.495000 -0.052032 0
13.500000 -0.066269 0
13.505000 -0.078217 0
13.510000 -0.088075 0
13.515000 -0.096063 0
13.520000 -0.102409 0
13.525000 -0.107340 0
13.530000 -0.111069 0
13.535000 -0.113797 0
13.540000 -0.115703 0
13.545000 -0.116943 0
13.550000 -0.116322 0
13.555000 -0.115391 0
13.560000 -0.114464 0
13.565000 -0.113541 0
13.570000 -0.112623 0
13.575000 -0.111709 0
13.580000 -0.110798 0
13.585000 -0.109889 0
13.590000 -0.108979 0
13.595000 -0.108062 0
13.600000 -0.107129 0
13.605000 -0.106162 0
13.610000 -0.105132 0
13.615000 -0.103992 0
13.620000 -0.102665 0
13.625000 -0.101036 0
13.630000 -0.098935 0
13.635000 -0.096129 0
13.640000 -0.092302 0
13.645000 -0.087055 0
13.650000 -0.079911 0
13.655000 -0.070339 0
13.660000 -0.057795 0
13.665000 -0.041794 0
13.670000 -0.021997 0
13.675000 0.001689 0
13.680000 0.029011 0
13.685000 0.059294 0
13.690000 0.091413 0
13.695000 0.123815 0
13.700000 0.154624 0
13.705000 0.181809 0
13.710000 0.203393 0
13.715000 0.217698 0
13.720000 0.223556 1
13.725000 0.220464 0
13.730000 0.208660 0
13.735000 0.189091 0
13.740000 0.163284 0
13.745000 0.133152 0
13.750000 0.100735 0
13.755000 0.067900 0
13.760000 0.035922 0
13.765000 0.004822 0
13.770000 -0.027462 0
13.775000 -0.065352 0
13.780000 -0.113731 0
13.785000 -0.172798 0
13.790000 -0.231764 0
13.795000 -0.266673 2
13.800000 -0.245450 0
13.805000 -0.137070 0
13.810000 0.078186 0
13.815000 0.393159 0
13.820000 0.753036 0
13.825000 1.051804 0
13.830000 1.173224 3
13.835000 1.064509 0
13.840000 0.767316 0
13.845000 0.387440 0
13.850000 0.033617 0
13.855000 -0.225770 0
13.860000 -0.367415 0
13.865000 -0.400000 4
13.870000 -0.352905 0
13.875000 -0.265822 0
13.880000 -0.174829 0
13.885000 -0.100792 0
13.890000 -0.047736 0
13.895000 -0.009809 0
13.900000 0.020680 0
13.905000 0.049081 0
13.910000 0.077950 0
13.915000 0.108053 0
13.920000 0.139310 0
13.925000 0.171286 0
13.930000 0.203391 0
13.935000 0.234943 0
13.940000 0.265205 0
13.945000 0.293414 0
13.950000 0.318812 0
13.955000 0.340681 0
13.960000 0.358372 0
13.965000 0.371339 0
13.970000 0.379169 0
13.975000 0.381600 5
13.980000 0.378533 0
13.985000 0.370044 0
13.990000 0.356376 0
13.995000 0.337927 0
14.000000 0.315234 0
14.005000 0.288941 0
14.010000 0.259775 0
14.015000 0.228505 0
14.020000 0.195916 0
14.025000 0.162770 0
14.030000 0.129783 0
14.035000 0.097597 0
14.040000 0.066763 0
14.045000 0.037732 0
14.050000 0.010847 0
14.055000 -0.013658 0
14.060000 -0.035647 0
14.065000 -0.055078 0
14.070000 -0.071987 0
14.075000 -0.086476 0
14.080000 -0.098696 0
14.085000 -0.108834 0
14.090000 -0.117096 0
14.095000 -0.123702 0
14.100000 -0.128868 0
14.105000 -0.132804 0
14.110000 -0.135706 0
14.115000 -0.137749 0
14.120000 -0.139093 0
14.125000 -0.138395 0
14.130000 -0.137353 0
14.135000 -0.136317 0
14.140000 -0.135285 0
14.145000 -0.134259 0
14.150000 -0.133237 0
14.155000 -0.132220 0
14.160000 -0.131206 0
14.165000 -0.130192 0
14.170000 -0.129177 0
14.175000 -0.128152 0
14.180000 -0.127107 0
14.185000 -0.126020 0
14.190000 -0.124859 0
14.195000 -0.123569 0
14.200000 -0.122068 0
14.205000 -0.120230 0
14.210000 -0.117880 0
14.215000 -0.114773 0
14.220000 -0.110591 0
14.225000 -0.104936 0
14.230000 -0.097340 0
14.235000 -0.087289 0
14.240000 -0.074266 0
14.245000 -0.057820 0
14.250000 -0.037644 0
14.255000 -0.013672 0
14.260000 0.013835 0
14.265000 0.044219 0
14.270000 0.076398 0
14.275000 0.108893 0
14.280000 0.139918 0
14.285000 0.167531 0
14.290000 0.189831 0
14.295000 0.205172 0
14.300000 0.212366 1
14.305000 0.210836 0
14.310000 0.200689 0
14.315000 0.182710 0
14.320000 0.158258 0
14.325000 0.129097 0
14.330000 0.097175 0
14.335000 0.064359 0
14.340000 0.032095 0
14.345000 0.000878 0
14.350000 -0.030490 0
14.355000 -0.065475 0
14.360000 -0.109012 0
14.365000 -0.163926 0
14.370000 -0.225091 0
14.375000 -0.275132 0
14.380000 -0.286067 2
14.385000 -0.226528 0
14.390000 -0.070590 0
14.395000 0.191315 0
14.400000 0.534862 0
14.405000 0.885721 0
14.410000 1.131207 0
14.415000 1.173315 3
14.420000 0.990946 0
14.425000 0.652502 0
14.430000 0.270623 0
14.435000 -0.057599 0
14.440000 -0.280011 0
14.445000 -0.385234 0
14.450000 -0.389319 4
14.455000 -0.325753 0
14.460000 -0.234268 0
14.465000 -0.146909 0
14.470000 -0.079110 0
14.475000 -0.031137 0
14.480000 0.004002 0
14.485000 0.033501 0
14.490000 0.061844 0
14.495000 0.090980 0
14.500000 0.121375 0
14.505000 0.152831 0
14.510000 0.184868 0
14.515000 0.216876 0
14.520000 0.248166 0
14.525000 0.278001 0
14.530000 0.305623 0
14.535000 0.330290 0
14.540000 0.351302 0
14.545000 0.368038 0
14.550000 0.379982 0
14.555000 0.386754 0
14.560000 0.388124 5
14.565000 0.384029 0
14.570000 0.374573 0
14.575000 0.360025 0
14.580000 0.340804 0
14.585000 0.317461 0
14.590000 0.290647 0
14.595000 0.261089 0
14.600000 0.229555 0
14.605000 0.196818 0
14.610000 0.163627 0
14.615000 0.130682 0
14.620000 0.098606 0
14.625000 0.067936 0
14.630000 0.039103 0
14.635000 0.012434 0
14.640000 -0.011848 0
14.645000 -0.033620 0
14.650000 -0.052848 0
14.655000 -0.069574 0
14.660000 -0.083902 0
14.665000 -0.095986 0
14.670000 -0.106012 0
14.675000 -0.114187 0
14.680000 -0.120726 0
14.685000 -0.125844 0
14.690000 -0.129748 0
14.695000 -0.132630 0
14.700000 -0.134665 0
14.705000 -0.136008 0
14.710000 -0.135323 0
14.715000 -0.134297 0
14.720000 -0.133276 0
14.725000 -0.132259 0
14.730000 -0.131248 0
14.735000 -0.130242 0
14.740000 -0.129239 0
14.745000 -0.128240 0
14.750000 -0.127241 0
14.755000 -0.126241 0
14.760000 -0.125232 0
14.765000 -0.124202 0
14.770000 -0.123133 0
14.775000 -0.121991 0
14.780000 -0.120725 0
14.785000 -0.119255 0
14.790000 -0.117460 0
14.795000 -0.115170 0
14.800000 -0.112148 0
14.805000 -0.108087 0
14.810000 -0.102598 0
14.815000 -0.095225 0
14.820000 -0.085462 0
14.825000 -0.072797 0
14.830000 -0.056771 0
14.835000 -0.037061 0
14.840000 -0.013568 0
14.845000 0.013493 0
14.850000 0.043526 0
14.855000 0.075516 0
14.860000 0.108051 0
14.865000 0.139403 0
14.870000 0.167661 0
14.875000 0.190926 0
14.880000 0.207514 0
14.885000 0.216162 0
14.890000 0.216186 1
14.895000 0.207569 0
14.900000 0.190970 0
14.905000 0.167636 0
14.910000 0.139249 0
14.915000 0.107719 0
14.920000 0.074932 0
14.925000 0.042444 0
14.930000 0.011009 0
14.935000 -0.020116 0
14.940000 -0.053840 0
14.945000 -0.094907 0
14.950000 -0.147102 0
14.955000 -0.207838 0
14.960000 -0.263102 0
14.965000 -0.287382 2
14.970000 -0.249690 0
14.975000 -0.122048 0
14.980000 0.110864 0
14.985000 0.436419 0
14.990000 0.795761 0
14.995000 1.084644 0
15.000000 1.194699 3
15.005000 1.076098 0
15.010000 0.772522 0
15.015000 0.391559 0
15.020000 0.040994 0
15.025000 -0.212922 0
15.030000 -0.348733 0
15.035000 -0.376424 4
15.040000 -0.326276 0
15.045000 -0.238262 0
15.050000 -0.147953 0
15.055000 -0.075259 0
15.060000 -0.023415 0
15.065000 0.013752 0
15.070000 0.043883 0
15.075000 0.072157 0
15.080000 0.100989 0
15.085000 0.131070 0
15.090000 0.162286 0
15.095000 0.194188 0
15.100000 0.226174 0
15.105000 0.257556 0
15.110000 0.287594 0
15.115000 0.315520 0
15.120000 0.340577 0
15.125000 0.362048 0
15.130000 0.379290 0
15.135000 0.391766 0
15.140000 0.399071 0
15.145000 0.400955 5
15.150000 0.397334 0
15.155000 0.388299 0
15.160000 0.374106 0
15.165000 0.355168 0
15.170000 0.332032 0
15.175000 0.305355 0
15.180000 0.275870 0
15.185000 0.244350 0
15.190000 0.211583 0
15.195000 0.178329 0
15.200000 0.145299 0
15.205000 0.113129 0
15.210000 0.082363 0
15.215000 0.053442 0
15.220000 0.026699 0
15.225000 0.002358 0
15.230000 -0.019454 0
15.235000 -0.038706 0
15.240000 -0.055440 0
15.245000 -0.069764 0
15.250000 -0.081835 0
15.255000 -0.091843 0
15.260000 -0.099997 0
15.265000 -0.106516 0
15.270000 -0.111618 0
15.275000 -0.115512 0
15.280000 -0.118391 0
15.285000 -0.120430 0
15.290000 -0.121786 0
15.295000 -0.121163 0
15.300000 -0.120207 0
15.305000 -0.119256 0
15.310000 -0.118310 0
15.315000 -0.117368 0
15.320000 -0.116431 0
15.325000 -0.115497 0
15.330000 -0.114566 0
15.335000 -0.113635 0
15.340000 -0.112701 0
15.345000 -0.111756 0
15.350000 -0.110787 0
15.355000 -0.109773 0
15.360000 -0.108678 0
15.365000 -0.107444 0
15.370000 -0.105982 0
15.375000 -0.104162 0
15.380000 -0.101797 0
15.385000 -0.098632 0
15.390000 -0.094336 0
15.395000 -0.088499 0
15.400000 -0.080642 0
15.405000 -0.070246 0
15.410000 -0.056799 0
15.415000 -0.039864 0
15.420000 -0.019166 0
15.425000 0.005317 0
15.430000 0.033264 0
15.435000 0.063947 0
15.440000 0.096214 0
15.445000 0.128525 0
15.450000 0.159051 0
15.455000 0.185837 0
15.460000 0.207004 0
15.465000 0.220968 0
15.470000 0.226629 1
15.475000 0.223523 0
15.480000 0.211879 0
15.485000 0.192591 0
15.490000 0.167108 0
15.495000 0.137247 0
15.500000 0.104967 0
15.505000 0.072095 0
15.510000 0.039954 0
15.515000 0.008793 0
15.520000 -0.022980 0
15.525000 -0.059241 0
15.530000 -0.104907 0
15.535000 -0.161792 0
15.540000 -0.222638 0
15.545000 -0.267672 2
15.550000 -0.267529 0
15.555000 -0.191114 0
15.560000 -0.014591 0
15.565000 0.266597 0
15.570000 0.619055 0
15.575000 0.958379 0
15.580000 1.169234 3
15.585000 1.165499 0
15.590000 0.944627 0
15.595000 0.588358 0
15.600000 0.210616 0
15.605000 -0.099306 0
15.610000 -0.298294 0
15.615000 -0.381408 4
15.620000 -0.368934 0
15.625000 -0.296683 0
15.630000 -0.203980 0
15.635000 -0.119959 0
15.640000 -0.056572 0
15.645000 -0.011911 0
15.650000 0.021515 0
15.655000 0.050454 0
15.660000 0.078809 0
15.665000 0.108140 0
15.670000 0.138728 0
15.675000 0.170293 0
15.680000 0.202324 0
15.685000 0.234188 0
15.690000 0.265184 0
15.695000 0.294567 0
15.700000 0.321579 0
15.705000 0.345484 0
15.710000 0.365595 0
15.715000 0.381308 0
15.720000 0.392137 0
15.725000 0.397728 0
15.730000 0.397888 5
15.735000 0.392588 0
15.740000 0.381968 0
15.745000 0.366331 0
15.750000 0.346126 0
15.755000 0.321929 0
15.760000 0.294411 0
15.765000 0.264312 0
15.770000 0.232403 0
15.775000 0.199456 0
15.780000 0.166212 0
15.785000 0.133357 0
15.790000 0.101498 0
15.795000 0.071148 0
15.800000 0.042717 0
15.805000 0.016510 0
15.810000 -0.007273 0
15.815000 -0.028530 0
15.820000 -0.047245 0
15.825000 -0.063474 0
15.830000 -0.077335 0
15.835000 -0.088990 0
15.840000 -0.098630 0
15.845000 -0.106465 0
15.850000 -0.112712 0
15.855000 -0.117585 0
15.860000 -0.121288 0
15.865000 -0.124009 0
15.870000 -0.125920 0
15.875000 -0.127170 0
15.880000 -0.126509 0
15.885000 -0.125526 0
15.890000 -0.124549 0
15.895000 -0.123576 0
15.900000 -0.122608 0
15.905000 -0.121645 0
15.910000 -0.120685 0
15.915000 -0.119727 0
15.920000 -0.118770 0
15.925000 -0.117810 0
15.930000 -0.116838 0
15.935000 -0.115842 0
15.940000 -0.114800 0
15.945000 -0.113675 0
15.950000 -0.112409 0
15.955000 -0.110914 0
15.960000 -0.109059 0
15.965000 -0.106659 0
15.970000 -0.103460 0
15.975000 -0.099135 0
15.980000 -0.093279 0
15.985000 -0.085419 0
15.990000 -0.075044 0
15.995000 -0.061646 0
16.000000 -0.044792 0
16.005000 -0.024204 0
16.010000 0.000149 0
16.015000 0.027965 0
16.020000 0.058546 0
16.025000 0.090776 0
16.030000 0.123156 0
16.035000 0.153893 0
16.040000 0.181061 0
16.045000 0.202790 0
16.050000 0.217482 0
16.055000 0.224003 1
16.060000 0.221827 0
16.065000 0.211109 0
16.070000 0.192664 0
16.075000 0.167866 0
16.080000 0.138477 0
16.085000 0.106427 0
16.090000 0.073557 0
16.095000 0.041273 0
16.100000 0.010028 0
16.105000 -0.021420 0
16.110000 -0.056553 0
16.115000 -0.100262 0
16.120000 -0.155296 0
16.125000 -0.216510 0
16.130000 -0.266683 0
16.135000 -0.278128 2
16.140000 -0.219773 0
16.145000 -0.065809 0
16.150000 0.193687 0
16.155000 0.535668 0
16.160000 0.887976 0
16.165000 1.139604 0
16.170000 1.191633 3
16.175000 1.018628 0
16.180000 0.685063 0
16.185000 0.302657 0
16.190000 -0.029964 0
16.195000 -0.258453 0
16.200000 -0.369710 0
16.205000 -0.378581 4
16.210000 -0.317775 0
16.215000 -0.226943 0
16.220000 -0.138813 0
16.225000 -0.069794 0
16.230000 -0.020853 0
16.235000 0.014786 0
16.240000 0.044412 0
16.245000 0.072686 0
16.250000 0.101681 0
16.255000 0.131930 0
16.260000 0.163263 0
16.265000 0.195216 0
16.270000 0.227185 0
16.275000 0.258489 0
16.280000 0.288393 0
16.285000 0.316145 0
16.290000 0.341000 0
16.295000 0.362257 0
16.300000 0.379288 0
16.305000 0.391570 0
16.310000 0.398712 0
16.315000 0.400473 5
16.320000 0.396775 0
16.325000 0.387708 0
16.330000 0.373526 0
16.335000 0.354636 0
16.340000 0.331575 0
16.345000 0.304988 0
16.350000 0.275592 0
16.355000 0.244151 0
16.360000 0.211437 0
16.365000 0.178201 0
16.370000 0.145147 0
16.375000 0.112904 0
16.380000 0.082017 0
16.385000 0.052926 0
16.390000 0.025969 0
16.395000 0.001378 0
16.400000 -0.020714 0
16.405000 -0.040265 0
16.410000 -0.057309 0
16.415000 -0.071944 0
16.420000 -0.084319 0
16.425000 -0.094617 0
16.430000 -0.103041 0
16.435000 -0.109808 0
16.440000 -0.115130 0
16.445000 -0.119216 0
16.450000 -0.122260 0
16.455000 -0.124437 0
16.460000 -0.125906 0
16.465000 -0.125283 0
16.470000 -0.124306 0
16.475000 -0.123335 0
16.480000 -0.122369 0
16.485000 -0.121407 0
16.490000 -0.120449 0
16.495000 -0.119496 0
16.500000 -0.118545 0
16.505000 -0.117596 0
16.510000 -0.116645 0
16.515000 -0.115686 0
16.520000 -0.114709 0
16.525000 -0.113694 0
16.530000 -0.112613 0
16.535000 -0.111416 0
16.540000 -0.110028 0
16.545000 -0.108336 0
16.550000 -0.106177 0
16.555000 -0.103326 0
16.560000 -0.099486 0
16.565000 -0.094283 0
16.570000 -0.087269 0
16.575000 -0.077945 0
16.580000 -0.065798 0
16.585000 -0.050358 0
16.590000 -0.031276 0
16.595000 -0.008413 0
16.600000 0.018071 0
16.605000 0.047644 0
16.610000 0.079361 0
16.615000 0.111874 0
16.620000 0.143500 0
16.625000 0.172353 0
16.630000 0.196520 0
16.635000 0.214275 0
16.640000 0.224274 0
16.645000 0.225730 1
16.650000 0.218511 0
16.655000 0.203164 0
16.660000 0.180839 0
16.665000 0.153154 0
16.670000 0.121991 0
16.675000 0.089256 0
16.680000 0.056587 0
16.685000 0.024922 0
16.690000 -0.006153 0
16.695000 -0.039126 0
16.700000 -0.078514 0
16.705000 -0.128618 0
16.710000 -0.188484 0
16.715000 -0.246461 0
16.720000 -0.278942 2
16.725000 -0.255415 0
16.730000 -0.146740 0
16.735000 0.065720 0
16.740000 0.376257 0
16.745000 0.736054 0
16.750000 1.048059 0
16.755000 1.200000 3
16.760000 1.123914 0
16.765000 0.846046 0
16.770000 0.469649 0
16.775000 0.109095 0
16.780000 -0.160270 0
16.785000 -0.310822 0
16.790000 -0.349484 4
16.795000 -0.305445 0
16.800000 -0.219288 0
16.805000 -0.128406 0
16.810000 -0.054559 0
16.815000 -0.001952 0
16.820000 0.035473 0
16.825000 0.065581 0
16.830000 0.093750 0
16.835000 0.122481 0
16.840000 0.152480 0
16.845000 0.183622 0
16.850000 0.215440 0
16.855000 0.247313 0
16.860000 0.278532 0
16.865000 0.308332 0
16.870000 0.335928 0
16.875000 0.360545 0
16.880000 0.381452 0
16.885000 0.398002 0
16.890000 0.409660 0
16.895000 0.416033 0
16.900000 0.416891 5
16.905000 0.412177 0
16.910000 0.402016 0
16.915000 0.386704 0
16.920000 0.366695 0
16.925000 0.342579 0
16.930000 0.315048 0
16.935000 0.284868 0
16.940000 0.252842 0
16.945000 0.219770 0
16.950000 0.186421 0
16.955000 0.153505 0
16.960000 0.121645 0
16.965000 0.091366 0
16.970000 0.063083 0
16.975000 0.037098 0
16.980000 0.013603 0
16.985000 -0.007309 0
16.990000 -0.025636 0
16.995000 -0.041452 0
17.000000 -0.054890 0
17.005000 -0.066127 0
17.010000 -0.075367 0
17.015000 -0.082831 0
17.020000 -0.088745 0
17.025000 -0.093328 0
17.030000 -0.096787 0
17.035000 -0.099311 0
17.040000 -0.101070 0
17.045000 -0.101922 0
17.050000 -0.101062 0
17.055000 -0.100207 0
17.060000 -0.099356 0
17.065000 -0.098509 0
17.070000 -0.097665 0
17.075000 -0.096826 0
17.080000 -0.095988 0
17.085000 -0.095152 0
17.090000 -0.094313 0
17.095000 -0.093466 0
17.100000 -0.092599 0
17.105000 -0.091694 0
17.110000 -0.090719 0
17.115000 -0.089621 0
17.120000 -0.088320 0
17.125000 -0.086695 0
17.130000 -0.084568 0
17.135000 -0.081696 0
17.140000 -0.077758 0
17.145000 -0.072349 0
17.150000 -0.064990 0
17.155000 -0.055154 0
17.160000 -0.042310 0
17.165000 -0.025990 0
17.170000 -0.005884 0
17.175000 0.018072 0
17.180000 0.045593 0
17.185000 0.075983 0
17.190000 0.108099 0
17.195000 0.140390 0
17.200000 0.170998 0
17.205000 0.197920 0
17.210000 0.219220 0
17.215000 0.233260 0
17.220000 0.238903 1
17.225000 0.235667 0
17.230000 0.223793 0
17.235000 0.204210 0
17.240000 0.178420 0
17.245000 0.148299 0
17.250000 0.115854 0
17.255000 0.082936 0
17.260000 0.050834 0
17.265000 0.019652 0
17.270000 -0.012501 0
17.275000 -0.049849 0
17.280000 -0.097307 0
17.285000 -0.155714 0
17.290000 -0.215627 0
17.295000 -0.254642 2
17.300000 -0.241636 0
17.305000 -0.145471 0
17.310000 0.055305 0
17.315000 0.358335 0
17.320000 0.717220 0
17.325000 1.033687 0
17.330000 1.190406 3
17.335000 1.116137 0
17.340000 0.837510 0
17.345000 0.460558 0
17.350000 0.102113 0
17.355000 -0.162125 0
17.360000 -0.305695 0
17.365000 -0.337297 4
17.370000 -0.288115 0
17.375000 -0.200104 0
17.380000 -0.110465 0
17.385000 -0.039390 0
17.390000 0.010611 0
17.395000 0.046434 0
17.400000 0.075915 0
17.405000 0.104044 0
17.410000 0.132976 0
17.415000 0.163212 0
17.420000 0.194528 0
17.425000 0.226399 0
17.430000 0.258164 0
17.435000 0.289077 0
17.440000 0.318345 0
17.445000 0.345161 0
17.450000 0.368738 0
17.455000 0.388347 0
17.460000 0.403357 0
17.465000 0.413263 0
17.470000 0.417714 5
17.475000 0.416536 0
17.480000 0.409739 0
17.485000 0.397517 0
17.490000 0.380240 0
17.495000 0.358433 0
17.500000 0.332749 0
17.505000 0.303936 0
17.510000 0.272801 0
17.515000 0.240171 0
17.520000 0.206858 0
17.525000 0.173623 0
17.530000 0.141153 0
17.535000 0.110040 0
17.540000 0.080764 0
17.545000 0.053689 0
17.550000 0.029062 0
17.555000 0.007022 0
17.560000 -0.012391 0
17.565000 -0.029223 0
17.570000 -0.043587 0
17.575000 -0.055649 0
17.580000 -0.065611 0
17.585000 -0.073695 0
17.590000 -0.080131 0
17.595000 -0.085148 0
17.600000 -0.088962 0
17.605000 -0.091774 0
17.610000 -0.093764 0
17.615000 -0.094779 0
17.620000 -0.093955 0
17.625000 -0.093135 0
17.630000 -0.092320 0
17.635000 -0.091508 0
17.640000 -0.090699 0
17.645000 -0.089895 0
17.650000 -0.089092 0
17.655000 -0.088291 0
17.660000 -0.087488 0
17.665000 -0.086677 0
17.670000 -0.085847 0
17.675000 -0.084982 0
17.680000 -0.084048 0
17.685000 -0.082996 0
17.690000 -0.081745 0
17.695000 -0.080173 0
17.700000 -0.078102 0
17.705000 -0.075286 0
17.710000 -0.071394 0
17.715000 -0.066014 0
17.720000 -0.058654 0
17.725000 -0.048771 0
17.730000 -0.035822 0
17.735000 -0.019331 0
17.740000 0.001010 0
17.745000 0.025244 0
17.750000 0.053047 0
17.755000 0.083662 0
17.760000 0.115867 0
17.765000 0.148027 0
17.770000 0.178202 0
17.775000 0.204332 0
17.780000 0.224464 0
17.785000 0.236990 0
17.790000 0.240861 1
17.795000 0.235727 0
17.800000 0.221991 0
17.805000 0.200754 0
17.810000 0.173669 0
17.815000 0.142719 0
17.820000 0.109956 0
17.825000 0.077165 0
17.830000 0.045389 0
17.835000 0.014192 0
17.840000 -0.019156 0
17.845000 -0.059557 0
17.850000 -0.111297 0
17.855000 -0.172090 0
17.860000 -0.227240 0
17.865000 -0.249426 2
17.870000 -0.205570 0
17.875000 -0.066523 0
17.880000 0.181536 0
17.885000 0.518791 0
17.890000 0.872529 0
17.895000 1.125755 0
17.900000 1.172947 3
17.905000 0.989924 0
17.910000 0.648728 0
17.915000 0.267767 0
17.920000 -0.053207 0
17.925000 -0.263201 0
17.930000 -0.353843 4
17.935000 -0.344934 0
17.940000 -0.273556 0
17.945000 -0.181001 0
17.950000 -0.097701 0
17.955000 -0.035646 0
17.960000 0.007698 0
17.965000 0.040288 0
17.970000 0.068918 0
17.975000 0.097303 0
17.980000 0.126803 0
17.985000 0.157567 0
17.990000 0.189235 0
17.995000 0.221232 0
18.000000 0.252872 0
18.005000 0.283402 0
18.010000 0.312031 0
18.015000 0.337966 0
18.020000 0.360448 0
18.025000 0.378785 0
18.030000 0.392389 0
18.035000 0.400807 0
18.040000 0.403741 5
18.045000 0.401072 0
18.050000 0.392860 0
18.055000 0.379344 0
18.060000 0.360932 0
18.065000 0.338175 0
18.070000 0.311744 0
18.075000 0.282392 0
18.080000 0.250923 0
18.085000 0.218151 0
18.090000 0.184867 0
18.095000 0.151810 0
18.100000 0.119638 0
18.105000 0.088913 0
18.110000 0.060086 0
18.115000 0.033496 0
18.120000 0.009368 0
18.125000 -0.012179 0
18.130000 -0.031121 0
18.135000 -0.047513 0
18.140000 -0.061475 0
18.145000 -0.073177 0
18.150000 -0.082821 0
18.155000 -0.090627 0
18.160000 -0.096823 0
18.165000 -0.101633 0
18.170000 -0.105268 0
18.175000 -0.107926 0
18.180000 -0.109781 0
18.185000 -0.110683 0
18.190000 -0.109780 0
18.195000 -0.108881 0
18.200000 -0.107986 0
18.205000 -0.107096 0
18.210000 -0.106210 0
18.215000 -0.105328 0
18.220000 -0.104449 0
18.225000 -0.103571 0
18.230000 -0.102691 0
18.235000 -0.101805 0
18.240000 -0.100900 0
18.245000 -0.099961 0
18.250000 -0.098955 0
18.255000 -0.097835 0
18.260000 -0.096521 0
18.265000 -0.094896 0
18.270000 -0.092788 0
18.275000 -0.089958 0
18.280000 -0.086088 0
18.285000 -0.080776 0
18.290000 -0.073543 0
18.295000 -0.063858 0
18.300000 -0.051181 0
18.305000 -0.035036 0
18.310000 -0.015094 0
18.315000 0.008725 0
18.320000 0.036151 0
18.325000 0.066496 0
18.330000 0.098623 0
18.335000 0.130973 0
18.340000 0.161674 0
18.345000 0.188699 0
18.350000 0.210090 0
18.355000 0.224185 0
18.360000 0.229836 1
18.365000 0.226557 0
18.370000 0.214597 0
18.375000 0.194909 0
18.380000 0.169019 0
18.385000 0.138832 0
18.390000 0.106379 0
18.395000 0.073517 0
18.400000 0.041510 0
18.405000 0.010383 0
18.410000 -0.021912 0
18.415000 -0.059764 0
18.420000 -0.108049 0
18.425000 -0.167048 0
18.430000 -0.226191 0
18.435000 -0.261818 2
18.440000 -0.242076 0
18.445000 -0.135973 0
18.450000 0.076512 0
18.455000 0.389194 0
18.460000 0.749051 0
18.465000 1.051756 0
18.470000 1.180854 3
18.475000 1.077240 0
18.480000 0.780387 0
18.485000 0.400160 0
18.490000 0.049168 0
18.495000 -0.203334 0
18.500000 -0.335446 0
18.505000 -0.358331 4
18.510000 -0.304241 0
18.515000 -0.214849 0
18.520000 -0.125950 0
18.525000 -0.056159 0
18.530000 -0.007077 0
18.535000 0.028358 0
18.540000 0.057796 0
18.545000 0.086025 0
18.550000 0.115088 0
18.555000 0.145448 0
18.560000 0.176870 0
18.565000 0.208834 0
18.570000 0.240686 0
18.575000 0.271688 0
18.580000 0.301058 0
18.585000 0.327998 0
18.590000 0.351732 0
18.595000 0.371540 0
18.600000 0.386793 0
18.605000 0.396989 0
18.610000 0.401777 5
18.615000 0.400974 0
18.620000 0.394582 0
18.625000 0.382783 0
18.630000 0.365930 0
18.635000 0.344532 0
18.640000 0.319226 0
18.645000 0.290744 0
18.650000 0.259878 0
18.655000 0.227444 0
18.660000 0.194248 0
18.665000 0.161049 0
18.670000 0.128535 0
18.675000 0.097301 0
18.680000 0.067836 0
18.685000 0.040516 0
18.690000 0.015600 0
18.695000 -0.006758 0
18.700000 -0.026507 0
18.705000 -0.043678 0
18.710000 -0.058374 0
18.715000 -0.070750 0
18.720000 -0.081001 0
18.725000 -0.089343 0
18.730000 -0.096003 0
18.735000 -0.101208 0
18.740000 -0.105174 0
18.745000 -0.108104 0
18.750000 -0.110180 0
18.755000 -0.111563 0
18.760000 -0.110986 0
18.765000 -0.110081 0
18.770000 -0.109181 0
18.775000 -0.108285 0
18.780000 -0.107393 0
18.785000 -0.106505 0
18.790000 -0.105621 0
18.795000 -0.104738 0
18.800000 -0.103855 0
18.805000 -0.102966 0
18.810000 -0.102064 0
18.815000 -0.101133 0
18.820000 -0.100146 0
18.825000 -0.099060 0
18.830000 -0.097807 0
18.835000 -0.096280 0
18.840000 -0.094325 0
18.845000 -0.091722 0
18.850000 -0.088175 0
18.855000 -0.083306 0
18.860000 -0.076653 0
18.865000 -0.067697 0
18.870000 -0.055892 0
18.875000 -0.040735 0
18.880000 -0.021846 0
18.885000 0.000933 0
18.890000 0.027435 0
18.895000 0.057090 0
18.900000 0.088879 0
18.905000 0.121348 0
18.910000 0.152690 0
18.915000 0.180894 0
18.920000 0.203959 0
18.925000 0.220118 0
18.930000 0.228066 1
18.935000 0.227131 0
18.940000 0.217371 0
18.945000 0.199565 0
18.950000 0.175110 0
18.955000 0.145838 0
18.960000 0.113781 0
18.965000 0.080875 0
18.970000 0.048591 0
18.975000 0.017343 0
18.980000 -0.014324 0
18.985000 -0.050281 0
18.990000 -0.095643 0
18.995000 -0.152455 0
19.000000 -0.213282 0
19.005000 -0.257467 2
19.010000 -0.254335 0
19.015000 -0.171736 0
19.020000 0.014169 0
19.025000 0.305415 0
19.030000 0.661789 0
19.035000 0.989406 0
19.040000 1.168499 3
19.045000 1.118891 0
19.050000 0.856971 0
19.055000 0.484207 0
19.060000 0.120038 0
19.065000 -0.154489 0
19.070000 -0.308699 0
19.075000 -0.348808 4
19.080000 -0.304674 0
19.085000 -0.218164 0
19.090000 -0.127645 0
19.095000 -0.054910 0
19.100000 -0.003560 0
19.105000 0.032997 0
19.110000 0.062754 0
19.115000 0.090939 0
19.120000 0.119859 0
19.125000 0.150085 0
19.130000 0.181414 0
19.135000 0.213331 0
19.140000 0.245174 0
19.145000 0.276195 0
19.150000 0.305599 0
19.155000 0.332572 0
19.160000 0.356321 0
19.165000 0.376112 0
19.170000 0.391304 0
19.175000 0.401386 0
19.180000 0.406002 5
19.185000 0.404973 0
19.190000 0.398305 0
19.195000 0.386192 0
19.200000 0.369003 0
19.205000 0.347267 0
19.210000 0.321640 0
19.215000 0.292874 0
19.220000 0.261782 0
19.225000 0.229196 0
19.230000 0.195932 0
19.235000 0.162756 0
19.240000 0.130358 0
19.245000 0.099331 0
19.250000 0.070155 0
19.255000 0.043194 0
19.260000 0.018695 0
19.265000 -0.003208 0
19.270000 -0.022476 0
19.275000 -0.039158 0
19.280000 -0.053372 0
19.285000 -0.065285 0
19.290000 -0.075102 0
19.295000 -0.083048 0
19.300000 -0.089354 0
19.305000 -0.094249 0
19.310000 -0.097951 0
19.315000 -0.100660 0
19.320000 -0.102557 0
19.325000 -0.103492 0
19.330000 -0.102625 0
19.335000 -0.101762 0
19.340000 -0.100903 0
19.345000 -0.100048 0
19.350000 -0.099197 0
19.355000 -0.098350 0
19.360000 -0.097505 0
19.365000 -0.096662 0
19.370000 -0.095816 0
19.375000 -0.094962 0
19.380000 -0.094088 0
19.385000 -0.093175 0
19.390000 -0.092190 0
19.395000 -0.091078 0
19.400000 -0.089755 0
19.405000 -0.088092 0
19.410000 -0.085902 0
19.415000 -0.082927 0
19.420000 -0.078825 0
19.425000 -0.073168 0
19.430000 -0.065453 0
19.435000 -0.055130 0
19.440000 -0.041656 0
19.445000 -0.024573 0
19.450000 -0.003601 0
19.455000 0.021252 0
19.460000 0.049598 0
19.465000 0.080601 0
19.470000 0.112961 0
19.475000 0.144972 0
19.480000 0.174649 0
19.485000 0.199919 0
19.490000 0.218861 0
19.495000 0.229941 0
19.500000 0.232221 1
19.505000 0.225486 0
19.510000 0.210278 0
19.515000 0.187823 0
19.520000 0.159866 0
19.525000 0.128439 0
19.530000 0.095582 0
19.535000 0.062987 0
19.540000 0.031469 0
19.545000 0.000169 0
19.550000 -0.034191 0
19.555000 -0.076766 0
19.560000 -0.131016 0
19.565000 -0.192284 0
19.570000 -0.242693 0
19.575000 -0.252660 2
19.580000 -0.188933 0
19.585000 -0.024583 0
19.590000 0.248300 0
19.595000 0.598381 0
19.600000 0.939176 0
19.605000 1.149104 3
19.610000 1.138451 0
19.615000 0.907822 0
19.620000 0.546087 0
19.625000 0.172120 0
19.630000 -0.125181 0
19.635000 -0.306369 0
19.640000 -0.370908 4
19.645000 -0.343558 0
19.650000 -0.263661 0
19.655000 -0.171126 0
19.660000 -0.092275 0
19.665000 -0.035038 0
19.670000 0.005168 0
19.675000 0.036420 0
19.680000 0.064825 0
19.685000 0.093454 0
19.690000 0.123301 0
19.695000 0.154360 0
19.700000 0.186206 0
19.705000 0.218237 0
19.710000 0.249749 0
19.715000 0.279981 0
19.720000 0.308140 0
19.725000 0.333439 0
19.730000 0.355132 0
19.735000 0.372549 0
19.740000 0.385129 0
19.745000 0.392450 0
19.750000 0.394255 5
19.755000 0.390459 0
19.760000 0.381161 0
19.765000 0.366638 0
19.770000 0.347326 0
19.775000 0.323803 0
19.780000 0.296758 0
19.785000 0.266957 0
19.790000 0.235206 0
19.795000 0.202315 0
19.800000 0.169065 0
19.805000 0.136180 0
19.810000 0.104298 0
19.815000 0.073959 0
19.820000 0.045592 0
19.825000 0.019511 0
19.830000 -0.004080 0
19.835000 -0.025082 0
19.840000 -0.043486 0
19.845000 -0.059361 0
19.850000 -0.072838 0
19.855000 -0.084094 0
19.860000 -0.093334 0
19.865000 -0.100781 0
19.870000 -0.106661 0
19.875000 -0.111196 0
19.880000 -0.114597 0
19.885000 -0.117053 0
19.890000 -0.118738 0
19.895000 -0.119510 0
19.900000 -0.118563 0
19.905000 -0.117620 0
19.910000 -0.116682 0
19.915000 -0.115748 0
19.920000 -0.114819 0
19.925000 -0.113894 0
19.930000 -0.112972 0
19.935000 -0.112050 0
19.940000 -0.111127 0
19.945000 -0.110196 0
19.950000 -0.109244 0
19.955000 -0.108254 0
19.960000 -0.107192 0
19.965000 -0.106004 0
19.970000 -0.104608 0
19.975000 -0.102877 0
19.980000 -0.100631 0
19.985000 -0.097619 0
19.990000 -0.093510 0
19.995000 -0.087891 0
20.000000 -0.080274 0
20.005000 -0.070125 0
20.010000 -0.056908 0
20.015000 -0.040165 0
20.020000 -0.019599 0
20.025000 0.004822 0
20.030000 0.032772 0
20.035000 0.063499 0
20.040000 0.095802 0
20.045000 0.128074 0
20.050000 0.158410 0
20.055000 0.184786 0
20.060000 0.205275 0
20.065000 0.218280 0
20.070000 0.222739 1
20.075000 0.218269 0
20.080000 0.205219 0
20.085000 0.184625 0
20.090000 0.158078 0
20.095000 0.127507 0
20.100000 0.094937 0
20.105000 0.062169 0
20.110000 0.030346 0
20.115000 -0.000729 0
20.120000 -0.033411 0
20.125000 -0.072311 0
20.130000 -0.122056 0
20.135000 -0.181886 0
20.140000 -0.239617 0
20.145000 -0.270236 2
20.150000 -0.241553 0
20.155000 -0.123393 0
20.160000 0.102060 0
20.165000 0.424153 0
20.170000 0.783540 0
20.175000 1.071765 0
20.180000 1.175616 3
20.185000 1.049538 0
20.190000 0.741858 0
20.195000 0.360493 0
20.200000 0.011800 0
20.205000 -0.239574 0
20.210000 -0.373140 0
20.215000 -0.399282 4
20.220000 -0.348324 0
20.225000 -0.260034 0
20.230000 -0.169666 0
20.235000 -0.096908 0
20.240000 -0.044939 0
20.245000 -0.007623 0
20.250000 0.022641 0
20.255000 0.051022 0
20.260000 0.079942 0
20.265000 0.110104 0
20.270000 0.141403 0
20.275000 0.173395 0
20.280000 0.205487 0
20.285000 0.236997 0
20.290000 0.267188 0
20.295000 0.295301 0
20.300000 0.320582 0
20.305000 0.342314 0
20.310000 0.359857 0
20.315000 0.372670 0
20.320000 0.380345 0
20.325000 0.382625 5
20.330000 0.379418 0
20.335000 0.370803 0
20.340000 0.357025 0
20.345000 0.338485 0
20.350000 0.315719 0
20.355000 0.289373 0
20.360000 0.260168 0
20.365000 0.228875 0
20.370000 0.196273 0
20.375000 0.163122 0
20.380000 0.130135 0
20.385000 0.097951 0
20.390000 0.067119 0
20.395000 0.038088 0
20.400000 0.011198 0
20.405000 -0.013315 0
20.410000 -0.035318 0
20.415000 -0.054767 0
20.420000 -0.071699 0
20.425000 -0.086213 0
20.430000 -0.098460 0
20.435000 -0.108626 0
20.440000 -0.116917 0
20.445000 -0.123550 0
20.450000 -0.128743 0
20.455000 -0.132704 0
20.460000 -0.135627 0
20.465000 -0.137690 0
20.470000 -0.139051 0
20.475000 -0.138355 0
20.480000 -0.137314 0
20.485000 -0.136278 0
20.490000 -0.135247 0
20.495000 -0.134221 0
20.500000 -0.133199 0
20.505000 -0.132182 0
20.510000 -0.131168 0
20.515000 -0.130155 0
20.520000 -0.129140 0
20.525000 -0.128117 0
20.530000 -0.127073 0
20.535000 -0.125990 0
20.540000 -0.124834 0
20.545000 -0.123554 0
20.550000 -0.122067 0
20.555000 -0.120254 0
20.560000 -0.117942 0
20.565000 -0.114891 0
20.570000 -0.110789 0
20.575000 -0.105246 0
20.580000 -0.097797 0
20.585000 -0.087934 0
20.590000 -0.075140 0
20.595000 -0.058958 0
20.600000 -0.039069 0
20.605000 -0.015385 0
20.610000 0.011861 0
20.615000 0.042046 0
20.620000 0.074127 0
20.625000 0.106659 0
20.630000 0.137883 0
20.635000 0.165871 0
20.640000 0.188717 0
20.645000 0.204750 0
20.650000 0.212737 1
20.655000 0.212040 0
20.660000 0.202702 0
20.665000 0.185442 0
20.670000 0.161565 0
20.675000 0.132796 0
20.680000 0.101068 0
20.685000 0.068265 0
20.690000 0.035892 0
20.695000 0.004580 0
20.700000 -0.026642 0
20.705000 -0.060975 0
20.710000 -0.103292 0
20.715000 -0.156929 0
20.720000 -0.218009 0
20.725000 -0.270731 0
20.730000 -0.288181 2
20.735000 -0.239050 0
20.740000 -0.096324 0
20.745000 0.152414 0
20.750000 0.488413 0
20.755000 0.844323 0
20.760000 1.110654 0
20.765000 1.183802 3
20.770000 1.029046 0
20.775000 0.704498 0
20.780000 0.321980 0
20.785000 -0.015955 0
20.790000 -0.251058 0
20.795000 -0.367983 0
20.800000 -0.380633 4
20.805000 -0.321610 0
20.810000 -0.231117 0
20.815000 -0.142712 0
20.820000 -0.073408 0
20.825000 -0.024359 0
20.830000 0.011280 0
20.835000 0.040897 0
20.840000 0.069193 0
20.845000 0.098238 0
20.850000 0.128549 0
20.855000 0.159939 0
20.860000 0.191930 0
20.865000 0.223906 0
20.870000 0.255171 0
20.875000 0.284977 0
20.880000 0.312560 0
20.885000 0.337166 0
20.890000 0.358089 0
20.895000 0.374700 0
20.900000 0.386480 0
20.905000 0.393048 0
20.910000 0.394177 5
20.915000 0.389807 0
20.920000 0.380054 0
20.925000 0.365196 0
20.930000 0.345666 0
20.935000 0.322028 0
20.940000 0.294950 0
20.945000 0.265169 0
20.950000 0.233465 0
20.955000 0.200620 0
20.960000 0.167388 0
20.965000 0.134471 0
20.970000 0.102492 0
20.975000 0.071980 0
20.980000 0.043363 0
20.985000 0.016956 0
20.990000 -0.007028 0
20.995000 -0.028476 0
21.000000 -0.047368 0
21.005000 -0.063754 0
21.010000 -0.077751 0
21.015000 -0.089518 0
21.020000 -0.099249 0
21.025000 -0.107156 0
21.030000 -0.113456 0
21.035000 -0.118368 0
21.040000 -0.122096 0
21.045000 -0.124833 0
21.050000 -0.126751 0
21.055000 -0.128004 0
21.060000 -0.127339 0
21.065000 -0.126353 0
21.070000 -0.125371 0
21.075000 -0.124395 0
21.080000 -0.123423 0
21.085000 -0.122455 0
21.090000 -0.121491 0
21.095000 -0.120529 0
21.100000 -0.119568 0
21.105000 -0.118603 0
21.110000 -0.117626 0
21.115000 -0.116624 0
21.120000 -0.115573 0
21.125000 -0.114437 0
21.130000 -0.113154 0
21.135000 -0.111632 0
21.140000 -0.109735 0
21.145000 -0.107270 0
21.150000 -0.103975 0
21.155000 -0.099511 0
21.160000 -0.093460 0
21.165000 -0.085340 0
21.170000 -0.074630 0
21.175000 -0.060822 0
21.180000 -0.043493 0
21.185000 -0.022389 0
21.190000 0.002482 0
21.195000 0.030760 0
21.200000 0.061680 0
21.205000 0.094050 0
21.210000 0.126300 0
21.215000 0.156583 0
21.220000 0.182948 0
21.225000 0.203536 0
21.230000 0.216801 0
21.235000 0.221700 1
21.240000 0.217831 0
21.245000 0.205484 0
21.250000 0.185609 0
21.255000 0.159690 0
21.260000 0.129566 0
21.265000 0.097193 0
21.270000 0.064366 0
21.275000 0.032344 0
21.280000 0.001249 0
21.285000 -0.030694 0
21.290000 -0.067522 0
21.295000 -0.114088 0
21.300000 -0.171693 0
21.305000 -0.232145 0
21.310000 -0.274744 2
21.315000 -0.269719 0
21.320000 -0.186260 0
21.325000 -0.001544 0
21.330000 0.286816 0
21.335000 0.641851 0
21.340000 0.975734 0
21.345000 1.173045 3
21.350000 1.150421 0
21.355000 0.912445 0
21.360000 0.548628 0
21.365000 0.175206 0
21.370000 -0.121619 0
21.375000 -0.303556 0
21.380000 -0.369942 4
21.385000 -0.344676 0
21.390000 -0.266025 0
21.395000 -0.173326 0
21.400000 -0.093225 0
21.405000 -0.034486 0
21.410000 0.006816 0
21.415000 0.038581 0
21.420000 0.067066 0
21.425000 0.095558 0
21.430000 0.125206 0
21.435000 0.156083 0
21.440000 0.187814 0
21.445000 0.219827 0
21.450000 0.251448 0
21.455000 0.281940 0
21.460000 0.310532 0
21.465000 0.336451 0
21.470000 0.358955 0
21.475000 0.377370 0
21.480000 0.391121 0
21.485000 0.399761 0
21.490000 0.402995 5
21.495000 0.400696 0
21.500000 0.392912 0
21.505000 0.379864 0
21.510000 0.361935 0
21.515000 0.339651 0
21.520000 0.313653 0
21.525000 0.284670 0
21.530000 0.253481 0
21.535000 0.220880 0
21.540000 0.187646 0
21.545000 0.154510 0
21.550000 0.122130 0
21.555000 0.091075 0
21.560000 0.061809 0
21.565000 0.034687 0
21.570000 0.009953 0
21.575000 -0.012252 0
21.580000 -0.031879 0
21.585000 -0.048964 0
21.590000 -0.063608 0
21.595000 -0.075964 0
21.600000 -0.086220 0
21.605000 -0.094588 0
21.610000 -0.101288 0
21.615000 -0.106540 0
21.620000 -0.110558 0
21.625000 -0.113538 0
21.630000 -0.115661 0
21.635000 -0.117085 0
21.640000 -0.116491 0
21.645000 -0.115559 0
21.650000 -0.114631 0
21.655000 -0.113708 0
21.660000 -0.112789 0
21.665000 -0.111874 0
21.670000 -0.110963 0
21.675000 -0.110055 0
21.680000 -0.109147 0
21.685000 -0.108235 0
21.690000 -0.107312 0
21.695000 -0.106366 0
21.700000 -0.105373 0
21.705000 -0.104298 0
21.710000 -0.103082 0
21.715000 -0.101635 0
21.720000 -0.099822 0
21.725000 -0.097453 0
21.730000 -0.094267 0
21.735000 -0.089925 0
21.740000 -0.084009 0
21.745000 -0.076029 0
21.750000 -0.065461 0
21.755000 -0.051788 0
21.760000 -0.034578 0
21.765000 -0.013567 0
21.770000 0.011238 0
21.775000 0.039476 0
21.780000 0.070370 0
21.785000 0.102709 0
21.790000 0.134896 0
21.795000 0.165054 0
21.800000 0.191205 0
21.805000 0.211472 0
21.810000 0.224306 0
21.815000 0.228680 1
21.820000 0.224223 0
21.825000 0.211275 0
21.830000 0.190840 0
21.835000 0.164460 0
21.840000 0.134015 0
21.845000 0.101486 0
21.850000 0.068661 0
21.855000 0.036724 0
21.860000 0.005625 0
21.865000 -0.026711 0
21.870000 -0.064614 0
21.875000 -0.112839 0
21.880000 -0.171702 0
21.885000 -0.231096 0
21.890000 -0.268242 2
21.895000 -0.252203 0
21.900000 -0.152447 0
21.905000 0.051643 0
21.910000 0.356775 0
21.915000 0.715974 0
21.920000 1.031516 0
21.925000 1.187641 3
21.930000 1.116994 0
21.935000 0.845496 0
21.940000 0.471384 0
21.945000 0.106464 0
21.950000 -0.172879 0
21.955000 -0.336245 0
21.960000 -0.387437 4
21.965000 -0.352547 0
21.970000 -0.270080 0
21.975000 -0.177706 0
21.980000 -0.099598 0
21.985000 -0.042689 0
21.990000 -0.002410 0
21.995000 0.029002 0
22.000000 0.057476 0
22.005000 0.086066 0
22.010000 0.115819 0
22.015000 0.146781 0
22.020000 0.178573 0
22.025000 0.210633 0
22.030000 0.242302 0
22.035000 0.272855 0
22.040000 0.301539 0
22.045000 0.327596 0
22.050000 0.350298 0
22.055000 0.368982 0
22.060000 0.383078 0
22.065000 0.392141 0
22.070000 0.395870 5
22.075000 0.394127 0
22.080000 0.386942 0
22.085000 0.374516 0
22.090000 0.357207 0
22.095000 0.335512 0
22.100000 0.310049 0
22.105000 0.281520 0
22.110000 0.250682 0
22.115000 0.218315 0
22.120000 0.185184 0
22.125000 0.152019 0
22.130000 0.119478 0
22.135000 0.088139 0
22.140000 0.058478 0
22.145000 0.030868 0
22.150000 0.005574 0
22.155000 -0.017241 0
22.160000 -0.037510 0
22.165000 -0.055244 0
22.170000 -0.070528 0
22.175000 -0.083498 0
22.180000 -0.094329 0
22.185000 -0.103224 0
22.190000 -0.110396 0
22.195000 -0.116062 0
22.200000 -0.120436 0
22.205000 -0.123714 0
22.210000 -0.126081 0
22.215000 -0.127699 0
22.220000 -0.128420 0
22.225000 -0.127429 0
22.230000 -0.126442 0
22.235000 -0.125460 0
22.240000 -0.124483 0
22.245000 -0.123510 0
22.250000 -0.122541 0
22.255000 -0.121576 0
22.260000 -0.120613 0
22.265000 -0.119648 0
22.270000 -0.118678 0
22.275000 -0.117691 0
22.280000 -0.116672 0
22.285000 -0.115593 0
22.290000 -0.114408 0
22.295000 -0.113048 0
22.300000 -0.111407 0
22.305000 -0.109329 0
22.310000 -0.106601 0
22.315000 -0.102935 0
22.320000 -0.097967 0
22.325000 -0.091258 0
22.330000 -0.082311 0
22.335000 -0.070606 0
22.340000 -0.055659 0
22.345000 -0.037096 0
22.350000 -0.014741 0
22.355000 0.011293 0
22.360000 0.040522 0
22.365000 0.072050 0
22.370000 0.104566 0
22.375000 0.136410 0
22.380000 0.165698 0
22.385000 0.190494 0
22.390000 0.209027 0
22.395000 0.219893 0
22.400000 0.222233 1
22.405000 0.215848 0
22.410000 0.201223 0
22.415000 0.179469 0
22.420000 0.152181 0
22.425000 0.121242 0
22.430000 0.088580 0
22.435000 0.055878 0
22.440000 0.024153 0
22.445000 -0.006898 0
22.450000 -0.039632 0
22.455000 -0.078514 0
22.460000 -0.127998 0
22.465000 -0.187545 0
22.470000 -0.246012 0
22.475000 -0.280081 2
22.480000 -0.259136 0
22.485000 -0.153611 0
22.490000 0.055792 0
22.495000 0.364272 0
22.500000 0.723881 0
22.505000 1.037668 0
22.510000 1.192309 3
22.515000 1.121483 0
22.520000 0.849742 0
22.525000 0.475520 0
22.530000 0.110734 0
22.535000 -0.168256 0
22.540000 -0.331152 0
22.545000 -0.381874 4
22.550000 -0.346635 0
22.555000 -0.264026 0
22.560000 -0.171717 0
22.565000 -0.093792 0
22.570000 -0.037078 0
22.575000 0.003061 0
22.580000 0.034395 0
22.585000 0.062833 0
22.590000 0.091408 0
22.595000 0.121152 0
22.600000 0.152102 0
22.605000 0.183877 0
22.610000 0.215913 0
22.615000 0.247546 0
22.620000 0.278053 0
22.625000 0.306677 0
22.630000 0.332660 0
22.635000 0.355275 0
22.640000 0.373857 0
22.645000 0.387839 0
22.650000 0.396778 0
22.655000 0.400374 5
22.660000 0.398494 0
22.665000 0.391171 0
22.670000 0.378610 0
22.675000 0.361171 0
22.680000 0.339358 0
22.685000 0.313789 0
22.690000 0.285170 0
22.695000 0.254261 0
22.700000 0.221842 0
22.705000 0.188679 0
22.710000 0.155500 0
22.715000 0.122964 0
22.720000 0.091646 0
22.725000 0.062020 0
22.730000 0.034455 0
22.735000 0.009215 0
22.740000 -0.013541 0
22.745000 -0.033748 0
22.750000 -0.051421 0
22.755000 -0.066645 0
22.760000 -0.079559 0
22.765000 -0.090339 0
22.770000 -0.099189 0
22.775000 -0.106323 0
22.780000 -0.111959 0
22.785000 -0.116308 0
22.790000 -0.119569 0
22.795000 -0.121924 0
22.800000 -0.123537 0
22.805000 -0.124260 0
22.810000 -0.123289 0
22.815000 -0.122323 0
22.820000 -0.121362 0
22.825000 -0.120405 0
22.830000 -0.119452 0
22.835000 -0.118504 0
22.840000 -0.117559 0
22.845000 -0.116615 0
22.850000 -0.115670 0
22.855000 -0.114719 0
22.860000 -0.113751 0
22.865000 -0.112749 0
22.870000 -0.111685 0
22.875000 -0.110512 0
22.880000 -0.109160 0
22.885000 -0.107519 0
22.890000 -0.105432 0
22.895000 -0.102680 0
22.900000 -0.098972 0
22.905000 -0.093939 0
22.910000 -0.087137 0
22.915000 -0.078066 0
22.920000 -0.066206 0
22.925000 -0.051078 0
22.930000 -0.032313 0
22.935000 -0.009751 0
22.940000 0.016474 0
22.945000 0.045855 0
22.950000 0.077468 0
22.955000 0.109977 0
22.960000 0.141701 0
22.965000 0.170743 0
22.970000 0.195172 0
22.975000 0.213229 0
22.980000 0.223539 0
22.985000 0.225285 1
22.990000 0.218310 0
22.995000 0.203146 0
23.000000 0.180943 0
23.005000 0.153324 0
23.010000 0.122187 0
23.015000 0.089457 0
23.020000 0.056786 0
23.025000 0.025124 0
23.030000 -0.005957 0
23.035000 -0.038988 0
23.040000 -0.078542 0
23.045000 -0.128912 0
23.050000 -0.188940 0
23.055000 -0.246523 0
23.060000 -0.277514 2
23.065000 -0.251025 0
23.070000 -0.137896 0
23.075000 0.079909 0
23.080000 0.394871 0
23.085000 0.754908 0
23.090000 1.059828 0
23.095000 1.197475 3
23.100000 1.106418 0
23.105000 0.817871 0
23.110000 0.439054 0
23.115000 0.083673 0
23.120000 -0.176197 0
23.125000 -0.316169 0
23.130000 -0.345632 4
23.135000 -0.295624 0
23.140000 -0.207473 0
23.145000 -0.117734 0
23.150000 -0.046343 0
23.155000 0.004071 0
23.160000 0.040213 0
23.165000 0.069844 0
23.170000 0.097993 0
23.175000 0.126879 0
23.180000 0.157057 0
23.185000 0.188330 0
23.190000 0.220199 0
23.195000 0.252020 0
23.200000 0.283065 0
23.205000 0.312560 0
23.210000 0.339708 0
23.215000 0.363734 0
23.220000 0.383912 0
23.225000 0.399606 0
23.230000 0.410300 0
23.235000 0.415627 5
23.240000 0.415388 0
23.245000 0.409562 0
23.250000 0.398310 0
23.255000 0.381966 0
23.260000 0.361018 0
23.265000 0.336087 0
23.270000 0.307892 0
23.275000 0.277217 0
23.280000 0.244875 0
23.285000 0.211669 0
23.290000 0.178364 0
23.295000 0.145655 0
23.300000 0.114150 0
23.305000 0.084351 0
23.310000 0.056646 0
23.315000 0.031311 0
23.320000 0.008512 0
23.325000 -0.011683 0
23.330000 -0.029296 0
23.335000 -0.044418 0
23.340000 -0.057199 0
23.345000 -0.067827 0
23.350000 -0.076514 0
23.355000 -0.083487 0
23.360000 -0.088970 0
23.365000 -0.093183 0
23.370000 -0.096329 0
23.375000 -0.098594 0
23.380000 -0.100141 0
23.385000 -0.099637 0
23.390000 -0.098789 0
23.395000 -0.097945 0
23.400000 -0.097105 0
23.405000 -0.096269 0
23.410000 -0.095437 0
23.415000 -0.094608 0
23.420000 -0.093780 0
23.425000 -0.092953 0
23.430000 -0.092121 0
23.435000 -0.091278 0
23.440000 -0.090408 0
23.445000 -0.089490 0
23.450000 -0.088482 0
23.455000 -0.087324 0
23.460000 -0.085918 0
23.465000 -0.084120 0
23.470000 -0.081727 0
23.475000 -0.078460 0
23.480000 -0.073959 0
23.485000 -0.067783 0
23.490000 -0.059424 0
23.495000 -0.048338 0
23.500000 -0.034011 0
23.505000 -0.016027 0
23.510000 0.005828 0
23.515000 0.031469 0
23.520000 0.060425 0
23.525000 0.091784 0
23.530000 0.124194 0
23.535000 0.155924 0
23.540000 0.185005 0
23.545000 0.209420 0
23.550000 0.227333 0
23.555000 0.237313 0
23.560000 0.238529 1
23.565000 0.230854 0
23.570000 0.214894 0
23.575000 0.191900 0
23.580000 0.163610 0
23.585000 0.132021 0
23.590000 0.099117 0
23.595000 0.066527 0
23.600000 0.035010 0
23.605000 0.003684 0
23.610000 -0.030681 0
23.615000 -0.073130 0
23.620000 -0.127121 0
23.625000 -0.188388 0
23.630000 -0.239944 0
23.635000 -0.253262 2
23.640000 -0.195772 0
23.645000 -0.040357 0
23.650000 0.222929 0
23.655000 0.568036 0
23.660000 0.916018 0
23.665000 1.149250 0
23.670000 1.170136 3
23.675000 0.964840 0
23.680000 0.613052 0
23.685000 0.234775 0
23.690000 -0.074628 0
23.695000 -0.269697 0
23.700000 -0.346205 4
23.705000 -0.326869 0
23.710000 -0.250423 0
23.715000 -0.157788 0
23.720000 -0.077230 0
23.725000 -0.018311 0
23.730000 0.022873 0
23.735000 0.054455 0
23.740000 0.082831 0
23.745000 0.111297 0
23.750000 0.140964 0
23.755000 0.171865 0
23.760000 0.203587 0
23.765000 0.235530 0
23.770000 0.266987 0
23.775000 0.297192 0
23.780000 0.325346 0
23.785000 0.350653 0
23.790000 0.372359 0
23.795000 0.389784 0
23.800000 0.402360 0
23.805000 0.409660 0
23.810000 0.411419 5
23.815000 0.407553 0
23.820000 0.398161 0
23.825000 0.383519 0
23.830000 0.364072 0
23.835000 0.340404 0
23.840000 0.313210 0
23.845000 0.283265 0
23.850000 0.251383 0
23.855000 0.218381 0
23.860000 0.185047 0
23.865000 0.152106 0
23.870000 0.120200 0
23.875000 0.089867 0
23.880000 0.061536 0
23.885000 0.035516 0
23.890000 0.012006 0
23.895000 -0.008898 0
23.900000 -0.027196 0
23.905000 -0.042961 0
23.910000 -0.056331 0
23.915000 -0.067485 0
23.920000 -0.076635 0
23.925000 -0.084004 0
23.930000 -0.089823 0
23.935000 -0.094313 0
23.940000 -0.097684 0
23.945000 -0.100128 0
23.950000 -0.101815 0
23.955000 -0.102614 0
23.960000 -0.101751 0
23.965000 -0.100892 0
23.970000 -0.100037 0
23.975000 -0.099187 0
23.980000 -0.098340 0
23.985000 -0.097497 0
23.990000 -0.096656 0
23.995000 -0.095815 0
24.000000 -0.094971 0
24.005000 -0.094117 0
24.010000 -0.093240 0
24.015000 -0.092319 0
24.020000 -0.091316 0
24.025000 -0.090174 0
24.030000 -0.088802 0
24.035000 -0.087062 0
24.040000 -0.084758 0
24.045000 -0.081623 0
24.050000 -0.077305 0
24.055000 -0.071369 0
24.060000 -0.063309 0
24.065000 -0.052581 0
24.070000 -0.038655 0
24.075000 -0.021098 0
24.080000 0.000336 0
24.085000 0.025600 0
24.090000 0.054264 0
24.095000 0.085455 0
24.100000 0.117850 0
24.105000 0.149736 0
24.110000 0.179139 0
24.115000 0.204020 0
24.120000 0.222502 0
24.125000 0.233105 0
24.130000 0.234941 1
24.135000 0.227833 0
24.140000 0.212345 0
24.145000 0.189708 0
24.150000 0.161652 0
24.155000 0.130185 0
24.160000 0.097315 0
24.165000 0.064709 0
24.170000 0.033174 0
24.175000 0.001887 0
24.180000 -0.032347 0
24.185000 -0.074595 0
24.190000 -0.128420 0
24.195000 -0.189660 0
24.200000 -0.241306 0
24.205000 -0.254621 2
24.210000 -0.196755 0
24.215000 -0.040403 0
24.220000 0.224228 0
24.225000 0.570219 0
24.230000 0.916985 0
24.235000 1.145596 0
24.240000 1.159199 3
24.245000 0.947944 0
24.250000 0.594541 0
24.255000 0.216436 0
24.260000 -0.093448 0
24.265000 -0.290494 0
24.270000 -0.370066 4
24.275000 -0.353776 0
24.280000 -0.279093 0
24.285000 -0.186312 0
24.290000 -0.104159 0
24.295000 -0.043272 0
24.300000 -0.000592 0
24.305000 0.031773 0
24.310000 0.060399 0
24.315000 0.088846 0
24.320000 0.118410 0
24.325000 0.149225 0
24.330000 0.180933 0
24.335000 0.212971 0
24.340000 0.244663 0
24.345000 0.275269 0
24.350000 0.304014 0
24.355000 0.330116 0
24.360000 0.352827 0
24.365000 0.371462 0
24.370000 0.385435 0
24.375000 0.394292 0
24.380000 0.397728 5
24.385000 0.395610 0
24.390000 0.387981 0
24.395000 0.375059 0
24.400000 0.357228 0
24.405000 0.335015 0
24.410000 0.309067 0
24.415000 0.280117 0
24.420000 0.248949 0
24.425000 0.216365 0
24.430000 0.183150 0
24.435000 0.150040 0
24.440000 0.117698 0
24.445000 0.086696 0
24.450000 0.057498 0
24.455000 0.030460 0
24.460000 0.005825 0
24.465000 -0.016267 0
24.470000 -0.035772 0
24.475000 -0.052728 0
24.480000 -0.067239 0
24.485000 -0.079463 0
24.490000 -0.089590 0
24.495000 -0.097833 0
24.500000 -0.104417 0
24.505000 -0.109563 0
24.510000 -0.113484 0
24.515000 -0.116378 0
24.520000 -0.118424 0
24.525000 -0.119781 0
24.530000 -0.119166 0
24.535000 -0.118220 0
24.540000 -0.117279 0
24.545000 -0.116343 0
24.550000 -0.115411 0
24.555000 -0.114483 0
24.560000 -0.113559 0
24.565000 -0.112637 0
24.570000 -0.111715 0
24.575000 -0.110789 0
24.580000 -0.109851 0
24.585000 -0.108886 0
24.590000 -0.107872 0
24.595000 -0.106768 0
24.600000 -0.105511 0
24.605000 -0.104005 0
24.610000 -0.102106 0
24.615000 -0.099613 0
24.620000 -0.096250 0
24.625000 -0.091661 0
24.630000 -0.085413 0
24.635000 -0.077002 0
24.640000 -0.065898 0
24.645000 -0.051587 0
24.650000 -0.033660 0
24.655000 -0.011894 0
24.660000 0.013642 0
24.665000 0.042504 0
24.670000 0.073821 0
24.675000 0.106287 0
24.680000 0.138222 0
24.685000 0.167695 0
24.690000 0.192715 0
24.695000 0.211445 0
24.700000 0.222425 0
24.705000 0.224764 1
24.710000 0.218252 0
24.715000 0.203398 0
24.720000 0.181361 0
24.725000 0.153799 0
24.730000 0.122656 0
24.735000 0.089912 0
24.740000 0.057257 0
24.745000 0.025631 0
24.750000 -0.005485 0
24.755000 -0.038830 0
24.760000 -0.079195 0
24.765000 -0.130731 0
24.770000 -0.191335 0
24.775000 -0.247097 0
24.780000 -0.271925 2
24.785000 -0.233805 0
24.790000 -0.103867 0
24.795000 0.133220 0
24.800000 0.462708 0
24.805000 0.820631 0
24.810000 1.097000 0
24.815000 1.182951 3
24.820000 1.037618 0
24.825000 0.716526 0
24.830000 0.334126 0
24.835000 -0.003500 0
24.840000 -0.236415 0
24.845000 -0.349432 0
24.850000 -0.357685 4
24.855000 -0.295472 0
24.860000 -0.204210 0
24.865000 -0.117330 0
24.870000 -0.050584 0
24.875000 -0.003794 0
24.880000 0.030497 0
24.885000 0.059598 0
24.890000 0.087869 0
24.895000 0.117082 0
24.900000 0.147583 0
24.905000 0.179095 0
24.910000 0.211084 0
24.915000 0.242891 0
24.920000 0.273782 0
24.925000 0.302979 0
24.930000 0.329691 0
24.935000 0.353153 0
24.940000 0.372657 0
24.945000 0.387589 0
24.950000 0.397461 0
24.955000 0.401933 5
24.960000 0.400838 0
24.965000 0.394184 0
24.970000 0.382161 0
24.975000 0.365126 0
24.980000 0.343589 0
24.985000 0.318184 0
24.990000 0.289638 0
24.995000 0.258737 0
25.000000 0.226291 0
25.005000 0.193095 0
25.010000 0.159903 0
25.015000 0.127394 0
25.020000 0.096158 0
25.025000 0.066681 0
25.030000 0.039335 0
25.035000 0.014380 0
25.040000 -0.008032 0
25.045000 -0.027847 0
25.050000 -0.045093 0
25.055000 -0.059871 0
25.060000 -0.072333 0
25.065000 -0.082670 0
25.070000 -0.091096 0
25.075000 -0.097835 0
25.080000 -0.103113 0
25.085000 -0.107145 0
25.090000 -0.110131 0
25.095000 -0.112255 0
25.100000 -0.113678 0
25.105000 -0.113098 0
25.110000 -0.112183 0
25.115000 -0.111272 0
25.120000 -0.110366 0
25.125000 -0.109464 0
25.130000 -0.108565 0
25.135000 -0.107671 0
25.140000 -0.106778 0
25.145000 -0.105886 0
25.150000 -0.104989 0
25.155000 -0.104080 0
25.160000 -0.103144 0
25.165000 -0.102158 0
25.170000 -0.101081 0
25.175000 -0.099850 0
25.180000 -0.098366 0
25.185000 -0.096485 0
25.190000 -0.093999 0
25.195000 -0.090630 0
25.200000 -0.086017 0
25.205000 -0.079716 0
25.210000 -0.071221 0
25.215000 -0.059992 0
25.220000 -0.045517 0
25.225000 -0.027389 0
25.230000 -0.005399 0
25.235000 0.020361 0
25.240000 0.049417 0
25.245000 0.080854 0
25.250000 0.113322 0
25.255000 0.145098 0
25.260000 0.174221 0
25.265000 0.198686 0
25.270000 0.216665 0
25.275000 0.226737 0
25.280000 0.228070 1
25.285000 0.220534 0
25.290000 0.204723 0
25.295000 0.181877 0
25.300000 0.153718 0
25.305000 0.122228 0
25.310000 0.089386 0
25.315000 0.056826 0
25.320000 0.025334 0
25.325000 -0.005908 0
25.330000 -0.040037 0
25.335000 -0.082046 0
25.340000 -0.135536 0
25.345000 -0.196691 0
25.350000 -0.249183 0
25.355000 -0.265019 2
25.360000 -0.211778 0
25.365000 -0.061974 0
25.370000 0.195605 0
25.375000 0.537630 0
25.380000 0.888699 0
25.385000 1.132828 0
25.390000 1.169441 3
25.395000 0.977823 0
25.400000 0.632060 0
25.405000 0.252174 0
25.410000 -0.063309 0
25.415000 -0.265707 0
25.420000 -0.348724 4
25.425000 -0.333877 0
25.430000 -0.259443 0
25.435000 -0.166780 0
25.440000 -0.085193 0
25.445000 -0.025195 0
25.450000 0.016680 0
25.455000 0.048564 0
25.460000 0.077015 0
25.465000 0.105467 0
25.470000 0.135103 0
25.475000 0.165984 0
25.480000 0.197710 0
25.485000 0.229679 0
25.490000 0.261189 0
25.495000 0.291470 0
25.500000 0.319722 0
25.505000 0.345145 0
25.510000 0.366980 0
25.515000 0.384544 0
25.520000 0.397262 0
25.525000 0.404702 0
25.530000 0.406596 5
25.535000 0.402854 0
25.540000 0.393573 0
25.545000 0.379028 0
25.550000 0.359661 0
25.555000 0.336058 0
25.560000 0.308915 0
25.565000 0.279010 0
25.570000 0.247158 0
25.575000 0.214181 0
25.580000 0.180868 0
25.585000 0.147948 0
25.590000 0.116064 0
25.595000 0.085758 0
25.600000 0.057458 0
25.605000 0.031474 0
25.610000 0.008006 0
25.615000 -0.012852 0
25.620000 -0.031100 0
25.625000 -0.046812 0
25.630000 -0.060127 0
25.635000 -0.071227 0
25.640000 -0.080322 0
25.645000 -0.087639 0
25.650000 -0.093407 0
25.655000 -0.097850 0
25.660000 -0.101177 0
25.665000 -0.103581 0
25.670000 -0.105231 0
25.675000 -0.105998 0
25.680000 -0.105118 0
25.685000 -0.104243 0
25.690000 -0.103371 0
25.695000 -0.102504 0
25.700000 -0.101641 0
25.705000 -0.100781 0
25.710000 -0.099924 0
25.715000 -0.099067 0
25.720000 -0.098206 0
25.725000 -0.097334 0
25.730000 -0.096440 0
25.735000 -0.095499 0
25.740000 -0.094474 0
25.745000 -0.093306 0
25.750000 -0.091900 0
25.755000 -0.090117 0
25.760000 -0.087755 0
25.765000 -0.084540 0
25.770000 -0.080114 0
25.775000 -0.074036 0
25.780000 -0.065794 0
25.785000 -0.054841 0
25.790000 -0.040650 0
25.795000 -0.022795 0
25.800000 -0.001048 0
25.805000 0.024517 0
25.810000 0.053436 0
25.815000 0.084797 0
25.820000 0.117236 0
25.825000 0.149007 0
25.830000 0.178115 0
25.835000 0.202518 0
25.840000 0.220360 0
25.845000 0.230202 0
25.850000 0.231213 1
25.855000 0.223287 0
25.860000 0.207058 0
25.865000 0.183817 0
25.870000 0.155341 0
25.875000 0.123657 0
25.880000 0.090762 0
25.885000 0.058268 0
25.890000 0.026852 0
25.895000 -0.004543 0
25.900000 -0.039390 0
25.905000 -0.082839 0
25.910000 -0.137927 0
25.915000 -0.199175 0
25.920000 -0.247930 0
25.925000 -0.254389 2
25.930000 -0.185738 0
25.935000 -0.015972 0
25.940000 0.261366 0
25.945000 0.613089 0
25.950000 0.951573 0
25.955000 1.156221 3
25.960000 1.139358 0
25.965000 0.905262 0
25.970000 0.542711 0
25.975000 0.168806 0
25.980000 -0.129024 0
25.985000 -0.311741 0
25.990000 -0.378452 4
25.995000 -0.353147 0
26.000000 -0.274347 0
26.005000 -0.181628 0
26.010000 -0.101693 0
26.015000 -0.043196 0
26.020000 -0.002080 0
26.025000 0.029612 0
26.030000 0.058119 0
26.035000 0.086684 0
26.040000 0.116421 0
26.045000 0.147385 0
26.050000 0.179187 0
26.055000 0.211247 0
26.060000 0.242884 0
26.065000 0.273351 0
26.070000 0.301872 0
26.075000 0.327670 0
26.080000 0.350000 0
26.085000 0.368189 0
26.090000 0.381664 0
26.095000 0.389985 0
26.100000 0.392867 5
26.105000 0.390194 0
26.110000 0.382028 0
26.115000 0.368604 0
26.120000 0.350322 0
26.125000 0.327722 0
26.130000 0.301459 0
26.135000 0.272273 0
26.140000 0.240952 0
26.145000 0.208295 0
26.150000 0.175082 0
26.155000 0.142044 0
26.160000 0.109833 0
26.165000 0.079011 0
26.170000 0.050031 0
26.175000 0.023239 0
26.180000 -0.001134 0
26.185000 -0.022958 0
26.190000 -0.042197 0
26.195000 -0.058895 0
26.200000 -0.073164 0
26.205000 -0.085162 0
26.210000 -0.095083 0
26.215000 -0.103143 0
26.220000 -0.109565 0
26.225000 -0.114569 0
26.230000 -0.118367 0
26.235000 -0.121156 0
26.240000 -0.123113 0
26.245000 -0.124394 0
26.250000 -0.123748 0
26.255000 -0.122779 0
26.260000 -0.121815 0
26.265000 -0.120856 0
26.270000 -0.119902 0
26.275000 -0.118952 0
26.280000 -0.118005 0
26.285000 -0.117061 0
26.290000 -0.116116 0
26.295000 -0.115167 0
26.300000 -0.114205 0
26.305000 -0.113216 0
26.310000 -0.112174 0
26.315000 -0.111038 0
26.320000 -0.109744 0
26.325000 -0.108192 0
26.330000 -0.106234 0
26.335000 -0.103663 0
26.340000 -0.100199 0
26.345000 -0.095480 0
26.350000 -0.089066 0
26.355000 -0.080453 0
26.360000 -0.069108 0
26.365000 -0.054524 0
26.370000 -0.036302 0
26.375000 -0.014238 0
26.380000 0.011575 0
26.385000 0.040666 0
26.390000 0.072131 0
26.395000 0.104638 0
26.400000 0.136485 0
26.405000 0.165736 0
26.410000 0.190404 0
26.415000 0.208672 0
26.420000 0.219116 0
26.425000 0.220887 1
26.430000 0.213824 0
26.435000 0.198482 0
26.440000 0.176054 0
26.445000 0.148222 0
26.450000 0.116940 0
26.455000 0.084175 0
26.460000 0.051585 0
26.465000 0.020044 0
26.470000 -0.011086 0
26.475000 -0.044686 0
26.480000 -0.085611 0
26.485000 -0.137815 0
26.490000 -0.198631 0
26.495000 -0.253397 0
26.500000 -0.275488 2
26.505000 -0.232857 0
26.510000 -0.097127 0
26.515000 0.145853 0
26.520000 0.479076 0
26.525000 0.835698 0
26.530000 1.104319 0
26.535000 1.178230 3
26.540000 1.022766 0
26.545000 0.698166 0
26.550000 0.315661 0
26.555000 -0.022677 0
26.560000 -0.258688 0
26.565000 -0.376833 0
26.570000 -0.390686 4
26.575000 -0.332478 0
26.580000 -0.242182 0
26.585000 -0.153424 0
26.590000 -0.083525 0
26.595000 -0.033939 0
26.600000 0.002036 0
26.605000 0.031803 0
26.610000 0.060138 0
26.615000 0.089175 0
26.620000 0.119471 0
26.625000 0.150860 0
26.630000 0.182873 0
26.635000 0.214904 0
26.640000 0.246262 0
26.645000 0.276208 0
26.650000 0.303980 0
26.655000 0.328830 0
26.660000 0.350049 0
26.665000 0.367007 0
26.670000 0.379180 0
26.675000 0.386178 0
26.680000 0.387764 5
26.685000 0.383865 0
26.690000 0.374582 0
26.695000 0.360179 0
26.700000 0.341075 0
26.705000 0.317819 0
26.710000 0.291067 0
26.715000 0.261549 0
26.720000 0.230036 0
26.725000 0.197306 0
26.730000 0.164114 0
26.735000 0.131165 0
26.740000 0.099088 0
26.745000 0.068420 0
26.750000 0.039596 0
26.755000 0.012946 0
26.760000 -0.011309 0
26.765000 -0.033044 0
26.770000 -0.052228 0
26.775000 -0.068903 0
26.780000 -0.083177 0
26.785000 -0.095204 0
26.790000 -0.105173 0
26.795000 -0.113291 0
26.800000 -0.119777 0
26.805000 -0.124846 0
26.810000 -0.128706 0
26.815000 -0.131549 0
26.820000 -0.133551 0
26.825000 -0.134866 0
26.830000 -0.134181 0
26.835000 -0.133160 0
26.840000 -0.132145 0
26.845000 -0.131134 0
26.850000 -0.130129 0
26.855000 -0.129128 0
26.860000 -0.128130 0
26.865000 -0.127136 0
26.870000 -0.126143 0
26.875000 -0.125147 0
26.880000 -0.124142 0
26.885000 -0.123115 0
26.890000 -0.122045 0
26.895000 -0.120898 0
26.900000 -0.119620 0
26.905000 -0.118126 0
26.910000 -0.116291 0
26.915000 -0.113936 0
26.920000 -0.110815 0
26.925000 -0.106609 0
26.930000 -0.100919 0
26.935000 -0.093277 0
26.940000 -0.083170 0
26.945000 -0.070086 0
26.950000 -0.053578 0
26.955000 -0.033344 0
26.960000 -0.009324 0
26.965000 0.018214 0
26.970000 0.048610 0
26.975000 0.080782 0
26.980000 0.113252 0
26.985000 0.144241 0
26.990000 0.171816 0
26.995000 0.194085 0
27.000000 0.209410 0
27.005000 0.216609 1
27.010000 0.215104 0
27.015000 0.205000 0
27.020000 0.187072 0
27.025000 0.162669 0
27.030000 0.133544 0
27.035000 0.101632 0
27.040000 0.068798 0
27.045000 0.036493 0
27.050000 0.005239 0
27.055000 -0.026107 0
27.060000 -0.060939 0
27.065000 -0.104159 0
27.070000 -0.158734 0
27.075000 -0.219917 0
27.080000 -0.270861 0
27.085000 -0.284004 2
27.090000 -0.228086 0
27.095000 -0.076877 0
27.100000 0.180207 0
27.105000 0.521015 0
27.110000 0.874094 0
27.115000 1.128241 0
27.120000 1.183325 3
27.125000 1.011610 0
27.130000 0.677145 0
27.135000 0.295067 0
27.140000 -0.033961 0
27.145000 -0.255829 0
27.150000 -0.358958 0
27.155000 -0.360275 4
27.160000 -0.294622 0
27.165000 -0.202766 0
27.170000 -0.116738 0
27.175000 -0.051033 0
27.180000 -0.004904 0
27.185000 0.029120 0
27.190000 0.058167 0
27.195000 0.086453 0
27.200000 0.115688 0
27.205000 0.146201 0
27.210000 0.177716 0
27.215000 0.209709 0
27.220000 0.241530 0
27.225000 0.272459 0
27.230000 0.301728 0
27.235000 0.328559 0
27.240000 0.352197 0
27.245000 0.371940 0
27.250000 0.387178 0
27.255000 0.397421 0
27.260000 0.402323 5
27.265000 0.401706 0
27.270000 0.395565 0
27.275000 0.384068 0
27.280000 0.367552 0
27.285000 0.346505 0
27.290000 0.321538 0
27.295000 0.293359 0
27.300000 0.262737 0
27.305000 0.230469 0
27.310000 0.197341 0
27.315000 0.164105 0
27.320000 0.131444 0
27.325000 0.099954 0
27.330000 0.070133 0
27.335000 0.042368 0
27.340000 0.016935 0
27.345000 -0.005995 0
27.350000 -0.026349 0
27.355000 -0.044141 0
27.360000 -0.059455 0
27.365000 -0.072431 0
27.370000 -0.083249 0
27.375000 -0.092117 0
27.380000 -0.099253 0
27.385000 -0.104881 0
27.390000 -0.109216 0
27.395000 -0.112460 0
27.400000 -0.114799 0
27.405000 -0.116397 0
27.410000 -0.117118 0
27.415000 -0.116183 0
27.420000 -0.115252 0
27.425000 -0.114326 0
27.430000 -0.113404 0
27.435000 -0.112486 0
27.440000 -0.111573 0
27.445000 -0.110662 0
27.450000 -0.109752 0
27.455000 -0.108840 0
27.460000 -0.107919 0
27.465000 -0.106978 0
27.470000 -0.105998 0
27.475000 -0.104947 0
27.480000 -0.103771 0
27.485000 -0.102390 0
27.490000 -0.100680 0
27.495000 -0.098467 0
27.500000 -0.095506 0
27.505000 -0.091479 0
27.510000 -0.085982 0
27.515000 -0.078544 0
27.520000 -0.068640 0
27.525000 -0.055747 0
27.530000 -0.039401 0
27.535000 -0.019293 0
27.540000 0.004646 0
27.545000 0.032142 0
27.550000 0.062516 0
27.555000 0.094654 0
27.560000 0.127036 0
27.565000 0.157832 0
27.570000 0.185064 0
27.575000 0.206808 0
27.580000 0.221419 0
27.585000 0.227735 1
27.590000 0.225230 0
27.595000 0.214089 0
27.600000 0.195179 0
27.605000 0.169943 0
27.610000 0.140211 0
27.615000 0.107971 0
27.620000 0.075084 0
27.625000 0.042912 0
27.630000 0.011732 0
27.635000 -0.020052 0
27.640000 -0.056361 0
27.645000 -0.102178 0
27.650000 -0.159258 0
27.655000 -0.220003 0
27.660000 -0.264030 2
27.665000 -0.261351 0
27.670000 -0.180545 0
27.675000 0.001940 0
27.680000 0.289094 0
27.685000 0.643923 0
27.690000 0.977401 0
27.695000 1.172343 3
27.700000 1.145655 0
27.705000 0.903462 0
27.710000 0.537756 0
27.715000 0.165935 0
27.720000 -0.126428 0
27.725000 -0.302471 0
27.730000 -0.362992 4
27.735000 -0.333268 0
27.740000 -0.252536 0
27.745000 -0.160125 0
27.750000 -0.081692 0
27.755000 -0.024778 0
27.760000 0.015268 0
27.765000 0.046449 0
27.770000 0.074804 0
27.775000 0.103375 0
27.780000 0.133157 0
27.785000 0.164147 0
27.790000 0.195931 0
27.795000 0.227913 0
27.800000 0.259399 0
27.805000 0.289637 0
27.810000 0.317842 0
27.815000 0.343234 0
27.820000 0.365072 0
27.825000 0.382687 0
27.830000 0.395517 0
27.835000 0.403137 0
27.840000 0.405278 5
27.845000 0.401847 0
27.850000 0.392927 0
27.855000 0.378779 0
27.860000 0.359821 0
27.865000 0.336617 0
27.870000 0.309838 0
27.875000 0.280237 0
27.880000 0.248609 0
27.885000 0.215760 0
27.890000 0.182466 0
27.895000 0.149452 0
27.900000 0.117363 0
27.905000 0.086746 0
27.910000 0.058040 0
27.915000 0.031572 0
27.920000 0.007560 0
27.925000 -0.013882 0
27.930000 -0.032735 0
27.935000 -0.049056 0
27.940000 -0.062964 0
27.945000 -0.074629 0
27.950000 -0.084250 0
27.955000 -0.092045 0
27.960000 -0.098240 0
27.965000 -0.103055 0
27.970000 -0.106700 0
27.975000 -0.109370 0
27.980000 -0.111238 0
27.985000 -0.112148 0
27.990000 -0.111238 0
27.995000 -0.110332 0
28.000000 -0.109430 0
28.005000 -0.108533 0
28.010000 -0.107640 0
28.015000 -0.106750 0
28.020000 -0.105864 0
28.025000 -0.104980 0
28.030000 -0.104094 0
28.035000 -0.103201 0
28.040000 -0.102293 0
28.045000 -0.101352 0
28.050000 -0.100350 0
28.055000 -0.099240 0
28.060000 -0.097949 0
28.065000 -0.096367 0
28.070000 -0.094332 0
28.075000 -0.091616 0
28.080000 -0.087918 0
28.085000 -0.082853 0
28.090000 -0.075958 0
28.095000 -0.066714 0
28.100000 -0.054587 0
28.105000 -0.039087 0
28.110000 -0.019856 0
28.115000 0.003235 0
28.120000 0.029994 0
28.125000 0.059827 0
28.130000 0.091699 0
28.135000 0.124152 0
28.140000 0.155389 0
28.145000 0.183424 0
28.150000 0.206289 0
28.155000 0.222251 0
28.160000 0.230039 1
28.165000 0.229002 0
28.170000 0.219206 0
28.175000 0.201419 0
28.180000 0.177018 0
28.185000 0.147809 0
28.190000 0.115789 0
28.195000 0.082878 0
28.200000 0.050549 0
28.205000 0.019266 0
28.210000 -0.012301 0
28.215000 -0.047846 0
28.220000 -0.092433 0
28.225000 -0.148489 0
28.230000 -0.209592 0
28.235000 -0.256425 0
28.240000 -0.259316 2
28.245000 -0.186285 0
28.250000 -0.012464 0
28.255000 0.267467 0
28.260000 0.619833 0
28.265000 0.958166 0
28.270000 1.164358 3
28.275000 1.151810 0
28.280000 0.922640 0
28.285000 0.562527 0
28.290000 0.186829 0
28.295000 -0.116497 0
28.300000 -0.306709 0
28.305000 -0.381063 4
28.310000 -0.361751 0
28.315000 -0.285947 0
28.320000 -0.193089 0
28.325000 -0.111073 0
28.330000 -0.050161 0
28.335000 -0.007326 0
28.340000 0.025187 0
28.345000 0.053881 0
28.350000 0.082327 0
28.355000 0.111856 0
28.360000 0.142633 0
28.365000 0.174322 0
28.370000 0.206379 0
28.375000 0.238148 0
28.380000 0.268906 0
28.385000 0.297894 0
