0.000000 1.158632 3
0.005000 1.023504 0
0.010000 0.688933 0
0.015000 0.285095 0
0.020000 -0.066454 0
0.025000 -0.299419 0
0.030000 -0.400000 4
0.035000 -0.389182 0
0.040000 -0.309009 0
0.045000 -0.206565 0
0.050000 -0.115653 0
0.055000 -0.048292 0
0.060000 -0.000428 0
0.065000 0.036961 0
0.070000 0.070756 0
0.075000 0.104231 0
0.080000 0.138242 0
0.085000 0.172522 0
0.090000 0.206381 0
0.095000 0.238971 0
0.100000 0.269390 0
0.105000 0.296732 0
0.110000 0.320135 0
0.115000 0.338826 0
0.120000 0.352163 0
0.125000 0.359669 0
0.130000 0.361064 5
0.135000 0.356278 0
0.140000 0.345457 0
0.145000 0.328956 0
0.150000 0.307318 0
0.155000 0.281244 0
0.160000 0.251559 0
0.165000 0.219159 0
0.170000 0.184979 0
0.175000 0.149935 0
0.180000 0.114898 0
0.185000 0.080648 0
0.190000 0.047857 0
0.195000 0.017070 0
0.200000 -0.011304 0
0.205000 -0.036991 0
0.210000 -0.059842 0
0.215000 -0.079825 0
0.220000 -0.097000 0
0.225000 -0.111507 0
0.230000 -0.123541 0
0.235000 -0.133336 0
0.240000 -0.141146 0
0.245000 -0.147231 0
0.250000 -0.151845 0
0.255000 -0.155226 0
0.260000 -0.157087 0
0.265000 -0.155984 0
0.270000 -0.154886 0
0.275000 -0.153793 0
0.280000 -0.152704 0
0.285000 -0.151618 0
0.290000 -0.150531 0
0.295000 -0.149439 0
0.300000 -0.148328 0
0.305000 -0.147182 0
0.310000 -0.145965 0
0.315000 -0.144621 0
0.320000 -0.143059 0
0.325000 -0.141143 0
0.330000 -0.138667 0
0.335000 -0.135346 0
0.340000 -0.130798 0
0.345000 -0.124545 0
0.350000 -0.116020 0
0.355000 -0.104604 0
0.360000 -0.089693 0
0.365000 -0.070791 0
0.370000 -0.047622 0
0.375000 -0.020260 0
0.380000 0.010768 0
0.385000 0.044408 0
0.390000 0.079081 0
0.395000 0.112773 0
0.400000 0.143204 0
0.405000 0.168076 0
0.410000 0.185362 0
0.415000 0.193577 1
0.420000 0.191989 0
0.425000 0.180731 0
0.430000 0.160783 0
0.435000 0.133831 0
0.440000 0.102021 0
0.445000 0.067627 0
0.450000 0.032576 0
0.455000 -0.002287 0
0.460000 -0.038238 0
0.465000 -0.079389 0
0.470000 -0.131228 0
0.475000 -0.195155 0
0.480000 -0.260729 0
0.485000 -0.302015 2
0.490000 -0.282844 0
0.495000 -0.167770 0
0.500000 0.065389 0
0.505000 0.406447 0
0.510000 0.788056 0
0.515000 1.085226 0
0.520000 1.171325 3
0.525000 1.001122 0
0.530000 0.646814 0
0.535000 0.244351 0
0.540000 -0.090245 0
0.545000 -0.299707 0
0.550000 -0.377459 4
0.555000 -0.349736 0
0.560000 -0.261662 0
0.565000 -0.159687 0
0.570000 -0.073711 0
0.575000 -0.011550 0
0.580000 0.032966 0
0.585000 0.068891 0
0.590000 0.102306 0
0.595000 0.135785 0
0.600000 0.169805 0
0.605000 0.203937 0
0.610000 0.237419 0
0.615000 0.269369 0
0.620000 0.298863 0
0.625000 0.324989 0
0.630000 0.346895 0
0.635000 0.363831 0
0.640000 0.375196 0
0.645000 0.380568 5
0.650000 0.379733 0
0.655000 0.372695 0
0.660000 0.359678 0
0.665000 0.341114 0
0.670000 0.317620 0
0.675000 0.289957 0
0.680000 0.258998 0
0.685000 0.225674 0
0.690000 0.190932 0
0.695000 0.155688 0
0.700000 0.120792 0
0.705000 0.086994 0
0.710000 0.054922 0
0.715000 0.025068 0
0.720000 -0.002212 0
0.725000 -0.026701 0
0.730000 -0.048304 0
0.735000 -0.067033 0
0.740000 -0.082992 0
0.745000 -0.096353 0
0.750000 -0.107336 0
0.755000 -0.116190 0
0.760000 -0.123178 0
0.765000 -0.128563 0
0.770000 -0.132595 0
0.775000 -0.135505 0
0.780000 -0.135076 0
0.785000 -0.134083 0
0.790000 -0.133094 0
0.795000 -0.132109 0
0.800000 -0.131127 0
0.805000 -0.130145 0
0.810000 -0.129159 0
0.815000 -0.128161 0
0.820000 -0.127134 0
0.825000 -0.126051 0
0.830000 -0.124864 0
0.835000 -0.123495 0
0.840000 -0.121824 0
0.845000 -0.119668 0
0.850000 -0.116768 0
0.855000 -0.112771 0
0.860000 -0.107220 0
0.865000 -0.099567 0
0.870000 -0.089195 0
0.875000 -0.075475 0
0.880000 -0.057861 0
0.885000 -0.035994 0
0.890000 -0.009836 0
0.895000 0.020210 0
0.900000 0.053219 0
0.905000 0.087722 0
0.910000 0.121766 0
0.915000 0.153081 0
0.920000 0.179313 0
0.925000 0.198314 0
0.930000 0.208435 0
0.935000 0.208758 1
0.940000 0.199240 0
0.945000 0.180716 0
0.950000 0.154781 0
0.955000 0.123554 0
0.960000 0.089352 0
0.965000 0.054227 0
0.970000 0.019270 0
0.975000 -0.016436 0
0.980000 -0.056687 0
0.985000 -0.107087 0
0.990000 -0.169967 0
0.995000 -0.236406 0
1.000000 -0.281634 2
1.005000 -0.269488 0
1.010000 -0.163423 0
1.015000 0.060752 0
1.020000 0.395948 0
1.025000 0.778067 0
1.030000 1.082640 0
1.035000 1.179183 3
1.040000 1.017472 0
1.045000 0.666234 0
1.050000 0.263558 0
1.055000 -0.071463 0
1.060000 -0.280085 0
1.065000 -0.355825 4
1.070000 -0.325893 0
1.075000 -0.236626 0
1.080000 -0.135051 0
1.085000 -0.050573 0
1.090000 0.009974 0
1.095000 0.053401 0
1.100000 0.088824 0
1.105000 0.122096 0
1.110000 0.155557 0
1.115000 0.189545 0
1.120000 0.223562 0
1.125000 0.256805 0
1.130000 0.288363 0
1.135000 0.317292 0
1.140000 0.342667 0
1.145000 0.363632 0
1.150000 0.379448 0
1.155000 0.389533 0
1.160000 0.393499 5
1.165000 0.391174 0
1.170000 0.382615 0
1.175000 0.368102 0
1.180000 0.348125 0
1.185000 0.323357 0
1.190000 0.294611 0
1.195000 0.262797 0
1.200000 0.228877 0
1.205000 0.193813 0
1.210000 0.158522 0
1.215000 0.123844 0
1.220000 0.090503 0
1.225000 0.059095 0
1.230000 0.030072 0
1.235000 0.003746 0
1.240000 -0.019709 0
1.245000 -0.040241 0
1.250000 -0.057903 0
1.255000 -0.072831 0
1.260000 -0.085223 0
1.265000 -0.095319 0
1.270000 -0.103381 0
1.275000 -0.109679 0
1.280000 -0.114477 0
1.285000 -0.118021 0
1.290000 -0.120038 0
1.295000 -0.119120 0
1.300000 -0.118206 0
1.305000 -0.117296 0
1.310000 -0.116389 0
1.315000 -0.115483 0
1.320000 -0.114575 0
1.325000 -0.113659 0
1.330000 -0.112721 0
1.335000 -0.111739 0
1.340000 -0.110675 0
1.345000 -0.109462 0
1.350000 -0.107996 0
1.355000 -0.106117 0
1.360000 -0.103592 0
1.365000 -0.100095 0
1.370000 -0.095197 0
1.375000 -0.088369 0
1.380000 -0.078997 0
1.385000 -0.066436 0
1.390000 -0.050090 0
1.395000 -0.029524 0
1.400000 -0.004592 0
1.405000 0.024430 0
1.410000 0.056743 0
1.415000 0.090985 0
1.420000 0.125272 0
1.425000 0.157342 0
1.430000 0.184786 0
1.435000 0.205342 0
1.440000 0.217200 0
1.445000 0.219267 1
1.450000 0.211333 0
1.455000 0.194102 0
1.460000 0.169093 0
1.465000 0.138409 0
1.470000 0.104409 0
1.475000 0.069255 0
1.480000 0.034223 0
1.485000 -0.001357 0
1.490000 -0.041072 0
1.495000 -0.090615 0
1.500000 -0.152863 0
1.505000 -0.219646 0
1.510000 -0.266512 2
1.515000 -0.256851 0
1.520000 -0.153192 0
1.525000 0.069568 0
1.530000 0.404616 0
1.535000 0.786512 0
1.540000 1.087858 0
1.545000 1.176478 3
1.550000 1.005063 0
1.555000 0.648113 0
1.560000 0.246629 0
1.565000 -0.081429 0
1.570000 -0.280310 0
1.575000 -0.346398 4
1.580000 -0.309378 0
1.585000 -0.217166 0
1.590000 -0.116456 0
1.595000 -0.034688 0
1.600000 0.023312 0
1.605000 0.065239 0
1.610000 0.100094 0
1.615000 0.133281 0
1.620000 0.166799 0
1.625000 0.200806 0
1.630000 0.234726 0
1.635000 0.267718 0
1.640000 0.298845 0
1.645000 0.327149 0
1.650000 0.351699 0
1.655000 0.371646 0
1.660000 0.386269 0
1.665000 0.395015 0
1.670000 0.397536 5
1.675000 0.393711 0
1.680000 0.383649 0
1.685000 0.367692 0
1.690000 0.346384 0
1.695000 0.320450 0
1.700000 0.290746 0
1.705000 0.258217 0
1.710000 0.223842 0
1.715000 0.188591 0
1.720000 0.153376 0
1.725000 0.119016 0
1.730000 0.086208 0
1.735000 0.055510 0
1.740000 0.027336 0
1.745000 0.001953 0
1.750000 -0.020507 0
1.755000 -0.040030 0
1.760000 -0.056701 0
1.765000 -0.070686 0
1.770000 -0.082204 0
1.775000 -0.091508 0
1.780000 -0.098870 0
1.785000 -0.104564 0
1.790000 -0.108849 0
1.795000 -0.111969 0
1.800000 -0.111670 0
1.805000 -0.110794 0
1.810000 -0.109921 0
1.815000 -0.109052 0
1.820000 -0.108185 0
1.825000 -0.107317 0
1.830000 -0.106445 0
1.835000 -0.105559 0
1.840000 -0.104641 0
1.845000 -0.103662 0
1.850000 -0.102570 0
1.855000 -0.101280 0
1.860000 -0.099659 0
1.865000 -0.097508 0
1.870000 -0.094542 0
1.875000 -0.090374 0
1.880000 -0.084512 0
1.885000 -0.076366 0
1.890000 -0.065287 0
1.895000 -0.050636 0
1.900000 -0.031887 0
1.905000 -0.008753 0
1.910000 0.018673 0
1.915000 0.049801 0
1.920000 0.083472 0
1.925000 0.117962 0
1.930000 0.151097 0
1.935000 0.180452 0
1.940000 0.203639 0
1.945000 0.218627 0
1.950000 0.224030 1
1.955000 0.219321 0
1.960000 0.204916 0
1.965000 0.182113 0
1.970000 0.152890 0
1.975000 0.119606 0
1.980000 0.084575 0
1.985000 0.049442 0
1.990000 0.014206 0
1.995000 -0.023927 0
2.000000 -0.070450 0
2.005000 -0.129742 0
2.010000 -0.197063 0
2.015000 -0.251607 0
2.020000 -0.258228 2
2.025000 -0.177963 0
2.030000 0.018727 0
2.035000 0.333942 0
2.040000 0.715058 0
2.045000 1.042622 0
2.050000 1.176431 3
2.055000 1.047993 0
2.060000 0.713502 0
2.065000 0.309794 0
2.070000 -0.036362 0
2.075000 -0.258395 0
2.080000 -0.345340 4
2.085000 -0.322412 0
2.090000 -0.235785 0
2.095000 -0.133932 0
2.100000 -0.048226 0
2.105000 0.013273 0
2.110000 0.057123 0
2.115000 0.092646 0
2.120000 0.125907 0
2.125000 0.159342 0
2.130000 0.193312 0
2.135000 0.227307 0
2.140000 0.260512 0
2.145000 0.291997 0
2.150000 0.320800 0
2.155000 0.345983 0
2.160000 0.366677 0
2.165000 0.382138 0
2.170000 0.391786 0
2.175000 0.395238 5
2.180000 0.392340 0
2.185000 0.383169 0
2.190000 0.368033 0
2.195000 0.347452 0
2.200000 0.322127 0
2.205000 0.292902 0
2.210000 0.260715 0
2.215000 0.226545 0
2.220000 0.191368 0
2.225000 0.156108 0
2.230000 0.121600 0
2.235000 0.088562 0
2.240000 0.057570 0
2.245000 0.029060 0
2.250000 0.003316 0
2.255000 -0.019511 0
2.260000 -0.039393 0
2.265000 -0.056406 0
2.270000 -0.070705 0
2.275000 -0.082505 0
2.280000 -0.092056 0
2.285000 -0.099631 0
2.290000 -0.105502 0
2.295000 -0.109933 0
2.300000 -0.113170 0
2.305000 -0.114978 0
2.310000 -0.114085 0
2.315000 -0.113196 0
2.320000 -0.112311 0
2.325000 -0.111428 0
2.330000 -0.110545 0
2.335000 -0.109658 0
2.340000 -0.108758 0
2.345000 -0.107829 0
2.350000 -0.106843 0
2.355000 -0.105751 0
2.360000 -0.104471 0
2.365000 -0.102877 0
2.370000 -0.100776 0
2.375000 -0.097892 0
2.380000 -0.093849 0
2.385000 -0.088162 0
2.390000 -0.080250 0
2.395000 -0.069465 0
2.400000 -0.055162 0
2.405000 -0.036797 0
2.410000 -0.014055 0
2.415000 0.013012 0
2.420000 0.043861 0
2.425000 0.077383 0
2.430000 0.111898 0
2.435000 0.145259 0
2.440000 0.175048 0
2.445000 0.198855 0
2.450000 0.214603 0
2.455000 0.220840 1
2.460000 0.216961 0
2.465000 0.203308 0
2.470000 0.181114 0
2.475000 0.152323 0
2.480000 0.119278 0
2.485000 0.084322 0
2.490000 0.049184 0
2.495000 0.014025 0
2.500000 -0.023726 0
2.505000 -0.069449 0
2.510000 -0.127839 0
2.515000 -0.195061 0
2.520000 -0.251432 0
2.525000 -0.262429 2
2.530000 -0.188858 0
2.535000 -0.000055 0
2.540000 0.308583 0
2.545000 0.688496 0
2.550000 1.023483 0
2.555000 1.171810 3
2.560000 1.058830 0
2.565000 0.734123 0
2.570000 0.330566 0
2.575000 -0.023334 0
2.580000 -0.256833 0
2.585000 -0.355288 4
2.590000 -0.341054 0
2.595000 -0.258488 0
2.600000 -0.156271 0
2.605000 -0.067853 0
2.610000 -0.003576 0
2.615000 0.042001 0
2.620000 0.078233 0
2.625000 0.111641 0
2.630000 0.145044 0
2.635000 0.179000 0
2.640000 0.213086 0
2.645000 0.246524 0
2.650000 0.278408 0
2.655000 0.307788 0
2.660000 0.333730 0
2.665000 0.355359 0
2.670000 0.371914 0
2.675000 0.382787 0
2.680000 0.387561 5
2.685000 0.386035 0
2.690000 0.378236 0
2.695000 0.364423 0
2.700000 0.345063 0
2.705000 0.320814 0
2.710000 0.292480 0
2.715000 0.260970 0
2.720000 0.227246 0
2.725000 0.192278 0
2.730000 0.156996 0
2.735000 0.122252 0
2.740000 0.088788 0
2.745000 0.057214 0
2.750000 0.027999 0
2.755000 0.001467 0
2.760000 -0.022196 0
2.765000 -0.042927 0
2.770000 -0.060774 0
2.775000 -0.075867 0
2.780000 -0.088401 0
2.785000 -0.098616 0
2.790000 -0.106776 0
2.795000 -0.113150 0
2.800000 -0.118005 0
2.805000 -0.121590 0
2.810000 -0.123628 0
2.815000 -0.122692 0
2.820000 -0.121760 0
2.825000 -0.120832 0
2.830000 -0.119908 0
2.835000 -0.118985 0
2.840000 -0.118060 0
2.845000 -0.117126 0
2.850000 -0.116172 0
2.855000 -0.115175 0
2.860000 -0.114095 0
2.865000 -0.112869 0
2.870000 -0.111390 0
2.875000 -0.109501 0
2.880000 -0.106965 0
2.885000 -0.103458 0
2.890000 -0.098549 0
2.895000 -0.091703 0
2.900000 -0.082305 0
2.905000 -0.069706 0
2.910000 -0.053308 0
2.915000 -0.032673 0
2.920000 -0.007660 0
2.925000 0.021446 0
2.930000 0.053832 0
2.935000 0.088116 0
2.940000 0.122393 0
2.945000 0.154381 0
2.950000 0.181656 0
2.955000 0.201953 0
2.960000 0.213474 0
2.965000 0.215150 1
2.970000 0.206807 0
2.975000 0.189193 0
2.980000 0.163870 0
2.985000 0.132971 0
2.990000 0.098874 0
2.995000 0.063723 0
3.000000 0.028719 0
3.005000 -0.006970 0
3.010000 -0.047146 0
3.015000 -0.097550 0
3.020000 -0.160573 0
3.025000 -0.226886 0
3.030000 -0.270700 2
3.035000 -0.254673 0
3.040000 -0.141613 0
3.045000 0.091915 0
3.050000 0.434936 0
3.055000 0.815396 0
3.060000 1.101320 0
3.065000 1.164314 3
3.070000 0.970149 0
3.075000 0.604089 0
3.080000 0.204363 0
3.085000 -0.117927 0
3.090000 -0.311761 0
3.095000 -0.375140 4
3.100000 -0.337449 0
3.105000 -0.245314 0
3.110000 -0.144226 0
3.115000 -0.061379 0
3.120000 -0.002137 0
3.125000 0.040677 0
3.130000 0.075959 0
3.135000 0.109281 0
3.140000 0.142831 0
3.145000 0.176898 0
3.150000 0.210974 0
3.155000 0.244267 0
3.160000 0.275876 0
3.165000 0.304870 0
3.170000 0.330339 0
3.175000 0.351439 0
3.180000 0.367437 0
3.185000 0.377759 0
3.190000 0.382014 5
3.195000 0.380025 0
3.200000 0.371839 0
3.205000 0.357721 0
3.210000 0.338144 0
3.215000 0.313759 0
3.220000 0.285358 0
3.225000 0.253834 0
3.230000 0.220132 0
3.235000 0.185202 0
3.240000 0.149956 0
3.245000 0.115228 0
3.250000 0.081750 0
3.255000 0.050125 0
3.260000 0.020816 0
3.265000 -0.005850 0
3.270000 -0.029683 0
3.275000 -0.050615 0
3.280000 -0.068681 0
3.285000 -0.084005 0
3.290000 -0.096773 0
3.295000 -0.107214 0
3.300000 -0.115585 0
3.305000 -0.122152 0
3.310000 -0.127176 0
3.315000 -0.130906 0
3.320000 -0.133567 0
3.325000 -0.133109 0
3.330000 -0.132126 0
3.335000 -0.131146 0
3.340000 -0.130171 0
3.345000 -0.129197 0
3.350000 -0.128223 0
3.355000 -0.127243 0
3.360000 -0.126247 0
3.365000 -0.125215 0
3.370000 -0.124115 0
3.375000 -0.122891 0
3.380000 -0.121453 0
3.385000 -0.119663 0
3.390000 -0.117316 0
3.395000 -0.114122 0
3.400000 -0.109693 0
3.405000 -0.103541 0
3.410000 -0.095084 0
3.415000 -0.083691 0
3.420000 -0.068746 0
3.425000 -0.049746 0
3.430000 -0.026425 0
3.435000 0.001118 0
3.440000 0.032308 0
3.445000 0.066023 0
3.450000 0.100603 0
3.455000 0.133950 0
3.460000 0.163716 0
3.465000 0.187572 0
3.470000 0.203506 0
3.475000 0.210101 1
3.480000 0.206745 0
3.485000 0.193728 0
3.490000 0.172196 0
3.495000 0.143985 0
3.500000 0.111348 0
3.505000 0.076576 0
3.510000 0.041468 0
3.515000 0.006470 0
3.520000 -0.030425 0
3.525000 -0.074077 0
3.530000 -0.129668 0
3.535000 -0.195946 0
3.540000 -0.257568 0
3.545000 -0.283859 2
3.550000 -0.236797 0
3.555000 -0.083059 0
3.560000 0.191477 0
3.565000 0.558372 0
3.570000 0.924802 0
3.575000 1.152806 3
3.580000 1.137257 0
3.585000 0.881771 0
3.590000 0.492540 0
3.595000 0.104837 0
3.600000 -0.187116 0
3.605000 -0.347419 0
3.610000 -0.383134 4
3.615000 -0.328500 0
3.620000 -0.230861 0
3.625000 -0.132093 0
3.630000 -0.054124 0
3.635000 0.001243 0
3.640000 0.042099 0
3.645000 0.076771 0
3.650000 0.110071 0
3.655000 0.143735 0
3.660000 0.177866 0
3.665000 0.211905 0
3.670000 0.245049 0
3.675000 0.276410 0
3.680000 0.305072 0
3.685000 0.330147 0
3.690000 0.350814 0
3.695000 0.366368 0
3.700000 0.376258 0
3.705000 0.380116 5
3.710000 0.377784 0
3.715000 0.369318 0
3.720000 0.354991 0
3.725000 0.335273 0
3.730000 0.310809 0
3.735000 0.282381 0
3.740000 0.250865 0
3.745000 0.217190 0
3.750000 0.182289 0
3.755000 0.147058 0
3.760000 0.112321 0
3.765000 0.078797 0
3.770000 0.047085 0
3.775000 0.017648 0
3.780000 -0.009187 0
3.785000 -0.033222 0
3.790000 -0.054383 0
3.795000 -0.072697 0
3.800000 -0.088276 0
3.805000 -0.101298 0
3.810000 -0.111986 0
3.815000 -0.120589 0
3.820000 -0.127367 0
3.825000 -0.132578 0
3.830000 -0.136469 0
3.835000 -0.139267 0
3.840000 -0.138806 0
3.845000 -0.137794 0
3.850000 -0.136786 0
3.855000 -0.135783 0
3.860000 -0.134782 0
3.865000 -0.133782 0
3.870000 -0.132778 0
3.875000 -0.131760 0
3.880000 -0.130713 0
3.885000 -0.129609 0
3.890000 -0.128400 0
3.895000 -0.127008 0
3.900000 -0.125312 0
3.905000 -0.123131 0
3.910000 -0.120208 0
3.915000 -0.116192 0
3.920000 -0.110634 0
3.925000 -0.102990 0
3.930000 -0.092651 0
3.935000 -0.078997 0
3.940000 -0.061483 0
3.945000 -0.039748 0
3.950000 -0.013743 0
3.955000 0.016155 0
3.960000 0.049056 0
3.965000 0.083534 0
3.970000 0.117683 0
3.975000 0.149273 0
3.980000 0.175973 0
3.985000 0.195635 0
3.990000 0.206580 0
3.995000 0.207831 1
4.000000 0.199262 0
4.005000 0.181618 0
4.010000 0.156407 0
4.015000 0.125683 0
4.020000 0.091730 0
4.025000 0.056643 0
4.030000 0.021672 0
4.035000 -0.013757 0
4.040000 -0.052995 0
4.045000 -0.101531 0
4.050000 -0.162655 0
4.055000 -0.229779 0
4.060000 -0.280916 0
4.065000 -0.281533 2
4.070000 -0.194700 0
4.075000 0.006797 0
4.080000 0.323640 0
4.085000 0.704867 0
4.090000 1.036917 0
4.095000 1.184932 3
4.100000 1.077592 0
4.105000 0.759592 0
4.110000 0.356585 0
4.115000 -0.005773 0
4.120000 -0.254423 0
4.125000 -0.370385 0
4.130000 -0.371222 4
4.135000 -0.297047 0
4.140000 -0.195230 0
4.145000 -0.101886 0
4.150000 -0.031653 0
4.155000 0.018098 0
4.160000 0.056261 0
4.165000 0.090152 0
4.170000 0.123464 0
4.175000 0.157285 0
4.180000 0.191445 0
4.185000 0.225292 0
4.190000 0.257995 0
4.195000 0.288658 0
4.200000 0.316375 0
4.205000 0.340278 0
4.210000 0.359580 0
4.215000 0.373621 0
4.220000 0.381899 0
4.225000 0.384105 5
4.230000 0.380135 0
4.235000 0.370105 0
4.240000 0.354336 0
4.245000 0.333343 0
4.250000 0.307804 0
4.255000 0.278523 0
4.260000 0.246387 0
4.265000 0.212322 0
4.270000 0.177250 0
4.275000 0.142048 0
4.280000 0.107510 0
4.285000 0.074327 0
4.290000 0.043063 0
4.295000 0.014150 0
4.300000 -0.012118 0
4.305000 -0.035571 0
4.310000 -0.056157 0
4.315000 -0.073922 0
4.320000 -0.088993 0
4.325000 -0.101555 0
4.330000 -0.111838 0
4.335000 -0.120091 0
4.340000 -0.126573 0
4.345000 -0.131540 0
4.350000 -0.135233 0
4.355000 -0.137872 0
4.360000 -0.137394 0
4.365000 -0.136389 0
4.370000 -0.135389 0
4.375000 -0.134392 0
4.380000 -0.133398 0
4.385000 -0.132403 0
4.390000 -0.131404 0
4.395000 -0.130390 0
4.400000 -0.129343 0
4.405000 -0.128234 0
4.410000 -0.127012 0
4.415000 -0.125595 0
4.420000 -0.123855 0
4.425000 -0.121606 0
4.430000 -0.118580 0
4.435000 -0.114419 0
4.440000 -0.108665 0
4.445000 -0.100769 0
4.450000 -0.090122 0
4.455000 -0.076111 0
4.460000 -0.058210 0
4.465000 -0.036083 0
4.470000 -0.009715 0
4.475000 0.020474 0
4.480000 0.053557 0
4.485000 0.088074 0
4.490000 0.122104 0
4.495000 0.153412 0
4.500000 0.179690 0
4.505000 0.198828 0
4.510000 0.209195 0
4.515000 0.209871 1
4.520000 0.200782 0
4.525000 0.182709 0
4.530000 0.157185 0
4.535000 0.126266 0
4.540000 0.092223 0
4.545000 0.057117 0
4.550000 0.022146 0
4.555000 -0.013337 0
4.560000 -0.052738 0
4.565000 -0.101530 0
4.570000 -0.162862 0
4.575000 -0.229961 0
4.580000 -0.280784 0
4.585000 -0.280952 2
4.590000 -0.193814 0
4.595000 0.007610 0
4.600000 0.324042 0
4.605000 0.705155 0
4.610000 1.038568 0
4.615000 1.190106 3
4.620000 1.086824 0
4.625000 0.770762 0
4.630000 0.367899 0
4.635000 0.005083 0
4.640000 -0.243779 0
4.645000 -0.359488 0
4.650000 -0.359794 4
4.655000 -0.285189 0
4.660000 -0.183353 0
4.665000 -0.090402 0
4.670000 -0.020715 0
4.675000 0.028595 0
4.680000 0.066508 0
4.685000 0.100297 0
4.690000 0.133575 0
4.695000 0.167373 0
4.700000 0.201492 0
4.705000 0.235263 0
4.710000 0.267843 0
4.715000 0.298327 0
4.720000 0.325806 0
4.725000 0.349407 0
4.730000 0.368345 0
4.735000 0.381963 0
4.740000 0.389768 0
4.745000 0.391464 5
4.750000 0.386963 0
4.755000 0.376398 0
4.760000 0.360111 0
4.765000 0.338635 0
4.770000 0.312666 0
4.775000 0.283024 0
4.780000 0.250609 0
4.785000 0.216356 0
4.790000 0.181189 0
4.795000 0.145984 0
4.800000 0.111533 0
4.805000 0.078514 0
4.810000 0.047482 0
4.815000 0.018854 0
4.820000 -0.007090 0
4.825000 -0.030196 0
4.830000 -0.050425 0
4.835000 -0.067836 0
4.840000 -0.082567 0
4.845000 -0.094813 0
4.850000 -0.104808 0
4.855000 -0.112805 0
4.860000 -0.119068 0
4.865000 -0.123849 0
4.870000 -0.127391 0
4.875000 -0.129403 0
4.880000 -0.128438 0
4.885000 -0.127477 0
4.890000 -0.126521 0
4.895000 -0.125568 0
4.900000 -0.124617 0
4.905000 -0.123665 0
4.910000 -0.122706 0
4.915000 -0.121730 0
4.920000 -0.120715 0
4.925000 -0.119630 0
4.930000 -0.118415 0
4.935000 -0.116982 0
4.940000 -0.115190 0
4.945000 -0.112833 0
4.950000 -0.109623 0
4.955000 -0.105177 0
4.960000 -0.099009 0
4.965000 -0.090549 0
4.970000 -0.079177 0
4.975000 -0.064287 0
4.980000 -0.045384 0
4.985000 -0.022201 0
4.990000 0.005176 0
4.995000 0.036199 0
5.000000 0.069790 0
5.005000 0.104346 0
5.010000 0.137826 0
5.015000 0.167936 0
5.020000 0.192374 0
5.025000 0.209124 0
5.030000 0.216726 1
5.035000 0.214490 0
5.040000 0.202596 0
5.045000 0.182074 0
5.050000 0.154650 0
5.055000 0.122500 0
5.060000 0.087899 0
5.065000 0.052738 0
5.070000 0.017760 0
5.075000 -0.018507 0
5.080000 -0.060380 0
5.085000 -0.113303 0
5.090000 -0.178043 0
5.095000 -0.242925 0
5.100000 -0.280765 2
5.105000 -0.254856 0
5.110000 -0.130207 0
5.115000 0.113542 0
5.120000 0.461987 0
5.125000 0.841497 0
5.130000 1.123130 0
5.135000 1.184208 3
5.140000 0.991255 0
5.145000 0.625711 0
5.150000 0.225698 0
5.155000 -0.097410 0
5.160000 -0.292243 0
5.165000 -0.356544 4
5.170000 -0.319514 0
5.175000 -0.227694 0
5.180000 -0.126632 0
5.185000 -0.043685 0
5.190000 0.015639 0
5.195000 0.058461 0
5.200000 0.093688 0
5.205000 0.126923 0
5.210000 0.160379 0
5.215000 0.194354 0
5.220000 0.228345 0
5.225000 0.261561 0
5.230000 0.293104 0
5.235000 0.322044 0
5.240000 0.347468 0
5.245000 0.368533 0
5.250000 0.384507 0
5.255000 0.394811 0
5.260000 0.399053 5
5.265000 0.397055 0
5.270000 0.388860 0
5.275000 0.374730 0
5.280000 0.355135 0
5.285000 0.330725 0
5.290000 0.302289 0
5.295000 0.270719 0
5.300000 0.236959 0
5.305000 0.201958 0
5.310000 0.166629 0
5.315000 0.131808 0
5.320000 0.098226 0
5.325000 0.066489 0
5.330000 0.037063 0
5.335000 0.010275 0
5.340000 -0.013683 0
5.345000 -0.034740 0
5.350000 -0.052930 0
5.355000 -0.068376 0
5.360000 -0.081261 0
5.365000 -0.091817 0
5.370000 -0.100298 0
5.375000 -0.106971 0
5.380000 -0.112095 0
5.385000 -0.115921 0
5.390000 -0.118675 0
5.395000 -0.118294 0
5.400000 -0.117384 0
5.405000 -0.116478 0
5.410000 -0.115576 0
5.415000 -0.114675 0
5.420000 -0.113774 0
5.425000 -0.112866 0
5.430000 -0.111942 0
5.435000 -0.110983 0
5.440000 -0.109956 0
5.445000 -0.108806 0
5.450000 -0.107444 0
5.455000 -0.105734 0
5.460000 -0.103472 0
5.465000 -0.100370 0
5.470000 -0.096043 0
5.475000 -0.090005 0
5.480000 -0.081677 0
5.485000 -0.070428 0
5.490000 -0.055641 0
5.495000 -0.036810 0
5.500000 -0.013662 0
5.505000 0.013717 0
5.510000 0.044762 0
5.515000 0.078365 0
5.520000 0.112882 0
5.525000 0.146223 0
5.530000 0.176046 0
5.535000 0.200018 0
5.540000 0.216117 0
5.545000 0.222906 1
5.550000 0.219753 0
5.555000 0.206922 0
5.560000 0.185537 0
5.565000 0.157418 0
5.570000 0.124809 0
5.575000 0.090006 0
5.580000 0.054830 0
5.585000 0.019782 0
5.590000 -0.017064 0
5.595000 -0.060496 0
5.600000 -0.115763 0
5.605000 -0.181923 0
5.610000 -0.244124 0
5.615000 -0.272088 2
5.620000 -0.227858 0
5.625000 -0.077801 0
5.630000 0.193079 0
5.635000 0.558091 0
5.640000 0.926492 0
5.645000 1.160864 3
5.650000 1.152900 0
5.655000 0.900978 0
5.660000 0.511823 0
5.665000 0.125229 0
5.670000 -0.162366 0
5.675000 -0.315631 0
5.680000 -0.343686 4
5.685000 -0.283448 0
5.690000 -0.184187 0
5.695000 -0.087501 0
5.700000 -0.013187 0
5.705000 0.039057 0
5.710000 0.078141 0
5.715000 0.112141 0
5.720000 0.145311 0
5.725000 0.178972 0
5.730000 0.213012 0
5.735000 0.246763 0
5.740000 0.279363 0
5.745000 0.309875 0
5.750000 0.337355 0
5.755000 0.360900 0
5.760000 0.379696 0
5.765000 0.393064 0
5.770000 0.400501 0
5.775000 0.401709 5
5.780000 0.396614 0
5.785000 0.385372 0
5.790000 0.368358 0
5.795000 0.346148 0
5.800000 0.319482 0
5.805000 0.289224 0
5.810000 0.256318 0
5.815000 0.221731 0
5.820000 0.186415 0
5.825000 0.151259 0
5.830000 0.117055 0
5.835000 0.084475 0
5.840000 0.054053 0
5.845000 0.026177 0
5.850000 0.001096 0
5.855000 -0.021072 0
5.860000 -0.040326 0
5.865000 -0.056758 0
5.870000 -0.070537 0
5.875000 -0.081882 0
5.880000 -0.091048 0
5.885000 -0.098302 0
5.890000 -0.103913 0
5.895000 -0.108138 0
5.900000 -0.111217 0
5.905000 -0.110916 0
5.910000 -0.110043 0
5.915000 -0.109174 0
5.920000 -0.108308 0
5.925000 -0.107445 0
5.930000 -0.106581 0
5.935000 -0.105712 0
5.940000 -0.104830 0
5.945000 -0.103916 0
5.950000 -0.102943 0
5.955000 -0.101858 0
5.960000 -0.100580 0
5.965000 -0.098980 0
5.970000 -0.096862 0
5.975000 -0.093951 0
5.980000 -0.089871 0
5.985000 -0.084140 0
5.990000 -0.076182 0
5.995000 -0.065359 0
6.000000 -0.051037 0
6.005000 -0.032680 0
6.010000 -0.009980 0
6.015000 0.017015 0
6.020000 0.047777 0
6.025000 0.081222 0
6.030000 0.115713 0
6.035000 0.149146 0
6.040000 0.179145 0
6.045000 0.203330 0
6.050000 0.219624 0
6.055000 0.226551 1
6.060000 0.223451 0
6.065000 0.210586 0
6.070000 0.189100 0
6.075000 0.160852 0
6.080000 0.128130 0
6.085000 0.093265 0
6.090000 0.058074 0
6.095000 0.022976 0
6.100000 -0.014154 0
6.105000 -0.058331 0
6.110000 -0.114701 0
6.115000 -0.181386 0
6.120000 -0.241758 0
6.125000 -0.263753 2
6.130000 -0.208634 0
6.135000 -0.043558 0
6.140000 0.242838 0
6.145000 0.615440 0
6.150000 0.972501 0
6.155000 1.172778 3
6.160000 1.119414 0
6.165000 0.832451 0
6.170000 0.433852 0
6.175000 0.060642 0
6.180000 -0.201923 0
6.185000 -0.328504 0
6.190000 -0.334993 4
6.195000 -0.262574 0
6.200000 -0.161024 0
6.205000 -0.068336 0
6.210000 0.000579 0
6.215000 0.049010 0
6.220000 0.086347 0
6.225000 0.119907 0
6.230000 0.153149 0
6.235000 0.186945 0
6.240000 0.220989 0
6.245000 0.254538 0
6.250000 0.286697 0
6.255000 0.316513 0
6.260000 0.343041 0
6.265000 0.365387 0
6.270000 0.382764 0
6.275000 0.394530 0
6.280000 0.400235 5
6.285000 0.399638 0
6.290000 0.392732 0
6.295000 0.379741 0
6.300000 0.361104 0
6.305000 0.337457 0
6.310000 0.309590 0
6.315000 0.278403 0
6.320000 0.244861 0
6.325000 0.209940 0
6.330000 0.174584 0
6.335000 0.139662 0
6.340000 0.105935 0
6.345000 0.074034 0
6.350000 0.044450 0
6.355000 0.017526 0
6.360000 -0.006537 0
6.365000 -0.027661 0
6.370000 -0.045883 0
6.375000 -0.061324 0
6.380000 -0.074178 0
6.385000 -0.084679 0
6.390000 -0.093092 0
6.395000 -0.099689 0
6.400000 -0.104737 0
6.405000 -0.108491 0
6.410000 -0.111180 0
6.415000 -0.110820 0
6.420000 -0.109948 0
6.425000 -0.109079 0
6.430000 -0.108213 0
6.435000 -0.107348 0
6.440000 -0.106482 0
6.445000 -0.105608 0
6.450000 -0.104713 0
6.455000 -0.103777 0
6.460000 -0.102761 0
6.465000 -0.101601 0
6.470000 -0.100196 0
6.475000 -0.098387 0
6.480000 -0.095944 0
6.485000 -0.092543 0
6.490000 -0.087755 0
6.495000 -0.081048 0
6.500000 -0.071805 0
6.505000 -0.059373 0
6.510000 -0.043147 0
6.515000 -0.022680 0
6.520000 0.002178 0
6.525000 0.031153 0
6.530000 0.063440 0
6.535000 0.097657 0
6.540000 0.131898 0
6.545000 0.163869 0
6.550000 0.191133 0
6.555000 0.211412 0
6.560000 0.222893 0
6.565000 0.224502 1
6.570000 0.216065 0
6.575000 0.198339 0
6.580000 0.172898 0
6.585000 0.141895 0
6.590000 0.107718 0
6.595000 0.072516 0
6.600000 0.037468 0
6.605000 0.001678 0
6.610000 -0.038752 0
6.615000 -0.089591 0
6.620000 -0.153008 0
6.625000 -0.219098 0
6.630000 -0.261361 2
6.635000 -0.242018 0
6.640000 -0.123960 0
6.645000 0.115352 0
6.650000 0.462515 0
6.655000 0.841556 0
6.660000 1.117826 0
6.665000 1.165323 3
6.670000 0.956423 0
6.675000 0.582923 0
6.680000 0.186393 0
6.685000 -0.124565 0
6.690000 -0.303548 0
6.695000 -0.352759 4
6.700000 -0.305140 0
6.705000 -0.209350 0
6.710000 -0.110025 0
6.715000 -0.031319 0
6.720000 0.024236 0
6.725000 0.064940 0
6.730000 0.099430 0
6.735000 0.132624 0
6.740000 0.166226 0
6.745000 0.200278 0
6.750000 0.234166 0
6.755000 0.267041 0
6.760000 0.297971 0
6.765000 0.326003 0
6.770000 0.350220 0
6.775000 0.369788 0
6.780000 0.384003 0
6.785000 0.392330 0
6.790000 0.394440 5
6.795000 0.390228 0
6.800000 0.379819 0
6.805000 0.363561 0
6.810000 0.342009 0
6.815000 0.315889 0
6.820000 0.286055 0
6.825000 0.253449 0
6.830000 0.219043 0
6.835000 0.183797 0
6.840000 0.148614 0
6.845000 0.114304 0
6.850000 0.081555 0
6.855000 0.050919 0
6.860000 0.022802 0
6.865000 -0.002532 0
6.870000 -0.024952 0
6.875000 -0.044447 0
6.880000 -0.061101 0
6.885000 -0.075078 0
6.890000 -0.086594 0
6.895000 -0.095904 0
6.900000 -0.103274 0
6.905000 -0.108977 0
6.910000 -0.113271 0
6.915000 -0.116399 0
6.920000 -0.116083 0
6.925000 -0.115184 0
6.930000 -0.114289 0
6.935000 -0.113398 0
6.940000 -0.112510 0
6.945000 -0.111621 0
6.950000 -0.110728 0
6.955000 -0.109822 0
6.960000 -0.108886 0
6.965000 -0.107892 0
6.970000 -0.106789 0
6.975000 -0.105497 0
6.980000 -0.103888 0
6.985000 -0.101770 0
6.990000 -0.098867 0
6.995000 -0.094807 0
7.000000 -0.089108 0
7.005000 -0.081193 0
7.010000 -0.070423 0
7.015000 -0.056157 0
7.020000 -0.037856 0
7.025000 -0.015203 0
7.030000 0.011760 0
7.035000 0.042509 0
7.040000 0.075963 0
7.045000 0.110478 0
7.050000 0.143943 0
7.055000 0.173971 0
7.060000 0.198169 0
7.065000 0.214451 0
7.070000 0.221336 1
7.075000 0.218166 0
7.080000 0.205214 0
7.085000 0.183640 0
7.090000 0.155321 0
7.095000 0.122559 0
7.100000 0.087694 0
7.105000 0.052532 0
7.110000 0.017443 0
7.115000 -0.019793 0
7.120000 -0.064282 0
7.125000 -0.121095 0
7.130000 -0.187929 0
7.135000 -0.247428 0
7.140000 -0.266879 2
7.145000 -0.207340 0
7.150000 -0.036400 0
7.155000 0.255752 0
7.160000 0.630686 0
7.165000 0.982743 0
7.170000 1.169958 3
7.175000 1.101444 0
7.180000 0.805627 0
7.185000 0.405559 0
7.190000 0.034977 0
7.195000 -0.224317 0
7.200000 -0.348664 0
7.205000 -0.354236 4
7.210000 -0.281714 0
7.215000 -0.180107 0
7.220000 -0.086979 0
7.225000 -0.017373 0
7.230000 0.031669 0
7.235000 0.069368 0
7.240000 0.103079 0
7.245000 0.136373 0
7.250000 0.170207 0
7.255000 0.204326 0
7.260000 0.238019 0
7.265000 0.270411 0
7.270000 0.300570 0
7.275000 0.327561 0
7.280000 0.350498 0
7.285000 0.368593 0
7.290000 0.381194 0
7.295000 0.387831 0
7.300000 0.388238 5
7.305000 0.382375 0
7.310000 0.370424 0
7.315000 0.352787 0
7.320000 0.330057 0
7.325000 0.302986 0
7.330000 0.272443 0
7.335000 0.239370 0
7.340000 0.204727 0
7.345000 0.169455 0
7.350000 0.134426 0
7.355000 0.100417 0
7.360000 0.068080 0
7.365000 0.037934 0
7.370000 0.010351 0
7.375000 -0.014433 0
7.380000 -0.036312 0
7.385000 -0.055292 0
7.390000 -0.071470 0
7.395000 -0.085018 0
7.400000 -0.096157 0
7.405000 -0.105140 0
7.410000 -0.112234 0
7.415000 -0.117704 0
7.420000 -0.121807 0
7.425000 -0.124776 0
7.430000 -0.124401 0
7.435000 -0.123461 0
7.440000 -0.122525 0
7.445000 -0.121593 0
7.450000 -0.120663 0
7.455000 -0.119733 0
7.460000 -0.118799 0
7.465000 -0.117851 0
7.470000 -0.116872 0
7.475000 -0.115834 0
7.480000 -0.114686 0
7.485000 -0.113345 0
7.490000 -0.111685 0
7.495000 -0.109513 0
7.500000 -0.106556 0
7.505000 -0.102444 0
7.510000 -0.096700 0
7.515000 -0.088755 0
7.520000 -0.077977 0
7.525000 -0.063734 0
7.530000 -0.045491 0
7.535000 -0.022928 0
7.540000 0.003924 0
7.545000 0.034567 0
7.550000 0.067958 0
7.555000 0.102498 0
7.560000 0.136124 0
7.565000 0.166489 0
7.570000 0.191221 0
7.575000 0.208228 0
7.580000 0.215990 1
7.585000 0.213783 0
7.590000 0.201789 0
7.595000 0.181074 0
7.600000 0.153427 0
7.605000 0.121093 0
7.610000 0.086402 0
7.615000 0.051244 0
7.620000 0.016239 0
7.625000 -0.020394 0
7.630000 -0.063364 0
7.635000 -0.118062 0
7.640000 -0.183955 0
7.645000 -0.246642 0
7.650000 -0.275962 2
7.655000 -0.233649 0
7.660000 -0.085519 0
7.665000 0.184022 0
7.670000 0.548631 0
7.675000 0.917117 0
7.680000 1.150813 3
7.685000 1.141329 0
7.690000 0.889220 0
7.695000 0.500692 0
7.700000 0.112804 0
7.705000 -0.178799 0
7.710000 -0.337871 0
7.715000 -0.371868 4
7.720000 -0.315794 0
7.725000 -0.217674 0
7.730000 -0.119470 0
7.735000 -0.042579 0
7.740000 0.011820 0
7.745000 0.052106 0
7.750000 0.086555 0
7.755000 0.119814 0
7.760000 0.153486 0
7.765000 0.187600 0
7.770000 0.221560 0
7.775000 0.254541 0
7.780000 0.285638 0
7.785000 0.313925 0
7.790000 0.338505 0
7.795000 0.358559 0
7.800000 0.373389 0
7.805000 0.382459 0
7.810000 0.385424 5
7.815000 0.382153 0
7.820000 0.372735 0
7.825000 0.357480 0
7.830000 0.336894 0
7.835000 0.311655 0
7.840000 0.282575 0
7.845000 0.250556 0
7.850000 0.216543 0
7.855000 0.181475 0
7.860000 0.146250 0
7.865000 0.111681 0
7.870000 0.078475 0
7.875000 0.047206 0
7.880000 0.018315 0
7.885000 -0.007899 0
7.890000 -0.031268 0
7.895000 -0.051742 0
7.900000 -0.069372 0
7.905000 -0.084292 0
7.910000 -0.096694 0
7.915000 -0.106815 0
7.920000 -0.114910 0
7.925000 -0.121244 0
7.930000 -0.126075 0
7.935000 -0.129649 0
7.940000 -0.131676 0
7.945000 -0.130700 0
7.950000 -0.129728 0
7.955000 -0.128760 0
7.960000 -0.127796 0
7.965000 -0.126834 0
7.970000 -0.125871 0
7.975000 -0.124901 0
7.980000 -0.123913 0
7.985000 -0.122886 0
7.990000 -0.121786 0
7.995000 -0.120555 0
8.000000 -0.119098 0
8.005000 -0.117271 0
8.010000 -0.114863 0
8.015000 -0.111575 0
8.020000 -0.107013 0
8.025000 -0.100679 0
8.030000 -0.091988 0
8.035000 -0.080312 0
8.040000 -0.065042 0
8.045000 -0.045694 0
8.050000 -0.022029 0
8.055000 0.005821 0
8.060000 0.037241 0
8.065000 0.071071 0
8.070000 0.105624 0
8.075000 0.138787 0
8.080000 0.168217 0
8.085000 0.191607 0
8.090000 0.206986 0
8.095000 0.212988 1
8.100000 0.209057 0
8.105000 0.195531 0
8.110000 0.173592 0
8.115000 0.145098 0
8.120000 0.112300 0
8.125000 0.077470 0
8.130000 0.042358 0
8.135000 0.007333 0
8.140000 -0.029716 0
8.145000 -0.073704 0
8.150000 -0.129708 0
8.155000 -0.196155 0
8.160000 -0.257323 0
8.165000 -0.282370 2
8.170000 -0.233429 0
8.175000 -0.077569 0
8.180000 0.198747 0
8.185000 0.566374 0
8.190000 0.932120 0
8.195000 1.158541 3
8.200000 1.141174 0
8.205000 0.883847 0
8.210000 0.493882 0
8.215000 0.106995 0
8.220000 -0.182975 0
8.225000 -0.340810 0
8.230000 -0.374232 4
8.235000 -0.318075 0
8.240000 -0.219992 0
8.245000 -0.121664 0
8.250000 -0.044483 0
8.255000 0.010218 0
8.260000 0.050693 0
8.265000 0.085214 0
8.270000 0.118476 0
8.275000 0.152130 0
8.280000 0.186237 0
8.285000 0.220219 0
8.290000 0.253263 0
8.295000 0.284472 0
8.300000 0.312929 0
8.305000 0.337742 0
8.310000 0.358092 0
8.315000 0.373280 0
8.320000 0.382762 0
8.325000 0.386180 5
8.330000 0.383391 0
8.335000 0.374466 0
8.340000 0.359693 0
8.345000 0.339560 0
8.350000 0.314725 0
8.355000 0.285983 0
8.360000 0.254222 0
8.365000 0.220375 0
8.370000 0.185379 0
8.375000 0.150129 0
8.380000 0.115444 0
8.385000 0.082037 0
8.390000 0.050497 0
8.395000 0.021275 0
8.400000 -0.005312 0
8.405000 -0.029081 0
8.410000 -0.049966 0
8.415000 -0.068006 0
8.420000 -0.083322 0
8.425000 -0.096099 0
8.430000 -0.106563 0
8.435000 -0.114968 0
8.440000 -0.121574 0
8.445000 -0.126642 0
8.450000 -0.130415 0
8.455000 -0.133120 0
8.460000 -0.132671 0
8.465000 -0.131689 0
8.470000 -0.130712 0
8.475000 -0.129739 0
8.480000 -0.128768 0
8.485000 -0.127797 0
8.490000 -0.126820 0
8.495000 -0.125829 0
8.500000 -0.124804 0
8.505000 -0.123716 0
8.510000 -0.122513 0
8.515000 -0.121111 0
8.520000 -0.119380 0
8.525000 -0.117126 0
8.530000 -0.114078 0
8.535000 -0.109866 0
8.540000 -0.104023 0
8.545000 -0.095988 0
8.550000 -0.085143 0
8.555000 -0.070871 0
8.560000 -0.052649 0
8.565000 -0.030159 0
8.570000 -0.003423 0
8.575000 0.027092 0
8.580000 0.060389 0
8.585000 0.094939 0
8.590000 0.128751 0
8.595000 0.159544 0
8.600000 0.184988 0
8.605000 0.202998 0
8.610000 0.212009 1
8.615000 0.211206 0
8.620000 0.200646 0
8.625000 0.181246 0
8.630000 0.154660 0
8.635000 0.123027 0
8.640000 0.088645 0
8.645000 0.053500 0
8.650000 0.018541 0
8.655000 -0.017369 0
8.660000 -0.058234 0
8.665000 -0.109610 0
8.670000 -0.173248 0
8.675000 -0.239206 0
8.680000 -0.281835 2
8.685000 -0.264820 0
8.690000 -0.152236 0
8.695000 0.078739 0
8.700000 0.418585 0
8.705000 0.800190 0
8.710000 1.097845 0
8.715000 1.183719 3
8.720000 1.013430 0
8.725000 0.659334 0
8.730000 0.256701 0
8.735000 -0.078765 0
8.740000 -0.289648 0
8.745000 -0.369003 4
8.750000 -0.342613 0
8.755000 -0.255214 0
8.760000 -0.153183 0
8.765000 -0.066718 0
8.770000 -0.004038 0
8.775000 0.040797 0
8.780000 0.076828 0
8.785000 0.110223 0
8.790000 0.143638 0
8.795000 0.177596 0
8.800000 0.211691 0
8.805000 0.245174 0
8.810000 0.277169 0
8.815000 0.306757 0
8.820000 0.333030 0
8.825000 0.355135 0
8.830000 0.372322 0
8.835000 0.383981 0
8.840000 0.389683 5
8.845000 0.389200 0
8.850000 0.382522 0
8.855000 0.369860 0
8.860000 0.351630 0
8.865000 0.328431 0
8.870000 0.301014 0
8.875000 0.270239 0
8.880000 0.237029 0
8.885000 0.202328 0
8.890000 0.167051 0
8.895000 0.132050 0
8.900000 0.098083 0
8.905000 0.065784 0
8.910000 0.035659 0
8.915000 0.008071 0
8.920000 -0.016747 0
8.925000 -0.038691 0
8.930000 -0.057762 0
8.935000 -0.074055 0
8.940000 -0.087734 0
8.945000 -0.099013 0
8.950000 -0.108139 0
8.955000 -0.115373 0
8.960000 -0.120976 0
8.965000 -0.125198 0
8.970000 -0.128274 0
8.975000 -0.129962 0
8.980000 -0.128994 0
8.985000 -0.128030 0
8.990000 -0.127071 0
8.995000 -0.126114 0
9.000000 -0.125159 0
9.005000 -0.124200 0
9.010000 -0.123229 0
9.015000 -0.122234 0
9.020000 -0.121187 0
9.025000 -0.120045 0
9.030000 -0.118737 0
9.035000 -0.117149 0
9.040000 -0.115113 0
9.045000 -0.112384 0
9.050000 -0.108625 0
9.055000 -0.103402 0
9.060000 -0.096182 0
9.065000 -0.086359 0
9.070000 -0.073307 0
9.075000 -0.056457 0
9.080000 -0.035411 0
9.085000 -0.010063 0
9.090000 0.019278 0
9.095000 0.051792 0
9.100000 0.086118 0
9.105000 0.120400 0
9.110000 0.152422 0
9.115000 0.179837 0
9.120000 0.200444 0
9.125000 0.212478 0
9.130000 0.214861 1
9.135000 0.207361 0
9.140000 0.190631 0
9.145000 0.166113 0
9.150000 0.135825 0
9.155000 0.102063 0
9.160000 0.066978 0
9.165000 0.031949 0
9.170000 -0.003381 0
9.175000 -0.042115 0
9.180000 -0.089696 0
9.185000 -0.149892 0
9.190000 -0.217164 0
9.195000 -0.270616 0
9.200000 -0.276139 2
9.205000 -0.196346 0
9.210000 -0.002751 0
9.215000 0.307763 0
9.220000 0.687760 0
9.225000 1.026110 0
9.230000 1.186246 3
9.235000 1.090101 0
9.240000 0.777289 0
9.245000 0.374717 0
9.250000 0.011581 0
9.255000 -0.236776 0
9.260000 -0.350990 4
9.265000 -0.349419 0
9.270000 -0.273492 0
9.275000 -0.171532 0
9.280000 -0.079509 0
9.285000 -0.011083 0
9.290000 0.037257 0
9.295000 0.074677 0
9.300000 0.108317 0
9.305000 0.141598 0
9.310000 0.175419 0
9.315000 0.209514 0
9.320000 0.243176 0
9.325000 0.275540 0
9.330000 0.305682 0
9.335000 0.332679 0
9.340000 0.355655 0
9.345000 0.373828 0
9.350000 0.386552 0
9.355000 0.393357 0
9.360000 0.393973 5
9.365000 0.388352 0
9.370000 0.376665 0
9.375000 0.359299 0
9.380000 0.336831 0
9.385000 0.309996 0
9.390000 0.279649 0
9.395000 0.246714 0
9.400000 0.212143 0
9.405000 0.176868 0
9.410000 0.141760 0
9.415000 0.107597 0
9.420000 0.075037 0
9.425000 0.044606 0
9.430000 0.016689 0
9.435000 -0.008466 0
9.440000 -0.030737 0
9.445000 -0.050119 0
9.450000 -0.066697 0
9.455000 -0.080631 0
9.460000 -0.092134 0
9.465000 -0.101453 0
9.470000 -0.108850 0
9.475000 -0.114588 0
9.480000 -0.118924 0
9.485000 -0.122094 0
9.490000 -0.123852 0
9.495000 -0.122915 0
9.500000 -0.121982 0
9.505000 -0.121052 0
9.510000 -0.120126 0
9.515000 -0.119200 0
9.520000 -0.118271 0
9.525000 -0.117331 0
9.530000 -0.116365 0
9.535000 -0.115349 0
9.540000 -0.114237 0
9.545000 -0.112958 0
9.550000 -0.111399 0
9.555000 -0.109388 0
9.560000 -0.106677 0
9.565000 -0.102927 0
9.570000 -0.097696 0
9.575000 -0.090445 0
9.580000 -0.080560 0
9.585000 -0.067411 0
9.590000 -0.050427 0
9.595000 -0.029214 0
9.600000 -0.003682 0
9.605000 0.025831 0
9.610000 0.058471 0
9.615000 0.092831 0
9.620000 0.127009 0
9.625000 0.158752 0
9.630000 0.185690 0
9.635000 0.205626 0
9.640000 0.216826 0
9.645000 0.218273 1
9.650000 0.209816 0
9.655000 0.192196 0
9.660000 0.166939 0
9.665000 0.136130 0
9.670000 0.102092 0
9.675000 0.066943 0
9.680000 0.031923 0
9.685000 -0.003635 0
9.690000 -0.043249 0
9.695000 -0.092520 0
9.700000 -0.154432 0
9.705000 -0.221378 0
9.710000 -0.269885 2
9.715000 -0.264250 0
9.720000 -0.167326 0
9.725000 0.046809 0
9.730000 0.374565 0
9.735000 0.756831 0
9.740000 1.072175 0
9.745000 1.186961 3
9.750000 1.042410 0
9.755000 0.700547 0
9.760000 0.296892 0
9.765000 -0.046449 0
9.770000 -0.266249 0
9.775000 -0.352582 4
9.780000 -0.330235 0
9.785000 -0.244267 0
9.790000 -0.142234 0
9.795000 -0.055491 0
9.800000 0.007245 0
9.805000 0.051964 0
9.810000 0.087870 0
9.815000 0.121197 0
9.820000 0.154582 0
9.825000 0.188512 0
9.830000 0.222549 0
9.835000 0.255917 0
9.840000 0.287719 0
9.845000 0.317016 0
9.850000 0.342884 0
9.855000 0.364461 0
9.860000 0.380994 0
9.865000 0.391882 0
9.870000 0.396710 5
9.875000 0.395276 0
9.880000 0.387604 0
9.885000 0.373941 0
9.890000 0.354745 0
9.895000 0.330657 0
9.900000 0.302468 0
9.905000 0.271071 0
9.910000 0.237417 0
9.915000 0.202465 0
9.920000 0.167138 0
9.925000 0.132285 0
9.930000 0.098648 0
9.935000 0.066844 0
9.940000 0.037348 0
9.945000 0.010494 0
9.950000 -0.013519 0
9.955000 -0.034620 0
9.960000 -0.052841 0
9.965000 -0.068303 0
9.970000 -0.081193 0
9.975000 -0.091743 0
9.980000 -0.100211 0
9.985000 -0.106865 0
9.990000 -0.111967 0
9.995000 -0.115769 0
10.000000 -0.118499 0
10.005000 -0.118116 0
10.010000 -0.117207 0
10.015000 -0.116302 0
10.020000 -0.115400 0
10.025000 -0.114500 0
10.030000 -0.113599 0
10.035000 -0.112692 0
10.040000 -0.111767 0
10.045000 -0.110805 0
10.050000 -0.109771 0
10.055000 -0.108609 0
10.060000 -0.107226 0
10.065000 -0.105478 0
10.070000 -0.103154 0
10.075000 -0.099955 0
10.080000 -0.095484 0
10.085000 -0.089237 0
10.090000 -0.080625 0
10.095000 -0.069008 0
10.100000 -0.053771 0
10.105000 -0.034424 0
10.110000 -0.010728 0
10.115000 0.017174 0
10.120000 0.048643 0
10.125000 0.082487 0
10.130000 0.116975 0
10.135000 0.149948 0
10.140000 0.179027 0
10.145000 0.201885 0
10.150000 0.216556 0
10.155000 0.221713 1
10.160000 0.216864 0
10.165000 0.202429 0
10.170000 0.179684 0
10.175000 0.150563 0
10.180000 0.117373 0
10.185000 0.082387 0
10.190000 0.047261 0
10.195000 0.012101 0
10.200000 -0.025643 0
10.205000 -0.071235 0
10.210000 -0.129325 0
10.215000 -0.196470 0
10.220000 -0.254020 0
10.225000 -0.268724 2
10.230000 -0.202195 0
10.235000 -0.023416 0
10.240000 0.275139 0
10.245000 0.652050 0
10.250000 0.999941 0
10.255000 1.178795 3
10.260000 1.101401 0
10.265000 0.799344 0
10.270000 0.398141 0
10.275000 0.030869 0
10.280000 -0.222865 0
10.285000 -0.341384 0
10.290000 -0.342311 4
10.295000 -0.267297 0
10.300000 -0.165439 0
10.305000 -0.073437 0
10.310000 -0.005205 0
10.315000 0.042884 0
10.320000 0.080133 0
10.325000 0.113708 0
10.330000 0.146984 0
10.335000 0.180810 0
10.340000 0.214884 0
10.345000 0.248474 0
10.350000 0.280696 0
10.355000 0.310609 0
10.360000 0.337279 0
10.365000 0.359821 0
10.370000 0.377451 0
10.375000 0.389531 0
10.380000 0.395604 5
10.385000 0.395421 0
10.390000 0.388961 0
10.395000 0.376429 0
10.400000 0.358245 0
10.405000 0.335024 0
10.410000 0.307532 0
10.415000 0.276654 0
10.420000 0.243337 0
10.425000 0.208548 0
10.430000 0.173223 0
10.435000 0.138232 0
10.440000 0.104341 0
10.445000 0.072193 0
10.450000 0.042289 0
10.455000 0.014989 0
10.460000 -0.009488 0
10.465000 -0.031048 0
10.470000 -0.049710 0
10.475000 -0.065582 0
10.480000 -0.078845 0
10.485000 -0.089725 0
10.490000 -0.098480 0
10.495000 -0.105376 0
10.500000 -0.110682 0
10.505000 -0.114650 0
10.510000 -0.117515 0
10.515000 -0.117155 0
10.520000 -0.116251 0
10.525000 -0.115351 0
10.530000 -0.114454 0
10.535000 -0.113559 0
10.540000 -0.112664 0
10.545000 -0.111763 0
10.550000 -0.110846 0
10.555000 -0.109894 0
10.560000 -0.108876 0
10.565000 -0.107736 0
10.570000 -0.106386 0
10.575000 -0.104688 0
10.580000 -0.102436 0
10.585000 -0.099340 0
10.590000 -0.095009 0
10.595000 -0.088949 0
10.600000 -0.080571 0
10.605000 -0.069236 0
10.610000 -0.054320 0
10.615000 -0.035314 0
10.620000 -0.011954 0
10.625000 0.015649 0
10.630000 0.046894 0
10.635000 0.080623 0
10.640000 0.115128 0
10.645000 0.148265 0
10.650000 0.177647 0
10.655000 0.200924 0
10.660000 0.216092 0
10.665000 0.221773 1
10.670000 0.217425 0
10.675000 0.203426 0
10.680000 0.181018 0
10.685000 0.152123 0
10.690000 0.119049 0
10.695000 0.084093 0
10.700000 0.048955 0
10.705000 0.013816 0
10.710000 -0.023790 0
10.715000 -0.069097 0
10.720000 -0.126876 0
10.725000 -0.193962 0
10.730000 -0.251973 0
10.735000 -0.267706 2
10.740000 -0.202566 0
10.745000 -0.025184 0
10.750000 0.272387 0
10.755000 0.649054 0
10.760000 0.997287 0
10.765000 1.176380 3
10.770000 1.099287 0
10.775000 0.797652 0
10.780000 0.396553 0
10.785000 0.028851 0
10.790000 -0.225733 0
10.795000 -0.345269 0
10.800000 -0.347095 4
10.805000 -0.272598 0
10.810000 -0.170777 0
10.815000 -0.078481 0
10.820000 -0.009878 0
10.825000 0.038480 0
10.830000 0.075862 0
10.835000 0.109482 0
10.840000 0.142768 0
10.845000 0.176601 0
10.850000 0.210693 0
10.855000 0.244322 0
10.860000 0.276607 0
10.865000 0.306611 0
10.870000 0.333401 0
10.875000 0.356093 0
10.880000 0.373902 0
10.885000 0.386185 0
10.890000 0.392481 0
10.895000 0.392534 5
10.900000 0.386315 0
10.905000 0.374021 0
10.910000 0.356064 0
10.915000 0.333047 0
10.920000 0.305733 0
10.925000 0.274997 0
10.930000 0.241783 0
10.935000 0.207056 0
10.940000 0.171752 0
10.945000 0.136742 0
10.950000 0.102796 0
10.955000 0.070561 0
10.960000 0.040544 0
10.965000 0.013113 0
10.970000 -0.011507 0
10.975000 -0.033217 0
10.980000 -0.052028 0
10.985000 -0.068046 0
10.990000 -0.081445 0
10.995000 -0.092449 0
11.000000 -0.101314 0
11.005000 -0.108307 0
11.010000 -0.113693 0
11.015000 -0.117728 0
11.020000 -0.120645 0
11.025000 -0.120280 0
11.030000 -0.119360 0
11.035000 -0.118445 0
11.040000 -0.117533 0
11.045000 -0.116623 0
11.050000 -0.115713 0
11.055000 -0.114797 0
11.060000 -0.113867 0
11.065000 -0.112905 0
11.070000 -0.111879 0
11.075000 -0.110738 0
11.080000 -0.109396 0
11.085000 -0.107721 0
11.090000 -0.105513 0
11.095000 -0.102493 0
11.100000 -0.098279 0
11.105000 -0.092388 0
11.110000 -0.084240 0
11.115000 -0.073200 0
11.120000 -0.058639 0
11.125000 -0.040035 0
11.130000 -0.017095 0
11.135000 0.010114 0
11.140000 0.041045 0
11.145000 0.074600 0
11.150000 0.109131 0
11.155000 0.142535 0
11.160000 0.172446 0
11.165000 0.196503 0
11.170000 0.212653 0
11.175000 0.219443 1
11.180000 0.216233 0
11.185000 0.203296 0
11.190000 0.181781 0
11.195000 0.153538 0
11.200000 0.120844 0
11.205000 0.086016 0
11.210000 0.050861 0
11.215000 0.015804 0
11.220000 -0.021245 0
11.225000 -0.065251 0
11.230000 -0.121368 0
11.235000 -0.187921 0
11.240000 -0.248706 0
11.245000 -0.272128 2
11.250000 -0.219696 0
11.255000 -0.058407 0
11.260000 0.224054 0
11.265000 0.594881 0
11.270000 0.955368 0
11.275000 1.165288 3
11.280000 1.125488 0
11.285000 0.850108 0
11.290000 0.454620 0
11.295000 0.074975 0
11.300000 -0.200155 0
11.305000 -0.341131 0
11.310000 -0.360030 4
11.315000 -0.294936 0
11.320000 -0.194608 0
11.325000 -0.098887 0
11.330000 -0.025849 0
11.335000 0.025615 0
11.340000 0.064429 0
11.345000 0.098424 0
11.350000 0.131671 0
11.355000 0.165416 0
11.360000 0.199527 0
11.365000 0.233343 0
11.370000 0.266012 0
11.375000 0.296612 0
11.380000 0.324212 0
11.385000 0.347919 0
11.390000 0.366930 0
11.395000 0.380570 0
11.400000 0.388336 0
11.405000 0.389925 5
11.410000 0.385254 0
11.415000 0.374463 0
11.420000 0.357908 0
11.425000 0.336144 0
11.430000 0.309891 0
11.435000 0.279991 0
11.440000 0.247368 0
11.445000 0.212978 0
11.450000 0.177762 0
11.455000 0.142606 0
11.460000 0.108304 0
11.465000 0.075535 0
11.470000 0.044844 0
11.475000 0.016635 0
11.480000 -0.008828 0
11.485000 -0.031408 0
11.490000 -0.051087 0
11.495000 -0.067942 0
11.500000 -0.082127 0
11.505000 -0.093852 0
11.510000 -0.103361 0
11.515000 -0.110918 0
11.520000 -0.116787 0
11.525000 -0.121228 0
11.530000 -0.124478 0
11.535000 -0.126287 0
11.540000 -0.125337 0
11.545000 -0.124392 0
11.550000 -0.123451 0
11.555000 -0.122513 0
11.560000 -0.121575 0
11.565000 -0.120635 0
11.570000 -0.119685 0
11.575000 -0.118710 0
11.580000 -0.117686 0
11.585000 -0.116571 0
11.590000 -0.115293 0
11.595000 -0.113742 0
11.600000 -0.111749 0
11.605000 -0.109069 0
11.610000 -0.105366 0
11.615000 -0.100202 0
11.620000 -0.093037 0
11.625000 -0.083259 0
11.630000 -0.070231 0
11.635000 -0.053377 0
11.640000 -0.032293 0
11.645000 -0.006876 0
11.650000 0.022550 0
11.655000 0.055140 0
11.660000 0.089494 0
11.665000 0.123708 0
11.670000 0.155525 0
11.675000 0.182563 0
11.680000 0.202608 0
11.685000 0.213910 0
11.690000 0.215439 1
11.695000 0.207037 0
11.700000 0.189446 0
11.705000 0.164197 0
11.710000 0.133387 0
11.715000 0.099350 0
11.720000 0.064211 0
11.725000 0.029205 0
11.730000 -0.006367 0
11.735000 -0.046082 0
11.740000 -0.095573 0
11.745000 -0.157712 0
11.750000 -0.224542 0
11.755000 -0.272097 2
11.760000 -0.264304 0
11.765000 -0.163974 0
11.770000 0.054336 0
11.775000 0.385541 0
11.780000 0.767788 0
11.785000 1.077208 0
11.790000 1.180941 3
11.795000 1.026412 0
11.800000 0.680037 0
11.805000 0.276614 0
11.810000 -0.064559 0
11.815000 -0.282365 0
11.820000 -0.367650 4
11.825000 -0.345109 0
11.830000 -0.259254 0
11.835000 -0.157096 0
11.840000 -0.069854 0
11.845000 -0.006492 0
11.850000 0.038706 0
11.855000 0.074864 0
11.860000 0.108284 0
11.865000 0.141698 0
11.870000 0.175658 0
11.875000 0.209762 0
11.880000 0.243260 0
11.885000 0.275267 0
11.890000 0.304861 0
11.895000 0.331127 0
11.900000 0.353205 0
11.905000 0.370340 0
11.910000 0.381921 0
11.915000 0.387519 5
11.920000 0.386908 0
11.925000 0.380084 0
11.930000 0.367262 0
11.935000 0.348868 0
11.940000 0.325512 0
11.945000 0.297954 0
11.950000 0.267063 0
11.955000 0.233771 0
11.960000 0.199027 0
11.965000 0.163751 0
11.970000 0.128797 0
11.975000 0.094920 0
11.980000 0.062753 0
11.985000 0.032795 0
11.990000 0.005403 0
11.995000 -0.019198 0
12.000000 -0.040912 0
12.005000 -0.059747 0
12.010000 -0.075807 0
12.015000 -0.089261 0
12.020000 -0.100328 0
12.025000 -0.109260 0
12.030000 -0.116318 0
12.035000 -0.121765 0
12.040000 -0.125853 0
12.045000 -0.128815 0
12.050000 -0.128422 0
12.055000 -0.127462 0
12.060000 -0.126506 0
12.065000 -0.125554 0
12.070000 -0.124605 0
12.075000 -0.123656 0
12.080000 -0.122703 0
12.085000 -0.121737 0
12.090000 -0.120742 0
12.095000 -0.119692 0
12.100000 -0.118537 0
12.105000 -0.117202 0
12.110000 -0.115564 0
12.115000 -0.113442 0
12.120000 -0.110576 0
12.125000 -0.106613 0
12.130000 -0.101097 0
12.135000 -0.093476 0
12.140000 -0.083133 0
12.145000 -0.069440 0
12.150000 -0.051847 0
12.155000 -0.029997 0
12.160000 -0.003852 0
12.165000 0.026182 0
12.170000 0.059176 0
12.175000 0.093654 0
12.180000 0.127658 0
12.185000 0.158911 0
12.190000 0.185054 0
12.195000 0.203941 0
12.200000 0.213925 0
12.205000 0.214097 1
12.210000 0.204423 0
12.215000 0.185752 0
12.220000 0.159692 0
12.225000 0.128372 0
12.230000 0.094111 0
12.235000 0.058957 0
12.240000 0.023976 0
12.245000 -0.011802 0
12.250000 -0.052236 0
12.255000 -0.102938 0
12.260000 -0.166084 0
12.265000 -0.232393 0
12.270000 -0.276685 2
12.275000 -0.262576 0
12.280000 -0.153604 0
12.285000 0.073919 0
12.290000 0.411645 0
12.295000 0.793447 0
12.300000 1.093368 0
12.305000 1.181915 3
12.310000 1.013335 0
12.315000 0.659818 0
12.320000 0.257177 0
12.325000 -0.078220 0
12.330000 -0.288687 0
12.335000 -0.367360 4
12.340000 -0.340288 0
12.345000 -0.252518 0
12.350000 -0.150558 0
12.355000 -0.064466 0
12.360000 -0.002197 0
12.365000 0.042363 0
12.370000 0.078274 0
12.375000 0.111647 0
12.380000 0.145074 0
12.385000 0.179044 0
12.390000 0.213130 0
12.395000 0.246573 0
12.400000 0.278490 0
12.405000 0.307959 0
12.410000 0.334066 0
12.415000 0.355959 0
12.420000 0.372888 0
12.425000 0.384249 0
12.430000 0.389620 5
12.435000 0.388785 0
12.440000 0.381746 0
12.445000 0.368727 0
12.450000 0.350157 0
12.455000 0.326652 0
12.460000 0.298973 0
12.465000 0.267991 0
12.470000 0.234637 0
12.475000 0.199858 0
12.480000 0.164571 0
12.485000 0.129627 0
12.490000 0.095776 0
12.495000 0.063646 0
12.500000 0.033732 0
12.505000 0.006389 0
12.510000 -0.018163 0
12.515000 -0.039828 0
12.520000 -0.058620 0
12.525000 -0.074641 0
12.530000 -0.088061 0
12.535000 -0.099102 0
12.540000 -0.108011 0
12.545000 -0.115053 0
12.550000 -0.120489 0
12.555000 -0.124570 0
12.560000 -0.127528 0
12.565000 -0.127140 0
12.570000 -0.126186 0
12.575000 -0.125237 0
12.580000 -0.124291 0
12.585000 -0.123348 0
12.590000 -0.122405 0
12.595000 -0.121458 0
12.600000 -0.120498 0
12.605000 -0.119510 0
12.610000 -0.118466 0
12.615000 -0.117317 0
12.620000 -0.115988 0
12.625000 -0.114357 0
12.630000 -0.112243 0
12.635000 -0.109387 0
12.640000 -0.105437 0
12.645000 -0.099937 0
12.650000 -0.092339 0
12.655000 -0.082026 0
12.660000 -0.068371 0
12.665000 -0.050824 0
12.670000 -0.029027 0
12.675000 -0.002937 0
12.680000 0.027047 0
12.685000 0.060003 0
12.690000 0.094465 0
12.695000 0.128487 0
12.700000 0.159798 0
12.705000 0.186043 0
12.710000 0.205073 0
12.715000 0.215233 0
12.720000 0.215600 1
12.725000 0.206123 0
12.730000 0.187630 0
12.735000 0.161711 0
12.740000 0.130484 0
12.745000 0.096263 0
12.750000 0.061106 0
12.755000 0.026116 0
12.760000 -0.009607 0
12.765000 -0.049833 0
12.770000 -0.100166 0
12.775000 -0.162995 0
12.780000 -0.229515 0
12.785000 -0.275077 2
12.790000 -0.263569 0
12.795000 -0.158403 0
12.800000 0.064771 0
12.805000 0.399215 0
12.810000 0.781359 0
12.815000 1.087088 0
12.820000 1.185615 3
12.825000 1.026183 0
12.830000 0.677038 0
12.835000 0.273885 0
12.840000 -0.064723 0
12.845000 -0.278976 0
12.850000 -0.360802 4
12.855000 -0.335714 0
12.860000 -0.248718 0
12.865000 -0.146716 0
12.870000 -0.060305 0
12.875000 0.002215 0
12.880000 0.046881 0
12.885000 0.082806 0
12.890000 0.116159 0
12.895000 0.149563 0
12.900000 0.183510 0
12.905000 0.217573 0
12.910000 0.250989 0
12.915000 0.282870 0
12.920000 0.312286 0
12.925000 0.338324 0
12.930000 0.360124 0
12.935000 0.376936 0
12.940000 0.388157 0
12.945000 0.393366 5
12.950000 0.392350 0
12.955000 0.385117 0
12.960000 0.371899 0
12.965000 0.353134 0
12.970000 0.329444 0
12.975000 0.301601 0
12.980000 0.270483 0
12.985000 0.237027 0
12.990000 0.202185 0
12.995000 0.166876 0
13.000000 0.131951 0
13.005000 0.098157 0
13.010000 0.066120 0
13.015000 0.036329 0
13.020000 0.009132 0
13.025000 -0.015257 0
13.030000 -0.036751 0
13.035000 -0.055368 0
13.040000 -0.071217 0
13.045000 -0.084474 0
13.050000 -0.095363 0
13.055000 -0.104136 0
13.060000 -0.111058 0
13.065000 -0.116392 0
13.070000 -0.120388 0
13.075000 -0.123278 0
13.080000 -0.122898 0
13.085000 -0.121965 0
13.090000 -0.121036 0
13.095000 -0.120111 0
13.100000 -0.119189 0
13.105000 -0.118266 0
13.110000 -0.117339 0
13.115000 -0.116397 0
13.120000 -0.115424 0
13.125000 -0.114390 0
13.130000 -0.113244 0
13.135000 -0.111905 0
13.140000 -0.110245 0
13.145000 -0.108073 0
13.150000 -0.105118 0
13.155000 -0.101011 0
13.160000 -0.095283 0
13.165000 -0.087371 0
13.170000 -0.076649 0
13.175000 -0.062492 0
13.180000 -0.044367 0
13.185000 -0.021951 0
13.190000 0.004739 0
13.195000 0.035230 0
13.200000 0.068511 0
13.205000 0.103027 0
13.210000 0.136759 0
13.215000 0.167392 0
13.220000 0.192573 0
13.225000 0.210205 0
13.230000 0.218731 1
13.235000 0.217368 0
13.240000 0.206217 0
13.245000 0.186259 0
13.250000 0.159206 0
13.255000 0.127246 0
13.260000 0.092699 0
13.265000 0.057519 0
13.270000 0.022523 0
13.275000 -0.013700 0
13.280000 -0.055478 0
13.285000 -0.108349 0
13.290000 -0.173127 0
13.295000 -0.237897 0
13.300000 -0.274881 2
13.305000 -0.246700 0
13.310000 -0.118020 0
13.315000 0.130977 0
13.320000 0.483410 0
13.325000 0.860919 0
13.330000 1.130577 0
13.335000 1.171655 3
13.340000 0.959461 0
13.345000 0.585215 0
13.350000 0.188578 0
13.355000 -0.123367 0
13.360000 -0.304469 0
13.365000 -0.356345 4
13.370000 -0.310939 0
13.375000 -0.216027 0
13.380000 -0.116130 0
13.385000 -0.036113 0
13.390000 0.020643 0
13.395000 0.062042 0
13.400000 0.096776 0
13.405000 0.129977 0
13.410000 0.163524 0
13.415000 0.197550 0
13.420000 0.231489 0
13.425000 0.264519 0
13.430000 0.295725 0
13.435000 0.324170 0
13.440000 0.348943 0
13.445000 0.369207 0
13.450000 0.384249 0
13.455000 0.393515 0
13.460000 0.396648 5
13.465000 0.393507 0
13.470000 0.384176 0
13.475000 0.368962 0
13.480000 0.348375 0
13.485000 0.323099 0
13.490000 0.293957 0
13.495000 0.261861 0
13.500000 0.227767 0
13.505000 0.192629 0
13.510000 0.157351 0
13.515000 0.122756 0
13.520000 0.089555 0
13.525000 0.058324 0
13.530000 0.029503 0
13.535000 0.003389 0
13.540000 -0.019857 0
13.545000 -0.040191 0
13.550000 -0.057670 0
13.555000 -0.072436 0
13.560000 -0.084688 0
13.565000 -0.094667 0
13.570000 -0.102635 0
13.575000 -0.108858 0
13.580000 -0.113597 0
13.585000 -0.117099 0
13.590000 -0.119090 0
13.595000 -0.118176 0
13.600000 -0.117267 0
13.605000 -0.116362 0
13.610000 -0.115459 0
13.615000 -0.114558 0
13.620000 -0.113655 0
13.625000 -0.112742 0
13.630000 -0.111809 0
13.635000 -0.110831 0
13.640000 -0.109771 0
13.645000 -0.108562 0
13.650000 -0.107102 0
13.655000 -0.105231 0
13.660000 -0.102719 0
13.665000 -0.099242 0
13.670000 -0.094378 0
13.675000 -0.087601 0
13.680000 -0.078303 0
13.685000 -0.065845 0
13.690000 -0.049631 0
13.695000 -0.029222 0
13.700000 -0.004461 0
13.705000 0.024395 0
13.710000 0.056578 0
13.715000 0.090758 0
13.720000 0.125090 0
13.725000 0.157340 0
13.730000 0.185117 0
13.735000 0.206158 0
13.740000 0.218629 0
13.745000 0.221391 1
13.750000 0.214170 0
13.755000 0.197602 0
13.760000 0.173139 0
13.765000 0.142834 0
13.770000 0.109023 0
13.775000 0.073894 0
13.780000 0.038833 0
13.785000 0.003411 0
13.790000 -0.035639 0
13.795000 -0.083902 0
13.800000 -0.144901 0
13.805000 -0.212098 0
13.810000 -0.263017 2
13.815000 -0.262190 0
13.820000 -0.171843 0
13.825000 0.035305 0
13.830000 0.357982 0
13.835000 0.739949 0
13.840000 1.061028 0
13.845000 1.185155 3
13.850000 1.049128 0
13.855000 0.711590 0
13.860000 0.307805 0
13.865000 -0.038154 0
13.870000 -0.261095 0
13.875000 -0.350005 4
13.880000 -0.329239 0
13.885000 -0.243868 0
13.890000 -0.141811 0
13.895000 -0.054862 0
13.900000 0.008017 0
13.905000 0.052783 0
13.910000 0.088691 0
13.915000 0.122013 0
13.920000 0.155397 0
13.925000 0.189327 0
13.930000 0.223359 0
13.935000 0.256711 0
13.940000 0.288479 0
13.945000 0.317720 0
13.950000 0.343506 0
13.955000 0.364970 0
13.960000 0.381360 0
13.965000 0.392074 0
13.970000 0.396703 5
13.975000 0.395049 0
13.980000 0.387146 0
13.985000 0.373249 0
13.990000 0.353826 0
13.995000 0.329531 0
14.000000 0.301164 0
14.005000 0.269626 0
14.010000 0.235876 0
14.015000 0.200876 0
14.020000 0.165552 0
14.025000 0.130751 0
14.030000 0.097214 0
14.035000 0.065550 0
14.040000 0.036227 0
14.045000 0.009573 0
14.050000 -0.014224 0
14.055000 -0.035100 0
14.060000 -0.053095 0
14.065000 -0.068337 0
14.070000 -0.081018 0
14.075000 -0.091376 0
14.080000 -0.099670 0
14.085000 -0.106170 0
14.090000 -0.111140 0
14.095000 -0.114829 0
14.100000 -0.116952 0
14.105000 -0.116049 0
14.110000 -0.115150 0
14.115000 -0.114255 0
14.120000 -0.113364 0
14.125000 -0.112474 0
14.130000 -0.111582 0
14.135000 -0.110682 0
14.140000 -0.109763 0
14.145000 -0.108804 0
14.150000 -0.107767 0
14.155000 -0.106591 0
14.160000 -0.105176 0
14.165000 -0.103372 0
14.170000 -0.100952 0
14.175000 -0.097604 0
14.180000 -0.092912 0
14.185000 -0.086356 0
14.190000 -0.077332 0
14.195000 -0.065195 0
14.200000 -0.049339 0
14.205000 -0.029303 0
14.210000 -0.004898 0
14.215000 0.023653 0
14.220000 0.055621 0
14.225000 0.089708 0
14.230000 0.124089 0
14.235000 0.156537 0
14.240000 0.184647 0
14.245000 0.206124 0
14.250000 0.219089 0
14.255000 0.222353 1
14.260000 0.215593 0
14.265000 0.199407 0
14.270000 0.175225 0
14.275000 0.145092 0
14.280000 0.111357 0
14.285000 0.076236 0
14.290000 0.041160 0
14.295000 0.005764 0
14.300000 -0.033168 0
14.305000 -0.081234 0
14.310000 -0.142074 0
14.315000 -0.209298 0
14.320000 -0.260458 2
14.325000 -0.259921 0
14.330000 -0.169653 0
14.335000 0.037808 0
14.340000 0.361051 0
14.345000 0.743055 0
14.350000 1.062408 0
14.355000 1.182576 3
14.360000 1.042322 0
14.365000 0.702463 0
14.370000 0.298772 0
14.375000 -0.045465 0
14.380000 -0.266108 0
14.385000 -0.352889 4
14.390000 -0.330624 0
14.395000 -0.244591 0
14.400000 -0.142577 0
14.405000 -0.056001 0
14.410000 0.006518 0
14.415000 0.051078 0
14.420000 0.086915 0
14.425000 0.120237 0
14.430000 0.153641 0
14.435000 0.187590 0
14.440000 0.221629 0
14.445000 0.254974 0
14.450000 0.286720 0
14.455000 0.315923 0
14.460000 0.341657 0
14.465000 0.363056 0
14.470000 0.379370 0
14.475000 0.390000 0
14.480000 0.394540 5
14.485000 0.392797 0
14.490000 0.384806 0
14.495000 0.370828 0
14.500000 0.351333 0
14.505000 0.326978 0
14.510000 0.298564 0
14.515000 0.266995 0
14.520000 0.233228 0
14.525000 0.198226 0
14.530000 0.162915 0
14.535000 0.128139 0
14.540000 0.094637 0
14.545000 0.063016 0
14.550000 0.033743 0
14.555000 0.007142 0
14.560000 -0.016601 0
14.565000 -0.037421 0
14.570000 -0.055363 0
14.575000 -0.070554 0
14.580000 -0.083189 0
14.585000 -0.093503 0
14.590000 -0.101758 0
14.595000 -0.108223 0
14.600000 -0.113162 0
14.605000 -0.116824 0
14.610000 -0.118925 0
14.615000 -0.118012 0
14.620000 -0.117104 0
14.625000 -0.116199 0
14.630000 -0.115298 0
14.635000 -0.114398 0
14.640000 -0.113496 0
14.645000 -0.112587 0
14.650000 -0.111658 0
14.655000 -0.110688 0
14.660000 -0.109640 0
14.665000 -0.108452 0
14.670000 -0.107024 0
14.675000 -0.105203 0
14.680000 -0.102763 0
14.685000 -0.099389 0
14.690000 -0.094665 0
14.695000 -0.088070 0
14.700000 -0.078997 0
14.705000 -0.066802 0
14.710000 -0.050881 0
14.715000 -0.030774 0
14.720000 -0.006299 0
14.725000 0.022316 0
14.730000 0.054332 0
14.735000 0.088445 0
14.740000 0.122824 0
14.745000 0.155237 0
14.750000 0.183279 0
14.755000 0.204658 0
14.760000 0.217505 0
14.765000 0.220639 1
14.770000 0.213753 0
14.775000 0.197455 0
14.780000 0.173184 0
14.785000 0.142995 0
14.790000 0.109235 0
14.795000 0.074116 0
14.800000 0.039053 0
14.805000 0.003646 0
14.810000 -0.035361 0
14.815000 -0.083578 0
14.820000 -0.144568 0
14.825000 -0.211756 0
14.830000 -0.262475 2
14.835000 -0.260986 0
14.840000 -0.169309 0
14.845000 0.039778 0
14.850000 0.364312 0
14.855000 0.746406 0
14.860000 1.063991 0
14.865000 1.180935 3
14.870000 1.038059 0
14.875000 0.697242 0
14.880000 0.293552 0
14.885000 -0.050734 0
14.890000 -0.271924 0
14.895000 -0.359660 4
14.900000 -0.338375 0
14.905000 -0.252886 0
14.910000 -0.150768 0
14.915000 -0.063637 0
14.920000 -0.000501 0
14.925000 0.044481 0
14.930000 0.080513 0
14.935000 0.113888 0
14.940000 0.147295 0
14.945000 0.181249 0
14.950000 0.215324 0
14.955000 0.248750 0
14.960000 0.280632 0
14.965000 0.310034 0
14.970000 0.336034 0
14.975000 0.357768 0
14.980000 0.374481 0
14.985000 0.385569 0
14.990000 0.390611 5
14.995000 0.389401 0
15.000000 0.381954 0
15.005000 0.368510 0
15.010000 0.349520 0
15.015000 0.325619 0
15.020000 0.297591 0
15.025000 0.266324 0
15.030000 0.232767 0
15.035000 0.197877 0
15.040000 0.162578 0
15.045000 0.127720 0
15.050000 0.094050 0
15.055000 0.062188 0
15.060000 0.032614 0
15.065000 0.005668 0
15.070000 -0.018447 0
15.075000 -0.039652 0
15.080000 -0.057977 0
15.085000 -0.073538 0
15.090000 -0.086520 0
15.095000 -0.097151 0
15.100000 -0.105689 0
15.105000 -0.112401 0
15.110000 -0.117550 0
15.115000 -0.121387 0
15.120000 -0.124141 0
15.125000 -0.123738 0
15.130000 -0.122801 0
15.135000 -0.121868 0
15.140000 -0.120938 0
15.145000 -0.120011 0
15.150000 -0.119083 0
15.155000 -0.118149 0
15.160000 -0.117199 0
15.165000 -0.116213 0
15.170000 -0.115159 0
15.175000 -0.113982 0
15.180000 -0.112591 0
15.185000 -0.110847 0
15.190000 -0.108544 0
15.195000 -0.105392 0
15.200000 -0.100999 0
15.205000 -0.094871 0
15.210000 -0.086426 0
15.215000 -0.075025 0
15.220000 -0.060050 0
15.225000 -0.040999 0
15.230000 -0.017609 0
15.235000 0.010010 0
15.240000 0.041261 0
15.245000 0.074998 0
15.250000 0.109533 0
15.255000 0.142739 0
15.260000 0.172249 0
15.265000 0.195726 0
15.270000 0.211167 0
15.275000 0.217184 1
15.280000 0.213210 0
15.285000 0.199588 0
15.290000 0.177523 0
15.295000 0.148899 0
15.300000 0.115998 0
15.305000 0.081114 0
15.310000 0.045987 0
15.315000 0.010912 0
15.320000 -0.026376 0
15.325000 -0.070951 0
15.330000 -0.127783 0
15.335000 -0.194576 0
15.340000 -0.254313 0
15.345000 -0.274913 2
15.350000 -0.218020 0
15.355000 -0.051348 0
15.360000 0.235967 0
15.365000 0.608757 0
15.370000 0.966166 0
15.375000 1.168327 3
15.380000 1.119861 0
15.385000 0.838958 0
15.390000 0.442244 0
15.395000 0.064186 0
15.400000 -0.208531 0
15.405000 -0.347454 0
15.410000 -0.365081 4
15.415000 -0.299463 0
15.420000 -0.199043 0
15.425000 -0.103312 0
15.430000 -0.030192 0
15.435000 0.021395 0
15.440000 0.060304 0
15.445000 0.094346 0
15.450000 0.127607 0
15.455000 0.161356 0
15.460000 0.195482 0
15.465000 0.229332 0
15.470000 0.262066 0
15.475000 0.292767 0
15.480000 0.320511 0
15.485000 0.344410 0
15.490000 0.363660 0
15.495000 0.377586 0
15.500000 0.385679 0
15.505000 0.387629 5
15.510000 0.383338 0
15.515000 0.372933 0
15.520000 0.356757 0
15.525000 0.335348 0
15.530000 0.309408 0
15.535000 0.279769 0
15.540000 0.247344 0
15.545000 0.213079 0
15.550000 0.177914 0
15.555000 0.142733 0
15.560000 0.108335 0
15.565000 0.075405 0
15.570000 0.044499 0
15.575000 0.016031 0
15.580000 -0.009721 0
15.585000 -0.032610 0
15.590000 -0.052604 0
15.595000 -0.069771 0
15.600000 -0.084255 0
15.605000 -0.096259 0
15.610000 -0.106022 0
15.615000 -0.113804 0
15.620000 -0.119871 0
15.625000 -0.124478 0
15.630000 -0.127866 0
15.635000 -0.129768 0
15.640000 -0.128801 0
15.645000 -0.127839 0
15.650000 -0.126880 0
15.655000 -0.125925 0
15.660000 -0.124972 0
15.665000 -0.124017 0
15.670000 -0.123053 0
15.675000 -0.122068 0
15.680000 -0.121039 0
15.685000 -0.119929 0
15.690000 -0.118673 0
15.695000 -0.117169 0
15.700000 -0.115263 0
15.705000 -0.112727 0
15.710000 -0.109246 0
15.715000 -0.104406 0
15.720000 -0.097690 0
15.725000 -0.088503 0
15.730000 -0.076212 0
15.735000 -0.060222 0
15.740000 -0.040084 0
15.745000 -0.015619 0
15.750000 0.012957 0
15.755000 0.044928 0
15.760000 0.079032 0
15.765000 0.113487 0
15.770000 0.146117 0
15.775000 0.174561 0
15.780000 0.196552 0
15.785000 0.210211 0
15.790000 0.214315 1
15.795000 0.208476 0
15.800000 0.193203 0
15.805000 0.169827 0
15.810000 0.140307 0
15.815000 0.106936 0
15.820000 0.071936 0
15.825000 0.036868 0
15.830000 0.001699 0
15.835000 -0.036265 0
15.840000 -0.082321 0
15.845000 -0.140884 0
15.850000 -0.208070 0
15.855000 -0.264899 0
15.860000 -0.278229 2
15.865000 -0.210163 0
15.870000 -0.030265 0
15.875000 0.268628 0
15.880000 0.645489 0
15.885000 0.994467 0
15.890000 1.177108 3
15.895000 1.106748 0
15.900000 0.811469 0
15.905000 0.411756 0
15.910000 0.039098 0
15.915000 -0.224885 0
15.920000 -0.355343 0
15.925000 -0.366707 4
15.930000 -0.297833 0
15.935000 -0.196815 0
15.940000 -0.101922 0
15.945000 -0.029857 0
15.950000 0.021049 0
15.955000 0.059677 0
15.960000 0.093657 0
15.965000 0.126931 0
15.970000 0.160702 0
15.975000 0.194836 0
15.980000 0.228682 0
15.985000 0.261402 0
15.990000 0.292089 0
15.995000 0.319823 0
16.000000 0.343726 0
16.005000 0.362999 0
16.010000 0.376973 0
16.015000 0.385141 0
16.020000 0.387192 5
16.025000 0.383028 0
16.030000 0.372769 0
16.035000 0.356750 0
16.040000 0.335500 0
16.045000 0.309713 0
16.050000 0.280208 0
16.055000 0.247889 0
16.060000 0.213696 0
16.065000 0.178561 0
16.070000 0.143365 0
16.075000 0.108907 0
16.080000 0.075873 0
16.085000 0.044823 0
16.090000 0.016178 0
16.095000 -0.009777 0
16.100000 -0.032886 0
16.105000 -0.053111 0
16.110000 -0.070510 0
16.115000 -0.085222 0
16.120000 -0.097442 0
16.125000 -0.107405 0
16.130000 -0.115369 0
16.135000 -0.121596 0
16.140000 -0.126342 0
16.145000 -0.129848 0
16.150000 -0.131831 0
16.155000 -0.130854 0
16.160000 -0.129881 0
16.165000 -0.128913 0
16.170000 -0.127948 0
16.175000 -0.126985 0
16.180000 -0.126021 0
16.185000 -0.125049 0
16.190000 -0.124059 0
16.195000 -0.123031 0
16.200000 -0.121928 0
16.205000 -0.120693 0
16.210000 -0.119231 0
16.215000 -0.117398 0
16.220000 -0.114984 0
16.225000 -0.111692 0
16.230000 -0.107128 0
16.235000 -0.100799 0
16.240000 -0.092126 0
16.245000 -0.080482 0
16.250000 -0.065264 0
16.255000 -0.045988 0
16.260000 -0.022410 0
16.265000 0.005345 0
16.270000 0.036679 0
16.275000 0.070457 0
16.280000 0.105016 0
16.285000 0.138270 0
16.290000 0.167895 0
16.295000 0.191595 0
16.300000 0.207390 0
16.305000 0.213889 1
16.310000 0.210496 0
16.315000 0.197498 0
16.320000 0.176025 0
16.325000 0.147887 0
16.330000 0.115305 0
16.335000 0.080550 0
16.340000 0.045420 0
16.345000 0.010425 0
16.350000 -0.026304 0
16.355000 -0.069462 0
16.360000 -0.124299 0
16.365000 -0.190187 0
16.370000 -0.253006 0
16.375000 -0.283332 2
16.380000 -0.243727 0
16.385000 -0.100399 0
16.390000 0.163084 0
16.395000 0.523805 0
16.400000 0.896563 0
16.405000 1.146844 0
16.410000 1.161710 3
16.415000 0.929491 0
16.420000 0.548128 0
16.425000 0.154649 0
16.430000 -0.149951 0
16.435000 -0.323925 0
16.440000 -0.370809 4
16.445000 -0.322917 0
16.450000 -0.227351 0
16.455000 -0.127517 0
16.460000 -0.047507 0
16.465000 0.009440 0
16.470000 0.051063 0
16.475000 0.085936 0
16.480000 0.119192 0
16.485000 0.152757 0
16.490000 0.186813 0
16.495000 0.220824 0
16.500000 0.253995 0
16.505000 0.285434 0
16.510000 0.314220 0
16.515000 0.339457 0
16.520000 0.360314 0
16.525000 0.376075 0
16.530000 0.386178 0
16.535000 0.390243 5
16.540000 0.388102 0
16.545000 0.379804 0
16.550000 0.365613 0
16.555000 0.345999 0
16.560000 0.321604 0
16.565000 0.293211 0
16.570000 0.261700 0
16.575000 0.228006 0
16.580000 0.193065 0
16.585000 0.157782 0
16.590000 0.122985 0
16.595000 0.089399 0
16.600000 0.057627 0
16.605000 0.028137 0
16.610000 0.001257 0
16.615000 -0.022815 0
16.620000 -0.044004 0
16.625000 -0.062339 0
16.630000 -0.077933 0
16.635000 -0.090965 0
16.640000 -0.101660 0
16.645000 -0.110270 0
16.650000 -0.117056 0
16.655000 -0.122278 0
16.660000 -0.126182 0
16.665000 -0.128997 0
16.670000 -0.128582 0
16.675000 -0.127621 0
16.680000 -0.126664 0
16.685000 -0.125711 0
16.690000 -0.124761 0
16.695000 -0.123810 0
16.700000 -0.122855 0
16.705000 -0.121885 0
16.710000 -0.120885 0
16.715000 -0.119824 0
16.720000 -0.118654 0
16.725000 -0.117293 0
16.730000 -0.115616 0
16.735000 -0.113435 0
16.740000 -0.110486 0
16.745000 -0.106408 0
16.750000 -0.100740 0
16.755000 -0.092928 0
16.760000 -0.082357 0
16.765000 -0.068404 0
16.770000 -0.050535 0
16.775000 -0.028411 0
16.780000 -0.002021 0
16.785000 0.028206 0
16.790000 0.061316 0
16.795000 0.095816 0
16.800000 0.129746 0
16.805000 0.160836 0
16.810000 0.186749 0
16.815000 0.205366 0
16.820000 0.215073 1
16.825000 0.214993 0
16.830000 0.205115 0
16.835000 0.186298 0
16.840000 0.160149 0
16.845000 0.128786 0
16.850000 0.094511 0
16.855000 0.059354 0
16.860000 0.024371 0
16.865000 -0.011393 0
16.870000 -0.051752 0
16.875000 -0.102282 0
16.880000 -0.165248 0
16.885000 -0.231701 0
16.890000 -0.276973 2
16.895000 -0.265101 0
16.900000 -0.159727 0
16.905000 0.063333 0
16.910000 0.397442 0
16.915000 0.779655 0
16.920000 1.086826 0
16.925000 1.188499 3
16.930000 1.032518 0
16.935000 0.685328 0
16.940000 0.281940 0
16.945000 -0.058586 0
16.950000 -0.275499 0
16.955000 -0.359930 4
16.960000 -0.336777 0
16.965000 -0.250666 0
16.970000 -0.148572 0
16.975000 -0.061559 0
16.980000 0.001574 0
16.985000 0.046616 0
16.990000 0.082690 0
16.995000 0.116064 0
17.000000 0.149445 0
17.005000 0.183373 0
17.010000 0.217439 0
17.015000 0.250888 0
17.020000 0.282839 0
17.025000 0.312365 0
17.030000 0.338552 0
17.035000 0.360541 0
17.040000 0.377579 0
17.045000 0.389055 0
17.050000 0.394542 5
17.055000 0.393817 0
17.060000 0.386879 0
17.065000 0.373946 0
17.070000 0.355447 0
17.075000 0.331994 0
17.080000 0.304349 0
17.085000 0.273382 0
17.090000 0.240029 0
17.095000 0.205236 0
17.100000 0.169926 0
17.105000 0.134950 0
17.110000 0.101062 0
17.115000 0.068893 0
17.120000 0.038940 0
17.125000 0.011560 0
17.130000 -0.013026 0
17.135000 -0.034723 0
17.140000 -0.053543 0
17.145000 -0.069587 0
17.150000 -0.083029 0
17.155000 -0.094088 0
17.160000 -0.103014 0
17.165000 -0.110072 0
17.170000 -0.115523 0
17.175000 -0.119620 0
17.180000 -0.122593 0
17.185000 -0.122228 0
17.190000 -0.121299 0
17.195000 -0.120374 0
17.200000 -0.119452 0
17.205000 -0.118533 0
17.210000 -0.117614 0
17.215000 -0.116691 0
17.220000 -0.115755 0
17.225000 -0.114789 0
17.230000 -0.113766 0
17.235000 -0.112638 0
17.240000 -0.111327 0
17.245000 -0.109709 0
17.250000 -0.107602 0
17.255000 -0.104744 0
17.260000 -0.100779 0
17.265000 -0.095247 0
17.270000 -0.087596 0
17.275000 -0.077206 0
17.280000 -0.063450 0
17.285000 -0.045781 0
17.290000 -0.023848 0
17.295000 0.002376 0
17.300000 0.032473 0
17.305000 0.065500 0
17.310000 0.099965 0
17.315000 0.133899 0
17.320000 0.165018 0
17.325000 0.190964 0
17.330000 0.209598 0
17.335000 0.219291 1
17.340000 0.219156 0
17.345000 0.209184 0
17.350000 0.190251 0
17.355000 0.163981 0
17.360000 0.132517 0
17.365000 0.098177 0
17.370000 0.062995 0
17.375000 0.027991 0
17.380000 -0.007881 0
17.385000 -0.048571 0
17.390000 -0.099688 0
17.395000 -0.163176 0
17.400000 -0.229282 0
17.405000 -0.272339 2
17.410000 -0.255756 0
17.415000 -0.143250 0
17.420000 0.088204 0
17.425000 0.428768 0
17.430000 0.810093 0
17.435000 1.104799 0
17.440000 1.184761 3
17.445000 1.007027 0
17.450000 0.648161 0
17.455000 0.246665 0
17.460000 -0.082142 0
17.465000 -0.283354 0
17.470000 -0.352789 4
17.475000 -0.318837 0
17.480000 -0.228077 0
17.485000 -0.126811 0
17.490000 -0.043298 0
17.495000 0.016437 0
17.500000 0.059432 0
17.505000 0.094699 0
17.510000 0.127932 0
17.515000 0.161381 0
17.520000 0.195352 0
17.525000 0.229337 0
17.530000 0.262535 0
17.535000 0.294040 0
17.540000 0.322912 0
17.545000 0.348234 0
17.550000 0.369154 0
17.555000 0.384939 0
17.560000 0.395011 0
17.565000 0.398983 5
17.570000 0.396683 0
17.575000 0.388165 0
17.580000 0.373707 0
17.585000 0.353793 0
17.590000 0.329088 0
17.595000 0.300399 0
17.600000 0.268628 0
17.605000 0.234731 0
17.610000 0.199665 0
17.615000 0.164345 0
17.620000 0.129606 0
17.625000 0.096176 0
17.630000 0.064650 0
17.635000 0.035487 0
17.640000 0.009001 0
17.645000 -0.014629 0
17.650000 -0.035344 0
17.655000 -0.053191 0
17.660000 -0.068302 0
17.665000 -0.080869 0
17.670000 -0.091131 0
17.675000 -0.099346 0
17.680000 -0.105783 0
17.685000 -0.110704 0
17.690000 -0.114357 0
17.695000 -0.116457 0
17.700000 -0.115557 0
17.705000 -0.114660 0
17.710000 -0.113768 0
17.715000 -0.112879 0
17.720000 -0.111991 0
17.725000 -0.111102 0
17.730000 -0.110204 0
17.735000 -0.109287 0
17.740000 -0.108330 0
17.745000 -0.107295 0
17.750000 -0.106121 0
17.755000 -0.104710 0
17.760000 -0.102909 0
17.765000 -0.100498 0
17.770000 -0.097164 0
17.775000 -0.092495 0
17.780000 -0.085976 0
17.785000 -0.077007 0
17.790000 -0.064947 0
17.795000 -0.049190 0
17.800000 -0.029273 0
17.805000 -0.005002 0
17.810000 0.023420 0
17.815000 0.055281 0
17.820000 0.089314 0
17.825000 0.123720 0
17.830000 0.156297 0
17.835000 0.184657 0
17.840000 0.206503 0
17.845000 0.219941 0
17.850000 0.223747 1
17.855000 0.217550 0
17.860000 0.201894 0
17.865000 0.178154 0
17.870000 0.148336 0
17.875000 0.114768 0
17.880000 0.079679 0
17.885000 0.044579 0
17.890000 0.009279 0
17.895000 -0.029183 0
17.900000 -0.076285 0
17.905000 -0.136086 0
17.910000 -0.203410 0
17.915000 -0.257378 0
17.920000 -0.263367 2
17.925000 -0.183239 0
17.930000 0.011977 0
17.935000 0.324875 0
17.940000 0.705485 0
17.945000 1.038620 0
17.950000 1.185884 3
17.955000 1.073362 0
17.960000 0.749008 0
17.965000 0.345403 0
17.970000 -0.008989 0
17.975000 -0.243257 0
17.980000 -0.342543 4
17.985000 -0.328998 0
17.990000 -0.246818 0
17.995000 -0.144655 0
18.000000 -0.056093 0
18.005000 0.008350 0
18.010000 0.054013 0
18.015000 0.090244 0
18.020000 0.123601 0
18.025000 0.156936 0
18.030000 0.190824 0
18.035000 0.224852 0
18.040000 0.258246 0
18.045000 0.290101 0
18.050000 0.319471 0
18.055000 0.345421 0
18.060000 0.367077 0
18.065000 0.383677 0
18.070000 0.394609 0
18.075000 0.399453 5
18.080000 0.398005 0
18.085000 0.390286 0
18.090000 0.376549 0
18.095000 0.357258 0
18.100000 0.333063 0
18.105000 0.304765 0
18.110000 0.273269 0
18.115000 0.239535 0
18.120000 0.204533 0
18.125000 0.169192 0
18.130000 0.134365 0
18.135000 0.100796 0
18.140000 0.069101 0
18.145000 0.039751 0
18.150000 0.013073 0
18.155000 -0.010741 0
18.160000 -0.031626 0
18.165000 -0.049625 0
18.170000 -0.064866 0
18.175000 -0.077543 0
18.180000 -0.087892 0
18.185000 -0.096177 0
18.190000 -0.102667 0
18.195000 -0.107629 0
18.200000 -0.111312 0
18.205000 -0.113434 0
18.210000 -0.112548 0
18.215000 -0.111667 0
18.220000 -0.110790 0
18.225000 -0.109915 0
18.230000 -0.109042 0
18.235000 -0.108167 0
18.240000 -0.107284 0
18.245000 -0.106381 0
18.250000 -0.105435 0
18.255000 -0.104410 0
18.260000 -0.103241 0
18.265000 -0.101828 0
18.270000 -0.100012 0
18.275000 -0.097566 0
18.280000 -0.094168 0
18.285000 -0.089394 0
18.290000 -0.082717 0
18.295000 -0.073525 0
18.300000 -0.061170 0
18.305000 -0.045049 0
18.310000 -0.024713 0
18.315000 -0.000001 0
18.320000 0.028833 0
18.325000 0.061009 0
18.330000 0.095181 0
18.335000 0.129476 0
18.340000 0.161633 0
18.345000 0.189232 0
18.350000 0.209991 0
18.355000 0.222078 0
18.360000 0.224372 1
18.365000 0.216637 0
18.370000 0.199562 0
18.375000 0.174656 0
18.380000 0.144022 0
18.385000 0.110028 0
18.390000 0.074852 0
18.395000 0.039791 0
18.400000 0.004199 0
18.405000 -0.035503 0
18.410000 -0.085026 0
18.415000 -0.147281 0
18.420000 -0.214085 0
18.425000 -0.260879 2
18.430000 -0.250886 0
18.435000 -0.146505 0
18.440000 0.077324 0
18.445000 0.413339 0
18.450000 0.795062 0
18.455000 1.094008 0
18.460000 1.178140 3
18.465000 1.002441 0
18.470000 0.643897 0
18.475000 0.242583 0
18.480000 -0.085009 0
18.485000 -0.283901 0
18.490000 -0.350525 4
18.495000 -0.314202 0
18.500000 -0.222361 0
18.505000 -0.121461 0
18.510000 -0.039128 0
18.515000 0.019447 0
18.520000 0.061735 0
18.525000 0.096734 0
18.530000 0.129942 0
18.535000 0.163442 0
18.540000 0.197444 0
18.545000 0.231397 0
18.550000 0.264474 0
18.555000 0.295752 0
18.560000 0.324280 0
18.565000 0.349132 0
18.570000 0.369460 0
18.575000 0.384536 0
18.580000 0.393800 0
18.585000 0.396887 5
18.590000 0.393657 0
18.595000 0.384199 0
18.600000 0.368826 0
18.605000 0.348063 0
18.610000 0.322607 0
18.615000 0.293297 0
18.620000 0.261061 0
18.625000 0.226869 0
18.630000 0.191686 0
18.635000 0.156424 0
18.640000 0.121910 0
18.645000 0.088853 0
18.650000 0.057826 0
18.655000 0.029260 0
18.660000 0.003442 0
18.665000 -0.019478 0
18.670000 -0.039468 0
18.675000 -0.056599 0
18.680000 -0.071023 0
18.685000 -0.082948 0
18.690000 -0.092622 0
18.695000 -0.100313 0
18.700000 -0.106291 0
18.705000 -0.110818 0
18.710000 -0.114140 0
18.715000 -0.116008 0
18.720000 -0.115109 0
18.725000 -0.114215 0
18.730000 -0.113325 0
18.735000 -0.112437 0
18.740000 -0.111550 0
18.745000 -0.110659 0
18.750000 -0.109757 0
18.755000 -0.108829 0
18.760000 -0.107849 0
18.765000 -0.106772 0
18.770000 -0.105523 0
18.775000 -0.103984 0
18.780000 -0.101977 0
18.785000 -0.099243 0
18.790000 -0.095426 0
18.795000 -0.090068 0
18.800000 -0.082607 0
18.805000 -0.072412 0
18.810000 -0.058837 0
18.815000 -0.041316 0
18.820000 -0.019481 0
18.825000 0.006702 0
18.830000 0.036807 0
18.835000 0.069862 0
18.840000 0.104325 0
18.845000 0.138164 0
18.850000 0.169029 0
18.855000 0.194505 0
18.860000 0.212429 0
18.865000 0.221186 1
18.870000 0.219949 0
18.875000 0.208811 0
18.880000 0.188771 0
18.885000 0.161583 0
18.890000 0.129493 0
18.895000 0.094867 0
18.900000 0.059672 0
18.905000 0.024646 0
18.910000 -0.011843 0
18.915000 -0.054422 0
18.920000 -0.108619 0
18.925000 -0.174297 0
18.930000 -0.237458 0
18.935000 -0.267993 2
18.940000 -0.227259 0
18.945000 -0.080502 0
18.950000 0.188346 0
18.955000 0.552910 0
18.960000 0.920925 0
18.965000 1.152112 3
18.970000 1.137842 0
18.975000 0.880210 0
18.980000 0.489410 0
18.985000 0.104453 0
18.990000 -0.180063 0
18.995000 -0.330221 0
19.000000 -0.355901 4
19.005000 -0.294349 0
19.010000 -0.194752 0
19.015000 -0.098279 0
19.020000 -0.024279 0
19.025000 0.027777 0
19.030000 0.066815 0
19.035000 0.100848 0
19.040000 0.134077 0
19.045000 0.167800 0
19.050000 0.201897 0
19.055000 0.235702 0
19.060000 0.268351 0
19.065000 0.298914 0
19.070000 0.326447 0
19.075000 0.350050 0
19.080000 0.368912 0
19.085000 0.382355 0
19.090000 0.389878 0
19.095000 0.391181 5
19.100000 0.386190 0
19.105000 0.375058 0
19.110000 0.358157 0
19.115000 0.336060 0
19.120000 0.309503 0
19.125000 0.279346 0
19.130000 0.246528 0
19.135000 0.212015 0
19.140000 0.176757 0
19.145000 0.141640 0
19.150000 0.107458 0
19.155000 0.074884 0
19.160000 0.044452 0
19.165000 0.016555 0
19.170000 -0.008556 0
19.175000 -0.030761 0
19.180000 -0.050053 0
19.185000 -0.066525 0
19.190000 -0.080340 0
19.195000 -0.091718 0
19.200000 -0.100909 0
19.205000 -0.108181 0
19.210000 -0.113803 0
19.215000 -0.118031 0
19.220000 -0.121104 0
19.225000 -0.120761 0
19.230000 -0.119839 0
19.235000 -0.118921 0
19.240000 -0.118007 0
19.245000 -0.117095 0
19.250000 -0.116183 0
19.255000 -0.115268 0
19.260000 -0.114339 0
19.265000 -0.113381 0
19.270000 -0.112365 0
19.275000 -0.111242 0
19.280000 -0.109933 0
19.285000 -0.108311 0
19.290000 -0.106187 0
19.295000 -0.103292 0
19.300000 -0.099258 0
19.305000 -0.093612 0
19.310000 -0.085784 0
19.315000 -0.075142 0
19.320000 -0.061048 0
19.325000 -0.042959 0
19.330000 -0.020546 0
19.335000 0.006174 0
19.340000 0.036715 0
19.345000 0.070043 0
19.350000 0.104564 0
19.355000 0.138214 0
19.360000 0.168637 0
19.365000 0.193447 0
19.370000 0.210538 0
19.375000 0.218373 1
19.380000 0.216218 0
19.385000 0.204249 0
19.390000 0.183534 0
19.395000 0.155869 0
19.400000 0.123511 0
19.405000 0.088799 0
19.410000 0.053630 0
19.415000 0.018608 0
19.420000 -0.018087 0
19.425000 -0.061218 0
19.430000 -0.116167 0
19.435000 -0.182209 0
19.440000 -0.244532 0
19.445000 -0.272534 2
19.450000 -0.227718 0
19.455000 -0.076036 0
19.460000 0.197297 0
19.465000 0.563949 0
19.470000 0.929971 0
19.475000 1.155502 3
19.480000 1.135316 0
19.485000 0.874459 0
19.490000 0.483030 0
19.495000 0.098240 0
19.500000 -0.186689 0
19.505000 -0.338125 0
19.510000 -0.365518 4
19.515000 -0.305334 0
19.520000 -0.206111 0
19.525000 -0.109006 0
19.530000 -0.033938 0
19.535000 0.019021 0
19.540000 0.058560 0
19.545000 0.092768 0
19.550000 0.126015 0
19.555000 0.159723 0
19.560000 0.193838 0
19.565000 0.227726 0
19.570000 0.260547 0
19.575000 0.291383 0
19.580000 0.319304 0
19.585000 0.343412 0
19.590000 0.362896 0
19.595000 0.377069 0
19.600000 0.385412 0
19.605000 0.387601 5
19.610000 0.383534 0
19.615000 0.373328 0
19.620000 0.357320 0
19.625000 0.336046 0
19.630000 0.310209 0
19.635000 0.280641 0
19.640000 0.248259 0
19.645000 0.214016 0
19.650000 0.178855 0
19.655000 0.143667 0
19.660000 0.109256 0
19.665000 0.076313 0
19.670000 0.045397 0
19.675000 0.016924 0
19.680000 -0.008825 0
19.685000 -0.031703 0
19.690000 -0.051679 0
19.695000 -0.068821 0
19.700000 -0.083276 0
19.705000 -0.095246 0
19.710000 -0.104975 0
19.715000 -0.112724 0
19.720000 -0.118757 0
19.725000 -0.123334 0
19.730000 -0.126695 0
19.735000 -0.128578 0
19.740000 -0.127617 0
19.745000 -0.126661 0
19.750000 -0.125708 0
19.755000 -0.124759 0
19.760000 -0.123811 0
19.765000 -0.122861 0
19.770000 -0.121902 0
19.775000 -0.120921 0
19.780000 -0.119894 0
19.785000 -0.118783 0
19.790000 -0.117520 0
19.795000 -0.116001 0
19.800000 -0.114064 0
19.805000 -0.111477 0
19.810000 -0.107916 0
19.815000 -0.102956 0
19.820000 -0.096071 0
19.825000 -0.086656 0
19.830000 -0.074075 0
19.835000 -0.057739 0
19.840000 -0.037215 0
19.845000 -0.012353 0
19.850000 0.016585 0
19.855000 0.048830 0
19.860000 0.083056 0
19.865000 0.117425 0
19.870000 0.149718 0
19.875000 0.177556 0
19.880000 0.198690 0
19.885000 0.211292 0
19.890000 0.214222 1
19.895000 0.207195 0
19.900000 0.190831 0
19.905000 0.166558 0
19.910000 0.136407 0
19.915000 0.102699 0
19.920000 0.067621 0
19.925000 0.032588 0
19.930000 -0.002743 0
19.935000 -0.041508 0
19.940000 -0.089220 0
19.945000 -0.149627 0
19.950000 -0.216875 0
19.955000 -0.269415 0
19.960000 -0.272435 2
19.965000 -0.188183 0
19.970000 0.011474 0
19.975000 0.327747 0
19.980000 0.708947 0
19.985000 1.039104 0
19.990000 1.181204 3
19.995000 1.065964 0
20.000000 0.742138 0
20.005000 0.338612 0
20.010000 -0.018955 0
20.015000 -0.259671 0
20.020000 -0.366995 4
20.025000 -0.360674 0
20.030000 -0.282535 0
20.035000 -0.180344 0
20.040000 -0.088977 0
20.045000 -0.021215 0
20.050000 0.026778 0
20.055000 0.064109 0
20.060000 0.097778 0
20.065000 0.131119 0
20.070000 0.164998 0
20.075000 0.199146 0
20.080000 0.232860 0
20.085000 0.265284 0
20.090000 0.295501 0
20.095000 0.322598 0
20.100000 0.345704 0
20.105000 0.364042 0
20.110000 0.376969 0
20.115000 0.384014 0
20.120000 0.384903 5
20.125000 0.379579 0
20.130000 0.368205 0
20.135000 0.351154 0
20.140000 0.328990 0
20.145000 0.302434 0
20.150000 0.272327 0
20.155000 0.239583 0
20.160000 0.205146 0
20.165000 0.169941 0
20.170000 0.134838 0
20.175000 0.100615 0
20.180000 0.067938 0
20.185000 0.037338 0
20.190000 0.009211 0
20.195000 -0.016185 0
20.200000 -0.038717 0
20.205000 -0.058368 0
20.210000 -0.075213 0
20.215000 -0.089404 0
20.220000 -0.101146 0
20.225000 -0.110682 0
20.230000 -0.118269 0
20.235000 -0.124170 0
20.240000 -0.128640 0
20.245000 -0.131916 0
20.250000 -0.133736 0
20.255000 -0.132749 0
20.260000 -0.131767 0
20.265000 -0.130789 0
20.270000 -0.129814 0
20.275000 -0.128841 0
20.280000 -0.127866 0
20.285000 -0.126882 0
20.290000 -0.125876 0
20.295000 -0.124825 0
20.300000 -0.123690 0
20.305000 -0.122407 0
20.310000 -0.120872 0
20.315000 -0.118927 0
20.320000 -0.116346 0
20.325000 -0.112813 0
20.330000 -0.107911 0
20.335000 -0.101127 0
20.340000 -0.091867 0
20.345000 -0.079501 0
20.350000 -0.063442 0
20.355000 -0.043246 0
20.360000 -0.018738 0
20.365000 0.009864 0
20.370000 0.041848 0
20.375000 0.075962 0
20.380000 0.110437 0
20.385000 0.143114 0
20.390000 0.171650 0
20.395000 0.193788 0
20.400000 0.207654 0
20.405000 0.212017 1
20.410000 0.206469 0
20.415000 0.191491 0
20.420000 0.168382 0
20.425000 0.139071 0
20.430000 0.105827 0
20.435000 0.070872 0
20.440000 0.035805 0
20.445000 0.000697 0
20.450000 -0.036971 0
20.455000 -0.082366 0
20.460000 -0.140111 0
20.465000 -0.207115 0
20.470000 -0.265610 0
20.475000 -0.283423 2
20.480000 -0.222847 0
20.485000 -0.052618 0
20.490000 0.237059 0
20.495000 0.610468 0
20.500000 0.967737 0
20.505000 1.171245 3
20.510000 1.126161 0
20.515000 0.848747 0
20.520000 0.453127 0
20.525000 0.072789 0
20.530000 -0.204735 0
20.535000 -0.349475 0
20.540000 -0.372386 4
20.545000 -0.310126 0
20.550000 -0.210492 0
20.555000 -0.113569 0
20.560000 -0.038600 0
20.565000 0.014445 0
20.570000 0.054111 0
20.575000 0.088390 0
20.580000 0.121650 0
20.585000 0.155351 0
20.590000 0.189472 0
20.595000 0.223407 0
20.600000 0.256338 0
20.605000 0.287365 0
20.610000 0.315575 0
20.615000 0.340081 0
20.620000 0.360076 0
20.625000 0.374872 0
20.630000 0.383938 0
20.635000 0.386934 5
20.640000 0.383729 0
20.645000 0.374410 0
20.650000 0.359278 0
20.655000 0.338830 0
20.660000 0.313733 0
20.665000 0.284785 0
20.670000 0.252876 0
20.675000 0.218938 0
20.680000 0.183904 0
20.685000 0.148662 0
20.690000 0.114024 0
20.695000 0.080696 0
20.700000 0.049257 0
20.705000 0.020151 0
20.710000 -0.006312 0
20.715000 -0.029956 0
20.720000 -0.050721 0
20.725000 -0.068648 0
20.730000 -0.083861 0
20.735000 -0.096546 0
20.740000 -0.106931 0
20.745000 -0.115269 0
20.750000 -0.121821 0
20.755000 -0.126843 0
20.760000 -0.130581 0
20.765000 -0.133258 0
20.770000 -0.132804 0
20.775000 -0.131822 0
20.780000 -0.130844 0
20.785000 -0.129870 0
20.790000 -0.128899 0
20.795000 -0.127927 0
20.800000 -0.126949 0
20.805000 -0.125957 0
20.810000 -0.124931 0
20.815000 -0.123841 0
20.820000 -0.122636 0
20.825000 -0.121230 0
20.830000 -0.119494 0
20.835000 -0.117236 0
20.840000 -0.114181 0
20.845000 -0.109963 0
20.850000 -0.104114 0
20.855000 -0.096076 0
20.860000 -0.085232 0
20.865000 -0.070966 0
20.870000 -0.052757 0
20.875000 -0.030289 0
20.880000 -0.003578 0
20.885000 0.026910 0
20.890000 0.060187 0
20.895000 0.094733 0
20.900000 0.128567 0
20.905000 0.159416 0
20.910000 0.184959 0
20.915000 0.203108 0
20.920000 0.212293 1
20.925000 0.211688 0
20.930000 0.201328 0
20.935000 0.182114 0
20.940000 0.155678 0
20.945000 0.124146 0
20.950000 0.089809 0
20.955000 0.054665 0
20.960000 0.019703 0
20.965000 -0.016130 0
20.970000 -0.056736 0
20.975000 -0.107667 0
20.980000 -0.170939 0
20.985000 -0.237185 0
20.990000 -0.281397 2
20.995000 -0.267592 0
21.000000 -0.159702 0
21.005000 0.065909 0
21.010000 0.401733 0
21.015000 0.783865 0
21.020000 1.088923 0
21.025000 1.187485 3
21.030000 1.029297 0
21.035000 0.681431 0
21.040000 0.278031 0
21.045000 -0.062802 0
21.050000 -0.280635 0
21.055000 -0.366400 4
21.060000 -0.344518 0
21.065000 -0.259094 0
21.070000 -0.156892 0
21.075000 -0.069230 0
21.080000 -0.005373 0
21.085000 0.040166 0
21.090000 0.076469 0
21.095000 0.109905 0
21.100000 0.143286 0
21.105000 0.177213 0
21.110000 0.211311 0
21.115000 0.244842 0
21.120000 0.276934 0
21.125000 0.306672 0
21.130000 0.333145 0
21.135000 0.355496 0
21.140000 0.372968 0
21.145000 0.384943 0
21.150000 0.390981 5
21.155000 0.390844 0
21.160000 0.384508 0
21.165000 0.372172 0
21.170000 0.354239 0
21.175000 0.331300 0
21.180000 0.304098 0
21.185000 0.273486 0
21.190000 0.240386 0
21.195000 0.205739 0
21.200000 0.170465 0
21.205000 0.135419 0
21.210000 0.101365 0
21.215000 0.068945 0
21.220000 0.038671 0
21.225000 0.010917 0
21.230000 -0.014079 0
21.235000 -0.036203 0
21.240000 -0.055453 0
21.245000 -0.071918 0
21.250000 -0.085757 0
21.255000 -0.097183 0
21.260000 -0.106441 0
21.265000 -0.113790 0
21.270000 -0.119493 0
21.275000 -0.123800 0
21.280000 -0.126948 0
21.285000 -0.128687 0
21.290000 -0.127725 0
21.295000 -0.126768 0
21.300000 -0.125815 0
21.305000 -0.124865 0
21.310000 -0.123916 0
21.315000 -0.122963 0
21.320000 -0.122001 0
21.325000 -0.121014 0
21.330000 -0.119978 0
21.335000 -0.118850 0
21.340000 -0.117562 0
21.345000 -0.116004 0
21.350000 -0.114011 0
21.355000 -0.111343 0
21.360000 -0.107671 0
21.365000 -0.102568 0
21.370000 -0.095506 0
21.375000 -0.085885 0
21.380000 -0.073076 0
21.385000 -0.056505 0
21.390000 -0.035758 0
21.395000 -0.010706 0
21.400000 0.018375 0
21.405000 0.050702 0
21.410000 0.084952 0
21.415000 0.119299 0
21.420000 0.151548 0
21.425000 0.179353 0
21.430000 0.200495 0
21.435000 0.213169 0
21.440000 0.216244 1
21.445000 0.209426 0
21.450000 0.193306 0
21.455000 0.169275 0
21.460000 0.139319 0
21.465000 0.105724 0
21.470000 0.070668 0
21.475000 0.035613 0
21.480000 0.000367 0
21.485000 -0.037957 0
21.490000 -0.084712 0
21.495000 -0.144017 0
21.500000 -0.211287 0
21.505000 -0.266811 0
21.510000 -0.277191 2
21.515000 -0.204893 0
21.520000 -0.020321 0
21.525000 0.282318 0
21.530000 0.660232 0
21.535000 1.006589 0
21.540000 1.184107 3
21.545000 1.107182 0
21.550000 0.806551 0
21.555000 0.405702 0
21.560000 0.036493 0
21.565000 -0.221147 0
21.570000 -0.344442 0
21.575000 -0.349682 4
21.580000 -0.277238 0
21.585000 -0.175685 0
21.590000 -0.082363 0
21.595000 -0.012409 0
21.600000 0.036930 0
21.605000 0.074773 0
21.610000 0.108501 0
21.615000 0.141750 0
21.620000 0.175529 0
21.625000 0.209615 0
21.630000 0.243314 0
21.635000 0.275765 0
21.640000 0.306045 0
21.645000 0.333227 0
21.650000 0.356430 0
21.655000 0.374864 0
21.660000 0.387873 0
21.665000 0.394976 0
21.670000 0.395894 5
21.675000 0.390565 0
21.680000 0.379151 0
21.685000 0.362029 0
21.690000 0.339770 0
21.695000 0.313104 0
21.700000 0.282881 0
21.705000 0.250028 0
21.710000 0.215497 0
21.715000 0.180224 0
21.720000 0.145084 0
21.725000 0.110862 0
21.730000 0.078221 0
21.735000 0.047694 0
21.740000 0.019672 0
21.745000 -0.005592 0
21.750000 -0.027972 0
21.755000 -0.047458 0
21.760000 -0.064133 0
21.765000 -0.078156 0
21.770000 -0.089738 0
21.775000 -0.099127 0
21.780000 -0.106584 0
21.785000 -0.112374 0
21.790000 -0.116754 0
21.795000 -0.119960 0
21.800000 -0.121746 0
21.805000 -0.120819 0
21.810000 -0.119896 0
21.815000 -0.118978 0
21.820000 -0.118062 0
21.825000 -0.117146 0
21.830000 -0.116228 0
21.835000 -0.115298 0
21.840000 -0.114343 0
21.845000 -0.113338 0
21.850000 -0.112238 0
21.855000 -0.110972 0
21.860000 -0.109427 0
21.865000 -0.107432 0
21.870000 -0.104739 0
21.875000 -0.101010 0
21.880000 -0.095803 0
21.885000 -0.088577 0
21.890000 -0.078720 0
21.895000 -0.065598 0
21.900000 -0.048639 0
21.905000 -0.027449 0
21.910000 -0.001935 0
21.915000 0.027566 0
21.920000 0.060197 0
21.925000 0.094550 0
21.930000 0.128716 0
21.935000 0.160440 0
21.940000 0.187347 0
21.945000 0.207236 0
21.950000 0.218373 0
21.955000 0.219744 1
21.960000 0.211203 0
21.965000 0.193500 0
21.970000 0.168170 0
21.975000 0.137306 0
21.980000 0.103235 0
21.985000 0.068075 0
21.990000 0.033049 0
21.995000 -0.002543 0
22.000000 -0.042274 0
22.005000 -0.091760 0
22.010000 -0.153880 0
22.015000 -0.220753 0
22.020000 -0.268566 2
22.025000 -0.261401 0
22.030000 -0.162140 0
22.035000 0.054773 0
22.040000 0.384765 0
22.045000 0.767032 0
22.050000 1.078738 0
22.055000 1.186845 3
22.060000 1.035828 0
22.065000 0.690198 0
22.070000 0.286851 0
22.075000 -0.053029 0
22.080000 -0.267968 0
22.085000 -0.349533 4
22.090000 -0.323660 0
22.095000 -0.236106 0
22.100000 -0.134285 0
22.105000 -0.048676 0
22.110000 0.012927 0
22.115000 0.056950 0
22.120000 0.092576 0
22.125000 0.125849 0
22.130000 0.159253 0
22.135000 0.193195 0
22.140000 0.227202 0
22.145000 0.260482 0
22.150000 0.292128 0
22.155000 0.321197 0
22.160000 0.346764 0
22.165000 0.367968 0
22.170000 0.384064 0
22.175000 0.394460 0
22.180000 0.398757 5
22.185000 0.396770 0
22.190000 0.388543 0
22.195000 0.374343 0
22.200000 0.354649 0
22.205000 0.330121 0
22.210000 0.301565 0
22.215000 0.269887 0
22.220000 0.236044 0
22.225000 0.200998 0
22.230000 0.165672 0
22.235000 0.130907 0
22.240000 0.097436 0
22.245000 0.065864 0
22.250000 0.036651 0
22.255000 0.010118 0
22.260000 -0.013554 0
22.265000 -0.034305 0
22.270000 -0.052180 0
22.275000 -0.067311 0
22.280000 -0.079892 0
22.285000 -0.090161 0
22.290000 -0.098379 0
22.295000 -0.104815 0
22.300000 -0.109733 0
22.305000 -0.113381 0
22.310000 -0.115477 0
22.315000 -0.114581 0
22.320000 -0.113690 0
22.325000 -0.112803 0
22.330000 -0.111918 0
22.335000 -0.111035 0
22.340000 -0.110150 0
22.345000 -0.109257 0
22.350000 -0.108344 0
22.355000 -0.107389 0
22.360000 -0.106355 0
22.365000 -0.105178 0
22.370000 -0.103759 0
22.375000 -0.101943 0
22.380000 -0.099501 0
22.385000 -0.096118 0
22.390000 -0.091374 0
22.395000 -0.084747 0
22.400000 -0.075629 0
22.405000 -0.063376 0
22.410000 -0.047386 0
22.415000 -0.027205 0
22.420000 -0.002658 0
22.425000 0.026019 0
22.430000 0.058076 0
22.435000 0.092198 0
22.440000 0.126546 0
22.445000 0.158884 0
22.450000 0.186807 0
22.455000 0.208031 0
22.460000 0.220696 0
22.465000 0.223640 1
22.470000 0.216569 0
22.475000 0.200107 0
22.480000 0.175705 0
22.485000 0.145424 0
22.490000 0.111611 0
22.495000 0.076471 0
22.500000 0.041397 0
22.505000 0.005953 0
22.510000 -0.033159 0
22.515000 -0.081562 0
22.520000 -0.142732 0
22.525000 -0.209900 0
22.530000 -0.260189 2
22.535000 -0.257771 0
22.540000 -0.164743 0
22.545000 0.045866 0
22.550000 0.371571 0
22.555000 0.753708 0
22.560000 1.069692 0
22.565000 1.183824 3
22.570000 1.037349 0
22.575000 0.693659 0
22.580000 0.290245 0
22.585000 -0.050296 0
22.590000 -0.265593 0
22.595000 -0.347010 4
22.600000 -0.320710 0
22.605000 -0.232850 0
22.610000 -0.131115 0
22.615000 -0.045917 0
22.620000 0.015221 0
22.625000 0.058929 0
22.630000 0.094419 0
22.635000 0.127670 0
22.640000 0.161092 0
22.645000 0.195047 0
22.650000 0.229037 0
22.655000 0.262258 0
22.660000 0.293792 0
22.665000 0.322689 0
22.670000 0.348017 0
22.675000 0.368916 0
22.680000 0.384642 0
22.685000 0.394612 0
22.690000 0.398438 5
22.695000 0.395951 0
22.700000 0.387212 0
22.705000 0.372511 0
22.710000 0.352347 0
22.715000 0.327399 0
22.720000 0.298491 0
22.725000 0.266545 0
22.730000 0.232526 0
22.735000 0.197404 0
22.740000 0.162098 0
22.745000 0.127449 0
22.750000 0.094178 0
22.755000 0.062878 0
22.760000 0.033996 0
22.765000 0.007835 0
22.770000 -0.015439 0
22.775000 -0.035782 0
22.780000 -0.053252 0
22.785000 -0.067993 0
22.790000 -0.080208 0
22.795000 -0.090142 0
22.800000 -0.098061 0
22.805000 -0.104234 0
22.810000 -0.108927 0
22.815000 -0.112386 0
22.820000 -0.114351 0
22.825000 -0.113461 0
22.830000 -0.112575 0
22.835000 -0.111692 0
22.840000 -0.110813 0
22.845000 -0.109935 0
22.850000 -0.109053 0
22.855000 -0.108162 0
22.860000 -0.107247 0
22.865000 -0.106283 0
22.870000 -0.105229 0
22.875000 -0.104014 0
22.880000 -0.102525 0
22.885000 -0.100593 0
22.890000 -0.097969 0
22.895000 -0.094310 0
22.900000 -0.089168 0
22.905000 -0.081994 0
22.910000 -0.072161 0
22.915000 -0.059023 0
22.920000 -0.041996 0
22.925000 -0.020685 0
22.930000 0.004992 0
22.935000 0.034669 0
22.940000 0.067439 0
22.945000 0.101826 0
22.950000 0.135849 0
22.955000 0.167180 0
22.960000 0.193399 0
22.965000 0.212296 0
22.970000 0.222176 1
22.975000 0.222114 0
22.980000 0.212091 0
22.985000 0.193005 0
22.990000 0.166536 0
22.995000 0.134887 0
23.000000 0.100436 0
23.005000 0.065228 0
23.010000 0.030203 0
23.015000 -0.005938 0
23.020000 -0.047505 0
23.025000 -0.100173 0
23.030000 -0.164917 0
23.035000 -0.229654 0
23.040000 -0.265929 2
23.045000 -0.235479 0
23.050000 -0.102424 0
23.055000 0.152483 0
23.060000 0.509301 0
23.065000 0.883717 0
23.070000 1.137917 0
23.075000 1.154041 3
23.080000 0.919494 0
23.085000 0.536173 0
23.090000 0.145003 0
23.095000 -0.152443 0
23.100000 -0.316335 0
23.105000 -0.353002 4
23.110000 -0.297772 0
23.115000 -0.199751 0
23.120000 -0.101859 0
23.125000 -0.025695 0
23.130000 0.027916 0
23.135000 0.067668 0
23.140000 0.101881 0
23.145000 0.135081 0
23.150000 0.168743 0
23.155000 0.202814 0
23.160000 0.236649 0
23.165000 0.269391 0
23.170000 0.300103 0
23.175000 0.327840 0
23.180000 0.351690 0
23.185000 0.370833 0
23.190000 0.384578 0
23.195000 0.392410 0
23.200000 0.394017 5
23.205000 0.389312 0
23.210000 0.378438 0
23.215000 0.361761 0
23.220000 0.339846 0
23.225000 0.313429 0
23.230000 0.283369 0
23.235000 0.250608 0
23.240000 0.216117 0
23.245000 0.180852 0
23.250000 0.145705 0
23.255000 0.111479 0
23.260000 0.078850 0
23.265000 0.048360 0
23.270000 0.020405 0
23.275000 -0.004760 0
23.280000 -0.027011 0
23.285000 -0.046344 0
23.290000 -0.062847 0
23.295000 -0.076687 0
23.300000 -0.088082 0
23.305000 -0.097286 0
23.310000 -0.104568 0
23.315000 -0.110196 0
23.320000 -0.114429 0
23.325000 -0.117507 0
23.330000 -0.117179 0
23.335000 -0.116275 0
23.340000 -0.115375 0
23.345000 -0.114478 0
23.350000 -0.113584 0
23.355000 -0.112690 0
23.360000 -0.111791 0
23.365000 -0.110879 0
23.370000 -0.109937 0
23.375000 -0.108935 0
23.380000 -0.107823 0
23.385000 -0.106520 0
23.390000 -0.104896 0
23.395000 -0.102759 0
23.400000 -0.099833 0
23.405000 -0.095742 0
23.410000 -0.090006 0
23.415000 -0.082048 0
23.420000 -0.071228 0
23.425000 -0.056911 0
23.430000 -0.038560 0
23.435000 -0.015862 0
23.440000 0.011137 0
23.445000 0.041911 0
23.450000 0.075378 0
23.455000 0.109897 0
23.460000 0.143363 0
23.465000 0.173393 0
23.470000 0.197602 0
23.475000 0.213912 0
23.480000 0.220842 1
23.485000 0.217733 0
23.490000 0.204851 0
23.495000 0.183349 0
23.500000 0.155090 0
23.505000 0.122369 0
23.510000 0.087521 0
23.515000 0.052359 0
23.520000 0.017283 0
23.525000 -0.019872 0
23.530000 -0.064159 0
23.535000 -0.120692 0
23.540000 -0.187424 0
23.545000 -0.247429 0
23.550000 -0.268377 2
23.555000 -0.211443 0
23.560000 -0.043957 0
23.565000 0.244823 0
23.570000 0.618432 0
23.575000 0.973516 0
23.580000 1.168496 3
23.585000 1.109368 0
23.590000 0.819948 0
23.595000 0.421127 0
23.600000 0.047620 0
23.605000 -0.216517 0
23.610000 -0.345797 0
23.615000 -0.355209 4
23.620000 -0.284743 0
23.625000 -0.183431 0
23.630000 -0.089554 0
23.635000 -0.019014 0
23.640000 0.030661 0
23.645000 0.068638 0
23.650000 0.102414 0
23.655000 0.135690 0
23.660000 0.169499 0
23.665000 0.203615 0
23.670000 0.237339 0
23.675000 0.269800 0
23.680000 0.300066 0
23.685000 0.327204 0
23.690000 0.350326 0
23.695000 0.368636 0
23.700000 0.381479 0
23.705000 0.388376 0
23.710000 0.389052 5
23.715000 0.383456 0
23.720000 0.371762 0
23.725000 0.354361 0
23.730000 0.331839 0
23.735000 0.304941 0
23.740000 0.274532 0
23.745000 0.241550 0
23.750000 0.206955 0
23.755000 0.171688 0
23.760000 0.136627 0
23.765000 0.102552 0
23.770000 0.070122 0
23.775000 0.039859 0
23.780000 0.012146 0
23.785000 -0.012778 0
23.790000 -0.034800 0
23.795000 -0.053921 0
23.800000 -0.070235 0
23.805000 -0.083909 0
23.810000 -0.095164 0
23.815000 -0.104250 0
23.820000 -0.111434 0
23.825000 -0.116982 0
23.830000 -0.121150 0
23.835000 -0.124174 0
23.840000 -0.123810 0
23.845000 -0.122873 0
23.850000 -0.121940 0
23.855000 -0.121010 0
23.860000 -0.120084 0
23.865000 -0.119157 0
23.870000 -0.118226 0
23.875000 -0.117283 0
23.880000 -0.116309 0
23.885000 -0.115278 0
23.890000 -0.114141 0
23.895000 -0.112817 0
23.900000 -0.111181 0
23.905000 -0.109047 0
23.910000 -0.106145 0
23.915000 -0.102111 0
23.920000 -0.096476 0
23.925000 -0.088674 0
23.930000 -0.078076 0
23.935000 -0.064049 0
23.940000 -0.046049 0
23.945000 -0.023740 0
23.950000 0.002870 0
23.955000 0.033314 0
23.960000 0.066579 0
23.965000 0.101102 0
23.970000 0.134843 0
23.975000 0.165464 0
23.980000 0.190591 0
23.985000 0.208107 0
23.990000 0.216451 1
23.995000 0.214847 0
24.000000 0.203422 0
24.005000 0.183191 0
24.010000 0.155904 0
24.015000 0.123787 0
24.020000 0.089176 0
24.025000 0.054008 0
24.030000 0.019012 0
24.035000 -0.017411 0
24.040000 -0.059806 0
24.045000 -0.113672 0
24.050000 -0.179108 0
24.055000 -0.242760 0
24.060000 -0.275355 2
24.065000 -0.238817 0
24.070000 -0.098330 0
24.075000 0.163486 0
24.080000 0.523906 0
24.085000 0.896181 0
24.090000 1.143001 0
24.095000 1.150504 3
24.100000 0.910685 0
24.105000 0.526319 0
24.110000 0.135096 0
24.115000 -0.163808 0
24.120000 -0.330916 0
24.125000 -0.371598 4
24.130000 -0.319589 0
24.135000 -0.222649 0
24.140000 -0.123625 0
24.145000 -0.045285 0
24.150000 0.010246 0
24.155000 0.051101 0
24.160000 0.085724 0
24.165000 0.118980 0
24.170000 0.152612 0
24.175000 0.186707 0
24.180000 0.220692 0
24.185000 0.253751 0
24.190000 0.284979 0
24.195000 0.313451 0
24.200000 0.338267 0
24.205000 0.358602 0
24.210000 0.373751 0
24.215000 0.383165 0
24.220000 0.386488 5
24.225000 0.383577 0
24.230000 0.374508 0
24.235000 0.359576 0
24.240000 0.339279 0
24.245000 0.314286 0
24.250000 0.285401 0
24.255000 0.253523 0
24.260000 0.219594 0
24.265000 0.184557 0
24.270000 0.149313 0
24.275000 0.114681 0
24.280000 0.081373 0
24.285000 0.049974 0
24.290000 0.020930 0
24.295000 -0.005450 0
24.300000 -0.028992 0
24.305000 -0.049637 0
24.310000 -0.067434 0
24.315000 -0.082510 0
24.320000 -0.095057 0
24.325000 -0.105307 0
24.330000 -0.113516 0
24.335000 -0.119949 0
24.340000 -0.124866 0
24.345000 -0.128510 0
24.350000 -0.131107 0
24.355000 -0.130651 0
24.360000 -0.129679 0
24.365000 -0.128712 0
24.370000 -0.127749 0
24.375000 -0.126787 0
24.380000 -0.125825 0
24.385000 -0.124856 0
24.390000 -0.123869 0
24.395000 -0.122846 0
24.400000 -0.121752 0
24.405000 -0.120531 0
24.410000 -0.119090 0
24.415000 -0.117290 0
24.420000 -0.114922 0
24.425000 -0.111695 0
24.430000 -0.107218 0
24.435000 -0.100999 0
24.440000 -0.092459 0
24.445000 -0.080969 0
24.450000 -0.065917 0
24.455000 -0.046809 0
24.460000 -0.023388 0
24.465000 0.004238 0
24.470000 0.035481 0
24.475000 0.069216 0
24.480000 0.103781 0
24.485000 0.137082 0
24.490000 0.166784 0
24.495000 0.190569 0
24.500000 0.206438 0
24.505000 0.212988 1
24.510000 0.209611 0
24.515000 0.196597 0
24.520000 0.175084 0
24.525000 0.146897 0
24.530000 0.114277 0
24.535000 0.079506 0
24.540000 0.044382 0
24.545000 0.009380 0
24.550000 -0.027450 0
24.555000 -0.070899 0
24.560000 -0.126179 0
24.565000 -0.192306 0
24.570000 -0.254456 0
24.575000 -0.282477 2
24.580000 -0.238583 0
24.585000 -0.089240 0
24.590000 0.180673 0
24.595000 0.545081 0
24.600000 0.914361 0
24.605000 1.151892 3
24.610000 1.149065 0
24.615000 0.903019 0
24.620000 0.516783 0
24.625000 0.126620 0
24.630000 -0.170388 0
24.635000 -0.336008 0
24.640000 -0.375961 4
24.645000 -0.323813 0
24.650000 -0.226905 0
24.655000 -0.127749 0
24.660000 -0.049082 0
24.665000 0.006801 0
24.670000 0.047889 0
24.675000 0.082607 0
24.680000 0.115878 0
24.685000 0.149497 0
24.690000 0.183591 0
24.695000 0.217606 0
24.700000 0.250740 0
24.705000 0.282100 0
24.710000 0.310769 0
24.715000 0.335853 0
24.720000 0.356529 0
24.725000 0.372087 0
24.730000 0.381974 0
24.735000 0.385819 5
24.740000 0.383462 0
24.745000 0.374960 0
24.750000 0.360587 0
24.755000 0.340816 0
24.760000 0.316294 0
24.765000 0.287807 0
24.770000 0.256235 0
24.775000 0.222511 0
24.780000 0.187571 0
24.785000 0.152312 0
24.790000 0.117561 0
24.795000 0.084038 0
24.800000 0.052341 0
24.805000 0.022932 0
24.810000 -0.003863 0
24.815000 -0.027852 0
24.820000 -0.048959 0
24.825000 -0.067217 0
24.830000 -0.082739 0
24.835000 -0.095707 0
24.840000 -0.106345 0
24.845000 -0.114903 0
24.850000 -0.121644 0
24.855000 -0.126825 0
24.860000 -0.130693 0
24.865000 -0.133475 0
24.870000 -0.133037 0
24.875000 -0.132053 0
24.880000 -0.131075 0
24.885000 -0.130099 0
24.890000 -0.129127 0
24.895000 -0.128155 0
24.900000 -0.127178 0
24.905000 -0.126186 0
24.910000 -0.125165 0
24.915000 -0.124083 0
24.920000 -0.122891 0
24.925000 -0.121510 0
24.930000 -0.119814 0
24.935000 -0.117616 0
24.940000 -0.114652 0
24.945000 -0.110564 0
24.950000 -0.104892 0
24.955000 -0.097084 0
24.960000 -0.086526 0
24.965000 -0.072598 0
24.970000 -0.054763 0
24.975000 -0.032682 0
24.980000 -0.006337 0
24.985000 0.023852 0
24.990000 0.056941 0
24.995000 0.091451 0
25.000000 0.125432 0
25.005000 0.156625 0
25.010000 0.182695 0
25.015000 0.201521 0
25.020000 0.211478 0
25.025000 0.211670 1
25.030000 0.202063 0
25.035000 0.183493 0
25.040000 0.157546 0
25.045000 0.126323 0
25.050000 0.092123 0
25.055000 0.056988 0
25.060000 0.022018 0
25.065000 -0.013654 0
25.070000 -0.053736 0
25.075000 -0.103790 0
25.080000 -0.166335 0
25.085000 -0.232999 0
25.090000 -0.279756 2
25.095000 -0.270986 0
25.100000 -0.170190 0
25.105000 0.047588 0
25.110000 0.377603 0
25.115000 0.759970 0
25.120000 1.073877 0
25.125000 1.187536 3
25.130000 1.044177 0
25.135000 0.704422 0
25.140000 0.300525 0
25.145000 -0.046793 0
25.150000 -0.273395 0
25.155000 -0.367470 4
25.160000 -0.351610 0
25.165000 -0.268961 0
25.170000 -0.166642 0
25.175000 -0.077383 0
25.180000 -0.011870 0
25.185000 0.034707 0
25.190000 0.071442 0
25.195000 0.104970 0
25.200000 0.138327 0
25.205000 0.172229 0
25.210000 0.206349 0
25.215000 0.239967 0
25.220000 0.272222 0
25.225000 0.302199 0
25.230000 0.328989 0
25.235000 0.351731 0
25.240000 0.369658 0
25.245000 0.382142 0
25.250000 0.388726 0
25.255000 0.389153 5
25.260000 0.383382 0
25.265000 0.371591 0
25.270000 0.354164 0
25.275000 0.331674 0
25.280000 0.304851 0
25.285000 0.274537 0
25.290000 0.241647 0
25.295000 0.207121 0
25.300000 0.171880 0
25.305000 0.136786 0
25.310000 0.102610 0
25.315000 0.070008 0
25.320000 0.039502 0
25.325000 0.011481 0
25.330000 -0.013804 0
25.335000 -0.036228 0
25.340000 -0.055775 0
25.345000 -0.072527 0
25.350000 -0.086635 0
25.355000 -0.098308 0
25.360000 -0.107786 0
25.365000 -0.115329 0
25.370000 -0.121196 0
25.375000 -0.125642 0
25.380000 -0.128903 0
25.385000 -0.130718 0
25.390000 -0.129746 0
25.395000 -0.128779 0
25.400000 -0.127816 0
25.405000 -0.126856 0
25.410000 -0.125898 0
25.415000 -0.124937 0
25.420000 -0.123967 0
25.425000 -0.122975 0
25.430000 -0.121938 0
25.435000 -0.120817 0
25.440000 -0.119546 0
25.445000 -0.118023 0
25.450000 -0.116090 0
25.455000 -0.113521 0
25.460000 -0.110000 0
25.465000 -0.105113 0
25.470000 -0.098347 0
25.475000 -0.089110 0
25.480000 -0.076777 0
25.485000 -0.060759 0
25.490000 -0.040615 0
25.495000 -0.016165 0
25.500000 0.012377 0
25.505000 0.044308 0
25.510000 0.078386 0
25.515000 0.112857 0
25.520000 0.145575 0
25.525000 0.174203 0
25.530000 0.196490 0
25.535000 0.210555 0
25.540000 0.215153 1
25.545000 0.209856 0
25.550000 0.195120 0
25.555000 0.172218 0
25.560000 0.143057 0
25.565000 0.109894 0
25.570000 0.074952 0
25.575000 0.039861 0
25.580000 0.004769 0
25.585000 -0.032720 0
25.590000 -0.077681 0
25.595000 -0.134873 0
25.600000 -0.201730 0
25.605000 -0.261281 0
25.610000 -0.281988 2
25.615000 -0.226266 0
25.620000 -0.062317 0
25.625000 0.221266 0
25.630000 0.592035 0
25.635000 0.953905 0
25.640000 1.170022 3
25.645000 1.139963 0
25.650000 0.872293 0
25.655000 0.478999 0
25.660000 0.096020 0
25.665000 -0.185679 0
25.670000 -0.334033 0
25.675000 -0.359229 4
25.680000 -0.297951 0
25.685000 -0.198523 0
25.690000 -0.101638 0
25.695000 -0.026827 0
25.700000 0.025980 0
25.705000 0.065452 0
25.710000 0.099622 0
25.715000 0.132835 0
25.720000 0.166506 0
25.725000 0.200584 0
25.730000 0.234444 0
25.735000 0.267249 0
25.740000 0.298089 0
25.745000 0.326037 0
25.750000 0.350201 0
25.755000 0.369770 0
25.760000 0.384059 0
25.765000 0.392547 0
25.770000 0.394905 5
25.775000 0.391024 0
25.780000 0.381013 0
25.785000 0.365200 0
25.790000 0.344109 0
25.795000 0.318433 0
25.800000 0.288996 0
25.805000 0.256704 0
25.810000 0.222506 0
25.815000 0.187341 0
25.820000 0.152098 0
25.825000 0.117585 0
25.830000 0.084496 0
25.835000 0.053393 0
25.840000 0.024704 0
25.845000 -0.001284 0
25.850000 -0.024416 0
25.855000 -0.044652 0
25.860000 -0.062053 0
25.865000 -0.076759 0
25.870000 -0.088968 0
25.875000 -0.098918 0
25.880000 -0.106868 0
25.885000 -0.113082 0
25.890000 -0.117819 0
25.895000 -0.121321 0
25.900000 -0.123311 0
25.905000 -0.122376 0
25.910000 -0.121446 0
25.915000 -0.120519 0
25.920000 -0.119596 0
25.925000 -0.118675 0
25.930000 -0.117751 0
25.935000 -0.116820 0
25.940000 -0.115869 0
25.945000 -0.114876 0
25.950000 -0.113804 0
25.955000 -0.112593 0
25.960000 -0.111143 0
25.965000 -0.109304 0
25.970000 -0.106854 0
25.975000 -0.103487 0
25.980000 -0.098794 0
25.985000 -0.092267 0
25.990000 -0.083315 0
25.995000 -0.071304 0
26.000000 -0.055636 0
26.005000 -0.035847 0
26.010000 -0.011731 0
26.015000 0.016528 0
26.020000 0.048254 0
26.025000 0.082225 0
26.030000 0.116697 0
26.035000 0.149515 0
26.040000 0.178325 0
26.045000 0.200841 0
26.050000 0.215147 0
26.055000 0.219963 1
26.060000 0.214834 0
26.065000 0.200203 0
26.070000 0.177345 0
26.075000 0.148182 0
26.080000 0.114992 0
26.085000 0.080020 0
26.090000 0.044904 0
26.095000 0.009772 0
26.100000 -0.027847 0
26.105000 -0.073117 0
26.110000 -0.130743 0
26.115000 -0.197757 0
26.120000 -0.256417 0
26.125000 -0.274403 2
26.130000 -0.213760 0
26.135000 -0.043032 0
26.140000 0.247475 0
26.145000 0.621318 0
26.150000 0.977267 0
26.155000 1.176792 3
26.160000 1.124961 0
26.165000 0.840397 0
26.170000 0.442546 0
26.175000 0.067049 0
26.180000 -0.200308 0
26.185000 -0.332758 0
26.190000 -0.344559 4
26.195000 -0.275361 0
26.200000 -0.174292 0
26.205000 -0.080092 0
26.210000 -0.009147 0
26.215000 0.040774 0
26.220000 0.078825 0
26.225000 0.112576 0
26.230000 0.145795 0
26.235000 0.179543 0
26.240000 0.213607 0
26.245000 0.247289 0
26.250000 0.279718 0
26.255000 0.309963 0
26.260000 0.337086 0
26.265000 0.360198 0
26.270000 0.378501 0
26.275000 0.391337 0
26.280000 0.398225 0
26.285000 0.398887 5
26.290000 0.393272 0
26.295000 0.381553 0
26.300000 0.364120 0
26.305000 0.341560 0
26.310000 0.314618 0
26.315000 0.284162 0
26.320000 0.251131 0
26.325000 0.216486 0
26.330000 0.181171 0
26.335000 0.146064 0
26.340000 0.111947 0
26.345000 0.079479 0
26.350000 0.049183 0
26.355000 0.021439 0
26.360000 -0.003510 0
26.365000 -0.025554 0
26.370000 -0.044695 0
26.375000 -0.061028 0
26.380000 -0.074721 0
26.385000 -0.085995 0
26.390000 -0.095101 0
26.395000 -0.102307 0
26.400000 -0.107879 0
26.405000 -0.112073 0
26.410000 -0.115125 0
26.415000 -0.114804 0
26.420000 -0.113911 0
26.425000 -0.113023 0
26.430000 -0.112138 0
26.435000 -0.111256 0
26.440000 -0.110373 0
26.445000 -0.109486 0
26.450000 -0.108585 0
26.455000 -0.107654 0
26.460000 -0.106664 0
26.465000 -0.105565 0
26.470000 -0.104278 0
26.475000 -0.102673 0
26.480000 -0.100563 0
26.485000 -0.097675 0
26.490000 -0.093642 0
26.495000 -0.087988 0
26.500000 -0.080147 0
26.505000 -0.069486 0
26.510000 -0.055372 0
26.515000 -0.037265 0
26.520000 -0.014839 0
26.525000 0.011884 0
26.530000 0.042417 0
26.535000 0.075724 0
26.540000 0.110218 0
26.545000 0.143840 0
26.550000 0.174243 0
26.555000 0.199050 0
26.560000 0.216161 0
26.565000 0.224040 1
26.570000 0.221949 0
26.575000 0.210056 0
26.580000 0.189415 0
26.585000 0.161809 0
26.590000 0.129482 0
26.595000 0.094767 0
26.600000 0.059569 0
26.605000 0.024527 0
26.610000 -0.012108 0
26.615000 -0.055022 0
26.620000 -0.109631 0
26.625000 -0.175500 0
26.630000 -0.238360 0
26.635000 -0.268131 2
26.640000 -0.226522 0
26.645000 -0.079232 0
26.650000 0.189539 0
26.655000 0.553764 0
26.660000 0.922519 0
26.665000 1.157074 3
26.670000 1.147466 0
26.675000 0.892662 0
26.680000 0.502502 0
26.685000 0.117092 0
26.690000 -0.167874 0
26.695000 -0.318038 0
26.700000 -0.343348 4
26.705000 -0.281392 0
26.710000 -0.181706 0
26.715000 -0.085549 0
26.720000 -0.012060 0
26.725000 0.039551 0
26.730000 0.078325 0
26.735000 0.112241 0
26.740000 0.145426 0
26.745000 0.179120 0
26.750000 0.213170 0
26.755000 0.246894 0
26.760000 0.279417 0
26.765000 0.309800 0
26.770000 0.337095 0
26.775000 0.360397 0
26.780000 0.378896 0
26.785000 0.391920 0
26.790000 0.398976 0
26.795000 0.399777 5
26.800000 0.394265 0
26.805000 0.382612 0
26.810000 0.365209 0
26.815000 0.342648 0
26.820000 0.315683 0
26.825000 0.285190 0
26.830000 0.252118 0
26.835000 0.217442 0
26.840000 0.182113 0
26.845000 0.147016 0
26.850000 0.112938 0
26.855000 0.080541 0
26.860000 0.050348 0
26.865000 0.022737 0
26.870000 -0.002057 0
26.875000 -0.023927 0
26.880000 -0.042882 0
26.885000 -0.059024 0
26.890000 -0.072529 0
26.895000 -0.083621 0
26.900000 -0.092558 0
26.905000 -0.099609 0
26.910000 -0.105045 0
26.915000 -0.109121 0
26.920000 -0.112074 0
26.925000 -0.111750 0
26.930000 -0.110873 0
26.935000 -0.110000 0
26.940000 -0.109130 0
26.945000 -0.108262 0
26.950000 -0.107394 0
26.955000 -0.106519 0
26.960000 -0.105629 0
26.965000 -0.104705 0
26.970000 -0.103715 0
26.975000 -0.102604 0
26.980000 -0.101284 0
26.985000 -0.099616 0
26.990000 -0.097395 0
26.995000 -0.094328 0
27.000000 -0.090023 0
27.005000 -0.083980 0
27.010000 -0.075607 0
27.015000 -0.064259 0
27.020000 -0.049307 0
27.025000 -0.030242 0
27.030000 -0.006805 0
27.035000 0.020884 0
27.040000 0.052204 0
27.045000 0.085969 0
27.050000 0.120443 0
27.055000 0.153449 0
27.060000 0.182580 0
27.065000 0.205476 0
27.070000 0.220141 0
27.075000 0.225231 1
27.080000 0.220249 0
27.085000 0.205635 0
27.090000 0.182691 0
27.095000 0.153391 0
27.100000 0.120075 0
27.105000 0.085035 0
27.110000 0.049901 0
27.115000 0.014667 0
27.120000 -0.023425 0
27.125000 -0.069811 0
27.130000 -0.128900 0
27.135000 -0.196210 0
27.140000 -0.251457 0
27.145000 -0.260031 2
27.150000 -0.183217 0
27.155000 0.008834 0
27.160000 0.319699 0
27.165000 0.699987 0
27.170000 1.033794 0
27.175000 1.180958 3
27.180000 1.067578 0
27.185000 0.742500 0
27.190000 0.338883 0
27.195000 -0.014700 0
27.200000 -0.247634 0
27.205000 -0.345456 4
27.210000 -0.330709 0
27.215000 -0.247902 0
27.220000 -0.145743 0
27.225000 -0.057565 0
27.230000 0.006453 0
27.235000 0.051845 0
27.240000 0.087972 0
27.245000 0.121323 0
27.250000 0.154687 0
27.255000 0.188602 0
27.260000 0.222639 0
27.265000 0.256017 0
27.270000 0.287824 0
27.275000 0.317111 0
27.280000 0.342942 0
27.285000 0.364444 0
27.290000 0.380854 0
27.295000 0.391569 0
27.300000 0.396174 5
27.305000 0.394473 0
27.310000 0.386498 0
27.315000 0.372511 0
27.320000 0.352987 0
27.325000 0.328588 0
27.330000 0.300122 0
27.335000 0.268501 0
27.340000 0.234690 0
27.345000 0.199659 0
27.350000 0.164340 0
27.355000 0.129581 0
27.360000 0.096123 0
27.365000 0.064573 0
27.370000 0.035396 0
27.375000 0.008912 0
27.380000 -0.014696 0
27.385000 -0.035372 0
27.390000 -0.053162 0
27.395000 -0.068203 0
27.400000 -0.080690 0
27.405000 -0.090866 0
27.410000 -0.098995 0
27.415000 -0.105347 0
27.420000 -0.110188 0
27.425000 -0.113767 0
27.430000 -0.115813 0
27.435000 -0.114916 0
27.440000 -0.114022 0
27.445000 -0.113133 0
27.450000 -0.112247 0
27.455000 -0.111362 0
27.460000 -0.110474 0
27.465000 -0.109578 0
27.470000 -0.108660 0
27.475000 -0.107697 0
27.480000 -0.106649 0
27.485000 -0.105450 0
27.490000 -0.103992 0
27.495000 -0.102113 0
27.500000 -0.099572 0
27.505000 -0.096040 0
27.510000 -0.091078 0
27.515000 -0.084147 0
27.520000 -0.074627 0
27.525000 -0.061868 0
27.530000 -0.045276 0
27.535000 -0.024428 0
27.540000 0.000799 0
27.545000 0.030090 0
27.550000 0.062598 0
27.555000 0.096907 0
27.560000 0.131079 0
27.565000 0.162814 0
27.570000 0.189684 0
27.575000 0.209441 0
27.580000 0.220324 0
27.585000 0.221315 1
27.590000 0.212302 0
27.595000 0.194090 0
27.600000 0.168289 0
27.605000 0.137068 0
27.610000 0.102803 0
27.615000 0.067609 0
27.620000 0.032583 0
27.625000 -0.003293 0
27.630000 -0.044042 0
27.635000 -0.095402 0
27.640000 -0.159205 0
27.645000 -0.224964 0
27.650000 -0.265698 2
27.655000 -0.243582 0
27.660000 -0.121901 0
27.665000 0.121058 0
27.670000 0.470470 0
27.675000 0.848757 0
27.680000 1.120913 0
27.685000 1.162772 3
27.690000 0.949753 0
27.695000 0.575057 0
27.700000 0.178766 0
27.705000 -0.132113 0
27.710000 -0.311778 0
27.715000 -0.362234 4
27.720000 -0.315801 0
27.725000 -0.220492 0
27.730000 -0.120762 0
27.735000 -0.041164 0
27.740000 0.015227 0
27.745000 0.056433 0
27.750000 0.091122 0
27.755000 0.124352 0
27.760000 0.157946 0
27.765000 0.192012 0
27.770000 0.225969 0
27.775000 0.258989 0
27.780000 0.290153 0
27.785000 0.318519 0
27.790000 0.343176 0
27.795000 0.363290 0
27.800000 0.378148 0
27.805000 0.387203 0
27.810000 0.390105 5
27.815000 0.386721 0
27.820000 0.377147 0
27.825000 0.361699 0
27.830000 0.340898 0
27.835000 0.315439 0
27.840000 0.286152 0
27.845000 0.253955 0
27.850000 0.219810 0
27.855000 0.184670 0
27.860000 0.149440 0
27.865000 0.114939 0
27.870000 0.081872 0
27.875000 0.050810 0
27.880000 0.022185 0
27.885000 -0.003716 0
27.890000 -0.026737 0
27.895000 -0.046843 0
27.900000 -0.064098 0
27.905000 -0.078647 0
27.910000 -0.090696 0
27.915000 -0.100487 0
27.920000 -0.108284 0
27.925000 -0.114355 0
27.930000 -0.118961 0
27.935000 -0.122345 0
27.940000 -0.124247 0
27.945000 -0.123308 0
27.950000 -0.122373 0
27.955000 -0.121442 0
27.960000 -0.120514 0
27.965000 -0.119587 0
27.970000 -0.118658 0
27.975000 -0.117719 0
27.980000 -0.116757 0
27.985000 -0.115748 0
27.990000 -0.114651 0
27.995000 -0.113398 0
28.000000 -0.111879 0
28.005000 -0.109928 0
28.010000 -0.107306 0
28.015000 -0.103678 0
28.020000 -0.098607 0
28.025000 -0.091556 0
28.030000 -0.081910 0
28.035000 -0.069026 0
28.040000 -0.052321 0
28.045000 -0.031377 0
28.050000 -0.006082 0
28.055000 0.023252 0
28.060000 0.055785 0
28.065000 0.090119 0
28.070000 0.124342 0
28.075000 0.156181 0
28.080000 0.183237 0
28.085000 0.203278 0
28.090000 0.214542 0
28.095000 0.215993 1
28.100000 0.207478 0
28.105000 0.189754 0
28.110000 0.164376 0
28.115000 0.133462 0
28.120000 0.099366 0
28.125000 0.064215 0
28.130000 0.029209 0
28.135000 -0.006443 0
28.140000 -0.046460 0
28.145000 -0.096527 0
28.150000 -0.159216 0
28.155000 -0.225767 0
28.160000 -0.271196 2
28.165000 -0.258768 0
28.170000 -0.151353 0
28.175000 0.075362 0
28.180000 0.413147 0
28.185000 0.794768 0
28.190000 1.092072 0
28.195000 1.174465 3
28.200000 0.998880 0
28.205000 0.641899 0
28.210000 0.239863 0
28.215000 -0.092333 0
28.220000 -0.298760 0
28.225000 -0.373763 4
28.230000 -0.344155 0
28.235000 -0.255309 0
28.240000 -0.153471 0
28.245000 -0.068041 0
28.250000 -0.006397 0
28.255000 0.037810 0
28.260000 0.073606 0
28.265000 0.106985 0
28.270000 0.140457 0
28.275000 0.174466 0
28.280000 0.208573 0
28.285000 0.242012 0
28.290000 0.273897 0
28.295000 0.303306 0
28.300000 0.329326 0
28.305000 0.351108 0
28.310000 0.367906 0
28.315000 0.379120 0
28.320000 0.384334 5
28.325000 0.383339 0
28.330000 0.376143 0
28.335000 0.362977 0
28.340000 0.344276 0
28.345000 0.320659 0
28.350000 0.292894 0
28.355000 0.261853 0
28.360000 0.228468 0
28.365000 0.193686 0
28.370000 0.158424 0
28.375000 0.123527 0
28.380000 0.089745 0
28.385000 0.057700 0
28.390000 0.027884 0
28.395000 0.000648 0
28.400000 -0.023793 0
