0.000000 1.156758 3
0.005000 1.042319 0
0.010000 0.756069 0
0.015000 0.395664 0
0.020000 0.059921 0
0.025000 -0.188772 0
0.030000 -0.328512 0
0.035000 -0.366329 4
0.040000 -0.328161 0
0.045000 -0.249903 0
0.050000 -0.165313 0
0.055000 -0.095213 0
0.060000 -0.044960 0
0.065000 -0.009957 0
0.070000 0.016994 0
0.075000 0.041363 0
0.080000 0.066037 0
0.085000 0.092095 0
0.090000 0.119706 0
0.095000 0.148644 0
0.100000 0.178503 0
0.105000 0.208773 0
0.110000 0.238864 0
0.115000 0.268125 0
0.120000 0.295874 0
0.125000 0.321412 0
0.130000 0.344062 0
0.135000 0.363190 0
0.140000 0.378240 0
0.145000 0.388757 0
0.150000 0.394409 0
0.155000 0.395006 5
0.160000 0.390509 0
0.165000 0.381030 0
0.170000 0.366833 0
0.175000 0.348313 0
0.180000 0.325986 0
0.185000 0.300458 0
0.190000 0.272400 0
0.195000 0.242518 0
0.200000 0.211525 0
0.205000 0.180112 0
0.210000 0.148923 0
0.215000 0.118533 0
0.220000 0.089438 0
0.225000 0.062041 0
0.230000 0.036647 0
0.235000 0.013469 0
0.240000 -0.007372 0
0.245000 -0.025839 0
0.250000 -0.041962 0
0.255000 -0.055833 0
0.260000 -0.067587 0
0.265000 -0.077392 0
0.270000 -0.085436 0
0.275000 -0.091917 0
0.280000 -0.097034 0
0.285000 -0.100979 0
0.290000 -0.103932 0
0.295000 -0.106058 0
0.300000 -0.107505 0
0.305000 -0.108402 0
0.310000 -0.108654 0
0.315000 -0.107703 0
0.320000 -0.106756 0
0.325000 -0.105814 0
0.330000 -0.104877 0
0.335000 -0.103944 0
0.340000 -0.103016 0
0.345000 -0.102092 0
0.350000 -0.101172 0
0.355000 -0.100256 0
0.360000 -0.099342 0
0.365000 -0.098427 0
0.370000 -0.097509 0
0.375000 -0.096578 0
0.380000 -0.095622 0
0.385000 -0.094618 0
0.390000 -0.093531 0
0.395000 -0.092304 0
0.400000 -0.090851 0
0.405000 -0.089046 0
0.410000 -0.086714 0
0.415000 -0.083617 0
0.420000 -0.079447 0
0.425000 -0.073828 0
0.430000 -0.066323 0
0.435000 -0.056460 0
0.440000 -0.043775 0
0.445000 -0.027869 0
0.450000 -0.008484 0
0.455000 0.014413 0
0.460000 0.040555 0
0.465000 0.069320 0
0.470000 0.099704 0
0.475000 0.130350 0
0.480000 0.159630 0
0.485000 0.185775 0
0.490000 0.207050 0
0.495000 0.221943 0
0.500000 0.229339 1
0.505000 0.228663 0
0.510000 0.219951 0
0.515000 0.203848 0
0.520000 0.181529 0
0.525000 0.154557 0
0.530000 0.124699 0
0.535000 0.093719 0
0.540000 0.063140 0
0.545000 0.033922 0
0.550000 0.005959 0
0.555000 -0.022576 0
0.560000 -0.055515 0
0.565000 -0.097440 0
0.570000 -0.149888 0
0.575000 -0.206119 0
0.580000 -0.248173 0
0.585000 -0.249457 2
0.590000 -0.181596 0
0.595000 -0.022257 0
0.600000 0.234699 0
0.605000 0.563181 0
0.610000 0.891761 0
0.615000 1.116713 0
0.620000 1.150529 3
0.625000 0.976512 0
0.630000 0.657330 0
0.635000 0.294998 0
0.640000 -0.021242 0
0.645000 -0.241718 0
0.650000 -0.353687 0
0.655000 -0.369635 4
0.660000 -0.318415 0
0.665000 -0.235991 0
0.670000 -0.153351 0
0.675000 -0.087456 0
0.680000 -0.040853 0
0.685000 -0.007956 0
0.690000 0.018193 0
0.695000 0.042485 0
0.700000 0.067366 0
0.705000 0.093689 0
0.710000 0.121534 0
0.715000 0.150642 0
0.720000 0.180598 0
0.725000 0.210888 0
0.730000 0.240924 0
0.735000 0.270062 0
0.740000 0.297628 0
0.745000 0.322938 0
0.750000 0.345327 0
0.755000 0.364180 0
0.760000 0.378955 0
0.765000 0.389212 0
0.770000 0.394634 0
0.775000 0.395040 5
0.780000 0.390398 0
0.785000 0.380823 0
0.790000 0.366576 0
0.795000 0.348049 0
0.800000 0.325746 0
0.805000 0.300265 0
0.810000 0.272263 0
0.815000 0.242435 0
0.820000 0.211481 0
0.825000 0.180081 0
0.830000 0.148870 0
0.835000 0.118420 0
0.840000 0.089222 0
0.845000 0.061678 0
0.850000 0.036100 0
0.855000 0.012702 0
0.860000 -0.008389 0
0.865000 -0.027124 0
0.870000 -0.043530 0
0.875000 -0.057686 0
0.880000 -0.069723 0
0.885000 -0.079800 0
0.890000 -0.088101 0
0.895000 -0.094818 0
0.900000 -0.100149 0
0.905000 -0.104283 0
0.910000 -0.107401 0
0.915000 -0.109667 0
0.920000 -0.111230 0
0.925000 -0.112220 0
0.930000 -0.112751 0
0.935000 -0.111996 0
0.940000 -0.111028 0
0.945000 -0.110065 0
0.950000 -0.109106 0
0.955000 -0.108153 0
0.960000 -0.107203 0
0.965000 -0.106259 0
0.970000 -0.105318 0
0.975000 -0.104382 0
0.980000 -0.103448 0
0.985000 -0.102515 0
0.990000 -0.101580 0
0.995000 -0.100635 0
1.000000 -0.099672 0
1.005000 -0.098670 0
1.010000 -0.097602 0
1.015000 -0.096419 0
1.020000 -0.095049 0
1.025000 -0.093386 0
1.030000 -0.091278 0
1.035000 -0.088517 0
1.040000 -0.084831 0
1.045000 -0.079879 0
1.050000 -0.073254 0
1.055000 -0.064506 0
1.060000 -0.053167 0
1.065000 -0.038808 0
1.070000 -0.021100 0
1.075000 0.000105 0
1.080000 0.024698 0
1.085000 0.052247 0
1.090000 0.081955 0
1.095000 0.112662 0
1.100000 0.142893 0
1.105000 0.170966 0
1.110000 0.195135 0
1.115000 0.213769 0
1.120000 0.225536 0
1.125000 0.229557 1
1.130000 0.225514 0
1.135000 0.213698 0
1.140000 0.194965 0
1.145000 0.170643 0
1.150000 0.142369 0
1.155000 0.111903 0
1.160000 0.080920 0
1.165000 0.050763 0
1.170000 0.022073 0
1.175000 -0.005762 0
1.180000 -0.035213 0
1.185000 -0.070538 0
1.190000 -0.115818 0
1.195000 -0.170594 0
1.200000 -0.225028 0
1.205000 -0.258478 2
1.210000 -0.243537 0
1.215000 -0.153159 0
1.220000 0.031588 0
1.225000 0.310348 0
1.230000 0.647107 0
1.235000 0.961490 0
1.240000 1.149961 3
1.245000 1.137884 0
1.250000 0.926488 0
1.255000 0.590619 0
1.260000 0.230910 0
1.265000 -0.071738 0
1.270000 -0.275677 0
1.275000 -0.373007 0
1.280000 -0.378584 4
1.285000 -0.321958 0
1.290000 -0.238231 0
1.295000 -0.156516 0
1.300000 -0.092013 0
1.305000 -0.046365 0
1.310000 -0.013880 0
1.315000 0.012181 0
1.320000 0.036498 0
1.325000 0.061413 0
1.330000 0.087750 0
1.335000 0.115588 0
1.340000 0.144681 0
1.345000 0.174629 0
1.350000 0.204935 0
1.355000 0.235032 0
1.360000 0.264296 0
1.365000 0.292073 0
1.370000 0.317697 0
1.375000 0.340517 0
1.380000 0.359927 0
1.385000 0.375389 0
1.390000 0.386456 0
1.395000 0.392799 0
1.400000 0.394217 5
1.405000 0.390649 0
1.410000 0.382178 0
1.415000 0.369026 0
1.420000 0.351545 0
1.425000 0.330203 0
1.430000 0.305558 0
1.435000 0.278237 0
1.440000 0.248909 0
1.445000 0.218256 0
1.450000 0.186949 0
1.455000 0.155624 0
1.460000 0.124859 0
1.465000 0.095163 0
1.470000 0.066961 0
1.475000 0.040589 0
1.480000 0.016294 0
1.485000 -0.005766 0
1.490000 -0.025513 0
1.495000 -0.042941 0
1.500000 -0.058106 0
1.505000 -0.071113 0
1.510000 -0.082106 0
1.515000 -0.091253 0
1.520000 -0.098739 0
1.525000 -0.104754 0
1.530000 -0.109487 0
1.535000 -0.113119 0
1.540000 -0.115821 0
1.545000 -0.117746 0
1.550000 -0.119031 0
1.555000 -0.119797 0
1.560000 -0.119950 0
1.565000 -0.118942 0
1.570000 -0.117939 0
1.575000 -0.116941 0
1.580000 -0.115948 0
1.585000 -0.114960 0
1.590000 -0.113977 0
1.595000 -0.112999 0
1.600000 -0.112025 0
1.605000 -0.111054 0
1.610000 -0.110086 0
1.615000 -0.109119 0
1.620000 -0.108149 0
1.625000 -0.107168 0
1.630000 -0.106166 0
1.635000 -0.105123 0
1.640000 -0.104007 0
1.645000 -0.102771 0
1.650000 -0.101339 0
1.655000 -0.099603 0
1.660000 -0.097410 0
1.665000 -0.094551 0
1.670000 -0.090757 0
1.675000 -0.085691 0
1.680000 -0.078954 0
1.685000 -0.070105 0
1.690000 -0.058692 0
1.695000 -0.044296 0
1.700000 -0.026599 0
1.705000 -0.005454 0
1.710000 0.019041 0
1.715000 0.046478 0
1.720000 0.076098 0
1.725000 0.106795 0
1.730000 0.137155 0
1.735000 0.165553 0
1.740000 0.190288 0
1.745000 0.209751 0
1.750000 0.222597 0
1.755000 0.227898 1
1.760000 0.225254 0
1.765000 0.214846 0
1.770000 0.197412 0
1.775000 0.174162 0
1.780000 0.146642 0
1.785000 0.116556 0
1.790000 0.085573 0
1.795000 0.055112 0
1.800000 0.026024 0
1.805000 -0.001874 0
1.810000 -0.030412 0
1.815000 -0.063294 0
1.820000 -0.104921 0
1.825000 -0.156918 0
1.830000 -0.213311 0
1.835000 -0.257634 0
1.840000 -0.264931 2
1.845000 -0.207863 0
1.850000 -0.063795 0
1.855000 0.176514 0
1.860000 0.494959 0
1.865000 0.832062 0
1.870000 1.092314 0
1.875000 1.182554 3
1.880000 1.064076 0
1.885000 0.777225 0
1.890000 0.416884 0
1.895000 0.079182 0
1.900000 -0.174247 0
1.905000 -0.320697 0
1.910000 -0.365628 4
1.915000 -0.333059 0
1.920000 -0.257351 0
1.925000 -0.172067 0
1.930000 -0.099286 0
1.935000 -0.046089 0
1.940000 -0.009006 0
1.945000 0.018927 0
1.950000 0.043473 0
1.955000 0.067900 0
1.960000 0.093553 0
1.965000 0.120741 0
1.970000 0.149313 0
1.975000 0.178913 0
1.980000 0.209072 0
1.985000 0.239239 0
1.990000 0.268801 0
1.995000 0.297104 0
2.000000 0.323476 0
2.005000 0.347248 0
2.010000 0.367789 0
2.015000 0.384527 0
2.020000 0.396978 0
2.025000 0.404768 0
2.030000 0.407650 5
2.035000 0.405518 0
2.040000 0.398412 0
2.045000 0.386517 0
2.050000 0.370152 0
2.055000 0.349759 0
2.060000 0.325881 0
2.065000 0.299135 0
2.070000 0.270192 0
2.075000 0.239739 0
2.080000 0.208463 0
2.085000 0.177018 0
2.090000 0.146004 0
2.095000 0.115956 0
2.100000 0.087322 0
2.105000 0.060463 0
2.110000 0.035649 0
2.115000 0.013059 0
2.120000 -0.007213 0
2.125000 -0.025148 0
2.130000 -0.040792 0
2.135000 -0.054242 0
2.140000 -0.065639 0
2.145000 -0.075148 0
2.150000 -0.082955 0
2.155000 -0.089252 0
2.160000 -0.094232 0
2.165000 -0.098079 0
2.170000 -0.100967 0
2.175000 -0.103053 0
2.180000 -0.104480 0
2.185000 -0.105371 0
2.190000 -0.105629 0
2.195000 -0.104693 0
2.200000 -0.103761 0
2.205000 -0.102834 0
2.210000 -0.101912 0
2.215000 -0.100994 0
2.220000 -0.100080 0
2.225000 -0.099171 0
2.230000 -0.098266 0
2.235000 -0.097364 0
2.240000 -0.096465 0
2.245000 -0.095566 0
2.250000 -0.094663 0
2.255000 -0.093750 0
2.260000 -0.092816 0
2.265000 -0.091840 0
2.270000 -0.090791 0
2.275000 -0.089620 0
2.280000 -0.088252 0
2.285000 -0.086575 0
2.290000 -0.084435 0
2.295000 -0.081620 0
2.300000 -0.077853 0
2.305000 -0.072792 0
2.310000 -0.066031 0
2.315000 -0.057123 0
2.320000 -0.045608 0
2.325000 -0.031067 0
2.330000 -0.013188 0
2.335000 0.008164 0
2.340000 0.032867 0
2.345000 0.060479 0
2.350000 0.090200 0
2.355000 0.120876 0
2.360000 0.151050 0
2.365000 0.179059 0
2.370000 0.203183 0
2.375000 0.221817 0
2.380000 0.233643 0
2.385000 0.237789 1
2.390000 0.233931 0
2.395000 0.222337 0
2.400000 0.203835 0
2.405000 0.179716 0
2.410000 0.151582 0
2.415000 0.121167 0
2.420000 0.090135 0
2.425000 0.059842 0
2.430000 0.030995 0
2.435000 0.003123 0
2.440000 -0.026022 0
2.445000 -0.060506 0
2.450000 -0.104551 0
2.455000 -0.158498 0
2.460000 -0.213968 0
2.465000 -0.251883 2
2.470000 -0.245751 0
2.475000 -0.168401 0
2.480000 0.000622 0
2.485000 0.265026 0
2.490000 0.596281 0
2.495000 0.922304 0
2.500000 1.141904 0
2.505000 1.171712 3
2.510000 0.997135 0
2.515000 0.680116 0
2.520000 0.317315 0
2.525000 -0.005033 0
2.530000 -0.236793 0
2.535000 -0.362817 0
2.540000 -0.392365 4
2.545000 -0.350850 0
2.550000 -0.271980 0
2.555000 -0.187112 0
2.560000 -0.115890 0
2.565000 -0.063920 0
2.570000 -0.027380 0
2.575000 0.000462 0
2.580000 0.025082 0
2.585000 0.049591 0
2.590000 0.075288 0
2.595000 0.102488 0
2.600000 0.131057 0
2.605000 0.160663 0
2.610000 0.190863 0
2.615000 0.221134 0
2.620000 0.250895 0
2.625000 0.279522 0
2.630000 0.306369 0
2.635000 0.330792 0
2.640000 0.352176 0
2.645000 0.369955 0
2.650000 0.383642 0
2.655000 0.392847 0
2.660000 0.397298 5
2.665000 0.396851 0
2.670000 0.391499 0
2.675000 0.381373 0
2.680000 0.366733 0
2.685000 0.347962 0
2.690000 0.325545 0
2.695000 0.300049 0
2.700000 0.272098 0
2.705000 0.242350 0
2.710000 0.211468 0
2.715000 0.180098 0
2.720000 0.148848 0
2.725000 0.118267 0
2.730000 0.088833 0
2.735000 0.060943 0
2.740000 0.034909 0
2.745000 0.010957 0
2.750000 -0.010773 0
2.755000 -0.030215 0
2.760000 -0.047372 0
2.765000 -0.062305 0
2.770000 -0.075120 0
2.775000 -0.085959 0
2.780000 -0.094989 0
2.785000 -0.102388 0
2.790000 -0.108344 0
2.795000 -0.113039 0
2.800000 -0.116651 0
2.805000 -0.119343 0
2.810000 -0.121267 0
2.815000 -0.122555 0
2.820000 -0.123327 0
2.825000 -0.123482 0
2.830000 -0.122457 0
2.835000 -0.121437 0
2.840000 -0.120421 0
2.845000 -0.119411 0
2.850000 -0.118406 0
2.855000 -0.117406 0
2.860000 -0.116410 0
2.865000 -0.115419 0
2.870000 -0.114432 0
2.875000 -0.113448 0
2.880000 -0.112465 0
2.885000 -0.111480 0
2.890000 -0.110488 0
2.895000 -0.109477 0
2.900000 -0.108432 0
2.905000 -0.107326 0
2.910000 -0.106117 0
2.915000 -0.104741 0
2.920000 -0.103103 0
2.925000 -0.101070 0
2.930000 -0.098458 0
2.935000 -0.095027 0
2.940000 -0.090471 0
2.945000 -0.084425 0
2.950000 -0.076474 0
2.955000 -0.066176 0
2.960000 -0.053103 0
2.965000 -0.036897 0
2.970000 -0.017329 0
2.975000 0.005621 0
2.980000 0.031706 0
2.985000 0.060357 0
2.990000 0.090663 0
2.995000 0.121394 0
3.000000 0.151062 0
3.005000 0.178032 0
3.010000 0.200670 0
3.015000 0.217499 0
3.020000 0.227365 0
3.025000 0.229563 1
3.030000 0.223923 0
3.035000 0.210833 0
3.040000 0.191193 0
3.045000 0.166313 0
3.050000 0.137769 0
3.055000 0.107229 0
3.060000 0.076271 0
3.065000 0.046148 0
3.070000 0.017462 0
3.075000 -0.010339 0
3.080000 -0.039513 0
3.085000 -0.074016 0
3.090000 -0.117905 0
3.095000 -0.171580 0
3.100000 -0.227281 0
3.105000 -0.267120 2
3.110000 -0.265905 0
3.115000 -0.197281 0
3.120000 -0.040497 0
3.125000 0.210846 0
3.130000 0.534923 0
3.135000 0.869343 0
3.140000 1.119223 0
3.145000 1.196186 3
3.150000 1.065924 0
3.155000 0.770830 0
3.160000 0.409106 0
3.165000 0.076678 0
3.170000 -0.167301 0
3.175000 -0.302891 0
3.180000 -0.337932 4
3.185000 -0.298457 0
3.190000 -0.219955 0
3.195000 -0.135563 0
3.200000 -0.065649 0
3.205000 -0.015449 0
3.210000 0.019548 0
3.215000 0.046444 0
3.220000 0.070683 0
3.225000 0.095169 0
3.230000 0.121011 0
3.235000 0.148396 0
3.240000 0.177116 0
3.245000 0.206779 0
3.250000 0.236887 0
3.255000 0.266863 0
3.260000 0.296072 0
3.265000 0.323841 0
3.270000 0.349484 0
3.275000 0.372329 0
3.280000 0.391746 0
3.285000 0.407177 0
3.290000 0.418160 0
3.295000 0.424352 0
3.300000 0.425545 5
3.305000 0.421677 0
3.310000 0.412839 0
3.315000 0.399265 0
3.320000 0.381326 0
3.325000 0.359510 0
3.330000 0.334398 0
3.335000 0.306644 0
3.340000 0.276938 0
3.345000 0.245984 0
3.350000 0.214469 0
3.355000 0.183039 0
3.360000 0.152278 0
3.365000 0.122695 0
3.370000 0.094709 0
3.375000 0.068646 0
3.380000 0.044737 0
3.385000 0.023124 0
3.390000 0.003868 0
3.395000 -0.013046 0
3.400000 -0.027692 0
3.405000 -0.040191 0
3.410000 -0.050700 0
3.415000 -0.059401 0
3.420000 -0.066486 0
3.425000 -0.072152 0
3.430000 -0.076590 0
3.435000 -0.079984 0
3.440000 -0.082500 0
3.445000 -0.084292 0
3.450000 -0.085491 0
3.455000 -0.086215 0
3.460000 -0.085601 0
3.465000 -0.084765 0
3.470000 -0.083932 0
3.475000 -0.083104 0
3.480000 -0.082280 0
3.485000 -0.081460 0
3.490000 -0.080644 0
3.495000 -0.079831 0
3.500000 -0.079022 0
3.505000 -0.078215 0
3.510000 -0.077408 0
3.515000 -0.076599 0
3.520000 -0.075782 0
3.525000 -0.074946 0
3.530000 -0.074075 0
3.535000 -0.073140 0
3.540000 -0.072096 0
3.545000 -0.070876 0
3.550000 -0.069376 0
3.555000 -0.067450 0
3.560000 -0.064897 0
3.565000 -0.061452 0
3.570000 -0.056781 0
3.575000 -0.050482 0
3.580000 -0.042108 0
3.585000 -0.031190 0
3.590000 -0.017289 0
3.595000 -0.000063 0
3.600000 0.020662 0
3.605000 0.044805 0
3.610000 0.071969 0
3.615000 0.101394 0
3.620000 0.131951 0
3.625000 0.162189 0
3.630000 0.190436 0
3.635000 0.214940 0
3.640000 0.234047 0
3.645000 0.246385 0
3.650000 0.251025 1
3.655000 0.247597 0
3.660000 0.236334 0
3.665000 0.218051 0
3.670000 0.194041 0
3.675000 0.165927 0
3.680000 0.135471 0
3.685000 0.104370 0
3.690000 0.074005 0
3.695000 0.045097 0
3.700000 0.017153 0
3.705000 -0.012146 0
3.710000 -0.046969 0
3.715000 -0.091549 0
3.720000 -0.145938 0
3.725000 -0.201060 0
3.730000 -0.236914 2
3.735000 -0.226275 0
3.740000 -0.141764 0
3.745000 0.036426 0
3.750000 0.309671 0
3.755000 0.644614 0
3.760000 0.963231 0
3.765000 1.161850 0
3.770000 1.162291 3
3.775000 0.961182 0
3.780000 0.630280 0
3.785000 0.269069 0
3.790000 -0.039960 0
3.795000 -0.252649 0
3.800000 -0.358921 0
3.805000 -0.371886 4
3.810000 -0.319788 0
3.815000 -0.237341 0
3.820000 -0.154451 0
3.825000 -0.087771 0
3.830000 -0.040178 0
3.835000 -0.006517 0
3.840000 0.019995 0
3.845000 0.044309 0
3.850000 0.069010 0
3.855000 0.095070 0
3.860000 0.122638 0
3.865000 0.151504 0
3.870000 0.181289 0
3.875000 0.211516 0
3.880000 0.241633 0
3.885000 0.271031 0
3.890000 0.299067 0
3.895000 0.325081 0
3.900000 0.348425 0
3.905000 0.368489 0
3.910000 0.384725 0
3.915000 0.396671 0
3.920000 0.403976 0
3.925000 0.406413 5
3.930000 0.403892 0
3.935000 0.396462 0
3.940000 0.384313 0
3.945000 0.367766 0
3.950000 0.347257 0
3.955000 0.323319 0
3.960000 0.296559 0
3.965000 0.267630 0
3.970000 0.237207 0
3.975000 0.205958 0
3.980000 0.174526 0
3.985000 0.143499 0
3.990000 0.113401 0
3.995000 0.084678 0
4.000000 0.057687 0
4.005000 0.032700 0
4.010000 0.009898 0
4.015000 -0.010618 0
4.020000 -0.028820 0
4.025000 -0.044747 0
4.030000 -0.058489 0
4.035000 -0.070176 0
4.040000 -0.079967 0
4.045000 -0.088042 0
4.050000 -0.094589 0
4.055000 -0.099794 0
4.060000 -0.103841 0
4.065000 -0.106903 0
4.070000 -0.109137 0
4.075000 -0.110686 0
4.080000 -0.111675 0
4.085000 -0.112213 0
4.090000 -0.111462 0
4.095000 -0.110497 0
4.100000 -0.109536 0
4.105000 -0.108580 0
4.110000 -0.107629 0
4.115000 -0.106682 0
4.120000 -0.105740 0
4.125000 -0.104803 0
4.130000 -0.103869 0
4.135000 -0.102938 0
4.140000 -0.102009 0
4.145000 -0.101078 0
4.150000 -0.100141 0
4.155000 -0.099187 0
4.160000 -0.098203 0
4.165000 -0.097164 0
4.170000 -0.096029 0
4.175000 -0.094738 0
4.180000 -0.093202 0
4.185000 -0.091291 0
4.190000 -0.088828 0
4.195000 -0.085575 0
4.200000 -0.081233 0
4.205000 -0.075437 0
4.210000 -0.067769 0
4.215000 -0.057782 0
4.220000 -0.045038 0
4.225000 -0.029160 0
4.230000 -0.009905 0
4.235000 0.012771 0
4.240000 0.038633 0
4.245000 0.067126 0
4.250000 0.097342 0
4.255000 0.128042 0
4.260000 0.157722 0
4.265000 0.184721 0
4.270000 0.207375 0
4.275000 0.224181 0
4.280000 0.233963 0
4.285000 0.236009 1
4.290000 0.230153 0
4.295000 0.216804 0
4.300000 0.196890 0
4.305000 0.171759 0
4.310000 0.143020 0
4.315000 0.112372 0
4.320000 0.081402 0
4.325000 0.051350 0
4.330000 0.022750 0
4.335000 -0.005098 0
4.340000 -0.034680 0
4.345000 -0.070147 0
4.350000 -0.115414 0
4.355000 -0.170072 0
4.360000 -0.224863 0
4.365000 -0.260253 2
4.370000 -0.250019 0
4.375000 -0.167810 0
4.380000 0.005755 0
4.385000 0.273246 0
4.390000 0.605435 0
4.395000 0.930883 0
4.400000 1.150457 0
4.405000 1.182567 3
4.410000 1.008712 0
4.415000 0.687646 0
4.420000 0.325609 0
4.425000 0.014081 0
4.430000 -0.197792 0
4.435000 -0.299260 0
4.440000 -0.305418 4
4.445000 -0.247793 0
4.450000 -0.163839 0
4.455000 -0.083822 0
4.460000 -0.022373 0
4.465000 0.020218 0
4.470000 0.050588 0
4.475000 0.075619 0
4.480000 0.099671 0
4.485000 0.124712 0
4.490000 0.151312 0
4.495000 0.179403 0
4.500000 0.208647 0
4.505000 0.238569 0
4.510000 0.268601 0
4.515000 0.298104 0
4.520000 0.326389 0
4.525000 0.352745 0
4.530000 0.376466 0
4.535000 0.396881 0
4.540000 0.413384 0
4.545000 0.425466 0
4.550000 0.432737 0
4.555000 0.434947 5
4.560000 0.432000 0
4.565000 0.423957 0
4.570000 0.411037 0
4.575000 0.393605 0
4.580000 0.372151 0
4.585000 0.347272 0
4.590000 0.319637 0
4.595000 0.289965 0
4.600000 0.258985 0
4.605000 0.227412 0
4.610000 0.195919 0
4.615000 0.165113 0
4.620000 0.135520 0
4.625000 0.107572 0
4.630000 0.081601 0
4.635000 0.057842 0
4.640000 0.036432 0
4.645000 0.017424 0
4.650000 0.000796 0
4.655000 -0.013540 0
4.660000 -0.025715 0
4.665000 -0.035900 0
4.670000 -0.044286 0
4.675000 -0.051074 0
4.680000 -0.056467 0
4.685000 -0.060665 0
4.690000 -0.063850 0
4.695000 -0.066194 0
4.700000 -0.067847 0
4.705000 -0.068941 0
4.710000 -0.069387 0
4.715000 -0.068631 0
4.720000 -0.067879 0
4.725000 -0.067131 0
4.730000 -0.066387 0
4.735000 -0.065646 0
4.740000 -0.064909 0
4.745000 -0.064175 0
4.750000 -0.063444 0
4.755000 -0.062716 0
4.760000 -0.061988 0
4.765000 -0.061259 0
4.770000 -0.060524 0
4.775000 -0.059773 0
4.780000 -0.058993 0
4.785000 -0.058159 0
4.790000 -0.057230 0
4.795000 -0.056142 0
4.800000 -0.054801 0
4.805000 -0.053067 0
4.810000 -0.050745 0
4.815000 -0.047574 0
4.820000 -0.043222 0
4.825000 -0.037284 0
4.830000 -0.029299 0
4.835000 -0.018780 0
4.840000 -0.005267 0
4.845000 0.011612 0
4.850000 0.032054 0
4.855000 0.055994 0
4.860000 0.083035 0
4.865000 0.112395 0
4.870000 0.142904 0
4.875000 0.173050 0
4.880000 0.201089 0
4.885000 0.225201 0
4.890000 0.243685 0
4.895000 0.255151 0
4.900000 0.258693 1
4.905000 0.254007 0
4.910000 0.241432 0
4.915000 0.221906 0
4.920000 0.196852 0
4.925000 0.168002 0
4.930000 0.137189 0
4.935000 0.106121 0
4.940000 0.076091 0
4.945000 0.047549 0
4.950000 0.019455 0
4.955000 -0.011288 0
4.960000 -0.049368 0
4.965000 -0.098188 0
4.970000 -0.154652 0
4.975000 -0.204639 0
4.980000 -0.223437 2
4.985000 -0.181750 0
4.990000 -0.053732 0
4.995000 0.173708 0
5.000000 0.486012 0
5.005000 0.824190 0
5.010000 1.087938 0
5.015000 1.177088 3
5.020000 1.052640 0
5.025000 0.761460 0
5.030000 0.400369 0
5.035000 0.065591 0
5.040000 -0.182496 0
5.045000 -0.322702 0
5.050000 -0.361851 4
5.055000 -0.325153 0
5.060000 -0.247683 0
5.065000 -0.162817 0
5.070000 -0.091659 0
5.075000 -0.040198 0
5.080000 -0.004325 0
5.085000 0.023028 0
5.090000 0.047440 0
5.095000 0.071960 0
5.100000 0.097789 0
5.105000 0.125160 0
5.110000 0.153887 0
5.115000 0.183591 0
5.120000 0.213784 0
5.125000 0.243899 0
5.130000 0.273310 0
5.135000 0.301351 0
5.140000 0.327338 0
5.145000 0.350603 0
5.150000 0.370514 0
5.155000 0.386506 0
5.160000 0.398108 0
5.165000 0.404966 0
5.170000 0.406856 5
5.175000 0.403700 0
5.180000 0.395569 0
5.185000 0.382679 0
5.190000 0.365382 0
5.195000 0.344147 0
5.200000 0.319544 0
5.205000 0.292213 0
5.210000 0.262836 0
5.215000 0.232114 0
5.220000 0.200733 0
5.225000 0.169343 0
5.230000 0.138535 0
5.235000 0.108827 0
5.240000 0.080650 0
5.245000 0.054344 0
5.250000 0.030153 0
5.255000 0.008234 0
5.260000 -0.011341 0
5.265000 -0.028573 0
5.270000 -0.043528 0
5.275000 -0.056317 0
5.280000 -0.067092 0
5.285000 -0.076030 0
5.290000 -0.083319 0
5.295000 -0.089156 0
5.300000 -0.093733 0
5.305000 -0.097233 0
5.310000 -0.099827 0
5.315000 -0.101668 0
5.320000 -0.102894 0
5.325000 -0.103622 0
5.330000 -0.102935 0
5.335000 -0.102012 0
5.340000 -0.101094 0
5.345000 -0.100180 0
5.350000 -0.099271 0
5.355000 -0.098366 0
5.360000 -0.097466 0
5.365000 -0.096569 0
5.370000 -0.095677 0
5.375000 -0.094787 0
5.380000 -0.093899 0
5.385000 -0.093010 0
5.390000 -0.092115 0
5.395000 -0.091204 0
5.400000 -0.090264 0
5.405000 -0.089270 0
5.410000 -0.088182 0
5.415000 -0.086938 0
5.420000 -0.085448 0
5.425000 -0.083578 0
5.430000 -0.081146 0
5.435000 -0.077904 0
5.440000 -0.073541 0
5.445000 -0.067676 0
5.450000 -0.059874 0
5.455000 -0.049671 0
5.460000 -0.036617 0
5.465000 -0.020336 0
5.470000 -0.000596 0
5.475000 0.022606 0
5.480000 0.048978 0
5.485000 0.077877 0
5.490000 0.108293 0
5.495000 0.138875 0
5.500000 0.168017 0
5.505000 0.193984 0
5.510000 0.215083 0
5.515000 0.229838 0
5.520000 0.237166 1
5.525000 0.236506 0
5.530000 0.227889 0
5.535000 0.211937 0
5.540000 0.189790 0
5.545000 0.162967 0
5.550000 0.133194 0
5.555000 0.102205 0
5.560000 0.071518 0
5.565000 0.042133 0
5.570000 0.014067 0
5.575000 -0.014270 0
5.580000 -0.046438 0
5.585000 -0.086989 0
5.590000 -0.138128 0
5.595000 -0.194694 0
5.600000 -0.240760 0
5.605000 -0.251254 2
5.610000 -0.198135 0
5.615000 -0.057811 0
5.620000 0.179906 0
5.625000 0.497410 0
5.630000 0.834471 0
5.635000 1.093463 0
5.640000 1.179420 3
5.645000 1.052864 0
5.650000 0.756841 0
5.655000 0.394879 0
5.660000 0.066996 0
5.665000 -0.167244 0
5.670000 -0.289953 0
5.675000 -0.312114 4
5.680000 -0.263280 0
5.685000 -0.181368 0
5.690000 -0.099235 0
5.695000 -0.034543 0
5.700000 0.010538 0
5.705000 0.042198 0
5.710000 0.067652 0
5.715000 0.091706 0
5.720000 0.116610 0
5.725000 0.143063 0
5.730000 0.171044 0
5.735000 0.200228 0
5.740000 0.230143 0
5.745000 0.260218 0
5.750000 0.289810 0
5.755000 0.318220 0
5.760000 0.344727 0
5.765000 0.368613 0
5.770000 0.389193 0
5.775000 0.405848 0
5.780000 0.418058 0
5.785000 0.425424 0
5.790000 0.427689 5
5.795000 0.424755 0
5.800000 0.416686 0
5.805000 0.403706 0
5.810000 0.386186 0
5.815000 0.364630 0
5.820000 0.339645 0
5.825000 0.311917 0
5.830000 0.282174 0
5.835000 0.251160 0
5.840000 0.219598 0
5.845000 0.188166 0
5.850000 0.157477 0
5.855000 0.128056 0
5.860000 0.100331 0
5.865000 0.074629 0
5.870000 0.051178 0
5.875000 0.030106 0
5.880000 0.011455 0
5.885000 -0.004808 0
5.890000 -0.018777 0
5.895000 -0.030596 0
5.900000 -0.040439 0
5.905000 -0.048505 0
5.910000 -0.054999 0
5.915000 -0.060127 0
5.920000 -0.064088 0
5.925000 -0.067067 0
5.930000 -0.069231 0
5.935000 -0.070732 0
5.940000 -0.071697 0
5.945000 -0.072050 0
5.950000 -0.071281 0
5.955000 -0.070516 0
5.960000 -0.069755 0
5.965000 -0.068997 0
5.970000 -0.068244 0
5.975000 -0.067493 0
5.980000 -0.066747 0
5.985000 -0.066003 0
5.990000 -0.065261 0
5.995000 -0.064519 0
6.000000 -0.063775 0
6.005000 -0.063022 0
6.010000 -0.062249 0
6.015000 -0.061440 0
6.020000 -0.060562 0
6.025000 -0.059569 0
6.030000 -0.058384 0
6.035000 -0.056894 0
6.040000 -0.054939 0
6.045000 -0.052293 0
6.050000 -0.048662 0
6.055000 -0.043677 0
6.060000 -0.036899 0
6.065000 -0.027846 0
6.070000 -0.016025 0
6.075000 -0.001000 0
6.080000 0.017537 0
6.085000 0.039673 0
6.090000 0.065191 0
6.095000 0.093504 0
6.100000 0.123622 0
6.105000 0.154173 0
6.110000 0.183487 0
6.115000 0.209729 0
6.120000 0.231086 0
6.125000 0.245974 0
6.130000 0.253224 1
6.135000 0.252241 0
6.140000 0.243074 0
6.145000 0.226421 0
6.150000 0.203532 0
6.155000 0.176058 0
6.160000 0.145847 0
6.165000 0.114715 0
6.170000 0.084185 0
6.175000 0.055115 0
6.180000 0.027112 0
6.185000 -0.002156 0
6.190000 -0.037042 0
6.195000 -0.081983 0
6.200000 -0.136793 0
6.205000 -0.191232 0
6.210000 -0.223348 2
6.215000 -0.204027 0
6.220000 -0.105004 0
6.225000 0.092297 0
6.230000 0.383531 0
6.235000 0.723149 0
6.240000 1.018748 0
6.245000 1.162478 3
6.250000 1.093905 0
6.255000 0.839226 0
6.260000 0.486473 0
6.265000 0.137208 0
6.270000 -0.136978 0
6.275000 -0.305412 0
6.280000 -0.368735 4
6.285000 -0.348253 0
6.290000 -0.277633 0
6.295000 -0.191996 0
6.300000 -0.116272 0
6.305000 -0.060020 0
6.310000 -0.020926 0
6.315000 0.007934 0
6.320000 0.032730 0
6.325000 0.057108 0
6.330000 0.082626 0
6.335000 0.109687 0
6.340000 0.138172 0
6.345000 0.167735 0
6.350000 0.197909 0
6.355000 0.228140 0
6.360000 0.257811 0
6.365000 0.286259 0
6.370000 0.312802 0
6.375000 0.336762 0
6.380000 0.357492 0
6.385000 0.374411 0
6.390000 0.387022 0
6.395000 0.394943 0
6.400000 0.397920 5
6.405000 0.395846 0
6.410000 0.388759 0
6.415000 0.376847 0
6.420000 0.360438 0
6.425000 0.339981 0
6.430000 0.316030 0
6.435000 0.289216 0
6.440000 0.260218 0
6.445000 0.229738 0
6.450000 0.198470 0
6.455000 0.167075 0
6.460000 0.136160 0
6.465000 0.106258 0
6.470000 0.077820 0
6.475000 0.051201 0
6.480000 0.026666 0
6.485000 0.004385 0
6.490000 -0.015554 0
6.495000 -0.033141 0
6.500000 -0.048431 0
6.505000 -0.061530 0
6.510000 -0.072584 0
6.515000 -0.081768 0
6.520000 -0.089269 0
6.525000 -0.095285 0
6.530000 -0.100008 0
6.535000 -0.103626 0
6.540000 -0.106311 0
6.545000 -0.108220 0
6.550000 -0.109494 0
6.555000 -0.110253 0
6.560000 -0.110413 0
6.565000 -0.109453 0
6.570000 -0.108497 0
6.575000 -0.107546 0
6.580000 -0.106600 0
6.585000 -0.105659 0
6.590000 -0.104722 0
6.595000 -0.103790 0
6.600000 -0.102862 0
6.605000 -0.101936 0
6.610000 -0.101013 0
6.615000 -0.100089 0
6.620000 -0.099160 0
6.625000 -0.098218 0
6.630000 -0.097247 0
6.635000 -0.096226 0
6.640000 -0.095116 0
6.645000 -0.093859 0
6.650000 -0.092366 0
6.655000 -0.090509 0
6.660000 -0.088109 0
6.665000 -0.084925 0
6.670000 -0.080651 0
6.675000 -0.074911 0
6.680000 -0.067272 0
6.685000 -0.057270 0
6.690000 -0.044448 0
6.695000 -0.028420 0
6.700000 -0.008938 0
6.705000 0.014023 0
6.710000 0.040197 0
6.715000 0.068966 0
6.720000 0.099344 0
6.725000 0.129999 0
6.730000 0.159332 0
6.735000 0.185606 0
6.740000 0.207111 0
6.745000 0.222345 0
6.750000 0.230192 1
6.755000 0.230052 0
6.760000 0.221919 0
6.765000 0.206387 0
6.770000 0.184571 0
6.775000 0.157982 0
6.780000 0.128346 0
6.785000 0.097410 0
6.790000 0.066713 0
6.795000 0.037292 0
6.800000 0.009220 0
6.805000 -0.019023 0
6.810000 -0.050937 0
6.815000 -0.091098 0
6.820000 -0.141885 0
6.825000 -0.198434 0
6.830000 -0.245096 0
6.835000 -0.256891 2
6.840000 -0.205646 0
6.845000 -0.067472 0
6.850000 0.168302 0
6.855000 0.484743 0
6.860000 0.822227 0
6.865000 1.083130 0
6.870000 1.171672 3
6.875000 1.048405 0
6.880000 0.756245 0
6.885000 0.394872 0
6.890000 0.062588 0
6.895000 -0.180104 0
6.900000 -0.313167 0
6.905000 -0.345114 4
6.910000 -0.303040 0
6.915000 -0.223381 0
6.920000 -0.139485 0
6.925000 -0.071086 0
6.930000 -0.022490 0
6.935000 0.011416 0
6.940000 0.037846 0
6.945000 0.062064 0
6.950000 0.086759 0
6.955000 0.112892 0
6.960000 0.140572 0
6.965000 0.169548 0
6.970000 0.199396 0
6.975000 0.229591 0
6.980000 0.259529 0
6.985000 0.288552 0
6.990000 0.315965 0
6.995000 0.341068 0
7.000000 0.363181 0
7.005000 0.381675 0
7.010000 0.396003 0
7.015000 0.405723 0
7.020000 0.410521 5
7.025000 0.410228 0
7.030000 0.404830 0
7.035000 0.394465 0
7.040000 0.379421 0
7.045000 0.360120 0
7.050000 0.337098 0
7.055000 0.310980 0
7.060000 0.282451 0
7.065000 0.252226 0
7.070000 0.221021 0
7.075000 0.189525 0
7.080000 0.158374 0
7.085000 0.128135 0
7.090000 0.099286 0
7.095000 0.072215 0
7.100000 0.047209 0
7.105000 0.024460 0
7.110000 0.004073 0
7.115000 -0.013932 0
7.120000 -0.029601 0
7.125000 -0.043036 0
7.130000 -0.054384 0
7.135000 -0.063820 0
7.140000 -0.071536 0
7.145000 -0.077733 0
7.150000 -0.082610 0
7.155000 -0.086359 0
7.160000 -0.089156 0
7.165000 -0.091164 0
7.170000 -0.092526 0
7.175000 -0.093368 0
7.180000 -0.093606 0
7.185000 -0.092730 0
7.190000 -0.091858 0
7.195000 -0.090990 0
7.200000 -0.090127 0
7.205000 -0.089268 0
7.210000 -0.088413 0
7.215000 -0.087561 0
7.220000 -0.086714 0
7.225000 -0.085869 0
7.230000 -0.085025 0
7.235000 -0.084180 0
7.240000 -0.083328 0
7.245000 -0.082460 0
7.250000 -0.081560 0
7.255000 -0.080601 0
7.260000 -0.079542 0
7.265000 -0.078316 0
7.270000 -0.076825 0
7.275000 -0.074924 0
7.280000 -0.072417 0
7.285000 -0.069038 0
7.290000 -0.064453 0
7.295000 -0.058259 0
7.300000 -0.049997 0
7.305000 -0.039191 0
7.310000 -0.025387 0
7.315000 -0.008230 0
7.320000 0.012464 0
7.325000 0.036620 0
7.330000 0.063833 0
7.335000 0.093324 0
7.340000 0.123935 0
7.345000 0.154174 0
7.350000 0.182325 0
7.355000 0.206596 0
7.360000 0.225309 0
7.365000 0.237087 0
7.370000 0.241024 1
7.375000 0.236797 0
7.380000 0.224710 0
7.385000 0.205660 0
7.390000 0.181022 0
7.395000 0.152487 0
7.400000 0.121860 0
7.405000 0.090843 0
7.410000 0.060761 0
7.415000 0.032167 0
7.420000 0.004234 0
7.425000 -0.025844 0
7.430000 -0.062586 0
7.435000 -0.109781 0
7.440000 -0.165621 0
7.445000 -0.217943 0
7.450000 -0.243762 2
7.455000 -0.214434 0
7.460000 -0.103349 0
7.465000 0.105530 0
7.470000 0.404421 0
7.475000 0.744600 0
7.480000 1.033498 0
7.485000 1.167397 3
7.490000 1.091156 0
7.495000 0.833060 0
7.500000 0.479826 0
7.505000 0.130277 0
7.510000 -0.145723 0
7.515000 -0.317685 0
7.520000 -0.385463 4
7.525000 -0.369049 0
7.530000 -0.300762 0
7.535000 -0.215126 0
7.540000 -0.137613 0
7.545000 -0.078997 0
7.550000 -0.037986 0
7.555000 -0.008036 0
7.560000 0.017146 0
7.565000 0.041494 0
7.570000 0.066802 0
7.575000 0.093609 0
7.580000 0.121866 0
7.585000 0.151272 0
7.590000 0.181394 0
7.595000 0.211711 0
7.600000 0.241638 0
7.605000 0.270539 0
7.610000 0.297755 0
7.615000 0.322620 0
7.620000 0.344494 0
7.625000 0.362789 0
7.630000 0.376991 0
7.635000 0.386687 0
7.640000 0.391584 5
7.645000 0.391522 0
7.650000 0.386483 0
7.655000 0.376592 0
7.660000 0.362113 0
7.665000 0.343434 0
7.670000 0.321051 0
7.675000 0.295546 0
7.680000 0.267563 0
7.685000 0.237776 0
7.690000 0.206868 0
7.695000 0.175501 0
7.700000 0.144296 0
7.705000 0.113813 0
7.710000 0.084535 0
7.715000 0.056861 0
7.720000 0.031101 0
7.725000 0.007475 0
7.730000 -0.013885 0
7.735000 -0.032922 0
7.740000 -0.049651 0
7.745000 -0.064143 0
7.750000 -0.076518 0
7.755000 -0.086927 0
7.760000 -0.095544 0
7.765000 -0.102557 0
7.770000 -0.108156 0
7.775000 -0.112529 0
7.780000 -0.115855 0
7.785000 -0.118297 0
7.790000 -0.120006 0
7.795000 -0.121113 0
7.800000 -0.121735 0
7.805000 -0.120955 0
7.810000 -0.119942 0
7.815000 -0.118935 0
7.820000 -0.117932 0
7.825000 -0.116934 0
7.830000 -0.115941 0
7.835000 -0.114953 0
7.840000 -0.113970 0
7.845000 -0.112990 0
7.850000 -0.112015 0
7.855000 -0.111041 0
7.860000 -0.110067 0
7.865000 -0.109088 0
7.870000 -0.108096 0
7.875000 -0.107078 0
7.880000 -0.106011 0
7.885000 -0.104859 0
7.890000 -0.103566 0
7.895000 -0.102049 0
7.900000 -0.100186 0
7.905000 -0.097809 0
7.910000 -0.094692 0
7.915000 -0.090543 0
7.920000 -0.085006 0
7.925000 -0.077668 0
7.930000 -0.068079 0
7.935000 -0.055791 0
7.940000 -0.040409 0
7.945000 -0.021660 0
7.950000 0.000538 0
7.955000 0.025996 0
7.960000 0.054203 0
7.965000 0.084291 0
7.970000 0.115052 0
7.975000 0.144997 0
7.980000 0.172459 0
7.985000 0.195748 0
7.990000 0.213317 0
7.995000 0.223934 0
8.000000 0.226821 1
8.005000 0.221757 0
8.010000 0.209098 0
8.015000 0.189738 0
8.020000 0.165009 0
8.025000 0.136523 0
8.030000 0.105995 0
8.035000 0.075046 0
8.040000 0.044958 0
8.045000 0.016326 0
8.050000 -0.011479 0
8.055000 -0.040879 0
8.060000 -0.076017 0
8.065000 -0.120917 0
8.070000 -0.175367 0
8.075000 -0.230275 0
8.080000 -0.266096 2
8.085000 -0.256386 0
8.090000 -0.174487 0
8.095000 -0.000774 0
8.100000 0.267304 0
8.105000 0.599931 0
8.110000 0.924431 0
8.115000 1.140524 0
8.120000 1.166844 3
8.125000 0.989235 0
8.130000 0.669437 0
8.135000 0.306893 0
8.140000 -0.011234 0
8.145000 -0.235717 0
8.150000 -0.353087 0
8.155000 -0.374496 4
8.160000 -0.327238 0
8.165000 -0.246196 0
8.170000 -0.162460 0
8.175000 -0.094162 0
8.180000 -0.045197 0
8.185000 -0.010744 0
8.190000 0.016083 0
8.195000 0.040450 0
8.200000 0.065103 0
8.205000 0.091094 0
8.210000 0.118605 0
8.215000 0.147434 0
8.220000 0.177207 0
8.225000 0.207442 0
8.230000 0.237586 0
8.235000 0.267026 0
8.240000 0.295111 0
8.245000 0.321177 0
8.250000 0.344569 0
8.255000 0.364669 0
8.260000 0.380924 0
8.265000 0.392868 0
8.270000 0.400147 0
8.275000 0.402532 5
8.280000 0.399934 0
8.285000 0.392406 0
8.290000 0.380143 0
8.295000 0.363473 0
8.300000 0.342838 0
8.305000 0.318782 0
8.310000 0.291917 0
8.315000 0.262908 0
8.320000 0.232433 0
8.325000 0.201169 0
8.330000 0.169760 0
8.335000 0.138796 0
8.340000 0.108802 0
8.345000 0.080220 0
8.350000 0.053406 0
8.355000 0.028623 0
8.360000 0.006049 0
8.365000 -0.014223 0
8.370000 -0.032172 0
8.375000 -0.047842 0
8.380000 -0.061330 0
8.385000 -0.072771 0
8.390000 -0.082330 0
8.395000 -0.090188 0
8.400000 -0.096535 0
8.405000 -0.101560 0
8.410000 -0.105448 0
8.415000 -0.108370 0
8.420000 -0.110483 0
8.425000 -0.111929 0
8.430000 -0.112832 0
8.435000 -0.113088 0
8.440000 -0.112115 0
8.445000 -0.111146 0
8.450000 -0.110182 0
8.455000 -0.109223 0
8.460000 -0.108269 0
8.465000 -0.107319 0
8.470000 -0.106374 0
8.475000 -0.105433 0
8.480000 -0.104496 0
8.485000 -0.103561 0
8.490000 -0.102628 0
8.495000 -0.101692 0
8.500000 -0.100747 0
8.505000 -0.099785 0
8.510000 -0.098786 0
8.515000 -0.097722 0
8.520000 -0.096551 0
8.525000 -0.095203 0
8.530000 -0.093578 0
8.535000 -0.091535 0
8.540000 -0.088879 0
8.545000 -0.085353 0
8.550000 -0.080636 0
8.555000 -0.074343 0
8.560000 -0.066041 0
8.565000 -0.055276 0
8.570000 -0.041617 0
8.575000 -0.024718 0
8.580000 -0.004386 0
8.585000 0.019341 0
8.590000 0.046132 0
8.595000 0.075309 0
8.600000 0.105845 0
8.605000 0.136389 0
8.610000 0.165356 0
8.615000 0.191049 0
8.620000 0.211825 0
8.625000 0.226263 0
8.630000 0.233329 1
8.635000 0.232496 0
8.640000 0.223808 0
8.645000 0.207879 0
8.650000 0.185823 0
8.655000 0.159117 0
8.660000 0.129446 0
8.665000 0.098503 0
8.670000 0.067788 0
8.675000 0.038320 0
8.680000 0.010209 0
8.685000 -0.017938 0
8.690000 -0.049417 0
8.695000 -0.088685 0
8.700000 -0.138442 0
8.705000 -0.194912 0
8.710000 -0.244140 0
8.715000 -0.262748 2
8.720000 -0.223340 0
8.725000 -0.101524 0
8.730000 0.116159 0
8.735000 0.419642 0
8.740000 0.759986 0
8.745000 1.048093 0
8.750000 1.185407 3
8.755000 1.116888 0
8.760000 0.864975 0
8.765000 0.513832 0
8.770000 0.161845 0
8.775000 -0.119794 0
8.780000 -0.298802 0
8.785000 -0.373459 4
8.790000 -0.362408 0
8.795000 -0.297021 0
8.800000 -0.211727 0
8.805000 -0.132845 0
8.810000 -0.072364 0
8.815000 -0.029877 0
8.820000 0.000868 0
8.825000 0.026284 0
8.830000 0.050543 0
8.835000 0.075624 0
8.840000 0.102171 0
8.845000 0.130185 0
8.850000 0.159392 0
8.855000 0.189378 0
8.860000 0.219639 0
8.865000 0.249605 0
8.870000 0.278654 0
8.875000 0.306134 0
8.880000 0.331388 0
8.885000 0.353777 0
8.890000 0.372706 0
8.895000 0.387652 0
8.900000 0.398186 0
8.905000 0.403995 0
8.910000 0.404893 5
8.915000 0.400833 0
8.920000 0.391910 0
8.925000 0.378355 0
8.930000 0.360526 0
8.935000 0.338893 0
8.940000 0.314013 0
8.945000 0.286512 0
8.950000 0.257050 0
8.955000 0.226305 0
8.960000 0.194939 0
8.965000 0.163578 0
8.970000 0.132794 0
8.975000 0.103086 0
8.980000 0.074874 0
8.985000 0.048488 0
8.990000 0.024170 0
8.995000 0.002078 0
9.000000 -0.017712 0
9.005000 -0.035195 0
9.010000 -0.050426 0
9.015000 -0.063508 0
9.020000 -0.074582 0
9.025000 -0.083816 0
9.030000 -0.091390 0
9.035000 -0.097495 0
9.040000 -0.102316 0
9.045000 -0.106034 0
9.050000 -0.108817 0
9.055000 -0.110819 0
9.060000 -0.112176 0
9.065000 -0.113009 0
9.070000 -0.113220 0
9.075000 -0.112246 0
9.080000 -0.111276 0
9.085000 -0.110312 0
9.090000 -0.109352 0
9.095000 -0.108397 0
9.100000 -0.107446 0
9.105000 -0.106501 0
9.110000 -0.105559 0
9.115000 -0.104621 0
9.120000 -0.103686 0
9.125000 -0.102751 0
9.130000 -0.101814 0
9.135000 -0.100867 0
9.140000 -0.099902 0
9.145000 -0.098899 0
9.150000 -0.097830 0
9.155000 -0.096649 0
9.160000 -0.095289 0
9.165000 -0.093649 0
9.170000 -0.091584 0
9.175000 -0.088901 0
9.180000 -0.085344 0
9.185000 -0.080591 0
9.190000 -0.074261 0
9.195000 -0.065923 0
9.200000 -0.055129 0
9.205000 -0.041452 0
9.210000 -0.024550 0
9.215000 -0.004233 0
9.220000 0.019465 0
9.225000 0.046215 0
9.230000 0.075354 0
9.235000 0.105868 0
9.240000 0.136429 0
9.245000 0.165471 0
9.250000 0.191316 0
9.255000 0.212330 0
9.260000 0.227094 0
9.265000 0.234563 1
9.270000 0.234184 0
9.275000 0.225971 0
9.280000 0.210496 0
9.285000 0.188832 0
9.290000 0.162423 0
9.295000 0.132925 0
9.300000 0.102025 0
9.305000 0.071233 0
9.310000 0.041617 0
9.315000 0.013399 0
9.320000 -0.014620 0
9.325000 -0.045507 0
9.330000 -0.083648 0
9.335000 -0.132152 0
9.340000 -0.188318 0
9.345000 -0.239680 0
9.350000 -0.264079 2
9.355000 -0.234522 0
9.360000 -0.125997 0
9.365000 0.077047 0
9.370000 0.369218 0
9.375000 0.708795 0
9.380000 1.012796 0
9.385000 1.181700 3
9.390000 1.150395 0
9.395000 0.926836 0
9.400000 0.586370 0
9.405000 0.227839 0
9.410000 -0.071173 0
9.415000 -0.271482 0
9.420000 -0.366296 0
9.425000 -0.370664 4
9.430000 -0.313772 0
9.435000 -0.230098 0
9.440000 -0.148266 0
9.445000 -0.083376 0
9.450000 -0.037263 0
9.455000 -0.004441 0
9.460000 0.021750 0
9.465000 0.046029 0
9.470000 0.070807 0
9.475000 0.096967 0
9.480000 0.124623 0
9.485000 0.153552 0
9.490000 0.183372 0
9.495000 0.213605 0
9.500000 0.243699 0
9.505000 0.273050 0
9.510000 0.301017 0
9.515000 0.326948 0
9.520000 0.350201 0
9.525000 0.370170 0
9.530000 0.386315 0
9.535000 0.398181 0
9.540000 0.405421 0
9.545000 0.407810 5
9.550000 0.405262 0
9.555000 0.397826 0
9.560000 0.385690 0
9.565000 0.369172 0
9.570000 0.348704 0
9.575000 0.324813 0
9.580000 0.298101 0
9.585000 0.269213 0
9.590000 0.238820 0
9.595000 0.207586 0
9.600000 0.176147 0
9.605000 0.145090 0
9.610000 0.114938 0
9.615000 0.086136 0
9.620000 0.059045 0
9.625000 0.033935 0
9.630000 0.010995 0
9.635000 -0.009673 0
9.640000 -0.028037 0
9.645000 -0.044129 0
9.650000 -0.058037 0
9.655000 -0.069886 0
9.660000 -0.079833 0
9.665000 -0.088054 0
9.670000 -0.094734 0
9.675000 -0.100061 0
9.680000 -0.104217 0
9.685000 -0.107373 0
9.690000 -0.109689 0
9.695000 -0.111307 0
9.700000 -0.112354 0
9.705000 -0.112939 0
9.710000 -0.112192 0
9.715000 -0.111223 0
9.720000 -0.110259 0
9.725000 -0.109299 0
9.730000 -0.108345 0
9.735000 -0.107394 0
9.740000 -0.106449 0
9.745000 -0.105508 0
9.750000 -0.104571 0
9.755000 -0.103637 0
9.760000 -0.102705 0
9.765000 -0.101772 0
9.770000 -0.100833 0
9.775000 -0.099881 0
9.780000 -0.098902 0
9.785000 -0.097873 0
9.790000 -0.096758 0
9.795000 -0.095502 0
9.800000 -0.094023 0
9.805000 -0.092201 0
9.810000 -0.089870 0
9.815000 -0.086809 0
9.820000 -0.082734 0
9.825000 -0.077297 0
9.830000 -0.070094 0
9.835000 -0.060686 0
9.840000 -0.048631 0
9.845000 -0.033536 0
9.850000 -0.015121 0
9.855000 0.006712 0
9.860000 0.031806 0
9.865000 0.059693 0
9.870000 0.089564 0
9.875000 0.120272 0
9.880000 0.150384 0
9.885000 0.178285 0
9.890000 0.202307 0
9.895000 0.220899 0
9.900000 0.232787 0
9.905000 0.237121 1
9.910000 0.233576 0
9.915000 0.222390 0
9.920000 0.204337 0
9.925000 0.180644 0
9.930000 0.152844 0
9.935000 0.122615 0
9.940000 0.091589 0
9.945000 0.061137 0
9.950000 0.032064 0
9.955000 0.004147 0
9.960000 -0.024452 0
9.965000 -0.057392 0
9.970000 -0.098999 0
9.975000 -0.150901 0
9.980000 -0.207374 0
9.985000 -0.252492 0
9.990000 -0.261942 2
9.995000 -0.208837 0
10.000000 -0.070537 0
10.005000 0.163185 0
10.010000 0.477006 0
10.015000 0.815975 0
10.020000 1.088352 0
10.025000 1.200000 3
10.030000 1.102361 0
10.035000 0.827815 0
10.040000 0.469682 0
10.045000 0.127325 0
10.050000 -0.133366 0
10.055000 -0.286795 0
10.060000 -0.337010 4
10.065000 -0.307551 0
10.070000 -0.233028 0
10.075000 -0.147780 0
10.080000 -0.074698 0
10.085000 -0.021322 0
10.090000 0.015744 0
10.095000 0.043558 0
10.100000 0.067974 0
10.105000 0.092294 0
10.110000 0.117863 0
10.115000 0.144981 0
10.120000 0.173485 0
10.125000 0.203009 0
10.130000 0.233071 0
10.135000 0.263108 0
10.140000 0.292494 0
10.145000 0.320563 0
10.150000 0.346630 0
10.155000 0.370020 0
10.160000 0.390095 0
10.165000 0.406282 0
10.170000 0.418100 0
10.175000 0.425184 0
10.180000 0.427300 5
10.185000 0.424361 0
10.190000 0.416427 0
10.195000 0.403707 0
10.200000 0.386547 0
10.205000 0.365412 0
10.210000 0.340869 0
10.215000 0.313558 0
10.220000 0.284164 0
10.225000 0.253388 0
10.230000 0.221923 0
10.235000 0.190422 0
10.240000 0.159482 0
10.245000 0.129627 0
10.250000 0.101293 0
10.255000 0.074823 0
10.260000 0.050468 0
10.265000 0.028387 0
10.270000 0.008653 0
10.275000 -0.008731 0
10.280000 -0.023830 0
10.285000 -0.036756 0
10.290000 -0.047661 0
10.295000 -0.056719 0
10.300000 -0.064124 0
10.305000 -0.070070 0
10.310000 -0.074751 0
10.315000 -0.078352 0
10.320000 -0.081042 0
10.325000 -0.082978 0
10.330000 -0.084297 0
10.335000 -0.085116 0
10.340000 -0.084521 0
10.345000 -0.083690 0
10.350000 -0.082863 0
10.355000 -0.082041 0
10.360000 -0.081222 0
10.365000 -0.080407 0
10.370000 -0.079596 0
10.375000 -0.078789 0
10.380000 -0.077985 0
10.385000 -0.077184 0
10.390000 -0.076383 0
10.395000 -0.075581 0
10.400000 -0.074772 0
10.405000 -0.073948 0
10.410000 -0.073092 0
10.415000 -0.072180 0
10.420000 -0.071172 0
10.425000 -0.070005 0
10.430000 -0.068585 0
10.435000 -0.066777 0
10.440000 -0.064394 0
10.445000 -0.061185 0
10.450000 -0.056833 0
10.455000 -0.050953 0
10.460000 -0.043106 0
10.465000 -0.032823 0
10.470000 -0.019657 0
10.475000 -0.003235 0
10.480000 0.016661 0
10.485000 0.040018 0
10.490000 0.066519 0
10.495000 0.095491 0
10.500000 0.125894 0
10.505000 0.156347 0
10.510000 0.185223 0
10.515000 0.210776 0
10.520000 0.231315 0
10.525000 0.245386 0
10.530000 0.251942 1
10.535000 0.250471 0
10.540000 0.241059 0
10.545000 0.224385 0
10.550000 0.201635 0
10.555000 0.174365 0
10.560000 0.144319 0
10.565000 0.113225 0
10.570000 0.082571 0
10.575000 0.053281 0
10.580000 0.025227 0
10.585000 -0.003404 0
10.590000 -0.036387 0
10.595000 -0.078240 0
10.600000 -0.130571 0
10.605000 -0.186998 0
10.610000 -0.230196 0
10.615000 -0.234219 2
10.620000 -0.171056 0
10.625000 -0.018169 0
10.630000 0.231962 0
10.635000 0.556607 0
10.640000 0.889136 0
10.645000 1.128758 0
10.650000 1.185093 3
10.655000 1.032857 0
10.660000 0.726055 0
10.665000 0.363420 0
10.670000 0.036776 0
10.675000 -0.199281 0
10.680000 -0.327660 0
10.685000 -0.357512 4
10.690000 -0.315203 0
10.695000 -0.235790 0
10.700000 -0.151507 0
10.705000 -0.081905 0
10.710000 -0.031841 0
10.715000 0.003201 0
10.720000 0.030205 0
10.725000 0.054534 0
10.730000 0.079073 0
10.735000 0.104939 0
10.740000 0.132336 0
10.745000 0.161069 0
10.750000 0.190760 0
10.755000 0.220925 0
10.760000 0.251002 0
10.765000 0.280371 0
10.770000 0.308374 0
10.775000 0.334336 0
10.780000 0.357596 0
10.785000 0.377530 0
10.790000 0.393578 0
10.795000 0.405273 0
10.800000 0.412261 0
10.805000 0.414316 5
10.810000 0.411357 0
10.815000 0.403445 0
10.820000 0.390788 0
10.825000 0.373725 0
10.830000 0.352715 0
10.835000 0.328313 0
10.840000 0.301147 0
10.845000 0.271891 0
10.850000 0.241235 0
10.855000 0.209859 0
10.860000 0.178411 0
10.865000 0.147483 0
10.870000 0.117594 0
10.875000 0.089180 0
10.880000 0.062589 0
10.885000 0.038075 0
10.890000 0.015803 0
10.895000 -0.004144 0
10.900000 -0.021757 0
10.905000 -0.037092 0
10.910000 -0.050252 0
10.915000 -0.061383 0
10.920000 -0.070654 0
10.925000 -0.078252 0
10.930000 -0.084369 0
10.935000 -0.089198 0
10.940000 -0.092920 0
10.945000 -0.095708 0
10.950000 -0.097716 0
10.955000 -0.099085 0
10.960000 -0.099934 0
10.965000 -0.100173 0
10.970000 -0.099264 0
10.975000 -0.098360 0
10.980000 -0.097460 0
10.985000 -0.096564 0
10.990000 -0.095673 0
10.995000 -0.094786 0
11.000000 -0.093903 0
11.005000 -0.093024 0
11.010000 -0.092148 0
11.015000 -0.091274 0
11.020000 -0.090400 0
11.025000 -0.089522 0
11.030000 -0.088632 0
11.035000 -0.087717 0
11.040000 -0.086758 0
11.045000 -0.085721 0
11.050000 -0.084552 0
11.055000 -0.083172 0
11.060000 -0.081467 0
11.065000 -0.079272 0
11.070000 -0.076367 0
11.075000 -0.072468 0
11.080000 -0.067222 0
11.085000 -0.060218 0
11.090000 -0.051004 0
11.095000 -0.039124 0
11.100000 -0.024169 0
11.105000 -0.005846 0
11.110000 0.015948 0
11.115000 0.041053 0
11.120000 0.068978 0
11.125000 0.098878 0
11.130000 0.129555 0
11.135000 0.159516 0
11.140000 0.187086 0
11.145000 0.210549 0
11.150000 0.228330 0
11.155000 0.239164 0
11.160000 0.242244 1
11.165000 0.237326 0
11.170000 0.224752 0
11.175000 0.205418 0
11.180000 0.180662 0
11.185000 0.152113 0
11.190000 0.121508 0
11.195000 0.090483 0
11.200000 0.060333 0
11.205000 0.031647 0
11.210000 0.003759 0
11.215000 -0.025829 0
11.220000 -0.061341 0
11.225000 -0.106771 0
11.230000 -0.161610 0
11.235000 -0.216154 0
11.240000 -0.250127 2
11.245000 -0.236576 0
11.250000 -0.148774 0
11.255000 0.032300 0
11.260000 0.307290 0
11.265000 0.642634 0
11.270000 0.961235 0
11.275000 1.161157 0
11.280000 1.165122 3
11.285000 0.963562 0
11.290000 0.629057 0
11.295000 0.269987 0
11.300000 -0.027190 0
11.305000 -0.220014 0
11.310000 -0.302921 4
11.315000 -0.294742 0
11.320000 -0.229359 0
11.325000 -0.144255 0
11.330000 -0.067336 0
11.335000 -0.010099 0
11.340000 0.029268 0
11.345000 0.057961 0
11.350000 0.082489 0
11.355000 0.106654 0
11.360000 0.132035 0
11.365000 0.159006 0
11.370000 0.187412 0
11.375000 0.216871 0
11.380000 0.246875 0
11.385000 0.276830 0
11.390000 0.306074 0
11.395000 0.333903 0
11.400000 0.359594 0
11.405000 0.382441 0
11.410000 0.401781 0
11.415000 0.417027 0
11.420000 0.427697 0
11.425000 0.433436 0
11.430000 0.434039 5
11.435000 0.429458 0
11.440000 0.419807 0
11.445000 0.405356 0
11.450000 0.386517 0
11.455000 0.363825 0
11.460000 0.337913 0
11.465000 0.309478 0
11.470000 0.279253 0
11.475000 0.247975 0
11.480000 0.216353 0
11.485000 0.185047 0
11.490000 0.154641 0
11.495000 0.125632 0
11.500000 0.098417 0
11.505000 0.073295 0
11.510000 0.050463 0
11.515000 0.030025 0
11.520000 0.012000 0
11.525000 -0.003662 0
11.530000 -0.017070 0
11.535000 -0.028375 0
11.540000 -0.037760 0
11.545000 -0.045424 0
11.550000 -0.051573 0
11.555000 -0.056411 0
11.560000 -0.060132 0
11.565000 -0.062917 0
11.570000 -0.064929 0
11.575000 -0.066311 0
11.580000 -0.067188 0
11.585000 -0.066677 0
11.590000 -0.065935 0
11.595000 -0.065197 0
11.600000 -0.064462 0
11.605000 -0.063731 0
11.610000 -0.063003 0
11.615000 -0.062279 0
11.620000 -0.061558 0
11.625000 -0.060840 0
11.630000 -0.060123 0
11.635000 -0.059406 0
11.640000 -0.058685 0
11.645000 -0.057954 0
11.650000 -0.057200 0
11.655000 -0.056404 0
11.660000 -0.055532 0
11.665000 -0.054531 0
11.670000 -0.053320 0
11.675000 -0.051778 0
11.680000 -0.049732 0
11.685000 -0.046947 0
11.690000 -0.043115 0
11.695000 -0.037854 0
11.700000 -0.030720 0
11.705000 -0.021223 0
11.710000 -0.008882 0
11.715000 0.006723 0
11.720000 0.025864 0
11.725000 0.048582 0
11.730000 0.074602 0
11.735000 0.103272 0
11.740000 0.133540 0
11.745000 0.163987 0
11.750000 0.192910 0
11.755000 0.218475 0
11.760000 0.238901 0
11.765000 0.252661 0
11.770000 0.258673 1
11.775000 0.256436 0
11.780000 0.246098 0
11.785000 0.228441 0
11.790000 0.204777 0
11.795000 0.176789 0
11.800000 0.146326 0
11.805000 0.115173 0
11.810000 0.084783 0
11.815000 0.055884 0
11.820000 0.027875 0
11.825000 -0.001841 0
11.830000 -0.037767 0
11.835000 -0.084062 0
11.840000 -0.139610 0
11.845000 -0.192832 0
11.850000 -0.220733 2
11.855000 -0.194013 0
11.860000 -0.085136 0
11.865000 0.122712 0
11.870000 0.421787 0
11.875000 0.761800 0
11.880000 1.047134 0
11.885000 1.172010 3
11.890000 1.084341 0
11.895000 0.815727 0
11.900000 0.458937 0
11.905000 0.115030 0
11.910000 -0.148091 0
11.915000 -0.303606 0
11.920000 -0.355107 4
11.925000 -0.326147 0
11.930000 -0.251646 0
11.935000 -0.166320 0
11.940000 -0.093280 0
11.945000 -0.040050 0
11.950000 -0.003116 0
11.955000 0.024661 0
11.960000 0.049139 0
11.965000 0.073586 0
11.970000 0.099314 0
11.975000 0.126599 0
11.980000 0.155264 0
11.985000 0.184930 0
11.990000 0.215107 0
11.995000 0.245219 0
12.000000 0.274632 0
12.005000 0.302669 0
12.010000 0.328639 0
12.015000 0.351859 0
12.020000 0.371691 0
12.025000 0.387562 0
12.030000 0.398997 0
12.035000 0.405640 0
12.040000 0.407271 5
12.045000 0.403817 0
12.050000 0.395359 0
12.055000 0.382126 0
12.060000 0.364484 0
12.065000 0.342920 0
12.070000 0.318019 0
12.075000 0.290435 0
12.080000 0.260866 0
12.085000 0.230021 0
12.090000 0.198594 0
12.095000 0.167239 0
12.100000 0.136548 0
12.105000 0.107033 0
12.110000 0.079118 0
12.115000 0.053134 0
12.120000 0.029314 0
12.125000 0.007801 0
12.130000 -0.011346 0
12.135000 -0.028142 0
12.140000 -0.042661 0
12.145000 -0.055029 0
12.150000 -0.065403 0
12.155000 -0.073968 0
12.160000 -0.080918 0
12.165000 -0.086452 0
12.170000 -0.090762 0
12.175000 -0.094032 0
12.180000 -0.096432 0
12.185000 -0.098112 0
12.190000 -0.099206 0
12.195000 -0.099830 0
12.200000 -0.099144 0
12.205000 -0.098240 0
12.210000 -0.097340 0
12.215000 -0.096445 0
12.220000 -0.095555 0
12.225000 -0.094668 0
12.230000 -0.093786 0
12.235000 -0.092908 0
12.240000 -0.092033 0
12.245000 -0.091161 0
12.250000 -0.090289 0
12.255000 -0.089415 0
12.260000 -0.088531 0
12.265000 -0.087627 0
12.270000 -0.086685 0
12.275000 -0.085674 0
12.280000 -0.084545 0
12.285000 -0.083225 0
12.290000 -0.081605 0
12.295000 -0.079527 0
12.300000 -0.076780 0
12.305000 -0.073083 0
12.310000 -0.068087 0
12.315000 -0.061377 0
12.320000 -0.052494 0
12.325000 -0.040966 0
12.330000 -0.026364 0
12.335000 -0.008370 0
12.340000 0.013144 0
12.345000 0.038038 0
12.350000 0.065834 0
12.355000 0.095683 0
12.360000 0.126366 0
12.365000 0.156361 0
12.370000 0.183944 0
12.375000 0.207355 0
12.380000 0.224977 0
12.385000 0.235521 0
12.390000 0.238182 1
12.395000 0.232739 0
12.400000 0.219586 0
12.405000 0.199684 0
12.410000 0.174446 0
12.415000 0.145565 0
12.420000 0.114823 0
12.425000 0.083871 0
12.430000 0.053956 0
12.435000 0.025513 0
12.440000 -0.002445 0
12.445000 -0.032876 0
12.450000 -0.070311 0
12.455000 -0.118263 0
12.460000 -0.174352 0
12.465000 -0.225838 0
12.470000 -0.249525 2
12.475000 -0.217055 0
12.480000 -0.102433 0
12.485000 0.109572 0
12.490000 0.410297 0
12.495000 0.750531 0
12.500000 1.038290 0
12.505000 1.171331 3
12.510000 1.090619 0
12.515000 0.823585 0
12.520000 0.466504 0
12.525000 0.124583 0
12.530000 -0.132744 0
12.535000 -0.279552 0
12.540000 -0.321560 4
12.545000 -0.285026 0
12.550000 -0.207107 0
12.555000 -0.122875 0
12.560000 -0.053697 0
12.565000 -0.004664 0
12.570000 0.029303 0
12.575000 0.055638 0
12.580000 0.079764 0
12.585000 0.104417 0
12.590000 0.130548 0
12.595000 0.158246 0
12.600000 0.187234 0
12.605000 0.217067 0
12.610000 0.247192 0
12.615000 0.276981 0
12.620000 0.305746 0
12.625000 0.332768 0
12.630000 0.357326 0
12.635000 0.378726 0
12.640000 0.396332 0
12.645000 0.409599 0
12.650000 0.418099 0
12.655000 0.421544 5
12.660000 0.419799 0
12.665000 0.412891 0
12.670000 0.401009 0
12.675000 0.384493 0
12.680000 0.363819 0
12.685000 0.339574 0
12.690000 0.312427 0
12.695000 0.283101 0
12.700000 0.252337 0
12.705000 0.220866 0
12.710000 0.189378 0
12.715000 0.158502 0
12.720000 0.128783 0
12.725000 0.100672 0
12.730000 0.074520 0
12.735000 0.050575 0
12.740000 0.028986 0
12.745000 0.009816 0
12.750000 -0.006953 0
12.755000 -0.021402 0
12.760000 -0.033666 0
12.765000 -0.043914 0
12.770000 -0.052338 0
12.775000 -0.059143 0
12.780000 -0.064537 0
12.785000 -0.068720 0
12.790000 -0.071880 0
12.795000 -0.074189 0
12.800000 -0.075803 0
12.805000 -0.076853 0
12.810000 -0.077255 0
12.815000 -0.076460 0
12.820000 -0.075669 0
12.825000 -0.074882 0
12.830000 -0.074099 0
12.835000 -0.073320 0
12.840000 -0.072544 0
12.845000 -0.071772 0
12.850000 -0.071004 0
12.855000 -0.070237 0
12.860000 -0.069472 0
12.865000 -0.068705 0
12.870000 -0.067931 0
12.875000 -0.067141 0
12.880000 -0.066318 0
12.885000 -0.065437 0
12.890000 -0.064452 0
12.895000 -0.063297 0
12.900000 -0.061868 0
12.905000 -0.060015 0
12.910000 -0.057531 0
12.915000 -0.054138 0
12.920000 -0.049483 0
12.925000 -0.043144 0
12.930000 -0.034645 0
12.935000 -0.023492 0
12.940000 -0.009229 0
12.945000 0.008489 0
12.950000 0.029809 0
12.955000 0.054593 0
12.960000 0.082344 0
12.965000 0.112169 0
12.970000 0.142781 0
12.975000 0.172570 0
12.980000 0.199724 0
12.985000 0.222411 0
12.990000 0.238972 0
12.995000 0.248126 0
13.000000 0.249132 1
13.005000 0.241885 0
13.010000 0.226933 0
13.015000 0.205406 0
13.020000 0.178879 0
13.025000 0.149169 0
13.030000 0.118122 0
13.035000 0.087358 0
13.040000 0.057936 0
13.045000 0.029828 0
13.050000 0.001213 0
13.055000 -0.031852 0
13.060000 -0.074112 0
13.065000 -0.127023 0
13.070000 -0.183122 0
13.075000 -0.223080 2
13.080000 -0.218835 0
13.085000 -0.141166 0
13.090000 0.031766 0
13.095000 0.302732 0
13.100000 0.637584 0
13.105000 0.954011 0
13.110000 1.142873 3
13.115000 1.130093 0
13.120000 0.918192 0
13.125000 0.581487 0
13.130000 0.222364 0
13.135000 -0.077610 0
13.140000 -0.277229 0
13.145000 -0.369551 0
13.150000 -0.370603 4
13.155000 -0.311083 0
13.160000 -0.226669 0
13.165000 -0.146093 0
13.170000 -0.083509 0
13.175000 -0.039579 0
13.180000 -0.008149 0
13.185000 0.017489 0
13.190000 0.041784 0
13.195000 0.066865 0
13.200000 0.093427 0
13.205000 0.121481 0
13.210000 0.150744 0
13.215000 0.180791 0
13.220000 0.211100 0
13.225000 0.241082 0
13.230000 0.270094 0
13.235000 0.297464 0
13.240000 0.322517 0
13.245000 0.344596 0
13.250000 0.363098 0
13.255000 0.377495 0
13.260000 0.387361 0
13.265000 0.392392 0
13.270000 0.392422 5
13.275000 0.387429 0
13.280000 0.377539 0
13.285000 0.363019 0
13.290000 0.344267 0
13.295000 0.321788 0
13.300000 0.296177 0
13.305000 0.268090 0
13.310000 0.238217 0
13.315000 0.207250 0
13.320000 0.175862 0
13.325000 0.144681 0
13.330000 0.114272 0
13.335000 0.085120 0
13.340000 0.057621 0
13.345000 0.032083 0
13.350000 0.008717 0
13.355000 -0.012351 0
13.360000 -0.031074 0
13.365000 -0.047477 0
13.370000 -0.061639 0
13.375000 -0.073688 0
13.380000 -0.083784 0
13.385000 -0.092106 0
13.390000 -0.098848 0
13.395000 -0.104202 0
13.400000 -0.108358 0
13.405000 -0.111494 0
13.410000 -0.113776 0
13.415000 -0.115351 0
13.420000 -0.116350 0
13.425000 -0.116885 0
13.430000 -0.116114 0
13.435000 -0.115125 0
13.440000 -0.114141 0
13.445000 -0.113162 0
13.450000 -0.112188 0
13.455000 -0.111219 0
13.460000 -0.110255 0
13.465000 -0.109294 0
13.470000 -0.108338 0
13.475000 -0.107385 0
13.480000 -0.106433 0
13.485000 -0.105479 0
13.490000 -0.104517 0
13.495000 -0.103538 0
13.500000 -0.102524 0
13.505000 -0.101448 0
13.510000 -0.100266 0
13.515000 -0.098910 0
13.520000 -0.097279 0
13.525000 -0.095232 0
13.530000 -0.092570 0
13.535000 -0.089035 0
13.540000 -0.084298 0
13.545000 -0.077967 0
13.550000 -0.069601 0
13.555000 -0.058736 0
13.560000 -0.044936 0
13.565000 -0.027851 0
13.570000 -0.007296 0
13.575000 0.016676 0
13.580000 0.043704 0
13.585000 0.073069 0
13.590000 0.103694 0
13.595000 0.134175 0
13.600000 0.162876 0
13.605000 0.188067 0
13.610000 0.208090 0
13.615000 0.221544 0
13.620000 0.227441 1
13.625000 0.225331 0
13.630000 0.215357 0
13.635000 0.198240 0
13.640000 0.175193 0
13.645000 0.147777 0
13.650000 0.117725 0
13.655000 0.086741 0
13.660000 0.056272 0
13.665000 0.027188 0
13.670000 -0.000711 0
13.675000 -0.029317 0
13.680000 -0.062445 0
13.685000 -0.104542 0
13.690000 -0.157016 0
13.695000 -0.213252 0
13.700000 -0.255832 0
13.705000 -0.258946 2
13.710000 -0.194881 0
13.715000 -0.041405 0
13.720000 0.208841 0
13.725000 0.533373 0
13.730000 0.866435 0
13.735000 1.108349 0
13.740000 1.168981 3
13.745000 1.019408 0
13.750000 0.712769 0
13.755000 0.350222 0
13.760000 0.025537 0
13.765000 -0.206346 0
13.770000 -0.329129 0
13.775000 -0.353303 4
13.780000 -0.306790 0
13.785000 -0.225761 0
13.790000 -0.142401 0
13.795000 -0.075117 0
13.800000 -0.027398 0
13.805000 0.006070 0
13.810000 0.032375 0
13.815000 0.056609 0
13.820000 0.081358 0
13.825000 0.107542 0
13.830000 0.135260 0
13.835000 0.164262 0
13.840000 0.194131 0
13.845000 0.224349 0
13.850000 0.254323 0
13.855000 0.283405 0
13.860000 0.310911 0
13.865000 0.336150 0
13.870000 0.358451 0
13.875000 0.377192 0
13.880000 0.391827 0
13.885000 0.401912 0
13.890000 0.407131 0
13.895000 0.407303 5
13.900000 0.402402 0
13.905000 0.392551 0
13.910000 0.378017 0
13.915000 0.359205 0
13.920000 0.336629 0
13.925000 0.310898 0
13.930000 0.282680 0
13.935000 0.252677 0
13.940000 0.221598 0
13.945000 0.190126 0
13.950000 0.158899 0
13.955000 0.128486 0
13.960000 0.099377 0
13.965000 0.071970 0
13.970000 0.046566 0
13.975000 0.023373 0
13.980000 0.002511 0
13.985000 -0.015984 0
13.990000 -0.032144 0
13.995000 -0.046059 0
14.000000 -0.057864 0
14.005000 -0.067725 0
14.010000 -0.075830 0
14.015000 -0.082376 0
14.020000 -0.087559 0
14.025000 -0.091570 0
14.030000 -0.094589 0
14.035000 -0.096781 0
14.040000 -0.098291 0
14.045000 -0.099250 0
14.050000 -0.099559 0
14.055000 -0.098653 0
14.060000 -0.097752 0
14.065000 -0.096855 0
14.070000 -0.095962 0
14.075000 -0.095074 0
14.080000 -0.094190 0
14.085000 -0.093310 0
14.090000 -0.092434 0
14.095000 -0.091561 0
14.100000 -0.090691 0
14.105000 -0.089820 0
14.110000 -0.088945 0
14.115000 -0.088059 0
14.120000 -0.087148 0
14.125000 -0.086193 0
14.130000 -0.085157 0
14.135000 -0.083989 0
14.140000 -0.082605 0
14.145000 -0.080885 0
14.150000 -0.078659 0
14.155000 -0.075699 0
14.160000 -0.071707 0
14.165000 -0.066316 0
14.170000 -0.059099 0
14.175000 -0.049589 0
14.180000 -0.037320 0
14.185000 -0.021886 0
14.190000 -0.003007 0
14.195000 0.019382 0
14.200000 0.045063 0
14.205000 0.073467 0
14.210000 0.103650 0
14.215000 0.134313 0
14.220000 0.163871 0
14.225000 0.190578 0
14.230000 0.212693 0
14.235000 0.228667 0
14.240000 0.237319 0
14.245000 0.237980 1
14.250000 0.230583 0
14.255000 0.215667 0
14.260000 0.194315 0
14.265000 0.168023 0
14.270000 0.138525 0
14.275000 0.107590 0
14.280000 0.076796 0
14.285000 0.047237 0
14.290000 0.019068 0
14.295000 -0.009137 0
14.300000 -0.040810 0
14.305000 -0.080572 0
14.310000 -0.131017 0
14.315000 -0.187602 0
14.320000 -0.234899 0
14.325000 -0.247887 2
14.330000 -0.198108 0
14.335000 -0.061286 0
14.340000 0.173606 0
14.345000 0.489769 0
14.350000 0.827159 0
14.355000 1.087196 0
14.360000 1.173407 3
14.365000 1.051541 0
14.370000 0.764660 0
14.375000 0.404662 0
14.380000 0.064942 0
14.385000 -0.193576 0
14.390000 -0.347291 0
14.395000 -0.400000 4
14.400000 -0.373696 0
14.405000 -0.301043 0
14.410000 -0.215236 0
14.415000 -0.139545 0
14.420000 -0.082898 0
14.425000 -0.043161 0
14.430000 -0.013768 0
14.435000 0.011292 0
14.440000 0.035699 0
14.445000 0.061107 0
14.450000 0.088003 0
14.455000 0.116326 0
14.460000 0.145776 0
14.465000 0.175927 0
14.470000 0.206272 0
14.475000 0.236236 0
14.480000 0.265201 0
14.485000 0.292518 0
14.490000 0.317540 0
14.495000 0.339637 0
14.500000 0.358230 0
14.505000 0.372810 0
14.510000 0.382966 0
14.515000 0.388397 0
14.520000 0.388934 5
14.525000 0.384543 0
14.530000 0.375330 0
14.535000 0.361533 0
14.540000 0.343515 0
14.545000 0.321746 0
14.550000 0.296785 0
14.555000 0.269249 0
14.560000 0.239797 0
14.565000 0.209096 0
14.570000 0.177801 0
14.575000 0.146529 0
14.580000 0.115845 0
14.585000 0.086240 0
14.590000 0.058127 0
14.595000 0.031833 0
14.600000 0.007596 0
14.605000 -0.014427 0
14.610000 -0.034162 0
14.615000 -0.051602 0
14.620000 -0.066800 0
14.625000 -0.079859 0
14.630000 -0.090916 0
14.635000 -0.100136 0
14.640000 -0.107699 0
14.645000 -0.113791 0
14.650000 -0.118598 0
14.655000 -0.122297 0
14.660000 -0.125057 0
14.665000 -0.127029 0
14.670000 -0.128351 0
14.675000 -0.129144 0
14.680000 -0.129302 0
14.685000 -0.128248 0
14.690000 -0.127199 0
14.695000 -0.126155 0
14.700000 -0.125116 0
14.705000 -0.124082 0
14.710000 -0.123054 0
14.715000 -0.122030 0
14.720000 -0.121011 0
14.725000 -0.119996 0
14.730000 -0.118985 0
14.735000 -0.117975 0
14.740000 -0.116963 0
14.745000 -0.115944 0
14.750000 -0.114908 0
14.755000 -0.113839 0
14.760000 -0.112711 0
14.765000 -0.111483 0
14.770000 -0.110091 0
14.775000 -0.108443 0
14.780000 -0.106407 0
14.785000 -0.103800 0
14.790000 -0.100383 0
14.795000 -0.095852 0
14.800000 -0.089843 0
14.805000 -0.081939 0
14.810000 -0.071696 0
14.815000 -0.058683 0
14.820000 -0.042536 0
14.825000 -0.023023 0
14.830000 -0.000114 0
14.835000 0.025945 0
14.840000 0.054589 0
14.845000 0.084908 0
14.850000 0.115669 0
14.855000 0.145376 0
14.860000 0.172389 0
14.865000 0.195061 0
14.870000 0.211909 0
14.875000 0.221772 0
14.880000 0.223944 1
14.885000 0.218258 0
14.890000 0.205108 0
14.895000 0.185406 0
14.900000 0.160473 0
14.905000 0.131897 0
14.910000 0.101357 0
14.915000 0.070432 0
14.920000 0.040371 0
14.925000 0.011753 0
14.930000 -0.016024 0
14.935000 -0.045295 0
14.940000 -0.080083 0
14.945000 -0.124403 0
14.950000 -0.178391 0
14.955000 -0.233791 0
14.960000 -0.272159 2
14.965000 -0.267947 0
14.970000 -0.194787 0
14.975000 -0.032358 0
14.980000 0.224522 0
14.985000 0.551626 0
14.990000 0.883538 0
14.995000 1.123778 0
15.000000 1.185961 3
15.005000 1.041614 0
15.010000 0.740054 0
15.015000 0.377811 0
15.020000 0.046932 0
15.025000 -0.196240 0
15.030000 -0.332674 0
15.035000 -0.369806 4
15.040000 -0.332528 0
15.045000 -0.255088 0
15.050000 -0.170071 0
15.055000 -0.098307 0
15.060000 -0.046015 0
15.065000 -0.009442 0
15.070000 0.018302 0
15.075000 0.042818 0
15.080000 0.067265 0
15.085000 0.092939 0
15.090000 0.120136 0
15.095000 0.148707 0
15.100000 0.178300 0
15.105000 0.208454 0
15.110000 0.238627 0
15.115000 0.268218 0
15.120000 0.296583 0
15.125000 0.323059 0
15.130000 0.346989 0
15.135000 0.367745 0
15.140000 0.384761 0
15.145000 0.397553 0
15.150000 0.405744 0
15.155000 0.409079 5
15.160000 0.407442 0
15.165000 0.400857 0
15.170000 0.389490 0
15.175000 0.373643 0
15.180000 0.353738 0
15.185000 0.330297 0
15.190000 0.303921 0
15.195000 0.275263 0
15.200000 0.245002 0
15.205000 0.213816 0
15.210000 0.182355 0
15.215000 0.151223 0
15.220000 0.120958 0
15.225000 0.092018 0
15.230000 0.064778 0
15.235000 0.039521 0
15.240000 0.016440 0
15.245000 -0.004352 0
15.250000 -0.022823 0
15.255000 -0.039002 0
15.260000 -0.052975 0
15.265000 -0.064872 0
15.270000 -0.074850 0
15.275000 -0.083088 0
15.280000 -0.089774 0
15.285000 -0.095100 0
15.290000 -0.099248 0
15.295000 -0.102395 0
15.300000 -0.104701 0
15.305000 -0.106310 0
15.310000 -0.107350 0
15.315000 -0.107932 0
15.320000 -0.107205 0
15.325000 -0.106261 0
15.330000 -0.105321 0
15.335000 -0.104386 0
15.340000 -0.103456 0
15.345000 -0.102530 0
15.350000 -0.101609 0
15.355000 -0.100692 0
15.360000 -0.099779 0
15.365000 -0.098868 0
15.370000 -0.097959 0
15.375000 -0.097049 0
15.380000 -0.096131 0
15.385000 -0.095198 0
15.390000 -0.094234 0
15.395000 -0.093213 0
15.400000 -0.092096 0
15.405000 -0.090820 0
15.410000 -0.089296 0
15.415000 -0.087391 0
15.420000 -0.084925 0
15.425000 -0.081657 0
15.430000 -0.077282 0
15.435000 -0.071429 0
15.440000 -0.063677 0
15.445000 -0.053572 0
15.450000 -0.040675 0
15.455000 -0.024612 0
15.460000 -0.005148 0
15.465000 0.017744 0
15.470000 0.043808 0
15.475000 0.072456 0
15.480000 0.102747 0
15.485000 0.133408 0
15.490000 0.162901 0
15.495000 0.189548 0
15.500000 0.211676 0
15.505000 0.227798 0
15.510000 0.236769 0
15.515000 0.237926 1
15.520000 0.231169 0
15.525000 0.216970 0
15.530000 0.196324 0
15.535000 0.170629 0
15.540000 0.141532 0
15.545000 0.110740 0
15.550000 0.079822 0
15.555000 0.049954 0
15.560000 0.021532 0
15.565000 -0.006386 0
15.570000 -0.036602 0
15.575000 -0.073445 0
15.580000 -0.120486 0
15.585000 -0.176116 0
15.590000 -0.229226 0
15.595000 -0.258577 2
15.600000 -0.237202 0
15.605000 -0.139261 0
15.610000 0.052558 0
15.615000 0.336033 0
15.620000 0.673810 0
15.625000 0.986133 0
15.630000 1.172297 3
15.635000 1.161544 0
15.640000 0.954284 0
15.645000 0.620848 0
15.650000 0.260098 0
15.655000 -0.047022 0
15.660000 -0.257619 0
15.665000 -0.362261 0
15.670000 -0.374254 4
15.675000 -0.321761 0
15.680000 -0.239240 0
15.685000 -0.156334 0
15.690000 -0.089565 0
15.695000 -0.041828 0
15.700000 -0.008038 0
15.705000 0.018547 0
15.710000 0.042876 0
15.715000 0.067556 0
15.720000 0.093577 0
15.725000 0.121103 0
15.730000 0.149930 0
15.735000 0.179690 0
15.740000 0.209910 0
15.745000 0.240047 0
15.750000 0.269498 0
15.755000 0.297626 0
15.760000 0.323778 0
15.765000 0.347310 0
15.770000 0.367612 0
15.775000 0.384135 0
15.780000 0.396416 0
15.785000 0.404097 0
15.790000 0.406942 5
15.795000 0.404850 0
15.800000 0.397859 0
15.805000 0.386145 0
15.810000 0.370014 0
15.815000 0.349888 0
15.820000 0.326288 0
15.825000 0.299808 0
15.830000 0.271094 0
15.835000 0.240813 0
15.840000 0.209632 0
15.845000 0.178190 0
15.850000 0.147081 0
15.855000 0.116832 0
15.860000 0.087898 0
15.865000 0.060646 0
15.870000 0.035356 0
15.875000 0.012221 0
15.880000 -0.008646 0
15.885000 -0.027208 0
15.890000 -0.043494 0
15.895000 -0.057585 0
15.900000 -0.069605 0
15.905000 -0.079708 0
15.910000 -0.088069 0
15.915000 -0.094872 0
15.920000 -0.100306 0
15.925000 -0.104553 0
15.930000 -0.107786 0
15.935000 -0.110165 0
15.940000 -0.111834 0
15.945000 -0.112922 0
15.950000 -0.113540 0
15.955000 -0.112795 0
15.960000 -0.111823 0
15.965000 -0.110856 0
15.970000 -0.109893 0
15.975000 -0.108936 0
15.980000 -0.107983 0
15.985000 -0.107034 0
15.990000 -0.106090 0
15.995000 -0.105150 0
16.000000 -0.104214 0
16.005000 -0.103279 0
16.010000 -0.102344 0
16.015000 -0.101404 0
16.020000 -0.100451 0
16.025000 -0.099472 0
16.030000 -0.098446 0
16.035000 -0.097337 0
16.040000 -0.096093 0
16.045000 -0.094634 0
16.050000 -0.092842 0
16.055000 -0.090558 0
16.060000 -0.087564 0
16.065000 -0.083580 0
16.070000 -0.078266 0
16.075000 -0.071219 0
16.080000 -0.062002 0
16.085000 -0.050172 0
16.090000 -0.035331 0
16.095000 -0.017185 0
16.100000 0.004380 0
16.105000 0.029230 0
16.110000 0.056924 0
16.115000 0.086678 0
16.120000 0.117371 0
16.125000 0.147590 0
16.130000 0.175727 0
16.135000 0.200113 0
16.140000 0.219181 0
16.145000 0.231630 0
16.150000 0.236572 1
16.155000 0.233639 0
16.160000 0.223024 0
16.165000 0.205464 0
16.170000 0.182155 0
16.175000 0.154614 0
16.180000 0.124514 0
16.185000 0.093498 0
16.190000 0.062966 0
16.195000 0.033782 0
16.200000 0.005821 0
16.205000 -0.022617 0
16.210000 -0.055073 0
16.215000 -0.095909 0
16.220000 -0.147119 0
16.225000 -0.203670 0
16.230000 -0.250395 0
16.235000 -0.263426 2
16.240000 -0.215823 0
16.245000 -0.084380 0
16.250000 0.142426 0
16.255000 0.451697 0
16.260000 0.791615 0
16.265000 1.072322 0
16.270000 1.198083 3
16.275000 1.116543 0
16.280000 0.854043 0
16.285000 0.499245 0
16.290000 0.151404 0
16.295000 -0.120512 0
16.300000 -0.287317 0
16.305000 -0.350062 4
16.310000 -0.329800 0
16.315000 -0.259607 0
16.320000 -0.174057 0
16.325000 -0.097928 0
16.330000 -0.041027 0
16.335000 -0.001380 0
16.340000 0.027758 0
16.345000 0.052571 0
16.350000 0.076797 0
16.355000 0.102085 0
16.360000 0.128895 0
16.365000 0.157140 0
16.370000 0.186495 0
16.375000 0.216512 0
16.380000 0.246658 0
16.385000 0.276331 0
16.390000 0.304888 0
16.395000 0.331658 0
16.400000 0.355972 0
16.405000 0.377190 0
16.410000 0.394728 0
16.415000 0.408080 0
16.420000 0.416848 0
16.425000 0.420758 5
16.430000 0.419673 0
16.435000 0.413598 0
16.440000 0.402688 0
16.445000 0.387231 0
16.450000 0.367643 0
16.455000 0.344443 0
16.460000 0.318234 0
16.465000 0.289673 0
16.470000 0.259446 0
16.475000 0.228240 0
16.480000 0.196716 0
16.485000 0.165489 0
16.490000 0.135106 0
16.495000 0.106038 0
16.500000 0.078665 0
16.505000 0.053279 0
16.510000 0.030078 0
16.515000 0.009177 0
16.520000 -0.009388 0
16.525000 -0.025647 0
16.530000 -0.039687 0
16.535000 -0.051638 0
16.540000 -0.061660 0
16.545000 -0.069934 0
16.550000 -0.076651 0
16.555000 -0.082004 0
16.560000 -0.086179 0
16.565000 -0.089353 0
16.570000 -0.091687 0
16.575000 -0.093327 0
16.580000 -0.094401 0
16.585000 -0.095019 0
16.590000 -0.094353 0
16.595000 -0.093473 0
16.600000 -0.092597 0
16.605000 -0.091726 0
16.610000 -0.090859 0
16.615000 -0.089996 0
16.620000 -0.089137 0
16.625000 -0.088282 0
16.630000 -0.087430 0
16.635000 -0.086581 0
16.640000 -0.085733 0
16.645000 -0.084882 0
16.650000 -0.084023 0
16.655000 -0.083146 0
16.660000 -0.082234 0
16.665000 -0.081259 0
16.670000 -0.080179 0
16.675000 -0.078925 0
16.680000 -0.077400 0
16.685000 -0.075462 0
16.690000 -0.072916 0
16.695000 -0.069508 0
16.700000 -0.064913 0
16.705000 -0.058745 0
16.710000 -0.050568 0
16.715000 -0.039921 0
16.720000 -0.026369 0
16.725000 -0.009561 0
16.730000 0.010698 0
16.735000 0.034372 0
16.740000 0.061122 0
16.745000 0.090259 0
16.750000 0.120739 0
16.755000 0.151191 0
16.760000 0.180006 0
16.765000 0.205471 0
16.770000 0.225928 0
16.775000 0.239957 0
16.780000 0.246533 1
16.785000 0.245155 0
16.790000 0.235903 0
16.795000 0.219435 0
16.800000 0.196903 0
16.805000 0.169826 0
16.810000 0.139913 0
16.815000 0.108868 0
16.820000 0.078174 0
16.825000 0.048794 0
16.830000 0.020711 0
16.835000 -0.007684 0
16.840000 -0.039927 0
16.845000 -0.080509 0
16.850000 -0.131615 0
16.855000 -0.188226 0
16.860000 -0.234783 0
16.865000 -0.246685 2
16.870000 -0.196249 0
16.875000 -0.059921 0
16.880000 0.173158 0
16.885000 0.487375 0
16.890000 0.825816 0
16.895000 1.093623 0
16.900000 1.195053 3
16.905000 1.085715 0
16.910000 0.803341 0
16.915000 0.443563 0
16.920000 0.104927 0
16.925000 -0.149063 0
16.930000 -0.295037 0
16.935000 -0.338669 4
16.940000 -0.304682 0
16.945000 -0.228243 0
16.950000 -0.143313 0
16.955000 -0.071706 0
16.960000 -0.019881 0
16.965000 0.016139 0
16.970000 0.043475 0
16.975000 0.067797 0
16.980000 0.092209 0
16.985000 0.117932 0
16.990000 0.145206 0
16.995000 0.173842 0
17.000000 0.203455 0
17.005000 0.233555 0
17.010000 0.263567 0
17.015000 0.292857 0
17.020000 0.320754 0
17.025000 0.346569 0
17.030000 0.369626 0
17.035000 0.389291 0
17.040000 0.404996 0
17.045000 0.416273 0
17.050000 0.422769 0
17.055000 0.424267 5
17.060000 0.420697 0
17.065000 0.412139 0
17.070000 0.398823 0
17.075000 0.381111 0
17.080000 0.359488 0
17.085000 0.334533 0
17.090000 0.306897 0
17.095000 0.277274 0
17.100000 0.246367 0
17.105000 0.214868 0
17.110000 0.183426 0
17.115000 0.152632 0
17.120000 0.122998 0
17.125000 0.094947 0
17.130000 0.068812 0
17.135000 0.044827 0
17.140000 0.023138 0
17.145000 0.003808 0
17.150000 -0.013176 0
17.155000 -0.027884 0
17.160000 -0.040439 0
17.165000 -0.050997 0
17.170000 -0.059739 0
17.175000 -0.066858 0
17.180000 -0.072550 0
17.185000 -0.077010 0
17.190000 -0.080420 0
17.195000 -0.082949 0
17.200000 -0.084749 0
17.205000 -0.085954 0
17.210000 -0.086681 0
17.215000 -0.086066 0
17.220000 -0.085227 0
17.225000 -0.084392 0
17.230000 -0.083562 0
17.235000 -0.082735 0
17.240000 -0.081913 0
17.245000 -0.081095 0
17.250000 -0.080280 0
17.255000 -0.079468 0
17.260000 -0.078659 0
17.265000 -0.077850 0
17.270000 -0.077039 0
17.275000 -0.076219 0
17.280000 -0.075381 0
17.285000 -0.074507 0
17.290000 -0.073569 0
17.295000 -0.072522 0
17.300000 -0.071296 0
17.305000 -0.069789 0
17.310000 -0.067853 0
17.315000 -0.065285 0
17.320000 -0.061819 0
17.325000 -0.057116 0
17.330000 -0.050776 0
17.335000 -0.042346 0
17.340000 -0.031357 0
17.345000 -0.017372 0
17.350000 -0.000049 0
17.355000 0.020779 0
17.360000 0.045024 0
17.365000 0.072277 0
17.370000 0.101763 0
17.375000 0.132337 0
17.380000 0.162537 0
17.385000 0.190679 0
17.390000 0.215005 0
17.395000 0.233866 0
17.400000 0.245900 0
17.405000 0.250197 1
17.410000 0.246411 0
17.415000 0.234805 0
17.420000 0.216219 0
17.425000 0.191971 0
17.430000 0.163699 0
17.435000 0.133173 0
17.440000 0.102083 0
17.445000 0.071792 0
17.450000 0.042968 0
17.455000 0.015031 0
17.460000 -0.014464 0
17.465000 -0.049778 0
17.470000 -0.095039 0
17.475000 -0.149862 0
17.480000 -0.204441 0
17.485000 -0.238073 2
17.490000 -0.223209 0
17.495000 -0.132659 0
17.500000 0.052573 0
17.505000 0.331956 0
17.510000 0.668887 0
17.515000 0.982087 0
17.520000 1.167478 3
17.525000 1.150048 0
17.530000 0.932095 0
17.535000 0.591853 0
17.540000 0.234400 0
17.545000 -0.058846 0
17.550000 -0.248629 0
17.555000 -0.330379 4
17.560000 -0.322536 0
17.565000 -0.257861 0
17.570000 -0.172743 0
17.575000 -0.094769 0
17.580000 -0.035937 0
17.585000 0.004851 0
17.590000 0.034417 0
17.595000 0.059291 0
17.600000 0.083470 0
17.605000 0.108714 0
17.610000 0.135508 0
17.615000 0.163761 0
17.620000 0.193132 0
17.625000 0.223151 0
17.630000 0.253259 0
17.635000 0.282830 0
17.640000 0.311189 0
17.645000 0.337642 0
17.650000 0.361496 0
17.655000 0.382095 0
17.660000 0.398844 0
17.665000 0.411239 0
17.670000 0.418894 0
17.675000 0.421554 5
17.680000 0.419114 0
17.685000 0.411623 0
17.690000 0.399279 0
17.695000 0.382424 0
17.700000 0.361525 0
17.705000 0.337155 0
17.710000 0.309961 0
17.715000 0.280640 0
17.720000 0.249906 0
17.725000 0.218463 0
17.730000 0.186980 0
17.735000 0.156063 0
17.740000 0.126245 0
17.745000 0.097969 0
17.750000 0.071582 0
17.755000 0.047337 0
17.760000 0.025390 0
17.765000 0.005813 0
17.770000 -0.011396 0
17.775000 -0.026307 0
17.780000 -0.039037 0
17.785000 -0.049744 0
17.790000 -0.058609 0
17.795000 -0.065826 0
17.800000 -0.071597 0
17.805000 -0.076116 0
17.810000 -0.079570 0
17.815000 -0.082131 0
17.820000 -0.083953 0
17.825000 -0.085173 0
17.830000 -0.085910 0
17.835000 -0.085300 0
17.840000 -0.084465 0
17.845000 -0.083634 0
17.850000 -0.082807 0
17.855000 -0.081984 0
17.860000 -0.081166 0
17.865000 -0.080351 0
17.870000 -0.079540 0
17.875000 -0.078732 0
17.880000 -0.077926 0
17.885000 -0.077121 0
17.890000 -0.076313 0
17.895000 -0.075495 0
17.900000 -0.074658 0
17.905000 -0.073783 0
17.910000 -0.072840 0
17.915000 -0.071781 0
17.920000 -0.070534 0
17.925000 -0.068988 0
17.930000 -0.066989 0
17.935000 -0.064324 0
17.940000 -0.060712 0
17.945000 -0.055803 0
17.950000 -0.049180 0
17.955000 -0.040380 0
17.960000 -0.028928 0
17.965000 -0.014392 0
17.970000 0.003549 0
17.975000 0.025024 0
17.980000 0.049889 0
17.985000 0.077661 0
17.990000 0.107477 0
17.995000 0.138107 0
18.000000 0.168008 0
18.005000 0.195444 0
18.010000 0.218641 0
18.015000 0.235980 0
18.020000 0.246175 0
18.025000 0.248438 1
18.030000 0.242572 0
18.035000 0.229002 0
18.040000 0.208722 0
18.045000 0.183174 0
18.050000 0.154077 0
18.055000 0.123223 0
18.060000 0.092257 0
18.065000 0.062394 0
18.070000 0.033991 0
18.075000 0.005917 0
18.080000 -0.024970 0
18.085000 -0.063286 0
18.090000 -0.112263 0
18.095000 -0.168695 0
18.100000 -0.218660 0
18.105000 -0.237976 2
18.110000 -0.197971 0
18.115000 -0.073170 0
18.120000 0.149893 0
18.125000 0.458637 0
18.130000 0.798007 0
18.135000 1.071622 0
18.140000 1.179161 3
18.145000 1.072592 0
18.150000 0.789876 0
18.155000 0.429781 0
18.160000 0.093573 0
18.165000 -0.154742 0
18.170000 -0.292921 0
18.175000 -0.328498 4
18.180000 -0.288352 0
18.185000 -0.209288 0
18.190000 -0.125335 0
18.195000 -0.056794 0
18.200000 -0.008196 0
18.205000 0.025611 0
18.210000 0.051931 0
18.215000 0.076074 0
18.220000 0.100731 0
18.225000 0.126847 0
18.230000 0.154518 0
18.235000 0.183480 0
18.240000 0.213297 0
18.245000 0.243434 0
18.250000 0.273273 0
18.255000 0.302144 0
18.260000 0.329341 0
18.265000 0.354154 0
18.270000 0.375898 0
18.275000 0.393941 0
18.280000 0.407737 0
18.285000 0.416852 0
18.290000 0.420983 5
18.295000 0.419978 0
18.300000 0.413842 0
18.305000 0.402736 0
18.310000 0.386972 0
18.315000 0.366997 0
18.320000 0.343371 0
18.325000 0.316738 0
18.330000 0.287802 0
18.335000 0.257288 0
18.340000 0.225921 0
18.345000 0.194390 0
18.350000 0.163327 0
18.355000 0.133289 0
18.360000 0.104744 0
18.365000 0.078061 0
18.370000 0.053511 0
18.375000 0.031266 0
18.380000 0.011410 0
18.385000 -0.006052 0
18.390000 -0.021185 0
18.395000 -0.034104 0
18.400000 -0.044967 0
18.405000 -0.053957 0
18.410000 -0.061273 0
18.415000 -0.067119 0
18.420000 -0.071694 0
18.425000 -0.075189 0
18.430000 -0.077779 0
18.435000 -0.079623 0
18.440000 -0.080859 0
18.445000 -0.081609 0
18.450000 -0.081018 0
18.455000 -0.080204 0
18.460000 -0.079395 0
18.465000 -0.078589 0
18.470000 -0.077788 0
18.475000 -0.076990 0
18.480000 -0.076196 0
18.485000 -0.075406 0
18.490000 -0.074618 0
18.495000 -0.073833 0
18.500000 -0.073047 0
18.505000 -0.072258 0
18.510000 -0.071458 0
18.515000 -0.070635 0
18.520000 -0.069771 0
18.525000 -0.068830 0
18.530000 -0.067761 0
18.535000 -0.066482 0
18.540000 -0.064874 0
18.545000 -0.062766 0
18.550000 -0.059927 0
18.555000 -0.056054 0
18.560000 -0.050773 0
18.565000 -0.043643 0
18.570000 -0.034185 0
18.575000 -0.021920 0
18.580000 -0.006432 0
18.585000 0.012559 0
18.590000 0.035108 0
18.595000 0.060967 0
18.600000 0.089520 0
18.605000 0.119761 0
18.610000 0.150314 0
18.615000 0.179521 0
18.620000 0.205576 0
18.625000 0.226706 0
18.630000 0.241368 0
18.635000 0.248433 1
18.640000 0.247330 0
18.645000 0.238121 0
18.650000 0.221496 0
18.655000 0.198685 0
18.660000 0.171305 0
18.665000 0.141170 0
18.670000 0.110070 0
18.675000 0.079517 0
18.680000 0.050394 0
18.685000 0.022404 0
18.690000 -0.006609 0
18.695000 -0.040812 0
18.700000 -0.084704 0
18.705000 -0.138763 0
18.710000 -0.194085 0
18.715000 -0.230231 2
18.720000 -0.219032 0
18.725000 -0.132153 0
18.730000 0.050564 0
18.735000 0.329208 0
18.740000 0.666252 0
18.745000 0.977370 0
18.750000 1.155201 3
18.755000 1.127396 0
18.760000 0.901306 0
18.765000 0.557880 0
18.770000 0.202105 0
18.775000 -0.086487 0
18.780000 -0.270631 0
18.785000 -0.347160 4
18.790000 -0.335458 0
18.795000 -0.268791 0
18.800000 -0.183413 0
18.805000 -0.106207 0
18.810000 -0.048365 0
18.815000 -0.008286 0
18.820000 0.020956 0
18.825000 0.045789 0
18.830000 0.070070 0
18.835000 0.095467 0
18.840000 0.122421 0
18.845000 0.150820 0
18.850000 0.180313 0
18.855000 0.210425 0
18.860000 0.240592 0
18.865000 0.270183 0
18.870000 0.298523 0
18.875000 0.324915 0
18.880000 0.348667 0
18.885000 0.369125 0
18.890000 0.385699 0
18.895000 0.397891 0
18.900000 0.405320 0
18.905000 0.407743 5
18.910000 0.405061 0
18.915000 0.397333 0
18.920000 0.384767 0
18.925000 0.367713 0
18.930000 0.346647 0
18.935000 0.322147 0
18.940000 0.294863 0
18.945000 0.265497 0
18.950000 0.234762 0
18.955000 0.203363 0
18.960000 0.171963 0
18.965000 0.141168 0
18.970000 0.111504 0
18.975000 0.083407 0
18.980000 0.057220 0
18.985000 0.033188 0
18.990000 0.011462 0
18.995000 -0.007890 0
19.000000 -0.024878 0
19.005000 -0.039573 0
19.010000 -0.052097 0
19.015000 -0.062608 0
19.020000 -0.071290 0
19.025000 -0.078339 0
19.030000 -0.083954 0
19.035000 -0.088332 0
19.040000 -0.091657 0
19.045000 -0.094100 0
19.050000 -0.095816 0
19.055000 -0.096938 0
19.060000 -0.097586 0
19.065000 -0.096912 0
19.070000 -0.096019 0
19.075000 -0.095131 0
19.080000 -0.094247 0
19.085000 -0.093367 0
19.090000 -0.092492 0
19.095000 -0.091621 0
19.100000 -0.090753 0
19.105000 -0.089889 0
19.110000 -0.089028 0
19.115000 -0.088167 0
19.120000 -0.087302 0
19.125000 -0.086429 0
19.130000 -0.085535 0
19.135000 -0.084601 0
19.140000 -0.083596 0
19.145000 -0.082471 0
19.150000 -0.081151 0
19.155000 -0.079521 0
19.160000 -0.077424 0
19.165000 -0.074640 0
19.170000 -0.070883 0
19.175000 -0.065796 0
19.180000 -0.058958 0
19.185000 -0.049902 0
19.190000 -0.038156 0
19.195000 -0.023292 0
19.200000 -0.005002 0
19.205000 0.016822 0
19.210000 0.042011 0
19.215000 0.070048 0
19.220000 0.100038 0
19.225000 0.130720 0
19.230000 0.160527 0
19.235000 0.187712 0
19.240000 0.210505 0
19.245000 0.227308 0
19.250000 0.236872 0
19.255000 0.238458 1
19.260000 0.231925 0
19.265000 0.217751 0
19.270000 0.196979 0
19.275000 0.171083 0
19.280000 0.141799 0
19.285000 0.110918 0
19.290000 0.080059 0
19.295000 0.050381 0
19.300000 0.022131 0
19.305000 -0.005994 0
19.310000 -0.037327 0
19.315000 -0.076521 0
19.320000 -0.126439 0
19.325000 -0.182994 0
19.330000 -0.231161 0
19.335000 -0.246004 2
19.340000 -0.198796 0
19.345000 -0.064770 0
19.350000 0.167760 0
19.355000 0.482719 0
19.360000 0.820426 0
19.365000 1.081793 0
19.370000 1.169181 3
19.375000 1.043705 0
19.380000 0.750566 0
19.385000 0.389111 0
19.390000 0.056975 0
19.395000 -0.185783 0
19.400000 -0.319224 0
19.405000 -0.351733 4
19.410000 -0.310160 0
19.415000 -0.230705 0
19.420000 -0.146648 0
19.425000 -0.077855 0
19.430000 -0.028847 0
19.435000 0.005351 0
19.440000 0.031926 0
19.445000 0.056185 0
19.450000 0.080868 0
19.455000 0.106969 0
19.460000 0.134617 0
19.465000 0.163571 0
19.470000 0.193414 0
19.475000 0.223628 0
19.480000 0.253617 0
19.485000 0.282727 0
19.490000 0.310271 0
19.495000 0.335550 0
19.500000 0.357888 0
19.505000 0.376655 0
19.510000 0.391300 0
19.515000 0.401376 0
19.520000 0.406563 0
19.525000 0.406681 5
19.530000 0.401704 0
19.535000 0.391758 0
19.540000 0.377117 0
19.545000 0.358190 0
19.550000 0.335502 0
19.555000 0.309665 0
19.560000 0.281358 0
19.565000 0.251290 0
19.570000 0.220174 0
19.575000 0.188698 0
19.580000 0.157502 0
19.585000 0.127157 0
19.590000 0.098150 0
19.595000 0.070875 0
19.600000 0.045631 0
19.605000 0.022620 0
19.610000 0.001955 0
19.615000 -0.016332 0
19.620000 -0.032281 0
19.625000 -0.045987 0
19.630000 -0.057589 0
19.635000 -0.067259 0
19.640000 -0.075186 0
19.645000 -0.081569 0
19.650000 -0.086608 0
19.655000 -0.090493 0
19.660000 -0.093403 0
19.665000 -0.095503 0
19.670000 -0.096937 0
19.675000 -0.097833 0
19.680000 -0.098102 0
19.685000 -0.097203 0
19.690000 -0.096309 0
19.695000 -0.095419 0
19.700000 -0.094533 0
19.705000 -0.093652 0
19.710000 -0.092775 0
19.715000 -0.091903 0
19.720000 -0.091033 0
19.725000 -0.090167 0
19.730000 -0.089303 0
19.735000 -0.088438 0
19.740000 -0.087567 0
19.745000 -0.086683 0
19.750000 -0.085771 0
19.755000 -0.084808 0
19.760000 -0.083755 0
19.765000 -0.082553 0
19.770000 -0.081110 0
19.775000 -0.079296 0
19.780000 -0.076926 0
19.785000 -0.073754 0
19.790000 -0.069462 0
19.795000 -0.063663 0
19.800000 -0.055916 0
19.805000 -0.045743 0
19.810000 -0.032685 0
19.815000 -0.016358 0
19.820000 0.003472 0
19.825000 0.026799 0
19.830000 0.053311 0
19.835000 0.082329 0
19.840000 0.112797 0
19.845000 0.143309 0
19.850000 0.172204 0
19.855000 0.197705 0
19.860000 0.218094 0
19.865000 0.231901 0
19.870000 0.238085 1
19.875000 0.236155 0
19.880000 0.226240 0
19.885000 0.209073 0
19.890000 0.185900 0
19.895000 0.158330 0
19.900000 0.128147 0
19.905000 0.097099 0
19.910000 0.066647 0
19.915000 0.037628 0
19.920000 0.009707 0
19.925000 -0.019264 0
19.930000 -0.053388 0
19.935000 -0.097089 0
19.940000 -0.150924 0
19.945000 -0.206406 0
19.950000 -0.243809 2
19.955000 -0.235675 0
19.960000 -0.154026 0
19.965000 0.021678 0
19.970000 0.293475 0
19.975000 0.628164 0
19.980000 0.946809 0
19.985000 1.144093 3
19.990000 1.141069 0
19.995000 0.936754 0
20.000000 0.603708 0
20.005000 0.243338 0
20.010000 -0.061631 0
20.015000 -0.268078 0
20.020000 -0.367362 0
20.025000 -0.374109 4
20.030000 -0.317963 0
20.035000 -0.234327 0
20.040000 -0.152626 0
20.045000 -0.088209 0
20.050000 -0.042707 0
20.055000 -0.010353 0
20.060000 0.015634 0
20.065000 0.039933 0
20.070000 0.064864 0
20.075000 0.091234 0
20.080000 0.119108 0
20.085000 0.148231 0
20.090000 0.178194 0
20.095000 0.208493 0
20.100000 0.238552 0
20.105000 0.267740 0
20.110000 0.295395 0
20.115000 0.320847 0
20.120000 0.343440 0
20.125000 0.362566 0
20.130000 0.377689 0
20.135000 0.388367 0
20.140000 0.394277 0
20.145000 0.395230 5
20.150000 0.391175 0
20.155000 0.382212 0
20.160000 0.368578 0
20.165000 0.350642 0
20.170000 0.328885 0
20.175000 0.303881 0
20.180000 0.276268 0
20.185000 0.246724 0
20.190000 0.215938 0
20.195000 0.184583 0
20.200000 0.153293 0
20.205000 0.122643 0
20.210000 0.093135 0
20.215000 0.065184 0
20.220000 0.039115 0
20.225000 0.015163 0
20.230000 -0.006525 0
20.235000 -0.025885 0
20.240000 -0.042922 0
20.245000 -0.057701 0
20.250000 -0.070338 0
20.255000 -0.080981 0
20.260000 -0.089805 0
20.265000 -0.096999 0
20.270000 -0.102753 0
20.275000 -0.107258 0
20.280000 -0.110695 0
20.285000 -0.113231 0
20.290000 -0.115018 0
20.295000 -0.116192 0
20.300000 -0.116869 0
20.305000 -0.116118 0
20.310000 -0.115130 0
20.315000 -0.114146 0
20.320000 -0.113167 0
20.325000 -0.112193 0
20.330000 -0.111224 0
20.335000 -0.110259 0
20.340000 -0.109299 0
20.345000 -0.108343 0
20.350000 -0.107391 0
20.355000 -0.106440 0
20.360000 -0.105489 0
20.365000 -0.104534 0
20.370000 -0.103565 0
20.375000 -0.102569 0
20.380000 -0.101525 0
20.385000 -0.100395 0
20.390000 -0.099123 0
20.395000 -0.097625 0
20.400000 -0.095778 0
20.405000 -0.093411 0
20.410000 -0.090295 0
20.415000 -0.086134 0
20.420000 -0.080567 0
20.425000 -0.073176 0
20.430000 -0.063506 0
20.435000 -0.051107 0
20.440000 -0.035584 0
20.445000 -0.016669 0
20.450000 0.005708 0
20.455000 0.031337 0
20.460000 0.059682 0
20.465000 0.089844 0
20.470000 0.120582 0
20.475000 0.150375 0
20.480000 0.177536 0
20.485000 0.200364 0
20.490000 0.217319 0
20.495000 0.227197 0
20.500000 0.229266 1
20.505000 0.223359 0
20.510000 0.209895 0
20.515000 0.189834 0
20.520000 0.164557 0
20.525000 0.135713 0
20.530000 0.105032 0
20.535000 0.074119 0
20.540000 0.044199 0
20.545000 0.015740 0
20.550000 -0.012118 0
20.555000 -0.042100 0
20.560000 -0.078544 0
20.565000 -0.125163 0
20.570000 -0.180604 0
20.575000 -0.233960 0
20.580000 -0.263983 2
20.585000 -0.243462 0
20.590000 -0.146209 0
20.595000 0.045377 0
20.600000 0.329103 0
20.605000 0.667064 0
20.610000 0.978320 0
20.615000 1.161132 3
20.620000 1.143927 0
20.625000 0.929197 0
20.630000 0.591538 0
20.635000 0.232501 0
20.640000 -0.067299 0
20.645000 -0.267137 0
20.650000 -0.360104 0
20.655000 -0.361990 4
20.660000 -0.303129 0
20.665000 -0.218918 0
20.670000 -0.138072 0
20.675000 -0.074981 0
20.680000 -0.030583 0
20.685000 0.001121 0
20.690000 0.026837 0
20.695000 0.051080 0
20.700000 0.076045 0
20.705000 0.102470 0
20.710000 0.130389 0
20.715000 0.159535 0
20.720000 0.189491 0
20.725000 0.219746 0
20.730000 0.249720 0
20.735000 0.278780 0
20.740000 0.306261 0
20.745000 0.331491 0
20.750000 0.353819 0
20.755000 0.372639 0
20.760000 0.387420 0
20.765000 0.397729 0
20.770000 0.403251 0
20.775000 0.403805 5
20.780000 0.399353 0
20.785000 0.390003 0
20.790000 0.376003 0
20.795000 0.357731 0
20.800000 0.335676 0
20.805000 0.310417 0
20.810000 0.282597 0
20.815000 0.252896 0
20.820000 0.222003 0
20.825000 0.190590 0
20.830000 0.159287 0
20.835000 0.128665 0
20.840000 0.099220 0
20.845000 0.071359 0
20.850000 0.045404 0
20.855000 0.021580 0
20.860000 0.000028 0
20.865000 -0.019192 0
20.870000 -0.036092 0
20.875000 -0.050740 0
20.880000 -0.063255 0
20.885000 -0.073789 0
20.890000 -0.082518 0
20.895000 -0.089630 0
20.900000 -0.095317 0
20.905000 -0.099770 0
20.910000 -0.103167 0
20.915000 -0.105676 0
20.920000 -0.107448 0
20.925000 -0.108615 0
20.930000 -0.109294 0
20.935000 -0.108576 0
20.940000 -0.107625 0
20.945000 -0.106679 0
20.950000 -0.105737 0
20.955000 -0.104800 0
20.960000 -0.103868 0
20.965000 -0.102940 0
20.970000 -0.102017 0
20.975000 -0.101097 0
20.980000 -0.100180 0
20.985000 -0.099266 0
20.990000 -0.098350 0
20.995000 -0.097428 0
21.000000 -0.096493 0
21.005000 -0.095529 0
21.010000 -0.094514 0
21.015000 -0.093408 0
21.020000 -0.092155 0
21.025000 -0.090666 0
21.030000 -0.088815 0
21.035000 -0.086425 0
21.040000 -0.083262 0
21.045000 -0.079024 0
21.050000 -0.073345 0
21.055000 -0.065800 0
21.060000 -0.055934 0
21.065000 -0.043299 0
21.070000 -0.027507 0
21.075000 -0.008306 0
21.080000 0.014351 0
21.085000 0.040227 0
21.090000 0.068751 0
21.095000 0.098993 0
21.100000 0.129680 0
21.105000 0.159268 0
21.110000 0.186061 0
21.115000 0.208365 0
21.120000 0.224665 0
21.125000 0.233793 0
21.130000 0.235068 1
21.135000 0.228380 0
21.140000 0.214203 0
21.145000 0.193543 0
21.150000 0.167816 0
21.155000 0.138689 0
21.160000 0.107889 0
21.165000 0.076998 0
21.170000 0.047188 0
21.175000 0.018824 0
21.180000 -0.009118 0
21.185000 -0.039562 0
21.190000 -0.076925 0
21.195000 -0.124644 0
21.200000 -0.180579 0
21.205000 -0.232726 0
21.210000 -0.258947 2
21.215000 -0.231790 0
21.220000 -0.125555 0
21.225000 0.075973 0
21.230000 0.367702 0
21.235000 0.707279 0
21.240000 1.009921 0
21.245000 1.174322 3
21.250000 1.136763 0
21.255000 0.908038 0
21.260000 0.565378 0
21.265000 0.207937 0
21.270000 -0.087669 0
21.275000 -0.283544 0
21.280000 -0.373956 0
21.285000 -0.374783 4
21.290000 -0.315799 0
21.295000 -0.231604 0
21.300000 -0.150389 0
21.305000 -0.086547 0
21.310000 -0.041340 0
21.315000 -0.009052 0
21.320000 0.016944 0
21.325000 0.041236 0
21.330000 0.066122 0
21.335000 0.092417 0
21.340000 0.120205 0
21.345000 0.149245 0
21.350000 0.179146 0
21.355000 0.209420 0
21.360000 0.239511 0
21.365000 0.268806 0
21.370000 0.296662 0
21.375000 0.322420 0
21.380000 0.345440 0
21.385000 0.365118 0
21.390000 0.380917 0
21.395000 0.392390 0
21.400000 0.399199 0
21.405000 0.401133 5
21.410000 0.398116 0
21.415000 0.390214 0
21.420000 0.377628 0
21.425000 0.360692 0
21.430000 0.339850 0
21.435000 0.315641 0
21.440000 0.288676 0
21.445000 0.259608 0
21.450000 0.229110 0
21.455000 0.197847 0
21.460000 0.166454 0
21.465000 0.135513 0
21.470000 0.105539 0
21.475000 0.076970 0
21.480000 0.050156 0
21.485000 0.025357 0
21.490000 0.002751 0
21.495000 -0.017569 0
21.500000 -0.035581 0
21.505000 -0.051327 0
21.510000 -0.064899 0
21.515000 -0.076430 0
21.520000 -0.086081 0
21.525000 -0.094030 0
21.530000 -0.100464 0
21.535000 -0.105570 0
21.540000 -0.109531 0
21.545000 -0.112517 0
21.550000 -0.114686 0
21.555000 -0.116177 0
21.560000 -0.117115 0
21.565000 -0.117608 0
21.570000 -0.116828 0
21.575000 -0.115836 0
21.580000 -0.114848 0
21.585000 -0.113866 0
21.590000 -0.112888 0
21.595000 -0.111916 0
21.600000 -0.110948 0
21.605000 -0.109984 0
21.610000 -0.109024 0
21.615000 -0.108068 0
21.620000 -0.107113 0
21.625000 -0.106156 0
21.630000 -0.105193 0
21.635000 -0.104214 0
21.640000 -0.103204 0
21.645000 -0.102139 0
21.650000 -0.100977 0
21.655000 -0.099660 0
21.660000 -0.098096 0
21.665000 -0.096158 0
21.670000 -0.093667 0
21.675000 -0.090387 0
21.680000 -0.086020 0
21.685000 -0.080201 0
21.690000 -0.072515 0
21.695000 -0.062517 0
21.700000 -0.049768 0
21.705000 -0.033896 0
21.710000 -0.014653 0
21.715000 0.008003 0
21.720000 0.033846 0
21.725000 0.062325 0
21.730000 0.092541 0
21.735000 0.123266 0
21.740000 0.153006 0
21.745000 0.180110 0
21.750000 0.202916 0
21.755000 0.219921 0
21.760000 0.229944 0
21.765000 0.232258 1
21.770000 0.226683 0
21.775000 0.213605 0
21.780000 0.193933 0
21.785000 0.168997 0
21.790000 0.140392 0
21.795000 0.109811 0
21.800000 0.078845 0
21.805000 0.048750 0
21.810000 0.020104 0
21.815000 -0.007718 0
21.820000 -0.037095 0
21.825000 -0.072100 0
21.830000 -0.116739 0
21.835000 -0.170980 0
21.840000 -0.226203 0
21.845000 -0.263515 2
21.850000 -0.257026 0
21.855000 -0.180285 0
21.860000 -0.013275 0
21.865000 0.248144 0
21.870000 0.577584 0
21.875000 0.906822 0
21.880000 1.137875 0
21.885000 1.186210 3
21.890000 1.028879 0
21.895000 0.719407 0
21.900000 0.356660 0
21.905000 0.031519 0
21.910000 -0.202481 0
21.915000 -0.328940 0
21.920000 -0.357359 4
21.925000 -0.314239 0
21.930000 -0.234572 0
21.935000 -0.150374 0
21.940000 -0.080958 0
21.945000 -0.031042 0
21.950000 0.003924 0
21.955000 0.030902 0
21.960000 0.055225 0
21.965000 0.079762 0
21.970000 0.105623 0
21.975000 0.133014 0
21.980000 0.161739 0
21.985000 0.191421 0
21.990000 0.221580 0
21.995000 0.251656 0
22.000000 0.281031 0
22.005000 0.309050 0
22.010000 0.335040 0
22.015000 0.358342 0
22.020000 0.378332 0
22.025000 0.394453 0
22.030000 0.406236 0
22.035000 0.413325 0
22.040000 0.415495 5
22.045000 0.412658 0
22.050000 0.404873 0
22.055000 0.392344 0
22.060000 0.375404 0
22.065000 0.354508 0
22.070000 0.330206 0
22.075000 0.303123 0
22.080000 0.273928 0
22.085000 0.243309 0
22.090000 0.211946 0
22.095000 0.180485 0
22.100000 0.149518 0
22.105000 0.119568 0
22.110000 0.091073 0
22.115000 0.064383 0
22.120000 0.039756 0
22.125000 0.017361 0
22.130000 -0.002714 0
22.135000 -0.020459 0
22.140000 -0.035924 0
22.145000 -0.049211 0
22.150000 -0.060462 0
22.155000 -0.069845 0
22.160000 -0.077546 0
22.165000 -0.083757 0
22.170000 -0.088667 0
22.175000 -0.092462 0
22.180000 -0.095312 0
22.185000 -0.097373 0
22.190000 -0.098786 0
22.195000 -0.099672 0
22.200000 -0.099937 0
22.205000 -0.099029 0
22.210000 -0.098125 0
22.215000 -0.097226 0
22.220000 -0.096332 0
22.225000 -0.095442 0
22.230000 -0.094556 0
22.235000 -0.093674 0
22.240000 -0.092797 0
22.245000 -0.091922 0
22.250000 -0.091050 0
22.255000 -0.090177 0
22.260000 -0.089301 0
22.265000 -0.088414 0
22.270000 -0.087505 0
22.275000 -0.086553 0
22.280000 -0.085527 0
22.285000 -0.084377 0
22.290000 -0.083027 0
22.295000 -0.081365 0
22.300000 -0.079236 0
22.305000 -0.076426 0
22.310000 -0.072659 0
22.315000 -0.067592 0
22.320000 -0.060820 0
22.325000 -0.051897 0
22.330000 -0.040365 0
22.335000 -0.025809 0
22.340000 -0.007918 0
22.345000 0.013438 0
22.350000 0.038137 0
22.355000 0.065734 0
22.360000 0.095433 0
22.365000 0.126084 0
22.370000 0.156234 0
22.375000 0.184228 0
22.380000 0.208354 0
22.385000 0.227010 0
22.390000 0.238883 0
22.395000 0.243099 1
22.400000 0.239327 0
22.405000 0.227827 0
22.410000 0.209415 0
22.415000 0.185369 0
22.420000 0.157281 0
22.425000 0.126876 0
22.430000 0.095816 0
22.435000 0.065465 0
22.440000 0.036549 0
22.445000 0.008646 0
22.450000 -0.020416 0
22.455000 -0.054641 0
22.460000 -0.098287 0
22.465000 -0.151941 0
22.470000 -0.207690 0
22.475000 -0.246962 2
22.480000 -0.243572 0
22.485000 -0.170327 0
22.490000 -0.006329 0
22.495000 0.253316 0
22.500000 0.582330 0
22.505000 0.911281 0
22.510000 1.140015 0
22.515000 1.182830 3
22.520000 1.019097 0
22.525000 0.706186 0
22.530000 0.343399 0
22.535000 0.020591 0
22.540000 -0.210068 0
22.545000 -0.333197 0
22.550000 -0.358936 4
22.555000 -0.314165 0
22.560000 -0.233932 0
22.565000 -0.149959 0
22.570000 -0.081094 0
22.575000 -0.031684 0
22.580000 0.002975 0
22.585000 0.029829 0
22.590000 0.054138 0
22.595000 0.078710 0
22.600000 0.104619 0
22.605000 0.132056 0
22.610000 0.160819 0
22.615000 0.190528 0
22.620000 0.220700 0
22.625000 0.250774 0
22.630000 0.280133 0
22.635000 0.308121 0
22.640000 0.334066 0
22.645000 0.357309 0
22.650000 0.377230 0
22.655000 0.393271 0
22.660000 0.404968 0
22.665000 0.411969 0
22.670000 0.414048 5
22.675000 0.411122 0
22.680000 0.403255 0
22.685000 0.390649 0
22.690000 0.373642 0
22.695000 0.352690 0
22.700000 0.328343 0
22.705000 0.301228 0
22.710000 0.272012 0
22.715000 0.241384 0
22.720000 0.210022 0
22.725000 0.178571 0
22.730000 0.147623 0
22.735000 0.117697 0
22.740000 0.089230 0
22.745000 0.062572 0
22.750000 0.037979 0
22.755000 0.015618 0
22.760000 -0.004424 0
22.765000 -0.022137 0
22.770000 -0.037571 0
22.775000 -0.050831 0
22.780000 -0.062056 0
22.785000 -0.071416 0
22.790000 -0.079097 0
22.795000 -0.085289 0
22.800000 -0.090183 0
22.805000 -0.093963 0
22.810000 -0.096800 0
22.815000 -0.098850 0
22.820000 -0.100252 0
22.825000 -0.101129 0
22.830000 -0.101385 0
22.835000 -0.100470 0
22.840000 -0.099559 0
22.845000 -0.098653 0
22.850000 -0.097751 0
22.855000 -0.096854 0
22.860000 -0.095961 0
22.865000 -0.095073 0
22.870000 -0.094188 0
22.875000 -0.093307 0
22.880000 -0.092427 0
22.885000 -0.091548 0
22.890000 -0.090665 0
22.895000 -0.089771 0
22.900000 -0.088855 0
22.905000 -0.087897 0
22.910000 -0.086865 0
22.915000 -0.085708 0
22.920000 -0.084353 0
22.925000 -0.082686 0
22.930000 -0.080553 0
22.935000 -0.077741 0
22.940000 -0.073974 0
22.945000 -0.068910 0
22.950000 -0.062145 0
22.955000 -0.053233 0
22.960000 -0.041717 0
22.965000 -0.027181 0
22.970000 -0.009314 0
22.975000 0.012018 0
22.980000 0.036691 0
22.985000 0.064269 0
22.990000 0.093957 0
22.995000 0.124610 0
23.000000 0.154781 0
23.005000 0.182816 0
23.010000 0.207006 0
23.015000 0.225748 0
23.020000 0.237724 0
23.025000 0.242054 1
23.030000 0.238402 0
23.035000 0.227017 0
23.040000 0.208707 0
23.045000 0.184743 0
23.050000 0.156711 0
23.055000 0.126336 0
23.060000 0.095281 0
23.065000 0.064913 0
23.070000 0.035976 0
23.075000 0.008074 0
23.080000 -0.020928 0
23.085000 -0.055002 0
23.090000 -0.098428 0
23.095000 -0.151915 0
23.100000 -0.207770 0
23.105000 -0.247647 2
23.110000 -0.245484 0
23.115000 -0.174059 0
23.120000 -0.012264 0
23.125000 0.245307 0
23.130000 0.573312 0
23.135000 0.903399 0
23.140000 1.135820 0
23.145000 1.183911 3
23.150000 1.024084 0
23.155000 0.711715 0
23.160000 0.349010 0
23.165000 0.028247 0
23.170000 -0.197875 0
23.175000 -0.314816 0
23.180000 -0.334257 4
23.185000 -0.284892 0
23.190000 -0.203050 0
23.195000 -0.120366 0
23.200000 -0.054341 0
23.205000 -0.007747 0
23.210000 0.025018 0
23.215000 0.050994 0
23.220000 0.075123 0
23.225000 0.099861 0
23.230000 0.126058 0
23.235000 0.153783 0
23.240000 0.182770 0
23.245000 0.212595 0
23.250000 0.242734 0
23.255000 0.272588 0
23.260000 0.301505 0
23.265000 0.328801 0
23.270000 0.353782 0
23.275000 0.375780 0
23.280000 0.394176 0
23.285000 0.408430 0
23.290000 0.418106 0
23.295000 0.422894 5
23.300000 0.422627 0
23.305000 0.417288 0
23.310000 0.407009 0
23.315000 0.392072 0
23.320000 0.372887 0
23.325000 0.349979 0
23.330000 0.323962 0
23.335000 0.295509 0
23.340000 0.265324 0
23.345000 0.234116 0
23.350000 0.202567 0
23.355000 0.171309 0
23.360000 0.140909 0
23.365000 0.111848 0
23.370000 0.084518 0
23.375000 0.059212 0
23.380000 0.036133 0
23.385000 0.015391 0
23.390000 -0.002982 0
23.395000 -0.019023 0
23.400000 -0.032827 0
23.405000 -0.044533 0
23.410000 -0.054308 0
23.415000 -0.062343 0
23.420000 -0.068833 0
23.425000 -0.073977 0
23.430000 -0.077964 0
23.435000 -0.080974 0
23.440000 -0.083168 0
23.445000 -0.084693 0
23.450000 -0.085675 0
23.455000 -0.086023 0
23.460000 -0.085185 0
23.465000 -0.084350 0
23.470000 -0.083520 0
23.475000 -0.082694 0
23.480000 -0.081872 0
23.485000 -0.081054 0
23.490000 -0.080239 0
23.495000 -0.079429 0
23.500000 -0.078621 0
23.505000 -0.077814 0
23.510000 -0.077007 0
23.515000 -0.076195 0
23.520000 -0.075370 0
23.525000 -0.074519 0
23.530000 -0.073620 0
23.535000 -0.072636 0
23.540000 -0.071512 0
23.545000 -0.070161 0
23.550000 -0.068459 0
23.555000 -0.066231 0
23.560000 -0.063239 0
23.565000 -0.059180 0
23.570000 -0.053678 0
23.575000 -0.046300 0
23.580000 -0.036577 0
23.585000 -0.024047 0
23.590000 -0.008311 0
23.595000 0.010891 0
23.600000 0.033598 0
23.605000 0.059553 0
23.610000 0.088149 0
23.615000 0.118399 0
23.620000 0.148964 0
23.625000 0.178235 0
23.630000 0.204454 0
23.635000 0.225890 0
23.640000 0.241026 0
23.645000 0.248730 1
23.650000 0.248400 0
23.655000 0.240039 0
23.660000 0.224254 0
23.665000 0.202186 0
23.670000 0.175371 0
23.675000 0.145559 0
23.680000 0.114511 0
23.685000 0.083767 0
23.690000 0.054340 0
23.695000 0.026227 0
23.700000 -0.002230 0
23.705000 -0.034695 0
23.710000 -0.075774 0
23.715000 -0.127473 0
23.720000 -0.184028 0
23.725000 -0.228607 0
23.730000 -0.235327 2
23.735000 -0.175802 0
23.740000 -0.026822 0
23.745000 0.220069 0
23.750000 0.543234 0
23.755000 0.876656 0
23.760000 1.118916 0
23.765000 1.177991 3
23.770000 1.026291 0
23.775000 0.718484 0
23.780000 0.355853 0
23.785000 0.031820 0
23.790000 -0.199122 0
23.795000 -0.320992 0
23.800000 -0.344465 4
23.805000 -0.297559 0
23.810000 -0.216442 0
23.815000 -0.133198 0
23.820000 -0.066100 0
23.825000 -0.018547 0
23.830000 0.014810 0
23.835000 0.041046 0
23.840000 0.065235 0
23.845000 0.089948 0
23.850000 0.116098 0
23.855000 0.143781 0
23.860000 0.172746 0
23.865000 0.202576 0
23.870000 0.232753 0
23.875000 0.262684 0
23.880000 0.291720 0
23.885000 0.319180 0
23.890000 0.344372 0
23.895000 0.366625 0
23.900000 0.385318 0
23.905000 0.399906 0
23.910000 0.409946 0
23.915000 0.415120 0
23.920000 0.415251 5
23.925000 0.410309 0
23.930000 0.400419 0
23.935000 0.385849 0
23.940000 0.367001 0
23.945000 0.344391 0
23.950000 0.318625 0
23.955000 0.290373 0
23.960000 0.260335 0
23.965000 0.229220 0
23.970000 0.197711 0
23.975000 0.166444 0
23.980000 0.135991 0
23.985000 0.106839 0
23.990000 0.079387 0
23.995000 0.053937 0
24.000000 0.030697 0
24.005000 0.009786 0
24.010000 -0.008758 0
24.015000 -0.024967 0
24.020000 -0.038931 0
24.025000 -0.050784 0
24.030000 -0.060693 0
24.035000 -0.068845 0
24.040000 -0.075436 0
24.045000 -0.080663 0
24.050000 -0.084718 0
24.055000 -0.087779 0
24.060000 -0.090011 0
24.065000 -0.091561 0
24.070000 -0.092558 0
24.075000 -0.092904 0
24.080000 -0.092031 0
24.085000 -0.091163 0
24.090000 -0.090299 0
24.095000 -0.089439 0
24.100000 -0.088583 0
24.105000 -0.087731 0
24.110000 -0.086884 0
24.115000 -0.086040 0
24.120000 -0.085199 0
24.125000 -0.084360 0
24.130000 -0.083521 0
24.135000 -0.082678 0
24.140000 -0.081823 0
24.145000 -0.080944 0
24.150000 -0.080020 0
24.155000 -0.079018 0
24.160000 -0.077883 0
24.165000 -0.076533 0
24.170000 -0.074850 0
24.175000 -0.072666 0
24.180000 -0.069750 0
24.185000 -0.065809 0
24.190000 -0.060477 0
24.195000 -0.053326 0
24.200000 -0.043892 0
24.205000 -0.031709 0
24.210000 -0.016367 0
24.215000 0.002414 0
24.220000 0.024706 0
24.225000 0.050296 0
24.230000 0.078624 0
24.235000 0.108754 0
24.240000 0.139393 0
24.245000 0.168964 0
24.250000 0.195724 0
24.255000 0.217930 0
24.260000 0.234029 0
24.265000 0.242828 0
24.270000 0.243650 1
24.275000 0.236410 0
24.280000 0.221634 0
24.285000 0.200394 0
24.290000 0.174176 0
24.295000 0.144709 0
24.300000 0.113761 0
24.305000 0.082920 0
24.310000 0.053296 0
24.315000 0.025074 0
24.320000 -0.003121 0
24.325000 -0.034667 0
24.330000 -0.074181 0
24.335000 -0.124374 0
24.340000 -0.180969 0
24.345000 -0.228864 0
24.350000 -0.243252 2
24.355000 -0.195689 0
24.360000 -0.061683 0
24.365000 0.170347 0
24.370000 0.484692 0
24.375000 0.822732 0
24.380000 1.086696 0
24.385000 1.179241 3
24.390000 1.059313 0
24.395000 0.769157 0
24.400000 0.408016 0
24.405000 0.074620 0
24.410000 -0.169808 0
24.415000 -0.304663 0
24.420000 -0.338088 4
24.425000 -0.296951 0
24.430000 -0.217637 0
24.435000 -0.133648 0
24.440000 -0.064973 0
24.445000 -0.016129 0
24.450000 0.017913 0
24.455000 0.044376 0
24.460000 0.068568 0
24.465000 0.093211 0
24.470000 0.119285 0
24.475000 0.146910 0
24.480000 0.175835 0
24.485000 0.205641 0
24.490000 0.235801 0
24.495000 0.265715 0
24.500000 0.294723 0
24.505000 0.322132 0
24.510000 0.347240 0
24.515000 0.369368 0
24.520000 0.387886 0
24.525000 0.402245 0
24.530000 0.412000 0
24.535000 0.416837 5
24.540000 0.416584 0
24.545000 0.411225 0
24.550000 0.400895 0
24.555000 0.385882 0
24.560000 0.366605 0
24.565000 0.343598 0
24.570000 0.317487 0
24.575000 0.288954 0
24.580000 0.258717 0
24.585000 0.227490 0
24.590000 0.195964 0
24.595000 0.164774 0
24.600000 0.134490 0
24.605000 0.105591 0
24.610000 0.078465 0
24.615000 0.053402 0
24.620000 0.030595 0
24.625000 0.010148 0
24.630000 -0.007915 0
24.635000 -0.023642 0
24.640000 -0.037133 0
24.645000 -0.048534 0
24.650000 -0.058020 0
24.655000 -0.065785 0
24.660000 -0.072027 0
24.665000 -0.076947 0
24.670000 -0.080735 0
24.675000 -0.083570 0
24.680000 -0.085615 0
24.685000 -0.087011 0
24.690000 -0.087885 0
24.695000 -0.088155 0
24.700000 -0.087306 0
24.705000 -0.086461 0
24.710000 -0.085620 0
24.715000 -0.084783 0
24.720000 -0.083951 0
24.725000 -0.083122 0
24.730000 -0.082298 0
24.735000 -0.081476 0
24.740000 -0.080657 0
24.745000 -0.079840 0
24.750000 -0.079020 0
24.755000 -0.078194 0
24.760000 -0.077352 0
24.765000 -0.076478 0
24.770000 -0.075546 0
24.775000 -0.074513 0
24.780000 -0.073314 0
24.785000 -0.071851 0
24.790000 -0.069980 0
24.795000 -0.067505 0
24.800000 -0.064161 0
24.805000 -0.059613 0
24.810000 -0.053461 0
24.815000 -0.045245 0
24.820000 -0.034488 0
24.825000 -0.020738 0
24.830000 -0.003637 0
24.835000 0.017001 0
24.840000 0.041103 0
24.845000 0.068269 0
24.850000 0.097721 0
24.855000 0.128305 0
24.860000 0.158531 0
24.865000 0.186685 0
24.870000 0.210973 0
24.875000 0.229716 0
24.880000 0.241534 0
24.885000 0.245514 1
24.890000 0.241331 0
24.895000 0.229283 0
24.900000 0.210261 0
24.905000 0.185639 0
24.910000 0.157105 0
24.915000 0.126465 0
24.920000 0.095423 0
24.925000 0.065309 0
24.930000 0.036684 0
24.935000 0.008732 0
24.940000 -0.021337 0
24.945000 -0.058035 0
24.950000 -0.105173 0
24.955000 -0.161002 0
24.960000 -0.213438 0
24.965000 -0.239556 2
24.970000 -0.210720 0
24.975000 -0.100276 0
24.980000 0.107923 0
24.985000 0.406311 0
24.990000 0.746461 0
24.995000 1.036012 0
25.000000 1.171123 3
25.005000 1.095087 0
25.010000 0.834811 0
25.015000 0.480307 0
25.020000 0.133065 0
25.025000 -0.136730 0
25.030000 -0.299944 0
25.035000 -0.358425 4
25.040000 -0.334419 0
25.045000 -0.262143 0
25.050000 -0.176601 0
25.055000 -0.101996 0
25.060000 -0.047039 0
25.065000 -0.008897 0
25.070000 0.019465 0
25.075000 0.044093 0
25.080000 0.068473 0
25.085000 0.094058 0
25.090000 0.121193 0
25.095000 0.149735 0
25.100000 0.179323 0
25.105000 0.209480 0
25.110000 0.239643 0
25.115000 0.269186 0
25.120000 0.297440 0
25.125000 0.323719 0
25.130000 0.347343 0
25.135000 0.367668 0
25.140000 0.384116 0
25.145000 0.396199 0
25.150000 0.403546 0
25.155000 0.405918 5
25.160000 0.403222 0
25.165000 0.395515 0
25.170000 0.383003 0
25.175000 0.366031 0
25.180000 0.345064 0
25.185000 0.320671 0
25.190000 0.293493 0
25.195000 0.264217 0
25.200000 0.233550 0
25.205000 0.202186 0
25.210000 0.170783 0
25.215000 0.139942 0
25.220000 0.110187 0
25.225000 0.081957 0
25.230000 0.055597 0
25.235000 0.031358 0
25.240000 0.009398 0
25.245000 -0.010208 0
25.250000 -0.027460 0
25.255000 -0.042424 0
25.260000 -0.055213 0
25.265000 -0.065980 0
25.270000 -0.074902 0
25.275000 -0.082172 0
25.280000 -0.087986 0
25.285000 -0.092539 0
25.290000 -0.096016 0
25.295000 -0.098587 0
25.300000 -0.100408 0
25.305000 -0.101615 0
25.310000 -0.102329 0
25.315000 -0.101645 0
25.320000 -0.100728 0
25.325000 -0.099816 0
25.330000 -0.098909 0
25.335000 -0.098006 0
25.340000 -0.097108 0
25.345000 -0.096213 0
25.350000 -0.095323 0
25.355000 -0.094437 0
25.360000 -0.093553 0
25.365000 -0.092671 0
25.370000 -0.091787 0
25.375000 -0.090896 0
25.380000 -0.089989 0
25.385000 -0.089049 0
25.390000 -0.088051 0
25.395000 -0.086952 0
25.400000 -0.085688 0
25.405000 -0.084159 0
25.410000 -0.082227 0
25.415000 -0.079697 0
25.420000 -0.076312 0
25.425000 -0.071746 0
25.430000 -0.065604 0
25.435000 -0.057440 0
25.440000 -0.046786 0
25.445000 -0.033195 0
25.450000 -0.016307 0
25.455000 0.004076 0
25.460000 0.027908 0
25.465000 0.054829 0
25.470000 0.084118 0
25.475000 0.114685 0
25.480000 0.145106 0
25.485000 0.173720 0
25.490000 0.198771 0
25.495000 0.218580 0
25.500000 0.231734 0
25.505000 0.237248 1
25.510000 0.234689 0
25.515000 0.224234 0
25.520000 0.206645 0
25.525000 0.183178 0
25.530000 0.155439 0
25.535000 0.125191 0
25.540000 0.094149 0
25.545000 0.063742 0
25.550000 0.034769 0
25.555000 0.006868 0
25.560000 -0.022116 0
25.565000 -0.056247 0
25.570000 -0.099892 0
25.575000 -0.153634 0
25.580000 -0.209216 0
25.585000 -0.247354 2
25.590000 -0.241053 0
25.595000 -0.162605 0
25.600000 0.008703 0
25.605000 0.276042 0
25.610000 0.608855 0
25.615000 0.931713 0
25.620000 1.140986 0
25.625000 1.154883 3
25.630000 0.963684 0
25.635000 0.635759 0
25.640000 0.274510 0
25.645000 -0.033652 0
25.650000 -0.242988 0
25.655000 -0.343842 0
25.660000 -0.350892 4
25.665000 -0.294446 0
25.670000 -0.210717 0
25.675000 -0.129558 0
25.680000 -0.066160 0
25.685000 -0.021701 0
25.690000 0.009917 0
25.695000 0.035540 0
25.700000 0.059744 0
25.705000 0.084723 0
25.710000 0.111191 0
25.715000 0.139164 0
25.720000 0.168354 0
25.725000 0.198325 0
25.730000 0.228550 0
25.735000 0.258427 0
25.740000 0.287304 0
25.745000 0.314498 0
25.750000 0.339324 0
25.755000 0.361118 0
25.760000 0.379272 0
25.765000 0.393257 0
25.770000 0.402650 0
25.775000 0.407154 5
25.780000 0.406612 0
25.785000 0.401017 0
25.790000 0.390513 0
25.795000 0.375387 0
25.800000 0.356054 0
25.805000 0.333043 0
25.810000 0.306965 0
25.815000 0.278493 0
25.820000 0.248328 0
25.825000 0.217171 0
25.830000 0.185700 0
25.835000 0.154541 0
25.840000 0.124254 0
25.845000 0.095315 0
25.850000 0.068109 0
25.855000 0.042927 0
25.860000 0.019967 0
25.865000 -0.000662 0
25.870000 -0.018929 0
25.875000 -0.034874 0
25.880000 -0.048589 0
25.885000 -0.060213 0
25.890000 -0.069914 0
25.895000 -0.077879 0
25.900000 -0.084304 0
25.905000 -0.089385 0
25.910000 -0.093311 0
25.915000 -0.096259 0
25.920000 -0.098393 0
25.925000 -0.099857 0
25.930000 -0.100777 0
25.935000 -0.101060 0
25.940000 -0.100146 0
25.945000 -0.099237 0
25.950000 -0.098333 0
25.955000 -0.097433 0
25.960000 -0.096537 0
25.965000 -0.095646 0
25.970000 -0.094759 0
25.975000 -0.093876 0
25.980000 -0.092996 0
25.985000 -0.092118 0
25.990000 -0.091240 0
25.995000 -0.090357 0
26.000000 -0.089463 0
26.005000 -0.088545 0
26.010000 -0.087581 0
26.015000 -0.086537 0
26.020000 -0.085359 0
26.025000 -0.083965 0
26.030000 -0.082234 0
26.035000 -0.079998 0
26.040000 -0.077027 0
26.045000 -0.073027 0
26.050000 -0.067631 0
26.055000 -0.060415 0
26.060000 -0.050914 0
26.065000 -0.038666 0
26.070000 -0.023264 0
26.075000 -0.004430 0
26.080000 0.017908 0
26.085000 0.043534 0
26.090000 0.071891 0
26.095000 0.102050 0
26.100000 0.132724 0
26.105000 0.162343 0
26.110000 0.189174 0
26.115000 0.211482 0
26.120000 0.227715 0
26.125000 0.236681 0
26.130000 0.237694 1
26.135000 0.230660 0
26.140000 0.216088 0
26.145000 0.195032 0
26.150000 0.168965 0
26.155000 0.139602 0
26.160000 0.108708 0
26.165000 0.077870 0
26.170000 0.048219 0
26.175000 0.019985 0
26.180000 -0.008124 0
26.185000 -0.039388 0
26.190000 -0.078398 0
26.195000 -0.128051 0
26.200000 -0.184557 0
26.205000 -0.233464 0
26.210000 -0.250479 2
26.215000 -0.207285 0
26.220000 -0.079054 0
26.225000 0.146880 0
26.230000 0.457134 0
26.235000 0.796395 0
26.240000 1.069117 0
26.245000 1.176454 3
26.250000 1.073188 0
26.255000 0.796258 0
26.260000 0.437933 0
26.265000 0.095620 0
26.270000 -0.165991 0
26.275000 -0.321450 0
26.280000 -0.374278 4
26.285000 -0.347132 0
26.290000 -0.273753 0
26.295000 -0.188156 0
26.300000 -0.113661 0
26.305000 -0.058613 0
26.310000 -0.020235 0
26.315000 0.008340 0
26.320000 0.033077 0
26.325000 0.057470 0
26.330000 0.083009 0
26.335000 0.110076 0
26.340000 0.138553 0
26.345000 0.168101 0
26.350000 0.198261 0
26.355000 0.228494 0
26.360000 0.258194 0
26.365000 0.286714 0
26.370000 0.313383 0
26.375000 0.337535 0
26.380000 0.358534 0
26.385000 0.375802 0
26.390000 0.388844 0
26.395000 0.397273 0
26.400000 0.400827 5
26.405000 0.399381 0
26.410000 0.392957 0
26.415000 0.381719 0
26.420000 0.365969 0
26.425000 0.346131 0
26.430000 0.322735 0
26.435000 0.296386 0
26.440000 0.267747 0
26.445000 0.237503 0
26.450000 0.206339 0
26.455000 0.174913 0
26.460000 0.143833 0
26.465000 0.113641 0
26.470000 0.084799 0
26.475000 0.057679 0
26.480000 0.032565 0
26.485000 0.009649 0
26.490000 -0.010964 0
26.495000 -0.029242 0
26.500000 -0.045221 0
26.505000 -0.058992 0
26.510000 -0.070687 0
26.515000 -0.080468 0
26.520000 -0.088519 0
26.525000 -0.095029 0
26.530000 -0.100191 0
26.535000 -0.104191 0
26.540000 -0.107204 0
26.545000 -0.109390 0
26.550000 -0.110894 0
26.555000 -0.111842 0
26.560000 -0.112342 0
26.565000 -0.111585 0
26.570000 -0.110619 0
26.575000 -0.109658 0
26.580000 -0.108701 0
26.585000 -0.107750 0
26.590000 -0.106802 0
26.595000 -0.105860 0
26.600000 -0.104921 0
26.605000 -0.103987 0
26.610000 -0.103055 0
26.615000 -0.102124 0
26.620000 -0.101191 0
26.625000 -0.100249 0
26.630000 -0.099289 0
26.635000 -0.098293 0
26.640000 -0.097232 0
26.645000 -0.096062 0
26.650000 -0.094713 0
26.655000 -0.093086 0
26.660000 -0.091034 0
26.665000 -0.088360 0
26.670000 -0.084804 0
26.675000 -0.080039 0
26.680000 -0.073675 0
26.685000 -0.065271 0
26.690000 -0.054370 0
26.695000 -0.040539 0
26.700000 -0.023436 0
26.705000 -0.002877 0
26.710000 0.021081 0
26.715000 0.048081 0
26.720000 0.077411 0
26.725000 0.108006 0
26.730000 0.138478 0
26.735000 0.167210 0
26.740000 0.192486 0
26.745000 0.212662 0
26.750000 0.226338 0
26.755000 0.232518 1
26.760000 0.230736 0
26.765000 0.221106 0
26.770000 0.204317 0
26.775000 0.181548 0
26.780000 0.154330 0
26.785000 0.124376 0
26.790000 0.093384 0
26.795000 0.062813 0
26.800000 0.033586 0
26.805000 0.005613 0
26.810000 -0.022817 0
26.815000 -0.055331 0
26.820000 -0.096399 0
26.825000 -0.147945 0
26.830000 -0.204444 0
26.835000 -0.249786 0
26.840000 -0.259057 2
26.845000 -0.204636 0
26.850000 -0.063406 0
26.855000 0.174520 0
26.860000 0.491758 0
26.865000 0.829206 0
26.870000 1.090898 0
26.875000 1.182549 3
26.880000 1.064864 0
26.885000 0.778476 0
26.890000 0.418210 0
26.895000 0.080320 0
26.900000 -0.173400 0
26.905000 -0.320131 0
26.910000 -0.365278 4
26.915000 -0.332836 0
26.920000 -0.257175 0
26.925000 -0.171888 0
26.930000 -0.099085 0
26.935000 -0.045871 0
26.940000 -0.008780 0
26.945000 0.019154 0
26.950000 0.043700 0
26.955000 0.068126 0
26.960000 0.093778 0
26.965000 0.120966 0
26.970000 0.149538 0
26.975000 0.179138 0
26.980000 0.209296 0
26.985000 0.239462 0
26.990000 0.269021 0
26.995000 0.297320 0
27.000000 0.323685 0
27.005000 0.347449 0
27.010000 0.367978 0
27.015000 0.384702 0
27.020000 0.397136 0
27.025000 0.404906 0
27.030000 0.407767 5
27.035000 0.405613 0
27.040000 0.398484 0
27.045000 0.386565 0
27.050000 0.370177 0
27.055000 0.349763 0
27.060000 0.325865 0
27.065000 0.299104 0
27.070000 0.270148 0
27.075000 0.239687 0
27.080000 0.208407 0
27.085000 0.176962 0
27.090000 0.145953 0
27.095000 0.115912 0
27.100000 0.087290 0
27.105000 0.060446 0
27.110000 0.035650 0
27.115000 0.013078 0
27.120000 -0.007174 0
27.125000 -0.025089 0
27.130000 -0.040712 0
27.135000 -0.054143 0
27.140000 -0.065520 0
27.145000 -0.075012 0
27.150000 -0.082803 0
27.155000 -0.089086 0
27.160000 -0.094053 0
27.165000 -0.097890 0
27.170000 -0.100768 0
27.175000 -0.102847 0
27.180000 -0.104268 0
27.185000 -0.105154 0
27.190000 -0.105409 0
27.195000 -0.104474 0
27.200000 -0.103543 0
27.205000 -0.102617 0
27.210000 -0.101696 0
27.215000 -0.100779 0
27.220000 -0.099867 0
27.225000 -0.098959 0
27.230000 -0.098054 0
27.235000 -0.097154 0
27.240000 -0.096255 0
27.245000 -0.095357 0
27.250000 -0.094455 0
27.255000 -0.093543 0
27.260000 -0.092609 0
27.265000 -0.091633 0
27.270000 -0.090584 0
27.275000 -0.089411 0
27.280000 -0.088039 0
27.285000 -0.086357 0
27.290000 -0.084208 0
27.295000 -0.081379 0
27.300000 -0.077592 0
27.305000 -0.072504 0
27.310000 -0.065707 0
27.315000 -0.056753 0
27.320000 -0.045182 0
27.325000 -0.030579 0
27.330000 -0.012630 0
27.335000 0.008793 0
27.340000 0.033561 0
27.345000 0.061226 0
27.350000 0.090980 0
27.355000 0.121661 0
27.360000 0.151805 0
27.365000 0.179746 0
27.370000 0.203763 0
27.375000 0.222255 0
27.380000 0.233912 0
27.385000 0.237873 1
27.390000 0.233827 0
27.395000 0.222056 0
27.400000 0.203402 0
27.405000 0.179165 0
27.410000 0.150953 0
27.415000 0.120503 0
27.420000 0.089474 0
27.425000 0.059213 0
27.430000 0.030402 0
27.435000 0.002533 0
27.440000 -0.026694 0
27.445000 -0.061385 0
27.450000 -0.105720 0
27.455000 -0.159866 0
27.460000 -0.215157 0
27.465000 -0.252233 2
27.470000 -0.244472 0
27.475000 -0.164774 0
27.480000 0.007016 0
27.485000 0.273927 0
27.490000 0.606250 0
27.495000 0.930649 0
27.500000 1.145615 0
27.505000 1.169126 3
27.510000 0.988106 0
27.515000 0.666283 0
27.520000 0.303916 0
27.525000 -0.012075 0
27.530000 -0.233279 0
27.535000 -0.347075 0
27.540000 -0.365364 4
27.545000 -0.316073 0
27.550000 -0.234375 0
27.555000 -0.151126 0
27.560000 -0.083853 0
27.565000 -0.035870 0
27.570000 -0.002063 0
27.575000 0.024462 0
27.580000 0.048755 0
27.585000 0.073445 0
27.590000 0.099509 0
27.595000 0.127094 0
27.600000 0.155978 0
27.605000 0.185775 0
27.610000 0.215994 0
27.615000 0.246073 0
27.620000 0.275390 0
27.625000 0.303288 0
27.630000 0.329099 0
27.635000 0.352165 0
27.640000 0.371871 0
27.645000 0.387668 0
27.650000 0.399096 0
27.655000 0.405813 0
27.660000 0.407604 5
27.665000 0.404394 0
27.670000 0.396255 0
27.675000 0.383400 0
27.680000 0.366172 0
27.685000 0.345033 0
27.690000 0.320539 0
27.695000 0.293315 0
27.700000 0.264032 0
27.705000 0.233377 0
27.710000 0.202025 0
27.715000 0.170619 0
27.720000 0.139743 0
27.725000 0.109914 0
27.730000 0.081564 0
27.735000 0.055034 0
27.740000 0.030578 0
27.745000 0.008359 0
27.750000 -0.011542 0
27.755000 -0.029117 0
27.760000 -0.044420 0
27.765000 -0.057555 0
27.770000 -0.068665 0
27.775000 -0.077920 0
27.780000 -0.085504 0
27.785000 -0.091610 0
27.790000 -0.096427 0
27.795000 -0.100137 0
27.800000 -0.102912 0
27.805000 -0.104905 0
27.810000 -0.106257 0
27.815000 -0.107087 0
27.820000 -0.107303 0
27.825000 -0.106359 0
27.830000 -0.105418 0
27.835000 -0.104483 0
27.840000 -0.103552 0
27.845000 -0.102626 0
27.850000 -0.101705 0
27.855000 -0.100787 0
27.860000 -0.099874 0
27.865000 -0.098964 0
27.870000 -0.098057 0
27.875000 -0.097149 0
27.880000 -0.096238 0
27.885000 -0.095316 0
27.890000 -0.094372 0
27.895000 -0.093385 0
27.900000 -0.092323 0
27.905000 -0.091137 0
27.910000 -0.089750 0
27.915000 -0.088051 0
27.920000 -0.085882 0
27.925000 -0.083033 0
27.930000 -0.079225 0
27.935000 -0.074117 0
27.940000 -0.067306 0
27.945000 -0.058344 0
27.950000 -0.046777 0
27.955000 -0.032191 0
27.960000 -0.014275 0
27.965000 0.007102 0
27.970000 0.031816 0
27.975000 0.059429 0
27.980000 0.089147 0
27.985000 0.119825 0
27.990000 0.150018 0
27.995000 0.178077 0
28.000000 0.202295 0
28.005000 0.221071 0
28.010000 0.233090 0
28.015000 0.237472 1
28.020000 0.233880 0
28.025000 0.222559 0
28.030000 0.204313 0
28.035000 0.180409 0
28.040000 0.152428 0
28.045000 0.122089 0
28.050000 0.091056 0
28.055000 0.060697 0
28.060000 0.031765 0
28.065000 0.003881 0
28.070000 -0.025057 0
28.075000 -0.058996 0
28.080000 -0.102226 0
28.085000 -0.155554 0
28.090000 -0.211475 0
28.095000 -0.251863 2
28.100000 -0.250792 0
28.105000 -0.181046 0
28.110000 -0.021346 0
28.115000 0.234195 0
28.120000 0.561167 0
28.125000 0.892372 0
28.130000 1.128591 0
28.135000 1.182273 3
28.140000 1.028260 0
28.145000 0.720062 0
28.150000 0.357384 0
28.155000 0.032260 0
28.160000 -0.201158 0
28.165000 -0.326443 0
28.170000 -0.353425 4
28.175000 -0.309117 0
28.180000 -0.228956 0
28.185000 -0.145053 0
28.190000 -0.076417 0
28.195000 -0.027323 0
28.200000 0.007067 0
28.205000 0.033772 0
28.210000 0.058042 0
28.215000 0.082642 0
28.220000 0.108611 0
28.225000 0.136113 0
28.230000 0.164932 0
28.235000 0.194676 0
28.240000 0.224851 0
28.245000 0.254883 0
28.250000 0.284144 0
28.255000 0.311967 0
28.260000 0.337673 0
28.265000 0.360597 0
28.270000 0.380116 0
28.275000 0.395675 0
28.280000 0.406816 0
28.285000 0.413197 0
28.290000 0.414607 5
28.295000 0.410982 0
28.300000 0.402405 0
28.305000 0.389102 0
28.310000 0.371436 0
28.315000 0.349882 0
28.320000 0.325013 0
28.325000 0.297472 0
28.330000 0.267940 0
28.335000 0.237115 0
28.340000 0.205677 0
28.345000 0.174273 0
28.350000 0.143485 0
28.355000 0.113825 0
28.360000 0.085717 0
28.365000 0.059491 0
28.370000 0.035389 0
28.375000 0.013560 0
28.380000 -0.005928 0
28.385000 -0.023080 0
28.390000 -0.037962 0
28.395000 -0.050689 0
