0.000000 1.114566 3
0.005000 1.044377 0
0.010000 0.864155 0
0.015000 0.612498 0
0.020000 0.337209 0
0.025000 0.080513 0
0.030000 -0.129187 0
0.035000 -0.278121 0
0.040000 -0.364051 0
0.045000 -0.393006 4
0.050000 -0.377021 0
0.055000 -0.331898 0
0.060000 -0.274096 0
0.065000 -0.217278 0
0.070000 -0.169941 0
0.075000 -0.135074 0
0.080000 -0.111590 0
0.085000 -0.096433 0
0.090000 -0.086326 0
0.095000 -0.078695 0
0.100000 -0.071879 0
0.105000 -0.064942 0
0.110000 -0.057400 0
0.115000 -0.049008 0
0.120000 -0.039631 0
0.125000 -0.029177 0
0.130000 -0.017580 0
0.135000 -0.004790 0
0.140000 0.009226 0
0.145000 0.024482 0
0.150000 0.040970 0
0.155000 0.058658 0
0.160000 0.077483 0
0.165000 0.097356 0
0.170000 0.118154 0
0.175000 0.139723 0
0.180000 0.161880 0
0.185000 0.184408 0
0.190000 0.207066 0
0.195000 0.229586 0
0.200000 0.251683 0
0.205000 0.273057 0
0.210000 0.293401 0
0.215000 0.312407 0
0.220000 0.329776 0
0.225000 0.345222 0
0.230000 0.358482 0
0.235000 0.369323 0
0.240000 0.377550 0
0.245000 0.383007 0
0.250000 0.385587 5
0.255000 0.385235 0
0.260000 0.381943 0
0.265000 0.375761 0
0.270000 0.366787 0
0.275000 0.355167 0
0.280000 0.341093 0
0.285000 0.324796 0
0.290000 0.306538 0
0.295000 0.286607 0
0.300000 0.265309 0
0.305000 0.242961 0
0.310000 0.219879 0
0.315000 0.196378 0
0.320000 0.172757 0
0.325000 0.149299 0
0.330000 0.126264 0
0.335000 0.103882 0
0.340000 0.082354 0
0.345000 0.061851 0
0.350000 0.042507 0
0.355000 0.024425 0
0.360000 0.007676 0
0.365000 -0.007699 0
0.370000 -0.021686 0
0.375000 -0.034296 0
0.380000 -0.045562 0
0.385000 -0.055533 0
0.390000 -0.064272 0
0.395000 -0.071856 0
0.400000 -0.078367 0
0.405000 -0.083892 0
0.410000 -0.088520 0
0.415000 -0.092341 0
0.420000 -0.095442 0
0.425000 -0.097907 0
0.430000 -0.099815 0
0.435000 -0.101239 0
0.440000 -0.102246 0
0.445000 -0.102899 0
0.450000 -0.103250 0
0.455000 -0.103350 0
0.460000 -0.103240 0
0.465000 -0.102956 0
0.470000 -0.102531 0
0.475000 -0.101992 0
0.480000 -0.101360 0
0.485000 -0.100655 0
0.490000 -0.099893 0
0.495000 -0.099086 0
0.500000 -0.098245 0
0.505000 -0.097378 0
0.510000 -0.096482 0
0.515000 -0.095529 0
0.520000 -0.094581 0
0.525000 -0.093637 0
0.530000 -0.092698 0
0.535000 -0.091763 0
0.540000 -0.090834 0
0.545000 -0.089909 0
0.550000 -0.088988 0
0.555000 -0.088072 0
0.560000 -0.087161 0
0.565000 -0.086254 0
0.570000 -0.085352 0
0.575000 -0.084454 0
0.580000 -0.083561 0
0.585000 -0.082672 0
0.590000 -0.081788 0
0.595000 -0.080908 0
0.600000 -0.080032 0
0.605000 -0.079161 0
0.610000 -0.078294 0
0.615000 -0.077432 0
0.620000 -0.076573 0
0.625000 -0.075719 0
0.630000 -0.074870 0
0.635000 -0.074024 0
0.640000 -0.073182 0
0.645000 -0.072345 0
0.650000 -0.071511 0
0.655000 -0.070681 0
0.660000 -0.069853 0
0.665000 -0.069028 0
0.670000 -0.068203 0
0.675000 -0.067377 0
0.680000 -0.066546 0
0.685000 -0.065705 0
0.690000 -0.064845 0
0.695000 -0.063957 0
0.700000 -0.063022 0
0.705000 -0.062017 0
0.710000 -0.060910 0
0.715000 -0.059657 0
0.720000 -0.058197 0
0.725000 -0.056455 0
0.730000 -0.054334 0
0.735000 -0.051713 0
0.740000 -0.048450 0
0.745000 -0.044376 0
0.750000 -0.039303 0
0.755000 -0.033027 0
0.760000 -0.025338 0
0.765000 -0.016032 0
0.770000 -0.004927 0
0.775000 0.008118 0
0.780000 0.023179 0
0.785000 0.040250 0
0.790000 0.059217 0
0.795000 0.079850 0
0.800000 0.101788 0
0.805000 0.124542 0
0.810000 0.147504 0
0.815000 0.169968 0
0.820000 0.191168 0
0.825000 0.210311 0
0.830000 0.226634 0
0.835000 0.239446 0
0.840000 0.248184 0
0.845000 0.252448 1
0.850000 0.252031 0
0.855000 0.246942 0
0.860000 0.237398 0
0.865000 0.223813 0
0.870000 0.206765 0
0.875000 0.186961 0
0.880000 0.165180 0
0.885000 0.142229 0
0.890000 0.118893 0
0.895000 0.095888 0
0.900000 0.073833 0
0.905000 0.053218 0
0.910000 0.034387 0
0.915000 0.017504 0
0.920000 0.002506 0
0.925000 -0.011000 0
0.930000 -0.023881 0
0.935000 -0.037628 0
0.940000 -0.054342 0
0.945000 -0.076353 0
0.950000 -0.105289 0
0.955000 -0.140684 0
0.960000 -0.178630 0
0.965000 -0.211208 0
0.970000 -0.227169 2
0.975000 -0.213656 0
0.980000 -0.158256 0
0.985000 -0.051035 0
0.990000 0.112879 0
0.995000 0.329266 0
1.000000 0.579981 0
1.005000 0.830595 0
1.010000 1.034793 0
1.015000 1.146928 3
1.020000 1.136844 0
1.025000 1.004086 0
1.030000 0.778553 0
1.035000 0.507475 0
1.040000 0.238536 0
1.045000 0.007535 0
1.050000 -0.165519 0
1.055000 -0.274214 0
1.060000 -0.322002 4
1.065000 -0.319424 0
1.070000 -0.281855 0
1.075000 -0.226498 0
1.080000 -0.168657 0
1.085000 -0.118717 0
1.090000 -0.081159 0
1.095000 -0.055681 0
1.100000 -0.039399 0
1.105000 -0.028865 0
1.110000 -0.021248 0
1.115000 -0.014674 0
1.120000 -0.008077 0
1.125000 -0.000909 0
1.130000 0.007106 0
1.135000 0.016116 0
1.140000 0.026218 0
1.145000 0.037482 0
1.150000 0.049960 0
1.155000 0.063688 0
1.160000 0.078681 0
1.165000 0.094929 0
1.170000 0.112399 0
1.175000 0.131025 0
1.180000 0.150713 0
1.185000 0.171333 0
1.190000 0.192724 0
1.195000 0.214690 0
1.200000 0.237005 0
1.205000 0.259415 0
1.210000 0.281639 0
1.215000 0.303379 0
1.220000 0.324322 0
1.225000 0.344149 0
1.230000 0.362544 0
1.235000 0.379198 0
1.240000 0.393821 0
1.245000 0.406149 0
1.250000 0.415952 0
1.255000 0.423040 0
1.260000 0.427268 0
1.265000 0.428544 5
1.270000 0.426828 0
1.275000 0.422136 0
1.280000 0.414539 0
1.285000 0.404161 0
1.290000 0.391174 0
1.295000 0.375795 0
1.300000 0.358280 0
1.305000 0.338914 0
1.310000 0.318007 0
1.315000 0.295880 0
1.320000 0.272864 0
1.325000 0.249285 0
1.330000 0.225460 0
1.335000 0.201691 0
1.340000 0.178255 0
1.345000 0.155402 0
1.350000 0.133352 0
1.355000 0.112292 0
1.360000 0.092372 0
1.365000 0.073709 0
1.370000 0.056385 0
1.375000 0.040452 0
1.380000 0.025929 0
1.385000 0.012812 0
1.390000 0.001071 0
1.395000 -0.009342 0
1.400000 -0.018491 0
1.405000 -0.026452 0
1.410000 -0.033309 0
1.415000 -0.039153 0
1.420000 -0.044075 0
1.425000 -0.048168 0
1.430000 -0.051523 0
1.435000 -0.054226 0
1.440000 -0.056359 0
1.445000 -0.057999 0
1.450000 -0.059215 0
1.455000 -0.060070 0
1.460000 -0.060621 0
1.465000 -0.060916 0
1.470000 -0.061001 0
1.475000 -0.060911 0
1.480000 -0.060680 0
1.485000 -0.060335 0
1.490000 -0.059897 0
1.495000 -0.059387 0
1.500000 -0.058821 0
1.505000 -0.058210 0
1.510000 -0.057565 0
1.515000 -0.056895 0
1.520000 -0.056152 0
1.525000 -0.055400 0
1.530000 -0.054652 0
1.535000 -0.053907 0
1.540000 -0.053166 0
1.545000 -0.052429 0
1.550000 -0.051695 0
1.555000 -0.050966 0
1.560000 -0.050239 0
1.565000 -0.049517 0
1.570000 -0.048798 0
1.575000 -0.048082 0
1.580000 -0.047370 0
1.585000 -0.046662 0
1.590000 -0.045957 0
1.595000 -0.045256 0
1.600000 -0.044558 0
1.605000 -0.043864 0
1.610000 -0.043173 0
1.615000 -0.042486 0
1.620000 -0.041802 0
1.625000 -0.041121 0
1.630000 -0.040444 0
1.635000 -0.039770 0
1.640000 -0.039100 0
1.645000 -0.038433 0
1.650000 -0.037768 0
1.655000 -0.037107 0
1.660000 -0.036449 0
1.665000 -0.035792 0
1.670000 -0.035137 0
1.675000 -0.034482 0
1.680000 -0.033826 0
1.685000 -0.033163 0
1.690000 -0.032491 0
1.695000 -0.031801 0
1.700000 -0.031081 0
1.705000 -0.030316 0
1.710000 -0.029480 0
1.715000 -0.028543 0
1.720000 -0.027457 0
1.725000 -0.026162 0
1.730000 -0.024580 0
1.735000 -0.022610 0
1.740000 -0.020128 0
1.745000 -0.016984 0
1.750000 -0.013003 0
1.755000 -0.007989 0
1.760000 -0.001729 0
1.765000 0.005993 0
1.770000 0.015388 0
1.775000 0.026640 0
1.780000 0.039885 0
1.785000 0.055188 0
1.790000 0.072524 0
1.795000 0.091752 0
1.800000 0.112603 0
1.805000 0.134670 0
1.810000 0.157414 0
1.815000 0.180174 0
1.820000 0.202198 0
1.825000 0.222678 0
1.830000 0.240800 0
1.835000 0.255791 0
1.840000 0.266981 0
1.845000 0.273845 0
1.850000 0.276048 1
1.855000 0.273466 0
1.860000 0.266204 0
1.865000 0.254580 0
1.870000 0.239107 0
1.875000 0.220456 0
1.880000 0.199400 0
1.885000 0.176768 0
1.890000 0.153389 0
1.895000 0.130039 0
1.900000 0.107408 0
1.905000 0.086058 0
1.910000 0.066407 0
1.915000 0.048700 0
1.920000 0.032963 0
1.925000 0.018919 0
1.930000 0.005844 0
1.935000 -0.007599 0
1.940000 -0.023424 0
1.945000 -0.044046 0
1.950000 -0.071448 0
1.955000 -0.105783 0
1.960000 -0.143854 0
1.965000 -0.178271 0
1.970000 -0.197907 2
1.975000 -0.189584 0
1.980000 -0.140261 0
1.985000 -0.039209 0
1.990000 0.119352 0
1.995000 0.332116 0
2.000000 0.581511 0
2.005000 0.832840 0
2.010000 1.038500 0
2.015000 1.151107 3
2.020000 1.139875 0
2.025000 1.003517 0
2.030000 0.774127 0
2.035000 0.501578 0
2.040000 0.235136 0
2.045000 0.010634 0
2.050000 -0.152958 0
2.055000 -0.250693 0
2.060000 -0.287642 4
2.065000 -0.276038 0
2.070000 -0.232714 0
2.075000 -0.175545 0
2.080000 -0.119401 0
2.085000 -0.073343 0
2.090000 -0.040275 0
2.095000 -0.018702 0
2.100000 -0.005190 0
2.105000 0.003709 0
2.110000 0.010552 0
2.115000 0.016900 0
2.120000 0.023586 0
2.125000 0.031021 0
2.130000 0.039412 0
2.135000 0.048882 0
2.140000 0.059515 0
2.145000 0.071373 0
2.150000 0.084501 0
2.155000 0.098923 0
2.160000 0.114639 0
2.165000 0.131622 0
2.170000 0.149814 0
2.175000 0.169124 0
2.180000 0.189427 0
2.185000 0.210561 0
2.190000 0.232329 0
2.195000 0.254499 0
2.200000 0.276809 0
2.205000 0.298968 0
2.210000 0.320666 0
2.215000 0.341576 0
2.220000 0.361364 0
2.225000 0.379697 0
2.230000 0.396252 0
2.235000 0.410726 0
2.240000 0.422841 0
2.245000 0.432358 0
2.250000 0.439081 0
2.255000 0.442865 0
2.260000 0.443618 5
2.265000 0.441308 0
2.270000 0.435961 0
2.275000 0.427661 0
2.280000 0.416550 0
2.285000 0.402820 0
2.290000 0.386710 0
2.295000 0.368498 0
2.300000 0.348490 0
2.305000 0.327018 0
2.310000 0.304421 0
2.315000 0.281046 0
2.320000 0.257231 0
2.325000 0.233302 0
2.330000 0.209564 0
2.335000 0.186295 0
2.340000 0.163742 0
2.345000 0.142117 0
2.350000 0.121594 0
2.355000 0.102311 0
2.360000 0.084370 0
2.365000 0.067834 0
2.370000 0.052738 0
2.375000 0.039083 0
2.380000 0.026847 0
2.385000 0.015985 0
2.390000 0.006434 0
2.395000 -0.001884 0
2.400000 -0.009054 0
2.405000 -0.015171 0
2.410000 -0.020330 0
2.415000 -0.024628 0
2.420000 -0.028162 0
2.425000 -0.031021 0
2.430000 -0.033292 0
2.435000 -0.035056 0
2.440000 -0.036384 0
2.445000 -0.037344 0
2.450000 -0.037993 0
2.455000 -0.038384 0
2.460000 -0.038562 0
2.465000 -0.038566 0
2.470000 -0.038427 0
2.475000 -0.038175 0
2.480000 -0.037833 0
2.485000 -0.037419 0
2.490000 -0.036949 0
2.495000 -0.036436 0
2.500000 -0.035891 0
2.505000 -0.035322 0
2.510000 -0.034685 0
2.515000 -0.034040 0
2.520000 -0.033398 0
2.525000 -0.032760 0
2.530000 -0.032124 0
2.535000 -0.031492 0
2.540000 -0.030863 0
2.545000 -0.030237 0
2.550000 -0.029614 0
2.555000 -0.028994 0
2.560000 -0.028378 0
2.565000 -0.027764 0
2.570000 -0.027154 0
2.575000 -0.026546 0
2.580000 -0.025942 0
2.585000 -0.025340 0
2.590000 -0.024742 0
2.595000 -0.024146 0
2.600000 -0.023554 0
2.605000 -0.022964 0
2.610000 -0.022378 0
2.615000 -0.021794 0
2.620000 -0.021213 0
2.625000 -0.020635 0
2.630000 -0.020060 0
2.635000 -0.019488 0
2.640000 -0.018918 0
2.645000 -0.018350 0
2.650000 -0.017784 0
2.655000 -0.017219 0
2.660000 -0.016653 0
2.665000 -0.016084 0
2.670000 -0.015510 0
2.675000 -0.014923 0
2.680000 -0.014317 0
2.685000 -0.013677 0
2.690000 -0.012986 0
2.695000 -0.012217 0
2.700000 -0.011333 0
2.705000 -0.010283 0
2.710000 -0.008999 0
2.715000 -0.007390 0
2.720000 -0.005346 0
2.725000 -0.002726 0
2.730000 0.000637 0
2.735000 0.004934 0
2.740000 0.010380 0
2.745000 0.017200 0
2.750000 0.025622 0
2.755000 0.035855 0
2.760000 0.048069 0
2.765000 0.062371 0
2.770000 0.078782 0
2.775000 0.097205 0
2.780000 0.117417 0
2.785000 0.139045 0
2.790000 0.161572 0
2.795000 0.184346 0
2.800000 0.206605 0
2.805000 0.227514 0
2.810000 0.246215 0
2.815000 0.261885 0
2.820000 0.273792 0
2.825000 0.281355 0
2.830000 0.284186 1
2.835000 0.282124 0
2.840000 0.275247 0
2.845000 0.263872 0
2.850000 0.248521 0
2.855000 0.229888 0
2.860000 0.208783 0
2.865000 0.186074 0
2.870000 0.162628 0
2.875000 0.139256 0
2.880000 0.116670 0
2.885000 0.095447 0
2.890000 0.076005 0
2.895000 0.058571 0
2.900000 0.043126 0
2.905000 0.029302 0
2.910000 0.016216 0
2.915000 0.002293 0
2.920000 -0.014733 0
2.925000 -0.037379 0
2.930000 -0.067293 0
2.935000 -0.103614 0
2.940000 -0.141455 0
2.945000 -0.171443 0
2.950000 -0.180790 2
2.955000 -0.155475 0
2.960000 -0.082652 0
2.965000 0.046860 0
2.970000 0.234981 0
2.975000 0.471018 0
2.980000 0.726718 0
2.985000 0.956871 0
2.990000 1.109691 0
2.995000 1.144998 3
3.000000 1.051847 0
3.005000 0.852795 0
3.010000 0.591346 0
3.015000 0.317044 0
3.020000 0.070689 0
3.025000 -0.122431 0
3.030000 -0.251845 0
3.035000 -0.318190 0
3.040000 -0.330031 4
3.045000 -0.301568 0
3.050000 -0.249912 0
3.055000 -0.191435 0
3.060000 -0.138320 0
3.065000 -0.096846 0
3.070000 -0.067955 0
3.075000 -0.049283 0
3.080000 -0.037366 0
3.085000 -0.029108 0
3.090000 -0.022344 0
3.095000 -0.015797 0
3.100000 -0.008797 0
3.105000 -0.001008 0
3.110000 0.007745 0
3.115000 0.017570 0
3.120000 0.028542 0
3.125000 0.040720 0
3.130000 0.054143 0
3.135000 0.068833 0
3.140000 0.084787 0
3.145000 0.101978 0
3.150000 0.120348 0
3.155000 0.139810 0
3.160000 0.160242 0
3.165000 0.181490 0
3.170000 0.203366 0
3.175000 0.225650 0
3.180000 0.248092 0
3.185000 0.270416 0
3.190000 0.292326 0
3.195000 0.313509 0
3.200000 0.333646 0
3.205000 0.352417 0
3.210000 0.369510 0
3.215000 0.384627 0
3.220000 0.397498 0
3.225000 0.407882 0
3.230000 0.415580 0
3.235000 0.420435 0
3.240000 0.422344 5
3.245000 0.421257 0
3.250000 0.417177 0
3.255000 0.410166 0
3.260000 0.400337 0
3.265000 0.387855 0
3.270000 0.372931 0
3.275000 0.355815 0
3.280000 0.336788 0
3.285000 0.316158 0
3.290000 0.294248 0
3.295000 0.271388 0
3.300000 0.247908 0
3.305000 0.224130 0
3.310000 0.200358 0
3.315000 0.176876 0
3.320000 0.153942 0
3.325000 0.131780 0
3.330000 0.110583 0
3.335000 0.090510 0
3.340000 0.071682 0
3.345000 0.054186 0
3.350000 0.038079 0
3.355000 0.023386 0
3.360000 0.010103 0
3.365000 -0.001795 0
3.370000 -0.012354 0
3.375000 -0.021637 0
3.380000 -0.029718 0
3.385000 -0.036682 0
3.390000 -0.042619 0
3.395000 -0.047621 0
3.400000 -0.051782 0
3.405000 -0.055192 0
3.410000 -0.057941 0
3.415000 -0.060109 0
3.420000 -0.061775 0
3.425000 -0.063010 0
3.430000 -0.063877 0
3.435000 -0.064434 0
3.440000 -0.064732 0
3.445000 -0.064814 0
3.450000 -0.064718 0
3.455000 -0.064478 0
3.460000 -0.064122 0
3.465000 -0.063672 0
3.470000 -0.063148 0
3.475000 -0.062566 0
3.480000 -0.061940 0
3.485000 -0.061278 0
3.490000 -0.060591 0
3.495000 -0.059875 0
3.500000 -0.059105 0
3.505000 -0.058338 0
3.510000 -0.057575 0
3.515000 -0.056816 0
3.520000 -0.056060 0
3.525000 -0.055309 0
3.530000 -0.054561 0
3.535000 -0.053817 0
3.540000 -0.053076 0
3.545000 -0.052339 0
3.550000 -0.051606 0
3.555000 -0.050877 0
3.560000 -0.050151 0
3.565000 -0.049429 0
3.570000 -0.048710 0
3.575000 -0.047995 0
3.580000 -0.047284 0
3.585000 -0.046576 0
3.590000 -0.045872 0
3.595000 -0.045171 0
3.600000 -0.044473 0
3.605000 -0.043780 0
3.610000 -0.043089 0
3.615000 -0.042402 0
3.620000 -0.041718 0
3.625000 -0.041038 0
3.630000 -0.040360 0
3.635000 -0.039685 0
3.640000 -0.039013 0
3.645000 -0.038342 0
3.650000 -0.037671 0
3.655000 -0.036998 0
3.660000 -0.036320 0
3.665000 -0.035631 0
3.670000 -0.034924 0
3.675000 -0.034187 0
3.680000 -0.033403 0
3.685000 -0.032548 0
3.690000 -0.031587 0
3.695000 -0.030476 0
3.700000 -0.029152 0
3.705000 -0.027533 0
3.710000 -0.025519 0
3.715000 -0.022982 0
3.720000 -0.019769 0
3.725000 -0.015704 0
3.730000 -0.010587 0
3.735000 -0.004204 0
3.740000 0.003663 0
3.745000 0.013225 0
3.750000 0.024662 0
3.755000 0.038107 0
3.760000 0.053619 0
3.765000 0.071161 0
3.770000 0.090580 0
3.775000 0.111592 0
3.780000 0.133773 0
3.785000 0.156569 0
3.790000 0.179303 0
3.795000 0.201210 0
3.800000 0.221475 0
3.805000 0.239280 0
3.810000 0.253859 0
3.815000 0.264552 0
3.820000 0.270853 0
3.825000 0.272452 1
3.830000 0.269253 0
3.835000 0.261391 0
3.840000 0.249215 0
3.845000 0.233265 0
3.850000 0.214232 0
3.855000 0.192908 0
3.860000 0.170128 0
3.865000 0.146720 0
3.870000 0.123455 0
3.875000 0.101007 0
3.880000 0.079923 0
3.885000 0.060594 0
3.890000 0.043235 0
3.895000 0.027829 0
3.900000 0.014033 0
3.905000 0.001022 0
3.910000 -0.012669 0
3.915000 -0.029172 0
3.920000 -0.050918 0
3.925000 -0.079677 0
3.930000 -0.115080 0
3.935000 -0.153140 0
3.940000 -0.185620 0
3.945000 -0.200764 2
3.950000 -0.185171 0
3.955000 -0.126020 0
3.960000 -0.013285 0
3.965000 0.157349 0
3.970000 0.379966 0
3.975000 0.633294 0
3.980000 0.878964 0
3.985000 1.067767 0
3.990000 1.154494 3
3.995000 1.115987 0
4.000000 0.960689 0
4.005000 0.722441 0
4.010000 0.448477 0
4.015000 0.183717 0
4.020000 -0.039531 0
4.025000 -0.204035 0
4.030000 -0.305066 0
4.035000 -0.346918 4
4.040000 -0.340426 0
4.045000 -0.300820 0
4.050000 -0.244800 0
4.055000 -0.187016 0
4.060000 -0.137300 0
4.065000 -0.099834 0
4.070000 -0.074264 0
4.075000 -0.057782 0
4.080000 -0.047036 0
4.085000 -0.039249 0
4.090000 -0.032563 0
4.095000 -0.025906 0
4.100000 -0.018716 0
4.105000 -0.010713 0
4.110000 -0.001743 0
4.115000 0.008291 0
4.120000 0.019460 0
4.125000 0.031817 0
4.130000 0.045400 0
4.135000 0.060225 0
4.140000 0.076291 0
4.145000 0.093568 0
4.150000 0.112000 0
4.155000 0.131501 0
4.160000 0.151956 0
4.165000 0.173215 0
4.170000 0.195099 0
4.175000 0.217395 0
4.180000 0.239865 0
4.185000 0.262245 0
4.190000 0.284250 0
4.195000 0.305582 0
4.200000 0.325931 0
4.205000 0.344990 0
4.210000 0.362454 0
4.215000 0.378035 0
4.220000 0.391463 0
4.225000 0.402500 0
4.230000 0.410944 0
4.235000 0.416631 0
4.240000 0.419449 5
4.245000 0.419332 0
4.250000 0.416268 0
4.255000 0.410297 0
4.260000 0.401512 0
4.265000 0.390055 0
4.270000 0.376112 0
4.275000 0.359910 0
4.280000 0.341710 0
4.285000 0.321797 0
4.290000 0.300479 0
4.295000 0.278071 0
4.300000 0.254893 0
4.305000 0.231260 0
4.310000 0.207477 0
4.315000 0.183829 0
4.320000 0.160579 0
4.325000 0.137963 0
4.330000 0.116185 0
4.335000 0.095420 0
4.340000 0.075806 0
4.345000 0.057449 0
4.350000 0.040425 0
4.355000 0.024776 0
4.360000 0.010518 0
4.365000 -0.002357 0
4.370000 -0.013881 0
4.375000 -0.024101 0
4.380000 -0.033081 0
4.385000 -0.040897 0
4.390000 -0.047630 0
4.395000 -0.053369 0
4.400000 -0.058202 0
4.405000 -0.062219 0
4.410000 -0.065510 0
4.415000 -0.068157 0
4.420000 -0.070240 0
4.425000 -0.071835 0
4.430000 -0.073008 0
4.435000 -0.073821 0
4.440000 -0.074330 0
4.445000 -0.074584 0
4.450000 -0.074624 0
4.455000 -0.074490 0
4.460000 -0.074211 0
4.465000 -0.073816 0
4.470000 -0.073327 0
4.475000 -0.072764 0
4.480000 -0.072143 0
4.485000 -0.071475 0
4.490000 -0.070772 0
4.495000 -0.070043 0
4.500000 -0.069284 0
4.505000 -0.068466 0
4.510000 -0.067653 0
4.515000 -0.066843 0
4.520000 -0.066038 0
4.525000 -0.065237 0
4.530000 -0.064439 0
4.535000 -0.063646 0
4.540000 -0.062856 0
4.545000 -0.062071 0
4.550000 -0.061289 0
4.555000 -0.060511 0
4.560000 -0.059737 0
4.565000 -0.058967 0
4.570000 -0.058201 0
4.575000 -0.057439 0
4.580000 -0.056681 0
4.585000 -0.055926 0
4.590000 -0.055175 0
4.595000 -0.054428 0
4.600000 -0.053684 0
4.605000 -0.052944 0
4.610000 -0.052208 0
4.615000 -0.051476 0
4.620000 -0.050747 0
4.625000 -0.050021 0
4.630000 -0.049300 0
4.635000 -0.048581 0
4.640000 -0.047866 0
4.645000 -0.047153 0
4.650000 -0.046443 0
4.655000 -0.045735 0
4.660000 -0.045026 0
4.665000 -0.044315 0
4.670000 -0.043598 0
4.675000 -0.042870 0
4.680000 -0.042122 0
4.685000 -0.041344 0
4.690000 -0.040517 0
4.695000 -0.039618 0
4.700000 -0.038612 0
4.705000 -0.037455 0
4.710000 -0.036085 0
4.715000 -0.034423 0
4.720000 -0.032371 0
4.725000 -0.029806 0
4.730000 -0.026582 0
4.735000 -0.022527 0
4.740000 -0.017450 0
4.745000 -0.011147 0
4.750000 -0.003404 0
4.755000 0.005981 0
4.760000 0.017187 0
4.765000 0.030350 0
4.770000 0.045539 0
4.775000 0.062735 0
4.780000 0.081813 0
4.785000 0.102525 0
4.790000 0.124492 0
4.795000 0.147208 0
4.800000 0.170049 0
4.805000 0.192295 0
4.810000 0.213170 0
4.815000 0.231879 0
4.820000 0.247662 0
4.825000 0.259840 0
4.830000 0.267867 0
4.835000 0.271367 1
4.840000 0.270164 0
4.845000 0.264297 0
4.850000 0.254016 0
4.855000 0.239763 0
4.860000 0.222143 0
4.865000 0.201879 0
4.870000 0.179763 0
4.875000 0.156606 0
4.880000 0.133186 0
4.885000 0.110211 0
4.890000 0.088280 0
4.895000 0.067864 0
4.900000 0.049279 0
4.905000 0.032655 0
4.910000 0.017877 0
4.915000 0.004478 0
4.920000 -0.008521 0
4.925000 -0.022739 0
4.930000 -0.040375 0
4.935000 -0.063726 0
4.940000 -0.094138 0
4.945000 -0.130559 0
4.950000 -0.168276 0
4.955000 -0.198569 0
4.960000 -0.209647 2
4.965000 -0.188517 0
4.970000 -0.123051 0
4.975000 -0.004081 0
4.980000 0.171746 0
4.985000 0.397580 0
4.990000 0.651672 0
4.995000 0.896142 0
5.000000 1.083279 0
5.005000 1.169641 3
5.010000 1.131531 0
5.015000 0.974861 0
5.020000 0.734823 0
5.025000 0.460306 0
5.030000 0.197258 0
5.035000 -0.021917 0
5.040000 -0.180550 0
5.045000 -0.274770 0
5.050000 -0.309869 4
5.055000 -0.297752 0
5.060000 -0.254574 0
5.065000 -0.197479 0
5.070000 -0.140867 0
5.075000 -0.093756 0
5.080000 -0.059330 0
5.085000 -0.036457 0
5.090000 -0.021948 0
5.095000 -0.012424 0
5.100000 -0.005273 0
5.105000 0.001161 0
5.110000 0.007792 0
5.115000 0.015083 0
5.120000 0.023267 0
5.125000 0.032477 0
5.130000 0.042799 0
5.135000 0.054301 0
5.140000 0.067031 0
5.145000 0.081018 0
5.150000 0.096272 0
5.155000 0.112778 0
5.160000 0.130494 0
5.165000 0.149347 0
5.170000 0.169232 0
5.175000 0.190011 0
5.180000 0.211512 0
5.185000 0.233533 0
5.190000 0.255837 0
5.195000 0.278161 0
5.200000 0.300219 0
5.205000 0.321707 0
5.210000 0.342309 0
5.215000 0.361705 0
5.220000 0.379579 0
5.225000 0.395625 0
5.230000 0.409560 0
5.235000 0.421127 0
5.240000 0.430106 0
5.245000 0.436320 0
5.250000 0.439637 0
5.255000 0.439981 5
5.260000 0.437328 0
5.265000 0.431710 0
5.270000 0.423214 0
5.275000 0.411980 0
5.280000 0.398193 0
5.285000 0.382085 0
5.290000 0.363921 0
5.295000 0.343995 0
5.300000 0.322623 0
5.305000 0.300132 0
5.310000 0.276851 0
5.315000 0.253106 0
5.320000 0.229211 0
5.325000 0.205462 0
5.330000 0.182128 0
5.335000 0.159451 0
5.340000 0.137642 0
5.345000 0.116876 0
5.350000 0.097293 0
5.355000 0.079000 0
5.360000 0.062068 0
5.365000 0.046538 0
5.370000 0.032422 0
5.375000 0.019707 0
5.380000 0.008356 0
5.385000 -0.001684 0
5.390000 -0.010483 0
5.395000 -0.018118 0
5.400000 -0.024678 0
5.405000 -0.030253 0
5.410000 -0.034937 0
5.415000 -0.038821 0
5.420000 -0.041996 0
5.425000 -0.044547 0
5.430000 -0.046554 0
5.435000 -0.048091 0
5.440000 -0.049226 0
5.445000 -0.050020 0
5.450000 -0.050527 0
5.455000 -0.050795 0
5.460000 -0.050864 0
5.465000 -0.050772 0
5.470000 -0.050547 0
5.475000 -0.050216 0
5.480000 -0.049800 0
5.485000 -0.049318 0
5.490000 -0.048783 0
5.495000 -0.048207 0
5.500000 -0.047601 0
5.505000 -0.046972 0
5.510000 -0.046277 0
5.515000 -0.045575 0
5.520000 -0.044875 0
5.525000 -0.044179 0
5.530000 -0.043487 0
5.535000 -0.042798 0
5.540000 -0.042112 0
5.545000 -0.041430 0
5.550000 -0.040752 0
5.555000 -0.040076 0
5.560000 -0.039404 0
5.565000 -0.038736 0
5.570000 -0.038071 0
5.575000 -0.037409 0
5.580000 -0.036750 0
5.585000 -0.036095 0
5.590000 -0.035443 0
5.595000 -0.034794 0
5.600000 -0.034148 0
5.605000 -0.033506 0
5.610000 -0.032867 0
5.615000 -0.032231 0
5.620000 -0.031598 0
5.625000 -0.030968 0
5.630000 -0.030342 0
5.635000 -0.029718 0
5.640000 -0.029097 0
5.645000 -0.028479 0
5.650000 -0.027863 0
5.655000 -0.027249 0
5.660000 -0.026635 0
5.665000 -0.026021 0
5.670000 -0.025403 0
5.675000 -0.024778 0
5.680000 -0.024140 0
5.685000 -0.023479 0
5.690000 -0.022782 0
5.695000 -0.022030 0
5.700000 -0.021196 0
5.705000 -0.020240 0
5.710000 -0.019112 0
5.715000 -0.017744 0
5.720000 -0.016046 0
5.725000 -0.013909 0
5.730000 -0.011197 0
5.735000 -0.007747 0
5.740000 -0.003376 0
5.745000 0.002122 0
5.750000 0.008964 0
5.755000 0.017366 0
5.760000 0.027530 0
5.765000 0.039621 0
5.770000 0.053748 0
5.775000 0.069939 0
5.780000 0.088117 0
5.785000 0.108085 0
5.790000 0.129511 0
5.795000 0.151926 0
5.800000 0.174731 0
5.805000 0.197218 0
5.810000 0.218600 0
5.815000 0.238058 0
5.820000 0.254788 0
5.825000 0.268056 0
5.830000 0.277252 0
5.835000 0.281934 1
5.840000 0.281862 0
5.845000 0.277019 0
5.850000 0.267613 0
5.855000 0.254060 0
5.860000 0.236955 0
5.865000 0.217024 0
5.870000 0.195079 0
5.875000 0.171955 0
5.880000 0.148466 0
5.885000 0.125353 0
5.890000 0.103248 0
5.895000 0.082649 0
5.900000 0.063895 0
5.905000 0.047131 0
5.910000 0.032251 0
5.915000 0.018776 0
5.920000 0.005698 0
5.925000 -0.008666 0
5.930000 -0.026601 0
5.935000 -0.050459 0
5.940000 -0.081511 0
5.945000 -0.118403 0
5.950000 -0.155855 0
5.955000 -0.184427 0
5.960000 -0.191656 2
5.965000 -0.164123 0
5.970000 -0.089644 0
5.975000 0.040425 0
5.980000 0.227862 0
5.985000 0.462648 0
5.990000 0.718363 0
5.995000 0.952434 0
6.000000 1.115131 0
6.005000 1.165976 3
6.010000 1.089563 0
6.015000 0.902218 0
6.020000 0.645784 0
6.025000 0.370510 0
6.030000 0.119250 0
6.035000 -0.080551 0
6.040000 -0.216829 0
6.045000 -0.289228 0
6.050000 -0.305724 4
6.055000 -0.280243 0
6.060000 -0.229961 0
6.065000 -0.171633 0
6.070000 -0.117986 0
6.075000 -0.075797 0
6.080000 -0.046319 0
6.085000 -0.027297 0
6.090000 -0.015244 0
6.095000 -0.006991 0
6.100000 -0.000311 0
6.105000 0.006120 0
6.110000 0.012993 0
6.115000 0.020654 0
6.120000 0.029283 0
6.125000 0.038990 0
6.130000 0.049851 0
6.135000 0.061925 0
6.140000 0.075252 0
6.145000 0.089854 0
6.150000 0.105728 0
6.155000 0.122845 0
6.160000 0.141147 0
6.165000 0.160545 0
6.170000 0.180914 0
6.175000 0.202097 0
6.180000 0.223903 0
6.185000 0.246107 0
6.190000 0.268455 0
6.195000 0.290666 0
6.200000 0.312439 0
6.205000 0.333459 0
6.210000 0.353402 0
6.215000 0.371943 0
6.220000 0.388770 0
6.225000 0.403582 0
6.230000 0.416110 0
6.235000 0.426113 0
6.240000 0.433395 0
6.245000 0.437805 0
6.250000 0.439243 5
6.255000 0.437665 0
6.260000 0.433085 0
6.265000 0.425569 0
6.270000 0.415243 0
6.275000 0.402278 0
6.280000 0.386896 0
6.285000 0.369354 0
6.290000 0.349942 0
6.295000 0.328975 0
6.300000 0.306780 0
6.305000 0.283693 0
6.310000 0.260046 0
6.315000 0.236160 0
6.320000 0.212341 0
6.325000 0.188871 0
6.330000 0.166002 0
6.335000 0.143956 0
6.340000 0.122919 0
6.345000 0.103043 0
6.350000 0.084444 0
6.355000 0.067201 0
6.360000 0.051362 0
6.365000 0.036947 0
6.370000 0.023946 0
6.375000 0.012328 0
6.380000 0.002040 0
6.385000 -0.006985 0
6.390000 -0.014824 0
6.395000 -0.021565 0
6.400000 -0.027300 0
6.405000 -0.032122 0
6.410000 -0.036127 0
6.415000 -0.039405 0
6.420000 -0.042043 0
6.425000 -0.044124 0
6.430000 -0.045723 0
6.435000 -0.046911 0
6.440000 -0.047748 0
6.445000 -0.048291 0
6.450000 -0.048589 0
6.455000 -0.048684 0
6.460000 -0.048613 0
6.465000 -0.048408 0
6.470000 -0.048093 0
6.475000 -0.047692 0
6.480000 -0.047223 0
6.485000 -0.046701 0
6.490000 -0.046137 0
6.495000 -0.045542 0
6.500000 -0.044924 0
6.505000 -0.044239 0
6.510000 -0.043546 0
6.515000 -0.042857 0
6.520000 -0.042171 0
6.525000 -0.041489 0
6.530000 -0.040810 0
6.535000 -0.040135 0
6.540000 -0.039462 0
6.545000 -0.038793 0
6.550000 -0.038128 0
6.555000 -0.037466 0
6.560000 -0.036807 0
6.565000 -0.036151 0
6.570000 -0.035499 0
6.575000 -0.034850 0
6.580000 -0.034204 0
6.585000 -0.033561 0
6.590000 -0.032922 0
6.595000 -0.032286 0
6.600000 -0.031652 0
6.605000 -0.031023 0
6.610000 -0.030396 0
6.615000 -0.029772 0
6.620000 -0.029151 0
6.625000 -0.028534 0
6.630000 -0.027919 0
6.635000 -0.027307 0
6.640000 -0.026698 0
6.645000 -0.026091 0
6.650000 -0.025485 0
6.655000 -0.024880 0
6.660000 -0.024273 0
6.665000 -0.023662 0
6.670000 -0.023043 0
6.675000 -0.022408 0
6.680000 -0.021749 0
6.685000 -0.021049 0
6.690000 -0.020287 0
6.695000 -0.019434 0
6.700000 -0.018448 0
6.705000 -0.017271 0
6.710000 -0.015831 0
6.715000 -0.014031 0
6.720000 -0.011753 0
6.725000 -0.008851 0
6.730000 -0.005154 0
6.735000 -0.000469 0
6.740000 0.005418 0
6.745000 0.012727 0
6.750000 0.021676 0
6.755000 0.032459 0
6.760000 0.045227 0
6.765000 0.060065 0
6.770000 0.076967 0
6.775000 0.095815 0
6.780000 0.116361 0
6.785000 0.138216 0
6.790000 0.160855 0
6.795000 0.183625 0
6.800000 0.205772 0
6.805000 0.226482 0
6.810000 0.244922 0
6.815000 0.260300 0
6.820000 0.271918 0
6.825000 0.279224 0
6.830000 0.281855 1
6.835000 0.279663 0
6.840000 0.272734 0
6.845000 0.261375 0
6.850000 0.246096 0
6.855000 0.227567 0
6.860000 0.206573 0
6.865000 0.183953 0
6.870000 0.160552 0
6.875000 0.137162 0
6.880000 0.114485 0
6.885000 0.093095 0
6.890000 0.073418 0
6.895000 0.055701 0
6.900000 0.039968 0
6.905000 0.025929 0
6.910000 0.012831 0
6.915000 -0.000714 0
6.920000 -0.016780 0
6.925000 -0.037827 0
6.930000 -0.065797 0
6.935000 -0.100643 0
6.940000 -0.138787 0
6.945000 -0.172338 0
6.950000 -0.189689 2
6.955000 -0.177350 0
6.960000 -0.122222 0
6.965000 -0.013848 0
6.970000 0.152709 0
6.975000 0.372367 0
6.980000 0.624737 0
6.985000 0.871973 0
6.990000 1.064609 0
6.995000 1.156341 3
7.000000 1.122780 0
7.005000 0.971567 0
7.010000 0.735701 0
7.015000 0.462216 0
7.020000 0.196381 0
7.025000 -0.028905 0
7.030000 -0.195849 0
7.035000 -0.299305 0
7.040000 -0.343276 4
7.045000 -0.338386 0
7.050000 -0.299747 0
7.055000 -0.244073 0
7.060000 -0.186156 0
7.065000 -0.136042 0
7.070000 -0.098116 0
7.075000 -0.072159 0
7.080000 -0.055415 0
7.085000 -0.044526 0
7.090000 -0.036683 0
7.095000 -0.029993 0
7.100000 -0.023361 0
7.105000 -0.016211 0
7.110000 -0.008254 0
7.115000 0.000665 0
7.120000 0.010646 0
7.125000 0.021760 0
7.130000 0.034061 0
7.135000 0.047586 0
7.140000 0.062354 0
7.145000 0.078363 0
7.150000 0.095584 0
7.155000 0.113964 0
7.160000 0.133417 0
7.165000 0.153828 0
7.170000 0.175050 0
7.175000 0.196902 0
7.180000 0.219175 0
7.185000 0.241631 0
7.190000 0.264006 0
7.195000 0.286016 0
7.200000 0.307363 0
7.205000 0.327738 0
7.210000 0.346832 0
7.215000 0.364342 0
7.220000 0.379977 0
7.225000 0.393468 0
7.230000 0.404575 0
7.235000 0.413093 0
7.240000 0.418860 0
7.245000 0.421760 5
7.250000 0.421726 0
7.255000 0.418744 0
7.260000 0.412853 0
7.265000 0.404144 0
7.270000 0.392757 0
7.275000 0.378877 0
7.280000 0.362730 0
7.285000 0.344576 0
7.290000 0.324701 0
7.295000 0.303410 0
7.300000 0.281019 0
7.305000 0.257849 0
7.310000 0.234215 0
7.315000 0.210420 0
7.320000 0.186753 0
7.325000 0.163477 0
7.330000 0.140827 0
7.335000 0.119011 0
7.340000 0.098203 0
7.345000 0.078543 0
7.350000 0.060137 0
7.355000 0.043062 0
7.360000 0.027363 0
7.365000 0.013054 0
7.370000 0.000129 0
7.375000 -0.011443 0
7.380000 -0.021710 0
7.385000 -0.030735 0
7.390000 -0.038592 0
7.395000 -0.045365 0
7.400000 -0.051140 0
7.405000 -0.056007 0
7.410000 -0.060057 0
7.415000 -0.063376 0
7.420000 -0.066049 0
7.425000 -0.068158 0
7.430000 -0.069774 0
7.435000 -0.070968 0
7.440000 -0.071800 0
7.445000 -0.072326 0
7.450000 -0.072596 0
7.455000 -0.072652 0
7.460000 -0.072531 0
7.465000 -0.072265 0
7.470000 -0.071883 0
7.475000 -0.071406 0
7.480000 -0.070854 0
7.485000 -0.070243 0
7.490000 -0.069586 0
7.495000 -0.068894 0
7.500000 -0.068175 0
7.505000 -0.067425 0
7.510000 -0.066617 0
7.515000 -0.065813 0
7.520000 -0.065012 0
7.525000 -0.064216 0
7.530000 -0.063424 0
7.535000 -0.062635 0
7.540000 -0.061851 0
7.545000 -0.061070 0
7.550000 -0.060294 0
7.555000 -0.059521 0
7.560000 -0.058752 0
7.565000 -0.057987 0
7.570000 -0.057226 0
7.575000 -0.056468 0
7.580000 -0.055715 0
7.585000 -0.054965 0
7.590000 -0.054219 0
7.595000 -0.053476 0
7.600000 -0.052737 0
7.605000 -0.052002 0
7.610000 -0.051271 0
7.615000 -0.050543 0
7.620000 -0.049819 0
7.625000 -0.049098 0
7.630000 -0.048381 0
7.635000 -0.047668 0
7.640000 -0.046957 0
7.645000 -0.046250 0
7.650000 -0.045546 0
7.655000 -0.044844 0
7.660000 -0.044143 0
7.665000 -0.043442 0
7.670000 -0.042739 0
7.675000 -0.042030 0
7.680000 -0.041310 0
7.685000 -0.040571 0
7.690000 -0.039802 0
7.695000 -0.038984 0
7.700000 -0.038094 0
7.705000 -0.037098 0
7.710000 -0.035952 0
7.715000 -0.034594 0
7.720000 -0.032946 0
7.725000 -0.030910 0
7.730000 -0.028363 0
7.735000 -0.025158 0
7.740000 -0.021127 0
7.745000 -0.016078 0
7.750000 -0.009805 0
7.755000 -0.002096 0
7.760000 0.007252 0
7.765000 0.018419 0
7.770000 0.031542 0
7.775000 0.046689 0
7.780000 0.063846 0
7.785000 0.082888 0
7.790000 0.103569 0
7.795000 0.125513 0
7.800000 0.148215 0
7.805000 0.171052 0
7.810000 0.193307 0
7.815000 0.214202 0
7.820000 0.232944 0
7.825000 0.248769 0
7.830000 0.260999 0
7.835000 0.269085 0
7.840000 0.272646 1
7.845000 0.271506 0
7.850000 0.265698 0
7.855000 0.255470 0
7.860000 0.241263 0
7.865000 0.223679 0
7.870000 0.203440 0
7.875000 0.181338 0
7.880000 0.158183 0
7.885000 0.134755 0
7.890000 0.111764 0
7.895000 0.089810 0
7.900000 0.069366 0
7.905000 0.050750 0
7.910000 0.034095 0
7.915000 0.019290 0
7.920000 0.005872 0
7.925000 -0.007130 0
7.930000 -0.021327 0
7.935000 -0.038915 0
7.940000 -0.062194 0
7.945000 -0.092530 0
7.950000 -0.128907 0
7.955000 -0.166657 0
7.960000 -0.197099 0
7.965000 -0.208465 2
7.970000 -0.187758 0
7.975000 -0.122828 0
7.980000 -0.004458 0
7.985000 0.170784 0
7.990000 0.396181 0
7.995000 0.650147 0
8.000000 0.894935 0
8.005000 1.082860 0
8.010000 1.170345 3
8.015000 1.134171 0
8.020000 0.980932 0
8.025000 0.743940 0
8.030000 0.470183 0
8.035000 0.204659 0
8.040000 -0.020043 0
8.045000 -0.186366 0
8.050000 -0.289298 0
8.055000 -0.332901 4
8.060000 -0.327809 0
8.065000 -0.289107 0
8.070000 -0.233458 0
8.075000 -0.175597 0
8.080000 -0.125532 0
8.085000 -0.087635 0
8.090000 -0.061693 0
8.095000 -0.044965 0
8.100000 -0.034099 0
8.105000 -0.026293 0
8.110000 -0.019651 0
8.115000 -0.013073 0
8.120000 -0.005984 0
8.125000 0.001907 0
8.130000 0.010759 0
8.135000 0.020669 0
8.140000 0.031710 0
8.145000 0.043934 0
8.150000 0.057381 0
8.155000 0.072068 0
8.160000 0.087995 0
8.165000 0.105134 0
8.170000 0.123431 0
8.175000 0.142803 0
8.180000 0.163136 0
8.185000 0.184283 0
8.190000 0.206067 0
8.195000 0.228279 0
8.200000 0.250682 0
8.205000 0.273016 0
8.210000 0.294998 0
8.215000 0.316330 0
8.220000 0.336706 0
8.225000 0.355817 0
8.230000 0.373360 0
8.235000 0.389045 0
8.240000 0.402603 0
8.245000 0.413792 0
8.250000 0.422406 0
8.255000 0.428282 0
8.260000 0.431300 0
8.265000 0.431392 5
8.270000 0.428540 0
8.275000 0.422780 0
8.280000 0.414200 0
8.285000 0.402935 0
8.290000 0.389169 0
8.295000 0.373123 0
8.300000 0.355055 0
8.305000 0.335247 0
8.310000 0.314004 0
8.315000 0.291640 0
8.320000 0.268474 0
8.325000 0.244820 0
8.330000 0.220985 0
8.335000 0.197254 0
8.340000 0.173893 0
8.345000 0.151140 0
8.350000 0.129203 0
8.355000 0.108259 0
8.360000 0.088451 0
8.365000 0.069887 0
8.370000 0.052647 0
8.375000 0.036777 0
8.380000 0.022296 0
8.385000 0.009198 0
8.390000 -0.002544 0
8.395000 -0.012978 0
8.400000 -0.022165 0
8.405000 -0.030178 0
8.410000 -0.037099 0
8.415000 -0.043013 0
8.420000 -0.048012 0
8.425000 -0.052184 0
8.430000 -0.055617 0
8.435000 -0.058397 0
8.440000 -0.060602 0
8.445000 -0.062309 0
8.450000 -0.063586 0
8.455000 -0.064494 0
8.460000 -0.065091 0
8.465000 -0.065425 0
8.470000 -0.065541 0
8.475000 -0.065475 0
8.480000 -0.065262 0
8.485000 -0.064928 0
8.490000 -0.064498 0
8.495000 -0.063990 0
8.500000 -0.063420 0
8.505000 -0.062804 0
8.510000 -0.062150 0
8.515000 -0.061468 0
8.520000 -0.060754 0
8.525000 -0.059979 0
8.530000 -0.059208 0
8.535000 -0.058441 0
8.540000 -0.057677 0
8.545000 -0.056918 0
8.550000 -0.056162 0
8.555000 -0.055409 0
8.560000 -0.054661 0
8.565000 -0.053916 0
8.570000 -0.053175 0
8.575000 -0.052438 0
8.580000 -0.051705 0
8.585000 -0.050975 0
8.590000 -0.050248 0
8.595000 -0.049526 0
8.600000 -0.048807 0
8.605000 -0.048091 0
8.610000 -0.047379 0
8.615000 -0.046671 0
8.620000 -0.045966 0
8.625000 -0.045265 0
8.630000 -0.044567 0
8.635000 -0.043873 0
8.640000 -0.043182 0
8.645000 -0.042494 0
8.650000 -0.041810 0
8.655000 -0.041129 0
8.660000 -0.040451 0
8.665000 -0.039776 0
8.670000 -0.039103 0
8.675000 -0.038431 0
8.680000 -0.037759 0
8.685000 -0.037086 0
8.690000 -0.036408 0
8.695000 -0.035719 0
8.700000 -0.035013 0
8.705000 -0.034279 0
8.710000 -0.033501 0
8.715000 -0.032656 0
8.720000 -0.031713 0
8.725000 -0.030630 0
8.730000 -0.029349 0
8.735000 -0.027797 0
8.740000 -0.025879 0
8.745000 -0.023479 0
8.750000 -0.020455 0
8.755000 -0.016643 0
8.760000 -0.011858 0
8.765000 -0.005896 0
8.770000 0.001454 0
8.775000 0.010397 0
8.780000 0.021119 0
8.785000 0.033768 0
8.790000 0.048431 0
8.795000 0.065112 0
8.800000 0.083713 0
8.805000 0.104019 0
8.810000 0.125684 0
8.815000 0.148234 0
8.820000 0.171074 0
8.825000 0.193508 0
8.830000 0.214773 0
8.835000 0.234075 0
8.840000 0.250643 0
8.845000 0.263775 0
8.850000 0.272888 0
8.855000 0.277560 0
8.860000 0.277562 1
8.865000 0.272876 0
8.870000 0.263695 0
8.875000 0.250415 0
8.880000 0.233597 0
8.885000 0.213937 0
8.890000 0.192211 0
8.895000 0.169226 0
8.900000 0.145773 0
8.905000 0.122580 0
8.910000 0.100277 0
8.915000 0.079372 0
8.920000 0.060223 0
8.925000 0.043018 0
8.930000 0.027720 0
8.935000 0.013975 0
8.940000 0.000968 0
8.945000 -0.012725 0
8.950000 -0.029159 0
8.955000 -0.050678 0
8.960000 -0.079037 0
8.965000 -0.114036 0
8.970000 -0.152132 0
8.975000 -0.185764 0
8.980000 -0.203911 2
8.985000 -0.193753 0
8.990000 -0.142732 0
8.995000 -0.040577 0
9.000000 0.118189 0
9.005000 0.330345 0
9.010000 0.579102 0
9.015000 0.831331 0
9.020000 1.041267 0
9.025000 1.162485 0
9.030000 1.164247 3
9.035000 1.041964 0
9.040000 0.822526 0
9.045000 0.553077 0
9.050000 0.282565 0
9.055000 0.048424 0
9.060000 -0.128058 0
9.065000 -0.239728 0
9.070000 -0.289713 4
9.075000 -0.288501 0
9.080000 -0.251614 0
9.085000 -0.196529 0
9.090000 -0.138835 0
9.095000 -0.089104 0
9.100000 -0.051862 0
9.105000 -0.026760 0
9.110000 -0.010837 0
9.115000 -0.000598 0
9.120000 0.006798 0
9.125000 0.013215 0
9.130000 0.019699 0
9.135000 0.026784 0
9.140000 0.034738 0
9.145000 0.043706 0
9.150000 0.053784 0
9.155000 0.065039 0
9.160000 0.077525 0
9.165000 0.091275 0
9.170000 0.106301 0
9.175000 0.122592 0
9.180000 0.140107 0
9.185000 0.158779 0
9.190000 0.178503 0
9.195000 0.199144 0
9.200000 0.220532 0
9.205000 0.242462 0
9.210000 0.264699 0
9.215000 0.286979 0
9.220000 0.309012 0
9.225000 0.330492 0
9.230000 0.351099 0
9.235000 0.370509 0
9.240000 0.388399 0
9.245000 0.404462 0
9.250000 0.418408 0
9.255000 0.429976 0
9.260000 0.438943 0
9.265000 0.445128 0
9.270000 0.448398 0
9.275000 0.448675 5
9.280000 0.445935 0
9.285000 0.440211 0
9.290000 0.431593 0
9.295000 0.420223 0
9.300000 0.406293 0
9.305000 0.390035 0
9.310000 0.371723 0
9.315000 0.351655 0
9.320000 0.330151 0
9.325000 0.307544 0
9.330000 0.284167 0
9.335000 0.260350 0
9.340000 0.236409 0
9.345000 0.212642 0
9.350000 0.189320 0
9.355000 0.166684 0
9.360000 0.144943 0
9.365000 0.124272 0
9.370000 0.104807 0
9.375000 0.086652 0
9.380000 0.069875 0
9.385000 0.054513 0
9.390000 0.040573 0
9.395000 0.028038 0
9.400000 0.016869 0
9.405000 0.007008 0
9.410000 -0.001617 0
9.415000 -0.009088 0
9.420000 -0.015494 0
9.425000 -0.020928 0
9.430000 -0.025484 0
9.435000 -0.029255 0
9.440000 -0.032332 0
9.445000 -0.034799 0
9.450000 -0.036738 0
9.455000 -0.038220 0
9.460000 -0.039314 0
9.465000 -0.040078 0
9.470000 -0.040567 0
9.475000 -0.040826 0
9.480000 -0.040897 0
9.485000 -0.040812 0
9.490000 -0.040603 0
9.495000 -0.040294 0
9.500000 -0.039905 0
9.505000 -0.039453 0
9.510000 -0.038952 0
9.515000 -0.038414 0
9.520000 -0.037847 0
9.525000 -0.037249 0
9.530000 -0.036591 0
9.535000 -0.035936 0
9.540000 -0.035285 0
9.545000 -0.034637 0
9.550000 -0.033992 0
9.555000 -0.033351 0
9.560000 -0.032712 0
9.565000 -0.032077 0
9.570000 -0.031445 0
9.575000 -0.030816 0
9.580000 -0.030190 0
9.585000 -0.029568 0
9.590000 -0.028948 0
9.595000 -0.028332 0
9.600000 -0.027718 0
9.605000 -0.027108 0
9.610000 -0.026501 0
9.615000 -0.025897 0
9.620000 -0.025295 0
9.625000 -0.024697 0
9.630000 -0.024102 0
9.635000 -0.023510 0
9.640000 -0.022920 0
9.645000 -0.022334 0
9.650000 -0.021750 0
9.655000 -0.021169 0
9.660000 -0.020591 0
9.665000 -0.020015 0
9.670000 -0.019440 0
9.675000 -0.018867 0
9.680000 -0.018294 0
9.685000 -0.017718 0
9.690000 -0.017136 0
9.695000 -0.016544 0
9.700000 -0.015933 0
9.705000 -0.015292 0
9.710000 -0.014605 0
9.715000 -0.013846 0
9.720000 -0.012982 0
9.725000 -0.011967 0
9.730000 -0.010738 0
9.735000 -0.009214 0
9.740000 -0.007292 0
9.745000 -0.004843 0
9.750000 -0.001714 0
9.755000 0.002275 0
9.760000 0.007325 0
9.765000 0.013653 0
9.770000 0.021480 0
9.775000 0.031018 0
9.780000 0.042449 0
9.785000 0.055902 0
9.790000 0.071435 0
9.795000 0.089005 0
9.800000 0.108449 0
9.805000 0.129472 0
9.810000 0.151637 0
9.815000 0.174373 0
9.820000 0.196988 0
9.825000 0.218704 0
9.830000 0.238694 0
9.835000 0.256135 0
9.840000 0.270259 0
9.845000 0.280415 0
9.850000 0.286111 0
9.855000 0.287056 1
9.860000 0.283184 0
9.865000 0.274657 0
9.870000 0.261856 0
9.875000 0.245350 0
9.880000 0.225855 0
9.885000 0.204180 0
9.890000 0.181173 0
9.895000 0.157664 0
9.900000 0.134419 0
9.905000 0.112099 0
9.910000 0.091231 0
9.915000 0.072182 0
9.920000 0.055129 0
9.925000 0.040002 0
9.930000 0.026373 0
9.935000 0.013289 0
9.940000 -0.000876 0
9.945000 -0.018390 0
9.950000 -0.041667 0
9.955000 -0.072156 0
9.960000 -0.108762 0
9.965000 -0.146467 0
9.970000 -0.175979 0
9.975000 -0.184810 2
9.980000 -0.159356 0
9.985000 -0.087160 0
9.990000 0.040751 0
9.995000 0.226506 0
10.000000 0.460385 0
10.005000 0.716029 0
10.010000 0.950533 0
10.015000 1.113529 0
10.020000 1.163959 3
10.025000 1.086121 0
10.030000 0.897209 0
10.035000 0.639808 0
10.040000 0.364700 0
10.045000 0.114835 0
10.050000 -0.082596 0
10.055000 -0.215932 0
10.060000 -0.285256 0
10.065000 -0.298992 4
10.070000 -0.271485 0
10.075000 -0.220190 0
10.080000 -0.161873 0
10.085000 -0.108997 0
10.090000 -0.067930 0
10.095000 -0.039547 0
10.100000 -0.021373 0
10.105000 -0.009859 0
10.110000 -0.001886 0
10.115000 0.004694 0
10.120000 0.011129 0
10.125000 0.018065 0
10.130000 0.025824 0
10.135000 0.034574 0
10.140000 0.044420 0
10.145000 0.055436 0
10.150000 0.067680 0
10.155000 0.081190 0
10.160000 0.095983 0
10.165000 0.112053 0
10.170000 0.129366 0
10.175000 0.147858 0
10.180000 0.167431 0
10.185000 0.187955 0
10.190000 0.209263 0
10.195000 0.231155 0
10.200000 0.253398 0
10.205000 0.275728 0
10.210000 0.297857 0
10.215000 0.319477 0
10.220000 0.340266 0
10.225000 0.359895 0
10.230000 0.378039 0
10.235000 0.394382 0
10.240000 0.408630 0
10.245000 0.420515 0
10.250000 0.429806 0
10.255000 0.436314 0
10.260000 0.439901 0
10.265000 0.440482 5
10.270000 0.438029 0
10.275000 0.432569 0
10.280000 0.424189 0
10.285000 0.413030 0
10.290000 0.399281 0
10.295000 0.383178 0
10.300000 0.364992 0
10.305000 0.345026 0
10.310000 0.323604 0
10.315000 0.301059 0
10.320000 0.277731 0
10.325000 0.253953 0
10.330000 0.230045 0
10.335000 0.206309 0
10.340000 0.183019 0
10.345000 0.160419 0
10.350000 0.138721 0
10.355000 0.118099 0
10.360000 0.098694 0
10.365000 0.080607 0
10.370000 0.063907 0
10.375000 0.048631 0
10.380000 0.034784 0
10.385000 0.022349 0
10.390000 0.011284 0
10.395000 0.001530 0
10.400000 -0.006986 0
10.405000 -0.014348 0
10.410000 -0.020647 0
10.415000 -0.025976 0
10.420000 -0.030431 0
10.425000 -0.034106 0
10.430000 -0.037092 0
10.435000 -0.039474 0
10.440000 -0.041333 0
10.445000 -0.042742 0
10.450000 -0.043768 0
10.455000 -0.044470 0
10.460000 -0.044902 0
10.465000 -0.045110 0
10.470000 -0.045134 0
10.475000 -0.045007 0
10.480000 -0.044758 0
10.485000 -0.044413 0
10.490000 -0.043991 0
10.495000 -0.043508 0
10.500000 -0.042979 0
10.505000 -0.042414 0
10.510000 -0.041822 0
10.515000 -0.041200 0
10.520000 -0.040522 0
10.525000 -0.039848 0
10.530000 -0.039178 0
10.535000 -0.038510 0
10.540000 -0.037846 0
10.545000 -0.037185 0
10.550000 -0.036528 0
10.555000 -0.035873 0
10.560000 -0.035222 0
10.565000 -0.034575 0
10.570000 -0.033930 0
10.575000 -0.033289 0
10.580000 -0.032651 0
10.585000 -0.032016 0
10.590000 -0.031384 0
10.595000 -0.030756 0
10.600000 -0.030130 0
10.605000 -0.029508 0
10.610000 -0.028889 0
10.615000 -0.028273 0
10.620000 -0.027660 0
10.625000 -0.027049 0
10.630000 -0.026442 0
10.635000 -0.025838 0
10.640000 -0.025237 0
10.645000 -0.024639 0
10.650000 -0.024043 0
10.655000 -0.023449 0
10.660000 -0.022857 0
10.665000 -0.022266 0
10.670000 -0.021674 0
10.675000 -0.021078 0
10.680000 -0.020475 0
10.685000 -0.019858 0
10.690000 -0.019219 0
10.695000 -0.018544 0
10.700000 -0.017812 0
10.705000 -0.016995 0
10.710000 -0.016055 0
10.715000 -0.014936 0
10.720000 -0.013570 0
10.725000 -0.011863 0
10.730000 -0.009699 0
10.735000 -0.006939 0
10.740000 -0.003412 0
10.745000 0.001073 0
10.750000 0.006728 0
10.755000 0.013777 0
10.760000 0.022440 0
10.765000 0.032920 0
10.770000 0.045378 0
10.775000 0.059911 0
10.780000 0.076526 0
10.785000 0.095123 0
10.790000 0.115466 0
10.795000 0.137182 0
10.800000 0.159755 0
10.805000 0.182538 0
10.810000 0.204779 0
10.815000 0.225658 0
10.820000 0.244333 0
10.825000 0.259996 0
10.830000 0.271931 0
10.835000 0.279567 0
10.840000 0.282520 1
10.845000 0.280626 0
10.850000 0.273957 0
10.855000 0.262811 0
10.860000 0.247694 0
10.865000 0.229276 0
10.870000 0.208348 0
10.875000 0.185758 0
10.880000 0.162360 0
10.885000 0.138957 0
10.890000 0.116260 0
10.895000 0.094853 0
10.900000 0.075166 0
10.905000 0.057451 0
10.910000 0.041729 0
10.915000 0.027702 0
10.920000 0.014601 0
10.925000 0.001005 0
10.930000 -0.015199 0
10.935000 -0.036501 0
10.940000 -0.064812 0
10.945000 -0.099955 0
10.950000 -0.138101 0
10.955000 -0.171029 0
10.960000 -0.186822 2
10.965000 -0.171796 0
10.970000 -0.112823 0
10.975000 0.000355 0
10.980000 0.172073 0
10.985000 0.396000 0
10.990000 0.649830 0
10.995000 0.893675 0
11.000000 1.077032 0
11.005000 1.154622 3
11.010000 1.105594 0
11.015000 0.940414 0
11.020000 0.695834 0
11.025000 0.420779 0
11.030000 0.160139 0
11.035000 -0.055056 0
11.040000 -0.209266 0
11.045000 -0.299363 0
11.050000 -0.331096 4
11.055000 -0.316623 0
11.060000 -0.272152 0
11.065000 -0.214666 0
11.070000 -0.158250 0
11.075000 -0.111576 0
11.080000 -0.077575 0
11.085000 -0.054990 0
11.090000 -0.040614 0
11.095000 -0.031106 0
11.100000 -0.023900 0
11.105000 -0.017376 0
11.110000 -0.010641 0
11.115000 -0.003243 0
11.120000 0.005048 0
11.125000 0.014362 0
11.130000 0.024786 0
11.135000 0.036385 0
11.140000 0.049208 0
11.145000 0.063283 0
11.150000 0.078621 0
11.155000 0.095206 0
11.160000 0.112996 0
11.165000 0.131920 0
11.170000 0.151874 0
11.175000 0.172722 0
11.180000 0.194293 0
11.185000 0.216385 0
11.190000 0.238767 0
11.195000 0.261176 0
11.200000 0.283330 0
11.205000 0.304926 0
11.210000 0.325652 0
11.215000 0.345189 0
11.220000 0.363222 0
11.225000 0.379448 0
11.230000 0.393583 0
11.235000 0.405371 0
11.240000 0.414592 0
11.245000 0.421064 0
11.250000 0.424657 0
11.255000 0.425289 5
11.260000 0.422933 0
11.265000 0.417617 0
11.270000 0.409424 0
11.275000 0.398486 0
11.280000 0.384987 0
11.285000 0.369152 0
11.290000 0.351241 0
11.295000 0.331546 0
11.300000 0.310377 0
11.305000 0.288059 0
11.310000 0.264919 0
11.315000 0.241282 0
11.320000 0.217461 0
11.325000 0.193752 0
11.330000 0.170428 0
11.335000 0.147731 0
11.340000 0.125874 0
11.345000 0.105037 0
11.350000 0.085363 0
11.355000 0.066962 0
11.360000 0.049909 0
11.365000 0.034251 0
11.370000 0.020002 0
11.375000 0.007151 0
11.380000 -0.004332 0
11.385000 -0.014500 0
11.390000 -0.023419 0
11.395000 -0.031165 0
11.400000 -0.037825 0
11.405000 -0.043489 0
11.410000 -0.048248 0
11.415000 -0.052196 0
11.420000 -0.055420 0
11.425000 -0.058008 0
11.430000 -0.060041 0
11.435000 -0.061592 0
11.440000 -0.062730 0
11.445000 -0.063517 0
11.450000 -0.064009 0
11.455000 -0.064253 0
11.460000 -0.064293 0
11.465000 -0.064164 0
11.470000 -0.063898 0
11.475000 -0.063521 0
11.480000 -0.063056 0
11.485000 -0.062522 0
11.490000 -0.061932 0
11.495000 -0.061300 0
11.500000 -0.060635 0
11.505000 -0.059947 0
11.510000 -0.059188 0
11.515000 -0.058421 0
11.520000 -0.057657 0
11.525000 -0.056898 0
11.530000 -0.056142 0
11.535000 -0.055390 0
11.540000 -0.054642 0
11.545000 -0.053897 0
11.550000 -0.053156 0
11.555000 -0.052419 0
11.560000 -0.051686 0
11.565000 -0.050956 0
11.570000 -0.050229 0
11.575000 -0.049507 0
11.580000 -0.048788 0
11.585000 -0.048073 0
11.590000 -0.047361 0
11.595000 -0.046653 0
11.600000 -0.045948 0
11.605000 -0.045247 0
11.610000 -0.044549 0
11.615000 -0.043855 0
11.620000 -0.043164 0
11.625000 -0.042476 0
11.630000 -0.041792 0
11.635000 -0.041112 0
11.640000 -0.040434 0
11.645000 -0.039760 0
11.650000 -0.039088 0
11.655000 -0.038418 0
11.660000 -0.037750 0
11.665000 -0.037082 0
11.670000 -0.036411 0
11.675000 -0.035735 0
11.680000 -0.035049 0
11.685000 -0.034344 0
11.690000 -0.033609 0
11.695000 -0.032826 0
11.700000 -0.031973 0
11.705000 -0.031014 0
11.710000 -0.029904 0
11.715000 -0.028581 0
11.720000 -0.026966 0
11.725000 -0.024957 0
11.730000 -0.022429 0
11.735000 -0.019231 0
11.740000 -0.015187 0
11.745000 -0.010101 0
11.750000 -0.003760 0
11.755000 0.004051 0
11.760000 0.013542 0
11.765000 0.024894 0
11.770000 0.038239 0
11.775000 0.053641 0
11.780000 0.071068 0
11.785000 0.090375 0
11.790000 0.111289 0
11.795000 0.133401 0
11.800000 0.156167 0
11.805000 0.178925 0
11.810000 0.200925 0
11.815000 0.221359 0
11.820000 0.239416 0
11.825000 0.254329 0
11.830000 0.265433 0
11.835000 0.272209 0
11.840000 0.274325 1
11.845000 0.271666 0
11.850000 0.264338 0
11.855000 0.252662 0
11.860000 0.237153 0
11.865000 0.218479 0
11.870000 0.197413 0
11.875000 0.174781 0
11.880000 0.151408 0
11.885000 0.128070 0
11.890000 0.105451 0
11.895000 0.084112 0
11.900000 0.064469 0
11.905000 0.046767 0
11.910000 0.031032 0
11.915000 0.016989 0
11.920000 0.003921 0
11.925000 -0.009499 0
11.930000 -0.025274 0
11.935000 -0.045809 0
11.940000 -0.073094 0
11.945000 -0.107320 0
11.950000 -0.145366 0
11.955000 -0.179943 0
11.960000 -0.200023 2
11.965000 -0.192491 0
11.970000 -0.144325 0
11.975000 -0.044747 0
11.980000 0.112183 0
11.985000 0.323500 0
11.990000 0.572186 0
11.995000 0.824186 0
12.000000 1.032321 0
12.005000 1.149060 3
12.010000 1.143796 0
12.015000 1.015172 0
12.020000 0.792104 0
12.025000 0.521700 0
12.030000 0.252069 0
12.035000 0.019627 0
12.040000 -0.155095 0
12.045000 -0.265349 0
12.050000 -0.314401 4
12.055000 -0.312703 0
12.060000 -0.275630 0
12.065000 -0.220455 0
12.070000 -0.162604 0
12.075000 -0.112580 0
12.080000 -0.074945 0
12.085000 -0.049430 0
12.090000 -0.033148 0
12.095000 -0.022637 0
12.100000 -0.015051 0
12.105000 -0.008509 0
12.110000 -0.001941 0
12.115000 0.005202 0
12.120000 0.013195 0
12.125000 0.022188 0
12.130000 0.032275 0
12.135000 0.043528 0
12.140000 0.055999 0
12.145000 0.069723 0
12.150000 0.084715 0
12.155000 0.100966 0
12.160000 0.118439 0
12.165000 0.137070 0
12.170000 0.156761 0
12.175000 0.177382 0
12.180000 0.198770 0
12.185000 0.220728 0
12.190000 0.243026 0
12.195000 0.265408 0
12.200000 0.287592 0
12.205000 0.309278 0
12.210000 0.330150 0
12.215000 0.349889 0
12.220000 0.368175 0
12.225000 0.384702 0
12.230000 0.399178 0
12.235000 0.411340 0
12.240000 0.420959 0
12.245000 0.427846 0
12.250000 0.431860 0
12.255000 0.432911 5
12.260000 0.430964 0
12.265000 0.426037 0
12.270000 0.418206 0
12.275000 0.407599 0
12.280000 0.394393 0
12.285000 0.378809 0
12.290000 0.361107 0
12.295000 0.341575 0
12.300000 0.320526 0
12.305000 0.298284 0
12.310000 0.275180 0
12.315000 0.251542 0
12.320000 0.227687 0
12.325000 0.203916 0
12.330000 0.180505 0
12.335000 0.157702 0
12.340000 0.135725 0
12.345000 0.114757 0
12.350000 0.094946 0
12.355000 0.076406 0
12.360000 0.059215 0
12.365000 0.043421 0
12.370000 0.029041 0
12.375000 0.016068 0
12.380000 0.004469 0
12.385000 -0.005807 0
12.390000 -0.014825 0
12.395000 -0.022662 0
12.400000 -0.029404 0
12.405000 -0.035143 0
12.410000 -0.039971 0
12.415000 -0.043980 0
12.420000 -0.047262 0
12.425000 -0.049903 0
12.430000 -0.051984 0
12.435000 -0.053580 0
12.440000 -0.054762 0
12.445000 -0.055590 0
12.450000 -0.056122 0
12.455000 -0.056405 0
12.460000 -0.056482 0
12.465000 -0.056390 0
12.470000 -0.056161 0
12.475000 -0.055822 0
12.480000 -0.055393 0
12.485000 -0.054895 0
12.490000 -0.054342 0
12.495000 -0.053746 0
12.500000 -0.053118 0
12.505000 -0.052466 0
12.510000 -0.051744 0
12.515000 -0.051014 0
12.520000 -0.050288 0
12.525000 -0.049565 0
12.530000 -0.048846 0
12.535000 -0.048130 0
12.540000 -0.047418 0
12.545000 -0.046709 0
12.550000 -0.046004 0
12.555000 -0.045303 0
12.560000 -0.044605 0
12.565000 -0.043910 0
12.570000 -0.043219 0
12.575000 -0.042532 0
12.580000 -0.041848 0
12.585000 -0.041167 0
12.590000 -0.040490 0
12.595000 -0.039816 0
12.600000 -0.039145 0
12.605000 -0.038478 0
12.610000 -0.037814 0
12.615000 -0.037153 0
12.620000 -0.036496 0
12.625000 -0.035841 0
12.630000 -0.035191 0
12.635000 -0.034543 0
12.640000 -0.033898 0
12.645000 -0.033256 0
12.650000 -0.032616 0
12.655000 -0.031979 0
12.660000 -0.031342 0
12.665000 -0.030705 0
12.670000 -0.030065 0
12.675000 -0.029419 0
12.680000 -0.028761 0
12.685000 -0.028082 0
12.690000 -0.027370 0
12.695000 -0.026607 0
12.700000 -0.025766 0
12.705000 -0.024811 0
12.710000 -0.023693 0
12.715000 -0.022347 0
12.720000 -0.020688 0
12.725000 -0.018608 0
12.730000 -0.015977 0
12.735000 -0.012635 0
12.740000 -0.008402 0
12.745000 -0.003076 0
12.750000 0.003561 0
12.755000 0.011726 0
12.760000 0.021624 0
12.765000 0.033428 0
12.770000 0.047257 0
12.775000 0.063153 0
12.780000 0.081056 0
12.785000 0.100790 0
12.790000 0.122042 0
12.795000 0.144363 0
12.800000 0.167173 0
12.805000 0.189776 0
12.810000 0.211396 0
12.815000 0.231212 0
12.820000 0.248415 0
12.825000 0.262256 0
12.830000 0.272101 0
12.835000 0.277482 0
12.840000 0.278128 1
12.845000 0.273988 0
12.850000 0.265238 0
12.855000 0.252266 0
12.860000 0.235645 0
12.865000 0.216088 0
12.870000 0.194395 0
12.875000 0.171407 0
12.880000 0.147941 0
12.885000 0.124754 0
12.890000 0.102495 0
12.895000 0.081683 0
12.900000 0.062680 0
12.905000 0.045663 0
12.910000 0.030563 0
12.915000 0.016962 0
12.920000 0.003931 0
12.925000 -0.010122 0
12.930000 -0.027421 0
12.935000 -0.050365 0
12.940000 -0.080457 0
12.945000 -0.116773 0
12.950000 -0.154588 0
12.955000 -0.184952 0
12.960000 -0.195677 2
12.965000 -0.173320 0
12.970000 -0.105405 0
12.975000 0.017332 0
12.980000 0.197788 0
12.985000 0.427722 0
12.990000 0.682881 0
12.995000 0.922360 0
13.000000 1.096462 0
13.005000 1.162533 3
13.010000 1.101068 0
13.015000 0.924979 0
13.020000 0.674025 0
13.025000 0.398511 0
13.030000 0.142832 0
13.035000 -0.063622 0
13.040000 -0.207174 0
13.045000 -0.286350 0
13.050000 -0.308350 4
13.055000 -0.286594 0
13.060000 -0.238110 0
13.065000 -0.179927 0
13.070000 -0.125358 0
13.075000 -0.081838 0
13.080000 -0.051117 0
13.085000 -0.031184 0
13.090000 -0.018580 0
13.095000 -0.010058 0
13.100000 -0.003283 0
13.105000 0.003145 0
13.110000 0.009970 0
13.115000 0.017560 0
13.120000 0.026107 0
13.125000 0.035723 0
13.130000 0.046490 0
13.135000 0.058466 0
13.140000 0.071695 0
13.145000 0.086198 0
13.150000 0.101977 0
13.155000 0.119004 0
13.160000 0.137223 0
13.165000 0.156548 0
13.170000 0.176857 0
13.175000 0.197995 0
13.180000 0.219773 0
13.185000 0.241967 0
13.190000 0.264325 0
13.195000 0.286569 0
13.200000 0.308397 0
13.205000 0.329494 0
13.210000 0.349535 0
13.215000 0.368196 0
13.220000 0.385161 0
13.225000 0.400129 0
13.230000 0.412826 0
13.235000 0.423011 0
13.240000 0.430481 0
13.245000 0.435084 0
13.250000 0.436716 5
13.255000 0.435330 0
13.260000 0.430935 0
13.265000 0.423596 0
13.270000 0.413433 0
13.275000 0.400619 0
13.280000 0.385371 0
13.285000 0.367946 0
13.290000 0.348634 0
13.295000 0.327747 0
13.300000 0.305615 0
13.305000 0.282574 0
13.310000 0.258956 0
13.315000 0.235085 0
13.320000 0.211268 0
13.325000 0.187788 0
13.330000 0.164900 0
13.335000 0.142828 0
13.340000 0.121759 0
13.345000 0.101847 0
13.350000 0.083209 0
13.355000 0.065927 0
13.360000 0.050050 0
13.365000 0.035598 0
13.370000 0.022562 0
13.375000 0.010911 0
13.380000 0.000594 0
13.385000 -0.008455 0
13.390000 -0.016316 0
13.395000 -0.023075 0
13.400000 -0.028824 0
13.405000 -0.033659 0
13.410000 -0.037672 0
13.415000 -0.040956 0
13.420000 -0.043597 0
13.425000 -0.045679 0
13.430000 -0.047278 0
13.435000 -0.048463 0
13.440000 -0.049297 0
13.445000 -0.049836 0
13.450000 -0.050129 0
13.455000 -0.050219 0
13.460000 -0.050142 0
13.465000 -0.049929 0
13.470000 -0.049608 0
13.475000 -0.049200 0
13.480000 -0.048723 0
13.485000 -0.048194 0
13.490000 -0.047623 0
13.495000 -0.047020 0
13.500000 -0.046394 0
13.505000 -0.045702 0
13.510000 -0.045003 0
13.515000 -0.044306 0
13.520000 -0.043613 0
13.525000 -0.042923 0
13.530000 -0.042237 0
13.535000 -0.041555 0
13.540000 -0.040875 0
13.545000 -0.040199 0
13.550000 -0.039527 0
13.555000 -0.038858 0
13.560000 -0.038192 0
13.565000 -0.037529 0
13.570000 -0.036870 0
13.575000 -0.036214 0
13.580000 -0.035561 0
13.585000 -0.034912 0
13.590000 -0.034266 0
13.595000 -0.033623 0
13.600000 -0.032983 0
13.605000 -0.032347 0
13.610000 -0.031713 0
13.615000 -0.031083 0
13.620000 -0.030456 0
13.625000 -0.029832 0
13.630000 -0.029211 0
13.635000 -0.028592 0
13.640000 -0.027976 0
13.645000 -0.027363 0
13.650000 -0.026751 0
13.655000 -0.026139 0
13.660000 -0.025526 0
13.665000 -0.024908 0
13.670000 -0.024282 0
13.675000 -0.023641 0
13.680000 -0.022973 0
13.685000 -0.022265 0
13.690000 -0.021493 0
13.695000 -0.020629 0
13.700000 -0.019628 0
13.705000 -0.018434 0
13.710000 -0.016972 0
13.715000 -0.015144 0
13.720000 -0.012829 0
13.725000 -0.009882 0
13.730000 -0.006129 0
13.735000 -0.001374 0
13.740000 0.004596 0
13.745000 0.012004 0
13.750000 0.021067 0
13.755000 0.031976 0
13.760000 0.044880 0
13.765000 0.059860 0
13.770000 0.076903 0
13.775000 0.095881 0
13.780000 0.116537 0
13.785000 0.138472 0
13.790000 0.161150 0
13.795000 0.183908 0
13.800000 0.205984 0
13.805000 0.226560 0
13.810000 0.244801 0
13.815000 0.259919 0
13.820000 0.271224 0
13.825000 0.278176 0
13.830000 0.280426 1
13.835000 0.277846 0
13.840000 0.270540 0
13.845000 0.258835 0
13.850000 0.243256 0
13.855000 0.224487 0
13.860000 0.203322 0
13.865000 0.180605 0
13.870000 0.157180 0
13.875000 0.133834 0
13.880000 0.111260 0
13.885000 0.090022 0
13.890000 0.070530 0
13.895000 0.053013 0
13.900000 0.037471 0
13.905000 0.023573 0
13.910000 0.010509 0
13.915000 -0.003182 0
13.920000 -0.019641 0
13.925000 -0.041334 0
13.930000 -0.070075 0
13.935000 -0.105511 0
13.940000 -0.143611 0
13.945000 -0.176008 0
13.950000 -0.190758 2
13.955000 -0.174271 0
13.960000 -0.113597 0
13.965000 0.001292 0
13.970000 0.174462 0
13.975000 0.399308 0
13.980000 0.653354 0
13.985000 0.896806 0
13.990000 1.079542 0
13.995000 1.156771 3
14.000000 1.107895 0
14.005000 0.943258 0
14.010000 0.699204 0
14.015000 0.424227 0
14.020000 0.162992 0
14.025000 -0.053445 0
14.030000 -0.209360 0
14.035000 -0.301378 0
14.040000 -0.334969 4
14.045000 -0.322005 0
14.050000 -0.278457 0
14.055000 -0.221214 0
14.060000 -0.164455 0
14.065000 -0.117086 0
14.070000 -0.082305 0
14.075000 -0.059053 0
14.080000 -0.044210 0
14.085000 -0.034430 0
14.090000 -0.027102 0
14.095000 -0.020550 0
14.100000 -0.013843 0
14.105000 -0.006504 0
14.110000 0.001709 0
14.115000 0.010930 0
14.120000 0.021248 0
14.125000 0.032730 0
14.130000 0.045425 0
14.135000 0.059366 0
14.140000 0.074563 0
14.145000 0.091005 0
14.150000 0.108654 0
14.155000 0.127442 0
14.160000 0.147271 0
14.165000 0.168010 0
14.170000 0.189496 0
14.175000 0.211532 0
14.180000 0.233893 0
14.185000 0.256323 0
14.190000 0.278544 0
14.195000 0.300261 0
14.200000 0.321163 0
14.205000 0.340936 0
14.210000 0.359266 0
14.215000 0.375850 0
14.220000 0.390403 0
14.225000 0.402664 0
14.230000 0.412407 0
14.235000 0.419447 0
14.240000 0.423641 0
14.245000 0.424899 5
14.250000 0.423183 0
14.255000 0.418509 0
14.260000 0.410947 0
14.265000 0.400619 0
14.270000 0.387695 0
14.275000 0.372389 0
14.280000 0.354952 0
14.285000 0.335667 0
14.290000 0.314838 0
14.295000 0.292782 0
14.300000 0.269827 0
14.305000 0.246294 0
14.310000 0.222499 0
14.315000 0.198739 0
14.320000 0.175291 0
14.325000 0.152405 0
14.330000 0.130301 0
14.335000 0.109165 0
14.340000 0.089149 0
14.345000 0.070374 0
14.350000 0.052923 0
14.355000 0.036849 0
14.360000 0.022178 0
14.365000 0.008905 0
14.370000 -0.002994 0
14.375000 -0.013565 0
14.380000 -0.022869 0
14.385000 -0.030979 0
14.390000 -0.037979 0
14.395000 -0.043957 0
14.400000 -0.049002 0
14.405000 -0.053208 0
14.410000 -0.056664 0
14.415000 -0.059456 0
14.420000 -0.061666 0
14.425000 -0.063372 0
14.430000 -0.064642 0
14.435000 -0.065542 0
14.440000 -0.066127 0
14.445000 -0.066448 0
14.450000 -0.066550 0
14.455000 -0.066471 0
14.460000 -0.066244 0
14.465000 -0.065898 0
14.470000 -0.065455 0
14.475000 -0.064935 0
14.480000 -0.064355 0
14.485000 -0.063728 0
14.490000 -0.063066 0
14.495000 -0.062376 0
14.500000 -0.061655 0
14.505000 -0.060875 0
14.510000 -0.060100 0
14.515000 -0.059328 0
14.520000 -0.058560 0
14.525000 -0.057796 0
14.530000 -0.057035 0
14.535000 -0.056279 0
14.540000 -0.055526 0
14.545000 -0.054777 0
14.550000 -0.054032 0
14.555000 -0.053290 0
14.560000 -0.052553 0
14.565000 -0.051818 0
14.570000 -0.051088 0
14.575000 -0.050361 0
14.580000 -0.049638 0
14.585000 -0.048918 0
14.590000 -0.048202 0
14.595000 -0.047490 0
14.600000 -0.046781 0
14.605000 -0.046076 0
14.610000 -0.045374 0
14.615000 -0.044675 0
14.620000 -0.043980 0
14.625000 -0.043289 0
14.630000 -0.042600 0
14.635000 -0.041915 0
14.640000 -0.041233 0
14.645000 -0.040554 0
14.650000 -0.039876 0
14.655000 -0.039199 0
14.660000 -0.038522 0
14.665000 -0.037841 0
14.670000 -0.037152 0
14.675000 -0.036451 0
14.680000 -0.035726 0
14.685000 -0.034965 0
14.690000 -0.034149 0
14.695000 -0.033248 0
14.700000 -0.032226 0
14.705000 -0.031032 0
14.710000 -0.029596 0
14.715000 -0.027832 0
14.720000 -0.025630 0
14.725000 -0.022856 0
14.730000 -0.019351 0
14.735000 -0.014933 0
14.740000 -0.009400 0
14.745000 -0.002539 0
14.750000 0.005865 0
14.755000 0.016010 0
14.760000 0.028061 0
14.765000 0.042129 0
14.770000 0.058244 0
14.775000 0.076340 0
14.780000 0.096231 0
14.785000 0.117601 0
14.790000 0.139997 0
14.795000 0.162842 0
14.800000 0.185447 0
14.805000 0.207044 0
14.810000 0.226826 0
14.815000 0.243998 0
14.820000 0.257824 0
14.825000 0.267684 0
14.830000 0.273115 0
14.835000 0.273850 1
14.840000 0.269837 0
14.845000 0.261244 0
14.850000 0.248448 0
14.855000 0.232004 0
14.860000 0.212609 0
14.865000 0.191050 0
14.870000 0.168150 0
14.875000 0.144719 0
14.880000 0.121505 0
14.885000 0.099159 0
14.890000 0.078206 0
14.895000 0.059017 0
14.900000 0.041789 0
14.905000 0.026489 0
14.910000 0.012755 0
14.915000 -0.000245 0
14.920000 -0.013979 0
14.925000 -0.030558 0
14.930000 -0.052370 0
14.935000 -0.081144 0
14.940000 -0.116509 0
14.945000 -0.154576 0
14.950000 -0.187308 0
14.955000 -0.203215 2
14.960000 -0.189143 0
14.965000 -0.132428 0
14.970000 -0.023022 0
14.975000 0.143760 0
14.980000 0.362955 0
14.985000 0.614951 0
14.990000 0.863355 0
14.995000 1.060273 0
15.000000 1.160030 3
15.005000 1.136809 0
15.010000 0.994255 0
15.015000 0.763574 0
15.020000 0.491306 0
15.025000 0.223401 0
15.030000 -0.006015 0
15.035000 -0.177973 0
15.040000 -0.286450 0
15.045000 -0.334831 4
15.050000 -0.333302 0
15.055000 -0.296727 0
15.060000 -0.241833 0
15.065000 -0.183694 0
15.070000 -0.132791 0
15.075000 -0.093931 0
15.080000 -0.067178 0
15.085000 -0.049892 0
15.090000 -0.038704 0
15.095000 -0.030743 0
15.100000 -0.024046 0
15.105000 -0.017466 0
15.110000 -0.010398 0
15.115000 -0.002538 0
15.120000 0.006277 0
15.125000 0.016147 0
15.130000 0.027147 0
15.135000 0.039331 0
15.140000 0.052738 0
15.145000 0.067388 0
15.150000 0.083281 0
15.155000 0.100390 0
15.160000 0.118662 0
15.165000 0.138015 0
15.170000 0.158336 0
15.175000 0.179479 0
15.180000 0.201265 0
15.185000 0.223489 0
15.190000 0.245911 0
15.195000 0.268271 0
15.200000 0.290286 0
15.205000 0.311656 0
15.210000 0.332075 0
15.215000 0.351233 0
15.220000 0.368824 0
15.225000 0.384558 0
15.230000 0.398163 0
15.235000 0.409398 0
15.240000 0.418054 0
15.245000 0.423967 0
15.250000 0.427018 0
15.255000 0.427135 5
15.260000 0.424303 0
15.265000 0.418557 0
15.270000 0.409985 0
15.275000 0.398725 0
15.280000 0.384959 0
15.285000 0.368910 0
15.290000 0.350838 0
15.295000 0.331027 0
15.300000 0.309782 0
15.305000 0.287419 0
15.310000 0.264258 0
15.315000 0.240616 0
15.320000 0.216798 0
15.325000 0.193091 0
15.330000 0.169762 0
15.335000 0.147048 0
15.340000 0.125158 0
15.345000 0.104268 0
15.350000 0.084520 0
15.355000 0.066022 0
15.360000 0.048853 0
15.365000 0.033058 0
15.370000 0.018655 0
15.375000 0.005636 0
15.380000 -0.006026 0
15.385000 -0.016380 0
15.390000 -0.025489 0
15.395000 -0.033425 0
15.400000 -0.040272 0
15.405000 -0.046116 0
15.410000 -0.051048 0
15.415000 -0.055157 0
15.420000 -0.058531 0
15.425000 -0.061256 0
15.430000 -0.063412 0
15.435000 -0.065072 0
15.440000 -0.066306 0
15.445000 -0.067176 0
15.450000 -0.067738 0
15.455000 -0.068040 0
15.460000 -0.068127 0
15.465000 -0.068035 0
15.470000 -0.067798 0
15.475000 -0.067442 0
15.480000 -0.066991 0
15.485000 -0.066464 0
15.490000 -0.065877 0
15.495000 -0.065244 0
15.500000 -0.064575 0
15.505000 -0.063878 0
15.510000 -0.063151 0
15.515000 -0.062364 0
15.520000 -0.061580 0
15.525000 -0.060801 0
15.530000 -0.060026 0
15.535000 -0.059255 0
15.540000 -0.058487 0
15.545000 -0.057723 0
15.550000 -0.056963 0
15.555000 -0.056207 0
15.560000 -0.055455 0
15.565000 -0.054706 0
15.570000 -0.053961 0
15.575000 -0.053220 0
15.580000 -0.052483 0
15.585000 -0.051749 0
15.590000 -0.051019 0
15.595000 -0.050292 0
15.600000 -0.049569 0
15.605000 -0.048850 0
15.610000 -0.048134 0
15.615000 -0.047422 0
15.620000 -0.046714 0
15.625000 -0.046009 0
15.630000 -0.045307 0
15.635000 -0.044609 0
15.640000 -0.043914 0
15.645000 -0.043222 0
15.650000 -0.042534 0
15.655000 -0.041848 0
15.660000 -0.041164 0
15.665000 -0.040482 0
15.670000 -0.039800 0
15.675000 -0.039115 0
15.680000 -0.038424 0
15.685000 -0.037723 0
15.690000 -0.037003 0
15.695000 -0.036251 0
15.700000 -0.035453 0
15.705000 -0.034582 0
15.710000 -0.033607 0
15.715000 -0.032482 0
15.720000 -0.031146 0
15.725000 -0.029522 0
15.730000 -0.027512 0
15.735000 -0.024993 0
15.740000 -0.021819 0
15.745000 -0.017821 0
15.750000 -0.012808 0
15.755000 -0.006574 0
15.760000 0.001092 0
15.765000 0.010396 0
15.770000 0.021517 0
15.775000 0.034592 0
15.780000 0.049694 0
15.785000 0.066806 0
15.790000 0.085807 0
15.795000 0.106452 0
15.800000 0.128367 0
15.805000 0.151047 0
15.810000 0.173871 0
15.815000 0.196122 0
15.820000 0.217022 0
15.825000 0.235776 0
15.830000 0.251621 0
15.835000 0.263875 0
15.840000 0.271987 0
15.845000 0.275576 1
15.850000 0.274463 0
15.855000 0.268679 0
15.860000 0.258469 0
15.865000 0.244275 0
15.870000 0.226698 0
15.875000 0.206459 0
15.880000 0.184352 0
15.885000 0.161186 0
15.890000 0.137744 0
15.895000 0.114734 0
15.900000 0.092760 0
15.905000 0.072295 0
15.910000 0.053658 0
15.915000 0.036983 0
15.920000 0.022159 0
15.925000 0.008725 0
15.930000 -0.004290 0
15.935000 -0.018499 0
15.940000 -0.036096 0
15.945000 -0.059386 0
15.950000 -0.089736 0
15.955000 -0.126129 0
15.960000 -0.163891 0
15.965000 -0.194330 0
15.970000 -0.205666 2
15.975000 -0.184890 0
15.980000 -0.119846 0
15.985000 -0.001320 0
15.990000 0.174101 0
15.995000 0.399648 0
16.000000 0.653653 0
16.005000 0.898274 0
16.010000 1.085767 0
16.015000 1.172584 3
16.020000 1.134542 0
16.025000 0.978291 0
16.030000 0.738695 0
16.035000 0.464273 0
16.040000 0.200770 0
16.045000 -0.019405 0
16.050000 -0.179435 0
16.055000 -0.275246 0
16.060000 -0.311900 4
16.065000 -0.301060 0
16.070000 -0.258681 0
16.075000 -0.201819 0
16.080000 -0.144946 0
16.085000 -0.097270 0
16.090000 -0.062202 0
16.095000 -0.038776 0
16.100000 -0.023880 0
16.105000 -0.014132 0
16.110000 -0.006882 0
16.115000 -0.000429 0
16.120000 0.006174 0
16.125000 0.013411 0
16.130000 0.021525 0
16.135000 0.030652 0
16.140000 0.040881 0
16.145000 0.052281 0
16.150000 0.064900 0
16.155000 0.078770 0
16.160000 0.093902 0
16.165000 0.110285 0
16.170000 0.127878 0
16.175000 0.146613 0
16.180000 0.166390 0
16.185000 0.187075 0
16.190000 0.208501 0
16.195000 0.230471 0
16.200000 0.252754 0
16.205000 0.275092 0
16.210000 0.297204 0
16.215000 0.318790 0
16.220000 0.339537 0
16.225000 0.359127 0
16.230000 0.377246 0
16.235000 0.393588 0
16.240000 0.407868 0
16.245000 0.419827 0
16.250000 0.429240 0
16.255000 0.435922 0
16.260000 0.439737 0
16.265000 0.440598 5
16.270000 0.438473 0
16.275000 0.433383 0
16.280000 0.425406 0
16.285000 0.414671 0
16.290000 0.401354 0
16.295000 0.385676 0
16.300000 0.367896 0
16.305000 0.348300 0
16.310000 0.327198 0
16.315000 0.304913 0
16.320000 0.281773 0
16.325000 0.258102 0
16.330000 0.234215 0
16.335000 0.210410 0
16.340000 0.186962 0
16.345000 0.164117 0
16.350000 0.142091 0
16.355000 0.121066 0
16.360000 0.101191 0
16.365000 0.082579 0
16.370000 0.065309 0
16.375000 0.049429 0
16.380000 0.034958 0
16.385000 0.021889 0
16.390000 0.010190 0
16.395000 -0.000187 0
16.400000 -0.009306 0
16.405000 -0.017244 0
16.410000 -0.024086 0
16.415000 -0.029922 0
16.420000 -0.034842 0
16.425000 -0.038941 0
16.430000 -0.042306 0
16.435000 -0.045026 0
16.440000 -0.047181 0
16.445000 -0.048846 0
16.450000 -0.050091 0
16.455000 -0.050978 0
16.460000 -0.051563 0
16.465000 -0.051895 0
16.470000 -0.052018 0
16.475000 -0.051968 0
16.480000 -0.051777 0
16.485000 -0.051473 0
16.490000 -0.051077 0
16.495000 -0.050610 0
16.500000 -0.050086 0
16.505000 -0.049517 0
16.510000 -0.048916 0
16.515000 -0.048288 0
16.520000 -0.047588 0
16.525000 -0.046879 0
16.530000 -0.046173 0
16.535000 -0.045470 0
16.540000 -0.044772 0
16.545000 -0.044076 0
16.550000 -0.043384 0
16.555000 -0.042696 0
16.560000 -0.042011 0
16.565000 -0.041329 0
16.570000 -0.040651 0
16.575000 -0.039976 0
16.580000 -0.039305 0
16.585000 -0.038637 0
16.590000 -0.037972 0
16.595000 -0.037311 0
16.600000 -0.036653 0
16.605000 -0.035998 0
16.610000 -0.035346 0
16.615000 -0.034698 0
16.620000 -0.034053 0
16.625000 -0.033411 0
16.630000 -0.032772 0
16.635000 -0.032137 0
16.640000 -0.031504 0
16.645000 -0.030875 0
16.650000 -0.030248 0
16.655000 -0.029625 0
16.660000 -0.029003 0
16.665000 -0.028384 0
16.670000 -0.027766 0
16.675000 -0.027148 0
16.680000 -0.026529 0
16.685000 -0.025903 0
16.690000 -0.025268 0
16.695000 -0.024615 0
16.700000 -0.023934 0
16.705000 -0.023207 0
16.710000 -0.022413 0
16.715000 -0.021518 0
16.720000 -0.020479 0
16.725000 -0.019236 0
16.730000 -0.017713 0
16.735000 -0.015809 0
16.740000 -0.013404 0
16.745000 -0.010351 0
16.750000 -0.006476 0
16.755000 -0.001586 0
16.760000 0.004529 0
16.765000 0.012086 0
16.770000 0.021296 0
16.775000 0.032345 0
16.780000 0.045372 0
16.785000 0.060452 0
16.790000 0.077567 0
16.795000 0.096589 0
16.800000 0.117263 0
16.805000 0.139197 0
16.810000 0.161866 0
16.815000 0.184624 0
16.820000 0.206730 0
16.825000 0.227383 0
16.830000 0.245769 0
16.835000 0.261113 0
16.840000 0.272733 0
16.845000 0.280087 0
16.850000 0.282818 1
16.855000 0.280777 0
16.860000 0.274040 0
16.865000 0.262900 0
16.870000 0.247847 0
16.875000 0.229529 0
16.880000 0.208708 0
16.885000 0.186205 0
16.890000 0.162847 0
16.895000 0.139420 0
16.900000 0.116621 0
16.905000 0.095032 0
16.910000 0.075089 0
16.915000 0.057064 0
16.920000 0.041018 0
16.925000 0.026726 0
16.930000 0.013545 0
16.935000 0.000244 0
16.940000 -0.015085 0
16.945000 -0.034827 0
16.950000 -0.061104 0
16.955000 -0.094464 0
16.960000 -0.132345 0
16.965000 -0.168074 0
16.970000 -0.191092 2
16.975000 -0.188464 0
16.980000 -0.147028 0
16.985000 -0.055543 0
16.990000 0.092845 0
16.995000 0.296799 0
17.000000 0.541670 0
17.005000 0.795902 0
17.010000 1.013675 0
17.015000 1.146467 0
17.020000 1.160161 3
17.025000 1.048576 0
17.030000 0.836674 0
17.035000 0.570019 0
17.040000 0.297597 0
17.045000 0.058037 0
17.050000 -0.125821 0
17.055000 -0.245455 0
17.060000 -0.302885 0
17.065000 -0.307673 4
17.070000 -0.274658 0
17.075000 -0.221082 0
17.080000 -0.162873 0
17.085000 -0.111364 0
17.090000 -0.071940 0
17.095000 -0.044894 0
17.100000 -0.027565 0
17.105000 -0.016475 0
17.110000 -0.008653 0
17.115000 -0.002081 0
17.120000 0.004405 0
17.125000 0.011412 0
17.130000 0.019242 0
17.135000 0.028055 0
17.140000 0.037952 0
17.145000 0.049008 0
17.150000 0.061276 0
17.155000 0.074794 0
17.160000 0.089580 0
17.165000 0.105629 0
17.170000 0.122907 0
17.175000 0.141355 0
17.180000 0.160878 0
17.185000 0.181352 0
17.190000 0.202616 0
17.195000 0.224477 0
17.200000 0.246712 0
17.205000 0.269066 0
17.210000 0.291260 0
17.215000 0.312994 0
17.220000 0.333957 0
17.225000 0.353827 0
17.230000 0.372284 0
17.235000 0.389020 0
17.240000 0.403740 0
17.245000 0.416176 0
17.250000 0.426095 0
17.255000 0.433302 0
17.260000 0.437650 0
17.265000 0.439042 5
17.270000 0.437435 0
17.275000 0.432842 0
17.280000 0.425332 0
17.285000 0.415026 0
17.290000 0.402096 0
17.295000 0.386758 0
17.300000 0.369267 0
17.305000 0.349910 0
17.310000 0.328996 0
17.315000 0.306849 0
17.320000 0.283802 0
17.325000 0.260181 0
17.330000 0.236307 0
17.335000 0.212482 0
17.340000 0.188986 0
17.345000 0.166072 0
17.350000 0.143960 0
17.355000 0.122839 0
17.360000 0.102860 0
17.365000 0.084141 0
17.370000 0.066765 0
17.375000 0.050783 0
17.380000 0.036215 0
17.385000 0.023057 0
17.390000 0.011278 0
17.395000 0.000830 0
17.400000 -0.008351 0
17.405000 -0.016343 0
17.410000 -0.023229 0
17.415000 -0.029100 0
17.420000 -0.034050 0
17.425000 -0.038171 0
17.430000 -0.041554 0
17.435000 -0.044287 0
17.440000 -0.046451 0
17.445000 -0.048122 0
17.450000 -0.049371 0
17.455000 -0.050261 0
17.460000 -0.050847 0
17.465000 -0.051180 0
17.470000 -0.051303 0
17.475000 -0.051253 0
17.480000 -0.051063 0
17.485000 -0.050759 0
17.490000 -0.050364 0
17.495000 -0.049897 0
17.500000 -0.049374 0
17.505000 -0.048807 0
17.510000 -0.048207 0
17.515000 -0.047582 0
17.520000 -0.046885 0
17.525000 -0.046179 0
17.530000 -0.045477 0
17.535000 -0.044778 0
17.540000 -0.044083 0
17.545000 -0.043391 0
17.550000 -0.042702 0
17.555000 -0.042017 0
17.560000 -0.041336 0
17.565000 -0.040657 0
17.570000 -0.039983 0
17.575000 -0.039311 0
17.580000 -0.038643 0
17.585000 -0.037978 0
17.590000 -0.037317 0
17.595000 -0.036659 0
17.600000 -0.036004 0
17.605000 -0.035352 0
17.610000 -0.034704 0
17.615000 -0.034059 0
17.620000 -0.033417 0
17.625000 -0.032778 0
17.630000 -0.032142 0
17.635000 -0.031510 0
17.640000 -0.030881 0
17.645000 -0.030254 0
17.650000 -0.029631 0
17.655000 -0.029010 0
17.660000 -0.028392 0
17.665000 -0.027776 0
17.670000 -0.027160 0
17.675000 -0.026544 0
17.680000 -0.025926 0
17.685000 -0.025301 0
17.690000 -0.024665 0
17.695000 -0.024009 0
17.700000 -0.023321 0
17.705000 -0.022583 0
17.710000 -0.021770 0
17.715000 -0.020846 0
17.720000 -0.019764 0
17.725000 -0.018459 0
17.730000 -0.016848 0
17.735000 -0.014825 0
17.740000 -0.012262 0
17.745000 -0.009001 0
17.750000 -0.004863 0
17.755000 0.000354 0
17.760000 0.006865 0
17.765000 0.014888 0
17.770000 0.024631 0
17.775000 0.036270 0
17.780000 0.049928 0
17.785000 0.065655 0
17.790000 0.083398 0
17.795000 0.102990 0
17.800000 0.124128 0
17.805000 0.146373 0
17.810000 0.169152 0
17.815000 0.191776 0
17.820000 0.213473 0
17.825000 0.233423 0
17.830000 0.250813 0
17.835000 0.264888 0
17.840000 0.275004 0
17.845000 0.280679 0
17.850000 0.281628 1
17.855000 0.277785 0
17.860000 0.269312 0
17.865000 0.256584 0
17.870000 0.240162 0
17.875000 0.220753 0
17.880000 0.199156 0
17.885000 0.176208 0
17.890000 0.152733 0
17.895000 0.129491 0
17.900000 0.107141 0
17.905000 0.086212 0
17.910000 0.067076 0
17.915000 0.049921 0
17.920000 0.034698 0
17.925000 0.021011 0
17.930000 0.007967 0
17.935000 -0.005986 0
17.940000 -0.023046 0
17.945000 -0.045626 0
17.950000 -0.075321 0
17.955000 -0.111388 0
17.960000 -0.149333 0
17.965000 -0.180424 0
17.970000 -0.192593 2
17.975000 -0.172395 0
17.980000 -0.107232 0
17.985000 0.012407 0
17.990000 0.189871 0
17.995000 0.417640 0
18.000000 0.672351 0
18.005000 0.913819 0
18.010000 1.092415 0
18.015000 1.164644 3
18.020000 1.110435 0
18.025000 0.941087 0
18.030000 0.694207 0
18.035000 0.418885 0
18.040000 0.159598 0
18.045000 -0.053271 0
18.050000 -0.204776 0
18.055000 -0.292232 0
18.060000 -0.321712 4
18.065000 -0.305613 0
18.070000 -0.260265 0
18.075000 -0.202608 0
18.080000 -0.146536 0
18.085000 -0.100458 0
18.090000 -0.067075 0
18.095000 -0.044990 0
18.100000 -0.030955 0
18.105000 -0.021649 0
18.110000 -0.014550 0
18.115000 -0.008077 0
18.120000 -0.001363 0
18.125000 0.006030 0
18.130000 0.014323 0
18.135000 0.023646 0
18.140000 0.034082 0
18.145000 0.045697 0
18.150000 0.058538 0
18.155000 0.072633 0
18.160000 0.087992 0
18.165000 0.104597 0
18.170000 0.122405 0
18.175000 0.141342 0
18.180000 0.161305 0
18.185000 0.182153 0
18.190000 0.203715 0
18.195000 0.225788 0
18.200000 0.248136 0
18.205000 0.270499 0
18.210000 0.292590 0
18.215000 0.314107 0
18.220000 0.334736 0
18.225000 0.354158 0
18.230000 0.372059 0
18.235000 0.388136 0
18.240000 0.402107 0
18.245000 0.413717 0
18.250000 0.422747 0
18.255000 0.429019 0
18.260000 0.432405 0
18.265000 0.432826 5
18.270000 0.430259 0
18.275000 0.424734 0
18.280000 0.416337 0
18.285000 0.405204 0
18.290000 0.391522 0
18.295000 0.375517 0
18.300000 0.357454 0
18.305000 0.337623 0
18.310000 0.316338 0
18.315000 0.293924 0
18.320000 0.270707 0
18.325000 0.247014 0
18.330000 0.223156 0
18.335000 0.199428 0
18.340000 0.176100 0
18.345000 0.153415 0
18.350000 0.131583 0
18.355000 0.110781 0
18.360000 0.091151 0
18.365000 0.072801 0
18.370000 0.055803 0
18.375000 0.040202 0
18.380000 0.026012 0
18.385000 0.013219 0
18.390000 0.001790 0
18.395000 -0.008326 0
18.400000 -0.017197 0
18.405000 -0.024901 0
18.410000 -0.031524 0
18.415000 -0.037156 0
18.420000 -0.041890 0
18.425000 -0.045818 0
18.430000 -0.049028 0
18.435000 -0.051608 0
18.440000 -0.053637 0
18.445000 -0.055189 0
18.450000 -0.056333 0
18.455000 -0.057130 0
18.460000 -0.057634 0
18.465000 -0.057894 0
18.470000 -0.057952 0
18.475000 -0.057844 0
18.480000 -0.057601 0
18.485000 -0.057248 0
18.490000 -0.056809 0
18.495000 -0.056300 0
18.500000 -0.055738 0
18.505000 -0.055134 0
18.510000 -0.054498 0
18.515000 -0.053838 0
18.520000 -0.053109 0
18.525000 -0.052372 0
18.530000 -0.051639 0
18.535000 -0.050910 0
18.540000 -0.050184 0
18.545000 -0.049461 0
18.550000 -0.048743 0
18.555000 -0.048027 0
18.560000 -0.047316 0
18.565000 -0.046608 0
18.570000 -0.045903 0
18.575000 -0.045202 0
18.580000 -0.044505 0
18.585000 -0.043811 0
18.590000 -0.043120 0
18.595000 -0.042433 0
18.600000 -0.041749 0
18.605000 -0.041069 0
18.610000 -0.040392 0
18.615000 -0.039719 0
18.620000 -0.039049 0
18.625000 -0.038382 0
18.630000 -0.037718 0
18.635000 -0.037058 0
18.640000 -0.036401 0
18.645000 -0.035747 0
18.650000 -0.035096 0
18.655000 -0.034448 0
18.660000 -0.033803 0
18.665000 -0.033160 0
18.670000 -0.032517 0
18.675000 -0.031875 0
18.680000 -0.031230 0
18.685000 -0.030579 0
18.690000 -0.029916 0
18.695000 -0.029235 0
18.700000 -0.028521 0
18.705000 -0.027759 0
18.710000 -0.026922 0
18.715000 -0.025976 0
18.720000 -0.024875 0
18.725000 -0.023554 0
18.730000 -0.021932 0
18.735000 -0.019906 0
18.740000 -0.017347 0
18.745000 -0.014103 0
18.750000 -0.009996 0
18.755000 -0.004827 0
18.760000 0.001617 0
18.765000 0.009553 0
18.770000 0.019188 0
18.775000 0.030698 0
18.780000 0.044212 0
18.785000 0.059785 0
18.790000 0.077376 0
18.795000 0.096827 0
18.800000 0.117853 0
18.805000 0.140030 0
18.810000 0.162804 0
18.815000 0.185501 0
18.820000 0.207363 0
18.825000 0.227579 0
18.830000 0.245340 0
18.835000 0.259886 0
18.840000 0.270563 0
18.845000 0.276869 0
18.850000 0.278493 1
18.855000 0.275341 0
18.860000 0.267540 0
18.865000 0.255434 0
18.870000 0.239554 0
18.875000 0.220581 0
18.880000 0.199298 0
18.885000 0.176534 0
18.890000 0.153110 0
18.895000 0.129795 0
18.900000 0.107263 0
18.905000 0.086062 0
18.910000 0.066591 0
18.915000 0.049076 0
18.920000 0.033515 0
18.925000 0.019597 0
18.930000 0.006547 0
18.935000 -0.007037 0
18.940000 -0.023217 0
18.945000 -0.044410 0
18.950000 -0.072488 0
18.955000 -0.107358 0
18.960000 -0.145475 0
18.965000 -0.179100 0
18.970000 -0.196878 2
18.975000 -0.185589 0
18.980000 -0.132341 0
18.985000 -0.026727 0
18.990000 0.136457 0
18.995000 0.352961 0
19.000000 0.603956 0
19.005000 0.853568 0
19.010000 1.053780 0
19.015000 1.158047 3
19.020000 1.137524 0
19.025000 0.994579 0
19.030000 0.762026 0
19.035000 0.488908 0
19.040000 0.223019 0
19.045000 -0.001028 0
19.050000 -0.164872 0
19.055000 -0.263652 0
19.060000 -0.302182 4
19.065000 -0.292227 0
19.070000 -0.250082 0
19.075000 -0.193242 0
19.080000 -0.136521 0
19.085000 -0.089254 0
19.090000 -0.054777 0
19.095000 -0.031958 0
19.100000 -0.017553 0
19.105000 -0.008125 0
19.110000 -0.001036 0
19.115000 0.005373 0
19.120000 0.012010 0
19.125000 0.019330 0
19.130000 0.027563 0
19.135000 0.036839 0
19.140000 0.047246 0
19.145000 0.058849 0
19.150000 0.071695 0
19.155000 0.085814 0
19.160000 0.101211 0
19.165000 0.117870 0
19.170000 0.135742 0
19.175000 0.154748 0
19.180000 0.174778 0
19.185000 0.195684 0
19.190000 0.217287 0
19.195000 0.239372 0
19.200000 0.261695 0
19.205000 0.283982 0
19.210000 0.305937 0
19.215000 0.327246 0
19.220000 0.347588 0
19.225000 0.366634 0
19.230000 0.384066 0
19.235000 0.399577 0
19.240000 0.412884 0
19.245000 0.423736 0
19.250000 0.431919 0
19.255000 0.437267 0
19.260000 0.439662 5
19.265000 0.439042 0
19.270000 0.435401 0
19.275000 0.428791 0
19.280000 0.419318 0
19.285000 0.407142 0
19.290000 0.392470 0
19.295000 0.375550 0
19.300000 0.356665 0
19.305000 0.336124 0
19.310000 0.314254 0
19.315000 0.291390 0
19.320000 0.267867 0
19.325000 0.244013 0
19.330000 0.220140 0
19.335000 0.196539 0
19.340000 0.173472 0
19.345000 0.151170 0
19.350000 0.129832 0
19.355000 0.109619 0
19.360000 0.090658 0
19.365000 0.073037 0
19.370000 0.056815 0
19.375000 0.042017 0
19.380000 0.028642 0
19.385000 0.016662 0
19.390000 0.006032 0
19.395000 -0.003314 0
19.400000 -0.011451 0
19.405000 -0.018464 0
19.410000 -0.024446 0
19.415000 -0.029491 0
19.420000 -0.033692 0
19.425000 -0.037144 0
19.430000 -0.039933 0
19.435000 -0.042145 0
19.440000 -0.043858 0
19.445000 -0.045141 0
19.450000 -0.046061 0
19.455000 -0.046673 0
19.460000 -0.047029 0
19.465000 -0.047173 0
19.470000 -0.047143 0
19.475000 -0.046971 0
19.480000 -0.046685 0
19.485000 -0.046308 0
19.490000 -0.045859 0
19.495000 -0.045354 0
19.500000 -0.044805 0
19.505000 -0.044223 0
19.510000 -0.043616 0
19.515000 -0.042938 0
19.520000 -0.042252 0
19.525000 -0.041569 0
19.530000 -0.040890 0
19.535000 -0.040214 0
19.540000 -0.039541 0
19.545000 -0.038872 0
19.550000 -0.038206 0
19.555000 -0.037543 0
19.560000 -0.036884 0
19.565000 -0.036228 0
19.570000 -0.035575 0
19.575000 -0.034926 0
19.580000 -0.034280 0
19.585000 -0.033637 0
19.590000 -0.032997 0
19.595000 -0.032360 0
19.600000 -0.031727 0
19.605000 -0.031097 0
19.610000 -0.030469 0
19.615000 -0.029845 0
19.620000 -0.029224 0
19.625000 -0.028607 0
19.630000 -0.027992 0
19.635000 -0.027380 0
19.640000 -0.026771 0
19.645000 -0.026165 0
19.650000 -0.025561 0
19.655000 -0.024960 0
19.660000 -0.024360 0
19.665000 -0.023761 0
19.670000 -0.023160 0
19.675000 -0.022556 0
19.680000 -0.021944 0
19.685000 -0.021317 0
19.690000 -0.020667 0
19.695000 -0.019978 0
19.700000 -0.019230 0
19.705000 -0.018393 0
19.710000 -0.017428 0
19.715000 -0.016278 0
19.720000 -0.014872 0
19.725000 -0.013115 0
19.730000 -0.010890 0
19.735000 -0.008054 0
19.740000 -0.004436 0
19.745000 0.000155 0
19.750000 0.005934 0
19.755000 0.013122 0
19.760000 0.021937 0
19.765000 0.032578 0
19.770000 0.045200 0
19.775000 0.059895 0
19.780000 0.076662 0
19.785000 0.095392 0
19.790000 0.115842 0
19.795000 0.137632 0
19.800000 0.160241 0
19.805000 0.183019 0
19.810000 0.205213 0
19.815000 0.226007 0
19.820000 0.244563 0
19.825000 0.260083 0
19.830000 0.271861 0
19.835000 0.279333 0
19.840000 0.282128 1
19.845000 0.280090 0
19.850000 0.273298 0
19.855000 0.262052 0
19.860000 0.246862 0
19.865000 0.228396 0
19.870000 0.207440 0
19.875000 0.184840 0
19.880000 0.161442 0
19.885000 0.138045 0
19.890000 0.115354 0
19.895000 0.093949 0
19.900000 0.074258 0
19.905000 0.056532 0
19.910000 0.040795 0
19.915000 0.026754 0
19.920000 0.013653 0
19.925000 0.000093 0
19.930000 -0.016014 0
19.935000 -0.037141 0
19.940000 -0.065223 0
19.945000 -0.100172 0
19.950000 -0.138320 0
19.955000 -0.171655 0
19.960000 -0.188449 2
19.965000 -0.175129 0
19.970000 -0.118575 0
19.975000 -0.008393 0
19.980000 0.160136 0
19.985000 0.381457 0
19.990000 0.634438 0
19.995000 0.880421 0
20.000000 1.069489 0
20.005000 1.155687 3
20.010000 1.114396 0
20.015000 0.953611 0
20.020000 0.710436 0
20.025000 0.435424 0
20.030000 0.175148 0
20.035000 -0.038421 0
20.040000 -0.189597 0
20.045000 -0.275644 0
20.050000 -0.303023 4
20.055000 -0.284793 0
20.060000 -0.238004 0
20.065000 -0.180076 0
20.070000 -0.124925 0
20.075000 -0.080559 0
20.080000 -0.049100 0
20.085000 -0.028679 0
20.090000 -0.015820 0
20.095000 -0.007199 0
20.100000 -0.000407 0
20.105000 0.006004 0
20.110000 0.012801 0
20.115000 0.020365 0
20.120000 0.028892 0
20.125000 0.038495 0
20.130000 0.049257 0
20.135000 0.061238 0
20.140000 0.074482 0
20.145000 0.089009 0
20.150000 0.104821 0
20.155000 0.121889 0
20.160000 0.140155 0
20.165000 0.159528 0
20.170000 0.179886 0
20.175000 0.201067 0
20.180000 0.222877 0
20.185000 0.245088 0
20.190000 0.267443 0
20.195000 0.289654 0
20.200000 0.311417 0
20.205000 0.332410 0
20.210000 0.352302 0
20.215000 0.370767 0
20.220000 0.387484 0
20.225000 0.402153 0
20.230000 0.414498 0
20.235000 0.424281 0
20.240000 0.431304 0
20.245000 0.435420 0
20.250000 0.436532 5
20.255000 0.434603 0
20.260000 0.429652 0
20.265000 0.421755 0
20.270000 0.411046 0
20.275000 0.397707 0
20.280000 0.381969 0
20.285000 0.364099 0
20.290000 0.344397 0
20.295000 0.323186 0
20.300000 0.300800 0
20.305000 0.277580 0
20.310000 0.253862 0
20.315000 0.229971 0
20.320000 0.206212 0
20.325000 0.182864 0
20.330000 0.160178 0
20.335000 0.138370 0
20.340000 0.117621 0
20.345000 0.098076 0
20.350000 0.079841 0
20.355000 0.062991 0
20.360000 0.047564 0
20.365000 0.033571 0
20.370000 0.020996 0
20.375000 0.009800 0
20.380000 -0.000076 0
20.385000 -0.008702 0
20.390000 -0.016163 0
20.395000 -0.022549 0
20.400000 -0.027954 0
20.405000 -0.032473 0
20.410000 -0.036203 0
20.415000 -0.039234 0
20.420000 -0.041652 0
20.425000 -0.043539 0
20.430000 -0.044970 0
20.435000 -0.046012 0
20.440000 -0.046726 0
20.445000 -0.047164 0
20.450000 -0.047375 0
20.455000 -0.047398 0
20.460000 -0.047269 0
20.465000 -0.047016 0
20.470000 -0.046665 0
20.475000 -0.046236 0
20.480000 -0.045745 0
20.485000 -0.045207 0
20.490000 -0.044633 0
20.495000 -0.044031 0
20.500000 -0.043399 0
20.505000 -0.042710 0
20.510000 -0.042025 0
20.515000 -0.041344 0
20.520000 -0.040665 0
20.525000 -0.039990 0
20.530000 -0.039319 0
20.535000 -0.038651 0
20.540000 -0.037986 0
20.545000 -0.037324 0
20.550000 -0.036666 0
20.555000 -0.036011 0
20.560000 -0.035360 0
20.565000 -0.034711 0
20.570000 -0.034066 0
20.575000 -0.033424 0
20.580000 -0.032785 0
20.585000 -0.032150 0
20.590000 -0.031517 0
20.595000 -0.030888 0
20.600000 -0.030262 0
20.605000 -0.029639 0
20.610000 -0.029019 0
20.615000 -0.028402 0
20.620000 -0.027788 0
20.625000 -0.027178 0
20.630000 -0.026569 0
20.635000 -0.025964 0
20.640000 -0.025361 0
20.645000 -0.024759 0
20.650000 -0.024158 0
20.655000 -0.023556 0
20.660000 -0.022951 0
20.665000 -0.022338 0
20.670000 -0.021712 0
20.675000 -0.021062 0
20.680000 -0.020375 0
20.685000 -0.019631 0
20.690000 -0.018800 0
20.695000 -0.017843 0
20.700000 -0.016704 0
20.705000 -0.015312 0
20.710000 -0.013573 0
20.715000 -0.011369 0
20.720000 -0.008556 0
20.725000 -0.004964 0
20.730000 -0.000398 0
20.735000 0.005357 0
20.740000 0.012524 0
20.745000 0.021327 0
20.750000 0.031964 0
20.755000 0.044594 0
20.760000 0.059309 0
20.765000 0.076108 0
20.770000 0.094878 0
20.775000 0.115372 0
20.780000 0.137201 0
20.785000 0.159833 0
20.790000 0.182609 0
20.795000 0.204763 0
20.800000 0.225466 0
20.805000 0.243873 0
20.810000 0.259181 0
20.815000 0.270683 0
20.820000 0.277821 0
20.825000 0.280235 1
20.830000 0.277787 0
20.835000 0.270575 0
20.840000 0.258927 0
20.845000 0.243371 0
20.850000 0.224601 0
20.855000 0.203420 0
20.860000 0.180686 0
20.865000 0.157252 0
20.870000 0.133916 0
20.875000 0.111376 0
20.880000 0.090199 0
20.885000 0.070793 0
20.890000 0.053383 0
20.895000 0.037949 0
20.900000 0.024134 0
20.905000 0.011074 0
20.910000 -0.002766 0
20.915000 -0.019607 0
20.920000 -0.041936 0
20.925000 -0.071450 0
20.930000 -0.107467 0
20.935000 -0.145420 0
20.940000 -0.176332 0
20.945000 -0.187767 2
20.950000 -0.165905 0
20.955000 -0.097886 0
20.960000 0.025801 0
20.965000 0.207976 0
20.970000 0.439693 0
20.975000 0.695174 0
20.980000 0.931489 0
20.985000 1.097470 0
20.990000 1.150826 3
20.995000 1.077130 0
21.000000 0.893085 0
21.005000 0.638872 0
21.010000 0.363454 0
21.015000 0.109329 0
21.020000 -0.095593 0
21.025000 -0.238386 0
21.030000 -0.317726 0
21.035000 -0.340579 4
21.040000 -0.319886 0
21.045000 -0.272129 0
21.050000 -0.213944 0
21.055000 -0.158583 0
21.060000 -0.113735 0
21.065000 -0.081543 0
21.070000 -0.060330 0
21.075000 -0.046797 0
21.080000 -0.037700 0
21.085000 -0.030624 0
21.090000 -0.024073 0
21.095000 -0.017235 0
21.100000 -0.009698 0
21.105000 -0.001252 0
21.110000 0.008225 0
21.115000 0.018816 0
21.120000 0.030585 0
21.125000 0.043575 0
21.130000 0.057816 0
21.135000 0.073315 0
21.140000 0.090053 0
21.145000 0.107986 0
21.150000 0.127040 0
21.155000 0.147110 0
21.160000 0.168056 0
21.165000 0.189709 0
21.170000 0.211863 0
21.175000 0.234286 0
21.180000 0.256717 0
21.185000 0.278874 0
21.190000 0.300454 0
21.195000 0.321148 0
21.200000 0.340638 0
21.205000 0.358613 0
21.210000 0.374772 0
21.215000 0.388834 0
21.220000 0.400547 0
21.225000 0.409693 0
21.230000 0.416095 0
21.235000 0.419623 0
21.240000 0.420199 5
21.245000 0.417798 0
21.250000 0.412448 0
21.255000 0.404231 0
21.260000 0.393284 0
21.265000 0.379785 0
21.270000 0.363961 0
21.275000 0.346070 0
21.280000 0.326402 0
21.285000 0.305264 0
21.290000 0.282979 0
21.295000 0.259873 0
21.300000 0.236267 0
21.305000 0.212474 0
21.310000 0.188788 0
21.315000 0.165478 0
21.320000 0.142788 0
21.325000 0.120930 0
21.330000 0.100083 0
21.335000 0.080390 0
21.340000 0.061962 0
21.345000 0.044876 0
21.350000 0.029178 0
21.355000 0.014884 0
21.360000 0.001986 0
21.365000 -0.009549 0
21.370000 -0.019768 0
21.375000 -0.028738 0
21.380000 -0.036534 0
21.385000 -0.043241 0
21.390000 -0.048949 0
21.395000 -0.053748 0
21.400000 -0.057730 0
21.405000 -0.060985 0
21.410000 -0.063599 0
21.415000 -0.065651 0
21.420000 -0.067217 0
21.425000 -0.068365 0
21.430000 -0.069158 0
21.435000 -0.069651 0
21.440000 -0.069892 0
21.445000 -0.069925 0
21.450000 -0.069786 0
21.455000 -0.069507 0
21.460000 -0.069116 0
21.465000 -0.068633 0
21.470000 -0.068079 0
21.475000 -0.067469 0
21.480000 -0.066815 0
21.485000 -0.066127 0
21.490000 -0.065415 0
21.495000 -0.064630 0
21.500000 -0.063835 0
21.505000 -0.063045 0
21.510000 -0.062258 0
21.515000 -0.061476 0
21.520000 -0.060697 0
21.525000 -0.059922 0
21.530000 -0.059151 0
21.535000 -0.058384 0
21.540000 -0.057621 0
21.545000 -0.056862 0
21.550000 -0.056106 0
21.555000 -0.055354 0
21.560000 -0.054606 0
21.565000 -0.053862 0
21.570000 -0.053121 0
21.575000 -0.052384 0
21.580000 -0.051651 0
21.585000 -0.050921 0
21.590000 -0.050195 0
21.595000 -0.049473 0
21.600000 -0.048754 0
21.605000 -0.048038 0
21.610000 -0.047327 0
21.615000 -0.046619 0
21.620000 -0.045914 0
21.625000 -0.045212 0
21.630000 -0.044514 0
21.635000 -0.043819 0
21.640000 -0.043126 0
21.645000 -0.042435 0
21.650000 -0.041744 0
21.655000 -0.041052 0
21.660000 -0.040356 0
21.665000 -0.039651 0
21.670000 -0.038930 0
21.675000 -0.038182 0
21.680000 -0.037393 0
21.685000 -0.036541 0
21.690000 -0.035595 0
21.695000 -0.034513 0
21.700000 -0.033238 0
21.705000 -0.031698 0
21.710000 -0.029798 0
21.715000 -0.027420 0
21.720000 -0.024424 0
21.725000 -0.020641 0
21.730000 -0.015882 0
21.735000 -0.009942 0
21.740000 -0.002604 0
21.745000 0.006343 0
21.750000 0.017089 0
21.755000 0.029785 0
21.760000 0.044518 0
21.765000 0.061291 0
21.770000 0.080001 0
21.775000 0.100420 0
21.780000 0.122188 0
21.785000 0.144810 0
21.790000 0.167670 0
21.795000 0.190048 0
21.800000 0.211157 0
21.805000 0.230188 0
21.810000 0.246357 0
21.815000 0.258961 0
21.820000 0.267423 0
21.825000 0.271343 1
21.830000 0.270521 0
21.835000 0.264980 0
21.840000 0.254957 0
21.845000 0.240893 0
21.850000 0.223398 0
21.855000 0.203204 0
21.860000 0.181117 0
21.865000 0.157963 0
21.870000 0.134537 0
21.875000 0.111560 0
21.880000 0.089643 0
21.885000 0.069264 0
21.890000 0.050739 0
21.895000 0.034194 0
21.900000 0.019498 0
21.905000 0.006148 0
21.910000 -0.006893 0
21.915000 -0.021327 0
21.920000 -0.039431 0
21.925000 -0.063507 0
21.930000 -0.094739 0
21.935000 -0.131677 0
21.940000 -0.168998 0
21.945000 -0.197308 0
21.950000 -0.204282 2
21.955000 -0.176673 0
21.960000 -0.102463 0
21.965000 0.026914 0
21.970000 0.213332 0
21.975000 0.447193 0
21.980000 0.702882 0
21.985000 0.938812 0
21.990000 1.105892 0
21.995000 1.163344 3
22.000000 1.094927 0
22.005000 0.915580 0
22.010000 0.664033 0
22.015000 0.388508 0
22.020000 0.131644 0
22.025000 -0.077925 0
22.030000 -0.226389 0
22.035000 -0.311595 0
22.040000 -0.339741 4
22.045000 -0.323076 0
22.050000 -0.277604 0
22.055000 -0.219898 0
22.060000 -0.163594 0
22.065000 -0.117039 0
22.070000 -0.083032 0
22.075000 -0.060332 0
22.080000 -0.045804 0
22.085000 -0.036166 0
22.090000 -0.028880 0
22.095000 -0.022326 0
22.100000 -0.015599 0
22.105000 -0.008238 0
22.110000 -0.000008 0
22.115000 0.009225 0
22.120000 0.019546 0
22.125000 0.031023 0
22.130000 0.043705 0
22.135000 0.057622 0
22.140000 0.072787 0
22.145000 0.089188 0
22.150000 0.106790 0
22.155000 0.125527 0
22.160000 0.145304 0
22.165000 0.165993 0
22.170000 0.187435 0
22.175000 0.209438 0
22.180000 0.231782 0
22.185000 0.254217 0
22.190000 0.276472 0
22.195000 0.298254 0
22.200000 0.319261 0
22.205000 0.339180 0
22.210000 0.357704 0
22.215000 0.374529 0
22.220000 0.389373 0
22.225000 0.401976 0
22.230000 0.412107 0
22.235000 0.419578 0
22.240000 0.424242 0
22.245000 0.426001 5
22.250000 0.424809 0
22.255000 0.420671 0
22.260000 0.413647 0
22.265000 0.403849 0
22.270000 0.391435 0
22.275000 0.376608 0
22.280000 0.359608 0
22.285000 0.340709 0
22.290000 0.320206 0
22.295000 0.298411 0
22.300000 0.275645 0
22.305000 0.252227 0
22.310000 0.228471 0
22.315000 0.204675 0
22.320000 0.181119 0
22.325000 0.158057 0
22.330000 0.135713 0
22.335000 0.114282 0
22.340000 0.093925 0
22.345000 0.074767 0
22.350000 0.056903 0
22.355000 0.040395 0
22.360000 0.025275 0
22.365000 0.011549 0
22.370000 -0.000801 0
22.375000 -0.011815 0
22.380000 -0.021547 0
22.385000 -0.030067 0
22.390000 -0.037452 0
22.395000 -0.043789 0
22.400000 -0.049166 0
22.405000 -0.053674 0
22.410000 -0.057402 0
22.415000 -0.060438 0
22.420000 -0.062864 0
22.425000 -0.064758 0
22.430000 -0.066192 0
22.435000 -0.067232 0
22.440000 -0.067935 0
22.445000 -0.068356 0
22.450000 -0.068541 0
22.455000 -0.068529 0
22.460000 -0.068356 0
22.465000 -0.068052 0
22.470000 -0.067642 0
22.475000 -0.067147 0
22.480000 -0.066585 0
22.485000 -0.065970 0
22.490000 -0.065314 0
22.495000 -0.064627 0
22.500000 -0.063917 0
22.505000 -0.063138 0
22.510000 -0.062351 0
22.515000 -0.061568 0
22.520000 -0.060789 0
22.525000 -0.060014 0
22.530000 -0.059243 0
22.535000 -0.058475 0
22.540000 -0.057712 0
22.545000 -0.056952 0
22.550000 -0.056196 0
22.555000 -0.055443 0
22.560000 -0.054695 0
22.565000 -0.053950 0
22.570000 -0.053209 0
22.575000 -0.052471 0
22.580000 -0.051738 0
22.585000 -0.051007 0
22.590000 -0.050281 0
22.595000 -0.049558 0
22.600000 -0.048839 0
22.605000 -0.048123 0
22.610000 -0.047411 0
22.615000 -0.046703 0
22.620000 -0.045998 0
22.625000 -0.045296 0
22.630000 -0.044598 0
22.635000 -0.043903 0
22.640000 -0.043211 0
22.645000 -0.042522 0
22.650000 -0.041836 0
22.655000 -0.041151 0
22.660000 -0.040467 0
22.665000 -0.039782 0
22.670000 -0.039092 0
22.675000 -0.038394 0
22.680000 -0.037681 0
22.685000 -0.036942 0
22.690000 -0.036163 0
22.695000 -0.035323 0
22.700000 -0.034393 0
22.705000 -0.033332 0
22.710000 -0.032087 0
22.715000 -0.030586 0
22.720000 -0.028740 0
22.725000 -0.026435 0
22.730000 -0.023535 0
22.735000 -0.019878 0
22.740000 -0.015281 0
22.745000 -0.009542 0
22.750000 -0.002450 0
22.755000 0.006205 0
22.760000 0.016615 0
22.765000 0.028937 0
22.770000 0.043271 0
22.775000 0.059637 0
22.780000 0.077954 0
22.785000 0.098025 0
22.790000 0.119523 0
22.795000 0.141990 0
22.800000 0.164843 0
22.805000 0.187395 0
22.810000 0.208883 0
22.815000 0.228511 0
22.820000 0.245496 0
22.825000 0.259117 0
22.830000 0.268770 0
22.835000 0.274007 0
22.840000 0.274573 1
22.845000 0.270425 0
22.850000 0.261734 0
22.855000 0.248876 0
22.860000 0.232403 0
22.865000 0.213003 0
22.870000 0.191451 0
22.875000 0.168561 0
22.880000 0.145132 0
22.885000 0.121905 0
22.890000 0.099524 0
22.895000 0.078511 0
22.900000 0.059239 0
22.905000 0.041911 0
22.910000 0.026508 0
22.915000 0.012696 0
22.920000 -0.000310 0
22.925000 -0.013911 0
22.930000 -0.030145 0
22.935000 -0.051376 0
22.940000 -0.079424 0
22.945000 -0.114200 0
22.950000 -0.152283 0
22.955000 -0.186193 0
22.960000 -0.204917 2
22.965000 -0.195563 0
22.970000 -0.145450 0
22.975000 -0.044166 0
22.980000 0.113907 0
22.985000 0.325661 0
22.990000 0.574313 0
22.995000 0.826572 0
23.000000 1.036351 0
23.005000 1.156916 3
23.010000 1.156907 0
23.015000 1.033008 0
23.020000 0.813110 0
23.025000 0.543718 0
23.030000 0.273049 0
23.035000 0.038098 0
23.040000 -0.139915 0
23.045000 -0.253655 0
23.050000 -0.305924 0
23.055000 -0.306798 4
23.060000 -0.271379 0
23.065000 -0.216868 0
23.070000 -0.158847 0
23.075000 -0.108147 0
23.080000 -0.069681 0
23.085000 -0.043441 0
23.090000 -0.026656 0
23.095000 -0.015869 0
23.100000 -0.008178 0
23.105000 -0.001639 0
23.110000 0.004865 0
23.115000 0.011913 0
23.120000 0.019792 0
23.125000 0.028659 0
23.130000 0.038612 0
23.135000 0.049723 0
23.140000 0.062045 0
23.145000 0.075616 0
23.150000 0.090452 0
23.155000 0.106546 0
23.160000 0.123866 0
23.165000 0.142348 0
23.170000 0.161900 0
23.175000 0.182396 0
23.180000 0.203675 0
23.185000 0.225545 0
23.190000 0.247782 0
23.195000 0.270132 0
23.200000 0.292317 0
23.205000 0.314040 0
23.210000 0.334989 0
23.215000 0.354844 0
23.220000 0.373288 0
23.225000 0.390012 0
23.230000 0.404725 0
23.235000 0.417159 0
23.240000 0.427083 0
23.245000 0.434302 0
23.250000 0.438670 0
23.255000 0.440090 5
23.260000 0.438519 0
23.265000 0.433968 0
23.270000 0.426506 0
23.275000 0.416252 0
23.280000 0.403375 0
23.285000 0.388092 0
23.290000 0.370653 0
23.295000 0.351345 0
23.300000 0.330473 0
23.305000 0.308361 0
23.310000 0.285338 0
23.315000 0.261731 0
23.320000 0.237859 0
23.325000 0.214023 0
23.330000 0.190503 0
23.335000 0.167553 0
23.340000 0.145392 0
23.345000 0.124211 0
23.350000 0.104162 0
23.355000 0.085364 0
23.360000 0.067903 0
23.365000 0.051829 0
23.370000 0.037166 0
23.375000 0.023910 0
23.380000 0.012034 0
23.385000 0.001489 0
23.390000 -0.007787 0
23.395000 -0.015868 0
23.400000 -0.022841 0
23.405000 -0.028794 0
23.410000 -0.033819 0
23.415000 -0.038009 0
23.420000 -0.041455 0
23.425000 -0.044244 0
23.430000 -0.046458 0
23.435000 -0.048174 0
23.440000 -0.049462 0
23.445000 -0.050385 0
23.450000 -0.051000 0
23.455000 -0.051357 0
23.460000 -0.051501 0
23.465000 -0.051468 0
23.470000 -0.051291 0
23.475000 -0.050998 0
23.480000 -0.050613 0
23.485000 -0.050153 0
23.490000 -0.049635 0
23.495000 -0.049072 0
23.500000 -0.048475 0
23.505000 -0.047852 0
23.510000 -0.047199 0
23.515000 -0.046492 0
23.520000 -0.045788 0
23.525000 -0.045088 0
23.530000 -0.044391 0
23.535000 -0.043697 0
23.540000 -0.043007 0
23.545000 -0.042321 0
23.550000 -0.041638 0
23.555000 -0.040958 0
23.560000 -0.040282 0
23.565000 -0.039609 0
23.570000 -0.038939 0
23.575000 -0.038273 0
23.580000 -0.037610 0
23.585000 -0.036950 0
23.590000 -0.036294 0
23.595000 -0.035641 0
23.600000 -0.034991 0
23.605000 -0.034345 0
23.610000 -0.033701 0
23.615000 -0.033061 0
23.620000 -0.032424 0
23.625000 -0.031790 0
23.630000 -0.031160 0
23.635000 -0.030532 0
23.640000 -0.029907 0
23.645000 -0.029285 0
23.650000 -0.028666 0
23.655000 -0.028048 0
23.660000 -0.027432 0
23.665000 -0.026816 0
23.670000 -0.026197 0
23.675000 -0.025574 0
23.680000 -0.024940 0
23.685000 -0.024289 0
23.690000 -0.023608 0
23.695000 -0.022883 0
23.700000 -0.022089 0
23.705000 -0.021194 0
23.710000 -0.020153 0
23.715000 -0.018906 0
23.720000 -0.017376 0
23.725000 -0.015463 0
23.730000 -0.013044 0
23.735000 -0.009969 0
23.740000 -0.006065 0
23.745000 -0.001138 0
23.750000 0.005026 0
23.755000 0.012644 0
23.760000 0.021926 0
23.765000 0.033058 0
23.770000 0.046179 0
23.775000 0.061358 0
23.780000 0.078574 0
23.785000 0.097691 0
23.790000 0.118445 0
23.795000 0.140437 0
23.800000 0.163131 0
23.805000 0.185872 0
23.810000 0.207910 0
23.815000 0.228438 0
23.820000 0.246640 0
23.825000 0.261742 0
23.830000 0.273066 0
23.835000 0.280082 0
23.840000 0.282445 1
23.845000 0.280024 0
23.850000 0.272912 0
23.855000 0.261421 0
23.860000 0.246058 0
23.865000 0.227486 0
23.870000 0.206477 0
23.875000 0.183860 0
23.880000 0.160464 0
23.885000 0.137069 0
23.890000 0.114368 0
23.895000 0.092931 0
23.900000 0.073180 0
23.905000 0.055368 0
23.910000 0.039530 0
23.915000 0.025403 0
23.920000 0.012282 0
23.925000 -0.001146 0
23.930000 -0.016872 0
23.935000 -0.037311 0
23.940000 -0.064482 0
23.945000 -0.098630 0
23.950000 -0.136699 0
23.955000 -0.171444 0
23.960000 -0.191840 2
23.965000 -0.184738 0
23.970000 -0.137052 0
23.975000 -0.037929 0
23.980000 0.118640 0
23.985000 0.329742 0
23.990000 0.578351 0
23.995000 0.830307 0
24.000000 1.038251 0
24.005000 1.154494 3
24.010000 1.148735 0
24.015000 1.020572 0
24.020000 0.798461 0
24.025000 0.528546 0
24.030000 0.258212 0
24.035000 0.023688 0
24.040000 -0.154246 0
24.045000 -0.268375 0
24.050000 -0.321408 0
24.055000 -0.323184 4
24.060000 -0.288508 0
24.065000 -0.234319 0
24.070000 -0.176100 0
24.075000 -0.124772 0
24.080000 -0.085468 0
24.085000 -0.058411 0
24.090000 -0.040978 0
24.095000 -0.029755 0
24.100000 -0.021817 0
24.105000 -0.015162 0
24.110000 -0.008625 0
24.115000 -0.001593 0
24.120000 0.006240 0
24.125000 0.015038 0
24.130000 0.024902 0
24.135000 0.035906 0
24.140000 0.048105 0
24.145000 0.061539 0
24.150000 0.076225 0
24.155000 0.092163 0
24.160000 0.109323 0
24.165000 0.127651 0
24.170000 0.147059 0
24.175000 0.167430 0
24.180000 0.188614 0
24.185000 0.210426 0
24.190000 0.232652 0
24.195000 0.255050 0
24.200000 0.277350 0
24.205000 0.299263 0
24.210000 0.320485 0
24.215000 0.340702 0
24.220000 0.359601 0
24.225000 0.376874 0
24.230000 0.392229 0
24.235000 0.405395 0
24.240000 0.416133 0
24.245000 0.424239 0
24.250000 0.429554 0
24.255000 0.431968 5
24.260000 0.431421 0
24.265000 0.427907 0
24.270000 0.421473 0
24.275000 0.412222 0
24.280000 0.400303 0
24.285000 0.385913 0
24.290000 0.369288 0
24.295000 0.350697 0
24.300000 0.330436 0
24.305000 0.308818 0
24.310000 0.286165 0
24.315000 0.262802 0
24.320000 0.239047 0
24.325000 0.215205 0
24.330000 0.191561 0
24.335000 0.168376 0
24.340000 0.145883 0
24.345000 0.124282 0
24.350000 0.103740 0
24.355000 0.084389 0
24.360000 0.066329 0
24.365000 0.049626 0
24.370000 0.034316 0
24.375000 0.020408 0
24.380000 0.007886 0
24.385000 -0.003288 0
24.390000 -0.013168 0
24.395000 -0.021822 0
24.400000 -0.029330 0
24.405000 -0.035776 0
24.410000 -0.041252 0
24.415000 -0.045848 0
24.420000 -0.049655 0
24.425000 -0.052761 0
24.430000 -0.055250 0
24.435000 -0.057201 0
24.440000 -0.058687 0
24.445000 -0.059774 0
24.450000 -0.060522 0
24.455000 -0.060984 0
24.460000 -0.061208 0
24.465000 -0.061234 0
24.470000 -0.061098 0
24.475000 -0.060829 0
24.480000 -0.060454 0
24.485000 -0.059994 0
24.490000 -0.059466 0
24.495000 -0.058885 0
24.500000 -0.058264 0
24.505000 -0.057611 0
24.510000 -0.056935 0
24.515000 -0.056191 0
24.520000 -0.055438 0
24.525000 -0.054690 0
24.530000 -0.053945 0
24.535000 -0.053204 0
24.540000 -0.052467 0
24.545000 -0.051733 0
24.550000 -0.051003 0
24.555000 -0.050276 0
24.560000 -0.049554 0
24.565000 -0.048834 0
24.570000 -0.048119 0
24.575000 -0.047407 0
24.580000 -0.046698 0
24.585000 -0.045993 0
24.590000 -0.045292 0
24.595000 -0.044594 0
24.600000 -0.043899 0
24.605000 -0.043208 0
24.610000 -0.042521 0
24.615000 -0.041837 0
24.620000 -0.041156 0
24.625000 -0.040479 0
24.630000 -0.039805 0
24.635000 -0.039134 0
24.640000 -0.038467 0
24.645000 -0.037802 0
24.650000 -0.037141 0
24.655000 -0.036482 0
24.660000 -0.035826 0
24.665000 -0.035170 0
24.670000 -0.034515 0
24.675000 -0.033858 0
24.680000 -0.033196 0
24.685000 -0.032524 0
24.690000 -0.031834 0
24.695000 -0.031115 0
24.700000 -0.030351 0
24.705000 -0.029520 0
24.710000 -0.028588 0
24.715000 -0.027511 0
24.720000 -0.026232 0
24.725000 -0.024673 0
24.730000 -0.022738 0
24.735000 -0.020304 0
24.740000 -0.017228 0
24.745000 -0.013338 0
24.750000 -0.008444 0
24.755000 -0.002337 0
24.760000 0.005197 0
24.765000 0.014366 0
24.770000 0.025357 0
24.775000 0.038310 0
24.780000 0.053303 0
24.785000 0.070324 0
24.790000 0.089254 0
24.795000 0.109847 0
24.800000 0.131729 0
24.805000 0.154388 0
24.810000 0.177194 0
24.815000 0.199422 0
24.820000 0.220282 0
24.825000 0.238967 0
24.830000 0.254705 0
24.835000 0.266808 0
24.840000 0.274721 0
24.845000 0.278067 1
24.850000 0.276673 0
24.855000 0.270585 0
24.860000 0.260064 0
24.865000 0.245569 0
24.870000 0.227723 0
24.875000 0.207264 0
24.880000 0.185001 0
24.885000 0.161755 0
24.890000 0.138312 0
24.895000 0.115381 0
24.900000 0.093560 0
24.905000 0.073309 0
24.910000 0.054928 0
24.915000 0.038524 0
24.920000 0.023939 0
24.925000 0.010635 0
24.930000 -0.002473 0
24.935000 -0.017134 0
24.940000 -0.035643 0
24.945000 -0.060257 0
24.950000 -0.092015 0
24.955000 -0.129228 0
24.960000 -0.166304 0
24.965000 -0.193640 0
24.970000 -0.198834 2
24.975000 -0.168709 0
24.980000 -0.091438 0
24.985000 0.041219 0
24.990000 0.230617 0
24.995000 0.466415 0
25.000000 0.722192 0
25.005000 0.955866 0
25.010000 1.118540 0
25.015000 1.170414 3
25.020000 1.096902 0
25.025000 0.914423 0
25.030000 0.661659 0
25.035000 0.386089 0
25.040000 0.129478 0
25.045000 -0.080133 0
25.050000 -0.229161 0
25.055000 -0.315414 0
25.060000 -0.344870 4
25.065000 -0.329450 0
25.070000 -0.284823 0
25.075000 -0.227342 0
25.080000 -0.170638 0
25.085000 -0.123257 0
25.090000 -0.088287 0
25.095000 -0.064727 0
25.100000 -0.049575 0
25.105000 -0.039562 0
25.110000 -0.032102 0
25.115000 -0.025508 0
25.120000 -0.018823 0
25.125000 -0.011554 0
25.130000 -0.003447 0
25.135000 0.005638 0
25.140000 0.015791 0
25.145000 0.027079 0
25.150000 0.039554 0
25.155000 0.053250 0
25.160000 0.068181 0
25.165000 0.084343 0
25.170000 0.101704 0
25.175000 0.120206 0
25.180000 0.139761 0
25.185000 0.160253 0
25.190000 0.181531 0
25.195000 0.203415 0
25.200000 0.225694 0
25.205000 0.248131 0
25.210000 0.270464 0
25.215000 0.292411 0
25.220000 0.313675 0
25.225000 0.333953 0
25.230000 0.352939 0
25.235000 0.370333 0
25.240000 0.385850 0
25.245000 0.399226 0
25.250000 0.410225 0
25.255000 0.418646 0
25.260000 0.424330 0
25.265000 0.427162 5
25.270000 0.427078 0
25.275000 0.424066 0
25.280000 0.418162 0
25.285000 0.409458 0
25.290000 0.398090 0
25.295000 0.384242 0
25.300000 0.368135 0
25.305000 0.350025 0
25.310000 0.330193 0
25.315000 0.308941 0
25.320000 0.286581 0
25.325000 0.263429 0
25.330000 0.239796 0
25.335000 0.215984 0
25.340000 0.192279 0
25.345000 0.168941 0
25.350000 0.146208 0
25.355000 0.124285 0
25.360000 0.103348 0
25.365000 0.083540 0
25.370000 0.064968 0
25.375000 0.047712 0
25.380000 0.031819 0
25.385000 0.017309 0
25.390000 0.004176 0
25.395000 -0.007606 0
25.400000 -0.018082 0
25.405000 -0.027313 0
25.410000 -0.035371 0
25.415000 -0.042336 0
25.420000 -0.048294 0
25.425000 -0.053333 0
25.430000 -0.057542 0
25.435000 -0.061009 0
25.440000 -0.063817 0
25.445000 -0.066047 0
25.450000 -0.067773 0
25.455000 -0.069065 0
25.460000 -0.069983 0
25.465000 -0.070586 0
25.470000 -0.070921 0
25.475000 -0.071035 0
25.480000 -0.070964 0
25.485000 -0.070742 0
25.490000 -0.070396 0
25.495000 -0.069951 0
25.500000 -0.069427 0
25.505000 -0.068839 0
25.510000 -0.068202 0
25.515000 -0.067528 0
25.520000 -0.066824 0
25.525000 -0.066098 0
25.530000 -0.065308 0
25.535000 -0.064510 0
25.540000 -0.063716 0
25.545000 -0.062926 0
25.550000 -0.062141 0
25.555000 -0.061359 0
25.560000 -0.060581 0
25.565000 -0.059806 0
25.570000 -0.059036 0
25.575000 -0.058270 0
25.580000 -0.057507 0
25.585000 -0.056748 0
25.590000 -0.055993 0
25.595000 -0.055242 0
25.600000 -0.054494 0
25.605000 -0.053750 0
25.610000 -0.053010 0
25.615000 -0.052274 0
25.620000 -0.051541 0
25.625000 -0.050812 0
25.630000 -0.050086 0
25.635000 -0.049364 0
25.640000 -0.048646 0
25.645000 -0.047931 0
25.650000 -0.047220 0
25.655000 -0.046512 0
25.660000 -0.045808 0
25.665000 -0.045107 0
25.670000 -0.044409 0
25.675000 -0.043713 0
25.680000 -0.043019 0
25.685000 -0.042326 0
25.690000 -0.041632 0
25.695000 -0.040934 0
25.700000 -0.040228 0
25.705000 -0.039508 0
25.710000 -0.038764 0
25.715000 -0.037982 0
25.720000 -0.037143 0
25.725000 -0.036219 0
25.730000 -0.035172 0
25.735000 -0.033952 0
25.740000 -0.032490 0
25.745000 -0.030703 0
25.750000 -0.028483 0
25.755000 -0.025700 0
25.760000 -0.022199 0
25.765000 -0.017805 0
25.770000 -0.012322 0
25.775000 -0.005544 0
25.780000 0.002737 0
25.785000 0.012717 0
25.790000 0.024558 0
25.795000 0.038375 0
25.800000 0.054210 0
25.805000 0.072012 0
25.810000 0.091619 0
25.815000 0.112746 0
25.820000 0.134981 0
25.825000 0.157785 0
25.830000 0.180511 0
25.835000 0.202429 0
25.840000 0.222762 0
25.845000 0.240728 0
25.850000 0.255595 0
25.855000 0.266721 0
25.860000 0.273608 0
25.865000 0.275932 1
25.870000 0.273572 0
25.875000 0.266617 0
25.880000 0.255360 0
25.885000 0.240279 0
25.890000 0.222002 0
25.895000 0.201261 0
25.900000 0.178848 0
25.905000 0.155560 0
25.910000 0.132156 0
25.915000 0.109317 0
25.920000 0.087612 0
25.925000 0.067481 0
25.930000 0.049206 0
25.935000 0.032882 0
25.940000 0.018347 0
25.945000 0.005072 0
25.950000 -0.007998 0
25.955000 -0.022555 0
25.960000 -0.040825 0
25.965000 -0.065027 0
25.970000 -0.096278 0
25.975000 -0.133166 0
25.980000 -0.170586 0
25.985000 -0.199536 0
25.990000 -0.208154 2
25.995000 -0.183597 0
26.000000 -0.114057 0
26.005000 0.009182 0
26.010000 0.188843 0
26.015000 0.417280 0
26.020000 0.671976 0
26.025000 0.914693 0
26.030000 1.098109 0
26.035000 1.179875 3
26.040000 1.137318 0
26.045000 0.976914 0
26.050000 0.734693 0
26.055000 0.459797 0
26.060000 0.197884 0
26.065000 -0.019190 0
26.070000 -0.175299 0
26.075000 -0.266995 0
26.080000 -0.299895 4
26.085000 -0.286152 0
26.090000 -0.242067 0
26.095000 -0.184772 0
26.100000 -0.128494 0
26.105000 -0.081991 0
26.110000 -0.048212 0
26.115000 -0.025871 0
26.120000 -0.011730 0
26.125000 -0.002427 0
26.130000 0.004608 0
26.135000 0.010987 0
26.140000 0.017597 0
26.145000 0.024884 0
26.150000 0.033074 0
26.155000 0.042297 0
26.160000 0.052639 0
26.165000 0.064164 0
26.170000 0.076920 0
26.175000 0.090937 0
26.180000 0.106222 0
26.185000 0.122759 0
26.190000 0.140503 0
26.195000 0.159379 0
26.200000 0.179282 0
26.205000 0.200070 0
26.210000 0.221569 0
26.215000 0.243573 0
26.220000 0.265844 0
26.225000 0.288117 0
26.230000 0.310103 0
26.235000 0.331498 0
26.240000 0.351984 0
26.245000 0.371240 0
26.250000 0.388949 0
26.255000 0.404809 0
26.260000 0.418535 0
26.265000 0.429874 0
26.270000 0.438608 0
26.275000 0.444562 0
26.280000 0.447609 0
26.285000 0.447677 5
26.290000 0.444746 0
26.295000 0.438852 0
26.300000 0.430087 0
26.305000 0.418595 0
26.310000 0.404566 0
26.315000 0.388235 0
26.320000 0.369870 0
26.325000 0.349769 0
26.330000 0.328248 0
26.335000 0.305636 0
26.340000 0.282263 0
26.345000 0.258455 0
26.350000 0.234524 0
26.355000 0.210764 0
26.360000 0.187444 0
26.365000 0.164803 0
26.370000 0.143049 0
26.375000 0.122353 0
26.380000 0.102854 0
26.385000 0.084653 0
26.390000 0.067821 0
26.395000 0.052395 0
26.400000 0.038384 0
26.405000 0.025772 0
26.410000 0.014521 0
26.415000 0.004575 0
26.420000 -0.004134 0
26.425000 -0.011689 0
26.430000 -0.018176 0
26.435000 -0.023688 0
26.440000 -0.028316 0
26.445000 -0.032155 0
26.450000 -0.035293 0
26.455000 -0.037815 0
26.460000 -0.039801 0
26.465000 -0.041325 0
26.470000 -0.042453 0
26.475000 -0.043246 0
26.480000 -0.043757 0
26.485000 -0.044034 0
26.490000 -0.044117 0
26.495000 -0.044040 0
26.500000 -0.043835 0
26.505000 -0.043527 0
26.510000 -0.043135 0
26.515000 -0.042678 0
26.520000 -0.042171 0
26.525000 -0.041624 0
26.530000 -0.041047 0
26.535000 -0.040437 0
26.540000 -0.039763 0
26.545000 -0.039092 0
26.550000 -0.038425 0
26.555000 -0.037762 0
26.560000 -0.037101 0
26.565000 -0.036444 0
26.570000 -0.035790 0
26.575000 -0.035140 0
26.580000 -0.034493 0
26.585000 -0.033848 0
26.590000 -0.033208 0
26.595000 -0.032570 0
26.600000 -0.031935 0
26.605000 -0.031304 0
26.610000 -0.030676 0
26.615000 -0.030051 0
26.620000 -0.029429 0
26.625000 -0.028810 0
26.630000 -0.028194 0
26.635000 -0.027582 0
26.640000 -0.026972 0
26.645000 -0.026366 0
26.650000 -0.025762 0
26.655000 -0.025161 0
26.660000 -0.024564 0
26.665000 -0.023969 0
26.670000 -0.023377 0
26.675000 -0.022787 0
26.680000 -0.022199 0
26.685000 -0.021613 0
26.690000 -0.021027 0
26.695000 -0.020440 0
26.700000 -0.019849 0
26.705000 -0.019249 0
26.710000 -0.018635 0
26.715000 -0.017997 0
26.720000 -0.017319 0
26.725000 -0.016583 0
26.730000 -0.015758 0
26.735000 -0.014805 0
26.740000 -0.013670 0
26.745000 -0.012280 0
26.750000 -0.010545 0
26.755000 -0.008349 0
26.760000 -0.005552 0
26.765000 -0.001988 0
26.770000 0.002532 0
26.775000 0.008216 0
26.780000 0.015282 0
26.785000 0.023945 0
26.790000 0.034404 0
26.795000 0.046815 0
26.800000 0.061276 0
26.805000 0.077796 0
26.810000 0.096281 0
26.815000 0.116510 0
26.820000 0.138125 0
26.825000 0.160633 0
26.830000 0.183413 0
26.835000 0.205737 0
26.840000 0.226811 0
26.845000 0.245810 0
26.850000 0.261939 0
26.855000 0.274481 0
26.860000 0.282852 0
26.865000 0.286644 1
26.870000 0.285659 0
26.875000 0.279920 0
26.880000 0.269677 0
26.885000 0.255383 0
26.890000 0.237662 0
26.895000 0.217263 0
26.900000 0.195006 0
26.905000 0.171729 0
26.910000 0.148236 0
26.915000 0.125251 0
26.920000 0.103384 0
26.925000 0.083104 0
26.930000 0.064715 0
26.935000 0.048321 0
26.940000 0.033750 0
26.945000 0.020434 0
26.950000 0.007234 0
26.955000 -0.007673 0
26.960000 -0.026652 0
26.965000 -0.051950 0
26.970000 -0.084439 0
26.975000 -0.122038 0
26.980000 -0.158579 0
26.985000 -0.183846 0
26.990000 -0.184972 2
26.995000 -0.148594 0
27.000000 -0.063039 0
27.005000 0.079244 0
27.010000 0.277998 0
27.015000 0.520013 0
27.020000 0.775108 0
27.025000 0.998030 0
27.030000 1.139425 0
27.035000 1.163044 3
27.040000 1.059386 0
27.045000 0.850522 0
27.050000 0.584135 0
27.055000 0.312085 0
27.060000 0.074944 0
27.065000 -0.103924 0
27.070000 -0.216516 0
27.075000 -0.265971 4
27.080000 -0.263345 0
27.085000 -0.225030 0
27.090000 -0.169321 0
27.095000 -0.112211 0
27.100000 -0.064102 0
27.105000 -0.028967 0
27.110000 -0.005861 0
27.115000 0.008546 0
27.120000 0.017842 0
27.125000 0.024773 0
27.130000 0.031052 0
27.135000 0.037598 0
27.140000 0.044867 0
27.145000 0.053086 0
27.150000 0.062384 0
27.155000 0.072848 0
27.160000 0.084546 0
27.165000 0.097522 0
27.170000 0.111803 0
27.175000 0.127391 0
27.180000 0.144260 0
27.185000 0.162352 0
27.190000 0.181575 0
27.195000 0.201803 0
27.200000 0.222872 0
27.205000 0.244581 0
27.210000 0.266695 0
27.215000 0.288946 0
27.220000 0.311039 0
27.225000 0.332656 0
27.230000 0.353466 0
27.235000 0.373127 0
27.240000 0.391302 0
27.245000 0.407664 0
27.250000 0.421903 0
27.255000 0.433743 0
27.260000 0.442944 0
27.265000 0.449309 0
27.270000 0.452697 0
27.275000 0.453022 5
27.280000 0.450258 0
27.285000 0.444439 0
27.290000 0.435659 0
27.295000 0.424071 0
27.300000 0.409878 0
27.305000 0.393329 0
27.310000 0.374713 0
27.315000 0.354348 0
27.320000 0.332571 0
27.325000 0.309732 0
27.330000 0.286180 0
27.335000 0.262259 0
27.340000 0.238296 0
27.345000 0.214594 0
27.350000 0.191430 0
27.355000 0.169045 0
27.360000 0.147646 0
27.365000 0.127399 0
27.370000 0.108436 0
27.375000 0.090846 0
27.380000 0.074688 0
27.385000 0.059985 0
27.390000 0.046731 0
27.395000 0.034895 0
27.400000 0.024425 0
27.405000 0.015251 0
27.410000 0.007292 0
27.415000 0.000457 0
27.420000 -0.005351 0
27.425000 -0.010231 0
27.430000 -0.014279 0
27.435000 -0.017593 0
27.440000 -0.020262 0
27.445000 -0.022372 0
27.450000 -0.024001 0
27.455000 -0.025220 0
27.460000 -0.026094 0
27.465000 -0.026680 0
27.470000 -0.027025 0
27.475000 -0.027175 0
27.480000 -0.027164 0
27.485000 -0.027024 0
27.490000 -0.026781 0
27.495000 -0.026456 0
27.500000 -0.026068 0
27.505000 -0.025630 0
27.510000 -0.025155 0
27.515000 -0.024650 0
27.520000 -0.024115 0
27.525000 -0.023523 0
27.530000 -0.022933 0
27.535000 -0.022347 0
27.540000 -0.021763 0
27.545000 -0.021183 0
27.550000 -0.020605 0
27.555000 -0.020030 0
27.560000 -0.019458 0
27.565000 -0.018889 0
27.570000 -0.018323 0
27.575000 -0.017759 0
27.580000 -0.017199 0
27.585000 -0.016641 0
27.590000 -0.016086 0
27.595000 -0.015534 0
27.600000 -0.014984 0
27.605000 -0.014437 0
27.610000 -0.013893 0
27.615000 -0.013352 0
27.620000 -0.012813 0
27.625000 -0.012277 0
27.630000 -0.011744 0
27.635000 -0.011213 0
27.640000 -0.010685 0
27.645000 -0.010160 0
27.650000 -0.009636 0
27.655000 -0.009115 0
27.660000 -0.008595 0
27.665000 -0.008076 0
27.670000 -0.007557 0
27.675000 -0.007035 0
27.680000 -0.006508 0
27.685000 -0.005969 0
27.690000 -0.005412 0
27.695000 -0.004823 0
27.700000 -0.004186 0
27.705000 -0.003474 0
27.710000 -0.002652 0
27.715000 -0.001670 0
27.720000 -0.000459 0
27.725000 0.001066 0
27.730000 0.003020 0
27.735000 0.005540 0
27.740000 0.008794 0
27.745000 0.012976 0
27.750000 0.018301 0
27.755000 0.025000 0
27.760000 0.033303 0
27.765000 0.043425 0
27.770000 0.055541 0
27.775000 0.069762 0
27.780000 0.086110 0
27.785000 0.104491 0
27.790000 0.124675 0
27.795000 0.146285 0
27.800000 0.168791 0
27.805000 0.191528 0
27.810000 0.213718 0
27.815000 0.234509 0
27.820000 0.253030 0
27.825000 0.268446 0
27.830000 0.280022 0
27.835000 0.287179 0
27.840000 0.289541 1
27.845000 0.286965 0
27.850000 0.279557 0
27.855000 0.267660 0
27.860000 0.251830 0
27.865000 0.232790 0
27.870000 0.211375 0
27.875000 0.188471 0
27.880000 0.164955 0
27.885000 0.141638 0
27.890000 0.119223 0
27.895000 0.098271 0
27.900000 0.079173 0
27.905000 0.062117 0
27.910000 0.047024 0
27.915000 0.033424 0
27.920000 0.020276 0
27.925000 0.005807 0
27.930000 -0.012411 0
27.935000 -0.036850 0
27.940000 -0.068705 0
27.945000 -0.106146 0
27.950000 -0.142950 0
27.955000 -0.168442 0
27.960000 -0.169005 2
27.965000 -0.130486 0
27.970000 -0.040664 0
27.975000 0.107960 0
27.980000 0.313851 0
27.985000 0.560627 0
27.990000 0.813188 0
27.995000 1.021527 0
28.000000 1.134915 3
28.005000 1.122553 0
28.010000 0.986954 0
28.015000 0.759120 0
28.020000 0.487296 0
28.025000 0.219591 0
28.030000 -0.008405 0
28.035000 -0.177256 0
28.040000 -0.281214 0
28.045000 -0.324390 4
28.050000 -0.317983 0
28.055000 -0.277917 0
28.060000 -0.221640 0
28.065000 -0.164284 0
28.070000 -0.115720 0
28.075000 -0.079814 0
28.080000 -0.055792 0
28.085000 -0.040541 0
28.090000 -0.030600 0
28.095000 -0.023238 0
28.100000 -0.016701 0
28.105000 -0.010016 0
28.110000 -0.002690 0
28.115000 0.005525 0
28.120000 0.014766 0
28.125000 0.025124 0
28.130000 0.036665 0
28.135000 0.049441 0
28.140000 0.063482 0
28.145000 0.078799 0
28.150000 0.095375 0
28.155000 0.113170 0
28.160000 0.132110 0
28.165000 0.152088 0
28.170000 0.172965 0
28.175000 0.194566 0
28.180000 0.216684 0
28.185000 0.239080 0
28.190000 0.261487 0
28.195000 0.283614 0
28.200000 0.305152 0
28.205000 0.325781 0
28.210000 0.345176 0
28.215000 0.363018 0
28.220000 0.378998 0
28.225000 0.392831 0
28.230000 0.404261 0
28.235000 0.413066 0
28.240000 0.419073 0
28.245000 0.422154 0
28.250000 0.422236 5
28.255000 0.419302 0
28.260000 0.413392 0
28.265000 0.404600 0
28.270000 0.393074 0
28.275000 0.379011 0
28.280000 0.362648 0
28.285000 0.344261 0
28.290000 0.324151 0
28.295000 0.302640 0
28.300000 0.280061 0
28.305000 0.256747 0
28.310000 0.233026 0
28.315000 0.209214 0
28.320000 0.185604 0
28.325000 0.162466 0
28.330000 0.140037 0
28.335000 0.118522 0
28.340000 0.098091 0
28.345000 0.078879 0
28.350000 0.060984 0
28.355000 0.044472 0
28.360000 0.029375 0
28.365000 0.015700 0
28.370000 0.003426 0
28.375000 -0.007489 0
