0.000000 1.161794 3
0.005000 1.024119 0
0.010000 0.684603 0
0.015000 0.278723 0
0.020000 -0.069296 0
0.025000 -0.294006 0
0.030000 -0.384136 4
0.035000 -0.363827 0
0.040000 -0.278051 0
0.045000 -0.174883 0
0.050000 -0.086518 0
0.055000 -0.022322 0
0.060000 0.023470 0
0.065000 0.060132 0
0.070000 0.094031 0
0.075000 0.127891 0
0.080000 0.162226 0
0.085000 0.196599 0
0.090000 0.230225 0
0.095000 0.262198 0
0.100000 0.291573 0
0.105000 0.317424 0
0.110000 0.338890 0
0.115000 0.355225 0
0.120000 0.365838 0
0.125000 0.370329 5
0.130000 0.368513 0
0.135000 0.360432 0
0.140000 0.346353 0
0.145000 0.326754 0
0.150000 0.302295 0
0.155000 0.273781 0
0.160000 0.242117 0
0.165000 0.208262 0
0.170000 0.173180 0
0.175000 0.137796 0
0.180000 0.102956 0
0.185000 0.069396 0
0.190000 0.037724 0
0.195000 0.008408 0
0.200000 -0.018228 0
0.205000 -0.041997 0
0.210000 -0.062835 0
0.215000 -0.080784 0
0.220000 -0.095972 0
0.225000 -0.108591 0
0.230000 -0.118879 0
0.235000 -0.127095 0
0.240000 -0.133510 0
0.245000 -0.138387 0
0.250000 -0.141978 0
0.255000 -0.143989 0
0.260000 -0.142944 0
0.265000 -0.141905 0
0.270000 -0.140869 0
0.275000 -0.139837 0
0.280000 -0.138807 0
0.285000 -0.137774 0
0.290000 -0.136732 0
0.295000 -0.135668 0
0.300000 -0.134556 0
0.305000 -0.133354 0
0.310000 -0.131995 0
0.315000 -0.130366 0
0.320000 -0.128301 0
0.325000 -0.125557 0
0.330000 -0.121796 0
0.335000 -0.116579 0
0.340000 -0.109365 0
0.345000 -0.099535 0
0.350000 -0.086445 0
0.355000 -0.069508 0
0.360000 -0.048310 0
0.365000 -0.022740 0
0.370000 0.006885 0
0.375000 0.039716 0
0.380000 0.074345 0
0.385000 0.108850 0
0.390000 0.140949 0
0.395000 0.168231 0
0.400000 0.188456 0
0.405000 0.199856 0
0.410000 0.201393 1
0.415000 0.192914 0
0.420000 0.175179 0
0.425000 0.149748 0
0.430000 0.118748 0
0.435000 0.084536 0
0.440000 0.049236 0
0.445000 0.014016 0
0.450000 -0.021993 0
0.455000 -0.062607 0
0.460000 -0.113519 0
0.465000 -0.177042 0
0.470000 -0.243854 0
0.475000 -0.288342 2
0.480000 -0.273409 0
0.485000 -0.161960 0
0.490000 0.069778 0
0.495000 0.412165 0
0.500000 0.795732 0
0.505000 1.090627 0
0.510000 1.166913 3
0.515000 0.986254 0
0.520000 0.626200 0
0.525000 0.221996 0
0.530000 -0.112660 0
0.535000 -0.322046 0
0.540000 -0.400000 4
0.545000 -0.372489 0
0.550000 -0.284105 0
0.555000 -0.181000 0
0.560000 -0.093334 0
0.565000 -0.029489 0
0.570000 0.016311 0
0.575000 0.053076 0
0.580000 0.087031 0
0.585000 0.120896 0
0.590000 0.155234 0
0.595000 0.189652 0
0.600000 0.223405 0
0.605000 0.255622 0
0.610000 0.285390 0
0.615000 0.311805 0
0.620000 0.334023 0
0.625000 0.351300 0
0.630000 0.363036 0
0.635000 0.368807 5
0.640000 0.368389 0
0.645000 0.361777 0
0.650000 0.349177 0
0.655000 0.331005 0
0.660000 0.307856 0
0.665000 0.280474 0
0.670000 0.249712 0
0.675000 0.216490 0
0.680000 0.181743 0
0.685000 0.146386 0
0.690000 0.111270 0
0.695000 0.077150 0
0.700000 0.044668 0
0.705000 0.014332 0
0.710000 -0.013485 0
0.715000 -0.038545 0
0.720000 -0.060734 0
0.725000 -0.080046 0
0.730000 -0.096567 0
0.735000 -0.110455 0
0.740000 -0.121921 0
0.745000 -0.131205 0
0.750000 -0.138567 0
0.755000 -0.144267 0
0.760000 -0.148557 0
0.765000 -0.151672 0
0.770000 -0.153351 0
0.775000 -0.152259 0
0.780000 -0.151173 0
0.785000 -0.150090 0
0.790000 -0.149012 0
0.795000 -0.147934 0
0.800000 -0.146853 0
0.805000 -0.145760 0
0.810000 -0.144640 0
0.815000 -0.143467 0
0.820000 -0.142194 0
0.825000 -0.140747 0
0.830000 -0.139009 0
0.835000 -0.136808 0
0.840000 -0.133894 0
0.845000 -0.129926 0
0.850000 -0.124465 0
0.855000 -0.116976 0
0.860000 -0.106856 0
0.865000 -0.093480 0
0.870000 -0.076289 0
0.875000 -0.054893 0
0.880000 -0.029197 0
0.885000 0.000481 0
0.890000 0.033316 0
0.895000 0.067950 0
0.900000 0.102533 0
0.905000 0.134862 0
0.910000 0.162603 0
0.915000 0.183562 0
0.920000 0.195974 0
0.925000 0.198749 1
0.930000 0.191633 0
0.935000 0.175244 0
0.940000 0.150989 0
0.945000 0.120857 0
0.950000 0.087122 0
0.955000 0.051934 0
0.960000 0.016706 0
0.965000 -0.018838 0
0.970000 -0.057667 0
0.975000 -0.105138 0
0.980000 -0.165197 0
0.985000 -0.232950 0
0.990000 -0.288453 0
0.995000 -0.298318 2
1.000000 -0.225198 0
1.005000 -0.039684 0
1.010000 0.264072 0
1.015000 0.643946 0
1.020000 0.994314 0
1.025000 1.178352 3
1.030000 1.105957 0
1.035000 0.805289 0
1.040000 0.402327 0
1.045000 0.032141 0
1.050000 -0.223993 0
1.055000 -0.343703 0
1.060000 -0.344641 4
1.065000 -0.268894 0
1.070000 -0.166127 0
1.075000 -0.073407 0
1.080000 -0.004681 0
1.085000 0.043800 0
1.090000 0.081440 0
1.095000 0.115415 0
1.100000 0.149064 0
1.105000 0.183197 0
1.110000 0.217479 0
1.115000 0.251154 0
1.120000 0.283318 0
1.125000 0.313017 0
1.130000 0.339311 0
1.135000 0.361315 0
1.140000 0.378257 0
1.145000 0.389516 0
1.150000 0.394660 5
1.155000 0.393475 0
1.160000 0.385975 0
1.165000 0.372405 0
1.170000 0.353225 0
1.175000 0.329086 0
1.180000 0.300787 0
1.185000 0.269238 0
1.190000 0.235403 0
1.195000 0.200260 0
1.200000 0.164746 0
1.205000 0.129724 0
1.210000 0.095946 0
1.215000 0.064035 0
1.220000 0.034471 0
1.225000 0.007589 0
1.230000 -0.016416 0
1.235000 -0.037474 0
1.240000 -0.055625 0
1.245000 -0.070996 0
1.250000 -0.083780 0
1.255000 -0.094216 0
1.260000 -0.102567 0
1.265000 -0.109105 0
1.270000 -0.114098 0
1.275000 -0.117798 0
1.280000 -0.119918 0
1.285000 -0.118993 0
1.290000 -0.118073 0
1.295000 -0.117156 0
1.300000 -0.116242 0
1.305000 -0.115330 0
1.310000 -0.114414 0
1.315000 -0.113487 0
1.320000 -0.112536 0
1.325000 -0.111535 0
1.330000 -0.110440 0
1.335000 -0.109178 0
1.340000 -0.107635 0
1.345000 -0.105635 0
1.350000 -0.102925 0
1.355000 -0.099156 0
1.360000 -0.093873 0
1.365000 -0.086520 0
1.370000 -0.076464 0
1.375000 -0.063056 0
1.380000 -0.045719 0
1.385000 -0.024064 0
1.390000 0.001974 0
1.395000 0.032004 0
1.400000 0.065093 0
1.405000 0.099735 0
1.410000 0.133922 0
1.415000 0.165308 0
1.420000 0.191465 0
1.425000 0.210187 0
1.430000 0.219798 1
1.435000 0.219397 0
1.440000 0.209002 0
1.445000 0.189545 0
1.450000 0.162733 0
1.455000 0.130792 0
1.460000 0.096102 0
1.465000 0.060677 0
1.470000 0.025355 0
1.475000 -0.011349 0
1.480000 -0.053939 0
1.485000 -0.108014 0
1.490000 -0.173880 0
1.495000 -0.238248 0
1.500000 -0.271539 2
1.505000 -0.235077 0
1.510000 -0.093454 0
1.515000 0.170883 0
1.520000 0.534316 0
1.525000 0.907696 0
1.530000 1.151095 3
1.535000 1.150677 0
1.540000 0.902975 0
1.545000 0.514755 0
1.550000 0.122137 0
1.555000 -0.177594 0
1.560000 -0.345761 0
1.565000 -0.387616 4
1.570000 -0.336315 0
1.575000 -0.239031 0
1.580000 -0.138572 0
1.585000 -0.058298 0
1.590000 -0.001034 0
1.595000 0.041022 0
1.600000 0.076372 0
1.605000 0.110076 0
1.610000 0.144027 0
1.615000 0.178393 0
1.620000 0.212630 0
1.625000 0.245940 0
1.630000 0.277431 0
1.635000 0.306185 0
1.640000 0.331314 0
1.645000 0.351999 0
1.650000 0.367536 0
1.655000 0.377376 0
1.660000 0.381156 5
1.665000 0.378719 0
1.670000 0.370128 0
1.675000 0.355657 0
1.680000 0.335780 0
1.685000 0.311146 0
1.690000 0.282539 0
1.695000 0.250837 0
1.700000 0.216971 0
1.705000 0.181877 0
1.710000 0.146451 0
1.715000 0.111519 0
1.720000 0.077804 0
1.725000 0.045904 0
1.730000 0.016285 0
1.735000 -0.010722 0
1.740000 -0.034922 0
1.745000 -0.056235 0
1.750000 -0.074689 0
1.755000 -0.090395 0
1.760000 -0.103530 0
1.765000 -0.114316 0
1.770000 -0.123003 0
1.775000 -0.129851 0
1.780000 -0.135120 0
1.785000 -0.139056 0
1.790000 -0.141887 0
1.795000 -0.141414 0
1.800000 -0.140382 0
1.805000 -0.139354 0
1.810000 -0.138331 0
1.815000 -0.137310 0
1.820000 -0.136288 0
1.825000 -0.135261 0
1.830000 -0.134217 0
1.835000 -0.133139 0
1.840000 -0.131994 0
1.845000 -0.130729 0
1.850000 -0.129256 0
1.855000 -0.127442 0
1.860000 -0.125090 0
1.865000 -0.121922 0
1.870000 -0.117565 0
1.875000 -0.111545 0
1.880000 -0.103301 0
1.885000 -0.092213 0
1.890000 -0.077669 0
1.895000 -0.059153 0
1.900000 -0.036358 0
1.905000 -0.009317 0
1.910000 0.021490 0
1.915000 0.055059 0
1.920000 0.089853 0
1.925000 0.123882 0
1.930000 0.154869 0
1.935000 0.180493 0
1.940000 0.198673 0
1.945000 0.207846 1
1.950000 0.207194 0
1.955000 0.196761 0
1.960000 0.177450 0
1.965000 0.150896 0
1.970000 0.119225 0
1.975000 0.084724 0
1.980000 0.049378 0
1.985000 0.014144 0
1.990000 -0.022090 0
1.995000 -0.063283 0
2.000000 -0.114962 0
2.005000 -0.178959 0
2.010000 -0.245596 0
2.015000 -0.289590 2
2.020000 -0.274854 0
2.025000 -0.165370 0
2.030000 0.062328 0
2.035000 0.400474 0
2.040000 0.784927 0
2.045000 1.092206 0
2.050000 1.192711 3
2.055000 1.033892 0
2.060000 0.681564 0
2.065000 0.276748 0
2.070000 -0.058859 0
2.075000 -0.265802 0
2.080000 -0.338262 4
2.085000 -0.304839 0
2.090000 -0.213340 0
2.095000 -0.111377 0
2.100000 -0.027741 0
2.105000 0.031807 0
2.110000 0.074716 0
2.115000 0.110140 0
2.120000 0.143686 0
2.125000 0.177462 0
2.130000 0.211666 0
2.135000 0.245720 0
2.140000 0.278775 0
2.145000 0.309885 0
2.150000 0.338084 0
2.155000 0.362439 0
2.160000 0.382101 0
2.165000 0.396353 0
2.170000 0.404655 0
2.175000 0.406672 5
2.180000 0.402298 0
2.185000 0.391665 0
2.190000 0.375130 0
2.195000 0.353262 0
2.200000 0.326801 0
2.205000 0.296620 0
2.210000 0.263676 0
2.215000 0.228958 0
2.220000 0.193439 0
2.225000 0.158032 0
2.230000 0.123552 0
2.235000 0.090690 0
2.240000 0.059998 0
2.245000 0.031876 0
2.250000 0.006583 0
2.255000 -0.015761 0
2.260000 -0.035152 0
2.265000 -0.051685 0
2.270000 -0.065531 0
2.275000 -0.076916 0
2.280000 -0.086099 0
2.285000 -0.093354 0
2.290000 -0.098955 0
2.295000 -0.103164 0
2.300000 -0.106224 0
2.305000 -0.105934 0
2.310000 -0.105079 0
2.315000 -0.104228 0
2.320000 -0.103379 0
2.325000 -0.102532 0
2.330000 -0.101683 0
2.335000 -0.100826 0
2.340000 -0.099949 0
2.345000 -0.099030 0
2.350000 -0.098033 0
2.355000 -0.096892 0
2.360000 -0.095506 0
2.365000 -0.093717 0
2.370000 -0.091291 0
2.375000 -0.087902 0
2.380000 -0.083119 0
2.385000 -0.076402 0
2.390000 -0.067128 0
2.395000 -0.054636 0
2.400000 -0.038313 0
2.405000 -0.017710 0
2.410000 0.007324 0
2.415000 0.036505 0
2.420000 0.069009 0
2.425000 0.103432 0
2.430000 0.137830 0
2.435000 0.169879 0
2.440000 0.197112 0
2.445000 0.217231 0
2.450000 0.228425 0
2.455000 0.229636 1
2.460000 0.220724 0
2.465000 0.202494 0
2.470000 0.176569 0
2.475000 0.145148 0
2.480000 0.110642 0
2.485000 0.075179 0
2.490000 0.039815 0
2.495000 0.003385 0
2.500000 -0.038345 0
2.505000 -0.091147 0
2.510000 -0.156254 0
2.515000 -0.221773 0
2.520000 -0.259063 2
2.525000 -0.229287 0
2.530000 -0.095900 0
2.535000 0.160725 0
2.540000 0.520143 0
2.545000 0.896086 0
2.550000 1.148176 0
2.555000 1.158012 3
2.560000 0.916948 0
2.565000 0.530430 0
2.570000 0.137131 0
2.575000 -0.163114 0
2.580000 -0.330641 0
2.585000 -0.370949 4
2.590000 -0.318094 0
2.595000 -0.220206 0
2.600000 -0.120383 0
2.605000 -0.041442 0
2.610000 0.014567 0
2.615000 0.055851 0
2.620000 0.090878 0
2.625000 0.124507 0
2.630000 0.158453 0
2.635000 0.192784 0
2.640000 0.226904 0
2.645000 0.259985 0
2.650000 0.291110 0
2.655000 0.319347 0
2.660000 0.343797 0
2.665000 0.363641 0
2.670000 0.378187 0
2.675000 0.386904 0
2.680000 0.389460 5
2.685000 0.385737 0
2.690000 0.375843 0
2.695000 0.360100 0
2.700000 0.339033 0
2.705000 0.313338 0
2.710000 0.283838 0
2.715000 0.251448 0
2.720000 0.217120 0
2.725000 0.181800 0
2.730000 0.146385 0
2.735000 0.111690 0
2.740000 0.078414 0
2.745000 0.047128 0
2.750000 0.018264 0
2.755000 -0.007888 0
2.760000 -0.031167 0
2.765000 -0.051533 0
2.770000 -0.069044 0
2.775000 -0.083840 0
2.780000 -0.096121 0
2.785000 -0.106126 0
2.790000 -0.114114 0
2.795000 -0.120352 0
2.800000 -0.125099 0
2.805000 -0.128600 0
2.810000 -0.130575 0
2.815000 -0.129597 0
2.820000 -0.128624 0
2.825000 -0.127654 0
2.830000 -0.126688 0
2.835000 -0.125723 0
2.840000 -0.124755 0
2.845000 -0.123776 0
2.850000 -0.122772 0
2.855000 -0.121719 0
2.860000 -0.120574 0
2.865000 -0.119264 0
2.870000 -0.117679 0
2.875000 -0.115650 0
2.880000 -0.112932 0
2.885000 -0.109187 0
2.890000 -0.103979 0
2.895000 -0.096770 0
2.900000 -0.086947 0
2.905000 -0.073874 0
2.910000 -0.056973 0
2.915000 -0.035837 0
2.920000 -0.010355 0
2.925000 0.019160 0
2.930000 0.051879 0
2.935000 0.086421 0
2.940000 0.120899 0
2.945000 0.153065 0
2.950000 0.180540 0
2.955000 0.201096 0
2.960000 0.212958 0
2.965000 0.215055 1
2.970000 0.207180 0
2.975000 0.190024 0
2.980000 0.165076 0
2.985000 0.134402 0
2.990000 0.100328 0
2.995000 0.065000 0
3.000000 0.029707 0
3.005000 -0.006138 0
3.010000 -0.045971 0
3.015000 -0.095384 0
3.020000 -0.157516 0
3.025000 -0.225094 0
3.030000 -0.274965 2
3.035000 -0.271480 0
3.040000 -0.177199 0
3.045000 0.034459 0
3.050000 0.361164 0
3.055000 0.745596 0
3.060000 1.067347 0
3.065000 1.191206 3
3.070000 1.053618 0
3.075000 0.712131 0
3.080000 0.306378 0
3.085000 -0.037254 0
3.090000 -0.254129 0
3.095000 -0.335206 4
3.100000 -0.307376 0
3.105000 -0.218003 0
3.110000 -0.115634 0
3.115000 -0.030650 0
3.120000 0.030031 0
3.125000 0.073524 0
3.130000 0.109136 0
3.135000 0.142698 0
3.140000 0.176452 0
3.145000 0.210647 0
3.150000 0.244718 0
3.155000 0.277816 0
3.160000 0.308991 0
3.165000 0.337270 0
3.170000 0.361712 0
3.175000 0.381462 0
3.180000 0.395796 0
3.185000 0.404165 0
3.190000 0.406231 5
3.195000 0.401887 0
3.200000 0.391261 0
3.205000 0.374717 0
3.210000 0.352823 0
3.215000 0.326327 0
3.220000 0.296109 0
3.225000 0.263131 0
3.230000 0.228390 0
3.235000 0.192863 0
3.240000 0.157468 0
3.245000 0.123023 0
3.250000 0.090219 0
3.255000 0.059606 0
3.260000 0.031583 0
3.265000 0.006404 0
3.270000 -0.015813 0
3.275000 -0.035071 0
3.280000 -0.051469 0
3.285000 -0.065182 0
3.290000 -0.076440 0
3.295000 -0.085505 0
3.300000 -0.092653 0
3.305000 -0.098160 0
3.310000 -0.102287 0
3.315000 -0.105277 0
3.320000 -0.104981 0
3.325000 -0.104131 0
3.330000 -0.103284 0
3.335000 -0.102440 0
3.340000 -0.101597 0
3.345000 -0.100752 0
3.350000 -0.099898 0
3.355000 -0.099022 0
3.360000 -0.098102 0
3.365000 -0.097097 0
3.370000 -0.095939 0
3.375000 -0.094522 0
3.380000 -0.092677 0
3.385000 -0.090160 0
3.390000 -0.086632 0
3.395000 -0.081643 0
3.400000 -0.074640 0
3.405000 -0.064986 0
3.410000 -0.052017 0
3.415000 -0.035132 0
3.420000 -0.013911 0
3.425000 0.011745 0
3.430000 0.041477 0
3.435000 0.074371 0
3.440000 0.108926 0
3.445000 0.143117 0
3.450000 0.174561 0
3.455000 0.200784 0
3.460000 0.219530 0
3.465000 0.229087 1
3.470000 0.228536 0
3.475000 0.217906 0
3.480000 0.198161 0
3.485000 0.171061 0
3.490000 0.138888 0
3.495000 0.104058 0
3.500000 0.068583 0
3.505000 0.033191 0
3.510000 -0.003861 0
3.515000 -0.047388 0
3.520000 -0.102917 0
3.525000 -0.169654 0
3.530000 -0.232103 0
3.535000 -0.258416 2
3.540000 -0.208891 0
3.545000 -0.049051 0
3.550000 0.234365 0
3.555000 0.607670 0
3.560000 0.968326 0
3.565000 1.171529 3
3.570000 1.118257 0
3.575000 0.830151 0
3.580000 0.429507 0
3.585000 0.053967 0
3.590000 -0.210616 0
3.595000 -0.338538 0
3.600000 -0.345544 4
3.605000 -0.272842 0
3.610000 -0.170421 0
3.615000 -0.076620 0
3.620000 -0.006665 0
3.625000 0.042588 0
3.630000 0.080542 0
3.635000 0.114581 0
3.640000 0.148213 0
3.645000 0.182326 0
3.650000 0.216612 0
3.655000 0.250322 0
3.660000 0.282551 0
3.665000 0.312344 0
3.670000 0.338751 0
3.675000 0.360886 0
3.680000 0.377967 0
3.685000 0.389366 0
3.690000 0.394645 5
3.695000 0.393584 0
3.700000 0.386192 0
3.705000 0.372712 0
3.710000 0.353603 0
3.715000 0.329514 0
3.720000 0.301248 0
3.725000 0.269716 0
3.730000 0.235889 0
3.735000 0.200747 0
3.740000 0.165231 0
3.745000 0.130207 0
3.750000 0.096431 0
3.755000 0.064529 0
3.760000 0.034982 0
3.765000 0.008123 0
3.770000 -0.015851 0
3.775000 -0.036872 0
3.780000 -0.054981 0
3.785000 -0.070308 0
3.790000 -0.083047 0
3.795000 -0.093438 0
3.800000 -0.101746 0
3.805000 -0.108244 0
3.810000 -0.113202 0
3.815000 -0.116871 0
3.820000 -0.118970 0
3.825000 -0.118050 0
3.830000 -0.117134 0
3.835000 -0.116222 0
3.840000 -0.115313 0
3.845000 -0.114404 0
3.850000 -0.113493 0
3.855000 -0.112570 0
3.860000 -0.111621 0
3.865000 -0.110621 0
3.870000 -0.109523 0
3.875000 -0.108253 0
3.880000 -0.106693 0
3.885000 -0.104663 0
3.890000 -0.101902 0
3.895000 -0.098055 0
3.900000 -0.092656 0
3.905000 -0.085142 0
3.910000 -0.074873 0
3.915000 -0.061202 0
3.920000 -0.043555 0
3.925000 -0.021562 0
3.930000 0.004809 0
3.935000 0.035128 0
3.940000 0.068408 0
3.945000 0.103094 0
3.950000 0.137130 0
3.955000 0.168145 0
3.960000 0.193704 0
3.965000 0.211631 0
3.970000 0.220306 1
3.975000 0.218910 0
3.980000 0.207551 0
3.985000 0.187252 0
3.990000 0.159795 0
3.995000 0.127449 0
4.000000 0.092593 0
4.005000 0.057168 0
4.010000 0.021817 0
4.015000 -0.015285 0
4.020000 -0.058959 0
4.025000 -0.114620 0
4.030000 -0.181351 0
4.035000 -0.243775 0
4.040000 -0.270502 2
4.045000 -0.222400 0
4.050000 -0.065288 0
4.055000 0.214660 0
4.060000 0.586112 0
4.065000 0.950477 0
4.070000 1.165217 3
4.075000 1.126979 0
4.080000 0.848791 0
4.085000 0.450261 0
4.090000 0.071217 0
4.095000 -0.198935 0
4.100000 -0.332083 0
4.105000 -0.342787 4
4.110000 -0.271872 0
4.115000 -0.169697 0
4.120000 -0.075422 0
4.125000 -0.004964 0
4.130000 0.044567 0
4.135000 0.082610 0
4.140000 0.116655 0
4.145000 0.150273 0
4.150000 0.184373 0
4.155000 0.218649 0
4.160000 0.252346 0
4.165000 0.284553 0
4.170000 0.314307 0
4.175000 0.340655 0
4.180000 0.362702 0
4.185000 0.379664 0
4.190000 0.390913 0
4.195000 0.396013 5
4.200000 0.394747 0
4.205000 0.387134 0
4.210000 0.373424 0
4.215000 0.354087 0
4.220000 0.329785 0
4.225000 0.301332 0
4.230000 0.269649 0
4.235000 0.235715 0
4.240000 0.200516 0
4.245000 0.164997 0
4.250000 0.130023 0
4.255000 0.096348 0
4.260000 0.064592 0
4.265000 0.035227 0
4.270000 0.008581 0
4.275000 -0.015160 0
4.280000 -0.035939 0
4.285000 -0.053804 0
4.290000 -0.068893 0
4.295000 -0.081406 0
4.300000 -0.091589 0
4.305000 -0.099710 0
4.310000 -0.106044 0
4.315000 -0.110860 0
4.320000 -0.114411 0
4.325000 -0.116430 0
4.330000 -0.115522 0
4.335000 -0.114619 0
4.340000 -0.113719 0
4.345000 -0.112822 0
4.350000 -0.111926 0
4.355000 -0.111025 0
4.360000 -0.110111 0
4.365000 -0.109168 0
4.370000 -0.108168 0
4.375000 -0.107061 0
4.380000 -0.105767 0
4.385000 -0.104156 0
4.390000 -0.102038 0
4.395000 -0.099135 0
4.400000 -0.095069 0
4.405000 -0.089357 0
4.410000 -0.081412 0
4.415000 -0.070586 0
4.420000 -0.056230 0
4.425000 -0.037796 0
4.430000 -0.014965 0
4.435000 0.012216 0
4.440000 0.043210 0
4.445000 0.076909 0
4.450000 0.111634 0
4.455000 0.145235 0
4.460000 0.175285 0
4.465000 0.199362 0
4.470000 0.215369 0
4.475000 0.221836 1
4.480000 0.218138 0
4.485000 0.204600 0
4.490000 0.182445 0
4.495000 0.153610 0
4.500000 0.120444 0
4.505000 0.085297 0
4.510000 0.049898 0
4.515000 0.014392 0
4.520000 -0.023833 0
4.525000 -0.070187 0
4.530000 -0.129300 0
4.535000 -0.197107 0
4.540000 -0.253580 0
4.545000 -0.263892 2
4.550000 -0.188700 0
4.555000 0.002601 0
4.560000 0.314193 0
4.565000 0.696595 0
4.570000 1.032515 0
4.575000 1.179747 3
4.580000 1.063223 0
4.585000 0.733300 0
4.590000 0.327433 0
4.595000 -0.023771 0
4.600000 -0.250509 0
4.605000 -0.340384 4
4.610000 -0.318435 0
4.615000 -0.231415 0
4.620000 -0.128690 0
4.625000 -0.042255 0
4.630000 0.019713 0
4.635000 0.063915 0
4.640000 0.099792 0
4.645000 0.133418 0
4.650000 0.167187 0
4.655000 0.201409 0
4.660000 0.235540 0
4.665000 0.268732 0
4.670000 0.300032 0
4.675000 0.328462 0
4.680000 0.353076 0
4.685000 0.373009 0
4.690000 0.387529 0
4.695000 0.396081 0
4.700000 0.398319 5
4.705000 0.394130 0
4.710000 0.383639 0
4.715000 0.367207 0
4.720000 0.345405 0
4.725000 0.318980 0
4.730000 0.288817 0
4.735000 0.255883 0
4.740000 0.221178 0
4.745000 0.185686 0
4.750000 0.150329 0
4.755000 0.115928 0
4.760000 0.083177 0
4.765000 0.052627 0
4.770000 0.024678 0
4.775000 -0.000417 0
4.780000 -0.022543 0
4.785000 -0.041704 0
4.790000 -0.058000 0
4.795000 -0.071612 0
4.800000 -0.082770 0
4.805000 -0.091738 0
4.810000 -0.098794 0
4.815000 -0.104213 0
4.820000 -0.108261 0
4.825000 -0.111179 0
4.830000 -0.110846 0
4.835000 -0.109967 0
4.840000 -0.109091 0
4.845000 -0.108217 0
4.850000 -0.107346 0
4.855000 -0.106471 0
4.860000 -0.105587 0
4.865000 -0.104681 0
4.870000 -0.103728 0
4.875000 -0.102687 0
4.880000 -0.101487 0
4.885000 -0.100016 0
4.890000 -0.098102 0
4.895000 -0.095491 0
4.900000 -0.091835 0
4.905000 -0.086672 0
4.910000 -0.079439 0
4.915000 -0.069489 0
4.920000 -0.056159 0
4.925000 -0.038853 0
4.930000 -0.017174 0
4.935000 0.008938 0
4.940000 0.039070 0
4.945000 0.072245 0
4.950000 0.106894 0
4.955000 0.140933 0
4.960000 0.171945 0
4.965000 0.197449 0
4.970000 0.215227 0
4.975000 0.223638 1
4.980000 0.221868 0
4.985000 0.210062 0
4.990000 0.189302 0
4.995000 0.161438 0
5.000000 0.128806 0
5.005000 0.093818 0
5.010000 0.058380 0
5.015000 0.022958 0
5.020000 -0.014634 0
5.025000 -0.059583 0
5.030000 -0.117061 0
5.035000 -0.184548 0
5.040000 -0.243852 0
5.045000 -0.261008 2
5.050000 -0.196049 0
5.055000 -0.016448 0
5.060000 0.285569 0
5.065000 0.665702 0
5.070000 1.010139 0
5.075000 1.173887 3
5.080000 1.075396 0
5.085000 0.758738 0
5.090000 0.353731 0
5.095000 -0.008824 0
5.100000 -0.253860 0
5.105000 -0.363213 4
5.110000 -0.356782 0
5.115000 -0.277509 0
5.120000 -0.174413 0
5.125000 -0.082903 0
5.130000 -0.015453 0
5.135000 0.032298 0
5.140000 0.069698 0
5.145000 0.103678 0
5.150000 0.137407 0
5.155000 0.171619 0
5.160000 0.205958 0
5.165000 0.239668 0
5.170000 0.271849 0
5.175000 0.301558 0
5.180000 0.327860 0
5.185000 0.349883 0
5.190000 0.366859 0
5.195000 0.378174 0
5.200000 0.383402 5
5.205000 0.382327 0
5.210000 0.374963 0
5.215000 0.361550 0
5.220000 0.342541 0
5.225000 0.318576 0
5.230000 0.290446 0
5.235000 0.259050 0
5.240000 0.225343 0
5.245000 0.190293 0
5.250000 0.154835 0
5.255000 0.119825 0
5.260000 0.086019 0
5.265000 0.054039 0
5.270000 0.024371 0
5.275000 -0.002644 0
5.280000 -0.026803 0
5.285000 -0.048029 0
5.290000 -0.066354 0
5.295000 -0.081898 0
5.300000 -0.094846 0
5.305000 -0.105433 0
5.310000 -0.113918 0
5.315000 -0.120571 0
5.320000 -0.125658 0
5.325000 -0.129431 0
5.330000 -0.132122 0
5.335000 -0.131668 0
5.340000 -0.130685 0
5.345000 -0.129705 0
5.350000 -0.128729 0
5.355000 -0.127755 0
5.360000 -0.126778 0
5.365000 -0.125793 0
5.370000 -0.124786 0
5.375000 -0.123735 0
5.380000 -0.122599 0
5.385000 -0.121311 0
5.390000 -0.119767 0
5.395000 -0.117802 0
5.400000 -0.115182 0
5.405000 -0.111578 0
5.410000 -0.106558 0
5.415000 -0.099587 0
5.420000 -0.090051 0
5.425000 -0.077302 0
5.430000 -0.060747 0
5.435000 -0.039949 0
5.440000 -0.014769 0
5.445000 0.014513 0
5.450000 0.047091 0
5.455000 0.081595 0
5.460000 0.116136 0
5.465000 0.148445 0
5.470000 0.176107 0
5.475000 0.196855 0
5.480000 0.208873 0
5.485000 0.211063 1
5.490000 0.203207 0
5.495000 0.186008 0
5.500000 0.160979 0
5.505000 0.130224 0
5.510000 0.096103 0
5.515000 0.060776 0
5.520000 0.025502 0
5.525000 -0.010427 0
5.530000 -0.050654 0
5.535000 -0.100870 0
5.540000 -0.163813 0
5.545000 -0.231018 0
5.550000 -0.277716 2
5.555000 -0.267103 0
5.560000 -0.161683 0
5.565000 0.063493 0
5.570000 0.401208 0
5.575000 0.785389 0
5.580000 1.088078 0
5.585000 1.176893 3
5.590000 1.003999 0
5.595000 0.644099 0
5.600000 0.240875 0
5.605000 -0.086399 0
5.610000 -0.282275 0
5.615000 -0.344243 4
5.620000 -0.303446 0
5.625000 -0.209060 0
5.630000 -0.108037 0
5.635000 -0.027008 0
5.640000 0.030226 0
5.645000 0.071868 0
5.650000 0.106881 0
5.655000 0.140433 0
5.660000 0.174320 0
5.665000 0.208586 0
5.670000 0.242591 0
5.675000 0.275455 0
5.680000 0.306216 0
5.685000 0.333898 0
5.690000 0.357568 0
5.695000 0.376388 0
5.700000 0.389661 0
5.705000 0.396874 0
5.710000 0.397730 5
5.715000 0.392167 0
5.720000 0.380364 0
5.725000 0.362726 0
5.730000 0.339867 0
5.735000 0.312566 0
5.740000 0.281729 0
5.745000 0.248334 0
5.750000 0.213383 0
5.755000 0.177847 0
5.760000 0.142629 0
5.765000 0.108526 0
5.770000 0.076202 0
5.775000 0.046175 0
5.780000 0.018814 0
5.785000 -0.005660 0
5.790000 -0.027156 0
5.795000 -0.045702 0
5.800000 -0.061417 0
5.805000 -0.074492 0
5.810000 -0.085167 0
5.815000 -0.093711 0
5.820000 -0.100401 0
5.825000 -0.105512 0
5.830000 -0.109304 0
5.835000 -0.111492 0
5.840000 -0.110609 0
5.845000 -0.109730 0
5.850000 -0.108855 0
5.855000 -0.107983 0
5.860000 -0.107111 0
5.865000 -0.106236 0
5.870000 -0.105349 0
5.875000 -0.104436 0
5.880000 -0.103469 0
5.885000 -0.102403 0
5.890000 -0.101159 0
5.895000 -0.099614 0
5.900000 -0.097581 0
5.905000 -0.094790 0
5.910000 -0.090869 0
5.915000 -0.085336 0
5.920000 -0.077607 0
5.925000 -0.067028 0
5.930000 -0.052939 0
5.935000 -0.034776 0
5.940000 -0.012197 0
5.945000 0.014771 0
5.950000 0.045611 0
5.955000 0.079224 0
5.960000 0.113931 0
5.965000 0.147565 0
5.970000 0.177674 0
5.975000 0.201803 0
5.980000 0.217827 0
5.985000 0.224253 1
5.990000 0.220453 0
5.995000 0.206763 0
6.000000 0.184433 0
6.005000 0.155435 0
6.010000 0.122154 0
6.015000 0.086956 0
6.020000 0.051550 0
6.025000 0.015977 0
6.030000 -0.022573 0
6.035000 -0.069671 0
6.040000 -0.129700 0
6.045000 -0.197583 0
6.050000 -0.251726 0
6.055000 -0.256041 2
6.060000 -0.170950 0
6.065000 0.032890 0
6.070000 0.355558 0
6.075000 0.739630 0
6.080000 1.060092 0
6.085000 1.176110 3
6.090000 1.028853 0
6.095000 0.685379 0
6.100000 0.279437 0
6.105000 -0.067939 0
6.110000 -0.293094 0
6.115000 -0.384906 4
6.120000 -0.366698 0
6.125000 -0.282267 0
6.130000 -0.178992 0
6.135000 -0.089388 0
6.140000 -0.023724 0
6.145000 0.023090 0
6.150000 0.060203 0
6.155000 0.094181 0
6.160000 0.127976 0
6.165000 0.162248 0
6.170000 0.196634 0
6.175000 0.230391 0
6.180000 0.262641 0
6.185000 0.292460 0
6.190000 0.318934 0
6.195000 0.341207 0
6.200000 0.358525 0
6.205000 0.370277 0
6.210000 0.376033 5
6.215000 0.375566 0
6.220000 0.368870 0
6.225000 0.356157 0
6.230000 0.337847 0
6.235000 0.314547 0
6.240000 0.287012 0
6.245000 0.256108 0
6.250000 0.222765 0
6.255000 0.187930 0
6.260000 0.152526 0
6.265000 0.117407 0
6.270000 0.083334 0
6.275000 0.050945 0
6.280000 0.020746 0
6.285000 -0.006898 0
6.290000 -0.031756 0
6.295000 -0.053721 0
6.300000 -0.072798 0
6.305000 -0.089082 0
6.310000 -0.102740 0
6.315000 -0.113986 0
6.320000 -0.123070 0
6.325000 -0.130253 0
6.330000 -0.135798 0
6.335000 -0.139958 0
6.340000 -0.142967 0
6.345000 -0.142516 0
6.350000 -0.141478 0
6.355000 -0.140445 0
6.360000 -0.139417 0
6.365000 -0.138390 0
6.370000 -0.137365 0
6.375000 -0.136334 0
6.380000 -0.135289 0
6.385000 -0.134212 0
6.390000 -0.133074 0
6.395000 -0.131823 0
6.400000 -0.130376 0
6.405000 -0.128605 0
6.410000 -0.126319 0
6.415000 -0.123246 0
6.420000 -0.119021 0
6.425000 -0.113173 0
6.430000 -0.105144 0
6.435000 -0.094311 0
6.440000 -0.080051 0
6.445000 -0.061830 0
6.450000 -0.039320 0
6.455000 -0.012526 0
6.460000 0.018096 0
6.465000 0.051563 0
6.470000 0.086349 0
6.475000 0.120463 0
6.480000 0.151611 0
6.485000 0.177444 0
6.490000 0.195847 0
6.495000 0.205227 1
6.500000 0.204738 0
6.505000 0.194412 0
6.510000 0.175152 0
6.515000 0.148607 0
6.520000 0.116925 0
6.525000 0.082416 0
6.530000 0.047077 0
6.535000 0.011849 0
6.540000 -0.024447 0
6.545000 -0.065887 0
6.550000 -0.118033 0
6.555000 -0.182437 0
6.560000 -0.248677 0
6.565000 -0.290510 2
6.570000 -0.271193 0
6.575000 -0.154716 0
6.580000 0.081287 0
6.585000 0.425829 0
6.590000 0.809222 0
6.595000 1.103540 0
6.600000 1.181434 3
6.605000 1.000936 0
6.610000 0.638476 0
6.615000 0.235444 0
6.620000 -0.091763 0
6.625000 -0.288897 0
6.630000 -0.353168 4
6.635000 -0.314645 0
6.640000 -0.221313 0
6.645000 -0.119725 0
6.650000 -0.037181 0
6.655000 0.021524 0
6.660000 0.064056 0
6.665000 0.099409 0
6.670000 0.133002 0
6.675000 0.166849 0
6.680000 0.201113 0
6.685000 0.235215 0
6.690000 0.268309 0
6.695000 0.299460 0
6.700000 0.327709 0
6.705000 0.352132 0
6.710000 0.371888 0
6.715000 0.386266 0
6.720000 0.394728 0
6.725000 0.396937 5
6.730000 0.392785 0
6.735000 0.382394 0
6.740000 0.366114 0
6.745000 0.344500 0
6.750000 0.318279 0
6.755000 0.288312 0
6.760000 0.255544 0
6.765000 0.220955 0
6.770000 0.185510 0
6.775000 0.150119 0
6.780000 0.115598 0
6.785000 0.082641 0
6.790000 0.051804 0
6.795000 0.023500 0
6.800000 -0.002007 0
6.805000 -0.024584 0
6.810000 -0.044216 0
6.815000 -0.060989 0
6.820000 -0.075067 0
6.825000 -0.086668 0
6.830000 -0.096046 0
6.835000 -0.103471 0
6.840000 -0.109216 0
6.845000 -0.113542 0
6.850000 -0.116693 0
6.855000 -0.116373 0
6.860000 -0.115465 0
6.865000 -0.114562 0
6.870000 -0.113662 0
6.875000 -0.112765 0
6.880000 -0.111866 0
6.885000 -0.110961 0
6.890000 -0.110039 0
6.895000 -0.109080 0
6.900000 -0.108052 0
6.905000 -0.106896 0
6.910000 -0.105519 0
6.915000 -0.103778 0
6.920000 -0.101456 0
6.925000 -0.098252 0
6.930000 -0.093759 0
6.935000 -0.087466 0
6.940000 -0.078769 0
6.945000 -0.067016 0
6.950000 -0.051581 0
6.955000 -0.031969 0
6.960000 -0.007948 0
6.965000 0.020316 0
6.970000 0.052143 0
6.975000 0.086285 0
6.980000 0.120943 0
6.985000 0.153890 0
6.990000 0.182692 0
6.995000 0.204995 0
7.000000 0.218845 0
7.005000 0.222963 1
7.010000 0.216948 0
7.015000 0.201332 0
7.020000 0.177512 0
7.025000 0.147527 0
7.030000 0.113749 0
7.035000 0.078438 0
7.040000 0.043078 0
7.045000 0.007340 0
7.050000 -0.031999 0
7.055000 -0.080590 0
7.060000 -0.142073 0
7.065000 -0.209821 0
7.070000 -0.260837 2
7.075000 -0.258825 0
7.080000 -0.165294 0
7.085000 0.047120 0
7.090000 0.375654 0
7.095000 0.760073 0
7.100000 1.075255 0
7.105000 1.184152 3
7.110000 1.032071 0
7.115000 0.686855 0
7.120000 0.280854 0
7.125000 -0.066765 0
7.130000 -0.293150 0
7.135000 -0.386990 4
7.140000 -0.370866 0
7.145000 -0.287679 0
7.150000 -0.184361 0
7.155000 -0.093758 0
7.160000 -0.026898 0
7.165000 0.020763 0
7.170000 0.058265 0
7.175000 0.092330 0
7.180000 0.126089 0
7.185000 0.160320 0
7.190000 0.194718 0
7.195000 0.228570 0
7.200000 0.261020 0
7.205000 0.291159 0
7.210000 0.318082 0
7.215000 0.340936 0
7.220000 0.358962 0
7.225000 0.371536 0
7.230000 0.378207 0
7.235000 0.378720 5
7.240000 0.373034 0
7.245000 0.361323 0
7.250000 0.343969 0
7.255000 0.321537 0
7.260000 0.294748 0
7.265000 0.264439 0
7.270000 0.231517 0
7.275000 0.196917 0
7.280000 0.161556 0
7.285000 0.126296 0
7.290000 0.091909 0
7.295000 0.059055 0
7.300000 0.028264 0
7.305000 -0.000067 0
7.310000 -0.025678 0
7.315000 -0.048433 0
7.320000 -0.068309 0
7.325000 -0.085376 0
7.330000 -0.099781 0
7.335000 -0.111723 0
7.340000 -0.121441 0
7.345000 -0.129189 0
7.350000 -0.135229 0
7.355000 -0.139812 0
7.360000 -0.143178 0
7.365000 -0.145045 0
7.370000 -0.143995 0
7.375000 -0.142950 0
7.380000 -0.141909 0
7.385000 -0.140871 0
7.390000 -0.139836 0
7.395000 -0.138797 0
7.400000 -0.137749 0
7.405000 -0.136678 0
7.410000 -0.135559 0
7.415000 -0.134353 0
7.420000 -0.132991 0
7.425000 -0.131369 0
7.430000 -0.129327 0
7.435000 -0.126633 0
7.440000 -0.122969 0
7.445000 -0.117919 0
7.450000 -0.110970 0
7.455000 -0.101531 0
7.460000 -0.088979 0
7.465000 -0.072732 0
7.470000 -0.052354 0
7.475000 -0.027671 0
7.480000 0.001103 0
7.485000 0.033268 0
7.490000 0.067592 0
7.495000 0.102335 0
7.500000 0.135369 0
7.505000 0.164373 0
7.510000 0.187100 0
7.515000 0.201663 0
7.520000 0.206795 1
7.525000 0.202031 0
7.530000 0.187779 0
7.535000 0.165263 0
7.540000 0.136347 0
7.545000 0.103261 0
7.550000 0.068226 0
7.555000 0.032911 0
7.560000 -0.002425 0
7.565000 -0.040002 0
7.570000 -0.084738 0
7.575000 -0.141536 0
7.580000 -0.208581 0
7.585000 -0.270139 0
7.590000 -0.295747 2
7.595000 -0.248077 0
7.600000 -0.094482 0
7.605000 0.179190 0
7.610000 0.546326 0
7.615000 0.918109 0
7.620000 1.159802 0
7.625000 1.162854 3
7.630000 0.920426 0
7.635000 0.533330 0
7.640000 0.140474 0
7.645000 -0.158608 0
7.650000 -0.324697 0
7.655000 -0.363687 4
7.660000 -0.309965 0
7.665000 -0.211824 0
7.670000 -0.112243 0
7.675000 -0.033737 0
7.680000 0.021902 0
7.685000 0.062971 0
7.690000 0.097905 0
7.695000 0.131500 0
7.700000 0.165426 0
7.705000 0.199729 0
7.710000 0.233804 0
7.715000 0.266817 0
7.720000 0.297848 0
7.725000 0.325964 0
7.730000 0.350265 0
7.735000 0.369935 0
7.740000 0.384281 0
7.745000 0.392779 0
7.750000 0.395102 5
7.755000 0.391140 0
7.760000 0.381007 0
7.765000 0.365035 0
7.770000 0.343756 0
7.775000 0.317871 0
7.780000 0.288213 0
7.785000 0.255698 0
7.790000 0.221283 0
7.795000 0.185912 0
7.800000 0.150485 0
7.805000 0.115811 0
7.810000 0.082586 0
7.815000 0.051377 0
7.820000 0.022609 0
7.825000 -0.003433 0
7.830000 -0.026595 0
7.835000 -0.046841 0
7.840000 -0.064235 0
7.845000 -0.078920 0
7.850000 -0.091099 0
7.855000 -0.101012 0
7.860000 -0.108922 0
7.865000 -0.115095 0
7.870000 -0.119790 0
7.875000 -0.123252 0
7.880000 -0.125207 0
7.885000 -0.124256 0
7.890000 -0.123309 0
7.895000 -0.122366 0
7.900000 -0.121426 0
7.905000 -0.120486 0
7.910000 -0.119544 0
7.915000 -0.118589 0
7.920000 -0.117609 0
7.925000 -0.116576 0
7.930000 -0.115447 0
7.935000 -0.114147 0
7.940000 -0.112561 0
7.945000 -0.110514 0
7.950000 -0.107755 0
7.955000 -0.103939 0
7.960000 -0.098619 0
7.965000 -0.091250 0
7.970000 -0.081212 0
7.975000 -0.067870 0
7.980000 -0.050655 0
7.985000 -0.029177 0
7.990000 -0.003357 0
7.995000 0.026451 0
8.000000 0.059369 0
8.005000 0.093965 0
8.010000 0.128309 0
8.015000 0.160127 0
8.020000 0.187035 0
8.025000 0.206830 0
8.030000 0.217790 0
8.035000 0.218915 1
8.040000 0.210086 0
8.045000 0.192078 0
8.050000 0.166449 0
8.055000 0.135313 0
8.060000 0.101004 0
8.065000 0.065621 0
8.070000 0.030320 0
8.075000 -0.005747 0
8.080000 -0.046331 0
8.085000 -0.097071 0
8.090000 -0.160410 0
8.095000 -0.227499 0
8.100000 -0.273444 2
8.105000 -0.261738 0
8.110000 -0.155413 0
8.115000 0.070025 0
8.120000 0.407383 0
8.125000 0.791672 0
8.130000 1.096865 0
8.135000 1.191402 3
8.140000 1.027297 0
8.145000 0.675505 0
8.150000 0.269990 0
8.155000 -0.072138 0
8.160000 -0.291050 0
8.165000 -0.377733 4
8.170000 -0.356365 0
8.175000 -0.270733 0
8.180000 -0.167525 0
8.185000 -0.078387 0
8.190000 -0.013083 0
8.195000 0.033565 0
8.200000 0.070610 0
8.205000 0.104538 0
8.210000 0.138276 0
8.215000 0.172488 0
8.220000 0.206825 0
8.225000 0.240554 0
8.230000 0.272808 0
8.235000 0.302676 0
8.240000 0.329252 0
8.245000 0.351686 0
8.250000 0.369226 0
8.255000 0.381260 0
8.260000 0.387351 5
8.265000 0.387263 0
8.270000 0.380973 0
8.275000 0.368675 0
8.280000 0.350771 0
8.285000 0.327844 0
8.290000 0.300630 0
8.295000 0.269976 0
8.300000 0.236799 0
8.305000 0.202036 0
8.310000 0.166603 0
8.315000 0.131357 0
8.320000 0.097061 0
8.325000 0.064364 0
8.330000 0.033784 0
8.335000 0.005703 0
8.340000 -0.019632 0
8.345000 -0.042098 0
8.350000 -0.061685 0
8.355000 -0.078472 0
8.360000 -0.092613 0
8.365000 -0.104316 0
8.370000 -0.113820 0
8.375000 -0.121385 0
8.380000 -0.127270 0
8.385000 -0.131728 0
8.390000 -0.134995 0
8.395000 -0.136805 0
8.400000 -0.135796 0
8.405000 -0.134792 0
8.410000 -0.133791 0
8.415000 -0.132794 0
8.420000 -0.131798 0
8.425000 -0.130798 0
8.430000 -0.129787 0
8.435000 -0.128749 0
8.440000 -0.127660 0
8.445000 -0.126474 0
8.450000 -0.125120 0
8.455000 -0.123485 0
8.460000 -0.121398 0
8.465000 -0.118616 0
8.470000 -0.114804 0
8.475000 -0.109530 0
8.480000 -0.102265 0
8.485000 -0.092407 0
8.490000 -0.079331 0
8.495000 -0.062471 0
8.500000 -0.041422 0
8.505000 -0.016068 0
8.510000 0.013303 0
8.515000 0.045900 0
8.520000 0.080398 0
8.525000 0.114973 0
8.530000 0.147439 0
8.535000 0.175462 0
8.540000 0.196830 0
8.545000 0.209744 0
8.550000 0.213065 1
8.555000 0.206484 0
8.560000 0.190567 0
8.565000 0.166677 0
8.570000 0.136774 0
8.575000 0.103126 0
8.580000 0.067906 0
8.585000 0.032597 0
8.590000 -0.002941 0
8.595000 -0.041497 0
8.600000 -0.088346 0
8.605000 -0.147712 0
8.610000 -0.215468 0
8.615000 -0.272643 0
8.620000 -0.286442 2
8.625000 -0.219418 0
8.630000 -0.041306 0
8.635000 0.255799 0
8.640000 0.633391 0
8.645000 0.989391 0
8.650000 1.186794 3
8.655000 1.133312 0
8.660000 0.848320 0
8.665000 0.448950 0
8.670000 0.069047 0
8.675000 -0.205248 0
8.680000 -0.345559 0
8.685000 -0.364172 4
8.690000 -0.298816 0
8.695000 -0.197766 0
8.700000 -0.100745 0
8.705000 -0.026180 0
8.710000 0.026591 0
8.715000 0.066302 0
8.720000 0.100850 0
8.725000 0.134449 0
8.730000 0.168450 0
8.735000 0.202770 0
8.740000 0.236772 0
8.745000 0.269615 0
8.750000 0.300387 0
8.755000 0.328166 0
8.760000 0.352071 0
8.765000 0.371304 0
8.770000 0.385195 0
8.775000 0.393241 0
8.780000 0.395134 5
8.785000 0.390781 0
8.790000 0.380307 0
8.795000 0.364054 0
8.800000 0.342557 0
8.805000 0.316514 0
8.810000 0.286752 0
8.815000 0.254179 0
8.820000 0.219739 0
8.825000 0.184368 0
8.830000 0.148949 0
8.835000 0.114283 0
8.840000 0.081058 0
8.845000 0.049834 0
8.850000 0.021031 0
8.855000 -0.005065 0
8.860000 -0.028300 0
8.865000 -0.048636 0
8.870000 -0.066132 0
8.875000 -0.080928 0
8.880000 -0.093222 0
8.885000 -0.103250 0
8.890000 -0.111269 0
8.895000 -0.117544 0
8.900000 -0.122331 0
8.905000 -0.125873 0
8.910000 -0.127883 0
8.915000 -0.126919 0
8.920000 -0.125959 0
8.925000 -0.125003 0
8.930000 -0.124050 0
8.935000 -0.123098 0
8.940000 -0.122144 0
8.945000 -0.121179 0
8.950000 -0.120192 0
8.955000 -0.119157 0
8.960000 -0.118034 0
8.965000 -0.116755 0
8.970000 -0.115214 0
8.975000 -0.113249 0
8.980000 -0.110626 0
8.985000 -0.107022 0
8.990000 -0.102012 0
8.995000 -0.095076 0
9.000000 -0.085613 0
9.005000 -0.072994 0
9.010000 -0.056632 0
9.015000 -0.036096 0
9.020000 -0.011229 0
9.025000 0.017725 0
9.030000 0.050023 0
9.035000 0.084378 0
9.040000 0.118993 0
9.045000 0.151688 0
9.050000 0.180107 0
9.055000 0.202001 0
9.060000 0.215511 0
9.065000 0.219439 1
9.070000 0.213414 0
9.075000 0.197954 0
9.080000 0.174395 0
9.085000 0.144691 0
9.090000 0.111121 0
9.095000 0.075894 0
9.100000 0.040544 0
9.105000 0.005001 0
9.110000 -0.033467 0
9.115000 -0.080145 0
9.120000 -0.139365 0
9.125000 -0.207135 0
9.130000 -0.264471 0
9.135000 -0.278343 2
9.140000 -0.210974 0
9.145000 -0.031888 0
9.150000 0.266585 0
9.155000 0.644794 0
9.160000 0.998710 0
9.165000 1.190196 3
9.170000 1.127707 0
9.175000 0.835226 0
9.180000 0.433964 0
9.185000 0.058340 0
9.190000 -0.207735 0
9.195000 -0.338643 0
9.200000 -0.349109 4
9.205000 -0.278854 0
9.210000 -0.176855 0
9.215000 -0.081711 0
9.220000 -0.009833 0
9.225000 0.040897 0
9.230000 0.079576 0
9.235000 0.113797 0
9.240000 0.147376 0
9.245000 0.181407 0
9.250000 0.215689 0
9.255000 0.249527 0
9.260000 0.282051 0
9.265000 0.312330 0
9.270000 0.339433 0
9.275000 0.362477 0
9.280000 0.380673 0
9.285000 0.393373 0
9.290000 0.400103 0
9.295000 0.400597 5
9.300000 0.394807 0
9.305000 0.382912 0
9.310000 0.365307 0
9.315000 0.342577 0
9.320000 0.315467 0
9.325000 0.284841 0
9.330000 0.251635 0
9.335000 0.216810 0
9.340000 0.181302 0
9.345000 0.145990 0
9.350000 0.111653 0
9.355000 0.078953 0
9.360000 0.048414 0
9.365000 0.020421 0
9.370000 -0.004783 0
9.375000 -0.027080 0
9.380000 -0.046467 0
9.385000 -0.063035 0
9.390000 -0.076949 0
9.395000 -0.088425 0
9.400000 -0.097714 0
9.405000 -0.105079 0
9.410000 -0.110789 0
9.415000 -0.115098 0
9.420000 -0.118245 0
9.425000 -0.117918 0
9.430000 -0.117003 0
9.435000 -0.116092 0
9.440000 -0.115185 0
9.445000 -0.114280 0
9.450000 -0.113374 0
9.455000 -0.112463 0
9.460000 -0.111536 0
9.465000 -0.110575 0
9.470000 -0.109550 0
9.475000 -0.108407 0
9.480000 -0.107061 0
9.485000 -0.105376 0
9.490000 -0.103156 0
9.495000 -0.100117 0
9.500000 -0.095881 0
9.505000 -0.089964 0
9.510000 -0.081790 0
9.515000 -0.070727 0
9.520000 -0.056147 0
9.525000 -0.037528 0
9.530000 -0.014572 0
9.535000 0.012664 0
9.540000 0.043651 0
9.545000 0.077315 0
9.550000 0.112034 0
9.555000 0.145732 0
9.560000 0.176059 0
9.565000 0.200654 0
9.570000 0.217447 0
9.575000 0.224945 1
9.580000 0.222449 0
9.585000 0.210164 0
9.590000 0.189169 0
9.595000 0.161259 0
9.600000 0.128676 0
9.605000 0.093736 0
9.610000 0.058301 0
9.615000 0.022932 0
9.620000 -0.014231 0
9.625000 -0.057946 0
9.630000 -0.113514 0
9.635000 -0.180140 0
9.640000 -0.243105 0
9.645000 -0.272091 2
9.650000 -0.228888 0
9.655000 -0.079473 0
9.660000 0.191610 0
9.665000 0.558110 0
9.670000 0.929326 0
9.675000 1.166997 3
9.680000 1.161322 0
9.685000 0.910664 0
9.690000 0.520941 0
9.695000 0.129926 0
9.700000 -0.165403 0
9.705000 -0.327739 0
9.710000 -0.363926 4
9.715000 -0.308692 0
9.720000 -0.210163 0
9.725000 -0.110799 0
9.730000 -0.032613 0
9.735000 0.022828 0
9.740000 0.063823 0
9.745000 0.098740 0
9.750000 0.132330 0
9.755000 0.166251 0
9.760000 0.200548 0
9.765000 0.234623 0
9.770000 0.267646 0
9.775000 0.298704 0
9.780000 0.326869 0
9.785000 0.351246 0
9.790000 0.371019 0
9.795000 0.385499 0
9.800000 0.394160 0
9.805000 0.396671 5
9.810000 0.392915 0
9.815000 0.382997 0
9.820000 0.367242 0
9.825000 0.346170 0
9.830000 0.320473 0
9.835000 0.290971 0
9.840000 0.258575 0
9.845000 0.224233 0
9.850000 0.188888 0
9.855000 0.153435 0
9.860000 0.118687 0
9.865000 0.085344 0
9.870000 0.053978 0
9.875000 0.025019 0
9.880000 -0.001236 0
9.885000 -0.024627 0
9.890000 -0.045109 0
9.895000 -0.062738 0
9.900000 -0.077652 0
9.905000 -0.090047 0
9.910000 -0.100160 0
9.915000 -0.108250 0
9.920000 -0.114582 0
9.925000 -0.119416 0
9.930000 -0.122996 0
9.935000 -0.125034 0
9.940000 -0.124084 0
9.945000 -0.123138 0
9.950000 -0.122196 0
9.955000 -0.121257 0
9.960000 -0.120319 0
9.965000 -0.119379 0
9.970000 -0.118428 0
9.975000 -0.117454 0
9.980000 -0.116432 0
9.985000 -0.115320 0
9.990000 -0.114052 0
9.995000 -0.112517 0
10.000000 -0.110553 0
10.005000 -0.107920 0
10.010000 -0.104293 0
10.015000 -0.099240 0
10.020000 -0.092234 0
10.025000 -0.082670 0
10.030000 -0.069912 0
10.035000 -0.053376 0
10.040000 -0.032638 0
10.045000 -0.007556 0
10.050000 0.021599 0
10.055000 0.054049 0
10.060000 0.088468 0
10.065000 0.123018 0
10.070000 0.155485 0
10.075000 0.183499 0
10.080000 0.204812 0
10.085000 0.217598 0
10.090000 0.220709 1
10.095000 0.213845 0
10.100000 0.197602 0
10.105000 0.173389 0
10.110000 0.143213 0
10.115000 0.109382 0
10.120000 0.074083 0
10.125000 0.038745 0
10.130000 0.003062 0
10.135000 -0.036035 0
10.140000 -0.084010 0
10.145000 -0.144688 0
10.150000 -0.212542 0
10.155000 -0.266524 0
10.160000 -0.272198 2
10.165000 -0.191800 0
10.170000 0.003404 0
10.175000 0.316385 0
10.180000 0.698800 0
10.185000 1.037923 0
10.190000 1.195994 3
10.195000 1.092681 0
10.200000 0.771163 0
10.205000 0.365573 0
10.210000 0.008062 0
10.215000 -0.228009 0
10.220000 -0.327196 4
10.225000 -0.312248 0
10.230000 -0.228516 0
10.235000 -0.125588 0
10.240000 -0.037144 0
10.245000 0.026848 0
10.250000 0.072249 0
10.255000 0.108550 0
10.260000 0.142184 0
10.265000 0.175837 0
10.270000 0.209965 0
10.275000 0.244084 0
10.280000 0.277375 0
10.285000 0.308900 0
10.290000 0.337688 0
10.295000 0.362794 0
10.300000 0.383347 0
10.305000 0.398600 0
10.310000 0.407976 0
10.315000 0.411100 5
10.320000 0.407824 0
10.325000 0.398237 0
10.330000 0.382663 0
10.335000 0.361634 0
10.340000 0.335869 0
10.345000 0.306223 0
10.350000 0.273646 0
10.355000 0.239129 0
10.360000 0.203654 0
10.365000 0.168149 0
10.370000 0.133449 0
10.375000 0.100271 0
10.380000 0.069188 0
10.385000 0.040628 0
10.390000 0.014871 0
10.395000 -0.007943 0
10.400000 -0.027792 0
10.405000 -0.044758 0
10.410000 -0.059005 0
10.415000 -0.070752 0
10.420000 -0.080254 0
10.425000 -0.087786 0
10.430000 -0.093624 0
10.435000 -0.098032 0
10.440000 -0.101256 0
10.445000 -0.101012 0
10.450000 -0.100182 0
10.455000 -0.099355 0
10.460000 -0.098531 0
10.465000 -0.097708 0
10.470000 -0.096884 0
10.475000 -0.096053 0
10.480000 -0.095204 0
10.485000 -0.094316 0
10.490000 -0.093355 0
10.495000 -0.092259 0
10.500000 -0.090932 0
10.505000 -0.089222 0
10.510000 -0.086905 0
10.515000 -0.083665 0
10.520000 -0.079079 0
10.525000 -0.072620 0
10.530000 -0.063668 0
10.535000 -0.051560 0
10.540000 -0.035672 0
10.545000 -0.015531 0
10.550000 0.009051 0
10.555000 0.037837 0
10.560000 0.070057 0
10.565000 0.104355 0
10.570000 0.138827 0
10.575000 0.171166 0
10.580000 0.198899 0
10.585000 0.219693 0
10.590000 0.231676 0
10.595000 0.233713 1
10.600000 0.225587 0
10.605000 0.208029 0
10.610000 0.182611 0
10.615000 0.151504 0
10.620000 0.117128 0
10.625000 0.081661 0
10.630000 0.046276 0
10.635000 0.010001 0
10.640000 -0.031206 0
10.645000 -0.083163 0
10.650000 -0.147677 0
10.655000 -0.213866 0
10.660000 -0.253960 2
10.665000 -0.229281 0
10.670000 -0.102659 0
10.675000 0.147085 0
10.680000 0.502456 0
10.685000 0.880741 0
10.690000 1.142571 0
10.695000 1.165634 3
10.700000 0.935566 0
10.705000 0.552608 0
10.710000 0.157343 0
10.715000 -0.146866 0
10.720000 -0.318003 0
10.725000 -0.360653 4
10.730000 -0.308832 0
10.735000 -0.211172 0
10.740000 -0.111392 0
10.745000 -0.032623 0
10.750000 0.023125 0
10.755000 0.064198 0
10.760000 0.099115 0
10.765000 0.132705 0
10.770000 0.166635 0
10.775000 0.200938 0
10.780000 0.234995 0
10.785000 0.267960 0
10.790000 0.298903 0
10.795000 0.326881 0
10.800000 0.350987 0
10.805000 0.370400 0
10.810000 0.384431 0
10.815000 0.392558 0
10.820000 0.394465 5
10.825000 0.390055 0
10.830000 0.379459 0
10.835000 0.363030 0
10.840000 0.341319 0
10.845000 0.315050 0
10.850000 0.285071 0
10.855000 0.252316 0
10.860000 0.217750 0
10.865000 0.182328 0
10.870000 0.146947 0
10.875000 0.112413 0
10.880000 0.079415 0
10.885000 0.048507 0
10.890000 0.020098 0
10.895000 -0.005541 0
10.900000 -0.028273 0
10.905000 -0.048078 0
10.910000 -0.065035 0
10.915000 -0.079300 0
10.920000 -0.091084 0
10.925000 -0.100636 0
10.930000 -0.108221 0
10.935000 -0.114110 0
10.940000 -0.118561 0
10.945000 -0.121817 0
10.950000 -0.123628 0
10.955000 -0.122685 0
10.960000 -0.121746 0
10.965000 -0.120811 0
10.970000 -0.119878 0
10.975000 -0.118945 0
10.980000 -0.118007 0
10.985000 -0.117054 0
10.990000 -0.116071 0
10.995000 -0.115026 0
11.000000 -0.113868 0
11.005000 -0.112513 0
11.010000 -0.110831 0
11.015000 -0.108627 0
11.020000 -0.105623 0
11.025000 -0.101441 0
11.030000 -0.095603 0
11.035000 -0.087530 0
11.040000 -0.076587 0
11.045000 -0.062141 0
11.050000 -0.043657 0
11.055000 -0.020825 0
11.060000 0.006313 0
11.065000 0.037240 0
11.070000 0.070887 0
11.075000 0.105632 0
11.080000 0.139390 0
11.085000 0.169795 0
11.090000 0.194466 0
11.095000 0.211314 0
11.100000 0.218832 1
11.105000 0.216316 0
11.110000 0.203978 0
11.115000 0.182912 0
11.120000 0.154934 0
11.125000 0.122308 0
11.130000 0.087365 0
11.135000 0.051960 0
11.140000 0.016603 0
11.145000 -0.020677 0
11.150000 -0.064759 0
11.155000 -0.120890 0
11.160000 -0.187786 0
11.165000 -0.249810 0
11.170000 -0.275737 2
11.175000 -0.226971 0
11.180000 -0.069897 0
11.185000 0.209164 0
11.190000 0.579847 0
11.195000 0.945988 0
11.200000 1.167230 3
11.205000 1.134786 0
11.210000 0.858061 0
11.215000 0.459303 0
11.220000 0.081972 0
11.225000 -0.183396 0
11.230000 -0.309760 0
11.235000 -0.313795 4
11.240000 -0.238704 0
11.245000 -0.136088 0
11.250000 -0.044209 0
11.255000 0.023138 0
11.260000 0.070407 0
11.265000 0.107361 0
11.270000 0.141088 0
11.275000 0.174687 0
11.280000 0.208778 0
11.285000 0.242916 0
11.290000 0.276275 0
11.295000 0.307898 0
11.300000 0.336791 0
11.305000 0.361985 0
11.310000 0.382583 0
11.315000 0.397820 0
11.320000 0.407104 0
11.325000 0.410055 5
11.330000 0.406527 0
11.335000 0.396622 0
11.340000 0.380681 0
11.345000 0.359265 0
11.350000 0.333120 0
11.355000 0.303133 0
11.360000 0.270285 0
11.365000 0.235590 0
11.370000 0.200052 0
11.375000 0.164609 0
11.380000 0.130101 0
11.385000 0.097239 0
11.390000 0.066586 0
11.395000 0.038550 0
11.400000 0.013390 0
11.405000 -0.008778 0
11.410000 -0.027957 0
11.415000 -0.044253 0
11.420000 -0.057849 0
11.425000 -0.068981 0
11.430000 -0.077918 0
11.435000 -0.084942 0
11.440000 -0.090334 0
11.445000 -0.094361 0
11.450000 -0.097266 0
11.455000 -0.096990 0
11.460000 -0.096179 0
11.465000 -0.095372 0
11.470000 -0.094567 0
11.475000 -0.093763 0
11.480000 -0.092955 0
11.485000 -0.092136 0
11.490000 -0.091291 0
11.495000 -0.090393 0
11.500000 -0.089397 0
11.505000 -0.088226 0
11.510000 -0.086754 0
11.515000 -0.084795 0
11.520000 -0.082074 0
11.525000 -0.078214 0
11.530000 -0.072725 0
11.535000 -0.065012 0
11.540000 -0.054408 0
11.545000 -0.040244 0
11.550000 -0.021953 0
11.555000 0.000800 0
11.560000 0.027965 0
11.565000 0.058982 0
11.570000 0.092692 0
11.575000 0.127343 0
11.580000 0.160700 0
11.585000 0.190253 0
11.590000 0.213528 0
11.595000 0.228420 0
11.600000 0.233506 1
11.605000 0.228270 0
11.610000 0.213185 0
11.615000 0.189646 0
11.620000 0.159743 0
11.625000 0.125930 0
11.630000 0.090553 0
11.635000 0.055132 0
11.640000 0.019247 0
11.645000 -0.020600 0
11.650000 -0.070311 0
11.655000 -0.133074 0
11.660000 -0.200396 0
11.665000 -0.246350 2
11.670000 -0.232212 0
11.675000 -0.118973 0
11.680000 0.117867 0
11.685000 0.465818 0
11.690000 0.846820 0
11.695000 1.120970 0
11.700000 1.158848 3
11.705000 0.939092 0
11.710000 0.559531 0
11.715000 0.162890 0
11.720000 -0.144051 0
11.725000 -0.317252 0
11.730000 -0.360761 4
11.735000 -0.308931 0
11.740000 -0.211117 0
11.745000 -0.111566 0
11.750000 -0.033383 0
11.755000 0.021768 0
11.760000 0.062476 0
11.765000 0.097272 0
11.770000 0.130877 0
11.775000 0.164860 0
11.780000 0.199190 0
11.785000 0.233216 0
11.790000 0.266065 0
11.795000 0.296792 0
11.800000 0.324439 0
11.805000 0.348093 0
11.810000 0.366931 0
11.815000 0.380271 0
11.820000 0.387609 0
11.825000 0.388651 5
11.830000 0.383331 0
11.835000 0.371817 0
11.840000 0.354501 0
11.845000 0.331973 0
11.850000 0.304993 0
11.855000 0.274442 0
11.860000 0.241278 0
11.865000 0.206482 0
11.870000 0.171016 0
11.875000 0.135773 0
11.880000 0.101550 0
11.885000 0.069014 0
11.890000 0.038695 0
11.895000 0.010974 0
11.900000 -0.013910 0
11.905000 -0.035849 0
11.910000 -0.054852 0
11.915000 -0.071022 0
11.920000 -0.084535 0
11.925000 -0.095620 0
11.930000 -0.104535 0
11.935000 -0.111553 0
11.940000 -0.116946 0
11.945000 -0.120971 0
11.950000 -0.123869 0
11.955000 -0.123481 0
11.960000 -0.122538 0
11.965000 -0.121600 0
11.970000 -0.120664 0
11.975000 -0.119731 0
11.980000 -0.118796 0
11.985000 -0.117852 0
11.990000 -0.116889 0
11.995000 -0.115884 0
12.000000 -0.114798 0
12.005000 -0.113568 0
12.010000 -0.112091 0
12.015000 -0.110207 0
12.020000 -0.107683 0
12.025000 -0.104195 0
12.030000 -0.099312 0
12.035000 -0.092497 0
12.040000 -0.083131 0
12.045000 -0.070559 0
12.050000 -0.054172 0
12.055000 -0.033524 0
12.060000 -0.008461 0
12.065000 0.020739 0
12.070000 0.053269 0
12.075000 0.087743 0
12.080000 0.122245 0
12.085000 0.154474 0
12.090000 0.181982 0
12.095000 0.202478 0
12.100000 0.214140 0
12.105000 0.215883 1
12.110000 0.207526 0
12.115000 0.189822 0
12.120000 0.164347 0
12.125000 0.133258 0
12.130000 0.098950 0
12.135000 0.063571 0
12.140000 0.028275 0
12.145000 -0.007892 0
12.150000 -0.048913 0
12.155000 -0.100555 0
12.160000 -0.164756 0
12.165000 -0.231119 0
12.170000 -0.272602 2
12.175000 -0.251110 0
12.180000 -0.129556 0
12.185000 0.114122 0
12.190000 0.465258 0
12.195000 0.845925 0
12.200000 1.120095 0
12.205000 1.162463 3
12.210000 0.945537 0
12.215000 0.565802 0
12.220000 0.170173 0
12.225000 -0.132462 0
12.230000 -0.298693 0
12.235000 -0.334616 4
12.240000 -0.277192 0
12.245000 -0.177667 0
12.250000 -0.080000 0
12.255000 -0.005187 0
12.260000 0.047141 0
12.265000 0.086315 0
12.270000 0.120583 0
12.275000 0.154126 0
12.280000 0.188135 0
12.285000 0.222386 0
12.290000 0.256135 0
12.295000 0.288457 0
12.300000 0.318364 0
12.305000 0.344878 0
12.310000 0.367076 0
12.315000 0.384150 0
12.320000 0.395450 0
12.325000 0.400526 5
12.330000 0.399155 0
12.335000 0.391359 0
12.340000 0.377401 0
12.345000 0.357769 0
12.350000 0.333152 0
12.355000 0.304393 0
12.360000 0.272441 0
12.365000 0.238304 0
12.370000 0.202990 0
12.375000 0.167460 0
12.380000 0.132589 0
12.385000 0.099132 0
12.390000 0.067703 0
12.395000 0.038760 0
12.400000 0.012615 0
12.405000 -0.010570 0
12.410000 -0.030758 0
12.415000 -0.048020 0
12.420000 -0.062515 0
12.425000 -0.074460 0
12.430000 -0.084115 0
12.435000 -0.091758 0
12.440000 -0.097671 0
12.445000 -0.102125 0
12.450000 -0.105373 0
12.455000 -0.105114 0
12.460000 -0.104263 0
12.465000 -0.103416 0
12.470000 -0.102572 0
12.475000 -0.101729 0
12.480000 -0.100885 0
12.485000 -0.100033 0
12.490000 -0.099163 0
12.495000 -0.098252 0
12.500000 -0.097265 0
12.505000 -0.096136 0
12.510000 -0.094764 0
12.515000 -0.092988 0
12.520000 -0.090572 0
12.525000 -0.087181 0
12.530000 -0.082374 0
12.535000 -0.075596 0
12.540000 -0.066207 0
12.545000 -0.053529 0
12.550000 -0.036942 0
12.555000 -0.016001 0
12.560000 0.009420 0
12.565000 0.038985 0
12.570000 0.071790 0
12.575000 0.106330 0
12.580000 0.140558 0
12.585000 0.172054 0
12.590000 0.198300 0
12.595000 0.217001 0
12.600000 0.226418 1
12.605000 0.225631 0
12.610000 0.214692 0
12.615000 0.194612 0
12.620000 0.167210 0
12.625000 0.134823 0
12.630000 0.099904 0
12.635000 0.064440 0
12.640000 0.029023 0
12.645000 -0.008394 0
12.650000 -0.052946 0
12.655000 -0.109983 0
12.660000 -0.177368 0
12.665000 -0.237188 0
12.670000 -0.255344 2
12.675000 -0.191380 0
12.680000 -0.012240 0
12.685000 0.290040 0
12.690000 0.670388 0
12.695000 1.013063 0
12.700000 1.171601 3
12.705000 1.066757 0
12.710000 0.744776 0
12.715000 0.339276 0
12.720000 -0.018310 0
12.725000 -0.254901 0
12.730000 -0.354928 4
12.735000 -0.340801 0
12.740000 -0.257484 0
12.745000 -0.154391 0
12.750000 -0.065381 0
12.755000 -0.000763 0
12.760000 0.045099 0
12.765000 0.081670 0
12.770000 0.115458 0
12.775000 0.149223 0
12.780000 0.183467 0
12.785000 0.217726 0
12.790000 0.251193 0
12.795000 0.282939 0
12.800000 0.311998 0
12.805000 0.337427 0
12.810000 0.358356 0
12.815000 0.374035 0
12.820000 0.383878 0
12.825000 0.387502 5
12.830000 0.384746 0
12.835000 0.375684 0
12.840000 0.360621 0
12.845000 0.340075 0
12.850000 0.314747 0
12.855000 0.285482 0
12.860000 0.253218 0
12.865000 0.218938 0
12.870000 0.183623 0
12.875000 0.148200 0
12.880000 0.113512 0
12.885000 0.080280 0
12.890000 0.049091 0
12.895000 0.020381 0
12.900000 -0.005555 0
12.905000 -0.028564 0
12.910000 -0.048613 0
12.915000 -0.065776 0
12.920000 -0.080206 0
12.925000 -0.092115 0
12.930000 -0.101755 0
12.935000 -0.109398 0
12.940000 -0.115319 0
12.945000 -0.119782 0
12.950000 -0.123036 0
12.955000 -0.124837 0
12.960000 -0.123888 0
12.965000 -0.122942 0
12.970000 -0.122001 0
12.975000 -0.121062 0
12.980000 -0.120123 0
12.985000 -0.119178 0
12.990000 -0.118218 0
12.995000 -0.117224 0
13.000000 -0.116163 0
13.005000 -0.114982 0
13.010000 -0.113588 0
13.015000 -0.111843 0
13.020000 -0.109536 0
13.025000 -0.106370 0
13.030000 -0.101943 0
13.035000 -0.095748 0
13.040000 -0.087181 0
13.045000 -0.075588 0
13.050000 -0.060332 0
13.055000 -0.040906 0
13.060000 -0.017059 0
13.065000 0.011064 0
13.070000 0.042805 0
13.075000 0.076929 0
13.080000 0.111644 0
13.085000 0.144719 0
13.090000 0.173705 0
13.095000 0.196227 0
13.100000 0.210301 0
13.105000 0.214626 1
13.110000 0.208779 0
13.115000 0.193288 0
13.120000 0.169550 0
13.125000 0.139616 0
13.130000 0.105873 0
13.135000 0.070599 0
13.140000 0.035277 0
13.145000 -0.000443 0
13.150000 -0.039847 0
13.155000 -0.088638 0
13.160000 -0.150359 0
13.165000 -0.217996 0
13.170000 -0.267947 2
13.175000 -0.263417 0
13.180000 -0.165800 0
13.185000 0.051729 0
13.190000 0.384554 0
13.195000 0.768929 0
13.200000 1.076547 0
13.205000 1.171378 3
13.210000 1.003504 0
13.215000 0.647088 0
13.220000 0.242925 0
13.225000 -0.089674 0
13.230000 -0.293333 0
13.235000 -0.363266 4
13.240000 -0.328395 0
13.245000 -0.236368 0
13.250000 -0.134347 0
13.255000 -0.050718 0
13.260000 0.008909 0
13.265000 0.051952 0
13.270000 0.087509 0
13.275000 0.121169 0
13.280000 0.155049 0
13.285000 0.189359 0
13.290000 0.223532 0
13.295000 0.256728 0
13.300000 0.288008 0
13.305000 0.316414 0
13.310000 0.341017 0
13.315000 0.360971 0
13.320000 0.375559 0
13.325000 0.384236 0
13.330000 0.386659 5
13.335000 0.382714 0
13.340000 0.372518 0
13.345000 0.356415 0
13.350000 0.334957 0
13.355000 0.308871 0
13.360000 0.279017 0
13.365000 0.246340 0
13.370000 0.211822 0
13.375000 0.176431 0
13.380000 0.141081 0
13.385000 0.106591 0
13.390000 0.073658 0
13.395000 0.042842 0
13.400000 0.014555 0
13.405000 -0.010932 0
13.410000 -0.033487 0
13.415000 -0.053094 0
13.420000 -0.069839 0
13.425000 -0.083885 0
13.430000 -0.095450 0
13.435000 -0.104790 0
13.440000 -0.112174 0
13.445000 -0.117876 0
13.450000 -0.122158 0
13.455000 -0.125264 0
13.460000 -0.124900 0
13.465000 -0.123951 0
13.470000 -0.123005 0
13.475000 -0.122063 0
13.480000 -0.121123 0
13.485000 -0.120183 0
13.490000 -0.119236 0
13.495000 -0.118273 0
13.500000 -0.117273 0
13.505000 -0.116202 0
13.510000 -0.115003 0
13.515000 -0.113582 0
13.520000 -0.111792 0
13.525000 -0.109418 0
13.530000 -0.106154 0
13.535000 -0.101592 0
13.540000 -0.095216 0
13.545000 -0.086421 0
13.550000 -0.074552 0
13.555000 -0.058983 0
13.560000 -0.039223 0
13.565000 -0.015049 0
13.570000 0.013362 0
13.575000 0.045313 0
13.580000 0.079537 0
13.585000 0.114215 0
13.590000 0.147108 0
13.595000 0.175773 0
13.600000 0.197859 0
13.605000 0.211426 0
13.610000 0.215221 1
13.615000 0.208874 0
13.620000 0.192954 0
13.625000 0.168888 0
13.630000 0.138742 0
13.635000 0.104895 0
13.640000 0.069598 0
13.645000 0.034282 0
13.650000 -0.001488 0
13.655000 -0.041083 0
13.660000 -0.090207 0
13.665000 -0.152224 0
13.670000 -0.219790 0
13.675000 -0.269045 2
13.680000 -0.263204 0
13.685000 -0.163931 0
13.690000 0.055179 0
13.695000 0.388981 0
13.700000 0.773339 0
13.705000 1.080176 0
13.710000 1.174276 3
13.715000 1.006254 0
13.720000 0.650011 0
13.725000 0.245735 0
13.730000 -0.087567 0
13.735000 -0.292400 0
13.740000 -0.363653 4
13.745000 -0.329848 0
13.750000 -0.238298 0
13.755000 -0.136132 0
13.760000 -0.052021 0
13.765000 0.008074 0
13.770000 0.051399 0
13.775000 0.087060 0
13.780000 0.120729 0
13.785000 0.154590 0
13.790000 0.188889 0
13.795000 0.223077 0
13.800000 0.256322 0
13.805000 0.287694 0
13.810000 0.316235 0
13.815000 0.341021 0
13.820000 0.361204 0
13.825000 0.376064 0
13.830000 0.385047 0
13.835000 0.387804 5
13.840000 0.384207 0
13.845000 0.374359 0
13.850000 0.358593 0
13.855000 0.337444 0
13.860000 0.311628 0
13.865000 0.281992 0
13.870000 0.249474 0
13.875000 0.215051 0
13.880000 0.179689 0
13.885000 0.144303 0
13.890000 0.109716 0
13.895000 0.076634 0
13.900000 0.045623 0
13.905000 0.017109 0
13.910000 -0.008631 0
13.915000 -0.031450 0
13.920000 -0.051326 0
13.925000 -0.068334 0
13.930000 -0.082630 0
13.935000 -0.094429 0
13.940000 -0.103979 0
13.945000 -0.111551 0
13.950000 -0.117417 0
13.955000 -0.121839 0
13.960000 -0.125062 0
13.965000 -0.124717 0
13.970000 -0.123769 0
13.975000 -0.122824 0
13.980000 -0.121883 0
13.985000 -0.120945 0
13.990000 -0.120006 0
13.995000 -0.119062 0
14.000000 -0.118103 0
14.005000 -0.117111 0
14.010000 -0.116054 0
14.015000 -0.114878 0
14.020000 -0.113496 0
14.025000 -0.111770 0
14.030000 -0.109496 0
14.035000 -0.106384 0
14.040000 -0.102042 0
14.045000 -0.095972 0
14.050000 -0.087582 0
14.055000 -0.076225 0
14.060000 -0.061266 0
14.065000 -0.042189 0
14.070000 -0.018718 0
14.075000 0.009039 0
14.080000 0.040481 0
14.085000 0.074437 0
14.090000 0.109183 0
14.095000 0.142546 0
14.100000 0.172110 0
14.105000 0.195497 0
14.110000 0.210680 0
14.115000 0.216275 1
14.120000 0.211747 0
14.125000 0.197497 0
14.130000 0.174799 0
14.135000 0.145614 0
14.140000 0.112283 0
14.145000 0.077113 0
14.150000 0.041756 0
14.155000 0.006237 0
14.160000 -0.032180 0
14.165000 -0.078929 0
14.170000 -0.138439 0
14.175000 -0.206255 0
14.180000 -0.262076 0
14.185000 -0.271173 2
14.190000 -0.194630 0
14.195000 -0.002341 0
14.200000 0.309571 0
14.205000 0.691985 0
14.210000 1.028902 0
14.215000 1.179307 3
14.220000 1.070780 0
14.225000 0.749775 0
14.230000 0.344432 0
14.235000 -0.017970 0
14.240000 -0.264324 0
14.245000 -0.376507 4
14.250000 -0.373328 0
14.255000 -0.296211 0
14.260000 -0.193223 0
14.265000 -0.100142 0
14.270000 -0.030658 0
14.275000 0.018609 0
14.280000 0.056757 0
14.285000 0.090954 0
14.290000 0.124679 0
14.295000 0.158867 0
14.300000 0.193268 0
14.305000 0.227180 0
14.310000 0.259740 0
14.315000 0.290030 0
14.320000 0.317134 0
14.325000 0.340182 0
14.330000 0.358402 0
14.335000 0.371156 0
14.340000 0.377980 0
14.345000 0.378613 5
14.350000 0.373006 0
14.355000 0.361334 0
14.360000 0.343981 0
14.365000 0.321521 0
14.370000 0.294683 0
14.375000 0.264316 0
14.380000 0.231339 0
14.385000 0.196698 0
14.390000 0.161320 0
14.395000 0.126077 0
14.400000 0.091744 0
14.405000 0.058984 0
14.410000 0.028327 0
14.415000 0.000165 0
14.420000 -0.025247 0
14.425000 -0.047781 0
14.430000 -0.067421 0
14.435000 -0.084246 0
14.440000 -0.098409 0
14.445000 -0.110118 0
14.450000 -0.119616 0
14.455000 -0.127163 0
14.460000 -0.133022 0
14.465000 -0.137448 0
14.470000 -0.140679 0
14.475000 -0.142452 0
14.480000 -0.141415 0
14.485000 -0.140383 0
14.490000 -0.139354 0
14.495000 -0.138329 0
14.500000 -0.137305 0
14.505000 -0.136277 0
14.510000 -0.135238 0
14.515000 -0.134171 0
14.520000 -0.133051 0
14.525000 -0.131830 0
14.530000 -0.130435 0
14.535000 -0.128748 0
14.540000 -0.126593 0
14.545000 -0.123718 0
14.550000 -0.119778 0
14.555000 -0.114327 0
14.560000 -0.106825 0
14.565000 -0.096659 0
14.570000 -0.083201 0
14.575000 -0.065889 0
14.580000 -0.044342 0
14.585000 -0.018478 0
14.590000 0.011356 0
14.595000 0.044298 0
14.600000 0.078946 0
14.605000 0.113402 0
14.610000 0.145427 0
14.615000 0.172664 0
14.620000 0.192924 0
14.625000 0.204473 0
14.630000 0.206282 1
14.635000 0.198175 0
14.640000 0.180861 0
14.645000 0.155831 0
14.650000 0.125140 0
14.655000 0.091091 0
14.660000 0.055806 0
14.665000 0.020559 0
14.670000 -0.015225 0
14.675000 -0.054934 0
14.680000 -0.104098 0
14.685000 -0.165937 0
14.690000 -0.233555 0
14.695000 -0.284438 2
14.700000 -0.283522 0
14.705000 -0.193574 0
14.710000 0.012466 0
14.715000 0.334188 0
14.720000 0.718159 0
14.725000 1.047938 0
14.730000 1.188001 3
14.735000 1.068395 0
14.740000 0.739436 0
14.745000 0.333499 0
14.750000 -0.022382 0
14.755000 -0.258158 0
14.760000 -0.359003 4
14.765000 -0.346624 0
14.770000 -0.264640 0
14.775000 -0.161487 0
14.780000 -0.071167 0
14.785000 -0.004926 0
14.790000 0.042098 0
14.795000 0.079193 0
14.800000 0.113083 0
14.805000 0.146786 0
14.810000 0.180970 0
14.815000 0.215261 0
14.820000 0.248900 0
14.825000 0.280992 0
14.830000 0.310597 0
14.835000 0.336789 0
14.840000 0.358701 0
14.845000 0.375574 0
14.850000 0.386800 0
14.855000 0.391955 5
14.860000 0.390828 0
14.865000 0.383432 0
14.870000 0.370006 0
14.875000 0.350998 0
14.880000 0.327044 0
14.885000 0.298927 0
14.890000 0.267540 0
14.895000 0.233832 0
14.900000 0.198766 0
14.905000 0.163269 0
14.910000 0.128197 0
14.915000 0.094303 0
14.920000 0.062211 0
14.925000 0.032408 0
14.930000 0.005239 0
14.935000 -0.019089 0
14.940000 -0.040495 0
14.945000 -0.059003 0
14.950000 -0.074730 0
14.955000 -0.087858 0
14.960000 -0.098617 0
14.965000 -0.107263 0
14.970000 -0.114064 0
14.975000 -0.119285 0
14.980000 -0.123179 0
14.985000 -0.125977 0
14.990000 -0.125566 0
14.995000 -0.124613 0
15.000000 -0.123664 0
15.005000 -0.122718 0
15.010000 -0.121774 0
15.015000 -0.120828 0
15.020000 -0.119875 0
15.025000 -0.118901 0
15.030000 -0.117886 0
15.035000 -0.116791 0
15.040000 -0.115555 0
15.045000 -0.114077 0
15.050000 -0.112204 0
15.055000 -0.109710 0
15.060000 -0.106282 0
15.065000 -0.101502 0
15.070000 -0.094855 0
15.075000 -0.085736 0
15.080000 -0.073503 0
15.085000 -0.057552 0
15.090000 -0.037420 0
15.095000 -0.012917 0
15.100000 0.015749 0
15.105000 0.047860 0
15.110000 0.082142 0
15.115000 0.116793 0
15.120000 0.149606 0
15.125000 0.178187 0
15.130000 0.200235 0
15.135000 0.213850 0
15.140000 0.217800 1
15.145000 0.211708 0
15.150000 0.196108 0
15.155000 0.172371 0
15.160000 0.142498 0
15.165000 0.108817 0
15.170000 0.073557 0
15.175000 0.038220 0
15.180000 0.002591 0
15.185000 -0.036330 0
15.190000 -0.084032 0
15.195000 -0.144491 0
15.200000 -0.212337 0
15.205000 -0.266460 0
15.210000 -0.272079 2
15.215000 -0.190996 0
15.220000 0.005739 0
15.225000 0.320620 0
15.230000 0.703519 0
15.235000 1.039068 0
15.240000 1.188504 3
15.245000 1.081567 0
15.250000 0.763311 0
15.255000 0.358322 0
15.260000 -0.007904 0
15.265000 -0.261465 0
15.270000 -0.382258 0
15.275000 -0.386769 4
15.280000 -0.314233 0
15.285000 -0.211836 0
15.290000 -0.116454 0
15.295000 -0.043898 0
15.300000 0.007662 0
15.305000 0.046949 0
15.310000 0.081479 0
15.315000 0.115184 0
15.320000 0.149299 0
15.325000 0.183719 0
15.330000 0.217815 0
15.335000 0.250765 0
15.340000 0.281680 0
15.345000 0.309659 0
15.350000 0.333840 0
15.355000 0.353439 0
15.360000 0.367795 0
15.365000 0.376405 0
15.370000 0.378952 5
15.375000 0.375325 0
15.380000 0.365627 0
15.385000 0.350166 0
15.390000 0.329443 0
15.395000 0.304121 0
15.400000 0.274990 0
15.405000 0.242926 0
15.410000 0.208850 0
15.415000 0.173680 0
15.420000 0.138291 0
15.425000 0.103485 0
15.430000 0.069960 0
15.435000 0.038292 0
15.440000 0.008927 0
15.445000 -0.017825 0
15.450000 -0.041778 0
15.455000 -0.062866 0
15.460000 -0.081120 0
15.465000 -0.096655 0
15.470000 -0.109649 0
15.475000 -0.120322 0
15.480000 -0.128921 0
15.485000 -0.135702 0
15.490000 -0.140920 0
15.495000 -0.144818 0
15.500000 -0.147622 0
15.505000 -0.147121 0
15.510000 -0.146060 0
15.515000 -0.145004 0
15.520000 -0.143953 0
15.525000 -0.142904 0
15.530000 -0.141855 0
15.535000 -0.140800 0
15.540000 -0.139731 0
15.545000 -0.138629 0
15.550000 -0.137464 0
15.555000 -0.136185 0
15.560000 -0.134710 0
15.565000 -0.132912 0
15.570000 -0.130605 0
15.575000 -0.127524 0
15.580000 -0.123314 0
15.585000 -0.117520 0
15.590000 -0.109600 0
15.595000 -0.098950 0
15.600000 -0.084959 0
15.605000 -0.067098 0
15.610000 -0.045023 0
15.615000 -0.018700 0
15.620000 0.011484 0
15.625000 0.044638 0
15.630000 0.079351 0
15.635000 0.113741 0
15.640000 0.145608 0
15.645000 0.172652 0
15.650000 0.192747 0
15.655000 0.204211 0
15.660000 0.206048 1
15.665000 0.198084 0
15.670000 0.181000 0
15.675000 0.156235 0
15.680000 0.125778 0
15.685000 0.091878 0
15.690000 0.056633 0
15.695000 0.021383 0
15.700000 -0.014232 0
15.705000 -0.053230 0
15.710000 -0.100925 0
15.715000 -0.161136 0
15.720000 -0.228923 0
15.725000 -0.284586 0
15.730000 -0.295245 2
15.735000 -0.224060 0
15.740000 -0.041761 0
15.745000 0.258347 0
15.750000 0.636784 0
15.755000 0.991779 0
15.760000 1.188202 3
15.765000 1.132829 0
15.770000 0.845613 0
15.775000 0.445546 0
15.780000 0.067340 0
15.785000 -0.203374 0
15.790000 -0.339312 0
15.795000 -0.353935 4
15.800000 -0.286068 0
15.805000 -0.184495 0
15.810000 -0.088471 0
15.815000 -0.015389 0
15.820000 0.036221 0
15.825000 0.075326 0
15.830000 0.109671 0
15.835000 0.143250 0
15.840000 0.177263 0
15.845000 0.211557 0
15.850000 0.245458 0
15.855000 0.278107 0
15.860000 0.308578 0
15.865000 0.335944 0
15.870000 0.359318 0
15.875000 0.377910 0
15.880000 0.391059 0
15.885000 0.398282 0
15.890000 0.399294 5
15.895000 0.394033 0
15.900000 0.382656 0
15.905000 0.365539 0
15.910000 0.343248 0
15.915000 0.316515 0
15.920000 0.286190 0
15.925000 0.253200 0
15.930000 0.218501 0
15.935000 0.183030 0
15.940000 0.147669 0
15.945000 0.113206 0
15.950000 0.080313 0
15.955000 0.049527 0
15.960000 0.021245 0
15.965000 -0.004273 0
15.970000 -0.026898 0
15.975000 -0.046614 0
15.980000 -0.063503 0
15.985000 -0.077719 0
15.990000 -0.089475 0
15.995000 -0.099014 0
16.000000 -0.106601 0
16.005000 -0.112501 0
16.010000 -0.116970 0
16.015000 -0.120250 0
16.020000 -0.122084 0
16.025000 -0.121148 0
16.030000 -0.120217 0
16.035000 -0.119289 0
16.040000 -0.118364 0
16.045000 -0.117439 0
16.050000 -0.116509 0
16.055000 -0.115566 0
16.060000 -0.114593 0
16.065000 -0.113562 0
16.070000 -0.112423 0
16.075000 -0.111098 0
16.080000 -0.109462 0
16.085000 -0.107329 0
16.090000 -0.104433 0
16.095000 -0.100413 0
16.100000 -0.094807 0
16.105000 -0.087053 0
16.110000 -0.076529 0
16.115000 -0.062604 0
16.120000 -0.044729 0
16.125000 -0.022559 0
16.130000 0.003925 0
16.135000 0.034289 0
16.140000 0.067570 0
16.145000 0.102252 0
16.150000 0.136342 0
16.155000 0.167536 0
16.160000 0.193462 0
16.165000 0.211977 0
16.170000 0.221459 1
16.175000 0.221039 0
16.180000 0.210734 0
16.185000 0.191449 0
16.190000 0.164839 0
16.195000 0.133069 0
16.200000 0.098469 0
16.205000 0.063047 0
16.210000 0.027737 0
16.215000 -0.008693 0
16.220000 -0.050402 0
16.225000 -0.102980 0
16.230000 -0.167761 0
16.235000 -0.233748 0
16.240000 -0.273963 2
16.245000 -0.251162 0
16.250000 -0.129356 0
16.255000 0.112918 0
16.260000 0.462054 0
16.265000 0.843979 0
16.270000 1.127500 0
16.275000 1.187481 3
16.280000 0.993467 0
16.285000 0.627631 0
16.290000 0.224332 0
16.295000 -0.106302 0
16.300000 -0.311454 0
16.305000 -0.386321 4
16.310000 -0.357209 0
16.315000 -0.268394 0
16.320000 -0.165378 0
16.325000 -0.077803 0
16.330000 -0.013920 0
16.335000 0.031952 0
16.340000 0.068728 0
16.345000 0.102623 0
16.350000 0.136392 0
16.355000 0.170632 0
16.360000 0.204977 0
16.365000 0.238699 0
16.370000 0.270940 0
16.375000 0.300798 0
16.380000 0.327382 0
16.385000 0.349851 0
16.390000 0.367463 0
16.395000 0.379610 0
16.400000 0.385860 0
16.405000 0.385972 5
16.410000 0.379919 0
16.415000 0.367884 0
16.420000 0.350255 0
16.425000 0.327600 0
16.430000 0.300640 0
16.435000 0.270205 0
16.440000 0.237196 0
16.445000 0.202538 0
16.450000 0.167141 0
16.455000 0.131857 0
16.460000 0.097448 0
16.465000 0.064569 0
16.470000 0.033745 0
16.475000 0.005367 0
16.480000 -0.020305 0
16.485000 -0.043135 0
16.490000 -0.063098 0
16.495000 -0.080262 0
16.500000 -0.094771 0
16.505000 -0.106822 0
16.510000 -0.116648 0
16.515000 -0.124502 0
16.520000 -0.130643 0
16.525000 -0.135323 0
16.530000 -0.138776 0
16.535000 -0.140714 0
16.540000 -0.139685 0
16.545000 -0.138662 0
16.550000 -0.137642 0
16.555000 -0.136626 0
16.560000 -0.135612 0
16.565000 -0.134596 0
16.570000 -0.133571 0
16.575000 -0.132524 0
16.580000 -0.131433 0
16.585000 -0.130261 0
16.590000 -0.128943 0
16.595000 -0.127381 0
16.600000 -0.125424 0
16.605000 -0.122853 0
16.610000 -0.119364 0
16.615000 -0.114559 0
16.620000 -0.107943 0
16.625000 -0.098938 0
16.630000 -0.086929 0
16.635000 -0.071328 0
16.640000 -0.051671 0
16.645000 -0.027734 0
16.650000 0.000341 0
16.655000 0.031953 0
16.660000 0.065974 0
16.665000 0.100768 0
16.670000 0.134286 0
16.675000 0.164245 0
16.680000 0.188383 0
16.685000 0.204738 0
16.690000 0.211907 1
16.695000 0.209254 0
16.700000 0.196995 0
16.705000 0.176176 0
16.710000 0.148520 0
16.715000 0.116183 0
16.720000 0.081407 0
16.725000 0.046042 0
16.730000 0.010784 0
16.735000 -0.025866 0
16.740000 -0.068204 0
16.745000 -0.121591 0
16.750000 -0.186781 0
16.755000 -0.252352 0
16.760000 -0.291645 2
16.765000 -0.268461 0
16.770000 -0.147940 0
16.775000 0.091030 0
16.780000 0.436676 0
16.785000 0.820132 0
16.790000 1.116276 0
16.795000 1.200000 3
16.800000 1.025748 0
16.805000 0.667231 0
16.810000 0.262970 0
16.815000 -0.070277 0
16.820000 -0.276036 0
16.825000 -0.349064 4
16.830000 -0.317111 0
16.835000 -0.226576 0
16.840000 -0.124200 0
16.845000 -0.039079 0
16.850000 0.022072 0
16.855000 0.066039 0
16.860000 0.101906 0
16.865000 0.135527 0
16.870000 0.169257 0
16.875000 0.203443 0
16.880000 0.237588 0
16.885000 0.270888 0
16.890000 0.302432 0
16.895000 0.331280 0
16.900000 0.356513 0
16.905000 0.377285 0
16.910000 0.392867 0
16.915000 0.402688 0
16.920000 0.406371 5
16.925000 0.403754 0
16.930000 0.394903 0
16.935000 0.380103 0
16.940000 0.359849 0
16.945000 0.334813 0
16.950000 0.305809 0
16.955000 0.273744 0
16.960000 0.239577 0
16.965000 0.204266 0
16.970000 0.168726 0
16.975000 0.133793 0
16.980000 0.100191 0
16.985000 0.068514 0
16.990000 0.039219 0
16.995000 0.012616 0
17.000000 -0.011115 0
17.005000 -0.031920 0
17.010000 -0.049846 0
17.015000 -0.065027 0
17.020000 -0.077657 0
17.025000 -0.087973 0
17.030000 -0.096237 0
17.035000 -0.102717 0
17.040000 -0.107675 0
17.045000 -0.111361 0
17.050000 -0.113487 0
17.055000 -0.112594 0
17.060000 -0.111705 0
17.065000 -0.110821 0
17.070000 -0.109938 0
17.075000 -0.109057 0
17.080000 -0.108173 0
17.085000 -0.107278 0
17.090000 -0.106358 0
17.095000 -0.105390 0
17.100000 -0.104331 0
17.105000 -0.103110 0
17.110000 -0.101617 0
17.115000 -0.099683 0
17.120000 -0.097064 0
17.125000 -0.093422 0
17.130000 -0.088318 0
17.135000 -0.081210 0
17.140000 -0.071482 0
17.145000 -0.058492 0
17.150000 -0.041657 0
17.155000 -0.020567 0
17.160000 0.004887 0
17.165000 0.034385 0
17.170000 0.067082 0
17.175000 0.101574 0
17.180000 0.135947 0
17.185000 0.167928 0
17.190000 0.195116 0
17.195000 0.215278 0
17.200000 0.226647 0
17.205000 0.228180 1
17.210000 0.219714 0
17.215000 0.201991 0
17.220000 0.176555 0
17.225000 0.145516 0
17.230000 0.111221 0
17.235000 0.075800 0
17.240000 0.040449 0
17.245000 0.004376 0
17.250000 -0.036138 0
17.255000 -0.086761 0
17.260000 -0.150037 0
17.265000 -0.217210 0
17.270000 -0.263338 2
17.275000 -0.251715 0
17.280000 -0.145143 0
17.285000 0.080961 0
17.290000 0.419074 0
17.295000 0.803182 0
17.300000 1.105966 0
17.305000 1.195729 3
17.310000 1.026652 0
17.315000 0.671496 0
17.320000 0.266529 0
17.325000 -0.071250 0
17.330000 -0.283641 0
17.335000 -0.363495 4
17.340000 -0.336769 0
17.345000 -0.248579 0
17.350000 -0.145697 0
17.355000 -0.058539 0
17.360000 0.004664 0
17.365000 0.049927 0
17.370000 0.086350 0
17.375000 0.120109 0
17.380000 0.153840 0
17.385000 0.188043 0
17.390000 0.222289 0
17.395000 0.255812 0
17.400000 0.287721 0
17.405000 0.317089 0
17.410000 0.343003 0
17.415000 0.364616 0
17.420000 0.381184 0
17.425000 0.392117 0
17.430000 0.397006 5
17.435000 0.395652 0
17.440000 0.388074 0
17.445000 0.374513 0
17.450000 0.355417 0
17.455000 0.331415 0
17.460000 0.303281 0
17.465000 0.271895 0
17.470000 0.238194 0
17.475000 0.203128 0
17.480000 0.167614 0
17.485000 0.132498 0
17.490000 0.098527 0
17.495000 0.066323 0
17.500000 0.036373 0
17.505000 0.009025 0
17.510000 -0.015511 0
17.515000 -0.037143 0
17.520000 -0.055892 0
17.525000 -0.071865 0
17.530000 -0.085237 0
17.535000 -0.096230 0
17.540000 -0.105098 0
17.545000 -0.112102 0
17.550000 -0.117507 0
17.555000 -0.121563 0
17.560000 -0.124502 0
17.565000 -0.124118 0
17.570000 -0.123172 0
17.575000 -0.122231 0
17.580000 -0.121292 0
17.585000 -0.120356 0
17.590000 -0.119419 0
17.595000 -0.118475 0
17.600000 -0.117515 0
17.605000 -0.116518 0
17.610000 -0.115451 0
17.615000 -0.114259 0
17.620000 -0.112852 0
17.625000 -0.111091 0
17.630000 -0.108770 0
17.635000 -0.105603 0
17.640000 -0.101201 0
17.645000 -0.095078 0
17.650000 -0.086657 0
17.655000 -0.075308 0
17.660000 -0.060415 0
17.665000 -0.041473 0
17.670000 -0.018206 0
17.675000 0.009300 0
17.680000 0.040492 0
17.685000 0.074276 0
17.690000 0.109021 0
17.695000 0.142653 0
17.700000 0.172838 0
17.705000 0.197246 0
17.710000 0.213839 0
17.715000 0.221156 1
17.720000 0.218523 0
17.725000 0.206157 0
17.730000 0.185136 0
17.735000 0.157241 0
17.740000 0.124692 0
17.745000 0.089784 0
17.750000 0.054370 0
17.755000 0.019032 0
17.760000 -0.018018 0
17.765000 -0.061434 0
17.770000 -0.116532 0
17.775000 -0.182875 0
17.780000 -0.246517 0
17.785000 -0.278002 2
17.790000 -0.239592 0
17.795000 -0.097046 0
17.800000 0.166561 0
17.805000 0.528707 0
17.810000 0.904075 0
17.815000 1.157142 0
17.820000 1.173512 3
17.825000 0.938703 0
17.830000 0.553505 0
17.835000 0.160009 0
17.840000 -0.139223 0
17.845000 -0.303947 0
17.850000 -0.340536 4
17.855000 -0.284631 0
17.860000 -0.185752 0
17.865000 -0.087121 0
17.870000 -0.010416 0
17.875000 0.043607 0
17.880000 0.083723 0
17.885000 0.118280 0
17.890000 0.151790 0
17.895000 0.185702 0
17.900000 0.219939 0
17.905000 0.253835 0
17.910000 0.286516 0
17.915000 0.317036 0
17.920000 0.344441 0
17.925000 0.367823 0
17.930000 0.386368 0
17.935000 0.399399 0
17.940000 0.406423 0
17.945000 0.407154 5
17.950000 0.401534 0
17.955000 0.389739 0
17.960000 0.372165 0
17.965000 0.349407 0
17.970000 0.322227 0
17.975000 0.291507 0
17.980000 0.258202 0
17.985000 0.223292 0
17.990000 0.187734 0
17.995000 0.152417 0
18.000000 0.118133 0
18.005000 0.085546 0
18.010000 0.055181 0
18.015000 0.027416 0
18.020000 0.002487 0
18.025000 -0.019500 0
18.030000 -0.038556 0
18.035000 -0.054783 0
18.040000 -0.068358 0
18.045000 -0.079509 0
18.050000 -0.088495 0
18.055000 -0.095587 0
18.060000 -0.101057 0
18.065000 -0.105161 0
18.070000 -0.108138 0
18.075000 -0.107829 0
18.080000 -0.106964 0
18.085000 -0.106103 0
18.090000 -0.105245 0
18.095000 -0.104389 0
18.100000 -0.103530 0
18.105000 -0.102663 0
18.110000 -0.101776 0
18.115000 -0.100847 0
18.120000 -0.099838 0
18.125000 -0.098686 0
18.130000 -0.097288 0
18.135000 -0.095488 0
18.140000 -0.093054 0
18.145000 -0.089665 0
18.150000 -0.084892 0
18.155000 -0.078205 0
18.160000 -0.068986 0
18.165000 -0.056582 0
18.170000 -0.040384 0
18.175000 -0.019940 0
18.180000 0.004914 0
18.185000 0.033917 0
18.190000 0.066281 0
18.195000 0.100645 0
18.200000 0.135115 0
18.205000 0.167406 0
18.210000 0.195079 0
18.215000 0.215835 0
18.220000 0.227833 0
18.225000 0.229955 1
18.230000 0.221979 0
18.235000 0.204615 0
18.240000 0.179401 0
18.245000 0.148467 0
18.250000 0.114199 0
18.255000 0.078767 0
18.260000 0.043401 0
18.265000 0.007292 0
18.270000 -0.033364 0
18.275000 -0.084323 0
18.280000 -0.147972 0
18.285000 -0.214881 0
18.290000 -0.259037 2
18.295000 -0.242810 0
18.300000 -0.128762 0
18.305000 0.106623 0
18.310000 0.452054 0
18.315000 0.834581 0
18.320000 1.121043 0
18.325000 1.182479 3
18.330000 0.984197 0
18.335000 0.613384 0
18.340000 0.212880 0
18.345000 -0.104865 0
18.350000 -0.290338 0
18.355000 -0.344155 4
18.360000 -0.298700 0
18.365000 -0.202916 0
18.370000 -0.102388 0
18.375000 -0.022276 0
18.380000 0.034357 0
18.385000 0.075759 0
18.390000 0.110708 0
18.395000 0.144240 0
18.400000 0.178106 0
18.405000 0.212351 0
18.410000 0.246346 0
18.415000 0.279229 0
18.420000 0.310051 0
18.425000 0.337853 0
18.430000 0.361711 0
18.435000 0.380797 0
18.440000 0.394413 0
18.445000 0.402043 0
18.450000 0.403379 5
18.455000 0.398342 0
18.460000 0.387087 0
18.465000 0.369993 0
18.470000 0.347645 0
18.475000 0.320796 0
18.480000 0.290325 0
18.485000 0.257190 0
18.490000 0.222377 0
18.495000 0.186849 0
18.500000 0.151509 0
18.505000 0.117158 0
18.510000 0.084473 0
18.515000 0.053991 0
18.520000 0.026099 0
18.525000 0.001043 0
18.530000 -0.021065 0
18.535000 -0.040231 0
18.540000 -0.056555 0
18.545000 -0.070212 0
18.550000 -0.081429 0
18.555000 -0.090466 0
18.560000 -0.097597 0
18.565000 -0.103092 0
18.570000 -0.107213 0
18.575000 -0.110199 0
18.580000 -0.109882 0
18.585000 -0.109007 0
18.590000 -0.108136 0
18.595000 -0.107268 0
18.600000 -0.106401 0
18.605000 -0.105532 0
18.610000 -0.104656 0
18.615000 -0.103758 0
18.620000 -0.102819 0
18.625000 -0.101799 0
18.630000 -0.100634 0
18.635000 -0.099222 0
18.640000 -0.097402 0
18.645000 -0.094941 0
18.650000 -0.091513 0
18.655000 -0.086685 0
18.660000 -0.079919 0
18.665000 -0.070593 0
18.670000 -0.058051 0
18.675000 -0.041682 0
18.680000 -0.021040 0
18.685000 0.004022 0
18.690000 0.033220 0
18.695000 0.065736 0
18.700000 0.100170 0
18.705000 0.134591 0
18.710000 0.166687 0
18.715000 0.194001 0
18.720000 0.214243 0
18.725000 0.225601 0
18.730000 0.227008 1
18.735000 0.218309 0
18.740000 0.200285 0
18.745000 0.174539 0
18.750000 0.143248 0
18.755000 0.108813 0
18.760000 0.073370 0
18.765000 0.038021 0
18.770000 0.001701 0
18.775000 -0.039701 0
18.780000 -0.091953 0
18.785000 -0.156643 0
18.790000 -0.222631 0
18.795000 -0.262089 2
18.800000 -0.236565 0
18.805000 -0.109247 0
18.810000 0.140751 0
18.815000 0.496010 0
18.820000 0.874614 0
18.825000 1.138401 0
18.830000 1.165259 3
18.835000 0.936995 0
18.840000 0.553854 0
18.845000 0.159433 0
18.850000 -0.141487 0
18.855000 -0.307408 0
18.860000 -0.344410 4
18.865000 -0.288404 0
18.870000 -0.189399 0
18.875000 -0.090935 0
18.880000 -0.014629 0
18.885000 0.039009 0
18.890000 0.078910 0
18.895000 0.113414 0
18.900000 0.146958 0
18.905000 0.180923 0
18.910000 0.215193 0
18.915000 0.249080 0
18.920000 0.281694 0
18.925000 0.312077 0
18.930000 0.339268 0
18.935000 0.362353 0
18.940000 0.380518 0
18.945000 0.393094 0
18.950000 0.399598 0
18.955000 0.399761 5
18.960000 0.393548 0
18.965000 0.381158 0
18.970000 0.363014 0
18.975000 0.339738 0
18.980000 0.312115 0
18.985000 0.281048 0
18.990000 0.247508 0
18.995000 0.212485 0
19.000000 0.176938 0
19.005000 0.141755 0
19.010000 0.107716 0
19.015000 0.075473 0
19.020000 0.045532 0
19.025000 0.018253 0
19.030000 -0.006149 0
19.035000 -0.027589 0
19.040000 -0.046095 0
19.045000 -0.061786 0
19.050000 -0.074854 0
19.055000 -0.085534 0
19.060000 -0.094092 0
19.065000 -0.100803 0
19.070000 -0.105940 0
19.075000 -0.109758 0
19.080000 -0.111968 0
19.085000 -0.111083 0
19.090000 -0.110202 0
19.095000 -0.109324 0
19.100000 -0.108450 0
19.105000 -0.107576 0
19.110000 -0.106699 0
19.115000 -0.105811 0
19.120000 -0.104899 0
19.125000 -0.103936 0
19.130000 -0.102879 0
19.135000 -0.101653 0
19.140000 -0.100142 0
19.145000 -0.098168 0
19.150000 -0.095472 0
19.155000 -0.091698 0
19.160000 -0.086381 0
19.165000 -0.078955 0
19.170000 -0.068778 0
19.175000 -0.055193 0
19.180000 -0.037623 0
19.185000 -0.015692 0
19.190000 0.010638 0
19.195000 0.040932 0
19.200000 0.074196 0
19.205000 0.108858 0
19.210000 0.142842 0
19.215000 0.173754 0
19.220000 0.199143 0
19.225000 0.216822 0
19.230000 0.225177 1
19.235000 0.223408 0
19.240000 0.211659 0
19.245000 0.190991 0
19.250000 0.163230 0
19.255000 0.130676 0
19.260000 0.095721 0
19.265000 0.060276 0
19.270000 0.024873 0
19.275000 -0.012519 0
19.280000 -0.056924 0
19.285000 -0.113619 0
19.290000 -0.180823 0
19.295000 -0.241668 0
19.300000 -0.263429 2
19.305000 -0.206574 0
19.310000 -0.037796 0
19.315000 0.253702 0
19.320000 0.630147 0
19.325000 0.985269 0
19.330000 1.174979 3
19.335000 1.103996 0
19.340000 0.801404 0
19.345000 0.397815 0
19.350000 0.031702 0
19.355000 -0.215918 0
19.360000 -0.325042 4
19.365000 -0.316457 0
19.370000 -0.235288 0
19.375000 -0.132344 0
19.380000 -0.043008 0
19.385000 0.021685 0
19.390000 0.067389 0
19.395000 0.103772 0
19.400000 0.137434 0
19.405000 0.171116 0
19.410000 0.205275 0
19.415000 0.239411 0
19.420000 0.272684 0
19.425000 0.304137 0
19.430000 0.332781 0
19.435000 0.357656 0
19.440000 0.377880 0
19.445000 0.392705 0
19.450000 0.401558 0
19.455000 0.404077 5
19.460000 0.400135 0
19.465000 0.389850 0
19.470000 0.373576 0
19.475000 0.351883 0
19.480000 0.325524 0
19.485000 0.295387 0
19.490000 0.262450 0
19.495000 0.227723 0
19.500000 0.192200 0
19.505000 0.156812 0
19.510000 0.122389 0
19.515000 0.089631 0
19.520000 0.059092 0
19.525000 0.031174 0
19.530000 0.006128 0
19.535000 -0.015932 0
19.540000 -0.035014 0
19.545000 -0.051224 0
19.550000 -0.064744 0
19.555000 -0.075812 0
19.560000 -0.084695 0
19.565000 -0.091673 0
19.570000 -0.097025 0
19.575000 -0.101017 0
19.580000 -0.103890 0
19.585000 -0.103582 0
19.590000 -0.102738 0
19.595000 -0.101898 0
19.600000 -0.101061 0
19.605000 -0.100224 0
19.610000 -0.099384 0
19.615000 -0.098533 0
19.620000 -0.097658 0
19.625000 -0.096731 0
19.630000 -0.095707 0
19.635000 -0.094512 0
19.640000 -0.093024 0
19.645000 -0.091058 0
19.650000 -0.088345 0
19.655000 -0.084517 0
19.660000 -0.079089 0
19.665000 -0.071476 0
19.670000 -0.061018 0
19.675000 -0.047046 0
19.680000 -0.028987 0
19.685000 -0.006490 0
19.690000 0.020423 0
19.695000 0.051232 0
19.700000 0.084827 0
19.705000 0.119507 0
19.710000 0.153079 0
19.715000 0.183060 0
19.720000 0.206974 0
19.725000 0.222684 0
19.730000 0.228708 1
19.735000 0.224445 0
19.740000 0.210277 0
19.745000 0.187508 0
19.750000 0.158165 0
19.755000 0.124667 0
19.760000 0.089387 0
19.765000 0.053971 0
19.770000 0.018277 0
19.775000 -0.020802 0
19.780000 -0.069017 0
19.785000 -0.130300 0
19.790000 -0.198086 0
19.795000 -0.248743 2
19.800000 -0.244779 0
19.805000 -0.146657 0
19.810000 0.072944 0
19.815000 0.408404 0
19.820000 0.792312 0
19.825000 1.091474 0
19.830000 1.169195 3
19.835000 0.984269 0
19.840000 0.619493 0
19.845000 0.217222 0
19.850000 -0.106880 0
19.855000 -0.299904 0
19.860000 -0.360243 4
19.865000 -0.318930 0
19.870000 -0.224502 0
19.875000 -0.123286 0
19.880000 -0.041761 0
19.885000 0.016039 0
19.890000 0.058082 0
19.895000 0.093290 0
19.900000 0.126909 0
19.905000 0.160825 0
19.910000 0.195139 0
19.915000 0.229245 0
19.920000 0.262284 0
19.925000 0.293311 0
19.930000 0.321365 0
19.935000 0.345519 0
19.940000 0.364937 0
19.945000 0.378915 0
19.950000 0.386926 0
19.955000 0.388651 5
19.960000 0.383999 0
19.965000 0.373113 0
19.970000 0.356363 0
19.975000 0.334325 0
19.980000 0.307745 0
19.985000 0.277497 0
19.990000 0.244538 0
19.995000 0.209852 0
20.000000 0.174408 0
20.005000 0.139110 0
20.010000 0.104768 0
20.015000 0.072064 0
20.020000 0.041540 0
20.025000 0.013594 0
20.030000 -0.011525 0
20.035000 -0.033698 0
20.040000 -0.052926 0
20.045000 -0.069305 0
20.050000 -0.083007 0
20.055000 -0.094259 0
20.060000 -0.103319 0
20.065000 -0.110460 0
20.070000 -0.115954 0
20.075000 -0.120063 0
20.080000 -0.123028 0
20.085000 -0.122653 0
20.090000 -0.121715 0
20.095000 -0.120780 0
20.100000 -0.119849 0
20.105000 -0.118920 0
20.110000 -0.117989 0
20.115000 -0.117051 0
20.120000 -0.116093 0
20.125000 -0.115094 0
20.130000 -0.114018 0
20.135000 -0.112800 0
20.140000 -0.111339 0
20.145000 -0.109478 0
20.150000 -0.106987 0
20.155000 -0.103543 0
20.160000 -0.098718 0
20.165000 -0.091976 0
20.170000 -0.082698 0
20.175000 -0.070226 0
20.180000 -0.053947 0
20.185000 -0.033407 0
20.190000 -0.008444 0
20.195000 0.020675 0
20.200000 0.053151 0
20.205000 0.087605 0
20.210000 0.122120 0
20.215000 0.154393 0
20.220000 0.181966 0
20.225000 0.202536 0
20.230000 0.214270 0
20.235000 0.216071 1
20.240000 0.207753 0
20.245000 0.190067 0
20.250000 0.164594 0
20.255000 0.133498 0
20.260000 0.099181 0
20.265000 0.063799 0
20.270000 0.028502 0
20.275000 -0.007690 0
20.280000 -0.048796 0
20.285000 -0.100601 0
20.290000 -0.164944 0
20.295000 -0.231166 0
20.300000 -0.271880 2
20.305000 -0.248766 0
20.310000 -0.124755 0
20.315000 0.121768 0
20.320000 0.474875 0
20.325000 0.854605 0
20.330000 1.123588 0
20.335000 1.157863 3
20.340000 0.934086 0
20.345000 0.551773 0
20.350000 0.157653 0
20.355000 -0.141332 0
20.360000 -0.303555 0
20.365000 -0.336214 4
20.370000 -0.276896 0
20.375000 -0.176907 0
20.380000 -0.079686 0
20.385000 -0.005536 0
20.390000 0.046327 0
20.395000 0.085297 0
20.400000 0.119520 0
20.405000 0.153078 0
20.410000 0.187108 0
20.415000 0.221367 0
20.420000 0.255102 0
20.425000 0.287387 0
20.430000 0.317237 0
20.435000 0.343671 0
20.440000 0.365773 0
20.445000 0.382736 0
20.450000 0.393915 0
20.455000 0.398865 5
20.460000 0.397370 0
20.465000 0.389454 0
20.470000 0.375386 0
20.475000 0.355659 0
20.480000 0.330963 0
20.485000 0.302144 0
20.490000 0.270152 0
20.495000 0.235993 0
20.500000 0.200675 0
20.505000 0.165158 0
20.510000 0.130314 0
20.515000 0.096894 0
20.520000 0.065509 0
20.525000 0.036617 0
20.530000 0.010523 0
20.535000 -0.012609 0
20.540000 -0.032746 0
20.545000 -0.049960 0
20.550000 -0.064410 0
20.555000 -0.076315 0
20.560000 -0.085934 0
20.565000 -0.093546 0
20.570000 -0.099432 0
20.575000 -0.103862 0
20.580000 -0.107090 0
20.585000 -0.106821 0
20.590000 -0.105961 0
20.595000 -0.105105 0
20.600000 -0.104253 0
20.605000 -0.103402 0
20.610000 -0.102549 0
20.615000 -0.101689 0
20.620000 -0.100810 0
20.625000 -0.099891 0
20.630000 -0.098894 0
20.635000 -0.097756 0
20.640000 -0.096374 0
20.645000 -0.094587 0
20.650000 -0.092159 0
20.655000 -0.088754 0
20.660000 -0.083931 0
20.665000 -0.077136 0
20.670000 -0.067727 0
20.675000 -0.055030 0
20.680000 -0.038423 0
20.685000 -0.017462 0
20.690000 0.007977 0
20.695000 0.037556 0
20.700000 0.070372 0
20.705000 0.104920 0
20.710000 0.139154 0
20.715000 0.170657 0
20.720000 0.196911 0
20.725000 0.215624 0
20.730000 0.225057 1
20.735000 0.224291 0
20.740000 0.213376 0
20.745000 0.193320 0
20.750000 0.165941 0
20.755000 0.133572 0
20.760000 0.098665 0
20.765000 0.063208 0
20.770000 0.027799 0
20.775000 -0.009592 0
20.780000 -0.054086 0
20.785000 -0.111043 0
20.790000 -0.178396 0
20.795000 -0.238348 0
20.800000 -0.256904 2
20.805000 -0.193638 0
20.810000 -0.015414 0
20.815000 0.286002 0
20.820000 0.666101 0
20.825000 1.009748 0
20.830000 1.170476 3
20.835000 1.069475 0
20.840000 0.751107 0
20.845000 0.345943 0
20.850000 -0.015411 0
20.855000 -0.258550 0
20.860000 -0.365932 4
20.865000 -0.357941 0
20.870000 -0.277855 0
20.875000 -0.174711 0
20.880000 -0.083607 0
20.885000 -0.016624 0
20.890000 0.030823 0
20.895000 0.068098 0
20.900000 0.102061 0
20.905000 0.135812 0
20.910000 0.170046 0
20.915000 0.204391 0
20.920000 0.238084 0
20.925000 0.270220 0
20.930000 0.299854 0
20.935000 0.326050 0
20.940000 0.347936 0
20.945000 0.364748 0
20.950000 0.375876 0
20.955000 0.380899 5
20.960000 0.379610 0
20.965000 0.372029 0
20.970000 0.358407 0
20.975000 0.339204 0
20.980000 0.315068 0
20.985000 0.286797 0
20.990000 0.255295 0
20.995000 0.221522 0
21.000000 0.186447 0
21.005000 0.151002 0
21.010000 0.116044 0
21.015000 0.082321 0
21.020000 0.050454 0
21.025000 0.020921 0
21.030000 -0.005943 0
21.035000 -0.029942 0
21.040000 -0.051004 0
21.045000 -0.069166 0
21.050000 -0.084553 0
21.055000 -0.097354 0
21.060000 -0.107805 0
21.065000 -0.116168 0
21.070000 -0.122712 0
21.075000 -0.127704 0
21.080000 -0.131396 0
21.085000 -0.133492 0
21.090000 -0.132500 0
21.095000 -0.131512 0
21.100000 -0.130528 0
21.105000 -0.129548 0
21.110000 -0.128569 0
21.115000 -0.127588 0
21.120000 -0.126598 0
21.125000 -0.125584 0
21.130000 -0.124524 0
21.135000 -0.123375 0
21.140000 -0.122068 0
21.145000 -0.120495 0
21.150000 -0.118486 0
21.155000 -0.115799 0
21.160000 -0.112097 0
21.165000 -0.106939 0
21.170000 -0.099783 0
21.175000 -0.090006 0
21.180000 -0.076963 0
21.185000 -0.060064 0
21.190000 -0.038895 0
21.195000 -0.013343 0
21.200000 0.016266 0
21.205000 0.049079 0
21.210000 0.083675 0
21.215000 0.118118 0
21.220000 0.150112 0
21.225000 0.177237 0
21.230000 0.197250 0
21.235000 0.208390 0
21.240000 0.209632 1
21.245000 0.200845 0
21.250000 0.182818 0
21.255000 0.157137 0
21.260000 0.125950 0
21.265000 0.091624 0
21.270000 0.056274 0
21.275000 0.021014 0
21.280000 -0.015132 0
21.285000 -0.056121 0
21.290000 -0.107663 0
21.295000 -0.171723 0
21.300000 -0.238196 0
21.305000 -0.280590 2
21.310000 -0.261347 0
21.315000 -0.143585 0
21.320000 0.095308 0
21.325000 0.442824 0
21.330000 0.825029 0
21.335000 1.109127 0
21.340000 1.167930 3
21.345000 0.967254 0
21.350000 0.595181 0
21.355000 0.195367 0
21.360000 -0.120074 0
21.365000 -0.302487 0
21.370000 -0.353346 4
21.375000 -0.305800 0
21.380000 -0.209245 0
21.385000 -0.109079 0
21.390000 -0.029806 0
21.395000 0.026113 0
21.400000 0.067150 0
21.405000 0.102013 0
21.410000 0.135592 0
21.415000 0.169535 0
21.420000 0.203837 0
21.425000 0.237847 0
21.430000 0.270689 0
21.435000 0.301407 0
21.440000 0.329038 0
21.445000 0.352659 0
21.450000 0.371440 0
21.455000 0.384695 0
21.460000 0.391918 0
21.465000 0.392815 5
21.470000 0.387325 0
21.475000 0.375621 0
21.480000 0.358105 0
21.485000 0.335378 0
21.490000 0.308212 0
21.495000 0.277500 0
21.500000 0.244209 0
21.505000 0.209330 0
21.510000 0.173829 0
21.515000 0.138603 0
21.520000 0.104447 0
21.525000 0.072027 0
21.530000 0.041865 0
21.535000 0.014335 0
21.540000 -0.010331 0
21.545000 -0.032038 0
21.550000 -0.050802 0
21.555000 -0.066735 0
21.560000 -0.080020 0
21.565000 -0.090893 0
21.570000 -0.099616 0
21.575000 -0.106464 0
21.580000 -0.111711 0
21.585000 -0.115616 0
21.590000 -0.118415 0
21.595000 -0.118035 0
21.600000 -0.117120 0
21.605000 -0.116208 0
21.610000 -0.115299 0
21.615000 -0.114392 0
21.620000 -0.113482 0
21.625000 -0.112562 0
21.630000 -0.111619 0
21.635000 -0.110629 0
21.640000 -0.109550 0
21.645000 -0.108311 0
21.650000 -0.106799 0
21.655000 -0.104843 0
21.660000 -0.102192 0
21.665000 -0.098498 0
21.670000 -0.093306 0
21.675000 -0.086058 0
21.680000 -0.076114 0
21.685000 -0.062817 0
21.690000 -0.045576 0
21.695000 -0.023993 0
21.700000 0.002004 0
21.705000 0.032025 0
21.710000 0.065124 0
21.715000 0.099774 0
21.720000 0.133933 0
21.725000 0.165222 0
21.730000 0.191181 0
21.735000 0.209587 0
21.740000 0.218766 1
21.745000 0.217848 0
21.750000 0.206896 0
21.755000 0.186906 0
21.760000 0.159653 0
21.765000 0.127416 0
21.770000 0.092598 0
21.775000 0.057176 0
21.780000 0.021831 0
21.785000 -0.015237 0
21.790000 -0.058869 0
21.795000 -0.114532 0
21.800000 -0.181289 0
21.805000 -0.243536 0
21.810000 -0.269478 2
21.815000 -0.219610 0
21.820000 -0.059671 0
21.825000 0.223531 0
21.830000 0.596651 0
21.835000 0.958026 0
21.840000 1.163614 3
21.845000 1.114902 0
21.850000 0.832509 0
21.855000 0.433671 0
21.860000 0.053574 0
21.865000 -0.220605 0
21.870000 -0.360219 0
21.875000 -0.377798 4
21.880000 -0.311569 0
21.885000 -0.210235 0
21.890000 -0.113540 0
21.895000 -0.039565 0
21.900000 0.012723 0
21.905000 0.052209 0
21.910000 0.086740 0
21.915000 0.120422 0
21.920000 0.154526 0
21.925000 0.188927 0
21.930000 0.222964 0
21.935000 0.255781 0
21.940000 0.286458 0
21.945000 0.314066 0
21.950000 0.337719 0
21.955000 0.356620 0
21.960000 0.370106 0
21.965000 0.377685 0
21.970000 0.379066 5
21.975000 0.374174 0
21.980000 0.363159 0
21.985000 0.346387 0
21.990000 0.324415 0
21.995000 0.297968 0
22.000000 0.267889 0
22.005000 0.235102 0
22.010000 0.200561 0
22.015000 0.165204 0
22.020000 0.129916 0
22.025000 0.095489 0
22.030000 0.062599 0
22.035000 0.031790 0
22.040000 0.003466 0
22.045000 -0.022106 0
22.050000 -0.044792 0
22.055000 -0.064570 0
22.060000 -0.081516 0
22.065000 -0.095782 0
22.070000 -0.107576 0
22.075000 -0.117141 0
22.080000 -0.124741 0
22.085000 -0.130639 0
22.090000 -0.135095 0
22.095000 -0.138347 0
22.100000 -0.140136 0
22.105000 -0.139110 0
22.110000 -0.138089 0
22.115000 -0.137072 0
22.120000 -0.136059 0
22.125000 -0.135046 0
22.130000 -0.134029 0
22.135000 -0.133000 0
22.140000 -0.131943 0
22.145000 -0.130831 0
22.150000 -0.129616 0
22.155000 -0.128221 0
22.160000 -0.126527 0
22.165000 -0.124352 0
22.170000 -0.121436 0
22.175000 -0.117427 0
22.180000 -0.111868 0
22.185000 -0.104208 0
22.190000 -0.093826 0
22.195000 -0.080090 0
22.200000 -0.062444 0
22.205000 -0.040521 0
22.210000 -0.014275 0
22.215000 0.015899 0
22.220000 0.049081 0
22.225000 0.083799 0
22.230000 0.118095 0
22.235000 0.149685 0
22.240000 0.176194 0
22.245000 0.195454 0
22.250000 0.205792 0
22.255000 0.206273 1
22.260000 0.196841 0
22.265000 0.178327 0
22.270000 0.152331 0
22.275000 0.120983 0
22.280000 0.086612 0
22.285000 0.051277 0
22.290000 0.016041 0
22.295000 -0.020093 0
22.300000 -0.061030 0
22.305000 -0.112391 0
22.310000 -0.176218 0
22.315000 -0.242909 0
22.320000 -0.286871 2
22.325000 -0.271404 0
22.330000 -0.159940 0
22.335000 0.070994 0
22.340000 0.412233 0
22.345000 0.796141 0
22.350000 1.095328 0
22.355000 1.180257 3
22.360000 1.006445 0
22.365000 0.648323 0
22.370000 0.244072 0
22.375000 -0.089619 0
22.380000 -0.296111 0
22.385000 -0.369930 4
22.390000 -0.338576 0
22.395000 -0.248258 0
22.400000 -0.145707 0
22.405000 -0.060198 0
22.410000 0.001339 0
22.415000 0.045583 0
22.420000 0.081619 0
22.425000 0.115348 0
22.430000 0.149167 0
22.435000 0.183445 0
22.440000 0.217694 0
22.445000 0.251116 0
22.450000 0.282806 0
22.455000 0.311822 0
22.460000 0.337250 0
22.465000 0.358241 0
22.470000 0.374064 0
22.475000 0.384147 0
22.480000 0.388106 5
22.485000 0.385773 0
22.490000 0.377207 0
22.495000 0.362687 0
22.500000 0.342699 0
22.505000 0.317908 0
22.510000 0.289122 0
22.515000 0.257245 0
22.520000 0.223230 0
22.525000 0.188035 0
22.530000 0.152576 0
22.535000 0.117689 0
22.540000 0.084103 0
22.545000 0.052418 0
22.550000 0.023092 0
22.555000 -0.003555 0
22.560000 -0.027340 0
22.565000 -0.048202 0
22.570000 -0.066185 0
22.575000 -0.081418 0
22.580000 -0.094091 0
22.585000 -0.104441 0
22.590000 -0.112726 0
22.595000 -0.119215 0
22.600000 -0.124171 0
22.605000 -0.127841 0
22.610000 -0.129932 0
22.615000 -0.128957 0
22.620000 -0.127987 0
22.625000 -0.127021 0
22.630000 -0.126058 0
22.635000 -0.125097 0
22.640000 -0.124133 0
22.645000 -0.123160 0
22.650000 -0.122164 0
22.655000 -0.121122 0
22.660000 -0.119993 0
22.665000 -0.118710 0
22.670000 -0.117164 0
22.675000 -0.115194 0
22.680000 -0.112561 0
22.685000 -0.108936 0
22.690000 -0.103890 0
22.695000 -0.096888 0
22.700000 -0.087321 0
22.705000 -0.074548 0
22.710000 -0.057978 0
22.715000 -0.037183 0
22.720000 -0.012024 0
22.725000 0.017222 0
22.730000 0.049758 0
22.735000 0.084232 0
22.740000 0.118776 0
22.745000 0.151146 0
22.750000 0.178947 0
22.755000 0.199921 0
22.760000 0.212252 0
22.765000 0.214820 1
22.770000 0.207375 0
22.775000 0.190575 0
22.780000 0.165887 0
22.785000 0.135373 0
22.790000 0.101372 0
22.795000 0.066055 0
22.800000 0.030757 0
22.805000 -0.005051 0
22.810000 -0.044763 0
22.815000 -0.093986 0
22.820000 -0.155973 0
22.825000 -0.223581 0
22.830000 -0.273673 2
22.835000 -0.270436 0
22.840000 -0.176192 0
22.845000 0.035798 0
22.850000 0.363058 0
22.855000 0.747516 0
22.860000 1.067608 0
22.865000 1.187708 3
22.870000 1.047943 0
22.875000 0.708807 0
22.880000 0.302665 0
22.885000 -0.048361 0
22.890000 -0.278680 0
22.895000 -0.375579 4
22.900000 -0.361214 0
22.905000 -0.278669 0
22.910000 -0.175417 0
22.915000 -0.084808 0
22.920000 -0.018050 0
22.925000 0.029457 0
22.930000 0.066841 0
22.935000 0.100843 0
22.940000 0.134573 0
22.945000 0.168779 0
22.950000 0.203134 0
22.955000 0.236912 0
22.960000 0.269243 0
22.965000 0.299208 0
22.970000 0.325894 0
22.975000 0.348443 0
22.980000 0.366095 0
22.985000 0.378230 0
22.990000 0.384405 5
22.995000 0.384379 0
23.000000 0.378128 0
23.005000 0.365847 0
23.010000 0.347938 0
23.015000 0.324991 0
23.020000 0.297749 0
23.025000 0.267065 0
23.030000 0.233863 0
23.035000 0.199087 0
23.040000 0.163659 0
23.045000 0.128439 0
23.050000 0.094195 0
23.055000 0.061576 0
23.060000 0.031098 0
23.065000 0.003141 0
23.070000 -0.022053 0
23.075000 -0.044366 0
23.080000 -0.063790 0
23.085000 -0.080412 0
23.090000 -0.094390 0
23.095000 -0.105935 0
23.100000 -0.115291 0
23.105000 -0.122719 0
23.110000 -0.128481 0
23.115000 -0.132831 0
23.120000 -0.136004 0
23.125000 -0.137745 0
23.130000 -0.136731 0
23.135000 -0.135722 0
23.140000 -0.134717 0
23.145000 -0.133715 0
23.150000 -0.132713 0
23.155000 -0.131707 0
23.160000 -0.130689 0
23.165000 -0.129642 0
23.170000 -0.128538 0
23.175000 -0.127331 0
23.180000 -0.125943 0
23.185000 -0.124254 0
23.190000 -0.122084 0
23.195000 -0.119175 0
23.200000 -0.115177 0
23.205000 -0.109640 0
23.210000 -0.102018 0
23.215000 -0.091697 0
23.220000 -0.078052 0
23.225000 -0.060530 0
23.230000 -0.038761 0
23.235000 -0.012687 0
23.240000 0.017320 0
23.245000 0.050372 0
23.250000 0.085039 0
23.255000 0.119406 0
23.260000 0.151225 0
23.265000 0.178146 0
23.270000 0.197999 0
23.275000 0.209082 0
23.280000 0.210406 1
23.285000 0.201837 0
23.290000 0.184122 0
23.295000 0.158779 0
23.300000 0.127876 0
23.305000 0.093716 0
23.310000 0.058396 0
23.315000 0.023135 0
23.320000 -0.012739 0
23.325000 -0.052718 0
23.330000 -0.102349 0
23.335000 -0.164620 0
23.340000 -0.232146 0
23.345000 -0.281907 2
23.350000 -0.278635 0
23.355000 -0.185299 0
23.360000 0.024551 0
23.365000 0.349261 0
23.370000 0.733552 0
23.375000 1.059693 0
23.380000 1.193062 3
23.385000 1.068352 0
23.390000 0.738017 0
23.395000 0.331989 0
23.400000 -0.025320 0
23.405000 -0.264586 0
23.410000 -0.370214 4
23.415000 -0.362393 0
23.420000 -0.283087 0
23.425000 -0.179971 0
23.430000 -0.087782 0
23.435000 -0.019259 0
23.440000 0.029397 0
23.445000 0.067269 0
23.450000 0.101370 0
23.455000 0.135055 0
23.460000 0.169208 0
23.465000 0.203559 0
23.470000 0.237404 0
23.475000 0.269883 0
23.480000 0.300082 0
23.485000 0.327088 0
23.490000 0.350040 0
23.495000 0.368167 0
23.500000 0.380839 0
23.505000 0.387595 0
23.510000 0.388173 5
23.515000 0.382528 0
23.520000 0.370833 0
23.525000 0.353469 0
23.530000 0.331005 0
23.535000 0.304168 0
23.540000 0.273798 0
23.545000 0.240812 0
23.550000 0.206150 0
23.555000 0.170735 0
23.560000 0.135436 0
23.565000 0.101028 0
23.570000 0.068172 0
23.575000 0.037401 0
23.580000 0.009108 0
23.585000 -0.016447 0
23.590000 -0.039134 0
23.595000 -0.058932 0
23.600000 -0.075917 0
23.605000 -0.090238 0
23.610000 -0.102100 0
23.615000 -0.111744 0
23.620000 -0.119426 0
23.625000 -0.125411 0
23.630000 -0.129951 0
23.635000 -0.133286 0
23.640000 -0.135143 0
23.645000 -0.134142 0
23.650000 -0.133146 0
23.655000 -0.132154 0
23.660000 -0.131165 0
23.665000 -0.130177 0
23.670000 -0.129186 0
23.675000 -0.128184 0
23.680000 -0.127156 0
23.685000 -0.126077 0
23.690000 -0.124903 0
23.695000 -0.123563 0
23.700000 -0.121945 0
23.705000 -0.119880 0
23.710000 -0.117125 0
23.715000 -0.113347 0
23.720000 -0.108112 0
23.725000 -0.100892 0
23.730000 -0.091082 0
23.735000 -0.078057 0
23.740000 -0.061245 0
23.745000 -0.040238 0
23.750000 -0.014915 0
23.755000 0.014436 0
23.760000 0.047022 0
23.765000 0.081514 0
23.770000 0.116081 0
23.775000 0.148527 0
23.780000 0.176507 0
23.785000 0.197803 0
23.790000 0.210611 0
23.795000 0.213798 1
23.800000 0.207064 0
23.805000 0.190991 0
23.810000 0.166960 0
23.815000 0.136947 0
23.820000 0.103234 0
23.825000 0.067993 0
23.830000 0.032684 0
23.835000 -0.002895 0
23.840000 -0.041635 0
23.845000 -0.088875 0
23.850000 -0.148702 0
23.855000 -0.216511 0
23.860000 -0.272632 0
23.865000 -0.283731 2
23.870000 -0.212267 0
23.875000 -0.028482 0
23.880000 0.273962 0
23.885000 0.653436 0
23.890000 1.004408 0
23.895000 1.189460 3
23.900000 1.121039 0
23.905000 0.825548 0
23.910000 0.423862 0
23.915000 0.048612 0
23.920000 -0.217574 0
23.925000 -0.349361 0
23.930000 -0.361101 4
23.935000 -0.291837 0
23.940000 -0.190007 0
23.945000 -0.094230 0
23.950000 -0.021409 0
23.955000 0.030088 0
23.960000 0.069186 0
23.965000 0.103560 0
23.970000 0.137168 0
23.975000 0.171207 0
23.980000 0.205529 0
23.985000 0.239470 0
23.990000 0.272176 0
23.995000 0.302732 0
24.000000 0.330214 0
24.005000 0.353743 0
24.010000 0.372528 0
24.015000 0.385913 0
24.020000 0.393407 0
24.025000 0.394722 5
24.030000 0.389784 0
24.035000 0.378741 0
24.040000 0.361954 0
24.045000 0.339976 0
24.050000 0.313524 0
24.055000 0.283435 0
24.060000 0.250627 0
24.065000 0.216047 0
24.070000 0.180630 0
24.075000 0.145255 0
24.080000 0.110714 0
24.085000 0.077684 0
24.090000 0.046710 0
24.095000 0.018199 0
24.100000 -0.007577 0
24.105000 -0.030478 0
24.110000 -0.050478 0
24.115000 -0.067648 0
24.120000 -0.082135 0
24.125000 -0.094142 0
24.130000 -0.103911 0
24.135000 -0.111702 0
24.140000 -0.117778 0
24.145000 -0.122396 0
24.150000 -0.125797 0
24.155000 -0.127709 0
24.160000 -0.126745 0
24.165000 -0.125786 0
24.170000 -0.124831 0
24.175000 -0.123878 0
24.180000 -0.122927 0
24.185000 -0.121972 0
24.190000 -0.121005 0
24.195000 -0.120013 0
24.200000 -0.118968 0
24.205000 -0.117828 0
24.210000 -0.116519 0
24.215000 -0.114928 0
24.220000 -0.112882 0
24.225000 -0.110135 0
24.230000 -0.106347 0
24.235000 -0.101080 0
24.240000 -0.093794 0
24.245000 -0.083882 0
24.250000 -0.070710 0
24.255000 -0.053710 0
24.260000 -0.032482 0
24.265000 -0.006927 0
24.270000 0.022637 0
24.275000 0.055376 0
24.280000 0.089912 0
24.285000 0.124367 0
24.290000 0.156508 0
24.295000 0.183972 0
24.300000 0.204547 0
24.305000 0.216469 0
24.310000 0.218666 1
24.315000 0.210924 0
24.320000 0.193915 0
24.325000 0.169104 0
24.330000 0.138534 0
24.335000 0.104512 0
24.340000 0.069182 0
24.345000 0.033869 0
24.350000 -0.001919 0
24.355000 -0.041476 0
24.360000 -0.090321 0
24.365000 -0.151866 0
24.370000 -0.219613 0
24.375000 -0.271449 0
24.380000 -0.272442 2
24.385000 -0.185169 0
24.390000 0.017927 0
24.395000 0.337352 0
24.400000 0.720957 0
24.405000 1.053094 0
24.410000 1.197489 3
24.415000 1.084025 0
24.420000 0.760586 0
24.425000 0.354978 0
24.430000 -0.006898 0
24.435000 -0.252946 0
24.440000 -0.365340 4
24.445000 -0.362718 0
24.450000 -0.286102 0
24.455000 -0.183224 0
24.460000 -0.089843 0
24.465000 -0.019908 0
24.470000 0.029700 0
24.475000 0.067991 0
24.480000 0.102183 0
24.485000 0.135835 0
24.490000 0.169941 0
24.495000 0.204283 0
24.500000 0.238176 0
24.505000 0.270768 0
24.510000 0.301151 0
24.515000 0.328414 0
24.520000 0.351691 0
24.525000 0.370207 0
24.530000 0.383320 0
24.535000 0.390555 0
24.540000 0.391637 5
24.545000 0.386500 0
24.550000 0.375300 0
24.555000 0.358398 0
24.560000 0.336347 0
24.565000 0.309859 0
24.570000 0.279763 0
24.575000 0.246968 0
24.580000 0.212411 0
24.585000 0.177016 0
24.590000 0.141655 0
24.595000 0.107112 0
24.600000 0.074059 0
24.605000 0.043039 0
24.610000 0.014459 0
24.615000 -0.011409 0
24.620000 -0.034420 0
24.625000 -0.054545 0
24.630000 -0.071847 0
24.635000 -0.086470 0
24.640000 -0.098613 0
24.645000 -0.108511 0
24.650000 -0.116421 0
24.655000 -0.122605 0
24.660000 -0.127317 0
24.665000 -0.130797 0
24.670000 -0.132760 0
24.675000 -0.131771 0
24.680000 -0.130787 0
24.685000 -0.129807 0
24.690000 -0.128830 0
24.695000 -0.127854 0
24.700000 -0.126876 0
24.705000 -0.125888 0
24.710000 -0.124877 0
24.715000 -0.123819 0
24.720000 -0.122674 0
24.725000 -0.121375 0
24.730000 -0.119817 0
24.735000 -0.117841 0
24.740000 -0.115217 0
24.745000 -0.111625 0
24.750000 -0.106649 0
24.755000 -0.099775 0
24.760000 -0.090409 0
24.765000 -0.077926 0
24.770000 -0.061742 0
24.775000 -0.041418 0
24.780000 -0.016779 0
24.785000 0.011958 0
24.790000 0.044089 0
24.795000 0.078373 0
24.800000 0.113058 0
24.805000 0.146002 0
24.810000 0.174874 0
24.815000 0.197422 0
24.820000 0.211758 0
24.825000 0.216626 1
24.830000 0.211576 0
24.835000 0.197039 0
24.840000 0.174264 0
24.845000 0.145138 0
24.850000 0.111905 0
24.855000 0.076789 0
24.860000 0.041432 0
24.865000 0.006018 0
24.870000 -0.031793 0
24.875000 -0.077024 0
24.880000 -0.134465 0
24.885000 -0.201782 0
24.890000 -0.262409 0
24.895000 -0.285162 2
24.900000 -0.232511 0
24.905000 -0.072277 0
24.910000 0.208114 0
24.915000 0.578682 0
24.920000 0.946357 0
24.925000 1.174920 3
24.930000 1.160223 0
24.935000 0.903448 0
24.940000 0.511299 0
24.945000 0.123040 0
24.950000 -0.165654 0
24.955000 -0.319768 0
24.960000 -0.348364 4
24.965000 -0.288140 0
24.970000 -0.188210 0
24.975000 -0.090315 0
24.980000 -0.014654 0
24.985000 0.038716 0
24.990000 0.078590 0
24.995000 0.113115 0
25.000000 0.146653 0
25.005000 0.180597 0
25.010000 0.214861 0
25.015000 0.248785 0
25.020000 0.281509 0
25.025000 0.312098 0
25.030000 0.339612 0
25.035000 0.363154 0
25.040000 0.381915 0
25.045000 0.395224 0
25.050000 0.402585 0
25.055000 0.403705 5
25.060000 0.398514 0
25.065000 0.387170 0
25.070000 0.370050 0
25.075000 0.347726 0
25.080000 0.320938 0
25.085000 0.290546 0
25.090000 0.257489 0
25.095000 0.222733 0
25.100000 0.187227 0
25.105000 0.151859 0
25.110000 0.117422 0
25.115000 0.084590 0
25.120000 0.053900 0
25.125000 0.025747 0
25.130000 0.000384 0
25.135000 -0.022066 0
25.140000 -0.041594 0
25.145000 -0.058288 0
25.150000 -0.072312 0
25.155000 -0.083881 0
25.160000 -0.093247 0
25.165000 -0.100677 0
25.170000 -0.106439 0
25.175000 -0.110791 0
25.180000 -0.113973 0
25.185000 -0.113670 0
25.190000 -0.112776 0
25.195000 -0.111887 0
25.200000 -0.111000 0
25.205000 -0.110116 0
25.210000 -0.109231 0
25.215000 -0.108340 0
25.220000 -0.107433 0
25.225000 -0.106492 0
25.230000 -0.105486 0
25.235000 -0.104359 0
25.240000 -0.103024 0
25.245000 -0.101346 0
25.250000 -0.099121 0
25.255000 -0.096062 0
25.260000 -0.091784 0
25.265000 -0.085793 0
25.270000 -0.077508 0
25.275000 -0.066289 0
25.280000 -0.051508 0
25.285000 -0.032649 0
25.290000 -0.009428 0
25.295000 0.018069 0
25.300000 0.049273 0
25.305000 0.083062 0
25.310000 0.117766 0
25.315000 0.151262 0
25.320000 0.181173 0
25.325000 0.205135 0
25.330000 0.221105 0
25.335000 0.227643 1
25.340000 0.224133 0
25.345000 0.210871 0
25.350000 0.189029 0
25.355000 0.160475 0
25.360000 0.127496 0
25.365000 0.092404 0
25.370000 0.056969 0
25.375000 0.021523 0
25.380000 -0.016179 0
25.385000 -0.061217 0
25.390000 -0.118583 0
25.395000 -0.185975 0
25.400000 -0.246267 0
25.405000 -0.267148 2
25.410000 -0.209983 0
25.415000 -0.042257 0
25.420000 0.246925 0
25.425000 0.622003 0
25.430000 0.981206 0
25.435000 1.183638 3
25.440000 1.133436 0
25.445000 0.850394 0
25.450000 0.451420 0
25.455000 0.071071 0
25.460000 -0.203774 0
25.465000 -0.344394 0
25.470000 -0.363041 4
25.475000 -0.297588 0
25.480000 -0.196501 0
25.485000 -0.099587 0
25.490000 -0.025219 0
25.495000 0.027373 0
25.500000 0.066982 0
25.505000 0.101496 0
25.510000 0.135096 0
25.515000 0.169105 0
25.520000 0.203427 0
25.525000 0.237413 0
25.530000 0.270217 0
25.535000 0.300922 0
25.540000 0.328605 0
25.545000 0.352381 0
25.550000 0.371451 0
25.555000 0.385150 0
25.560000 0.392977 0
25.565000 0.394631 5
25.570000 0.390026 0
25.575000 0.379299 0
25.580000 0.362801 0
25.585000 0.341076 0
25.590000 0.314833 0
25.595000 0.284907 0
25.600000 0.252212 0
25.605000 0.217697 0
25.610000 0.182300 0
25.615000 0.146905 0
25.620000 0.112308 0
25.625000 0.079194 0
25.630000 0.048115 0
25.635000 0.019486 0
25.640000 -0.006417 0
25.645000 -0.029447 0
25.650000 -0.049574 0
25.655000 -0.066863 0
25.660000 -0.081460 0
25.665000 -0.093567 0
25.670000 -0.103424 0
25.675000 -0.111290 0
25.680000 -0.117430 0
25.685000 -0.122101 0
25.690000 -0.125546 0
25.695000 -0.127488 0
25.700000 -0.126525 0
25.705000 -0.125567 0
25.710000 -0.124613 0
25.715000 -0.123662 0
25.720000 -0.122711 0
25.725000 -0.121758 0
25.730000 -0.120793 0
25.735000 -0.119803 0
25.740000 -0.118762 0
25.745000 -0.117627 0
25.750000 -0.116326 0
25.755000 -0.114747 0
25.760000 -0.112719 0
25.765000 -0.109998 0
25.770000 -0.106247 0
25.775000 -0.101029 0
25.780000 -0.093808 0
25.785000 -0.083975 0
25.790000 -0.070898 0
25.795000 -0.054003 0
25.800000 -0.032885 0
25.805000 -0.007435 0
25.810000 0.022040 0
25.815000 0.054719 0
25.820000 0.089232 0
25.825000 0.123712 0
25.830000 0.155927 0
25.835000 0.183510 0
25.840000 0.204244 0
25.845000 0.216346 0
25.850000 0.218732 1
25.855000 0.211168 0
25.860000 0.194311 0
25.865000 0.169617 0
25.870000 0.139123 0
25.875000 0.105138 0
25.880000 0.069814 0
25.885000 0.034497 0
25.890000 -0.001269 0
25.895000 -0.040743 0
25.900000 -0.089438 0
25.905000 -0.150841 0
25.910000 -0.218612 0
25.915000 -0.270791 0
25.920000 -0.272498 2
25.925000 -0.186230 0
25.930000 0.015765 0
25.935000 0.334340 0
25.940000 0.717816 0
25.945000 1.050819 0
25.950000 1.196780 3
25.955000 1.082712 0
25.960000 0.755016 0
25.965000 0.349106 0
25.970000 -0.004896 0
25.975000 -0.236237 0
25.980000 -0.331162 4
25.985000 -0.313313 0
25.990000 -0.228332 0
25.995000 -0.125442 0
26.000000 -0.037583 0
26.005000 0.025869 0
26.010000 0.070979 0
26.015000 0.107184 0
26.020000 0.140813 0
26.025000 0.174484 0
26.030000 0.208626 0
26.035000 0.242749 0
26.040000 0.276034 0
26.045000 0.307544 0
26.050000 0.336314 0
26.055000 0.361400 0
26.060000 0.381936 0
26.065000 0.397178 0
26.070000 0.406552 0
26.075000 0.409685 5
26.080000 0.406428 0
26.085000 0.396872 0
26.090000 0.381336 0
26.095000 0.360352 0
26.100000 0.334632 0
26.105000 0.305031 0
26.110000 0.272492 0
26.115000 0.238003 0
26.120000 0.202544 0
26.125000 0.167040 0
26.130000 0.132327 0
26.135000 0.099119 0
26.140000 0.067993 0
26.145000 0.039377 0
26.150000 0.013553 0
26.155000 -0.009333 0
26.160000 -0.029260 0
26.165000 -0.046305 0
26.170000 -0.060628 0
26.175000 -0.072447 0
26.180000 -0.082017 0
26.185000 -0.089609 0
26.190000 -0.095498 0
26.195000 -0.099951 0
26.200000 -0.103212 0
26.205000 -0.102965 0
26.210000 -0.102125 0
26.215000 -0.101288 0
26.220000 -0.100454 0
26.225000 -0.099623 0
26.230000 -0.098789 0
26.235000 -0.097950 0
26.240000 -0.097093 0
26.245000 -0.096199 0
26.250000 -0.095234 0
26.255000 -0.094140 0
26.260000 -0.092823 0
26.265000 -0.091135 0
26.270000 -0.088859 0
26.275000 -0.085687 0
26.280000 -0.081205 0
26.285000 -0.074894 0
26.290000 -0.066142 0
26.295000 -0.054290 0
26.300000 -0.038710 0
26.305000 -0.018912 0
26.310000 0.005317 0
26.315000 0.033782 0
26.320000 0.065762 0
26.325000 0.099955 0
26.330000 0.134507 0
26.335000 0.167146 0
26.340000 0.195412 0
26.345000 0.216951 0
26.350000 0.229843 0
26.355000 0.232878 1
26.360000 0.225745 0
26.365000 0.209083 0
26.370000 0.184383 0
26.375000 0.153763 0
26.380000 0.119627 0
26.385000 0.084201 0
26.390000 0.048811 0
26.395000 0.012784 0
26.400000 -0.027568 0
26.405000 -0.078043 0
26.410000 -0.141335 0
26.415000 -0.208454 0
26.420000 -0.253597 2
26.425000 -0.238918 0
26.430000 -0.126481 0
26.435000 0.107768 0
26.440000 0.452830 0
26.445000 0.835265 0
26.450000 1.120575 0
26.455000 1.178938 3
26.460000 0.978039 0
26.465000 0.606970 0
26.470000 0.206149 0
26.475000 -0.113556 0
26.480000 -0.302588 0
26.485000 -0.360570 4
26.490000 -0.318457 0
26.495000 -0.223991 0
26.500000 -0.122662 0
26.505000 -0.040673 0
26.510000 0.017701 0
26.515000 0.060140 0
26.520000 0.095499 0
26.525000 0.129112 0
26.530000 0.162970 0
26.535000 0.197247 0
26.540000 0.231378 0
26.545000 0.264534 0
26.550000 0.295791 0
26.555000 0.324205 0
26.560000 0.348863 0
26.565000 0.368929 0
26.570000 0.383694 0
26.575000 0.392614 0
26.580000 0.395342 5
26.585000 0.391753 0
26.590000 0.381948 0
26.595000 0.366252 0
26.600000 0.345192 0
26.605000 0.319470 0
26.610000 0.289922 0
26.615000 0.257472 0
26.620000 0.223086 0
26.625000 0.187720 0
26.630000 0.152281 0
26.635000 0.117590 0
26.640000 0.084353 0
26.645000 0.053140 0
26.650000 0.024381 0
26.655000 -0.001636 0
26.660000 -0.024757 0
26.665000 -0.044948 0
26.670000 -0.062275 0
26.675000 -0.076886 0
26.680000 -0.088986 0
26.685000 -0.098820 0
26.690000 -0.106652 0
26.695000 -0.112752 0
26.700000 -0.117381 0
26.705000 -0.120784 0
26.710000 -0.122699 0
26.715000 -0.121761 0
26.720000 -0.120826 0
26.725000 -0.119896 0
26.730000 -0.118968 0
26.735000 -0.118040 0
26.740000 -0.117108 0
26.745000 -0.116164 0
26.750000 -0.115191 0
26.755000 -0.114161 0
26.760000 -0.113027 0
26.765000 -0.111710 0
26.770000 -0.110086 0
26.775000 -0.107969 0
26.780000 -0.105095 0
26.785000 -0.101099 0
26.790000 -0.095515 0
26.795000 -0.087778 0
26.800000 -0.077257 0
26.805000 -0.063312 0
26.810000 -0.045391 0
26.815000 -0.023145 0
26.820000 0.003438 0
26.825000 0.033907 0
26.830000 0.067271 0
26.835000 0.101978 0
26.840000 0.135994 0
26.845000 0.166977 0
26.850000 0.192532 0
26.855000 0.210514 0
26.860000 0.219322 1
26.865000 0.218139 0
26.870000 0.207053 0
26.875000 0.187048 0
26.880000 0.159858 0
26.885000 0.127706 0
26.890000 0.092942 0
26.895000 0.057524 0
26.900000 0.022205 0
26.905000 -0.014599 0
26.910000 -0.057437 0
26.915000 -0.111816 0
26.920000 -0.177818 0
26.925000 -0.242001 0
26.930000 -0.274911 2
26.935000 -0.238244 0
26.940000 -0.096981 0
26.945000 0.166357 0
26.950000 0.528904 0
26.955000 0.903390 0
26.960000 1.151691 0
26.965000 1.159278 3
26.970000 0.916547 0
26.975000 0.527803 0
26.980000 0.137965 0
26.985000 -0.151849 0
26.990000 -0.304639 0
26.995000 -0.330108 4
27.000000 -0.266934 0
27.005000 -0.166154 0
27.010000 -0.069842 0
27.015000 0.003124 0
27.020000 0.054218 0
27.025000 0.092857 0
27.030000 0.126982 0
27.035000 0.160515 0
27.040000 0.194523 0
27.045000 0.228746 0
27.050000 0.262433 0
27.055000 0.294663 0
27.060000 0.324460 0
27.065000 0.350853 0
27.070000 0.372933 0
27.075000 0.389900 0
27.080000 0.401113 0
27.085000 0.406130 5
27.090000 0.404731 0
27.095000 0.396937 0
27.100000 0.383008 0
27.105000 0.363427 0
27.110000 0.338872 0
27.115000 0.310176 0
27.120000 0.278278 0
27.125000 0.244173 0
27.130000 0.208863 0
27.135000 0.173302 0
27.140000 0.138360 0
27.145000 0.104792 0
27.150000 0.073212 0
27.155000 0.044085 0
27.160000 0.017727 0
27.165000 -0.005692 0
27.170000 -0.026125 0
27.175000 -0.043637 0
27.180000 -0.058379 0
27.185000 -0.070562 0
27.190000 -0.080440 0
27.195000 -0.088287 0
27.200000 -0.094384 0
27.205000 -0.099001 0
27.210000 -0.102389 0
27.215000 -0.104310 0
27.220000 -0.103463 0
27.225000 -0.102620 0
27.230000 -0.101780 0
27.235000 -0.100941 0
27.240000 -0.100102 0
27.245000 -0.099257 0
27.250000 -0.098395 0
27.255000 -0.097497 0
27.260000 -0.096530 0
27.265000 -0.095436 0
27.270000 -0.094121 0
27.275000 -0.092436 0
27.280000 -0.090164 0
27.285000 -0.086992 0
27.290000 -0.082502 0
27.295000 -0.076168 0
27.300000 -0.067367 0
27.305000 -0.055431 0
27.310000 -0.039724 0
27.315000 -0.019757 0
27.320000 0.004675 0
27.325000 0.033351 0
27.330000 0.065512 0
27.335000 0.099801 0
27.340000 0.134306 0
27.345000 0.166700 0
27.350000 0.194483 0
27.355000 0.215295 0
27.360000 0.227243 0
27.365000 0.229187 1
27.370000 0.220915 0
27.375000 0.203184 0
27.380000 0.177599 0
27.385000 0.146366 0
27.390000 0.111931 0
27.395000 0.076473 0
27.400000 0.041106 0
27.405000 0.004707 0
27.410000 -0.036975 0
27.415000 -0.089787 0
27.420000 -0.154963 0
27.425000 -0.220308 0
27.430000 -0.256563 2
27.435000 -0.224262 0
27.440000 -0.086624 0
27.445000 0.175240 0
27.450000 0.538110 0
27.455000 0.910922 0
27.460000 1.150091 3
27.465000 1.140598 0
27.470000 0.882687 0
27.475000 0.489806 0
27.480000 0.103133 0
27.485000 -0.181529 0
27.490000 -0.330244 0
27.495000 -0.353575 4
27.500000 -0.289792 0
27.505000 -0.188912 0
27.510000 -0.092215 0
27.515000 -0.018515 0
27.520000 0.033304 0
27.525000 0.072407 0
27.530000 0.106738 0
27.535000 0.140343 0
27.540000 0.174400 0
27.545000 0.208716 0
27.550000 0.242581 0
27.555000 0.275104 0
27.560000 0.305331 0
27.565000 0.332309 0
27.570000 0.355138 0
27.575000 0.373017 0
27.580000 0.385293 0
27.585000 0.391497 5
27.590000 0.391376 0
27.595000 0.384906 0
27.600000 0.372295 0
27.605000 0.353975 0
27.610000 0.330568 0
27.615000 0.302860 0
27.620000 0.271749 0
27.625000 0.238202 0
27.630000 0.203201 0
27.635000 0.167695 0
27.640000 0.132566 0
27.645000 0.098587 0
27.650000 0.066402 0
27.655000 0.036514 0
27.660000 0.009278 0
27.665000 -0.015092 0
27.670000 -0.036510 0
27.675000 -0.055004 0
27.680000 -0.070692 0
27.685000 -0.083761 0
27.690000 -0.094447 0
27.695000 -0.103012 0
27.700000 -0.109729 0
27.705000 -0.114869 0
27.710000 -0.118687 0
27.715000 -0.120886 0
27.720000 -0.119956 0
27.725000 -0.119031 0
27.730000 -0.118110 0
27.735000 -0.117192 0
27.740000 -0.116274 0
27.745000 -0.115355 0
27.750000 -0.114425 0
27.755000 -0.113473 0
27.760000 -0.112472 0
27.765000 -0.111382 0
27.770000 -0.110132 0
27.775000 -0.108610 0
27.780000 -0.106645 0
27.785000 -0.103988 0
27.790000 -0.100295 0
27.795000 -0.095117 0
27.800000 -0.087898 0
27.805000 -0.078009 0
27.810000 -0.064795 0
27.815000 -0.047668 0
27.820000 -0.026225 0
27.825000 -0.000382 0
27.830000 0.029492 0
27.835000 0.062485 0
27.840000 0.097107 0
27.845000 0.131357 0
27.850000 0.162886 0
27.855000 0.189251 0
27.860000 0.208224 0
27.865000 0.218100 1
27.870000 0.217952 0
27.875000 0.207773 0
27.880000 0.188482 0
27.885000 0.161782 0
27.890000 0.129904 0
27.895000 0.095239 0
27.900000 0.059821 0
27.905000 0.024506 0
27.910000 -0.012183 0
27.915000 -0.054757 0
27.920000 -0.108844 0
27.925000 -0.174733 0
27.930000 -0.239006 0
27.935000 -0.271852 2
27.940000 -0.234380 0
27.945000 -0.091122 0
27.950000 0.175167 0
27.955000 0.539819 0
27.960000 0.911952 0
27.965000 1.150556 3
27.970000 1.143094 0
27.975000 0.887706 0
27.980000 0.495097 0
27.985000 0.108846 0
27.990000 -0.173935 0
27.995000 -0.319478 0
28.000000 -0.339337 4
28.005000 -0.273103 0
28.010000 -0.171692 0
28.015000 -0.076145 0
28.020000 -0.004187 0
28.025000 0.046258 0
28.030000 0.084649 0
28.035000 0.118753 0
28.040000 0.152343 0
28.045000 0.186412 0
28.050000 0.220677 0
28.055000 0.254381 0
28.060000 0.286605 0
28.065000 0.316373 0
28.070000 0.342723 0
28.075000 0.364747 0
28.080000 0.381655 0
28.085000 0.392811 0
28.090000 0.397776 5
28.095000 0.396337 0
28.100000 0.388517 0
28.105000 0.374577 0
28.110000 0.355001 0
28.115000 0.330466 0
28.120000 0.301800 0
28.125000 0.269941 0
28.130000 0.235880 0
28.135000 0.200614 0
28.140000 0.165093 0
28.145000 0.130187 0
28.150000 0.096645 0
28.155000 0.065083 0
28.160000 0.035965 0
28.165000 0.009606 0
28.170000 -0.013820 0
28.175000 -0.034266 0
28.180000 -0.051796 0
28.185000 -0.066555 0
28.190000 -0.078756 0
28.195000 -0.088650 0
28.200000 -0.096509 0
28.205000 -0.102614 0
28.210000 -0.107233 0
28.215000 -0.110618 0
28.220000 -0.112525 0
28.225000 -0.111637 0
28.230000 -0.110753 0
28.235000 -0.109872 0
28.240000 -0.108994 0
28.245000 -0.108115 0
28.250000 -0.107230 0
28.255000 -0.106330 0
28.260000 -0.105396 0
28.265000 -0.104394 0
28.270000 -0.103271 0
28.275000 -0.101933 0
28.280000 -0.100237 0
28.285000 -0.097971 0
28.290000 -0.094830 0
28.295000 -0.090405 0
28.300000 -0.084177 0
28.305000 -0.075534 0
28.310000 -0.063809 0
28.315000 -0.048364 0
28.320000 -0.028696 0
28.325000 -0.004575 0
28.330000 0.023819 0
28.335000 0.055772 0
28.340000 0.089984 0
28.345000 0.124592 0
28.350000 0.157305 0
28.355000 0.185637 0
28.360000 0.207209 0
28.365000 0.220082 0
28.370000 0.223040 1
28.375000 0.215780 0
28.380000 0.198964 0
28.385000 0.174115 0
28.390000 0.143386 0
28.395000 0.109208 0
28.400000 0.073811 0
28.405000 0.038470 0
