0.000000 1.164619 3
0.005000 1.056043 0
0.010000 0.783182 0
0.015000 0.434308 0
0.020000 0.101417 0
0.025000 -0.154353 0
0.030000 -0.308599 0
0.035000 -0.364159 4
0.040000 -0.341953 0
0.045000 -0.273632 0
0.050000 -0.191736 0
0.055000 -0.119352 0
0.060000 -0.065552 0
0.065000 -0.028430 0
0.070000 -0.001579 0
0.075000 0.020945 0
0.080000 0.042827 0
0.085000 0.065766 0
0.090000 0.090315 0
0.095000 0.116487 0
0.100000 0.144064 0
0.105000 0.172699 0
0.110000 0.201958 0
0.115000 0.231335 0
0.120000 0.260263 0
0.125000 0.288131 0
0.130000 0.314308 0
0.135000 0.338162 0
0.140000 0.359083 0
0.145000 0.376516 0
0.150000 0.389977 0
0.155000 0.399079 0
0.160000 0.403550 5
0.165000 0.403243 0
0.170000 0.398148 0
0.175000 0.388387 0
0.180000 0.374217 0
0.185000 0.356008 0
0.190000 0.334236 0
0.195000 0.309457 0
0.200000 0.282283 0
0.205000 0.253359 0
0.210000 0.223336 0
0.215000 0.192847 0
0.220000 0.162488 0
0.225000 0.132795 0
0.230000 0.104236 0
0.235000 0.077196 0
0.240000 0.051979 0
0.245000 0.028801 0
0.250000 0.007797 0
0.255000 -0.010972 0
0.260000 -0.027514 0
0.265000 -0.041892 0
0.270000 -0.054212 0
0.275000 -0.064616 0
0.280000 -0.073269 0
0.285000 -0.080347 0
0.290000 -0.086034 0
0.295000 -0.090508 0
0.300000 -0.093942 0
0.305000 -0.096496 0
0.310000 -0.098315 0
0.315000 -0.099530 0
0.320000 -0.100254 0
0.325000 -0.100584 0
0.330000 -0.100459 0
0.335000 -0.099495 0
0.340000 -0.098535 0
0.345000 -0.097580 0
0.350000 -0.096630 0
0.355000 -0.095685 0
0.360000 -0.094744 0
0.365000 -0.093808 0
0.370000 -0.092876 0
0.375000 -0.091949 0
0.380000 -0.091025 0
0.385000 -0.090104 0
0.390000 -0.089184 0
0.395000 -0.088263 0
0.400000 -0.087334 0
0.405000 -0.086388 0
0.410000 -0.085410 0
0.415000 -0.084374 0
0.420000 -0.083240 0
0.425000 -0.081945 0
0.430000 -0.080400 0
0.435000 -0.078474 0
0.440000 -0.075990 0
0.445000 -0.072712 0
0.450000 -0.068343 0
0.455000 -0.062525 0
0.460000 -0.054852 0
0.465000 -0.044890 0
0.470000 -0.032221 0
0.475000 -0.016490 0
0.480000 0.002523 0
0.485000 0.024837 0
0.490000 0.050202 0
0.495000 0.078053 0
0.500000 0.107487 0
0.505000 0.137287 0
0.510000 0.165985 0
0.515000 0.191976 0
0.520000 0.213658 0
0.525000 0.229597 0
0.530000 0.238684 0
0.535000 0.240259 1
0.540000 0.234195 0
0.545000 0.220911 0
0.550000 0.201328 0
0.555000 0.176758 0
0.560000 0.148764 0
0.565000 0.118988 0
0.570000 0.088974 0
0.575000 0.059967 0
0.580000 0.032623 0
0.585000 0.006571 0
0.590000 -0.020143 0
0.595000 -0.051228 0
0.600000 -0.090933 0
0.605000 -0.140708 0
0.610000 -0.194669 0
0.615000 -0.236951 0
0.620000 -0.243682 2
0.625000 -0.188735 0
0.630000 -0.050392 0
0.635000 0.180560 0
0.640000 0.487810 0
0.645000 0.816086 0
0.650000 1.075118 0
0.655000 1.174449 3
0.660000 1.073629 0
0.665000 0.806277 0
0.670000 0.458728 0
0.675000 0.123117 0
0.680000 -0.137945 0
0.685000 -0.298422 0
0.690000 -0.359818 4
0.695000 -0.341962 0
0.700000 -0.275817 0
0.705000 -0.193984 0
0.710000 -0.120346 0
0.715000 -0.064978 0
0.720000 -0.026654 0
0.725000 0.000835 0
0.730000 0.023552 0
0.735000 0.045370 0
0.740000 0.068137 0
0.745000 0.092482 0
0.750000 0.118457 0
0.755000 0.145862 0
0.760000 0.174366 0
0.765000 0.203549 0
0.770000 0.232915 0
0.775000 0.261909 0
0.780000 0.289930 0
0.785000 0.316353 0
0.790000 0.340548 0
0.795000 0.361909 0
0.800000 0.379873 0
0.805000 0.393948 0
0.810000 0.403735 0
0.815000 0.408944 0
0.820000 0.409410 5
0.825000 0.405098 0
0.830000 0.396109 0
0.835000 0.382674 0
0.840000 0.365142 0
0.845000 0.343968 0
0.850000 0.319689 0
0.855000 0.292905 0
0.860000 0.264251 0
0.865000 0.234374 0
0.870000 0.203907 0
0.875000 0.173450 0
0.880000 0.143550 0
0.885000 0.114686 0
0.890000 0.087258 0
0.895000 0.061586 0
0.900000 0.037904 0
0.905000 0.016364 0
0.910000 -0.002958 0
0.915000 -0.020054 0
0.920000 -0.034973 0
0.925000 -0.047813 0
0.930000 -0.058706 0
0.935000 -0.067811 0
0.940000 -0.075301 0
0.945000 -0.081356 0
0.950000 -0.086156 0
0.955000 -0.089874 0
0.960000 -0.092673 0
0.965000 -0.094702 0
0.970000 -0.096093 0
0.975000 -0.096964 0
0.980000 -0.097416 0
0.985000 -0.097379 0
0.990000 -0.096430 0
0.995000 -0.095486 0
1.000000 -0.094546 0
1.005000 -0.093611 0
1.010000 -0.092681 0
1.015000 -0.091755 0
1.020000 -0.090834 0
1.025000 -0.089917 0
1.030000 -0.089004 0
1.035000 -0.088096 0
1.040000 -0.087190 0
1.045000 -0.086286 0
1.050000 -0.085382 0
1.055000 -0.084472 0
1.060000 -0.083550 0
1.065000 -0.082602 0
1.070000 -0.081607 0
1.075000 -0.080530 0
1.080000 -0.079320 0
1.085000 -0.077898 0
1.090000 -0.076151 0
1.095000 -0.073921 0
1.100000 -0.070999 0
1.105000 -0.067114 0
1.110000 -0.061933 0
1.115000 -0.055070 0
1.120000 -0.046102 0
1.125000 -0.034601 0
1.130000 -0.020185 0
1.135000 -0.002570 0
1.140000 0.018353 0
1.145000 0.042457 0
1.150000 0.069317 0
1.155000 0.098182 0
1.160000 0.127972 0
1.165000 0.157329 0
1.170000 0.184705 0
1.175000 0.208490 0
1.180000 0.227166 0
1.185000 0.239469 0
1.190000 0.244527 1
1.195000 0.241968 0
1.200000 0.231956 0
1.205000 0.215182 0
1.210000 0.192781 0
1.215000 0.166207 0
1.220000 0.137071 0
1.225000 0.106977 0
1.230000 0.077331 0
1.235000 0.049116 0
1.240000 0.022538 0
1.245000 -0.003497 0
1.250000 -0.031828 0
1.255000 -0.066675 0
1.260000 -0.111443 0
1.265000 -0.164580 0
1.270000 -0.215565 0
1.275000 -0.244328 2
1.280000 -0.225303 0
1.285000 -0.133784 0
1.290000 0.047259 0
1.295000 0.317213 0
1.300000 0.643365 0
1.305000 0.952873 0
1.310000 1.150126 0
1.315000 1.161612 3
1.320000 0.979735 0
1.325000 0.666336 0
1.330000 0.313640 0
1.335000 0.002172 0
1.340000 -0.221752 0
1.345000 -0.344352 0
1.350000 -0.374538 4
1.355000 -0.336322 0
1.360000 -0.261596 0
1.365000 -0.180309 0
1.370000 -0.111653 0
1.375000 -0.061588 0
1.380000 -0.026859 0
1.385000 -0.001076 0
1.390000 0.021187 0
1.395000 0.043154 0
1.400000 0.066273 0
1.405000 0.090990 0
1.410000 0.117289 0
1.415000 0.144945 0
1.420000 0.173618 0
1.425000 0.202887 0
1.430000 0.232260 0
1.435000 0.261190 0
1.440000 0.289089 0
1.445000 0.315346 0
1.450000 0.339351 0
1.455000 0.360516 0
1.460000 0.378297 0
1.465000 0.392222 0
1.470000 0.401905 0
1.475000 0.407068 0
1.480000 0.407550 5
1.485000 0.403321 0
1.490000 0.394475 0
1.495000 0.381234 0
1.500000 0.363934 0
1.505000 0.343011 0
1.510000 0.318984 0
1.515000 0.292432 0
1.520000 0.263971 0
1.525000 0.234230 0
1.530000 0.203830 0
1.535000 0.173358 0
1.540000 0.143355 0
1.545000 0.114299 0
1.550000 0.086595 0
1.555000 0.060568 0
1.560000 0.036462 0
1.565000 0.014444 0
1.570000 -0.005397 0
1.575000 -0.023038 0
1.580000 -0.038512 0
1.585000 -0.051903 0
1.590000 -0.063332 0
1.595000 -0.072946 0
1.600000 -0.080910 0
1.605000 -0.087398 0
1.610000 -0.092587 0
1.615000 -0.096647 0
1.620000 -0.099742 0
1.625000 -0.102020 0
1.630000 -0.103619 0
1.635000 -0.104658 0
1.640000 -0.105243 0
1.645000 -0.105463 0
1.650000 -0.104649 0
1.655000 -0.103663 0
1.660000 -0.102683 0
1.665000 -0.101707 0
1.670000 -0.100737 0
1.675000 -0.099771 0
1.680000 -0.098810 0
1.685000 -0.097853 0
1.690000 -0.096901 0
1.695000 -0.095954 0
1.700000 -0.095010 0
1.705000 -0.094069 0
1.710000 -0.093129 0
1.715000 -0.092188 0
1.720000 -0.091240 0
1.725000 -0.090276 0
1.730000 -0.089280 0
1.735000 -0.088230 0
1.740000 -0.087088 0
1.745000 -0.085795 0
1.750000 -0.084267 0
1.755000 -0.082385 0
1.760000 -0.079984 0
1.765000 -0.076845 0
1.770000 -0.072692 0
1.775000 -0.067191 0
1.780000 -0.059958 0
1.785000 -0.050578 0
1.790000 -0.038637 0
1.795000 -0.023774 0
1.800000 -0.005732 0
1.805000 0.015570 0
1.810000 0.039980 0
1.815000 0.067056 0
1.820000 0.096041 0
1.825000 0.125864 0
1.830000 0.155192 0
1.835000 0.182514 0
1.840000 0.206262 0
1.845000 0.224963 0
1.850000 0.237386 0
1.855000 0.242677 1
1.860000 0.240456 0
1.865000 0.230864 0
1.870000 0.214544 0
1.875000 0.192576 0
1.880000 0.166352 0
1.885000 0.137435 0
1.890000 0.107393 0
1.895000 0.077630 0
1.900000 0.049179 0
1.905000 0.022385 0
1.910000 -0.003564 0
1.915000 -0.031114 0
1.920000 -0.064217 0
1.925000 -0.106643 0
1.930000 -0.158356 0
1.935000 -0.211402 0
1.940000 -0.248347 2
1.945000 -0.245141 0
1.950000 -0.176867 0
1.955000 -0.023992 0
1.960000 0.219497 0
1.965000 0.533244 0
1.970000 0.858957 0
1.975000 1.107250 0
1.980000 1.192947 3
1.985000 1.079354 0
1.990000 0.801733 0
1.995000 0.451540 0
2.000000 0.122020 0
2.005000 -0.126621 0
2.010000 -0.271851 0
2.015000 -0.318526 4
2.020000 -0.289564 0
2.025000 -0.218069 0
2.030000 -0.136670 0
2.035000 -0.067106 0
2.040000 -0.016615 0
2.045000 0.017969 0
2.050000 0.043396 0
2.055000 0.065369 0
2.060000 0.087191 0
2.065000 0.110283 0
2.070000 0.135044 0
2.075000 0.161411 0
2.080000 0.189121 0
2.085000 0.217793 0
2.090000 0.246960 0
2.095000 0.276082 0
2.100000 0.304562 0
2.105000 0.331764 0
2.110000 0.357038 0
2.115000 0.379741 0
2.120000 0.399264 0
2.125000 0.415062 0
2.130000 0.426674 0
2.135000 0.433746 0
2.140000 0.436052 5
2.145000 0.433499 0
2.150000 0.426135 0
2.155000 0.414149 0
2.160000 0.397857 0
2.165000 0.377695 0
2.170000 0.354192 0
2.175000 0.327949 0
2.180000 0.299616 0
2.185000 0.269859 0
2.190000 0.239341 0
2.195000 0.208691 0
2.200000 0.178487 0
2.205000 0.149242 0
2.210000 0.121386 0
2.215000 0.095265 0
2.220000 0.071135 0
2.225000 0.049164 0
2.230000 0.029443 0
2.235000 0.011986 0
2.240000 -0.003252 0
2.245000 -0.016368 0
2.250000 -0.027497 0
2.255000 -0.036802 0
2.260000 -0.044461 0
2.265000 -0.050662 0
2.270000 -0.055588 0
2.275000 -0.059420 0
2.280000 -0.062324 0
2.285000 -0.064453 0
2.290000 -0.065944 0
2.295000 -0.066916 0
2.300000 -0.067472 0
2.305000 -0.067551 0
2.310000 -0.066751 0
2.315000 -0.065954 0
2.320000 -0.065162 0
2.325000 -0.064373 0
2.330000 -0.063589 0
2.335000 -0.062808 0
2.340000 -0.062031 0
2.345000 -0.061258 0
2.350000 -0.060488 0
2.355000 -0.059722 0
2.360000 -0.058957 0
2.365000 -0.058193 0
2.370000 -0.057425 0
2.375000 -0.056650 0
2.380000 -0.055856 0
2.385000 -0.055028 0
2.390000 -0.054139 0
2.395000 -0.053145 0
2.400000 -0.051983 0
2.405000 -0.050555 0
2.410000 -0.048724 0
2.415000 -0.046302 0
2.420000 -0.043039 0
2.425000 -0.038622 0
2.430000 -0.032675 0
2.435000 -0.024774 0
2.440000 -0.014474 0
2.445000 -0.001354 0
2.450000 0.014928 0
2.455000 0.034560 0
2.460000 0.057503 0
2.465000 0.083428 0
2.470000 0.111669 0
2.475000 0.141210 0
2.480000 0.170723 0
2.485000 0.198649 0
2.490000 0.223324 0
2.495000 0.243144 0
2.500000 0.256729 0
2.505000 0.263086 1
2.510000 0.261728 0
2.515000 0.252728 0
2.520000 0.236723 0
2.525000 0.214827 0
2.530000 0.188512 0
2.535000 0.159435 0
2.540000 0.129259 0
2.545000 0.099458 0
2.550000 0.071079 0
2.555000 0.044367 0
2.560000 0.018221 0
2.565000 -0.010292 0
2.570000 -0.045537 0
2.575000 -0.090924 0
2.580000 -0.144456 0
2.585000 -0.194573 0
2.590000 -0.219859 2
2.595000 -0.193692 0
2.600000 -0.091090 0
2.605000 0.103805 0
2.610000 0.386324 0
2.615000 0.715805 0
2.620000 1.010376 0
2.625000 1.171709 3
2.630000 1.138362 0
2.635000 0.922893 0
2.640000 0.594352 0
2.645000 0.244083 0
2.650000 -0.054295 0
2.655000 -0.261554 0
2.660000 -0.368562 0
2.665000 -0.386820 4
2.670000 -0.341538 0
2.675000 -0.264373 0
2.680000 -0.183765 0
2.685000 -0.116991 0
2.690000 -0.068631 0
2.695000 -0.034918 0
2.700000 -0.009538 0
2.705000 0.012672 0
2.710000 0.034729 0
2.715000 0.057971 0
2.720000 0.082802 0
2.725000 0.109193 0
2.730000 0.136919 0
2.735000 0.165645 0
2.740000 0.194955 0
2.745000 0.224368 0
2.750000 0.253347 0
2.755000 0.281317 0
2.760000 0.307678 0
2.765000 0.331831 0
2.770000 0.353198 0
2.775000 0.371244 0
2.780000 0.385500 0
2.785000 0.395579 0
2.790000 0.401202 0
2.795000 0.402198 5
2.800000 0.398525 0
2.805000 0.390263 0
2.810000 0.377613 0
2.815000 0.360891 0
2.820000 0.340514 0
2.825000 0.316978 0
2.830000 0.290844 0
2.835000 0.262713 0
2.840000 0.233200 0
2.845000 0.202917 0
2.850000 0.172450 0
2.855000 0.142338 0
2.860000 0.113067 0
2.865000 0.085048 0
2.870000 0.058621 0
2.875000 0.034045 0
2.880000 0.011502 0
2.885000 -0.008902 0
2.890000 -0.027126 0
2.895000 -0.043188 0
2.900000 -0.057158 0
2.905000 -0.069143 0
2.910000 -0.079281 0
2.915000 -0.087731 0
2.920000 -0.094659 0
2.925000 -0.100240 0
2.930000 -0.104643 0
2.935000 -0.108032 0
2.940000 -0.110559 0
2.945000 -0.112362 0
2.950000 -0.113566 0
2.955000 -0.114279 0
2.960000 -0.114597 0
2.965000 -0.114447 0
2.970000 -0.113413 0
2.975000 -0.112384 0
2.980000 -0.111360 0
2.985000 -0.110341 0
2.990000 -0.109327 0
2.995000 -0.108318 0
3.000000 -0.107315 0
3.005000 -0.106316 0
3.010000 -0.105321 0
3.015000 -0.104331 0
3.020000 -0.103345 0
3.025000 -0.102361 0
3.030000 -0.101378 0
3.035000 -0.100391 0
3.040000 -0.099395 0
3.045000 -0.098377 0
3.050000 -0.097321 0
3.055000 -0.096198 0
3.060000 -0.094963 0
3.065000 -0.093552 0
3.070000 -0.091869 0
3.075000 -0.089781 0
3.080000 -0.087109 0
3.085000 -0.083621 0
3.090000 -0.079024 0
3.095000 -0.072974 0
3.100000 -0.065081 0
3.105000 -0.054935 0
3.110000 -0.042140 0
3.115000 -0.026366 0
3.120000 -0.007402 0
3.125000 0.014776 0
3.130000 0.039947 0
3.135000 0.067601 0
3.140000 0.096919 0
3.145000 0.126785 0
3.150000 0.155843 0
3.155000 0.182588 0
3.160000 0.205488 0
3.165000 0.223134 0
3.170000 0.234377 0
3.175000 0.238456 1
3.180000 0.235082 0
3.185000 0.224472 0
3.190000 0.207328 0
3.195000 0.184757 0
3.200000 0.158156 0
3.205000 0.129067 0
3.210000 0.099020 0
3.215000 0.069368 0
3.220000 0.041077 0
3.225000 0.014416 0
3.230000 -0.011508 0
3.235000 -0.039199 0
3.240000 -0.072583 0
3.245000 -0.115296 0
3.250000 -0.167126 0
3.255000 -0.220072 0
3.260000 -0.256928 2
3.265000 -0.254077 0
3.270000 -0.187053 0
3.275000 -0.036540 0
3.280000 0.203878 0
3.285000 0.515442 0
3.290000 0.842720 0
3.295000 1.098971 0
3.300000 1.198834 3
3.305000 1.100639 0
3.310000 0.832729 0
3.315000 0.484481 0
3.320000 0.150816 0
3.325000 -0.104963 0
3.330000 -0.257794 0
3.335000 -0.310920 4
3.340000 -0.286268 0
3.345000 -0.216617 0
3.350000 -0.135077 0
3.355000 -0.064389 0
3.360000 -0.012709 0
3.365000 0.022665 0
3.370000 0.048443 0
3.375000 0.070478 0
3.380000 0.092222 0
3.385000 0.115190 0
3.390000 0.139821 0
3.395000 0.166071 0
3.400000 0.193685 0
3.405000 0.222286 0
3.410000 0.251409 0
3.415000 0.280517 0
3.420000 0.309016 0
3.425000 0.336268 0
3.430000 0.361622 0
3.435000 0.384432 0
3.440000 0.404087 0
3.445000 0.420035 0
3.450000 0.431811 0
3.455000 0.439056 0
3.460000 0.441535 5
3.465000 0.439151 0
3.470000 0.431946 0
3.475000 0.420103 0
3.480000 0.403936 0
3.485000 0.383876 0
3.490000 0.360451 0
3.495000 0.334263 0
3.500000 0.305959 0
3.505000 0.276210 0
3.510000 0.245678 0
3.515000 0.214996 0
3.520000 0.184746 0
3.525000 0.155442 0
3.530000 0.127520 0
3.535000 0.101326 0
3.540000 0.077121 0
3.545000 0.055075 0
3.550000 0.035280 0
3.555000 0.017753 0
3.560000 0.002448 0
3.565000 -0.010730 0
3.570000 -0.021916 0
3.575000 -0.031273 0
3.580000 -0.038980 0
3.585000 -0.045224 0
3.590000 -0.050190 0
3.595000 -0.054058 0
3.600000 -0.056996 0
3.605000 -0.059157 0
3.610000 -0.060678 0
3.615000 -0.061679 0
3.620000 -0.062263 0
3.625000 -0.062368 0
3.630000 -0.061593 0
3.635000 -0.060823 0
3.640000 -0.060056 0
3.645000 -0.059293 0
3.650000 -0.058534 0
3.655000 -0.057778 0
3.660000 -0.057027 0
3.665000 -0.056278 0
3.670000 -0.055533 0
3.675000 -0.054791 0
3.680000 -0.054051 0
3.685000 -0.053311 0
3.690000 -0.052568 0
3.695000 -0.051817 0
3.700000 -0.051047 0
3.705000 -0.050242 0
3.710000 -0.049375 0
3.715000 -0.048403 0
3.720000 -0.047260 0
3.725000 -0.045848 0
3.730000 -0.044030 0
3.735000 -0.041615 0
3.740000 -0.038350 0
3.745000 -0.033922 0
3.750000 -0.027951 0
3.755000 -0.020012 0
3.760000 -0.009658 0
3.765000 0.003531 0
3.770000 0.019895 0
3.775000 0.039614 0
3.780000 0.062644 0
3.785000 0.088642 0
3.790000 0.116928 0
3.795000 0.146473 0
3.800000 0.175934 0
3.805000 0.203742 0
3.810000 0.228230 0
3.815000 0.247793 0
3.820000 0.261063 0
3.825000 0.267065 1
3.830000 0.265333 0
3.835000 0.255969 0
3.840000 0.239633 0
3.845000 0.217465 0
3.850000 0.190951 0
3.855000 0.161759 0
3.860000 0.131549 0
3.865000 0.101784 0
3.870000 0.073480 0
3.875000 0.046825 0
3.880000 0.020620 0
3.885000 -0.008180 0
3.890000 -0.043984 0
3.895000 -0.090024 0
3.900000 -0.143811 0
3.905000 -0.193097 0
3.910000 -0.215908 2
3.915000 -0.185455 0
3.920000 -0.077052 0
3.925000 0.124244 0
3.930000 0.411789 0
3.935000 0.741882 0
3.940000 1.030084 0
3.945000 1.178477 3
3.950000 1.129605 0
3.955000 0.901306 0
3.960000 0.567087 0
3.965000 0.219131 0
3.970000 -0.071136 0
3.975000 -0.267539 0
3.980000 -0.363522 0
3.985000 -0.372622 4
3.990000 -0.321577 0
3.995000 -0.242566 0
4.000000 -0.163214 0
4.005000 -0.099142 0
4.010000 -0.053406 0
4.015000 -0.021463 0
4.020000 0.003060 0
4.025000 0.025046 0
4.030000 0.047207 0
4.035000 0.070684 0
4.040000 0.095777 0
4.045000 0.122408 0
4.050000 0.150324 0
4.055000 0.179168 0
4.060000 0.208506 0
4.065000 0.237836 0
4.070000 0.266605 0
4.075000 0.294224 0
4.080000 0.320085 0
4.085000 0.343583 0
4.090000 0.364143 0
4.095000 0.381236 0
4.100000 0.394408 0
4.105000 0.403294 0
4.110000 0.407639 5
4.115000 0.407305 0
4.120000 0.402284 0
4.125000 0.392692 0
4.130000 0.378768 0
4.135000 0.360862 0
4.140000 0.339423 0
4.145000 0.314977 0
4.150000 0.288105 0
4.155000 0.259423 0
4.160000 0.229555 0
4.165000 0.199113 0
4.170000 0.168677 0
4.175000 0.138775 0
4.180000 0.109872 0
4.185000 0.082362 0
4.190000 0.056557 0
4.195000 0.032690 0
4.200000 0.010917 0
4.205000 -0.008681 0
4.210000 -0.026086 0
4.215000 -0.041340 0
4.220000 -0.054528 0
4.225000 -0.065773 0
4.230000 -0.075225 0
4.235000 -0.083047 0
4.240000 -0.089414 0
4.245000 -0.094500 0
4.250000 -0.098474 0
4.255000 -0.101497 0
4.260000 -0.103718 0
4.265000 -0.105269 0
4.270000 -0.106270 0
4.275000 -0.106824 0
4.280000 -0.107019 0
4.285000 -0.106194 0
4.290000 -0.105201 0
4.295000 -0.104213 0
4.300000 -0.103230 0
4.305000 -0.102252 0
4.310000 -0.101278 0
4.315000 -0.100309 0
4.320000 -0.099346 0
4.325000 -0.098386 0
4.330000 -0.097431 0
4.335000 -0.096480 0
4.340000 -0.095532 0
4.345000 -0.094585 0
4.350000 -0.093636 0
4.355000 -0.092681 0
4.360000 -0.091709 0
4.365000 -0.090708 0
4.370000 -0.089651 0
4.375000 -0.088503 0
4.380000 -0.087207 0
4.385000 -0.085679 0
4.390000 -0.083801 0
4.395000 -0.081411 0
4.400000 -0.078294 0
4.405000 -0.074178 0
4.410000 -0.068732 0
4.415000 -0.061578 0
4.420000 -0.052303 0
4.425000 -0.040497 0
4.430000 -0.025796 0
4.435000 -0.007939 0
4.440000 0.013168 0
4.445000 0.037389 0
4.450000 0.064305 0
4.455000 0.093187 0
4.460000 0.122994 0
4.465000 0.152418 0
4.470000 0.179970 0
4.475000 0.204093 0
4.480000 0.223310 0
4.485000 0.236371 0
4.490000 0.242387 1
4.495000 0.240934 0
4.500000 0.232096 0
4.505000 0.216465 0
4.510000 0.195068 0
4.515000 0.169262 0
4.520000 0.140585 0
4.525000 0.110602 0
4.530000 0.080740 0
4.535000 0.052083 0
4.540000 0.025086 0
4.545000 -0.000869 0
4.550000 -0.027973 0
4.555000 -0.059993 0
4.560000 -0.100886 0
4.565000 -0.151459 0
4.570000 -0.205212 0
4.575000 -0.246227 0
4.580000 -0.251324 2
4.585000 -0.195481 0
4.590000 -0.057949 0
4.595000 0.170310 0
4.600000 0.474696 0
4.605000 0.804295 0
4.610000 1.074108 0
4.615000 1.195167 3
4.620000 1.119304 0
4.625000 0.868393 0
4.630000 0.525184 0
4.635000 0.184135 0
4.640000 -0.087370 0
4.645000 -0.259284 0
4.650000 -0.330601 4
4.655000 -0.319675 0
4.660000 -0.256918 0
4.665000 -0.175488 0
4.670000 -0.100606 0
4.675000 -0.043689 0
4.680000 -0.004268 0
4.685000 0.023724 0
4.690000 0.046518 0
4.695000 0.068197 0
4.700000 0.090747 0
4.705000 0.114860 0
4.710000 0.140618 0
4.715000 0.167828 0
4.720000 0.196164 0
4.725000 0.225207 0
4.730000 0.254461 0
4.735000 0.283370 0
4.740000 0.311330 0
4.745000 0.337713 0
4.750000 0.361884 0
4.755000 0.383229 0
4.760000 0.401183 0
4.765000 0.415246 0
4.770000 0.425014 0
4.775000 0.430193 0
4.780000 0.430613 5
4.785000 0.426239 0
4.790000 0.417171 0
4.795000 0.403640 0
4.800000 0.385997 0
4.805000 0.364701 0
4.810000 0.340294 0
4.815000 0.313379 0
4.820000 0.284596 0
4.825000 0.254597 0
4.830000 0.224020 0
4.835000 0.193467 0
4.840000 0.163488 0
4.845000 0.134561 0
4.850000 0.107089 0
4.855000 0.081390 0
4.860000 0.057696 0
4.865000 0.036157 0
4.870000 0.016846 0
4.875000 -0.000232 0
4.880000 -0.015130 0
4.885000 -0.027947 0
4.890000 -0.038821 0
4.895000 -0.047910 0
4.900000 -0.055392 0
4.905000 -0.061446 0
4.910000 -0.066255 0
4.915000 -0.069992 0
4.920000 -0.072818 0
4.925000 -0.074884 0
4.930000 -0.076321 0
4.935000 -0.077246 0
4.940000 -0.077759 0
4.945000 -0.077794 0
4.950000 -0.076943 0
4.955000 -0.076096 0
4.960000 -0.075253 0
4.965000 -0.074414 0
4.970000 -0.073579 0
4.975000 -0.072749 0
4.980000 -0.071922 0
4.985000 -0.071100 0
4.990000 -0.070281 0
4.995000 -0.069466 0
5.000000 -0.068653 0
5.005000 -0.067841 0
5.010000 -0.067027 0
5.015000 -0.066207 0
5.020000 -0.065372 0
5.025000 -0.064508 0
5.030000 -0.063592 0
5.035000 -0.062586 0
5.040000 -0.061434 0
5.045000 -0.060052 0
5.050000 -0.058318 0
5.055000 -0.056066 0
5.060000 -0.053073 0
5.065000 -0.049054 0
5.070000 -0.043663 0
5.075000 -0.036503 0
5.080000 -0.027143 0
5.085000 -0.015158 0
5.090000 -0.000176 0
5.095000 0.018056 0
5.100000 0.039603 0
5.105000 0.064278 0
5.110000 0.091581 0
5.115000 0.120681 0
5.120000 0.150422 0
5.125000 0.179382 0
5.130000 0.205975 0
5.135000 0.228585 0
5.140000 0.245733 0
5.145000 0.256230 0
5.150000 0.259315 1
5.155000 0.254744 0
5.160000 0.242826 0
5.165000 0.224379 0
5.170000 0.200646 0
5.175000 0.173148 0
5.180000 0.143524 0
5.185000 0.113353 0
5.190000 0.083960 0
5.195000 0.056161 0
5.200000 0.029847 0
5.205000 0.003443 0
5.210000 -0.026417 0
5.215000 -0.064070 0
5.220000 -0.111946 0
5.225000 -0.166086 0
5.230000 -0.212797 0
5.235000 -0.229552 2
5.240000 -0.190167 0
5.245000 -0.071405 0
5.250000 0.139563 0
5.255000 0.433324 0
5.260000 0.763740 0
5.265000 1.046356 0
5.270000 1.186547 3
5.275000 1.129102 0
5.280000 0.891790 0
5.285000 0.553227 0
5.290000 0.208331 0
5.295000 -0.072261 0
5.300000 -0.255094 0
5.305000 -0.336646 4
5.310000 -0.333449 0
5.315000 -0.274817 0
5.320000 -0.193979 0
5.325000 -0.117387 0
5.330000 -0.058074 0
5.335000 -0.016708 0
5.340000 0.012402 0
5.345000 0.035630 0
5.350000 0.057344 0
5.355000 0.079754 0
5.360000 0.103675 0
5.365000 0.129246 0
5.370000 0.156302 0
5.375000 0.184534 0
5.380000 0.213538 0
5.385000 0.242830 0
5.390000 0.271867 0
5.395000 0.300054 0
5.400000 0.326767 0
5.405000 0.351377 0
5.410000 0.373267 0
5.415000 0.391865 0
5.420000 0.406661 0
5.425000 0.417236 0
5.430000 0.423278 0
5.435000 0.424594 5
5.440000 0.421126 0
5.445000 0.412948 0
5.450000 0.400266 0
5.455000 0.383410 0
5.460000 0.362814 0
5.465000 0.339005 0
5.470000 0.312572 0
5.475000 0.284147 0
5.480000 0.254377 0
5.485000 0.223901 0
5.490000 0.193328 0
5.495000 0.163216 0
5.500000 0.134058 0
5.505000 0.106271 0
5.510000 0.080190 0
5.515000 0.056063 0
5.520000 0.034059 0
5.525000 0.014267 0
5.530000 -0.003295 0
5.535000 -0.018665 0
5.540000 -0.031933 0
5.545000 -0.043227 0
5.550000 -0.052702 0
5.555000 -0.060529 0
5.560000 -0.066888 0
5.565000 -0.071961 0
5.570000 -0.075921 0
5.575000 -0.078933 0
5.580000 -0.081150 0
5.585000 -0.082707 0
5.590000 -0.083724 0
5.595000 -0.084305 0
5.600000 -0.084377 0
5.605000 -0.083493 0
5.610000 -0.082613 0
5.615000 -0.081738 0
5.620000 -0.080867 0
5.625000 -0.080000 0
5.630000 -0.079137 0
5.635000 -0.078279 0
5.640000 -0.077425 0
5.645000 -0.076575 0
5.650000 -0.075728 0
5.655000 -0.074885 0
5.660000 -0.074043 0
5.665000 -0.073201 0
5.670000 -0.072354 0
5.675000 -0.071495 0
5.680000 -0.070613 0
5.685000 -0.069687 0
5.690000 -0.068686 0
5.695000 -0.067561 0
5.700000 -0.066237 0
5.705000 -0.064607 0
5.710000 -0.062521 0
5.715000 -0.059777 0
5.720000 -0.056113 0
5.725000 -0.051205 0
5.730000 -0.044673 0
5.735000 -0.036098 0
5.740000 -0.025049 0
5.745000 -0.011133 0
5.750000 0.005953 0
5.755000 0.026348 0
5.760000 0.049962 0
5.765000 0.076414 0
5.770000 0.104998 0
5.775000 0.134680 0
5.780000 0.164134 0
5.785000 0.191827 0
5.790000 0.216146 0
5.795000 0.235551 0
5.800000 0.248730 0
5.805000 0.254751 1
5.810000 0.253167 0
5.815000 0.244071 0
5.820000 0.228089 0
5.825000 0.206303 0
5.830000 0.180136 0
5.835000 0.151191 0
5.840000 0.121084 0
5.845000 0.091262 0
5.850000 0.062781 0
5.855000 0.035971 0
5.860000 0.009935 0
5.865000 -0.017941 0
5.870000 -0.051786 0
5.875000 -0.095308 0
5.880000 -0.147822 0
5.885000 -0.200031 0
5.890000 -0.232871 2
5.895000 -0.221082 0
5.900000 -0.139468 0
5.905000 0.030376 0
5.910000 0.290663 0
5.915000 0.613172 0
5.920000 0.929424 0
5.925000 1.144389 0
5.930000 1.179229 3
5.935000 1.017675 0
5.940000 0.715026 0
5.945000 0.362185 0
5.950000 0.042756 0
5.955000 -0.192693 0
5.960000 -0.327078 0
5.965000 -0.367108 4
5.970000 -0.335359 0
5.975000 -0.263265 0
5.980000 -0.181533 0
5.985000 -0.110894 0
5.990000 -0.058738 0
5.995000 -0.022571 0
6.000000 0.003902 0
6.005000 0.026330 0
6.010000 0.048192 0
6.015000 0.071101 0
6.020000 0.095588 0
6.025000 0.121673 0
6.030000 0.149147 0
6.035000 0.177684 0
6.040000 0.206870 0
6.045000 0.236221 0
6.050000 0.265196 0
6.055000 0.293211 0
6.060000 0.319656 0
6.065000 0.343921 0
6.070000 0.365412 0
6.075000 0.383582 0
6.080000 0.397946 0
6.085000 0.408109 0
6.090000 0.413779 0
6.095000 0.414782 5
6.100000 0.411069 0
6.105000 0.402723 0
6.110000 0.389950 0
6.115000 0.373072 0
6.120000 0.352516 0
6.125000 0.328792 0
6.130000 0.302472 0
6.135000 0.274169 0
6.140000 0.244513 0
6.145000 0.214125 0
6.150000 0.183599 0
6.155000 0.153482 0
6.160000 0.124259 0
6.165000 0.096343 0
6.170000 0.070071 0
6.175000 0.045696 0
6.180000 0.023392 0
6.185000 0.003259 0
6.190000 -0.014673 0
6.195000 -0.030431 0
6.200000 -0.044095 0
6.205000 -0.055780 0
6.210000 -0.065632 0
6.215000 -0.073814 0
6.220000 -0.080499 0
6.225000 -0.085863 0
6.230000 -0.090079 0
6.235000 -0.093311 0
6.240000 -0.095709 0
6.245000 -0.097412 0
6.250000 -0.098542 0
6.255000 -0.099206 0
6.260000 -0.099495 0
6.265000 -0.098716 0
6.270000 -0.097760 0
6.275000 -0.096809 0
6.280000 -0.095863 0
6.285000 -0.094921 0
6.290000 -0.093985 0
6.295000 -0.093052 0
6.300000 -0.092125 0
6.305000 -0.091201 0
6.310000 -0.090282 0
6.315000 -0.089367 0
6.320000 -0.088454 0
6.325000 -0.087543 0
6.330000 -0.086631 0
6.335000 -0.085712 0
6.340000 -0.084778 0
6.345000 -0.083816 0
6.350000 -0.082802 0
6.355000 -0.081701 0
6.360000 -0.080457 0
6.365000 -0.078991 0
6.370000 -0.077186 0
6.375000 -0.074884 0
6.380000 -0.071873 0
6.385000 -0.067885 0
6.390000 -0.062591 0
6.395000 -0.055613 0
6.400000 -0.046537 0
6.405000 -0.034949 0
6.410000 -0.020478 0
6.415000 -0.002851 0
6.420000 0.018039 0
6.425000 0.042069 0
6.430000 0.068834 0
6.435000 0.097615 0
6.440000 0.127378 0
6.445000 0.156818 0
6.450000 0.184437 0
6.455000 0.208668 0
6.460000 0.228020 0
6.465000 0.241223 0
6.470000 0.247374 1
6.475000 0.246032 0
6.480000 0.237274 0
6.485000 0.221687 0
6.490000 0.200304 0
6.495000 0.174486 0
6.500000 0.145783 0
6.505000 0.115773 0
6.510000 0.085889 0
6.515000 0.057222 0
6.520000 0.030220 0
6.525000 0.004240 0
6.530000 -0.022954 0
6.535000 -0.055183 0
6.540000 -0.096397 0
6.545000 -0.147250 0
6.550000 -0.200902 0
6.555000 -0.240997 0
6.560000 -0.244004 2
6.565000 -0.184783 0
6.570000 -0.042799 0
6.575000 0.190175 0
6.580000 0.497731 0
6.585000 0.826322 0
6.590000 1.088969 0
6.595000 1.197440 3
6.600000 1.107104 0
6.605000 0.844772 0
6.610000 0.497953 0
6.615000 0.161820 0
6.620000 -0.098804 0
6.625000 -0.257267 0
6.630000 -0.315567 4
6.635000 -0.294658 0
6.640000 -0.226756 0
6.645000 -0.145114 0
6.650000 -0.073242 0
6.655000 -0.020190 0
6.660000 0.016191 0
6.665000 0.042491 0
6.670000 0.064685 0
6.675000 0.086395 0
6.680000 0.109251 0
6.685000 0.133751 0
6.690000 0.159881 0
6.695000 0.187399 0
6.700000 0.215941 0
6.705000 0.245053 0
6.710000 0.274206 0
6.715000 0.302815 0
6.720000 0.330250 0
6.725000 0.355863 0
6.730000 0.379011 0
6.735000 0.399080 0
6.740000 0.415514 0
6.745000 0.427838 0
6.750000 0.435682 0
6.755000 0.438797 5
6.760000 0.437067 0
6.765000 0.430516 0
6.770000 0.419307 0
6.775000 0.403737 0
6.780000 0.384218 0
6.785000 0.361262 0
6.790000 0.335459 0
6.795000 0.307448 0
6.800000 0.277893 0
6.805000 0.247456 0
6.810000 0.216773 0
6.815000 0.186431 0
6.820000 0.156954 0
6.825000 0.128788 0
6.830000 0.102294 0
6.835000 0.077743 0
6.840000 0.055323 0
6.845000 0.035136 0
6.850000 0.017212 0
6.855000 0.001517 0
6.860000 -0.012036 0
6.865000 -0.023574 0
6.870000 -0.033256 0
6.875000 -0.041256 0
6.880000 -0.047760 0
6.885000 -0.052953 0
6.890000 -0.057015 0
6.895000 -0.060117 0
6.900000 -0.062412 0
6.905000 -0.064042 0
6.910000 -0.065128 0
6.915000 -0.065778 0
6.920000 -0.065923 0
6.925000 -0.065130 0
6.930000 -0.064342 0
6.935000 -0.063558 0
6.940000 -0.062777 0
6.945000 -0.062001 0
6.950000 -0.061228 0
6.955000 -0.060459 0
6.960000 -0.059694 0
6.965000 -0.058932 0
6.970000 -0.058173 0
6.975000 -0.057417 0
6.980000 -0.056661 0
6.985000 -0.055904 0
6.990000 -0.055140 0
6.995000 -0.054360 0
7.000000 -0.053551 0
7.005000 -0.052689 0
7.010000 -0.051736 0
7.015000 -0.050634 0
7.020000 -0.049295 0
7.025000 -0.047595 0
7.030000 -0.045359 0
7.035000 -0.042356 0
7.040000 -0.038290 0
7.045000 -0.032804 0
7.050000 -0.025485 0
7.055000 -0.015892 0
7.060000 -0.003593 0
7.065000 0.011780 0
7.070000 0.030465 0
7.075000 0.052492 0
7.080000 0.077622 0
7.085000 0.105287 0
7.090000 0.134571 0
7.095000 0.164234 0
7.100000 0.192777 0
7.105000 0.218556 0
7.110000 0.239938 0
7.115000 0.255465 0
7.120000 0.264021 0
7.125000 0.264960 1
7.130000 0.258190 0
7.135000 0.244180 0
7.140000 0.223912 0
7.145000 0.198759 0
7.150000 0.170336 0
7.155000 0.140318 0
7.160000 0.110255 0
7.165000 0.081354 0
7.170000 0.054156 0
7.175000 0.028049 0
7.180000 0.000705 0
7.185000 -0.031921 0
7.190000 -0.073937 0
7.195000 -0.125610 0
7.200000 -0.178754 0
7.205000 -0.214896 2
7.210000 -0.208467 0
7.215000 -0.133275 0
7.220000 0.030432 0
7.225000 0.286379 0
7.230000 0.607454 0
7.235000 0.924728 0
7.240000 1.140818 0
7.245000 1.174441 3
7.250000 1.010472 0
7.255000 0.707146 0
7.260000 0.354297 0
7.265000 0.034440 0
7.270000 -0.202295 0
7.275000 -0.338688 0
7.280000 -0.380978 4
7.285000 -0.351105 0
7.290000 -0.279936 0
7.295000 -0.198013 0
7.300000 -0.126395 0
7.305000 -0.073048 0
7.310000 -0.035924 0
7.315000 -0.008891 0
7.320000 0.013759 0
7.325000 0.035636 0
7.330000 0.058462 0
7.335000 0.082832 0
7.340000 0.108800 0
7.345000 0.136177 0
7.350000 0.164652 0
7.355000 0.193827 0
7.360000 0.223231 0
7.365000 0.252339 0
7.370000 0.280579 0
7.375000 0.307353 0
7.380000 0.332057 0
7.385000 0.354102 0
7.390000 0.372937 0
7.395000 0.388072 0
7.400000 0.399101 0
7.405000 0.405714 0
7.410000 0.407716 5
7.415000 0.405034 0
7.420000 0.397722 0
7.425000 0.385957 0
7.430000 0.370033 0
7.435000 0.350348 0
7.440000 0.327388 0
7.445000 0.301704 0
7.450000 0.273894 0
7.455000 0.244576 0
7.460000 0.214367 0
7.465000 0.183863 0
7.470000 0.153618 0
7.475000 0.124129 0
7.480000 0.095826 0
7.485000 0.069063 0
7.490000 0.044116 0
7.495000 0.021180 0
7.500000 0.000376 0
7.505000 -0.018244 0
7.510000 -0.034690 0
7.515000 -0.049024 0
7.520000 -0.061348 0
7.525000 -0.071796 0
7.530000 -0.080525 0
7.535000 -0.087702 0
7.540000 -0.093502 0
7.545000 -0.098097 0
7.550000 -0.101651 0
7.555000 -0.104320 0
7.560000 -0.106244 0
7.565000 -0.107551 0
7.570000 -0.108353 0
7.575000 -0.108746 0
7.580000 -0.108656 0
7.585000 -0.107651 0
7.590000 -0.106650 0
7.595000 -0.105655 0
7.600000 -0.104665 0
7.605000 -0.103679 0
7.610000 -0.102699 0
7.615000 -0.101723 0
7.620000 -0.100752 0
7.625000 -0.099785 0
7.630000 -0.098823 0
7.635000 -0.097864 0
7.640000 -0.096908 0
7.645000 -0.095953 0
7.650000 -0.094994 0
7.655000 -0.094026 0
7.660000 -0.093038 0
7.665000 -0.092013 0
7.670000 -0.090922 0
7.675000 -0.089724 0
7.680000 -0.088355 0
7.685000 -0.086720 0
7.690000 -0.084690 0
7.695000 -0.082086 0
7.700000 -0.078679 0
7.705000 -0.074179 0
7.710000 -0.068241 0
7.715000 -0.060476 0
7.720000 -0.050472 0
7.725000 -0.037828 0
7.730000 -0.022209 0
7.735000 -0.003396 0
7.740000 0.018643 0
7.745000 0.043696 0
7.750000 0.071261 0
7.755000 0.100523 0
7.760000 0.130370 0
7.765000 0.159441 0
7.770000 0.186224 0
7.775000 0.209181 0
7.780000 0.226890 0
7.785000 0.238190 0
7.790000 0.242313 1
7.795000 0.238962 0
7.800000 0.228353 0
7.805000 0.211189 0
7.810000 0.188586 0
7.815000 0.161948 0
7.820000 0.132825 0
7.825000 0.102756 0
7.830000 0.073096 0
7.835000 0.044812 0
7.840000 0.018158 0
7.845000 -0.007795 0
7.850000 -0.035600 0
7.855000 -0.069226 0
7.860000 -0.112276 0
7.865000 -0.164346 0
7.870000 -0.217081 0
7.875000 -0.252870 2
7.880000 -0.247822 0
7.885000 -0.177433 0
7.890000 -0.022668 0
7.895000 0.222030 0
7.900000 0.536141 0
7.905000 0.861888 0
7.910000 1.111038 0
7.915000 1.199313 3
7.920000 1.089363 0
7.925000 0.814470 0
7.930000 0.464844 0
7.935000 0.133601 0
7.940000 -0.118317 0
7.945000 -0.267446 0
7.950000 -0.317796 4
7.955000 -0.291534 0
7.960000 -0.221285 0
7.965000 -0.139738 0
7.970000 -0.069203 0
7.975000 -0.017608 0
7.980000 0.017775 0
7.985000 0.043600 0
7.990000 0.065670 0
7.995000 0.087427 0
8.000000 0.110388 0
8.005000 0.135000 0
8.010000 0.161229 0
8.015000 0.188823 0
8.020000 0.217413 0
8.025000 0.246543 0
8.030000 0.275683 0
8.035000 0.304245 0
8.040000 0.331603 0
8.045000 0.357109 0
8.050000 0.380124 0
8.055000 0.400039 0
8.060000 0.416303 0
8.065000 0.428448 0
8.070000 0.436109 0
8.075000 0.439042 5
8.080000 0.437138 0
8.085000 0.430427 0
8.090000 0.419075 0
8.095000 0.403381 0
8.100000 0.383759 0
8.105000 0.360723 0
8.110000 0.334860 0
8.115000 0.306808 0
8.120000 0.277230 0
8.125000 0.246784 0
8.130000 0.216103 0
8.135000 0.185771 0
8.140000 0.156308 0
8.145000 0.128158 0
8.150000 0.101680 0
8.155000 0.077143 0
8.160000 0.054734 0
8.165000 0.034553 0
8.170000 0.016632 0
8.175000 0.000936 0
8.180000 -0.012623 0
8.185000 -0.024170 0
8.190000 -0.033863 0
8.195000 -0.041876 0
8.200000 -0.048393 0
8.205000 -0.053600 0
8.210000 -0.057675 0
8.215000 -0.060788 0
8.220000 -0.063095 0
8.225000 -0.064734 0
8.230000 -0.065829 0
8.235000 -0.066485 0
8.240000 -0.066634 0
8.245000 -0.065838 0
8.250000 -0.065046 0
8.255000 -0.064258 0
8.260000 -0.063474 0
8.265000 -0.062694 0
8.270000 -0.061918 0
8.275000 -0.061146 0
8.280000 -0.060377 0
8.285000 -0.059612 0
8.290000 -0.058850 0
8.295000 -0.058090 0
8.300000 -0.057331 0
8.305000 -0.056571 0
8.310000 -0.055804 0
8.315000 -0.055023 0
8.320000 -0.054213 0
8.325000 -0.053352 0
8.330000 -0.052404 0
8.335000 -0.051310 0
8.340000 -0.049988 0
8.345000 -0.048315 0
8.350000 -0.046121 0
8.355000 -0.043181 0
8.360000 -0.039205 0
8.365000 -0.033840 0
8.370000 -0.026680 0
8.375000 -0.017287 0
8.380000 -0.005227 0
8.385000 0.009875 0
8.390000 0.028267 0
8.395000 0.050003 0
8.400000 0.074869 0
8.405000 0.102332 0
8.410000 0.131512 0
8.415000 0.161202 0
8.420000 0.189929 0
8.425000 0.216065 0
8.430000 0.237973 0
8.435000 0.254176 0
8.440000 0.263520 0
8.445000 0.265306 1
8.450000 0.259379 0
8.455000 0.246148 0
8.460000 0.226536 0
8.465000 0.201875 0
8.470000 0.173753 0
8.475000 0.143842 0
8.480000 0.113712 0
8.485000 0.084619 0
8.490000 0.057211 0
8.495000 0.031055 0
8.500000 0.004076 0
8.505000 -0.027579 0
8.510000 -0.068172 0
8.515000 -0.118775 0
8.520000 -0.172597 0
8.525000 -0.212582 0
8.530000 -0.213904 2
8.535000 -0.150134 0
8.540000 -0.000188 0
8.545000 0.242816 0
8.550000 0.557448 0
8.555000 0.881295 0
8.560000 1.119430 0
8.565000 1.184818 3
8.570000 1.049868 0
8.575000 0.762386 0
8.580000 0.411031 0
8.585000 0.082985 0
8.590000 -0.165834 0
8.595000 -0.314137 0
8.600000 -0.365924 4
8.605000 -0.342067 0
8.610000 -0.273419 0
8.615000 -0.191495 0
8.620000 -0.118752 0
8.625000 -0.064251 0
8.630000 -0.026410 0
8.635000 0.000912 0
8.640000 0.023601 0
8.645000 0.045417 0
8.650000 0.068163 0
8.655000 0.092461 0
8.660000 0.118373 0
8.665000 0.145708 0
8.670000 0.174149 0
8.675000 0.203288 0
8.680000 0.232649 0
8.685000 0.261692 0
8.690000 0.289836 0
8.695000 0.316471 0
8.700000 0.340982 0
8.705000 0.362773 0
8.710000 0.381286 0
8.715000 0.396029 0
8.720000 0.406597 0
8.725000 0.412685 0
8.730000 0.414108 5
8.735000 0.410807 0
8.740000 0.402851 0
8.745000 0.390438 0
8.750000 0.373883 0
8.755000 0.353604 0
8.760000 0.330109 0
8.765000 0.303967 0
8.770000 0.275793 0
8.775000 0.246216 0
8.780000 0.215862 0
8.785000 0.185329 0
8.790000 0.155170 0
8.795000 0.125877 0
8.800000 0.097869 0
8.805000 0.071489 0
8.810000 0.046996 0
8.815000 0.024570 0
8.820000 0.004314 0
8.825000 -0.013737 0
8.830000 -0.029608 0
8.835000 -0.043375 0
8.840000 -0.055154 0
8.845000 -0.065088 0
8.850000 -0.073342 0
8.855000 -0.080089 0
8.860000 -0.085506 0
8.865000 -0.089765 0
8.870000 -0.093031 0
8.875000 -0.095458 0
8.880000 -0.097184 0
8.885000 -0.098331 0
8.890000 -0.099009 0
8.895000 -0.099308 0
8.900000 -0.098532 0
8.905000 -0.097577 0
8.910000 -0.096627 0
8.915000 -0.095682 0
8.920000 -0.094741 0
8.925000 -0.093805 0
8.930000 -0.092874 0
8.935000 -0.091947 0
8.940000 -0.091024 0
8.945000 -0.090106 0
8.950000 -0.089192 0
8.955000 -0.088280 0
8.960000 -0.087370 0
8.965000 -0.086458 0
8.970000 -0.085540 0
8.975000 -0.084608 0
8.980000 -0.083646 0
8.985000 -0.082633 0
8.990000 -0.081531 0
8.995000 -0.080287 0
9.000000 -0.078819 0
9.005000 -0.077010 0
9.010000 -0.074701 0
9.015000 -0.071679 0
9.020000 -0.067672 0
9.025000 -0.062352 0
9.030000 -0.055336 0
9.035000 -0.046210 0
9.040000 -0.034558 0
9.045000 -0.020009 0
9.050000 -0.002293 0
9.055000 0.018692 0
9.060000 0.042815 0
9.065000 0.069659 0
9.070000 0.098494 0
9.075000 0.128271 0
9.080000 0.157670 0
9.085000 0.185184 0
9.090000 0.209242 0
9.095000 0.228351 0
9.100000 0.241251 0
9.105000 0.247055 1
9.110000 0.245345 0
9.115000 0.236223 0
9.120000 0.220303 0
9.125000 0.198642 0
9.130000 0.172621 0
9.135000 0.143801 0
9.140000 0.113762 0
9.145000 0.083927 0
9.150000 0.055361 0
9.155000 0.028461 0
9.160000 0.002489 0
9.165000 -0.024917 0
9.170000 -0.057668 0
9.175000 -0.099629 0
9.180000 -0.151041 0
9.185000 -0.204351 0
9.190000 -0.242455 2
9.195000 -0.241389 0
9.200000 -0.176065 0
9.205000 -0.026550 0
9.210000 0.213886 0
9.215000 0.525984 0
9.220000 0.852553 0
9.225000 1.104485 0
9.230000 1.195497 3
9.235000 1.087408 0
9.240000 0.815454 0
9.245000 0.466787 0
9.250000 0.132721 0
9.255000 -0.125524 0
9.260000 -0.283012 0
9.265000 -0.341905 4
9.270000 -0.322395 0
9.275000 -0.255548 0
9.280000 -0.173772 0
9.285000 -0.100581 0
9.290000 -0.045711 0
9.295000 -0.007764 0
9.300000 0.019496 0
9.305000 0.042079 0
9.310000 0.063812 0
9.315000 0.086509 0
9.320000 0.110785 0
9.325000 0.136688 0
9.330000 0.164017 0
9.335000 0.192440 0
9.340000 0.221537 0
9.345000 0.250813 0
9.350000 0.279715 0
9.355000 0.307644 0
9.360000 0.333975 0
9.365000 0.358082 0
9.370000 0.379358 0
9.375000 0.397244 0
9.380000 0.411248 0
9.385000 0.420972 0
9.390000 0.426126 0
9.395000 0.426544 5
9.400000 0.422191 0
9.405000 0.413167 0
9.410000 0.399700 0
9.415000 0.382138 0
9.420000 0.360931 0
9.425000 0.336615 0
9.430000 0.309788 0
9.435000 0.281082 0
9.440000 0.251143 0
9.445000 0.220602 0
9.450000 0.190059 0
9.455000 0.160060 0
9.460000 0.131084 0
9.465000 0.103534 0
9.470000 0.077730 0
9.475000 0.053908 0
9.480000 0.032222 0
9.485000 0.012750 0
9.490000 -0.004498 0
9.495000 -0.019569 0
9.500000 -0.032558 0
9.505000 -0.043598 0
9.510000 -0.052844 0
9.515000 -0.060471 0
9.520000 -0.066656 0
9.525000 -0.071581 0
9.530000 -0.075416 0
9.535000 -0.078327 0
9.540000 -0.080460 0
9.545000 -0.081951 0
9.550000 -0.082916 0
9.555000 -0.083458 0
9.560000 -0.083505 0
9.565000 -0.082625 0
9.570000 -0.081749 0
9.575000 -0.080878 0
9.580000 -0.080011 0
9.585000 -0.079149 0
9.590000 -0.078291 0
9.595000 -0.077436 0
9.600000 -0.076587 0
9.605000 -0.075741 0
9.610000 -0.074898 0
9.615000 -0.074058 0
9.620000 -0.073220 0
9.625000 -0.072382 0
9.630000 -0.071538 0
9.635000 -0.070682 0
9.640000 -0.069801 0
9.645000 -0.068874 0
9.650000 -0.067870 0
9.655000 -0.066737 0
9.660000 -0.065399 0
9.665000 -0.063747 0
9.670000 -0.061629 0
9.675000 -0.058839 0
9.680000 -0.055113 0
9.685000 -0.050124 0
9.690000 -0.043492 0
9.695000 -0.034797 0
9.700000 -0.023612 0
9.705000 -0.009547 0
9.710000 0.007691 0
9.715000 0.028233 0
9.720000 0.051975 0
9.725000 0.078527 0
9.730000 0.107171 0
9.735000 0.136864 0
9.740000 0.166278 0
9.745000 0.193881 0
9.750000 0.218067 0
9.755000 0.237307 0
9.760000 0.250303 0
9.765000 0.256140 1
9.770000 0.254384 0
9.775000 0.245140 0
9.780000 0.229041 0
9.785000 0.207172 0
9.790000 0.180952 0
9.795000 0.151981 0
9.800000 0.121865 0
9.805000 0.092044 0
9.810000 0.063565 0
9.815000 0.036754 0
9.820000 0.010715 0
9.825000 -0.017155 0
9.830000 -0.050965 0
9.835000 -0.094419 0
9.840000 -0.146882 0
9.845000 -0.199188 0
9.850000 -0.232452 2
9.855000 -0.221566 0
9.860000 -0.141387 0
9.865000 0.026598 0
9.870000 0.285048 0
9.875000 0.606700 0
9.880000 0.924305 0
9.885000 1.143475 0
9.890000 1.184512 3
9.895000 1.027358 0
9.900000 0.725326 0
9.905000 0.372498 0
9.910000 0.055207 0
9.915000 -0.175263 0
9.920000 -0.302654 0
9.925000 -0.335289 4
9.930000 -0.297731 0
9.935000 -0.223014 0
9.940000 -0.142107 0
9.945000 -0.074510 0
9.950000 -0.025825 0
9.955000 0.007710 0
9.960000 0.032748 0
9.965000 0.054691 0
9.970000 0.076617 0
9.975000 0.099836 0
9.980000 0.124707 0
9.985000 0.151160 0
9.990000 0.178933 0
9.995000 0.207655 0
10.000000 0.236867 0
10.005000 0.266044 0
10.010000 0.294604 0
10.015000 0.321928 0
10.020000 0.347377 0
10.025000 0.370325 0
10.030000 0.390173 0
10.035000 0.406382 0
10.040000 0.418493 0
10.045000 0.426149 0
10.050000 0.429114 5
10.055000 0.427280 0
10.060000 0.420674 0
10.065000 0.409461 0
10.070000 0.393931 0
10.075000 0.374490 0
10.080000 0.351641 0
10.085000 0.325958 0
10.090000 0.298070 0
10.095000 0.268626 0
10.100000 0.238277 0
10.105000 0.207647 0
10.110000 0.177316 0
10.115000 0.147803 0
10.120000 0.119553 0
10.125000 0.092926 0
10.130000 0.068201 0
10.135000 0.045567 0
10.140000 0.025136 0
10.145000 0.006947 0
10.150000 -0.009025 0
10.155000 -0.022859 0
10.160000 -0.034675 0
10.165000 -0.044622 0
10.170000 -0.052870 0
10.175000 -0.059599 0
10.180000 -0.064993 0
10.185000 -0.069228 0
10.190000 -0.072474 0
10.195000 -0.074888 0
10.200000 -0.076609 0
10.205000 -0.077764 0
10.210000 -0.078459 0
10.215000 -0.078788 0
10.220000 -0.078103 0
10.225000 -0.077250 0
10.230000 -0.076401 0
10.235000 -0.075556 0
10.240000 -0.074716 0
10.245000 -0.073880 0
10.250000 -0.073048 0
10.255000 -0.072220 0
10.260000 -0.071396 0
10.265000 -0.070575 0
10.270000 -0.069758 0
10.275000 -0.068942 0
10.280000 -0.068126 0
10.285000 -0.067306 0
10.290000 -0.066476 0
10.295000 -0.065623 0
10.300000 -0.064731 0
10.305000 -0.063767 0
10.310000 -0.062687 0
10.315000 -0.061417 0
10.320000 -0.059855 0
10.325000 -0.057856 0
10.330000 -0.055220 0
10.335000 -0.051692 0
10.340000 -0.046951 0
10.345000 -0.040620 0
10.350000 -0.032277 0
10.355000 -0.021488 0
10.360000 -0.007850 0
10.365000 0.008951 0
10.370000 0.029072 0
10.375000 0.052442 0
10.380000 0.078700 0
10.385000 0.107156 0
10.390000 0.136788 0
10.395000 0.166273 0
10.400000 0.194074 0
10.405000 0.218566 0
10.410000 0.238187 0
10.415000 0.251602 0
10.420000 0.257854 1
10.425000 0.256475 0
10.430000 0.247543 0
10.435000 0.231674 0
10.440000 0.209955 0
10.445000 0.183813 0
10.450000 0.154866 0
10.455000 0.124743 0
10.460000 0.094905 0
10.465000 0.066414 0
10.470000 0.039598 0
10.475000 0.013539 0
10.480000 -0.014429 0
10.485000 -0.048483 0
10.490000 -0.092308 0
10.495000 -0.145026 0
10.500000 -0.196941 0
10.505000 -0.228523 2
10.510000 -0.214175 0
10.515000 -0.128645 0
10.520000 0.046090 0
10.525000 0.311017 0
10.530000 0.635482 0
10.535000 0.948063 0
10.540000 1.152475 0
10.545000 1.172331 3
10.550000 0.998402 0
10.555000 0.689272 0
10.560000 0.336350 0
10.565000 0.021206 0
10.570000 -0.208132 0
10.575000 -0.336429 0
10.580000 -0.371513 4
10.585000 -0.336596 0
10.590000 -0.263222 0
10.595000 -0.181647 0
10.600000 -0.111840 0
10.605000 -0.060545 0
10.610000 -0.024950 0
10.615000 0.001258 0
10.620000 0.023625 0
10.625000 0.045525 0
10.630000 0.068506 0
10.635000 0.093069 0
10.640000 0.119222 0
10.645000 0.146752 0
10.650000 0.175331 0
10.655000 0.204544 0
10.660000 0.233908 0
10.665000 0.262882 0
10.670000 0.290884 0
10.675000 0.317307 0
10.680000 0.341542 0
10.685000 0.363001 0
10.690000 0.381136 0
10.695000 0.395468 0
10.700000 0.405603 0
10.705000 0.411253 0
10.710000 0.412243 5
10.715000 0.408529 0
10.720000 0.400190 0
10.725000 0.387433 0
10.730000 0.370580 0
10.735000 0.350054 0
10.740000 0.326362 0
10.745000 0.300077 0
10.750000 0.271806 0
10.755000 0.242177 0
10.760000 0.211810 0
10.765000 0.181295 0
10.770000 0.151180 0
10.775000 0.121947 0
10.780000 0.094012 0
10.785000 0.067710 0
10.790000 0.043295 0
10.795000 0.020944 0
10.800000 0.000757 0
10.805000 -0.017232 0
10.810000 -0.033052 0
10.815000 -0.046776 0
10.820000 -0.058522 0
10.825000 -0.068430 0
10.830000 -0.076665 0
10.835000 -0.083399 0
10.840000 -0.088807 0
10.845000 -0.093060 0
10.850000 -0.096323 0
10.855000 -0.098747 0
10.860000 -0.100470 0
10.865000 -0.101614 0
10.870000 -0.102288 0
10.875000 -0.102582 0
10.880000 -0.101791 0
10.885000 -0.100820 0
10.890000 -0.099854 0
10.895000 -0.098892 0
10.900000 -0.097935 0
10.905000 -0.096983 0
10.910000 -0.096036 0
10.915000 -0.095094 0
10.920000 -0.094156 0
10.925000 -0.093222 0
10.930000 -0.092292 0
10.935000 -0.091365 0
10.940000 -0.090440 0
10.945000 -0.089514 0
10.950000 -0.088582 0
10.955000 -0.087636 0
10.960000 -0.086664 0
10.965000 -0.085642 0
10.970000 -0.084538 0
10.975000 -0.083299 0
10.980000 -0.081847 0
10.985000 -0.080072 0
10.990000 -0.077820 0
10.995000 -0.074887 0
11.000000 -0.071011 0
11.005000 -0.065874 0
11.010000 -0.059101 0
11.015000 -0.050284 0
11.020000 -0.039010 0
11.025000 -0.024898 0
11.030000 -0.007664 0
11.035000 0.012824 0
11.040000 0.036476 0
11.045000 0.062927 0
11.050000 0.091503 0
11.055000 0.121215 0
11.060000 0.150795 0
11.065000 0.178773 0
11.070000 0.203588 0
11.075000 0.223734 0
11.080000 0.237909 0
11.085000 0.245150 1
11.090000 0.244946 0
11.095000 0.237297 0
11.100000 0.222712 0
11.105000 0.202157 0
11.110000 0.176948 0
11.115000 0.148609 0
11.120000 0.118717 0
11.125000 0.088736 0
11.130000 0.059823 0
11.135000 0.032561 0
11.140000 0.006527 0
11.145000 -0.020211 0
11.150000 -0.051237 0
11.155000 -0.090657 0
11.160000 -0.140019 0
11.165000 -0.194093 0
11.170000 -0.238258 0
11.175000 -0.250021 2
11.180000 -0.204171 0
11.185000 -0.078912 0
11.190000 0.137046 0
11.195000 0.433169 0
11.200000 0.763732 0
11.205000 1.046953 0
11.210000 1.191518 3
11.215000 1.138388 0
11.220000 0.902116 0
11.225000 0.563185 0
11.230000 0.219114 0
11.235000 -0.058240 0
11.240000 -0.235744 0
11.245000 -0.311039 4
11.250000 -0.302229 0
11.255000 -0.240191 0
11.260000 -0.158892 0
11.265000 -0.084205 0
11.270000 -0.027729 0
11.275000 0.011167 0
11.280000 0.038755 0
11.285000 0.061338 0
11.290000 0.082968 0
11.295000 0.105563 0
11.300000 0.129766 0
11.305000 0.155623 0
11.310000 0.182922 0
11.315000 0.211315 0
11.320000 0.240362 0
11.325000 0.269547 0
11.330000 0.298291 0
11.335000 0.325971 0
11.340000 0.351939 0
11.345000 0.375548 0
11.350000 0.396177 0
11.355000 0.413259 0
11.360000 0.426302 0
11.365000 0.434916 0
11.370000 0.438831 5
11.375000 0.437909 0
11.380000 0.432149 0
11.385000 0.421693 0
11.390000 0.406815 0
11.395000 0.387910 0
11.400000 0.365477 0
11.405000 0.340095 0
11.410000 0.312397 0
11.415000 0.283045 0
11.420000 0.252706 0
11.425000 0.222019 0
11.430000 0.191584 0
11.435000 0.161935 0
11.440000 0.133532 0
11.445000 0.106749 0
11.450000 0.081875 0
11.455000 0.059107 0
11.460000 0.038563 0
11.465000 0.020284 0
11.470000 0.004243 0
11.475000 -0.009637 0
11.480000 -0.021481 0
11.485000 -0.031440 0
11.490000 -0.039690 0
11.495000 -0.046413 0
11.500000 -0.051797 0
11.505000 -0.056023 0
11.510000 -0.059261 0
11.515000 -0.061672 0
11.520000 -0.063395 0
11.525000 -0.064559 0
11.530000 -0.065270 0
11.535000 -0.065622 0
11.540000 -0.064995 0
11.545000 -0.064208 0
11.550000 -0.063424 0
11.555000 -0.062644 0
11.560000 -0.061868 0
11.565000 -0.061096 0
11.570000 -0.060328 0
11.575000 -0.059563 0
11.580000 -0.058802 0
11.585000 -0.058044 0
11.590000 -0.057289 0
11.595000 -0.056534 0
11.600000 -0.055779 0
11.605000 -0.055017 0
11.610000 -0.054242 0
11.615000 -0.053439 0
11.620000 -0.052588 0
11.625000 -0.051651 0
11.630000 -0.050575 0
11.635000 -0.049277 0
11.640000 -0.047636 0
11.645000 -0.045487 0
11.650000 -0.042606 0
11.655000 -0.038706 0
11.660000 -0.033436 0
11.665000 -0.026391 0
11.670000 -0.017130 0
11.675000 -0.005218 0
11.680000 0.009727 0
11.685000 0.027964 0
11.690000 0.049556 0
11.695000 0.074302 0
11.700000 0.101678 0
11.705000 0.130814 0
11.710000 0.160508 0
11.715000 0.189286 0
11.720000 0.215515 0
11.725000 0.237548 0
11.730000 0.253894 0
11.735000 0.263384 0
11.740000 0.265306 1
11.745000 0.259495 0
11.750000 0.246350 0
11.755000 0.226796 0
11.760000 0.202167 0
11.765000 0.174058 0
11.770000 0.144148 0
11.775000 0.114017 0
11.780000 0.084926 0
11.785000 0.057524 0
11.790000 0.031370 0
11.795000 0.004361 0
11.800000 -0.027387 0
11.805000 -0.068144 0
11.810000 -0.118896 0
11.815000 -0.172642 0
11.820000 -0.212038 2
11.825000 -0.212024 0
11.830000 -0.146091 0
11.835000 0.006692 0
11.840000 0.252599 0
11.845000 0.568872 0
11.850000 0.891292 0
11.855000 1.123856 0
11.860000 1.180588 3
11.865000 1.039830 0
11.870000 0.749720 0
11.875000 0.398096 0
11.880000 0.070500 0
11.885000 -0.178306 0
11.890000 -0.327385 0
11.895000 -0.380524 4
11.900000 -0.358063 0
11.905000 -0.290247 0
11.910000 -0.208254 0
11.915000 -0.134687 0
11.920000 -0.079074 0
11.925000 -0.040279 0
11.930000 -0.012365 0
11.935000 0.010580 0
11.940000 0.032431 0
11.945000 0.055102 0
11.950000 0.079283 0
11.955000 0.105073 0
11.960000 0.132304 0
11.965000 0.160674 0
11.970000 0.189793 0
11.975000 0.219201 0
11.980000 0.248374 0
11.985000 0.276745 0
11.990000 0.303718 0
11.995000 0.328686 0
12.000000 0.351058 0
12.005000 0.370276 0
12.010000 0.385843 0
12.015000 0.397340 0
12.020000 0.404447 0
12.025000 0.406955 5
12.030000 0.404777 0
12.035000 0.397955 0
12.040000 0.386652 0
12.045000 0.371151 0
12.050000 0.351841 0
12.055000 0.329198 0
12.060000 0.303771 0
12.065000 0.276153 0
12.070000 0.246963 0
12.075000 0.216820 0
12.080000 0.186323 0
12.085000 0.156032 0
12.090000 0.126451 0
12.095000 0.098017 0
12.100000 0.071093 0
12.105000 0.045963 0
12.110000 0.022829 0
12.115000 0.001821 0
12.120000 -0.017005 0
12.125000 -0.033651 0
12.130000 -0.048176 0
12.135000 -0.060679 0
12.140000 -0.071292 0
12.145000 -0.080169 0
12.150000 -0.087479 0
12.155000 -0.093394 0
12.160000 -0.098087 0
12.165000 -0.101726 0
12.170000 -0.104464 0
12.175000 -0.106447 0
12.180000 -0.107801 0
12.185000 -0.108641 0
12.190000 -0.109063 0
12.195000 -0.108993 0
12.200000 -0.107986 0
12.205000 -0.106984 0
12.210000 -0.105987 0
12.215000 -0.104995 0
12.220000 -0.104008 0
12.225000 -0.103026 0
12.230000 -0.102048 0
12.235000 -0.101075 0
12.240000 -0.100107 0
12.245000 -0.099144 0
12.250000 -0.098184 0
12.255000 -0.097226 0
12.260000 -0.096269 0
12.265000 -0.095310 0
12.270000 -0.094341 0
12.275000 -0.093354 0
12.280000 -0.092331 0
12.285000 -0.091246 0
12.290000 -0.090056 0
12.295000 -0.088700 0
12.300000 -0.087087 0
12.305000 -0.085088 0
12.310000 -0.082530 0
12.315000 -0.079184 0
12.320000 -0.074767 0
12.325000 -0.068936 0
12.330000 -0.061304 0
12.335000 -0.051458 0
12.340000 -0.038996 0
12.345000 -0.023575 0
12.350000 -0.004967 0
12.355000 0.016874 0
12.360000 0.041753 0
12.365000 0.069185 0
12.370000 0.098375 0
12.375000 0.128224 0
12.380000 0.157384 0
12.385000 0.184347 0
12.390000 0.207570 0
12.395000 0.225617 0
12.400000 0.237308 0
12.405000 0.241848 1
12.410000 0.238913 0
12.415000 0.228690 0
12.420000 0.211858 0
12.425000 0.189514 0
12.430000 0.163052 0
12.435000 0.134022 0
12.440000 0.103968 0
12.445000 0.074262 0
12.450000 0.045897 0
12.455000 0.019173 0
12.460000 -0.006768 0
12.465000 -0.034400 0
12.470000 -0.067654 0
12.475000 -0.110225 0
12.480000 -0.161990 0
12.485000 -0.215009 0
12.490000 -0.252034 2
12.495000 -0.249311 0
12.500000 -0.182204 0
12.505000 -0.031277 0
12.510000 0.209831 0
12.515000 0.521951 0
12.520000 0.848815 0
12.525000 1.102814 0
12.530000 1.198503 3
12.535000 1.093801 0
12.540000 0.822301 0
12.545000 0.473383 0
12.550000 0.140655 0
12.555000 -0.113897 0
12.560000 -0.265901 0
12.565000 -0.318752 4
12.570000 -0.294206 0
12.575000 -0.224712 0
12.580000 -0.143105 0
12.585000 -0.072078 0
12.590000 -0.019940 0
12.595000 0.015825 0
12.600000 0.041839 0
12.605000 0.063964 0
12.610000 0.085707 0
12.615000 0.108627 0
12.620000 0.133196 0
12.625000 0.159384 0
12.630000 0.186948 0
12.635000 0.215519 0
12.640000 0.244645 0
12.645000 0.273798 0
12.650000 0.302393 0
12.655000 0.329801 0
12.660000 0.355379 0
12.665000 0.378486 0
12.670000 0.398511 0
12.675000 0.414901 0
12.680000 0.427186 0
12.685000 0.434997 0
12.690000 0.438087 5
12.695000 0.436343 0
12.700000 0.429788 0
12.705000 0.418586 0
12.710000 0.403031 0
12.715000 0.383534 0
12.720000 0.360605 0
12.725000 0.334829 0
12.730000 0.306844 0
12.735000 0.277310 0
12.740000 0.246887 0
12.745000 0.216209 0
12.750000 0.185861 0
12.755000 0.156366 0
12.760000 0.128170 0
12.765000 0.101634 0
12.770000 0.077032 0
12.775000 0.054551 0
12.780000 0.034298 0
12.785000 0.016303 0
12.790000 0.000534 0
12.795000 -0.013092 0
12.800000 -0.024703 0
12.805000 -0.034454 0
12.810000 -0.042519 0
12.815000 -0.049082 0
12.820000 -0.054328 0
12.825000 -0.058437 0
12.830000 -0.061578 0
12.835000 -0.063907 0
12.840000 -0.065563 0
12.845000 -0.066672 0
12.850000 -0.067338 0
12.855000 -0.067492 0
12.860000 -0.066692 0
12.865000 -0.065896 0
12.870000 -0.065104 0
12.875000 -0.064315 0
12.880000 -0.063531 0
12.885000 -0.062751 0
12.890000 -0.061974 0
12.895000 -0.061202 0
12.900000 -0.060432 0
12.905000 -0.059666 0
12.910000 -0.058902 0
12.915000 -0.058140 0
12.920000 -0.057376 0
12.925000 -0.056605 0
12.930000 -0.055821 0
12.935000 -0.055009 0
12.940000 -0.054147 0
12.945000 -0.053199 0
12.950000 -0.052109 0
12.955000 -0.050794 0
12.960000 -0.049135 0
12.965000 -0.046962 0
12.970000 -0.044054 0
12.975000 -0.040123 0
12.980000 -0.034819 0
12.985000 -0.027738 0
12.990000 -0.018441 0
12.995000 -0.006496 0
13.000000 0.008476 0
13.005000 0.026732 0
13.010000 0.048334 0
13.015000 0.073080 0
13.020000 0.100452 0
13.025000 0.129585 0
13.030000 0.159285 0
13.035000 0.188089 0
13.040000 0.214373 0
13.045000 0.236499 0
13.050000 0.252978 0
13.055000 0.262640 0
13.060000 0.264765 1
13.065000 0.259173 0
13.070000 0.246249 0
13.075000 0.226895 0
13.080000 0.202428 0
13.085000 0.174427 0
13.090000 0.144564 0
13.095000 0.114416 0
13.100000 0.085260 0
13.105000 0.057778 0
13.110000 0.031600 0
13.115000 0.004734 0
13.120000 -0.026607 0
13.125000 -0.066725 0
13.130000 -0.116940 0
13.135000 -0.170908 0
13.140000 -0.212032 0
13.145000 -0.215732 2
13.150000 -0.155509 0
13.155000 -0.009873 0
13.160000 0.228987 0
13.165000 0.541325 0
13.170000 0.866723 0
13.175000 1.111126 0
13.180000 1.185943 3
13.185000 1.061774 0
13.190000 0.780987 0
13.195000 0.430777 0
13.200000 0.099365 0
13.205000 -0.155229 0
13.210000 -0.309874 0
13.215000 -0.367273 4
13.220000 -0.347391 0
13.225000 -0.280637 0
13.230000 -0.198746 0
13.235000 -0.124948 0
13.240000 -0.069163 0
13.245000 -0.030346 0
13.250000 -0.002493 0
13.255000 0.020381 0
13.260000 0.042189 0
13.265000 0.064844 0
13.270000 0.089030 0
13.275000 0.114834 0
13.280000 0.142080 0
13.285000 0.170457 0
13.290000 0.199566 0
13.295000 0.228935 0
13.300000 0.258032 0
13.305000 0.286276 0
13.310000 0.313063 0
13.315000 0.337777 0
13.320000 0.359821 0
13.325000 0.378634 0
13.330000 0.393720 0
13.335000 0.404664 0
13.340000 0.411154 0
13.345000 0.412995 5
13.350000 0.410116 0
13.355000 0.402575 0
13.360000 0.390559 0
13.365000 0.374371 0
13.370000 0.354421 0
13.375000 0.331207 0
13.380000 0.305295 0
13.385000 0.277292 0
13.390000 0.247828 0
13.395000 0.217529 0
13.400000 0.186995 0
13.405000 0.156783 0
13.410000 0.127390 0
13.415000 0.099243 0
13.420000 0.072692 0
13.425000 0.048003 0
13.430000 0.025365 0
13.435000 0.004888 0
13.440000 -0.013387 0
13.445000 -0.029479 0
13.450000 -0.043459 0
13.455000 -0.055438 0
13.460000 -0.065559 0
13.465000 -0.073981 0
13.470000 -0.080878 0
13.475000 -0.086427 0
13.480000 -0.090801 0
13.485000 -0.094165 0
13.490000 -0.096673 0
13.495000 -0.098466 0
13.500000 -0.099667 0
13.505000 -0.100388 0
13.510000 -0.100720 0
13.515000 -0.100601 0
13.520000 -0.099636 0
13.525000 -0.098676 0
13.530000 -0.097720 0
13.535000 -0.096769 0
13.540000 -0.095823 0
13.545000 -0.094882 0
13.550000 -0.093945 0
13.555000 -0.093013 0
13.560000 -0.092085 0
13.565000 -0.091160 0
13.570000 -0.090239 0
13.575000 -0.089320 0
13.580000 -0.088400 0
13.585000 -0.087474 0
13.590000 -0.086535 0
13.595000 -0.085569 0
13.600000 -0.084556 0
13.605000 -0.083460 0
13.610000 -0.082231 0
13.615000 -0.080790 0
13.620000 -0.079029 0
13.625000 -0.076792 0
13.630000 -0.073876 0
13.635000 -0.070019 0
13.640000 -0.064900 0
13.645000 -0.058143 0
13.650000 -0.049339 0
13.655000 -0.038070 0
13.660000 -0.023955 0
13.665000 -0.006707 0
13.670000 0.013804 0
13.675000 0.037486 0
13.680000 0.063970 0
13.685000 0.092572 0
13.690000 0.122292 0
13.695000 0.151850 0
13.700000 0.179763 0
13.705000 0.204462 0
13.710000 0.224437 0
13.715000 0.238383 0
13.720000 0.245349 1
13.725000 0.244840 0
13.730000 0.236874 0
13.735000 0.221988 0
13.740000 0.201170 0
13.745000 0.175758 0
13.750000 0.147291 0
13.755000 0.117354 0
13.760000 0.087407 0
13.765000 0.058588 0
13.770000 0.031431 0
13.775000 0.005427 0
13.780000 -0.021489 0
13.785000 -0.053020 0
13.790000 -0.093233 0
13.795000 -0.143297 0
13.800000 -0.197236 0
13.805000 -0.239550 0
13.810000 -0.247141 2
13.815000 -0.194712 0
13.820000 -0.060987 0
13.825000 0.163855 0
13.830000 0.466246 0
13.835000 0.796154 0
13.840000 1.068565 0
13.845000 1.193308 3
13.850000 1.119809 0
13.855000 0.870643 0
13.860000 0.528001 0
13.865000 0.186398 0
13.870000 -0.086362 0
13.875000 -0.259776 0
13.880000 -0.332502 4
13.885000 -0.322635 0
13.890000 -0.260433 0
13.895000 -0.179060 0
13.900000 -0.103916 0
13.905000 -0.046646 0
13.910000 -0.006942 0
13.915000 0.021213 0
13.920000 0.044070 0
13.925000 0.065757 0
13.930000 0.088289 0
13.935000 0.112377 0
13.940000 0.138110 0
13.945000 0.165301 0
13.950000 0.193626 0
13.955000 0.222667 0
13.960000 0.251931 0
13.965000 0.280865 0
13.970000 0.308865 0
13.975000 0.335304 0
13.980000 0.359549 0
13.985000 0.380986 0
13.990000 0.399046 0
13.995000 0.413230 0
14.000000 0.423132 0
14.005000 0.428453 0
14.010000 0.429021 5
14.015000 0.424797 0
14.020000 0.415876 0
14.025000 0.402486 0
14.030000 0.384974 0
14.035000 0.363794 0
14.040000 0.339486 0
14.045000 0.312652 0
14.050000 0.283929 0
14.055000 0.253970 0
14.060000 0.223410 0
14.065000 0.192856 0
14.070000 0.162855 0
14.075000 0.133891 0
14.080000 0.106369 0
14.085000 0.080608 0
14.090000 0.056843 0
14.095000 0.035228 0
14.100000 0.015839 0
14.105000 -0.001318 0
14.110000 -0.016292 0
14.115000 -0.029183 0
14.120000 -0.040125 0
14.125000 -0.049276 0
14.130000 -0.056813 0
14.135000 -0.062917 0
14.140000 -0.067767 0
14.145000 -0.071538 0
14.150000 -0.074393 0
14.155000 -0.076482 0
14.160000 -0.077936 0
14.165000 -0.078874 0
14.170000 -0.079396 0
14.175000 -0.079435 0
14.180000 -0.078575 0
14.185000 -0.077720 0
14.190000 -0.076869 0
14.195000 -0.076022 0
14.200000 -0.075179 0
14.205000 -0.074341 0
14.210000 -0.073506 0
14.215000 -0.072676 0
14.220000 -0.071850 0
14.225000 -0.071026 0
14.230000 -0.070206 0
14.235000 -0.069386 0
14.240000 -0.068565 0
14.245000 -0.067738 0
14.250000 -0.066897 0
14.255000 -0.066028 0
14.260000 -0.065108 0
14.265000 -0.064101 0
14.270000 -0.062952 0
14.275000 -0.061579 0
14.280000 -0.059863 0
14.285000 -0.057640 0
14.290000 -0.054691 0
14.295000 -0.050735 0
14.300000 -0.045431 0
14.305000 -0.038384 0
14.310000 -0.029166 0
14.315000 -0.017348 0
14.320000 -0.002556 0
14.325000 0.015473 0
14.330000 0.036819 0
14.335000 0.061310 0
14.340000 0.088471 0
14.345000 0.117492 0
14.350000 0.147239 0
14.355000 0.176305 0
14.360000 0.203113 0
14.365000 0.226047 0
14.370000 0.243614 0
14.375000 0.254602 0
14.380000 0.258218 1
14.385000 0.254183 0
14.390000 0.242764 0
14.395000 0.224748 0
14.400000 0.201349 0
14.405000 0.174073 0
14.410000 0.144554 0
14.415000 0.114379 0
14.420000 0.084899 0
14.425000 0.056977 0
14.430000 0.030592 0
14.435000 0.004296 0
14.440000 -0.025145 0
14.445000 -0.062065 0
14.450000 -0.109183 0
14.455000 -0.163189 0
14.460000 -0.211189 0
14.465000 -0.231221 2
14.470000 -0.197177 0
14.475000 -0.085371 0
14.480000 0.118193 0
14.485000 0.406447 0
14.490000 0.736624 0
14.495000 1.026848 0
14.500000 1.181665 3
14.505000 1.141697 0
14.510000 0.918153 0
14.515000 0.585038 0
14.520000 0.236972 0
14.525000 -0.052574 0
14.530000 -0.246744 0
14.535000 -0.339339 0
14.540000 -0.344851 4
14.545000 -0.291217 0
14.550000 -0.211470 0
14.555000 -0.133205 0
14.560000 -0.071207 0
14.565000 -0.027524 0
14.570000 0.002991 0
14.575000 0.026797 0
14.580000 0.048582 0
14.585000 0.070823 0
14.590000 0.094497 0
14.595000 0.119816 0
14.600000 0.146655 0
14.605000 0.174726 0
14.610000 0.203643 0
14.615000 0.232943 0
14.620000 0.262096 0
14.625000 0.290521 0
14.630000 0.317606 0
14.635000 0.342725 0
14.640000 0.365264 0
14.645000 0.384642 0
14.650000 0.400342 0
14.655000 0.411925 0
14.660000 0.419057 0
14.665000 0.421518 5
14.670000 0.419219 0
14.675000 0.412202 0
14.680000 0.400640 0
14.685000 0.384829 0
14.690000 0.365176 0
14.695000 0.342179 0
14.700000 0.316410 0
14.705000 0.288485 0
14.710000 0.259044 0
14.715000 0.228724 0
14.720000 0.198139 0
14.725000 0.167858 0
14.730000 0.138390 0
14.735000 0.110171 0
14.740000 0.083557 0
14.745000 0.058822 0
14.750000 0.036156 0
14.755000 0.015671 0
14.760000 -0.002592 0
14.765000 -0.018654 0
14.770000 -0.032590 0
14.775000 -0.044515 0
14.780000 -0.054573 0
14.785000 -0.062931 0
14.790000 -0.069764 0
14.795000 -0.075253 0
14.800000 -0.079573 0
14.805000 -0.082891 0
14.810000 -0.085363 0
14.815000 -0.087129 0
14.820000 -0.088314 0
14.825000 -0.089029 0
14.830000 -0.089365 0
14.835000 -0.088636 0
14.840000 -0.087730 0
14.845000 -0.086829 0
14.850000 -0.085933 0
14.855000 -0.085041 0
14.860000 -0.084153 0
14.865000 -0.083270 0
14.870000 -0.082391 0
14.875000 -0.081516 0
14.880000 -0.080645 0
14.885000 -0.079778 0
14.890000 -0.078913 0
14.895000 -0.078049 0
14.900000 -0.077182 0
14.905000 -0.076308 0
14.910000 -0.075417 0
14.915000 -0.074493 0
14.920000 -0.073511 0
14.925000 -0.072432 0
14.930000 -0.071194 0
14.935000 -0.069709 0
14.940000 -0.067849 0
14.945000 -0.065442 0
14.950000 -0.062257 0
14.955000 -0.058006 0
14.960000 -0.052339 0
14.965000 -0.044857 0
14.970000 -0.035135 0
14.975000 -0.022758 0
14.980000 -0.007370 0
14.985000 0.011261 0
14.990000 0.033176 0
14.995000 0.058160 0
15.000000 0.085693 0
15.005000 0.114928 0
15.010000 0.144703 0
15.015000 0.173603 0
15.020000 0.200057 0
15.025000 0.222479 0
15.030000 0.239420 0
15.035000 0.249722 0
15.040000 0.252652 1
15.045000 0.247985 0
15.050000 0.236031 0
15.055000 0.217604 0
15.060000 0.193928 0
15.065000 0.166502 0
15.070000 0.136940 0
15.075000 0.106800 0
15.080000 0.077400 0
15.085000 0.049565 0
15.090000 0.023241 0
15.095000 -0.003041 0
15.100000 -0.032501 0
15.105000 -0.069419 0
15.110000 -0.116470 0
15.115000 -0.170422 0
15.120000 -0.218659 0
15.125000 -0.239632 2
15.130000 -0.207608 0
15.135000 -0.099045 0
15.140000 0.100402 0
15.145000 0.385027 0
15.150000 0.714742 0
15.155000 1.010639 0
15.160000 1.178013 3
15.165000 1.153001 0
15.170000 0.940833 0
15.175000 0.612328 0
15.180000 0.262529 0
15.185000 -0.032556 0
15.190000 -0.233512 0
15.195000 -0.332419 0
15.200000 -0.342711 4
15.205000 -0.291775 0
15.210000 -0.212732 0
15.215000 -0.133858 0
15.220000 -0.070804 0
15.225000 -0.026229 0
15.230000 0.004801 0
15.235000 0.028804 0
15.240000 0.050599 0
15.245000 0.072772 0
15.250000 0.096355 0
15.255000 0.121586 0
15.260000 0.148349 0
15.265000 0.176361 0
15.270000 0.205239 0
15.275000 0.234519 0
15.280000 0.263674 0
15.285000 0.292123 0
15.290000 0.319251 0
15.295000 0.344432 0
15.300000 0.367046 0
15.305000 0.386514 0
15.310000 0.402310 0
15.315000 0.413994 0
15.320000 0.421226 0
15.325000 0.423785 5
15.330000 0.421576 0
15.335000 0.414640 0
15.340000 0.403146 0
15.345000 0.387391 0
15.350000 0.367781 0
15.355000 0.344814 0
15.360000 0.319062 0
15.365000 0.291144 0
15.370000 0.261701 0
15.375000 0.231373 0
15.380000 0.200776 0
15.385000 0.170480 0
15.390000 0.140997 0
15.395000 0.112764 0
15.400000 0.086139 0
15.405000 0.061396 0
15.410000 0.038725 0
15.415000 0.018240 0
15.420000 -0.000020 0
15.425000 -0.016076 0
15.430000 -0.030004 0
15.435000 -0.041919 0
15.440000 -0.051966 0
15.445000 -0.060313 0
15.450000 -0.067136 0
15.455000 -0.072615 0
15.460000 -0.076926 0
15.465000 -0.080238 0
15.470000 -0.082705 0
15.475000 -0.084469 0
15.480000 -0.085654 0
15.485000 -0.086370 0
15.490000 -0.086710 0
15.495000 -0.085992 0
15.500000 -0.085100 0
15.505000 -0.084212 0
15.510000 -0.083329 0
15.515000 -0.082449 0
15.520000 -0.081575 0
15.525000 -0.080704 0
15.530000 -0.079838 0
15.535000 -0.078976 0
15.540000 -0.078118 0
15.545000 -0.077263 0
15.550000 -0.076411 0
15.555000 -0.075559 0
15.560000 -0.074704 0
15.565000 -0.073842 0
15.570000 -0.072961 0
15.575000 -0.072047 0
15.580000 -0.071072 0
15.585000 -0.069997 0
15.590000 -0.068759 0
15.595000 -0.067266 0
15.600000 -0.065388 0
15.605000 -0.062948 0
15.610000 -0.059713 0
15.615000 -0.055386 0
15.620000 -0.049615 0
15.625000 -0.041995 0
15.630000 -0.032101 0
15.635000 -0.019516 0
15.640000 -0.003894 0
15.645000 0.014988 0
15.650000 0.037153 0
15.655000 0.062361 0
15.660000 0.090064 0
15.665000 0.119385 0
15.670000 0.149134 0
15.675000 0.177872 0
15.680000 0.204017 0
15.685000 0.225983 0
15.690000 0.242337 0
15.695000 0.251954 0
15.700000 0.254142 1
15.705000 0.248727 0
15.710000 0.236073 0
15.715000 0.217044 0
15.720000 0.192900 0
15.725000 0.165166 0
15.730000 0.135462 0
15.735000 0.105336 0
15.740000 0.076071 0
15.745000 0.048418 0
15.750000 0.022194 0
15.755000 -0.004266 0
15.760000 -0.034380 0
15.765000 -0.072433 0
15.770000 -0.120648 0
15.775000 -0.174789 0
15.780000 -0.220997 0
15.785000 -0.236823 2
15.790000 -0.196375 0
15.795000 -0.076775 0
15.800000 0.134533 0
15.805000 0.428166 0
15.810000 0.758637 0
15.815000 1.042685 0
15.820000 1.186534 3
15.825000 1.134365 0
15.830000 0.901618 0
15.835000 0.564947 0
15.840000 0.218682 0
15.845000 -0.065777 0
15.850000 -0.253719 0
15.855000 -0.340457 0
15.860000 -0.341492 4
15.865000 -0.285341 0
15.870000 -0.205010 0
15.875000 -0.127463 0
15.880000 -0.066632 0
15.885000 -0.023941 0
15.890000 0.005983 0
15.895000 0.029549 0
15.900000 0.051303 0
15.905000 0.073608 0
15.910000 0.097374 0
15.915000 0.122785 0
15.920000 0.149701 0
15.925000 0.177828 0
15.930000 0.206776 0
15.935000 0.236076 0
15.940000 0.265195 0
15.945000 0.293550 0
15.950000 0.320526 0
15.955000 0.345498 0
15.960000 0.367853 0
15.965000 0.387015 0
15.970000 0.402468 0
15.975000 0.413781 0
15.980000 0.420626 0
15.985000 0.422791 5
15.990000 0.420194 0
15.995000 0.412886 0
16.000000 0.401048 0
16.005000 0.384982 0
16.010000 0.365103 0
16.015000 0.341914 0
16.020000 0.315988 0
16.025000 0.287945 0
16.030000 0.258426 0
16.035000 0.228066 0
16.040000 0.197478 0
16.045000 0.167227 0
16.050000 0.137817 0
16.055000 0.109681 0
16.060000 0.083170 0
16.065000 0.058551 0
16.070000 0.036011 0
16.075000 0.015657 0
16.080000 -0.002475 0
16.085000 -0.018410 0
16.090000 -0.032224 0
16.095000 -0.044035 0
16.100000 -0.053990 0
16.105000 -0.062254 0
16.110000 -0.069005 0
16.115000 -0.074422 0
16.120000 -0.078681 0
16.125000 -0.081948 0
16.130000 -0.084378 0
16.135000 -0.086110 0
16.140000 -0.087269 0
16.145000 -0.087963 0
16.150000 -0.088284 0
16.155000 -0.087557 0
16.160000 -0.086657 0
16.165000 -0.085762 0
16.170000 -0.084870 0
16.175000 -0.083984 0
16.180000 -0.083101 0
16.185000 -0.082223 0
16.190000 -0.081350 0
16.195000 -0.080480 0
16.200000 -0.079614 0
16.205000 -0.078752 0
16.210000 -0.077892 0
16.215000 -0.077033 0
16.220000 -0.076171 0
16.225000 -0.075301 0
16.230000 -0.074413 0
16.235000 -0.073491 0
16.240000 -0.072509 0
16.245000 -0.071426 0
16.250000 -0.070180 0
16.255000 -0.068681 0
16.260000 -0.066797 0
16.265000 -0.064354 0
16.270000 -0.061116 0
16.275000 -0.056792 0
16.280000 -0.051029 0
16.285000 -0.043424 0
16.290000 -0.033553 0
16.295000 -0.021002 0
16.300000 -0.005421 0
16.305000 0.013411 0
16.310000 0.035523 0
16.315000 0.060680 0
16.320000 0.088344 0
16.325000 0.117645 0
16.330000 0.147405 0
16.335000 0.176194 0
16.340000 0.202438 0
16.345000 0.224553 0
16.350000 0.241104 0
16.355000 0.250958 0
16.360000 0.253409 1
16.365000 0.248266 0
16.370000 0.235874 0
16.375000 0.217075 0
16.380000 0.193114 0
16.385000 0.165502 0
16.390000 0.135855 0
16.395000 0.105723 0
16.400000 0.076399 0
16.405000 0.048669 0
16.410000 0.022404 0
16.415000 -0.003969 0
16.420000 -0.033774 0
16.425000 -0.071292 0
16.430000 -0.118962 0
16.435000 -0.173036 0
16.440000 -0.220272 0
16.445000 -0.238681 2
16.450000 -0.202479 0
16.455000 -0.088478 0
16.460000 0.116787 0
16.465000 0.405859 0
16.470000 0.736119 0
16.475000 1.026644 0
16.480000 1.183180 3
16.485000 1.144621 0
16.490000 0.921030 0
16.495000 0.587457 0
16.500000 0.239837 0
16.505000 -0.047810 0
16.510000 -0.238887 0
16.515000 -0.327857 0
16.520000 -0.330065 4
16.525000 -0.274295 0
16.530000 -0.194036 0
16.535000 -0.116642 0
16.540000 -0.056149 0
16.545000 -0.013863 0
16.550000 0.015741 0
16.555000 0.039130 0
16.560000 0.060831 0
16.565000 0.083157 0
16.570000 0.106981 0
16.575000 0.132461 0
16.580000 0.159441 0
16.585000 0.187615 0
16.590000 0.216579 0
16.595000 0.245851 0
16.600000 0.274884 0
16.605000 0.303081 0
16.610000 0.329818 0
16.615000 0.354459 0
16.620000 0.376385 0
16.625000 0.395019 0
16.630000 0.409847 0
16.635000 0.420447 0
16.640000 0.426502 0
16.645000 0.427820 5
16.650000 0.424340 0
16.655000 0.416137 0
16.660000 0.403419 0
16.665000 0.386517 0
16.670000 0.365869 0
16.675000 0.342005 0
16.680000 0.315518 0
16.685000 0.287045 0
16.690000 0.257236 0
16.695000 0.226733 0
16.700000 0.196147 0
16.705000 0.166038 0
16.710000 0.136900 0
16.715000 0.109150 0
16.720000 0.083119 0
16.725000 0.059058 0
16.730000 0.037130 0
16.735000 0.017421 0
16.740000 -0.000050 0
16.745000 -0.015328 0
16.750000 -0.028504 0
16.755000 -0.039709 0
16.760000 -0.049099 0
16.765000 -0.056848 0
16.770000 -0.063137 0
16.775000 -0.068148 0
16.780000 -0.072055 0
16.785000 -0.075024 0
16.790000 -0.077205 0
16.795000 -0.078734 0
16.800000 -0.079732 0
16.805000 -0.080301 0
16.810000 -0.080370 0
16.815000 -0.079505 0
16.820000 -0.078645 0
16.825000 -0.077790 0
16.830000 -0.076938 0
16.835000 -0.076091 0
16.840000 -0.075248 0
16.845000 -0.074409 0
16.850000 -0.073574 0
16.855000 -0.072743 0
16.860000 -0.071916 0
16.865000 -0.071091 0
16.870000 -0.070268 0
16.875000 -0.069443 0
16.880000 -0.068614 0
16.885000 -0.067771 0
16.890000 -0.066902 0
16.895000 -0.065987 0
16.900000 -0.064990 0
16.905000 -0.063859 0
16.910000 -0.062516 0
16.915000 -0.060846 0
16.920000 -0.058693 0
16.925000 -0.055844 0
16.930000 -0.052025 0
16.935000 -0.046902 0
16.940000 -0.040086 0
16.945000 -0.031149 0
16.950000 -0.019663 0
16.955000 -0.005240 0
16.960000 0.012398 0
16.965000 0.033357 0
16.970000 0.057499 0
16.975000 0.084386 0
16.980000 0.113245 0
16.985000 0.142979 0
16.990000 0.172207 0
16.995000 0.199362 0
17.000000 0.222825 0
17.005000 0.241077 0
17.010000 0.252866 0
17.015000 0.257344 1
17.020000 0.254171 0
17.025000 0.243553 0
17.030000 0.226223 0
17.035000 0.203354 0
17.040000 0.176431 0
17.045000 0.147081 0
17.050000 0.116910 0
17.055000 0.087306 0
17.060000 0.059200 0
17.065000 0.032692 0
17.070000 0.006513 0
17.075000 -0.022390 0
17.080000 -0.058326 0
17.085000 -0.104381 0
17.090000 -0.158088 0
17.095000 -0.207606 0
17.100000 -0.231721 2
17.105000 -0.204426 0
17.110000 -0.101452 0
17.115000 0.092627 0
17.120000 0.373561 0
17.125000 0.702665 0
17.130000 1.001310 0
17.135000 1.173279 3
17.140000 1.152525 0
17.145000 0.944641 0
17.150000 0.618823 0
17.155000 0.267965 0
17.160000 -0.032074 0
17.165000 -0.240596 0
17.170000 -0.347974 0
17.175000 -0.365854 4
17.180000 -0.319954 0
17.185000 -0.242517 0
17.190000 -0.162279 0
17.195000 -0.096376 0
17.200000 -0.049000 0
17.205000 -0.016059 0
17.210000 0.008873 0
17.215000 0.030908 0
17.220000 0.052954 0
17.225000 0.076263 0
17.230000 0.101188 0
17.235000 0.127671 0
17.240000 0.155467 0
17.245000 0.184222 0
17.250000 0.213506 0
17.255000 0.242819 0
17.260000 0.271606 0
17.265000 0.299276 0
17.270000 0.325218 0
17.275000 0.348825 0
17.280000 0.369513 0
17.285000 0.386748 0
17.290000 0.400070 0
17.295000 0.409106 0
17.300000 0.413596 5
17.305000 0.413396 0
17.310000 0.408493 0
17.315000 0.399000 0
17.320000 0.385153 0
17.325000 0.367303 0
17.330000 0.345899 0
17.335000 0.321468 0
17.340000 0.294594 0
17.345000 0.265897 0
17.350000 0.236005 0
17.355000 0.205533 0
17.360000 0.175064 0
17.365000 0.145132 0
17.370000 0.116203 0
17.375000 0.088672 0
17.380000 0.062853 0
17.385000 0.038981 0
17.390000 0.017211 0
17.395000 -0.002377 0
17.400000 -0.019766 0
17.405000 -0.034999 0
17.410000 -0.048162 0
17.415000 -0.059382 0
17.420000 -0.068807 0
17.425000 -0.076604 0
17.430000 -0.082949 0
17.435000 -0.088016 0
17.440000 -0.091975 0
17.445000 -0.094988 0
17.450000 -0.097203 0
17.455000 -0.098753 0
17.460000 -0.099758 0
17.465000 -0.100319 0
17.470000 -0.100526 0
17.475000 -0.099731 0
17.480000 -0.098770 0
17.485000 -0.097814 0
17.490000 -0.096863 0
17.495000 -0.095916 0
17.500000 -0.094975 0
17.505000 -0.094037 0
17.510000 -0.093105 0
17.515000 -0.092176 0
17.520000 -0.091252 0
17.525000 -0.090332 0
17.530000 -0.089414 0
17.535000 -0.088497 0
17.540000 -0.087578 0
17.545000 -0.086651 0
17.550000 -0.085707 0
17.555000 -0.084729 0
17.560000 -0.083693 0
17.565000 -0.082560 0
17.570000 -0.081268 0
17.575000 -0.079731 0
17.580000 -0.077825 0
17.585000 -0.075378 0
17.590000 -0.072169 0
17.595000 -0.067914 0
17.600000 -0.062274 0
17.605000 -0.054861 0
17.610000 -0.045258 0
17.615000 -0.033057 0
17.620000 -0.017903 0
17.625000 0.000445 0
17.630000 0.022048 0
17.635000 0.046726 0
17.640000 0.074009 0
17.645000 0.103107 0
17.650000 0.132924 0
17.655000 0.162105 0
17.660000 0.189129 0
17.665000 0.212434 0
17.670000 0.230565 0
17.675000 0.242323 0
17.680000 0.246895 1
17.685000 0.243952 0
17.690000 0.233680 0
17.695000 0.216769 0
17.700000 0.194328 0
17.705000 0.167774 0
17.710000 0.138672 0
17.715000 0.108581 0
17.720000 0.078882 0
17.725000 0.050558 0
17.730000 0.023873 0
17.735000 -0.002112 0
17.740000 -0.029991 0
17.745000 -0.063793 0
17.750000 -0.107122 0
17.755000 -0.159412 0
17.760000 -0.211913 0
17.765000 -0.246484 2
17.770000 -0.238789 0
17.775000 -0.164147 0
17.780000 -0.003803 0
17.785000 0.246629 0
17.790000 0.564038 0
17.795000 0.887053 0
17.800000 1.125078 0
17.805000 1.195457 3
17.810000 1.065013 0
17.815000 0.777102 0
17.820000 0.425318 0
17.825000 0.100958 0
17.830000 -0.139218 0
17.835000 -0.275499 0
17.840000 -0.314601 4
17.845000 -0.280644 0
17.850000 -0.207141 0
17.855000 -0.126128 0
17.860000 -0.058119 0
17.865000 -0.009219 0
17.870000 0.024298 0
17.875000 0.049223 0
17.880000 0.071068 0
17.885000 0.092943 0
17.890000 0.116151 0
17.895000 0.141033 0
17.900000 0.167507 0
17.905000 0.195295 0
17.910000 0.224008 0
17.915000 0.253174 0
17.920000 0.282247 0
17.925000 0.310626 0
17.930000 0.337674 0
17.935000 0.362740 0
17.940000 0.385183 0
17.945000 0.404399 0
17.950000 0.419848 0
17.955000 0.431078 0
17.960000 0.437746 0
17.965000 0.439635 5
17.970000 0.436665 0
17.975000 0.428895 0
17.980000 0.416524 0
17.985000 0.399881 0
17.990000 0.379407 0
17.995000 0.355640 0
18.000000 0.329185 0
18.005000 0.300694 0
18.010000 0.270834 0
18.015000 0.240265 0
18.020000 0.209613 0
18.025000 0.179452 0
18.030000 0.150287 0
18.035000 0.122543 0
18.040000 0.096556 0
18.045000 0.072577 0
18.050000 0.050768 0
18.055000 0.031212 0
18.060000 0.013918 0
18.065000 -0.001163 0
18.070000 -0.014132 0
18.075000 -0.025126 0
18.080000 -0.034310 0
18.085000 -0.041863 0
18.090000 -0.047972 0
18.095000 -0.052821 0
18.100000 -0.056589 0
18.105000 -0.059443 0
18.110000 -0.061532 0
18.115000 -0.062994 0
18.120000 -0.063946 0
18.125000 -0.064488 0
18.130000 -0.064563 0
18.135000 -0.063778 0
18.140000 -0.062996 0
18.145000 -0.062218 0
18.150000 -0.061445 0
18.155000 -0.060675 0
18.160000 -0.059909 0
18.165000 -0.059146 0
18.170000 -0.058387 0
18.175000 -0.057632 0
18.180000 -0.056879 0
18.185000 -0.056128 0
18.190000 -0.055378 0
18.195000 -0.054624 0
18.200000 -0.053861 0
18.205000 -0.053079 0
18.210000 -0.052261 0
18.215000 -0.051379 0
18.220000 -0.050389 0
18.225000 -0.049224 0
18.230000 -0.047784 0
18.235000 -0.045930 0
18.240000 -0.043467 0
18.245000 -0.040143 0
18.250000 -0.035638 0
18.255000 -0.029574 0
18.260000 -0.021524 0
18.265000 -0.011042 0
18.270000 0.002289 0
18.275000 0.018801 0
18.280000 0.038668 0
18.285000 0.061833 0
18.290000 0.087943 0
18.295000 0.116305 0
18.300000 0.145880 0
18.305000 0.175319 0
18.310000 0.203052 0
18.315000 0.227415 0
18.320000 0.246813 0
18.325000 0.259890 0
18.330000 0.265688 1
18.335000 0.263757 0
18.340000 0.254214 0
18.345000 0.237731 0
18.350000 0.215455 0
18.355000 0.188874 0
18.360000 0.159653 0
18.365000 0.129446 0
18.370000 0.099708 0
18.375000 0.071440 0
18.380000 0.044812 0
18.385000 0.018606 0
18.390000 -0.010242 0
18.395000 -0.046136 0
18.400000 -0.092265 0
18.405000 -0.146071 0
18.410000 -0.195254 0
18.415000 -0.217842 2
18.420000 -0.187106 0
18.425000 -0.078447 0
18.430000 0.123001 0
18.435000 0.410572 0
18.440000 0.740672 0
18.445000 1.029111 0
18.450000 1.178187 3
18.455000 1.133611 0
18.460000 0.909723 0
18.465000 0.577735 0
18.470000 0.228579 0
18.475000 -0.065975 0
18.480000 -0.268528 0
18.485000 -0.371157 0
18.490000 -0.386069 4
18.495000 -0.338827 0
18.500000 -0.261039 0
18.505000 -0.180720 0
18.510000 -0.114589 0
18.515000 -0.066813 0
18.520000 -0.033463 0
18.525000 -0.008246 0
18.530000 0.013925 0
18.535000 0.035998 0
18.540000 0.059272 0
18.545000 0.084135 0
18.550000 0.110551 0
18.555000 0.138294 0
18.560000 0.167028 0
18.565000 0.196338 0
18.570000 0.225744 0
18.575000 0.254711 0
18.580000 0.282664 0
18.585000 0.309007 0
18.590000 0.333143 0
18.595000 0.354496 0
18.600000 0.372534 0
18.605000 0.386788 0
18.610000 0.396875 0
18.615000 0.402514 0
18.620000 0.403537 5
18.625000 0.399899 0
18.630000 0.391680 0
18.635000 0.379078 0
18.640000 0.362408 0
18.645000 0.342081 0
18.650000 0.318594 0
18.655000 0.292502 0
18.660000 0.264404 0
18.665000 0.234912 0
18.670000 0.204638 0
18.675000 0.174163 0
18.680000 0.144030 0
18.685000 0.114720 0
18.690000 0.086650 0
18.695000 0.060157 0
18.700000 0.035504 0
18.705000 0.012874 0
18.710000 -0.007623 0
18.715000 -0.025944 0
18.720000 -0.042106 0
18.725000 -0.056176 0
18.730000 -0.068258 0
18.735000 -0.078489 0
18.740000 -0.087026 0
18.745000 -0.094036 0
18.750000 -0.099691 0
18.755000 -0.104160 0
18.760000 -0.107608 0
18.765000 -0.110186 0
18.770000 -0.112033 0
18.775000 -0.113275 0
18.780000 -0.114020 0
18.785000 -0.114364 0
18.790000 -0.114233 0
18.795000 -0.113200 0
18.800000 -0.112172 0
18.805000 -0.111149 0
18.810000 -0.110131 0
18.815000 -0.109118 0
18.820000 -0.108111 0
18.825000 -0.107108 0
18.830000 -0.106110 0
18.835000 -0.105117 0
18.840000 -0.104128 0
18.845000 -0.103143 0
18.850000 -0.102160 0
18.855000 -0.101179 0
18.860000 -0.100194 0
18.865000 -0.099200 0
18.870000 -0.098187 0
18.875000 -0.097138 0
18.880000 -0.096025 0
18.885000 -0.094807 0
18.890000 -0.093421 0
18.895000 -0.091776 0
18.900000 -0.089745 0
18.905000 -0.087154 0
18.910000 -0.083778 0
18.915000 -0.079335 0
18.920000 -0.073486 0
18.925000 -0.065847 0
18.930000 -0.056012 0
18.935000 -0.043581 0
18.940000 -0.028214 0
18.945000 -0.009682 0
18.950000 0.012068 0
18.955000 0.036850 0
18.960000 0.064199 0
18.965000 0.093341 0
18.970000 0.123205 0
18.975000 0.152467 0
18.980000 0.179643 0
18.985000 0.203203 0
18.990000 0.221715 0
18.995000 0.233988 0
19.000000 0.239198 1
19.005000 0.236981 0
19.010000 0.227474 0
19.015000 0.211305 0
19.020000 0.189519 0
19.025000 0.163471 0
19.030000 0.134682 0
19.035000 0.104691 0
19.040000 0.074887 0
19.045000 0.046317 0
19.050000 0.019396 0
19.055000 -0.006528 0
19.060000 -0.033650 0
19.065000 -0.065701 0
19.070000 -0.106571 0
19.075000 -0.157060 0
19.080000 -0.210838 0
19.085000 -0.252375 0
19.090000 -0.258958 2
19.095000 -0.205917 0
19.100000 -0.072539 0
19.105000 0.150857 0
19.110000 0.451576 0
19.115000 0.781944 0
19.120000 1.059987 0
19.125000 1.196732 3
19.130000 1.134435 0
19.135000 0.890441 0
19.140000 0.548584 0
19.145000 0.207181 0
19.150000 -0.063423 0
19.155000 -0.232317 0
19.160000 -0.299139 4
19.165000 -0.283736 0
19.170000 -0.218222 0
19.175000 -0.136698 0
19.180000 -0.063943 0
19.185000 -0.009991 0
19.190000 0.026912 0
19.195000 0.053391 0
19.200000 0.075580 0
19.205000 0.097225 0
19.210000 0.120011 0
19.215000 0.144454 0
19.220000 0.170541 0
19.225000 0.198025 0
19.230000 0.226535 0
19.235000 0.255607 0
19.240000 0.284703 0
19.245000 0.313225 0
19.250000 0.340533 0
19.255000 0.365967 0
19.260000 0.388874 0
19.265000 0.408634 0
19.270000 0.424688 0
19.275000 0.436561 0
19.280000 0.443889 0
19.285000 0.446430 5
19.290000 0.444083 0
19.295000 0.436889 0
19.300000 0.425032 0
19.305000 0.408829 0
19.310000 0.388715 0
19.315000 0.365225 0
19.320000 0.338966 0
19.325000 0.310594 0
19.330000 0.280786 0
19.335000 0.250211 0
19.340000 0.219507 0
19.345000 0.189260 0
19.350000 0.159985 0
19.355000 0.132118 0
19.360000 0.106006 0
19.365000 0.081905 0
19.370000 0.059983 0
19.375000 0.040326 0
19.380000 0.022947 0
19.385000 0.007796 0
19.390000 -0.005229 0
19.395000 -0.016266 0
19.400000 -0.025481 0
19.405000 -0.033058 0
19.410000 -0.039184 0
19.415000 -0.044046 0
19.420000 -0.047826 0
19.425000 -0.050690 0
19.430000 -0.052793 0
19.435000 -0.054269 0
19.440000 -0.055237 0
19.445000 -0.055800 0
19.450000 -0.055901 0
19.455000 -0.055158 0
19.460000 -0.054420 0
19.465000 -0.053685 0
19.470000 -0.052954 0
19.475000 -0.052226 0
19.480000 -0.051502 0
19.485000 -0.050782 0
19.490000 -0.050065 0
19.495000 -0.049351 0
19.500000 -0.048639 0
19.505000 -0.047929 0
19.510000 -0.047218 0
19.515000 -0.046504 0
19.520000 -0.045779 0
19.525000 -0.045032 0
19.530000 -0.044244 0
19.535000 -0.043385 0
19.540000 -0.042407 0
19.545000 -0.041236 0
19.550000 -0.039764 0
19.555000 -0.037839 0
19.560000 -0.035252 0
19.565000 -0.031734 0
19.570000 -0.026946 0
19.575000 -0.020493 0
19.580000 -0.011933 0
19.585000 -0.000819 0
19.590000 0.013258 0
19.595000 0.030600 0
19.600000 0.051330 0
19.605000 0.075315 0
19.610000 0.102107 0
19.615000 0.130906 0
19.620000 0.160562 0
19.625000 0.189633 0
19.630000 0.216483 0
19.635000 0.239431 0
19.640000 0.256918 0
19.645000 0.267685 0
19.650000 0.270916 1
19.655000 0.266344 0
19.660000 0.254282 0
19.665000 0.235588 0
19.670000 0.211563 0
19.675000 0.183798 0
19.680000 0.153998 0
19.685000 0.123787 0
19.690000 0.094501 0
19.695000 0.066885 0
19.700000 0.040636 0
19.705000 0.013804 0
19.710000 -0.017416 0
19.715000 -0.057430 0
19.720000 -0.107649 0
19.725000 -0.161633 0
19.730000 -0.202390 0
19.735000 -0.204761 2
19.740000 -0.141764 0
19.745000 0.008187 0
19.750000 0.252069 0
19.755000 0.567595 0
19.760000 0.890234 0
19.765000 1.122735 0
19.770000 1.177925 3
19.775000 1.035997 0
19.780000 0.745841 0
19.785000 0.394295 0
19.790000 0.066012 0
19.795000 -0.184486 0
19.800000 -0.335997 0
19.805000 -0.391786 4
19.810000 -0.371545 0
19.815000 -0.304940 0
19.820000 -0.222951 0
19.825000 -0.148488 0
19.830000 -0.091670 0
19.835000 -0.051856 0
19.840000 -0.023314 0
19.845000 -0.000101 0
19.850000 0.021788 0
19.855000 0.044383 0
19.860000 0.068447 0
19.865000 0.094114 0
19.870000 0.121237 0
19.875000 0.149531 0
19.880000 0.178620 0
19.885000 0.208055 0
19.890000 0.237329 0
19.895000 0.265885 0
19.900000 0.293137 0
19.905000 0.318488 0
19.910000 0.341347 0
19.915000 0.361159 0
19.920000 0.377421 0
19.925000 0.389704 0
19.930000 0.397673 0
19.935000 0.401102 5
19.940000 0.399881 0
19.945000 0.394026 0
19.950000 0.383673 0
19.955000 0.369080 0
19.960000 0.350608 0
19.965000 0.328712 0
19.970000 0.303917 0
19.975000 0.276802 0
19.980000 0.247974 0
19.985000 0.218047 0
19.990000 0.187619 0
19.995000 0.157255 0
20.000000 0.127469 0
20.005000 0.098711 0
20.010000 0.071362 0
20.015000 0.045722 0
20.020000 0.022016 0
20.025000 0.000393 0
20.030000 -0.019072 0
20.035000 -0.036363 0
20.040000 -0.051522 0
20.045000 -0.064635 0
20.050000 -0.075824 0
20.055000 -0.085233 0
20.060000 -0.093026 0
20.065000 -0.099373 0
20.070000 -0.104446 0
20.075000 -0.108411 0
20.080000 -0.111426 0
20.085000 -0.113639 0
20.090000 -0.115180 0
20.095000 -0.116169 0
20.100000 -0.116707 0
20.105000 -0.116882 0
20.110000 -0.116013 0
20.115000 -0.114971 0
20.120000 -0.113934 0
20.125000 -0.112902 0
20.130000 -0.111876 0
20.135000 -0.110854 0
20.140000 -0.109838 0
20.145000 -0.108827 0
20.150000 -0.107820 0
20.155000 -0.106818 0
20.160000 -0.105820 0
20.165000 -0.104826 0
20.170000 -0.103834 0
20.175000 -0.102841 0
20.180000 -0.101842 0
20.185000 -0.100831 0
20.190000 -0.099794 0
20.195000 -0.098710 0
20.200000 -0.097547 0
20.205000 -0.096254 0
20.210000 -0.094757 0
20.215000 -0.092950 0
20.220000 -0.090687 0
20.225000 -0.087774 0
20.230000 -0.083959 0
20.235000 -0.078937 0
20.240000 -0.072347 0
20.245000 -0.063794 0
20.250000 -0.052868 0
20.255000 -0.039192 0
20.260000 -0.022465 0
20.265000 -0.002527 0
20.270000 0.020577 0
20.275000 0.046548 0
20.280000 0.074789 0
20.285000 0.104396 0
20.290000 0.134185 0
20.295000 0.162752 0
20.300000 0.188579 0
20.305000 0.210164 0
20.310000 0.226160 0
20.315000 0.235522 0
20.320000 0.237613 1
20.325000 0.232279 0
20.330000 0.219869 0
20.335000 0.201195 0
20.340000 0.177449 0
20.345000 0.150070 0
20.350000 0.120604 0
20.355000 0.090545 0
20.360000 0.061164 0
20.365000 0.033287 0
20.370000 0.006947 0
20.375000 -0.019100 0
20.380000 -0.047738 0
20.385000 -0.083034 0
20.390000 -0.128083 0
20.395000 -0.181200 0
20.400000 -0.232328 0
20.405000 -0.262532 2
20.410000 -0.247621 0
20.415000 -0.163863 0
20.420000 0.005967 0
20.425000 0.264079 0
20.430000 0.584793 0
20.435000 0.905176 0
20.440000 1.135747 0
20.445000 1.197492 3
20.450000 1.059756 0
20.455000 0.767735 0
20.460000 0.415498 0
20.465000 0.093191 0
20.470000 -0.143923 0
20.475000 -0.277193 0
20.480000 -0.313929 4
20.485000 -0.278533 0
20.490000 -0.204512 0
20.495000 -0.123619 0
20.500000 -0.055979 0
20.505000 -0.007417 0
20.510000 0.025899 0
20.515000 0.050739 0
20.520000 0.072563 0
20.525000 0.094441 0
20.530000 0.117657 0
20.535000 0.142545 0
20.540000 0.169020 0
20.545000 0.196805 0
20.550000 0.225513 0
20.555000 0.254671 0
20.560000 0.283737 0
20.565000 0.312112 0
20.570000 0.339161 0
20.575000 0.364235 0
20.580000 0.386696 0
20.585000 0.405941 0
20.590000 0.421432 0
20.595000 0.432717 0
20.600000 0.439452 0
20.605000 0.441420 5
20.610000 0.438537 0
20.615000 0.430861 0
20.620000 0.418586 0
20.625000 0.402037 0
20.630000 0.381653 0
20.635000 0.357964 0
20.640000 0.331574 0
20.645000 0.303131 0
20.650000 0.273300 0
20.655000 0.242739 0
20.660000 0.212072 0
20.665000 0.181875 0
20.670000 0.152654 0
20.675000 0.124835 0
20.680000 0.098757 0
20.685000 0.074675 0
20.690000 0.052752 0
20.695000 0.033076 0
20.700000 0.015660 0
20.705000 0.000457 0
20.710000 -0.012631 0
20.715000 -0.023739 0
20.720000 -0.033030 0
20.725000 -0.040681 0
20.730000 -0.046880 0
20.735000 -0.051809 0
20.740000 -0.055648 0
20.745000 -0.058563 0
20.750000 -0.060705 0
20.755000 -0.062212 0
20.760000 -0.063201 0
20.765000 -0.063775 0
20.770000 -0.063872 0
20.775000 -0.063090 0
20.780000 -0.062312 0
20.785000 -0.061537 0
20.790000 -0.060767 0
20.795000 -0.060000 0
20.800000 -0.059238 0
20.805000 -0.058479 0
20.810000 -0.057723 0
20.815000 -0.056971 0
20.820000 -0.056222 0
20.825000 -0.055475 0
20.830000 -0.054728 0
20.835000 -0.053978 0
20.840000 -0.053220 0
20.845000 -0.052445 0
20.850000 -0.051635 0
20.855000 -0.050765 0
20.860000 -0.049793 0
20.865000 -0.048656 0
20.870000 -0.047257 0
20.875000 -0.045463 0
20.880000 -0.043088 0
20.885000 -0.039885 0
20.890000 -0.035546 0
20.895000 -0.029700 0
20.900000 -0.021925 0
20.905000 -0.011779 0
20.910000 0.001161 0
20.915000 0.017241 0
20.920000 0.036659 0
20.925000 0.059392 0
20.930000 0.085131 0
20.935000 0.113232 0
20.940000 0.142708 0
20.945000 0.172253 0
20.950000 0.200326 0
20.955000 0.225274 0
20.960000 0.245485 0
20.965000 0.259566 0
20.970000 0.266493 1
20.975000 0.265737 0
20.980000 0.257327 0
20.985000 0.241853 0
20.990000 0.220391 0
20.995000 0.194381 0
21.000000 0.165465 0
21.005000 0.135306 0
21.010000 0.105402 0
21.015000 0.076845 0
21.020000 0.049977 0
21.025000 0.023859 0
21.030000 -0.004243 0
21.035000 -0.038602 0
21.040000 -0.082896 0
21.045000 -0.135934 0
21.050000 -0.187326 0
21.055000 -0.216659 2
21.060000 -0.197660 0
21.065000 -0.104908 0
21.070000 0.078904 0
21.075000 0.352303 0
21.080000 0.679724 0
21.085000 0.983955 0
21.090000 1.166587 3
21.095000 1.160447 0
21.100000 0.965207 0
21.105000 0.645143 0
21.110000 0.293150 0
21.115000 -0.012450 0
21.120000 -0.228215 0
21.125000 -0.342585 0
21.130000 -0.365988 4
21.135000 -0.323443 0
21.140000 -0.247130 0
21.145000 -0.166408 0
21.150000 -0.099341 0
21.155000 -0.050872 0
21.160000 -0.017232 0
21.165000 0.008013 0
21.170000 0.030114 0
21.175000 0.052111 0
21.180000 0.075333 0
21.185000 0.100168 0
21.190000 0.126571 0
21.195000 0.154304 0
21.200000 0.183020 0
21.205000 0.212287 0
21.210000 0.241610 0
21.215000 0.270433 0
21.220000 0.298167 0
21.225000 0.324197 0
21.230000 0.347915 0
21.235000 0.368734 0
21.240000 0.386116 0
21.245000 0.399596 0
21.250000 0.408797 0
21.255000 0.413453 5
21.260000 0.413416 0
21.265000 0.408668 0
21.270000 0.399318 0
21.275000 0.385599 0
21.280000 0.367860 0
21.285000 0.346547 0
21.290000 0.322188 0
21.295000 0.295368 0
21.300000 0.266706 0
21.305000 0.236833 0
21.310000 0.206366 0
21.315000 0.175891 0
21.320000 0.145943 0
21.325000 0.116992 0
21.330000 0.089435 0
21.335000 0.063588 0
21.340000 0.039688 0
21.345000 0.017891 0
21.350000 -0.001722 0
21.355000 -0.019133 0
21.360000 -0.034384 0
21.365000 -0.047562 0
21.370000 -0.058793 0
21.375000 -0.068227 0
21.380000 -0.076031 0
21.385000 -0.082379 0
21.390000 -0.087448 0
21.395000 -0.091408 0
21.400000 -0.094421 0
21.405000 -0.096635 0
21.410000 -0.098185 0
21.415000 -0.099189 0
21.420000 -0.099750 0
21.425000 -0.099957 0
21.430000 -0.099164 0
21.435000 -0.098206 0
21.440000 -0.097253 0
21.445000 -0.096304 0
21.450000 -0.095360 0
21.455000 -0.094421 0
21.460000 -0.093487 0
21.465000 -0.092557 0
21.470000 -0.091631 0
21.475000 -0.090710 0
21.480000 -0.089792 0
21.485000 -0.088877 0
21.490000 -0.087963 0
21.495000 -0.087046 0
21.500000 -0.086121 0
21.505000 -0.085178 0
21.510000 -0.084202 0
21.515000 -0.083166 0
21.520000 -0.082030 0
21.525000 -0.080734 0
21.530000 -0.079188 0
21.535000 -0.077265 0
21.540000 -0.074795 0
21.545000 -0.071549 0
21.550000 -0.067244 0
21.555000 -0.061535 0
21.560000 -0.054031 0
21.565000 -0.044316 0
21.570000 -0.031979 0
21.575000 -0.016670 0
21.580000 0.001845 0
21.585000 0.023617 0
21.590000 0.048451 0
21.595000 0.075858 0
21.600000 0.105028 0
21.605000 0.134846 0
21.610000 0.163941 0
21.615000 0.190781 0
21.620000 0.213802 0
21.625000 0.231558 0
21.630000 0.242865 0
21.635000 0.246941 1
21.640000 0.243487 0
21.645000 0.232727 0
21.650000 0.215384 0
21.655000 0.192597 0
21.660000 0.165800 0
21.665000 0.136571 0
21.670000 0.106465 0
21.675000 0.076843 0
21.680000 0.048650 0
21.685000 0.022074 0
21.690000 -0.003946 0
21.695000 -0.032154 0
21.700000 -0.066650 0
21.705000 -0.110862 0
21.710000 -0.163658 0
21.715000 -0.215433 0
21.720000 -0.247259 2
21.725000 -0.234452 0
21.730000 -0.152541 0
21.735000 0.016369 0
21.740000 0.274707 0
21.745000 0.595947 0
21.750000 0.914880 0
21.755000 1.139431 0
21.760000 1.190178 3
21.765000 1.044136 0
21.770000 0.749110 0
21.775000 0.396720 0
21.780000 0.073949 0
21.785000 -0.165534 0
21.790000 -0.303009 0
21.795000 -0.344723 4
21.800000 -0.313507 0
21.805000 -0.241443 0
21.810000 -0.159883 0
21.815000 -0.089806 0
21.820000 -0.038444 0
21.825000 -0.002998 0
21.830000 0.023003 0
21.835000 0.045217 0
21.840000 0.067040 0
21.845000 0.090005 0
21.850000 0.114584 0
21.855000 0.140765 0
21.860000 0.168319 0
21.865000 0.196897 0
21.870000 0.226066 0
21.875000 0.255322 0
21.880000 0.284102 0
21.885000 0.311804 0
21.890000 0.337802 0
21.895000 0.361473 0
21.900000 0.382218 0
21.905000 0.399489 0
21.910000 0.412810 0
21.915000 0.421800 0
21.920000 0.426189 5
21.925000 0.425833 0
21.930000 0.420719 0
21.935000 0.410967 0
21.940000 0.396826 0
21.945000 0.378658 0
21.950000 0.356930 0
21.955000 0.332186 0
21.960000 0.305030 0
21.965000 0.276096 0
21.970000 0.246028 0
21.975000 0.215452 0
21.980000 0.184960 0
21.985000 0.155087 0
21.990000 0.126301 0
21.995000 0.098991 0
22.000000 0.073464 0
22.005000 0.049944 0
22.010000 0.028573 0
22.015000 0.009419 0
22.020000 -0.007516 0
22.025000 -0.022288 0
22.030000 -0.034998 0
22.035000 -0.045779 0
22.040000 -0.054793 0
22.045000 -0.062212 0
22.050000 -0.068215 0
22.055000 -0.072983 0
22.060000 -0.076685 0
22.065000 -0.079483 0
22.070000 -0.081523 0
22.075000 -0.082937 0
22.080000 -0.083839 0
22.085000 -0.084330 0
22.090000 -0.084342 0
22.095000 -0.083458 0
22.100000 -0.082578 0
22.105000 -0.081703 0
22.110000 -0.080832 0
22.115000 -0.079965 0
22.120000 -0.079103 0
22.125000 -0.078245 0
22.130000 -0.077391 0
22.135000 -0.076541 0
22.140000 -0.075694 0
22.145000 -0.074851 0
22.150000 -0.074008 0
22.155000 -0.073165 0
22.160000 -0.072316 0
22.165000 -0.071453 0
22.170000 -0.070565 0
22.175000 -0.069628 0
22.180000 -0.068609 0
22.185000 -0.067454 0
22.190000 -0.066087 0
22.195000 -0.064393 0
22.200000 -0.062215 0
22.205000 -0.059344 0
22.210000 -0.055509 0
22.215000 -0.050380 0
22.220000 -0.043572 0
22.225000 -0.034664 0
22.230000 -0.023232 0
22.235000 -0.008892 0
22.240000 0.008636 0
22.245000 0.029465 0
22.250000 0.053469 0
22.255000 0.080231 0
22.260000 0.109009 0
22.265000 0.138736 0
22.270000 0.168065 0
22.275000 0.195459 0
22.280000 0.219315 0
22.285000 0.238120 0
22.290000 0.250605 0
22.295000 0.255888 1
22.300000 0.253577 0
22.305000 0.243815 0
22.310000 0.227268 0
22.315000 0.205050 0
22.320000 0.178592 0
22.325000 0.149497 0
22.330000 0.119362 0
22.335000 0.089604 0
22.340000 0.061234 0
22.345000 0.034516 0
22.350000 0.008462 0
22.355000 -0.019634 0
22.360000 -0.053926 0
22.365000 -0.097977 0
22.370000 -0.150767 0
22.375000 -0.202592 0
22.380000 -0.234139 2
22.385000 -0.220186 0
22.390000 -0.135831 0
22.395000 0.036849 0
22.400000 0.299369 0
22.405000 0.622692 0
22.410000 0.937877 0
22.415000 1.150328 0
22.420000 1.182413 3
22.425000 1.017688 0
22.430000 0.711414 0
22.435000 0.358543 0
22.440000 0.044430 0
22.445000 -0.181271 0
22.450000 -0.303668 0
22.455000 -0.332074 4
22.460000 -0.291755 0
22.465000 -0.216010 0
22.470000 -0.135474 0
22.475000 -0.068924 0
22.480000 -0.021286 0
22.485000 0.011549 0
22.490000 0.036258 0
22.495000 0.058123 0
22.500000 0.080096 0
22.505000 0.103408 0
22.510000 0.128379 0
22.515000 0.154922 0
22.520000 0.182765 0
22.525000 0.211528 0
22.530000 0.240748 0
22.535000 0.269891 0
22.540000 0.298372 0
22.545000 0.325565 0
22.550000 0.350834 0
22.555000 0.373548 0
22.560000 0.393112 0
22.565000 0.408991 0
22.570000 0.420732 0
22.575000 0.427988 0
22.580000 0.430530 5
22.585000 0.428263 0
22.590000 0.421227 0
22.595000 0.409599 0
22.600000 0.393680 0
22.605000 0.373888 0
22.610000 0.350734 0
22.615000 0.324801 0
22.620000 0.296723 0
22.625000 0.267152 0
22.630000 0.236738 0
22.635000 0.206105 0
22.640000 0.175828 0
22.645000 0.146422 0
22.650000 0.118321 0
22.655000 0.091881 0
22.660000 0.067369 0
22.665000 0.044969 0
22.670000 0.024783 0
22.675000 0.006842 0
22.680000 -0.008887 0
22.685000 -0.022486 0
22.690000 -0.034080 0
22.695000 -0.043822 0
22.700000 -0.051884 0
22.705000 -0.058448 0
22.710000 -0.063697 0
22.715000 -0.067808 0
22.720000 -0.070948 0
22.725000 -0.073274 0
22.730000 -0.074924 0
22.735000 -0.076021 0
22.740000 -0.076672 0
22.745000 -0.076967 0
22.750000 -0.076284 0
22.755000 -0.075440 0
22.760000 -0.074600 0
22.765000 -0.073765 0
22.770000 -0.072933 0
22.775000 -0.072106 0
22.780000 -0.071283 0
22.785000 -0.070464 0
22.790000 -0.069648 0
22.795000 -0.068836 0
22.800000 -0.068027 0
22.805000 -0.067220 0
22.810000 -0.066411 0
22.815000 -0.065598 0
22.820000 -0.064773 0
22.825000 -0.063924 0
22.830000 -0.063030 0
22.835000 -0.062059 0
22.840000 -0.060961 0
22.845000 -0.059659 0
22.850000 -0.058044 0
22.855000 -0.055961 0
22.860000 -0.053202 0
22.865000 -0.049499 0
22.870000 -0.044520 0
22.875000 -0.037879 0
22.880000 -0.029147 0
22.885000 -0.017891 0
22.890000 -0.003718 0
22.895000 0.013665 0
22.900000 0.034378 0
22.905000 0.058303 0
22.910000 0.085020 0
22.915000 0.113774 0
22.920000 0.143481 0
22.925000 0.172766 0
22.930000 0.200061 0
22.935000 0.223734 0
22.940000 0.242252 0
22.945000 0.254336 0
22.950000 0.259115 1
22.955000 0.256223 0
22.960000 0.245848 0
22.965000 0.228709 0
22.970000 0.205973 0
22.975000 0.179126 0
22.980000 0.149804 0
22.985000 0.119625 0
22.990000 0.089990 0
22.995000 0.061848 0
23.000000 0.035314 0
23.005000 0.009130 0
23.010000 -0.019760 0
23.015000 -0.055685 0
23.020000 -0.101755 0
23.025000 -0.155484 0
23.030000 -0.204928 0
23.035000 -0.228704 2
23.040000 -0.200642 0
23.045000 -0.096396 0
23.050000 0.099344 0
23.055000 0.381803 0
23.060000 0.711212 0
23.065000 1.007681 0
23.070000 1.174590 3
23.075000 1.148692 0
23.080000 0.937959 0
23.085000 0.610993 0
23.090000 0.260409 0
23.095000 -0.038632 0
23.100000 -0.246026 0
23.105000 -0.352466 0
23.110000 -0.369723 4
23.115000 -0.323516 0
23.120000 -0.245989 0
23.125000 -0.165750 0
23.130000 -0.099844 0
23.135000 -0.052437 0
23.140000 -0.019451 0
23.145000 0.005519 0
23.150000 0.027575 0
23.155000 0.049630 0
23.160000 0.072941 0
23.165000 0.097863 0
23.170000 0.124343 0
23.175000 0.152136 0
23.180000 0.180894 0
23.185000 0.210186 0
23.190000 0.239517 0
23.195000 0.268335 0
23.200000 0.296051 0
23.205000 0.322056 0
23.210000 0.345745 0
23.215000 0.366535 0
23.220000 0.383892 0
23.225000 0.397355 0
23.230000 0.406551 0
23.235000 0.411214 5
23.240000 0.411199 0
23.245000 0.406487 0
23.250000 0.397185 0
23.255000 0.383525 0
23.260000 0.365853 0
23.265000 0.344610 0
23.270000 0.320319 0
23.275000 0.293562 0
23.280000 0.264954 0
23.285000 0.235121 0
23.290000 0.204677 0
23.295000 0.174207 0
23.300000 0.144243 0
23.305000 0.115256 0
23.310000 0.087644 0
23.315000 0.061725 0
23.320000 0.037736 0
23.325000 0.015838 0
23.330000 -0.003883 0
23.335000 -0.021410 0
23.340000 -0.036779 0
23.345000 -0.050074 0
23.350000 -0.061419 0
23.355000 -0.070960 0
23.360000 -0.078864 0
23.365000 -0.085303 0
23.370000 -0.090453 0
23.375000 -0.094484 0
23.380000 -0.097556 0
23.385000 -0.099820 0
23.390000 -0.101410 0
23.395000 -0.102445 0
23.400000 -0.103030 0
23.405000 -0.103253 0
23.410000 -0.102448 0
23.415000 -0.101474 0
23.420000 -0.100504 0
23.425000 -0.099540 0
23.430000 -0.098580 0
23.435000 -0.097625 0
23.440000 -0.096674 0
23.445000 -0.095728 0
23.450000 -0.094787 0
23.455000 -0.093850 0
23.460000 -0.092917 0
23.465000 -0.091986 0
23.470000 -0.091057 0
23.475000 -0.090126 0
23.480000 -0.089188 0
23.485000 -0.088235 0
23.490000 -0.087250 0
23.495000 -0.086212 0
23.500000 -0.085081 0
23.505000 -0.083802 0
23.510000 -0.082291 0
23.515000 -0.080430 0
23.520000 -0.078055 0
23.525000 -0.074951 0
23.530000 -0.070845 0
23.535000 -0.065406 0
23.540000 -0.058252 0
23.545000 -0.048972 0
23.550000 -0.037153 0
23.555000 -0.022432 0
23.560000 -0.004548 0
23.565000 0.016591 0
23.570000 0.040843 0
23.575000 0.067785 0
23.580000 0.096680 0
23.585000 0.126478 0
23.590000 0.155865 0
23.595000 0.183342 0
23.600000 0.207351 0
23.605000 0.226413 0
23.610000 0.239283 0
23.615000 0.245082 1
23.620000 0.243396 0
23.625000 0.234327 0
23.630000 0.218482 0
23.635000 0.196903 0
23.640000 0.170958 0
23.645000 0.142194 0
23.650000 0.112179 0
23.655000 0.082332 0
23.660000 0.053724 0
23.665000 0.026778 0
23.670000 0.000816 0
23.675000 -0.026429 0
23.680000 -0.058787 0
23.685000 -0.100167 0
23.690000 -0.151126 0
23.695000 -0.204714 0
23.700000 -0.244527 0
23.705000 -0.247088 2
23.710000 -0.187380 0
23.715000 -0.045010 0
23.720000 0.188146 0
23.725000 0.495702 0
23.730000 0.824365 0
23.735000 1.087587 0
23.740000 1.197400 3
23.745000 1.108708 0
23.750000 0.847393 0
23.755000 0.500816 0
23.760000 0.164373 0
23.765000 -0.096783 0
23.770000 -0.255769 0
23.775000 -0.314472 4
23.780000 -0.293803 0
23.785000 -0.225997 0
23.790000 -0.144360 0
23.795000 -0.072465 0
23.800000 -0.019397 0
23.805000 0.016985 0
23.810000 0.043279 0
23.815000 0.065468 0
23.820000 0.087176 0
23.825000 0.110031 0
23.830000 0.134533 0
23.835000 0.160665 0
23.840000 0.188185 0
23.845000 0.216727 0
23.850000 0.245837 0
23.855000 0.274986 0
23.860000 0.303586 0
23.865000 0.331007 0
23.870000 0.356600 0
23.875000 0.379721 0
23.880000 0.399755 0
23.885000 0.416148 0
23.890000 0.428424 0
23.895000 0.436213 0
23.900000 0.439268 5
23.905000 0.437474 0
23.910000 0.430857 0
23.915000 0.419583 0
23.920000 0.403950 0
23.925000 0.384372 0
23.930000 0.361363 0
23.935000 0.335516 0
23.940000 0.307470 0
23.945000 0.277891 0
23.950000 0.247441 0
23.955000 0.216756 0
23.960000 0.186424 0
23.965000 0.156967 0
23.970000 0.128829 0
23.975000 0.102371 0
23.980000 0.077864 0
23.985000 0.055491 0
23.990000 0.035354 0
23.995000 0.017482 0
24.000000 0.001838 0
24.005000 -0.011664 0
24.010000 -0.023155 0
24.015000 -0.032793 0
24.020000 -0.040753 0
24.025000 -0.047221 0
24.030000 -0.052382 0
24.035000 -0.056417 0
24.040000 -0.059495 0
24.045000 -0.061772 0
24.050000 -0.063386 0
24.055000 -0.064460 0
24.060000 -0.065101 0
24.065000 -0.065240 0
24.070000 -0.064451 0
24.075000 -0.063666 0
24.080000 -0.062885 0
24.085000 -0.062108 0
24.090000 -0.061335 0
24.095000 -0.060566 0
24.100000 -0.059800 0
24.105000 -0.059038 0
24.110000 -0.058279 0
24.115000 -0.057524 0
24.120000 -0.056771 0
24.125000 -0.056018 0
24.130000 -0.055263 0
24.135000 -0.054502 0
24.140000 -0.053725 0
24.145000 -0.052917 0
24.150000 -0.052055 0
24.155000 -0.051100 0
24.160000 -0.049991 0
24.165000 -0.048642 0
24.170000 -0.046923 0
24.175000 -0.044659 0
24.180000 -0.041615 0
24.185000 -0.037491 0
24.190000 -0.031927 0
24.195000 -0.024506 0
24.200000 -0.014788 0
24.205000 -0.002341 0
24.210000 0.013199 0
24.215000 0.032059 0
24.220000 0.054260 0
24.225000 0.079543 0
24.230000 0.107321 0
24.235000 0.136660 0
24.240000 0.166299 0
24.245000 0.194727 0
24.250000 0.220295 0
24.255000 0.241371 0
24.260000 0.256513 0
24.265000 0.264626 0
24.270000 0.265097 1
24.275000 0.257865 0
24.280000 0.243436 0
24.285000 0.222818 0
24.290000 0.197409 0
24.295000 0.168834 0
24.300000 0.138767 0
24.305000 0.108747 0
24.310000 0.079947 0
24.315000 0.052855 0
24.320000 0.026757 0
24.325000 -0.000804 0
24.330000 -0.033959 0
24.335000 -0.076705 0
24.340000 -0.128865 0
24.345000 -0.181535 0
24.350000 -0.215557 2
24.355000 -0.205061 0
24.360000 -0.124039 0
24.365000 0.046510 0
24.370000 0.308620 0
24.375000 0.632280 0
24.380000 0.945492 0
24.385000 1.150124 0
24.390000 1.168204 3
24.395000 0.990438 0
24.400000 0.679588 0
24.405000 0.326700 0
24.410000 0.012424 0
24.415000 -0.215973 0
24.420000 -0.343623 0
24.425000 -0.378424 4
24.430000 -0.343480 0
24.435000 -0.270143 0
24.440000 -0.188504 0
24.445000 -0.118495 0
24.450000 -0.066932 0
24.455000 -0.031103 0
24.460000 -0.004745 0
24.465000 0.017690 0
24.470000 0.039603 0
24.475000 0.062568 0
24.480000 0.087104 0
24.485000 0.113228 0
24.490000 0.140735 0
24.495000 0.169302 0
24.500000 0.198520 0
24.505000 0.227912 0
24.510000 0.256943 0
24.515000 0.285035 0
24.520000 0.311588 0
24.525000 0.335996 0
24.530000 0.357670 0
24.535000 0.376066 0
24.540000 0.390701 0
24.545000 0.401178 0
24.550000 0.407201 0
24.555000 0.408588 5
24.560000 0.405285 0
24.565000 0.397360 0
24.570000 0.385009 0
24.575000 0.368540 0
24.580000 0.348366 0
24.585000 0.324985 0
24.590000 0.298958 0
24.595000 0.270888 0
24.600000 0.241398 0
24.605000 0.211104 0
24.610000 0.180598 0
24.615000 0.150430 0
24.620000 0.121088 0
24.625000 0.092992 0
24.630000 0.066486 0
24.635000 0.041834 0
24.640000 0.019220 0
24.645000 -0.001246 0
24.650000 -0.019522 0
24.655000 -0.035628 0
24.660000 -0.049632 0
24.665000 -0.061644 0
24.670000 -0.071801 0
24.675000 -0.080265 0
24.680000 -0.087204 0
24.685000 -0.092793 0
24.690000 -0.097203 0
24.695000 -0.100600 0
24.700000 -0.103135 0
24.705000 -0.104948 0
24.710000 -0.106165 0
24.715000 -0.106893 0
24.720000 -0.107229 0
24.725000 -0.107102 0
24.730000 -0.106105 0
24.735000 -0.105112 0
24.740000 -0.104124 0
24.745000 -0.103141 0
24.750000 -0.102164 0
24.755000 -0.101190 0
24.760000 -0.100222 0
24.765000 -0.099259 0
24.770000 -0.098300 0
24.775000 -0.097345 0
24.780000 -0.096393 0
24.785000 -0.095443 0
24.790000 -0.094494 0
24.795000 -0.093540 0
24.800000 -0.092575 0
24.805000 -0.091587 0
24.810000 -0.090557 0
24.815000 -0.089454 0
24.820000 -0.088232 0
24.825000 -0.086820 0
24.830000 -0.085118 0
24.835000 -0.082985 0
24.840000 -0.080231 0
24.845000 -0.076614 0
24.850000 -0.071829 0
24.855000 -0.065520 0
24.860000 -0.057288 0
24.865000 -0.046719 0
24.870000 -0.033421 0
24.875000 -0.017080 0
24.880000 0.002487 0
24.885000 0.025259 0
24.890000 0.050959 0
24.895000 0.079010 0
24.900000 0.108520 0
24.905000 0.138307 0
24.910000 0.166961 0
24.915000 0.192945 0
24.920000 0.214729 0
24.925000 0.230940 0
24.930000 0.240501 0
24.935000 0.242752 1
24.940000 0.237523 0
24.945000 0.225160 0
24.950000 0.206482 0
24.955000 0.182694 0
24.960000 0.155257 0
24.965000 0.125741 0
24.970000 0.095655 0
24.975000 0.066283 0
24.980000 0.038442 0
24.985000 0.012122 0
24.990000 -0.014010 0
24.995000 -0.042968 0
25.000000 -0.078895 0
25.005000 -0.124729 0
25.010000 -0.178222 0
25.015000 -0.228392 0
25.020000 -0.255363 2
25.025000 -0.234388 0
25.030000 -0.141793 0
25.035000 0.038706 0
25.040000 0.306727 0
25.045000 0.631756 0
25.050000 0.945186 0
25.055000 1.155075 0
25.060000 1.186871 3
25.065000 1.023512 0
25.070000 0.717427 0
25.075000 0.364566 0
25.080000 0.051109 0
25.085000 -0.173090 0
25.090000 -0.293408 0
25.095000 -0.319662 4
25.100000 -0.277728 0
25.105000 -0.201363 0
25.110000 -0.121218 0
25.115000 -0.055646 0
25.120000 -0.009032 0
25.125000 0.023072 0
25.130000 0.047407 0
25.135000 0.069160 0
25.140000 0.091163 0
25.145000 0.114565 0
25.150000 0.139639 0
25.155000 0.166275 0
25.160000 0.194187 0
25.165000 0.222980 0
25.170000 0.252178 0
25.175000 0.281234 0
25.180000 0.309551 0
25.185000 0.336493 0
25.190000 0.361416 0
25.195000 0.383684 0
25.200000 0.402705 0
25.205000 0.417945 0
25.210000 0.428964 0
25.215000 0.435426 0
25.220000 0.437124 5
25.225000 0.433982 0
25.230000 0.426066 0
25.235000 0.413577 0
25.240000 0.396845 0
25.245000 0.376310 0
25.250000 0.352507 0
25.255000 0.326037 0
25.260000 0.297547 0
25.265000 0.267699 0
25.270000 0.237146 0
25.275000 0.206509 0
25.280000 0.176358 0
25.285000 0.147193 0
25.290000 0.119438 0
25.295000 0.093427 0
25.300000 0.069411 0
25.305000 0.047553 0
25.310000 0.027936 0
25.315000 0.010573 0
25.320000 -0.004583 0
25.325000 -0.017630 0
25.330000 -0.028703 0
25.335000 -0.037964 0
25.340000 -0.045590 0
25.345000 -0.051767 0
25.350000 -0.056677 0
25.355000 -0.060499 0
25.360000 -0.063397 0
25.365000 -0.065524 0
25.370000 -0.067014 0
25.375000 -0.067987 0
25.380000 -0.068544 0
25.385000 -0.068623 0
25.390000 -0.067817 0
25.395000 -0.067016 0
25.400000 -0.066218 0
25.405000 -0.065424 0
25.410000 -0.064634 0
25.415000 -0.063849 0
25.420000 -0.063066 0
25.425000 -0.062288 0
25.430000 -0.061513 0
25.435000 -0.060741 0
25.440000 -0.059972 0
25.445000 -0.059203 0
25.450000 -0.058431 0
25.455000 -0.057652 0
25.460000 -0.056856 0
25.465000 -0.056027 0
25.470000 -0.055141 0
25.475000 -0.054156 0
25.480000 -0.053011 0
25.485000 -0.051614 0
25.490000 -0.049834 0
25.495000 -0.047490 0
25.500000 -0.044343 0
25.505000 -0.040090 0
25.510000 -0.034366 0
25.515000 -0.026757 0
25.520000 -0.016820 0
25.525000 -0.004133 0
25.530000 0.011658 0
25.535000 0.030768 0
25.540000 0.053199 0
25.545000 0.078674 0
25.550000 0.106588 0
25.555000 0.135992 0
25.560000 0.165619 0
25.565000 0.193955 0
25.570000 0.219360 0
25.575000 0.240220 0
25.580000 0.255112 0
25.585000 0.262966 0
25.590000 0.263191 1
25.595000 0.255747 0
25.600000 0.241151 0
25.605000 0.220418 0
25.610000 0.194942 0
25.615000 0.166340 0
25.620000 0.136275 0
25.625000 0.106272 0
25.630000 0.077493 0
25.635000 0.050416 0
25.640000 0.024331 0
25.645000 -0.003202 0
25.650000 -0.036280 0
25.655000 -0.078892 0
25.660000 -0.130941 0
25.665000 -0.183733 0
25.670000 -0.218405 2
25.675000 -0.209334 0
25.680000 -0.130604 0
25.685000 0.036973 0
25.690000 0.296170 0
25.695000 0.618557 0
25.700000 0.934141 0
25.705000 1.145731 0
25.710000 1.173772 3
25.715000 1.004773 0
25.720000 0.698014 0
25.725000 0.345092 0
25.730000 0.028622 0
25.735000 -0.202376 0
25.740000 -0.332094 0
25.745000 -0.368134 4
25.750000 -0.333697 0
25.755000 -0.260467 0
25.760000 -0.178902 0
25.765000 -0.109115 0
25.770000 -0.057888 0
25.775000 -0.022380 0
25.780000 0.003762 0
25.785000 0.026099 0
25.790000 0.047996 0
25.795000 0.070992 0
25.800000 0.095578 0
25.805000 0.121756 0
25.810000 0.149310 0
25.815000 0.177904 0
25.820000 0.207121 0
25.825000 0.236473 0
25.830000 0.265414 0
25.835000 0.293357 0
25.840000 0.319692 0
25.845000 0.343806 0
25.850000 0.365108 0
25.855000 0.383053 0
25.860000 0.397160 0
25.865000 0.407040 0
25.870000 0.412407 0
25.875000 0.413097 5
25.880000 0.409069 0
25.885000 0.400414 0
25.890000 0.387346 0
25.895000 0.370199 0
25.900000 0.349403 0
25.905000 0.325477 0
25.910000 0.298996 0
25.915000 0.270578 0
25.920000 0.240853 0
25.925000 0.210441 0
25.930000 0.179934 0
25.935000 0.149876 0
25.940000 0.120748 0
25.945000 0.092958 0
25.950000 0.066836 0
25.955000 0.042630 0
25.960000 0.020507 0
25.965000 0.000561 0
25.970000 -0.017182 0
25.975000 -0.032755 0
25.980000 -0.046240 0
25.985000 -0.057756 0
25.990000 -0.067451 0
25.995000 -0.075489 0
26.000000 -0.082045 0
26.005000 -0.087295 0
26.010000 -0.091411 0
26.015000 -0.094556 0
26.020000 -0.096880 0
26.025000 -0.098521 0
26.030000 -0.099598 0
26.035000 -0.100218 0
26.040000 -0.100471 0
26.045000 -0.099683 0
26.050000 -0.098722 0
26.055000 -0.097766 0
26.060000 -0.096815 0
26.065000 -0.095869 0
26.070000 -0.094927 0
26.075000 -0.093990 0
26.080000 -0.093058 0
26.085000 -0.092130 0
26.090000 -0.091206 0
26.095000 -0.090286 0
26.100000 -0.089369 0
26.105000 -0.088453 0
26.110000 -0.087535 0
26.115000 -0.086610 0
26.120000 -0.085669 0
26.125000 -0.084697 0
26.130000 -0.083671 0
26.135000 -0.082552 0
26.140000 -0.081283 0
26.145000 -0.079780 0
26.150000 -0.077923 0
26.155000 -0.075548 0
26.160000 -0.072435 0
26.165000 -0.068310 0
26.170000 -0.062836 0
26.175000 -0.055630 0
26.180000 -0.046275 0
26.185000 -0.034360 0
26.190000 -0.019519 0
26.195000 -0.001497 0
26.200000 0.019789 0
26.205000 0.044184 0
26.210000 0.071246 0
26.215000 0.100215 0
26.220000 0.130019 0
26.225000 0.159321 0
26.230000 0.186606 0
26.235000 0.210305 0
26.240000 0.228944 0
26.245000 0.241291 0
26.250000 0.246496 1
26.255000 0.244182 0
26.260000 0.234495 0
26.265000 0.218086 0
26.270000 0.196038 0
26.275000 0.169751 0
26.280000 0.140789 0
26.285000 0.110722 0
26.290000 0.080955 0
26.295000 0.052511 0
26.300000 0.025723 0
26.305000 -0.000247 0
26.310000 -0.027880 0
26.315000 -0.061150 0
26.320000 -0.103802 0
26.325000 -0.155675 0
26.330000 -0.208608 0
26.335000 -0.244952 2
26.340000 -0.240532 0
26.345000 -0.170446 0
26.350000 -0.015346 0
26.355000 0.230309 0
26.360000 0.545270 0
26.365000 0.870128 0
26.370000 1.114897 0
26.375000 1.195087 3
26.380000 1.076622 0
26.385000 0.797222 0
26.390000 0.446894 0
26.395000 0.116912 0
26.400000 -0.133502 0
26.405000 -0.281735 0
26.410000 -0.331930 4
26.415000 -0.305967 0
26.420000 -0.235993 0
26.425000 -0.154326 0
26.430000 -0.083249 0
26.435000 -0.030939 0
26.440000 0.005051 0
26.445000 0.031245 0
26.450000 0.053466 0
26.455000 0.075235 0
26.460000 0.098141 0
26.465000 0.122674 0
26.470000 0.148824 0
26.475000 0.176356 0
26.480000 0.204915 0
26.485000 0.234059 0
26.490000 0.263272 0
26.495000 0.291982 0
26.500000 0.319573 0
26.505000 0.345409 0
26.510000 0.368857 0
26.515000 0.389310 0
26.520000 0.406217 0
26.525000 0.419101 0
26.530000 0.427584 0
26.535000 0.431406 5
26.540000 0.430434 0
26.545000 0.424673 0
26.550000 0.414262 0
26.555000 0.399469 0
26.560000 0.380682 0
26.565000 0.358387 0
26.570000 0.333151 0
26.575000 0.305593 0
26.580000 0.276364 0
26.585000 0.246114 0
26.590000 0.215477 0
26.595000 0.185043 0
26.600000 0.155342 0
26.605000 0.126834 0
26.610000 0.099894 0
26.615000 0.074815 0
26.620000 0.051802 0
26.625000 0.030981 0
26.630000 0.012402 0
26.635000 -0.003951 0
26.640000 -0.018148 0
26.645000 -0.030302 0
26.650000 -0.040560 0
26.655000 -0.049088 0
26.660000 -0.056067 0
26.665000 -0.061679 0
26.670000 -0.066103 0
26.675000 -0.069511 0
26.680000 -0.072061 0
26.685000 -0.073897 0
26.690000 -0.075147 0
26.695000 -0.075921 0
26.700000 -0.076315 0
26.705000 -0.075649 0
26.710000 -0.074808 0
26.715000 -0.073972 0
26.720000 -0.073140 0
26.725000 -0.072311 0
26.730000 -0.071487 0
26.735000 -0.070667 0
26.740000 -0.069851 0
26.745000 -0.069039 0
26.750000 -0.068230 0
26.755000 -0.067424 0
26.760000 -0.066621 0
26.765000 -0.065817 0
26.770000 -0.065010 0
26.775000 -0.064194 0
26.780000 -0.063358 0
26.785000 -0.062485 0
26.790000 -0.061546 0
26.795000 -0.060497 0
26.800000 -0.059272 0
26.805000 -0.057771 0
26.810000 -0.055856 0
26.815000 -0.053336 0
26.820000 -0.049962 0
26.825000 -0.045423 0
26.830000 -0.039348 0
26.835000 -0.031320 0
26.840000 -0.020902 0
26.845000 -0.007685 0
26.850000 0.008662 0
26.855000 0.028323 0
26.860000 0.051260 0
26.865000 0.077155 0
26.870000 0.105362 0
26.875000 0.134898 0
26.880000 0.164476 0
26.885000 0.192579 0
26.890000 0.217581 0
26.895000 0.237901 0
26.900000 0.252165 0
26.905000 0.259357 1
26.910000 0.258942 0
26.915000 0.250928 0
26.920000 0.235868 0
26.925000 0.214795 0
26.930000 0.189106 0
26.935000 0.160405 0
26.940000 0.130333 0
26.945000 0.100383 0
26.950000 0.071684 0
26.955000 0.044676 0
26.960000 0.018619 0
26.965000 -0.008934 0
26.970000 -0.042051 0
26.975000 -0.084657 0
26.980000 -0.136653 0
26.985000 -0.189497 0
26.990000 -0.224659 2
26.995000 -0.216893 0
27.000000 -0.140535 0
27.005000 0.023680 0
27.010000 0.279328 0
27.015000 0.599969 0
27.020000 0.918422 0
27.025000 1.139202 0
27.030000 1.181076 3
27.035000 1.025041 0
27.040000 0.725083 0
27.045000 0.372375 0
27.050000 0.051724 0
27.055000 -0.185200 0
27.060000 -0.320730 0
27.065000 -0.361401 4
27.070000 -0.329871 0
27.075000 -0.257794 0
27.080000 -0.176109 0
27.085000 -0.105643 0
27.090000 -0.053741 0
27.095000 -0.017808 0
27.100000 0.008513 0
27.105000 0.030876 0
27.110000 0.052732 0
27.115000 0.075670 0
27.120000 0.100198 0
27.125000 0.126325 0
27.130000 0.153838 0
27.135000 0.182399 0
27.140000 0.211590 0
27.145000 0.240919 0
27.150000 0.269839 0
27.155000 0.297757 0
27.160000 0.324060 0
27.165000 0.348131 0
27.170000 0.369377 0
27.175000 0.387247 0
27.180000 0.401262 0
27.185000 0.411030 0
27.190000 0.416266 0
27.195000 0.416807 5
27.200000 0.412617 0
27.205000 0.403790 0
27.210000 0.390547 0
27.215000 0.373226 0
27.220000 0.352265 0
27.225000 0.328188 0
27.230000 0.301577 0
27.235000 0.273055 0
27.240000 0.243255 0
27.245000 0.212800 0
27.250000 0.182285 0
27.255000 0.152252 0
27.260000 0.123182 0
27.265000 0.095479 0
27.270000 0.069470 0
27.275000 0.045397 0
27.280000 0.023424 0
27.285000 0.003640 0
27.290000 -0.013935 0
27.295000 -0.029340 0
27.300000 -0.042659 0
27.305000 -0.054017 0
27.310000 -0.063563 0
27.315000 -0.071465 0
27.320000 -0.077898 0
27.325000 -0.083040 0
27.330000 -0.087063 0
27.335000 -0.090130 0
27.340000 -0.092390 0
27.345000 -0.093979 0
27.350000 -0.095017 0
27.355000 -0.095609 0
27.360000 -0.095843 0
27.365000 -0.095072 0
27.370000 -0.094134 0
27.375000 -0.093201 0
27.380000 -0.092273 0
27.385000 -0.091349 0
27.390000 -0.090430 0
27.395000 -0.089515 0
27.400000 -0.088605 0
27.405000 -0.087699 0
27.410000 -0.086798 0
27.415000 -0.085899 0
27.420000 -0.085004 0
27.425000 -0.084108 0
27.430000 -0.083211 0
27.435000 -0.082304 0
27.440000 -0.081380 0
27.445000 -0.080421 0
27.450000 -0.079401 0
27.455000 -0.078279 0
27.460000 -0.076992 0
27.465000 -0.075451 0
27.470000 -0.073525 0
27.475000 -0.071038 0
27.480000 -0.067761 0
27.485000 -0.063402 0
27.490000 -0.057613 0
27.495000 -0.049998 0
27.500000 -0.040136 0
27.505000 -0.027618 0
27.510000 -0.012096 0
27.515000 0.006653 0
27.520000 0.028664 0
27.525000 0.053718 0
27.530000 0.081298 0
27.535000 0.110560 0
27.540000 0.140358 0
27.545000 0.169292 0
27.550000 0.195811 0
27.555000 0.218346 0
27.560000 0.235461 0
27.565000 0.246005 0
27.570000 0.249236 1
27.575000 0.244913 0
27.580000 0.233321 0
27.585000 0.215240 0
27.590000 0.191863 0
27.595000 0.164656 0
27.600000 0.135215 0
27.605000 0.105088 0
27.610000 0.075605 0
27.615000 0.047635 0
27.620000 0.021225 0
27.625000 -0.004917 0
27.630000 -0.033802 0
27.635000 -0.069636 0
27.640000 -0.115450 0
27.645000 -0.168992 0
27.650000 -0.219049 0
27.655000 -0.245292 2
27.660000 -0.222489 0
27.665000 -0.126665 0
27.670000 0.058285 0
27.675000 0.330772 0
27.680000 0.657515 0
27.685000 0.966254 0
27.690000 1.163097 0
27.695000 1.175989 3
27.700000 0.995302 0
27.705000 0.680652 0
27.710000 0.328245 0
27.715000 0.020969 0
27.720000 -0.195005 0
27.725000 -0.307530 0
27.730000 -0.327816 4
27.735000 -0.282399 0
27.740000 -0.204922 0
27.745000 -0.125228 0
27.750000 -0.060658 0
27.755000 -0.014899 0
27.760000 0.016729 0
27.765000 0.040900 0
27.770000 0.062660 0
27.775000 0.084735 0
27.780000 0.108221 0
27.785000 0.133373 0
27.790000 0.160075 0
27.795000 0.188040 0
27.800000 0.216874 0
27.805000 0.246105 0
27.810000 0.275191 0
27.815000 0.303537 0
27.820000 0.330514 0
27.825000 0.355483 0
27.830000 0.377814 0
27.835000 0.396918 0
27.840000 0.412265 0
27.845000 0.423417 0
27.850000 0.430037 0
27.855000 0.431917 5
27.860000 0.428978 0
27.865000 0.421279 0
27.870000 0.409015 0
27.875000 0.392508 0
27.880000 0.372189 0
27.885000 0.348584 0
27.890000 0.322288 0
27.895000 0.293938 0
27.900000 0.264191 0
27.905000 0.233696 0
27.910000 0.203074 0
27.915000 0.172892 0
27.920000 0.143654 0
27.925000 0.115786 0
27.930000 0.089629 0
27.935000 0.065438 0
27.940000 0.043383 0
27.945000 0.023556 0
27.950000 0.005975 0
27.955000 -0.009400 0
27.960000 -0.022660 0
27.965000 -0.033938 0
27.970000 -0.043389 0
27.975000 -0.051188 0
27.980000 -0.057519 0
27.985000 -0.062564 0
27.990000 -0.066500 0
27.995000 -0.069493 0
28.000000 -0.071697 0
28.005000 -0.073247 0
28.010000 -0.074264 0
28.015000 -0.074852 0
28.020000 -0.074942 0
28.025000 -0.074104 0
28.030000 -0.073271 0
28.035000 -0.072443 0
28.040000 -0.071618 0
28.045000 -0.070797 0
28.050000 -0.069981 0
28.055000 -0.069168 0
28.060000 -0.068359 0
28.065000 -0.067554 0
28.070000 -0.066752 0
28.075000 -0.065953 0
28.080000 -0.065155 0
28.085000 -0.064356 0
28.090000 -0.063550 0
28.095000 -0.062731 0
28.100000 -0.061883 0
28.105000 -0.060986 0
28.110000 -0.060002 0
28.115000 -0.058876 0
28.120000 -0.057526 0
28.125000 -0.055833 0
28.130000 -0.053629 0
28.135000 -0.050696 0
28.140000 -0.046748 0
28.145000 -0.041440 0
28.150000 -0.034373 0
28.155000 -0.025113 0
28.160000 -0.013229 0
28.165000 0.001655 0
28.170000 0.019800 0
28.175000 0.041277 0
28.180000 0.065901 0
28.185000 0.093173 0
28.190000 0.122257 0
28.195000 0.151990 0
28.200000 0.180936 0
28.205000 0.207494 0
28.210000 0.230036 0
28.215000 0.247071 0
28.220000 0.257406 0
28.225000 0.260284 1
28.230000 0.255474 0
28.235000 0.243302 0
28.240000 0.224614 0
28.245000 0.200674 0
28.250000 0.173028 0
28.255000 0.143330 0
28.260000 0.113164 0
28.265000 0.083846 0
28.270000 0.056153 0
28.275000 0.029895 0
28.280000 0.003358 0
28.285000 -0.026981 0
28.290000 -0.065477 0
28.295000 -0.114213 0
28.300000 -0.168405 0
28.305000 -0.213286 0
28.310000 -0.225488 2
28.315000 -0.178597 0
28.320000 -0.049896 0
28.325000 0.171743 0
28.330000 0.473195 0
28.335000 0.802838 0
28.340000 1.071982 0
28.345000 1.187430 3
28.350000 1.103636 0
28.355000 0.849959 0
28.360000 0.506726 0
28.365000 0.164804 0
28.370000 -0.110341 0
28.375000 -0.288533 0
28.380000 -0.367444 4
28.385000 -0.363465 0
28.390000 -0.305000 0
28.395000 -0.224183 0
28.400000 -0.146864 0
28.405000 -0.086225 0
