0.000000 1.164612 3
0.005000 1.033864 0
0.010000 0.709934 0
0.015000 0.316188 0
0.020000 -0.030636 0
0.025000 -0.265251 0
0.030000 -0.372411 4
0.035000 -0.370373 0
0.040000 -0.298043 0
0.045000 -0.200492 0
0.050000 -0.111682 0
0.055000 -0.045207 0
0.060000 0.001576 0
0.065000 0.037228 0
0.070000 0.068860 0
0.075000 0.100161 0
0.080000 0.132316 0
0.085000 0.165278 0
0.090000 0.198508 0
0.095000 0.231270 0
0.100000 0.262743 0
0.105000 0.292063 0
0.110000 0.318373 0
0.115000 0.340857 0
0.120000 0.358785 0
0.125000 0.371551 0
0.130000 0.378708 0
0.135000 0.379991 5
0.140000 0.375331 0
0.145000 0.364866 0
0.150000 0.348928 0
0.155000 0.328027 0
0.160000 0.302822 0
0.165000 0.274090 0
0.170000 0.242681 0
0.175000 0.209479 0
0.180000 0.175361 0
0.185000 0.141158 0
0.190000 0.107625 0
0.195000 0.075414 0
0.200000 0.045061 0
0.205000 0.016975 0
0.210000 -0.008563 0
0.215000 -0.031392 0
0.220000 -0.051459 0
0.225000 -0.068808 0
0.230000 -0.083555 0
0.235000 -0.095876 0
0.240000 -0.105987 0
0.245000 -0.114126 0
0.250000 -0.120539 0
0.255000 -0.125470 0
0.260000 -0.129150 0
0.265000 -0.131794 0
0.270000 -0.133182 0
0.275000 -0.132160 0
0.280000 -0.131144 0
0.285000 -0.130133 0
0.290000 -0.129126 0
0.295000 -0.128123 0
0.300000 -0.127122 0
0.305000 -0.126122 0
0.310000 -0.125117 0
0.315000 -0.124098 0
0.320000 -0.123050 0
0.325000 -0.121943 0
0.330000 -0.120731 0
0.335000 -0.119338 0
0.340000 -0.117647 0
0.345000 -0.115485 0
0.350000 -0.112604 0
0.355000 -0.108674 0
0.360000 -0.103267 0
0.365000 -0.095872 0
0.370000 -0.085914 0
0.375000 -0.072804 0
0.380000 -0.056020 0
0.385000 -0.035206 0
0.390000 -0.010285 0
0.395000 0.018428 0
0.400000 0.050147 0
0.405000 0.083584 0
0.410000 0.116993 0
0.415000 0.148296 0
0.420000 0.175287 0
0.425000 0.195882 0
0.430000 0.208386 0
0.435000 0.211724 1
0.440000 0.205593 0
0.445000 0.190512 0
0.450000 0.167743 0
0.455000 0.139123 0
0.460000 0.106800 0
0.465000 0.072909 0
0.470000 0.039111 0
0.475000 0.005891 0
0.480000 -0.028406 0
0.485000 -0.068101 0
0.490000 -0.118458 0
0.495000 -0.180254 0
0.500000 -0.242600 0
0.505000 -0.280057 2
0.510000 -0.258019 0
0.515000 -0.143027 0
0.520000 0.085531 0
0.525000 0.417462 0
0.530000 0.788671 0
0.535000 1.080639 0
0.540000 1.171995 3
0.545000 1.018541 0
0.550000 0.682965 0
0.555000 0.289117 0
0.560000 -0.051257 0
0.565000 -0.277911 0
0.570000 -0.378426 4
0.575000 -0.372175 0
0.580000 -0.298069 0
0.585000 -0.200347 0
0.590000 -0.111906 0
0.595000 -0.045696 0
0.600000 0.001033 0
0.605000 0.036717 0
0.610000 0.068370 0
0.615000 0.099657 0
0.620000 0.131781 0
0.625000 0.164716 0
0.630000 0.197944 0
0.635000 0.230749 0
0.640000 0.262323 0
0.645000 0.291821 0
0.650000 0.318398 0
0.655000 0.341246 0
0.660000 0.359640 0
0.665000 0.372970 0
0.670000 0.380779 0
0.675000 0.382783 5
0.680000 0.378893 0
0.685000 0.369216 0
0.690000 0.354054 0
0.695000 0.333883 0
0.700000 0.309332 0
0.705000 0.281146 0
0.710000 0.250153 0
0.715000 0.217219 0
0.720000 0.183210 0
0.725000 0.148956 0
0.730000 0.115215 0
0.735000 0.082654 0
0.740000 0.051826 0
0.745000 0.023161 0
0.750000 -0.003033 0
0.755000 -0.026569 0
0.760000 -0.047371 0
0.765000 -0.065455 0
0.770000 -0.080921 0
0.775000 -0.093926 0
0.780000 -0.104671 0
0.785000 -0.113387 0
0.790000 -0.120315 0
0.795000 -0.125696 0
0.800000 -0.129762 0
0.805000 -0.132731 0
0.810000 -0.134798 0
0.815000 -0.134217 0
0.820000 -0.133191 0
0.825000 -0.132169 0
0.830000 -0.131152 0
0.835000 -0.130140 0
0.840000 -0.129130 0
0.845000 -0.128123 0
0.850000 -0.127113 0
0.855000 -0.126093 0
0.860000 -0.125053 0
0.865000 -0.123969 0
0.870000 -0.122805 0
0.875000 -0.121500 0
0.880000 -0.119960 0
0.885000 -0.118042 0
0.890000 -0.115541 0
0.895000 -0.112173 0
0.900000 -0.107564 0
0.905000 -0.101253 0
0.910000 -0.092701 0
0.915000 -0.081328 0
0.920000 -0.066577 0
0.925000 -0.047995 0
0.930000 -0.025343 0
0.935000 0.001298 0
0.940000 0.031423 0
0.945000 0.064047 0
0.950000 0.097706 0
0.955000 0.130530 0
0.960000 0.160397 0
0.965000 0.185154 0
0.970000 0.202868 0
0.975000 0.212080 1
0.980000 0.212000 0
0.985000 0.202621 0
0.990000 0.184724 0
0.995000 0.159769 0
1.000000 0.129696 0
1.005000 0.096652 0
1.010000 0.062647 0
1.015000 0.029050 0
1.020000 -0.004190 0
1.025000 -0.039468 0
1.030000 -0.081618 0
1.035000 -0.135300 0
1.040000 -0.198877 0
1.045000 -0.257917 0
1.050000 -0.284361 2
1.055000 -0.243457 0
1.060000 -0.104098 0
1.065000 0.149118 0
1.070000 0.496559 0
1.075000 0.862710 0
1.080000 1.124663 0
1.085000 1.171478 3
1.090000 0.977457 0
1.095000 0.620953 0
1.100000 0.230076 0
1.105000 -0.090823 0
1.110000 -0.291590 0
1.115000 -0.367416 4
1.120000 -0.342965 0
1.125000 -0.260113 0
1.130000 -0.162380 0
1.135000 -0.078733 0
1.140000 -0.017838 0
1.145000 0.025347 0
1.150000 0.059437 0
1.155000 0.090701 0
1.160000 0.122086 0
1.165000 0.154385 0
1.170000 0.187393 0
1.175000 0.220513 0
1.180000 0.252989 0
1.185000 0.283991 0
1.190000 0.312659 0
1.195000 0.338146 0
1.200000 0.359655 0
1.205000 0.376486 0
1.210000 0.388065 0
1.215000 0.393982 0
1.220000 0.394014 5
1.225000 0.388133 0
1.230000 0.376513 0
1.235000 0.359522 0
1.240000 0.337696 0
1.245000 0.311715 0
1.250000 0.282368 0
1.255000 0.250509 0
1.260000 0.217018 0
1.265000 0.182761 0
1.270000 0.148555 0
1.275000 0.115132 0
1.280000 0.083125 0
1.285000 0.053045 0
1.290000 0.025277 0
1.295000 0.000083 0
1.300000 -0.022394 0
1.305000 -0.042119 0
1.310000 -0.059145 0
1.315000 -0.073599 0
1.320000 -0.085662 0
1.325000 -0.095552 0
1.330000 -0.103507 0
1.335000 -0.109774 0
1.340000 -0.114593 0
1.345000 -0.118192 0
1.350000 -0.120782 0
1.355000 -0.122152 0
1.360000 -0.121185 0
1.365000 -0.120224 0
1.370000 -0.119266 0
1.375000 -0.118314 0
1.380000 -0.117364 0
1.385000 -0.116417 0
1.390000 -0.115470 0
1.395000 -0.114517 0
1.400000 -0.113549 0
1.405000 -0.112548 0
1.410000 -0.111487 0
1.415000 -0.110316 0
1.420000 -0.108956 0
1.425000 -0.107289 0
1.430000 -0.105135 0
1.435000 -0.102246 0
1.440000 -0.098284 0
1.445000 -0.092822 0
1.450000 -0.085343 0
1.455000 -0.075275 0
1.460000 -0.062034 0
1.465000 -0.045107 0
1.470000 -0.024152 0
1.475000 0.000893 0
1.480000 0.029697 0
1.485000 0.061456 0
1.490000 0.094873 0
1.495000 0.128198 0
1.500000 0.159359 0
1.505000 0.186162 0
1.510000 0.206542 0
1.515000 0.218827 0
1.520000 0.221961 1
1.525000 0.215656 0
1.530000 0.200439 0
1.535000 0.177571 0
1.540000 0.148882 0
1.545000 0.116507 0
1.550000 0.082568 0
1.555000 0.048719 0
1.560000 0.015453 0
1.565000 -0.018859 0
1.570000 -0.058481 0
1.575000 -0.108669 0
1.580000 -0.170338 0
1.585000 -0.232956 0
1.590000 -0.271540 2
1.595000 -0.251804 0
1.600000 -0.140295 0
1.605000 0.084125 0
1.610000 0.412834 0
1.615000 0.784470 0
1.620000 1.082789 0
1.625000 1.185515 3
1.630000 1.040786 0
1.635000 0.706446 0
1.640000 0.312844 0
1.645000 -0.022861 0
1.650000 -0.239667 0
1.655000 -0.327526 4
1.660000 -0.309690 0
1.665000 -0.229050 0
1.670000 -0.131470 0
1.675000 -0.047870 0
1.680000 0.012507 0
1.685000 0.055026 0
1.690000 0.088657 0
1.695000 0.119728 0
1.700000 0.151076 0
1.705000 0.183373 0
1.710000 0.216324 0
1.715000 0.249270 0
1.720000 0.281401 0
1.725000 0.311835 0
1.730000 0.339672 0
1.735000 0.364033 0
1.740000 0.384107 0
1.745000 0.399196 0
1.750000 0.408751 0
1.755000 0.412408 5
1.760000 0.410006 0
1.765000 0.401601 0
1.770000 0.387461 0
1.775000 0.368050 0
1.780000 0.344006 0
1.785000 0.316100 0
1.790000 0.285198 0
1.795000 0.252216 0
1.800000 0.218072 0
1.805000 0.183646 0
1.810000 0.149744 0
1.815000 0.117069 0
1.820000 0.086203 0
1.825000 0.057592 0
1.830000 0.031549 0
1.835000 0.008256 0
1.840000 -0.012221 0
1.845000 -0.029919 0
1.850000 -0.044956 0
1.855000 -0.057512 0
1.860000 -0.067811 0
1.865000 -0.076100 0
1.870000 -0.082636 0
1.875000 -0.087672 0
1.880000 -0.091448 0
1.885000 -0.094185 0
1.890000 -0.095684 0
1.895000 -0.094849 0
1.900000 -0.094019 0
1.905000 -0.093193 0
1.910000 -0.092370 0
1.915000 -0.091549 0
1.920000 -0.090731 0
1.925000 -0.089910 0
1.930000 -0.089081 0
1.935000 -0.088234 0
1.940000 -0.087347 0
1.945000 -0.086386 0
1.950000 -0.085293 0
1.955000 -0.083974 0
1.960000 -0.082287 0
1.965000 -0.080020 0
1.970000 -0.076881 0
1.975000 -0.072480 0
1.980000 -0.066328 0
1.985000 -0.057854 0
1.990000 -0.046446 0
1.995000 -0.031515 0
2.000000 -0.012599 0
2.005000 0.010519 0
2.010000 0.037690 0
2.015000 0.068289 0
2.020000 0.101164 0
2.025000 0.134651 0
2.030000 0.166678 0
2.035000 0.194964 0
2.040000 0.217274 0
2.045000 0.231714 0
2.050000 0.236991 1
2.055000 0.232604 0
2.060000 0.218923 0
2.065000 0.197135 0
2.070000 0.169070 0
2.075000 0.136939 0
2.080000 0.102984 0
2.085000 0.069005 0
2.090000 0.035631 0
2.095000 0.001279 0
2.100000 -0.038452 0
2.105000 -0.089034 0
2.110000 -0.151185 0
2.115000 -0.213151 0
2.120000 -0.247835 2
2.125000 -0.218978 0
2.130000 -0.092435 0
2.135000 0.150779 0
2.140000 0.493949 0
2.145000 0.860794 0
2.150000 1.122404 0
2.155000 1.161896 3
2.160000 0.956547 0
2.165000 0.593818 0
2.170000 0.205487 0
2.175000 -0.105365 0
2.180000 -0.292270 0
2.185000 -0.354196 4
2.190000 -0.319272 0
2.195000 -0.231751 0
2.200000 -0.134974 0
2.205000 -0.055306 0
2.210000 0.001547 0
2.215000 0.042165 0
2.220000 0.075191 0
2.225000 0.106283 0
2.230000 0.137834 0
2.235000 0.170321 0
2.240000 0.203392 0
2.245000 0.236376 0
2.250000 0.268468 0
2.255000 0.298801 0
2.260000 0.326492 0
2.265000 0.350682 0
2.270000 0.370581 0
2.275000 0.385512 0
2.280000 0.394944 0
2.285000 0.398526 5
2.290000 0.396106 0
2.295000 0.387742 0
2.300000 0.373697 0
2.305000 0.354428 0
2.310000 0.330557 0
2.315000 0.302839 0
2.320000 0.272121 0
2.325000 0.239299 0
2.330000 0.205275 0
2.335000 0.170917 0
2.340000 0.137021 0
2.345000 0.104286 0
2.350000 0.073293 0
2.355000 0.044495 0
2.360000 0.018211 0
2.365000 -0.005363 0
2.370000 -0.026151 0
2.375000 -0.044175 0
2.380000 -0.059541 0
2.385000 -0.072417 0
2.390000 -0.083016 0
2.395000 -0.091579 0
2.400000 -0.098356 0
2.405000 -0.103599 0
2.410000 -0.107545 0
2.415000 -0.110415 0
2.420000 -0.112407 0
2.425000 -0.111910 0
2.430000 -0.110994 0
2.435000 -0.110083 0
2.440000 -0.109177 0
2.445000 -0.108273 0
2.450000 -0.107372 0
2.455000 -0.106470 0
2.460000 -0.105564 0
2.465000 -0.104643 0
2.470000 -0.103692 0
2.475000 -0.102682 0
2.480000 -0.101564 0
2.485000 -0.100262 0
2.490000 -0.098653 0
2.495000 -0.096559 0
2.500000 -0.093725 0
2.505000 -0.089806 0
2.510000 -0.084361 0
2.515000 -0.076860 0
2.520000 -0.066713 0
2.525000 -0.053321 0
2.530000 -0.036165 0
2.535000 -0.014908 0
2.540000 0.010483 0
2.545000 0.039624 0
2.550000 0.071636 0
2.555000 0.105122 0
2.560000 0.138231 0
2.565000 0.168800 0
2.570000 0.194578 0
2.575000 0.213497 0
2.580000 0.223944 0
2.585000 0.224985 1
2.590000 0.216511 0
2.595000 0.199245 0
2.600000 0.174649 0
2.605000 0.144711 0
2.610000 0.111658 0
2.615000 0.077583 0
2.620000 0.043917 0
2.625000 0.010582 0
2.630000 -0.024991 0
2.635000 -0.067892 0
2.640000 -0.122726 0
2.645000 -0.186833 0
2.650000 -0.243616 0
2.655000 -0.262566 2
2.660000 -0.207497 0
2.665000 -0.047834 0
2.670000 0.227459 0
2.675000 0.587508 0
2.680000 0.940472 0
2.685000 1.154674 3
2.690000 1.133354 0
2.695000 0.883224 0
2.700000 0.504504 0
2.705000 0.124552 0
2.710000 -0.166456 0
2.715000 -0.332450 0
2.720000 -0.377920 4
2.725000 -0.333307 0
2.730000 -0.242554 0
2.735000 -0.146537 0
2.740000 -0.068753 0
2.745000 -0.013261 0
2.750000 0.026794 0
2.755000 0.059731 0
2.760000 0.090895 0
2.765000 0.122534 0
2.770000 0.155095 0
2.775000 0.188235 0
2.780000 0.221305 0
2.785000 0.253527 0
2.790000 0.284061 0
2.795000 0.312049 0
2.800000 0.336655 0
2.805000 0.357104 0
2.810000 0.372725 0
2.815000 0.382985 0
2.820000 0.387517 5
2.825000 0.386146 0
2.830000 0.378893 0
2.835000 0.365981 0
2.840000 0.347816 0
2.845000 0.324972 0
2.850000 0.298158 0
2.855000 0.268177 0
2.860000 0.235892 0
2.865000 0.202183 0
2.870000 0.167902 0
2.875000 0.133849 0
2.880000 0.100733 0
2.885000 0.069158 0
2.890000 0.039606 0
2.895000 0.012433 0
2.900000 -0.012128 0
2.905000 -0.033959 0
2.910000 -0.053045 0
2.915000 -0.069459 0
2.920000 -0.083339 0
2.925000 -0.094876 0
2.930000 -0.104293 0
2.935000 -0.111831 0
2.940000 -0.117735 0
2.945000 -0.122243 0
2.950000 -0.125579 0
2.955000 -0.127948 0
2.960000 -0.129155 0
2.965000 -0.128154 0
2.970000 -0.127158 0
2.975000 -0.126166 0
2.980000 -0.125178 0
2.985000 -0.124195 0
2.990000 -0.123213 0
2.995000 -0.122230 0
3.000000 -0.121240 0
3.005000 -0.120233 0
3.010000 -0.119189 0
3.015000 -0.118077 0
3.020000 -0.116842 0
3.025000 -0.115401 0
3.030000 -0.113623 0
3.035000 -0.111318 0
3.040000 -0.108223 0
3.045000 -0.103983 0
3.050000 -0.098154 0
3.055000 -0.090210 0
3.060000 -0.079571 0
3.065000 -0.065663 0
3.070000 -0.047995 0
3.075000 -0.026269 0
3.080000 -0.000487 0
3.085000 0.028943 0
3.090000 0.061132 0
3.095000 0.094700 0
3.100000 0.127836 0
3.105000 0.158434 0
3.110000 0.184310 0
3.115000 0.203452 0
3.120000 0.214283 0
3.125000 0.215869 1
3.130000 0.208061 0
3.135000 0.191511 0
3.140000 0.167587 0
3.145000 0.138181 0
3.150000 0.105446 0
3.155000 0.071459 0
3.160000 0.037741 0
3.165000 0.004514 0
3.170000 -0.030253 0
3.175000 -0.071160 0
3.180000 -0.123222 0
3.185000 -0.186044 0
3.190000 -0.246943 0
3.195000 -0.279083 2
3.200000 -0.247703 0
3.205000 -0.120469 0
3.210000 0.120678 0
3.215000 0.460851 0
3.220000 0.830096 0
3.225000 1.107346 0
3.230000 1.176187 3
3.235000 1.000701 0
3.240000 0.652200 0
3.245000 0.259865 0
3.250000 -0.067081 0
3.255000 -0.274392 0
3.260000 -0.355235 4
3.265000 -0.333647 0
3.270000 -0.251801 0
3.275000 -0.154091 0
3.280000 -0.070302 0
3.285000 -0.009432 0
3.290000 0.033617 0
3.295000 0.067588 0
3.300000 0.098796 0
3.305000 0.130172 0
3.310000 0.162474 0
3.315000 0.195471 0
3.320000 0.228544 0
3.325000 0.260919 0
3.330000 0.291749 0
3.335000 0.320159 0
3.340000 0.345290 0
3.345000 0.366340 0
3.350000 0.382607 0
3.355000 0.393525 0
3.360000 0.398697 5
3.365000 0.397920 0
3.370000 0.391194 0
3.375000 0.378723 0
3.380000 0.360908 0
3.385000 0.338320 0
3.390000 0.311670 0
3.395000 0.281775 0
3.400000 0.249510 0
3.405000 0.215772 0
3.410000 0.181432 0
3.415000 0.147306 0
3.420000 0.114119 0
3.425000 0.082486 0
3.430000 0.052898 0
3.435000 0.025717 0
3.440000 0.001178 0
3.445000 -0.020604 0
3.450000 -0.039618 0
3.455000 -0.055940 0
3.460000 -0.069716 0
3.465000 -0.081144 0
3.470000 -0.090452 0
3.475000 -0.097887 0
3.480000 -0.103698 0
3.485000 -0.108127 0
3.490000 -0.111399 0
3.495000 -0.113720 0
3.500000 -0.113266 0
3.505000 -0.112344 0
3.510000 -0.111427 0
3.515000 -0.110513 0
3.520000 -0.109604 0
3.525000 -0.108697 0
3.530000 -0.107792 0
3.535000 -0.106884 0
3.540000 -0.105966 0
3.545000 -0.105028 0
3.550000 -0.104046 0
3.555000 -0.102982 0
3.560000 -0.101777 0
3.565000 -0.100331 0
3.570000 -0.098499 0
3.575000 -0.096066 0
3.580000 -0.092737 0
3.585000 -0.088124 0
3.590000 -0.081745 0
3.595000 -0.073043 0
3.600000 -0.061419 0
3.605000 -0.046309 0
3.610000 -0.027267 0
3.615000 -0.004087 0
3.620000 0.023088 0
3.625000 0.053661 0
3.630000 0.086530 0
3.635000 0.120101 0
3.640000 0.152384 0
3.645000 0.181170 0
3.650000 0.204275 0
3.655000 0.219813 0
3.660000 0.226444 1
3.665000 0.223573 0
3.670000 0.211429 0
3.675000 0.191043 0
3.680000 0.164097 0
3.685000 0.132688 0
3.690000 0.099018 0
3.695000 0.064987 0
3.700000 0.031566 0
3.705000 -0.002131 0
3.710000 -0.039665 0
3.715000 -0.086461 0
3.720000 -0.145438 0
3.725000 -0.209701 0
3.730000 -0.257630 2
3.735000 -0.255944 0
3.740000 -0.169407 0
3.745000 0.027762 0
3.750000 0.335964 0
3.755000 0.706528 0
3.760000 1.031252 0
3.765000 1.180742 3
3.770000 1.084651 0
3.775000 0.782289 0
3.780000 0.390579 0
3.785000 0.030533 0
3.790000 -0.224318 0
3.795000 -0.352007 0
3.800000 -0.366151 4
3.805000 -0.302750 0
3.810000 -0.206721 0
3.815000 -0.114757 0
3.820000 -0.044046 0
3.825000 0.005797 0
3.830000 0.042885 0
3.835000 0.074854 0
3.840000 0.106005 0
3.845000 0.137900 0
3.850000 0.170665 0
3.855000 0.203833 0
3.860000 0.236704 0
3.865000 0.268475 0
3.870000 0.298297 0
3.875000 0.325313 0
3.880000 0.348703 0
3.885000 0.367718 0
3.890000 0.381725 0
3.895000 0.390240 0
3.900000 0.392951 5
3.905000 0.389744 0
3.910000 0.380702 0
3.915000 0.366105 0
3.920000 0.346414 0
3.925000 0.322248 0
3.930000 0.294348 0
3.935000 0.263542 0
3.940000 0.230702 0
3.945000 0.196703 0
3.950000 0.162386 0
3.955000 0.128525 0
3.960000 0.095799 0
3.965000 0.064776 0
3.970000 0.035899 0
3.975000 0.009486 0
3.980000 -0.014265 0
3.985000 -0.035272 0
3.990000 -0.053547 0
3.995000 -0.069186 0
4.000000 -0.082345 0
4.005000 -0.093226 0
4.010000 -0.102061 0
4.015000 -0.109092 0
4.020000 -0.114562 0
4.025000 -0.118708 0
4.030000 -0.121747 0
4.035000 -0.123877 0
4.040000 -0.123353 0
4.045000 -0.122380 0
4.050000 -0.121412 0
4.055000 -0.120449 0
4.060000 -0.119490 0
4.065000 -0.118534 0
4.070000 -0.117579 0
4.075000 -0.116621 0
4.080000 -0.115654 0
4.085000 -0.114664 0
4.090000 -0.113629 0
4.095000 -0.112512 0
4.100000 -0.111250 0
4.105000 -0.109746 0
4.110000 -0.107853 0
4.115000 -0.105359 0
4.120000 -0.101974 0
4.125000 -0.097315 0
4.130000 -0.090910 0
4.135000 -0.082212 0
4.140000 -0.070634 0
4.145000 -0.055620 0
4.150000 -0.036726 0
4.155000 -0.013736 0
4.160000 0.013231 0
4.165000 0.043620 0
4.170000 0.076389 0
4.175000 0.110010 0
4.180000 0.142560 0
4.185000 0.171883 0
4.190000 0.195820 0
4.195000 0.212468 0
4.200000 0.220432 1
4.205000 0.219016 0
4.210000 0.208324 0
4.215000 0.189250 0
4.220000 0.163352 0
4.225000 0.132637 0
4.230000 0.099276 0
4.235000 0.065230 0
4.240000 0.031709 0
4.245000 -0.001679 0
4.250000 -0.037816 0
4.255000 -0.081841 0
4.260000 -0.137838 0
4.265000 -0.202158 0
4.270000 -0.257437 0
4.275000 -0.273327 2
4.280000 -0.214664 0
4.285000 -0.052171 0
4.290000 0.224249 0
4.295000 0.584173 0
4.300000 0.938648 0
4.305000 1.159739 3
4.310000 1.151159 0
4.315000 0.914491 0
4.320000 0.541733 0
4.325000 0.156407 0
4.330000 -0.149141 0
4.335000 -0.334079 0
4.340000 -0.398052 4
4.345000 -0.366986 0
4.350000 -0.281880 0
4.355000 -0.184110 0
4.360000 -0.100735 0
4.365000 -0.039696 0
4.370000 0.003882 0
4.375000 0.038299 0
4.380000 0.069715 0
4.385000 0.101128 0
4.390000 0.133418 0
4.395000 0.166450 0
4.400000 0.199680 0
4.405000 0.232398 0
4.410000 0.263816 0
4.415000 0.293114 0
4.420000 0.319470 0
4.425000 0.342109 0
4.430000 0.360331 0
4.435000 0.373550 0
4.440000 0.381326 0
4.445000 0.383386 5
4.450000 0.379642 0
4.455000 0.370193 0
4.460000 0.355324 0
4.465000 0.335489 0
4.470000 0.311289 0
4.475000 0.283440 0
4.480000 0.252735 0
4.485000 0.220015 0
4.490000 0.186121 0
4.495000 0.151865 0
4.500000 0.117996 0
4.505000 0.085178 0
4.510000 0.053968 0
4.515000 0.024810 0
4.520000 -0.001973 0
4.525000 -0.026171 0
4.530000 -0.047685 0
4.535000 -0.066508 0
4.540000 -0.082715 0
4.545000 -0.096445 0
4.550000 -0.107882 0
4.555000 -0.117240 0
4.560000 -0.124753 0
4.565000 -0.130654 0
4.570000 -0.135175 0
4.575000 -0.138532 0
4.580000 -0.140923 0
4.585000 -0.142137 0
4.590000 -0.141071 0
4.595000 -0.140010 0
4.600000 -0.138954 0
4.605000 -0.137903 0
4.610000 -0.136856 0
4.615000 -0.135812 0
4.620000 -0.134768 0
4.625000 -0.133720 0
4.630000 -0.132658 0
4.635000 -0.131569 0
4.640000 -0.130424 0
4.645000 -0.129181 0
4.650000 -0.127770 0
4.655000 -0.126085 0
4.660000 -0.123966 0
4.665000 -0.121192 0
4.670000 -0.117461 0
4.675000 -0.112384 0
4.680000 -0.105491 0
4.685000 -0.096243 0
4.690000 -0.084077 0
4.695000 -0.068469 0
4.700000 -0.049017 0
4.705000 -0.025544 0
4.710000 0.001796 0
4.715000 0.032433 0
4.720000 0.065336 0
4.725000 0.099017 0
4.730000 0.131621 0
4.735000 0.161074 0
4.740000 0.185298 0
4.745000 0.202449 0
4.750000 0.211154 1
4.755000 0.210687 0
4.760000 0.201076 0
4.765000 0.183097 0
4.770000 0.158175 0
4.775000 0.128189 0
4.780000 0.095224 0
4.785000 0.061241 0
4.790000 0.027616 0
4.795000 -0.005577 0
4.800000 -0.040451 0
4.805000 -0.081528 0
4.810000 -0.133606 0
4.815000 -0.196294 0
4.820000 -0.257603 0
4.825000 -0.292097 2
4.830000 -0.266473 0
4.835000 -0.149082 0
4.840000 0.079376 0
4.845000 0.409367 0
4.850000 0.781266 0
4.855000 1.083613 0
4.860000 1.197860 3
4.865000 1.069948 0
4.870000 0.748911 0
4.875000 0.355154 0
4.880000 0.004398 0
4.885000 -0.237018 0
4.890000 -0.352019 0
4.895000 -0.356871 4
4.900000 -0.288678 0
4.905000 -0.191819 0
4.910000 -0.101205 0
4.915000 -0.032219 0
4.920000 0.016449 0
4.925000 0.052994 0
4.930000 0.084794 0
4.935000 0.115919 0
4.940000 0.147812 0
4.945000 0.180560 0
4.950000 0.213686 0
4.955000 0.246494 0
4.960000 0.278191 0
4.965000 0.307935 0
4.970000 0.334881 0
4.975000 0.358217 0
4.980000 0.377206 0
4.985000 0.391220 0
4.990000 0.399779 0
4.995000 0.402574 5
5.000000 0.399486 0
5.005000 0.390591 0
5.010000 0.376162 0
5.015000 0.356646 0
5.020000 0.332649 0
5.025000 0.304899 0
5.030000 0.274209 0
5.035000 0.241440 0
5.040000 0.207457 0
5.045000 0.173096 0
5.050000 0.139128 0
5.055000 0.106232 0
5.060000 0.074981 0
5.065000 0.045826 0
5.070000 0.019093 0
5.075000 -0.005010 0
5.080000 -0.026388 0
5.085000 -0.045044 0
5.090000 -0.061061 0
5.095000 -0.074588 0
5.100000 -0.085820 0
5.105000 -0.094981 0
5.110000 -0.102310 0
5.115000 -0.108050 0
5.120000 -0.112434 0
5.125000 -0.115681 0
5.130000 -0.117992 0
5.135000 -0.119178 0
5.140000 -0.118226 0
5.145000 -0.117280 0
5.150000 -0.116337 0
5.155000 -0.115399 0
5.160000 -0.114463 0
5.165000 -0.113529 0
5.170000 -0.112594 0
5.175000 -0.111651 0
5.180000 -0.110690 0
5.185000 -0.109690 0
5.190000 -0.108620 0
5.195000 -0.107424 0
5.200000 -0.106017 0
5.205000 -0.104268 0
5.210000 -0.101987 0
5.215000 -0.098910 0
5.220000 -0.094686 0
5.225000 -0.088871 0
5.230000 -0.080945 0
5.235000 -0.070335 0
5.240000 -0.056473 0
5.245000 -0.038875 0
5.250000 -0.017243 0
5.255000 0.008424 0
5.260000 0.037730 0
5.265000 0.069808 0
5.270000 0.103309 0
5.275000 0.136453 0
5.280000 0.167168 0
5.285000 0.193291 0
5.290000 0.212821 0
5.295000 0.224165 0
5.300000 0.226356 1
5.305000 0.219189 0
5.310000 0.203253 0
5.315000 0.179849 0
5.320000 0.150812 0
5.325000 0.118260 0
5.330000 0.084270 0
5.335000 0.050435 0
5.340000 0.017160 0
5.345000 -0.017260 0
5.350000 -0.057113 0
5.355000 -0.107558 0
5.360000 -0.169354 0
5.365000 -0.231938 0
5.370000 -0.270591 2
5.375000 -0.251495 0
5.380000 -0.141600 0
5.385000 0.080248 0
5.390000 0.406493 0
5.395000 0.778383 0
5.400000 1.082671 0
5.405000 1.197297 3
5.410000 1.066912 0
5.415000 0.743095 0
5.420000 0.349198 0
5.425000 0.002068 0
5.430000 -0.232893 0
5.435000 -0.340369 4
5.440000 -0.338592 0
5.445000 -0.266465 0
5.450000 -0.169076 0
5.455000 -0.080413 0
5.460000 -0.014085 0
5.465000 0.032546 0
5.470000 0.068043 0
5.475000 0.099521 0
5.480000 0.130669 0
5.485000 0.162673 0
5.490000 0.195484 0
5.495000 0.228563 0
5.500000 0.261175 0
5.505000 0.292497 0
5.510000 0.321665 0
5.515000 0.347822 0
5.520000 0.370151 0
5.525000 0.387924 0
5.530000 0.400533 0
5.535000 0.407532 0
5.540000 0.408656 5
5.545000 0.403837 0
5.550000 0.393214 0
5.555000 0.377118 0
5.560000 0.356061 0
5.565000 0.330703 0
5.570000 0.301820 0
5.575000 0.270263 0
5.580000 0.236918 0
5.585000 0.202660 0
5.590000 0.168322 0
5.595000 0.134656 0
5.600000 0.102318 0
5.605000 0.071840 0
5.610000 0.043632 0
5.615000 0.017974 0
5.620000 -0.004973 0
5.625000 -0.025157 0
5.630000 -0.042622 0
5.635000 -0.057485 0
5.640000 -0.069922 0
5.645000 -0.080150 0
5.650000 -0.088406 0
5.655000 -0.094936 0
5.660000 -0.099986 0
5.665000 -0.103786 0
5.670000 -0.106549 0
5.675000 -0.108058 0
5.680000 -0.107162 0
5.685000 -0.106270 0
5.690000 -0.105383 0
5.695000 -0.104499 0
5.700000 -0.103619 0
5.705000 -0.102741 0
5.710000 -0.101862 0
5.715000 -0.100978 0
5.720000 -0.100080 0
5.725000 -0.099151 0
5.730000 -0.098162 0
5.735000 -0.097068 0
5.740000 -0.095791 0
5.745000 -0.094213 0
5.750000 -0.092161 0
5.755000 -0.089388 0
5.760000 -0.085560 0
5.765000 -0.080250 0
5.770000 -0.072945 0
5.775000 -0.063069 0
5.780000 -0.050033 0
5.785000 -0.033318 0
5.790000 -0.012568 0
5.795000 0.012288 0
5.800000 0.040932 0
5.805000 0.072570 0
5.810000 0.105908 0
5.815000 0.139195 0
5.820000 0.170349 0
5.825000 0.197162 0
5.830000 0.217553 0
5.835000 0.229835 0
5.840000 0.232939 1
5.845000 0.226576 0
5.850000 0.211273 0
5.855000 0.188304 0
5.860000 0.159512 0
5.865000 0.127049 0
5.870000 0.093045 0
5.875000 0.059153 0
5.880000 0.025834 0
5.885000 -0.008609 0
5.890000 -0.048530 0
5.895000 -0.099180 0
5.900000 -0.161207 0
5.905000 -0.223493 0
5.910000 -0.260383 2
5.915000 -0.237193 0
5.920000 -0.120559 0
5.925000 0.109806 0
5.930000 0.442993 0
5.935000 0.813862 0
5.940000 1.103223 0
5.945000 1.190321 3
5.950000 1.032172 0
5.955000 0.694129 0
5.960000 0.300288 0
5.965000 -0.038528 0
5.970000 -0.263133 0
5.975000 -0.361794 4
5.980000 -0.354260 0
5.985000 -0.279586 0
5.990000 -0.181895 0
5.995000 -0.093786 0
6.000000 -0.027937 0
6.005000 0.018531 0
6.010000 0.054057 0
6.015000 0.085608 0
6.020000 0.116815 0
6.025000 0.148862 0
6.030000 0.181718 0
6.035000 0.214862 0
6.040000 0.247579 0
6.045000 0.279062 0
6.050000 0.308467 0
6.055000 0.334950 0
6.060000 0.357705 0
6.065000 0.376008 0
6.070000 0.389251 0
6.075000 0.396977 0
6.080000 0.398904 5
6.085000 0.394942 0
6.090000 0.385197 0
6.095000 0.369971 0
6.100000 0.349739 0
6.105000 0.325127 0
6.110000 0.296881 0
6.115000 0.265824 0
6.120000 0.232824 0
6.125000 0.198743 0
6.130000 0.164411 0
6.135000 0.130587 0
6.140000 0.097936 0
6.145000 0.067012 0
6.150000 0.038246 0
6.155000 0.011946 0
6.160000 -0.011699 0
6.165000 -0.032612 0
6.170000 -0.050808 0
6.175000 -0.066385 0
6.180000 -0.079500 0
6.185000 -0.090354 0
6.190000 -0.099175 0
6.195000 -0.106204 0
6.200000 -0.111683 0
6.205000 -0.115843 0
6.210000 -0.118902 0
6.215000 -0.121056 0
6.220000 -0.120546 0
6.225000 -0.119588 0
6.230000 -0.118634 0
6.235000 -0.117685 0
6.240000 -0.116739 0
6.245000 -0.115797 0
6.250000 -0.114856 0
6.255000 -0.113912 0
6.260000 -0.112959 0
6.265000 -0.111985 0
6.270000 -0.110969 0
6.275000 -0.109873 0
6.280000 -0.108639 0
6.285000 -0.107173 0
6.290000 -0.105335 0
6.295000 -0.102922 0
6.300000 -0.099654 0
6.305000 -0.095161 0
6.310000 -0.088985 0
6.315000 -0.080590 0
6.320000 -0.069400 0
6.325000 -0.054854 0
6.330000 -0.036494 0
6.335000 -0.014071 0
6.340000 0.012349 0
6.345000 0.042280 0
6.350000 0.074762 0
6.355000 0.108352 0
6.360000 0.141197 0
6.365000 0.171187 0
6.370000 0.196167 0
6.375000 0.214193 0
6.380000 0.223779 0
6.385000 0.224100 1
6.390000 0.215113 0
6.395000 0.197557 0
6.400000 0.172862 0
6.405000 0.142944 0
6.410000 0.109947 0
6.415000 0.075893 0
6.420000 0.042201 0
6.425000 0.008923 0
6.430000 -0.026187 0
6.435000 -0.067852 0
6.440000 -0.120873 0
6.445000 -0.184180 0
6.450000 -0.244213 0
6.455000 -0.273633 2
6.460000 -0.237860 0
6.465000 -0.105307 0
6.470000 0.140835 0
6.475000 0.483860 0
6.480000 0.852148 0
6.485000 1.124726 0
6.490000 1.187587 3
6.495000 1.007392 0
6.500000 0.656564 0
6.505000 0.264582 0
6.510000 -0.060302 0
6.515000 -0.264989 0
6.520000 -0.343438 4
6.525000 -0.320191 0
6.530000 -0.237650 0
6.535000 -0.140059 0
6.540000 -0.056783 0
6.545000 0.003575 0
6.550000 0.046288 0
6.555000 0.080091 0
6.560000 0.111224 0
6.565000 0.142557 0
6.570000 0.174820 0
6.575000 0.207767 0
6.580000 0.240776 0
6.585000 0.273070 0
6.590000 0.303801 0
6.595000 0.332094 0
6.600000 0.357091 0
6.605000 0.377991 0
6.610000 0.394094 0
6.615000 0.404839 0
6.620000 0.409832 5
6.625000 0.408874 0
6.630000 0.401969 0
6.635000 0.389327 0
6.640000 0.371350 0
6.645000 0.348614 0
6.650000 0.321833 0
6.655000 0.291825 0
6.660000 0.259467 0
6.665000 0.225654 0
6.670000 0.191258 0
6.675000 0.157092 0
6.680000 0.123879 0
6.685000 0.092233 0
6.690000 0.062641 0
6.695000 0.035462 0
6.700000 0.010929 0
6.705000 -0.010845 0
6.710000 -0.029851 0
6.715000 -0.046168 0
6.720000 -0.059943 0
6.725000 -0.071373 0
6.730000 -0.080689 0
6.735000 -0.088136 0
6.740000 -0.093964 0
6.745000 -0.098415 0
6.750000 -0.101714 0
6.755000 -0.104065 0
6.760000 -0.103657 0
6.765000 -0.102783 0
6.770000 -0.101913 0
6.775000 -0.101047 0
6.780000 -0.100184 0
6.785000 -0.099325 0
6.790000 -0.098466 0
6.795000 -0.097604 0
6.800000 -0.096733 0
6.805000 -0.095840 0
6.810000 -0.094902 0
6.815000 -0.093882 0
6.820000 -0.092717 0
6.825000 -0.091310 0
6.830000 -0.089512 0
6.835000 -0.087108 0
6.840000 -0.083800 0
6.845000 -0.079199 0
6.850000 -0.072820 0
6.855000 -0.064104 0
6.860000 -0.052455 0
6.865000 -0.037307 0
6.870000 -0.018220 0
6.875000 0.005008 0
6.880000 0.032222 0
6.885000 0.062815 0
6.890000 0.095676 0
6.895000 0.129199 0
6.900000 0.161388 0
6.905000 0.190032 0
6.910000 0.212950 0
6.915000 0.228264 0
6.920000 0.234651 1
6.925000 0.231532 0
6.930000 0.219154 0
6.935000 0.198565 0
6.940000 0.171458 0
6.945000 0.139936 0
6.950000 0.106200 0
6.955000 0.072138 0
6.960000 0.038690 0
6.965000 0.004918 0
6.970000 -0.032798 0
6.975000 -0.079890 0
6.980000 -0.139144 0
6.985000 -0.203375 0
6.990000 -0.250637 2
6.995000 -0.247491 0
7.000000 -0.158781 0
7.005000 0.040919 0
7.010000 0.351203 0
7.015000 0.722077 0
7.020000 1.044240 0
7.025000 1.188671 3
7.030000 1.085277 0
7.035000 0.774814 0
7.040000 0.381775 0
7.045000 0.030154 0
7.050000 -0.208935 0
7.055000 -0.318049 4
7.060000 -0.315740 0
7.065000 -0.242507 0
7.070000 -0.145065 0
7.075000 -0.057818 0
7.080000 0.006453 0
7.085000 0.051406 0
7.090000 0.086010 0
7.095000 0.117223 0
7.100000 0.148418 0
7.105000 0.180538 0
7.110000 0.213401 0
7.115000 0.246390 0
7.120000 0.278712 0
7.125000 0.309498 0
7.130000 0.337847 0
7.135000 0.362874 0
7.140000 0.383754 0
7.145000 0.399764 0
7.150000 0.410328 0
7.155000 0.415047 5
7.160000 0.413723 0
7.165000 0.406372 0
7.170000 0.393224 0
7.175000 0.374711 0
7.180000 0.351439 0
7.185000 0.324159 0
7.190000 0.293722 0
7.195000 0.261038 0
7.200000 0.227025 0
7.205000 0.192574 0
7.210000 0.158507 0
7.215000 0.125546 0
7.220000 0.094296 0
7.225000 0.065228 0
7.230000 0.038679 0
7.235000 0.014855 0
7.240000 -0.006158 0
7.245000 -0.024380 0
7.250000 -0.039913 0
7.255000 -0.052930 0
7.260000 -0.063645 0
7.265000 -0.072304 0
7.270000 -0.079162 0
7.275000 -0.084474 0
7.280000 -0.088483 0
7.285000 -0.091413 0
7.290000 -0.093464 0
7.295000 -0.093055 0
7.300000 -0.092233 0
7.305000 -0.091416 0
7.310000 -0.090602 0
7.315000 -0.089791 0
7.320000 -0.088982 0
7.325000 -0.088171 0
7.330000 -0.087354 0
7.335000 -0.086521 0
7.340000 -0.085653 0
7.345000 -0.084720 0
7.350000 -0.083668 0
7.355000 -0.082411 0
7.360000 -0.080819 0
7.365000 -0.078695 0
7.370000 -0.075764 0
7.375000 -0.071655 0
7.380000 -0.065899 0
7.385000 -0.057940 0
7.390000 -0.047168 0
7.395000 -0.032985 0
7.400000 -0.014895 0
7.405000 0.007378 0
7.410000 0.033767 0
7.415000 0.063749 0
7.420000 0.096278 0
7.425000 0.129789 0
7.430000 0.162279 0
7.435000 0.191493 0
7.440000 0.215164 0
7.445000 0.231308 0
7.450000 0.238494 1
7.455000 0.236053 0
7.460000 0.224176 0
7.465000 0.203895 0
7.470000 0.176928 0
7.475000 0.145431 0
7.480000 0.111670 0
7.485000 0.077584 0
7.490000 0.044118 0
7.495000 0.010229 0
7.500000 -0.027932 0
7.505000 -0.075952 0
7.510000 -0.136176 0
7.515000 -0.199940 0
7.520000 -0.243122 2
7.525000 -0.230526 0
7.530000 -0.126619 0
7.535000 0.092059 0
7.540000 0.418423 0
7.545000 0.789810 0
7.550000 1.084924 0
7.555000 1.177014 3
7.560000 1.019801 0
7.565000 0.680935 0
7.570000 0.287392 0
7.575000 -0.048330 0
7.580000 -0.267380 0
7.585000 -0.359420 4
7.590000 -0.346038 0
7.595000 -0.268042 0
7.600000 -0.170200 0
7.605000 -0.084156 0
7.610000 -0.020876 0
7.615000 0.023731 0
7.620000 0.058372 0
7.625000 0.089721 0
7.630000 0.121034 0
7.635000 0.153251 0
7.640000 0.186216 0
7.645000 0.219345 0
7.650000 0.251883 0
7.655000 0.282992 0
7.660000 0.311804 0
7.665000 0.337461 0
7.670000 0.359155 0
7.675000 0.376170 0
7.680000 0.387922 0
7.685000 0.393992 0
7.690000 0.394146 5
7.695000 0.388354 0
7.700000 0.376789 0
7.705000 0.359818 0
7.710000 0.337984 0
7.715000 0.311976 0
7.720000 0.282589 0
7.725000 0.250689 0
7.730000 0.217167 0
7.735000 0.182895 0
7.740000 0.148698 0
7.745000 0.115313 0
7.750000 0.083376 0
7.755000 0.053396 0
7.760000 0.025759 0
7.765000 0.000721 0
7.770000 -0.021582 0
7.775000 -0.041118 0
7.780000 -0.057948 0
7.785000 -0.072205 0
7.790000 -0.084076 0
7.795000 -0.093784 0
7.800000 -0.101571 0
7.805000 -0.107686 0
7.810000 -0.112371 0
7.815000 -0.115855 0
7.820000 -0.118347 0
7.825000 -0.119651 0
7.830000 -0.118697 0
7.835000 -0.117748 0
7.840000 -0.116803 0
7.845000 -0.115862 0
7.850000 -0.114925 0
7.855000 -0.113990 0
7.860000 -0.113053 0
7.865000 -0.112109 0
7.870000 -0.111148 0
7.875000 -0.110150 0
7.880000 -0.109084 0
7.885000 -0.107894 0
7.890000 -0.106495 0
7.895000 -0.104754 0
7.900000 -0.102479 0
7.905000 -0.099399 0
7.910000 -0.095154 0
7.915000 -0.089289 0
7.920000 -0.081267 0
7.925000 -0.070501 0
7.930000 -0.056410 0
7.935000 -0.038507 0
7.940000 -0.016505 0
7.945000 0.009565 0
7.950000 0.039249 0
7.955000 0.071603 0
7.960000 0.105181 0
7.965000 0.138108 0
7.970000 0.168230 0
7.975000 0.193340 0
7.980000 0.211440 0
7.985000 0.221005 0
7.990000 0.221193 1
7.995000 0.211971 0
8.000000 0.194118 0
8.005000 0.169119 0
8.010000 0.138956 0
8.015000 0.105823 0
8.020000 0.071765 0
8.025000 0.038146 0
8.030000 0.004824 0
8.035000 -0.030800 0
8.040000 -0.073772 0
8.045000 -0.128600 0
8.050000 -0.192665 0
8.055000 -0.249729 0
8.060000 -0.269914 2
8.065000 -0.217598 0
8.070000 -0.062337 0
8.075000 0.207861 0
8.080000 0.565147 0
8.085000 0.922390 0
8.090000 1.150610 3
8.095000 1.148612 0
8.100000 0.913335 0
8.105000 0.539754 0
8.110000 0.156039 0
8.115000 -0.143523 0
8.120000 -0.319075 0
8.125000 -0.372670 4
8.130000 -0.333261 0
8.135000 -0.244368 0
8.140000 -0.147720 0
8.145000 -0.068330 0
8.150000 -0.011444 0
8.155000 0.029377 0
8.160000 0.062570 0
8.165000 0.093730 0
8.170000 0.125284 0
8.175000 0.157764 0
8.180000 0.190859 0
8.185000 0.223933 0
8.190000 0.256212 0
8.195000 0.286859 0
8.200000 0.315015 0
8.205000 0.339840 0
8.210000 0.360552 0
8.215000 0.376473 0
8.220000 0.387059 0
8.225000 0.391931 5
8.230000 0.390902 0
8.235000 0.383981 0
8.240000 0.371377 0
8.245000 0.353489 0
8.250000 0.330882 0
8.255000 0.304256 0
8.260000 0.274414 0
8.265000 0.242216 0
8.270000 0.208542 0
8.275000 0.174250 0
8.280000 0.140142 0
8.285000 0.106936 0
8.290000 0.075241 0
8.295000 0.045547 0
8.300000 0.018218 0
8.305000 -0.006506 0
8.310000 -0.028503 0
8.315000 -0.047752 0
8.320000 -0.064321 0
8.325000 -0.078346 0
8.330000 -0.090017 0
8.335000 -0.099555 0
8.340000 -0.107200 0
8.345000 -0.113199 0
8.350000 -0.117789 0
8.355000 -0.121197 0
8.360000 -0.123627 0
8.365000 -0.124884 0
8.370000 -0.123904 0
8.375000 -0.122928 0
8.380000 -0.121958 0
8.385000 -0.120991 0
8.390000 -0.120028 0
8.395000 -0.119068 0
8.400000 -0.118106 0
8.405000 -0.117137 0
8.410000 -0.116151 0
8.415000 -0.115130 0
8.420000 -0.114042 0
8.425000 -0.112834 0
8.430000 -0.111423 0
8.435000 -0.109681 0
8.440000 -0.107420 0
8.445000 -0.104379 0
8.450000 -0.100207 0
8.455000 -0.094463 0
8.460000 -0.086621 0
8.465000 -0.076103 0
8.470000 -0.062333 0
8.475000 -0.044815 0
8.480000 -0.023241 0
8.485000 0.002397 0
8.490000 0.031705 0
8.495000 0.063809 0
8.500000 0.097342 0
8.505000 0.130501 0
8.510000 0.161185 0
8.515000 0.187206 0
8.520000 0.206542 0
8.525000 0.217597 0
8.530000 0.219417 1
8.535000 0.211832 0
8.540000 0.195473 0
8.545000 0.171693 0
8.550000 0.142378 0
8.555000 0.109681 0
8.560000 0.075685 0
8.565000 0.041934 0
8.570000 0.008691 0
8.575000 -0.026020 0
8.580000 -0.066760 0
8.585000 -0.118586 0
8.590000 -0.181288 0
8.595000 -0.242451 0
8.600000 -0.275444 2
8.605000 -0.245523 0
8.610000 -0.120180 0
8.615000 0.119040 0
8.620000 0.457984 0
8.625000 0.827595 0
8.630000 1.107177 0
8.635000 1.179520 3
8.640000 1.007161 0
8.645000 0.660206 0
8.650000 0.267604 0
8.655000 -0.060782 0
8.660000 -0.269931 0
8.665000 -0.352467 4
8.670000 -0.332078 0
8.675000 -0.250775 0
8.680000 -0.153044 0
8.685000 -0.068958 0
8.690000 -0.007784 0
8.695000 0.035447 0
8.700000 0.069484 0
8.705000 0.100693 0
8.710000 0.132045 0
8.715000 0.164322 0
8.720000 0.197301 0
8.725000 0.230367 0
8.730000 0.262747 0
8.735000 0.293595 0
8.740000 0.322036 0
8.745000 0.347211 0
8.750000 0.368317 0
8.755000 0.384649 0
8.760000 0.395640 0
8.765000 0.400891 5
8.770000 0.400195 0
8.775000 0.393548 0
8.780000 0.381152 0
8.785000 0.363405 0
8.790000 0.340874 0
8.795000 0.314271 0
8.800000 0.284408 0
8.805000 0.252163 0
8.810000 0.218431 0
8.815000 0.184084 0
8.820000 0.149938 0
8.825000 0.116720 0
8.830000 0.085048 0
8.835000 0.055414 0
8.840000 0.028182 0
8.845000 0.003589 0
8.850000 -0.018249 0
8.855000 -0.037317 0
8.860000 -0.053692 0
8.865000 -0.067518 0
8.870000 -0.078992 0
8.875000 -0.088343 0
8.880000 -0.095817 0
8.885000 -0.101663 0
8.890000 -0.106122 0
8.895000 -0.109421 0
8.900000 -0.111766 0
8.905000 -0.111324 0
8.910000 -0.110412 0
8.915000 -0.109504 0
8.920000 -0.108600 0
8.925000 -0.107700 0
8.930000 -0.106803 0
8.935000 -0.105907 0
8.940000 -0.105009 0
8.945000 -0.104101 0
8.950000 -0.103172 0
8.955000 -0.102200 0
8.960000 -0.101148 0
8.965000 -0.099955 0
8.970000 -0.098524 0
8.975000 -0.096709 0
8.980000 -0.094298 0
8.985000 -0.090997 0
8.990000 -0.086420 0
8.995000 -0.080086 0
9.000000 -0.071439 0
9.005000 -0.059881 0
9.010000 -0.044846 0
9.015000 -0.025887 0
9.020000 -0.002789 0
9.025000 0.024309 0
9.030000 0.054820 0
9.035000 0.087652 0
9.040000 0.121218 0
9.045000 0.153535 0
9.050000 0.182396 0
9.055000 0.205616 0
9.060000 0.221298 0
9.065000 0.228093 1
9.070000 0.225389 0
9.075000 0.213402 0
9.080000 0.193147 0
9.085000 0.166297 0
9.090000 0.134942 0
9.095000 0.101287 0
9.100000 0.067242 0
9.105000 0.033802 0
9.110000 0.000126 0
9.115000 -0.037294 0
9.120000 -0.083876 0
9.125000 -0.142650 0
9.130000 -0.206975 0
9.135000 -0.255513 2
9.140000 -0.255133 0
9.145000 -0.170533 0
9.150000 0.024368 0
9.155000 0.330677 0
9.160000 0.700882 0
9.165000 1.027777 0
9.170000 1.181685 3
9.175000 1.092379 0
9.180000 0.795511 0
9.185000 0.404862 0
9.190000 0.040954 0
9.195000 -0.220998 0
9.200000 -0.356852 0
9.205000 -0.378202 4
9.210000 -0.319318 0
9.215000 -0.224387 0
9.220000 -0.130903 0
9.225000 -0.057752 0
9.230000 -0.005919 0
9.235000 0.032251 0
9.240000 0.064585 0
9.245000 0.095739 0
9.250000 0.127529 0
9.255000 0.160215 0
9.260000 0.193389 0
9.265000 0.226387 0
9.270000 0.258429 0
9.275000 0.288685 0
9.280000 0.316308 0
9.285000 0.340481 0
9.290000 0.360449 0
9.295000 0.375564 0
9.300000 0.385315 0
9.305000 0.389358 5
9.310000 0.387535 0
9.315000 0.379883 0
9.320000 0.366634 0
9.325000 0.348199 0
9.330000 0.325153 0
9.335000 0.298197 0
9.340000 0.268128 0
9.345000 0.235796 0
9.350000 0.202068 0
9.355000 0.167785 0
9.360000 0.133733 0
9.365000 0.100610 0
9.370000 0.069013 0
9.375000 0.039418 0
9.380000 0.012178 0
9.385000 -0.012473 0
9.390000 -0.034416 0
9.395000 -0.053632 0
9.400000 -0.070189 0
9.405000 -0.084220 0
9.410000 -0.095911 0
9.415000 -0.105480 0
9.420000 -0.113163 0
9.425000 -0.119201 0
9.430000 -0.123831 0
9.435000 -0.127274 0
9.440000 -0.129736 0
9.445000 -0.131009 0
9.450000 -0.129998 0
9.455000 -0.128992 0
9.460000 -0.127992 0
9.465000 -0.126995 0
9.470000 -0.126003 0
9.475000 -0.125012 0
9.480000 -0.124022 0
9.485000 -0.123026 0
9.490000 -0.122015 0
9.495000 -0.120973 0
9.500000 -0.119870 0
9.505000 -0.118660 0
9.510000 -0.117266 0
9.515000 -0.115571 0
9.520000 -0.113404 0
9.525000 -0.110521 0
9.530000 -0.106598 0
9.535000 -0.101219 0
9.540000 -0.093882 0
9.545000 -0.084027 0
9.550000 -0.071080 0
9.555000 -0.054525 0
9.560000 -0.034001 0
9.565000 -0.009413 0
9.570000 0.018966 0
9.575000 0.050412 0
9.580000 0.083716 0
9.585000 0.117217 0
9.590000 0.148917 0
9.595000 0.176663 0
9.600000 0.198385 0
9.605000 0.212349 0
9.610000 0.217388 1
9.615000 0.213061 0
9.620000 0.199720 0
9.625000 0.178462 0
9.630000 0.150977 0
9.635000 0.119322 0
9.640000 0.085620 0
9.645000 0.051666 0
9.650000 0.018328 0
9.655000 -0.015340 0
9.660000 -0.052844 0
9.665000 -0.099449 0
9.670000 -0.158064 0
9.675000 -0.222391 0
9.680000 -0.272143 0
9.685000 -0.275562 2
9.690000 -0.198310 0
9.695000 -0.014025 0
9.700000 0.281545 0
9.705000 0.648676 0
9.710000 0.990042 0
9.715000 1.178791 3
9.720000 1.132042 0
9.725000 0.866071 0
9.730000 0.483229 0
9.735000 0.105919 0
9.740000 -0.181315 0
9.745000 -0.345260 0
9.750000 -0.390803 4
9.755000 -0.347374 0
9.760000 -0.257385 0
9.765000 -0.160786 0
9.770000 -0.081346 0
9.775000 -0.024070 0
9.780000 0.017198 0
9.785000 0.050663 0
9.790000 0.081900 0
9.795000 0.113425 0
9.800000 0.145855 0
9.805000 0.178945 0
9.810000 0.212104 0
9.815000 0.244598 0
9.820000 0.275627 0
9.825000 0.304362 0
9.830000 0.329987 0
9.835000 0.351732 0
9.840000 0.368917 0
9.845000 0.380982 0
9.850000 0.387517 0
9.855000 0.388289 5
9.860000 0.383249 0
9.865000 0.372539 0
9.870000 0.356484 0
9.875000 0.335577 0
9.880000 0.310448 0
9.885000 0.281838 0
9.890000 0.250560 0
9.895000 0.217461 0
9.900000 0.183382 0
9.905000 0.149126 0
9.910000 0.115428 0
9.915000 0.082928 0
9.920000 0.052161 0
9.925000 0.023543 0
9.930000 -0.002632 0
9.935000 -0.026181 0
9.940000 -0.047030 0
9.945000 -0.065195 0
9.950000 -0.080768 0
9.955000 -0.093903 0
9.960000 -0.104794 0
9.965000 -0.113664 0
9.970000 -0.120746 0
9.975000 -0.126278 0
9.980000 -0.130486 0
9.985000 -0.133585 0
9.990000 -0.135767 0
9.995000 -0.135200 0
10.000000 -0.134168 0
10.005000 -0.133142 0
10.010000 -0.132120 0
10.015000 -0.131103 0
10.020000 -0.130090 0
10.025000 -0.129078 0
10.030000 -0.128066 0
10.035000 -0.127046 0
10.040000 -0.126010 0
10.045000 -0.124939 0
10.050000 -0.123801 0
10.055000 -0.122546 0
10.060000 -0.121094 0
10.065000 -0.119323 0
10.070000 -0.117056 0
10.075000 -0.114043 0
10.080000 -0.109957 0
10.085000 -0.104378 0
10.090000 -0.096808 0
10.095000 -0.086695 0
10.100000 -0.073475 0
10.105000 -0.056653 0
10.110000 -0.035889 0
10.115000 -0.011104 0
10.120000 0.017414 0
10.125000 0.048938 0
10.130000 0.082270 0
10.135000 0.115777 0
10.140000 0.147496 0
10.145000 0.175318 0
10.150000 0.197209 0
10.155000 0.211459 0
10.160000 0.216902 1
10.165000 0.213074 0
10.170000 0.200279 0
10.175000 0.179550 0
10.180000 0.152510 0
10.185000 0.121155 0
10.190000 0.087577 0
10.195000 0.053593 0
10.200000 0.020196 0
10.205000 -0.013270 0
10.210000 -0.049903 0
10.215000 -0.094787 0
10.220000 -0.151541 0
10.225000 -0.215919 0
10.230000 -0.270442 0
10.235000 -0.285467 2
10.240000 -0.227008 0
10.245000 -0.066722 0
10.250000 0.205759 0
10.255000 0.563012 0
10.260000 0.922141 0
10.265000 1.160223 0
10.270000 1.176604 3
10.275000 0.957084 0
10.280000 0.589405 0
10.285000 0.202436 0
10.290000 -0.105314 0
10.295000 -0.290097 0
10.300000 -0.351542 4
10.305000 -0.317220 0
10.310000 -0.230284 0
10.315000 -0.133266 0
10.320000 -0.052584 0
10.325000 0.005433 0
10.330000 0.046845 0
10.335000 0.080188 0
10.340000 0.111276 0
10.345000 0.142690 0
10.350000 0.175031 0
10.355000 0.208015 0
10.360000 0.241013 0
10.365000 0.273253 0
10.370000 0.303897 0
10.375000 0.332081 0
10.380000 0.356962 0
10.385000 0.377753 0
10.390000 0.393767 0
10.395000 0.404452 0
10.400000 0.409424 5
10.405000 0.408486 0
10.410000 0.401643 0
10.415000 0.389099 0
10.420000 0.371249 0
10.425000 0.348656 0
10.430000 0.322021 0
10.435000 0.292147 0
10.440000 0.259896 0
10.445000 0.226153 0
10.450000 0.191778 0
10.455000 0.157578 0
10.460000 0.124275 0
10.465000 0.092481 0
10.470000 0.062688 0
10.475000 0.035264 0
10.480000 0.010448 0
10.485000 -0.011635 0
10.490000 -0.030965 0
10.495000 -0.047609 0
10.500000 -0.061707 0
10.505000 -0.073446 0
10.510000 -0.083049 0
10.515000 -0.090759 0
10.520000 -0.096821 0
10.525000 -0.101475 0
10.530000 -0.104947 0
10.535000 -0.107444 0
10.540000 -0.108769 0
10.545000 -0.107870 0
10.550000 -0.106974 0
10.555000 -0.106083 0
10.560000 -0.105196 0
10.565000 -0.104312 0
10.570000 -0.103429 0
10.575000 -0.102545 0
10.580000 -0.101653 0
10.585000 -0.100744 0
10.590000 -0.099798 0
10.595000 -0.098782 0
10.600000 -0.097643 0
10.605000 -0.096296 0
10.610000 -0.094610 0
10.615000 -0.092393 0
10.620000 -0.089379 0
10.625000 -0.085212 0
10.630000 -0.079444 0
10.635000 -0.071544 0
10.640000 -0.060929 0
10.645000 -0.047023 0
10.650000 -0.029338 0
10.655000 -0.007579 0
10.660000 0.018241 0
10.665000 0.047695 0
10.670000 0.079875 0
10.675000 0.113376 0
10.680000 0.146362 0
10.685000 0.176711 0
10.690000 0.202228 0
10.695000 0.220909 0
10.700000 0.231193 0
10.705000 0.232184 1
10.710000 0.223773 0
10.715000 0.206661 0
10.720000 0.182259 0
10.725000 0.152493 0
10.730000 0.119533 0
10.735000 0.085444 0
10.740000 0.051693 0
10.745000 0.018372 0
10.750000 -0.016756 0
10.755000 -0.058466 0
10.760000 -0.111621 0
10.765000 -0.175054 0
10.770000 -0.234788 0
10.775000 -0.262833 2
10.780000 -0.224044 0
10.785000 -0.086698 0
10.790000 0.165202 0
10.795000 0.512239 0
10.800000 0.878148 0
10.805000 1.138418 0
10.810000 1.181252 3
10.815000 0.982735 0
10.820000 0.624052 0
10.825000 0.233750 0
10.830000 -0.084693 0
10.835000 -0.282284 0
10.840000 -0.355118 4
10.845000 -0.328523 0
10.850000 -0.244744 0
10.855000 -0.147178 0
10.860000 -0.064264 0
10.865000 -0.004119 0
10.870000 0.038569 0
10.875000 0.072420 0
10.880000 0.103595 0
10.885000 0.134950 0
10.890000 0.167225 0
10.895000 0.200193 0
10.900000 0.233245 0
10.905000 0.265620 0
10.910000 0.296484 0
10.915000 0.324975 0
10.920000 0.350245 0
10.925000 0.371499 0
10.930000 0.388039 0
10.935000 0.399299 0
10.940000 0.404876 5
10.945000 0.404554 0
10.950000 0.398317 0
10.955000 0.386350 0
10.960000 0.369029 0
10.965000 0.346902 0
10.970000 0.320658 0
10.975000 0.291090 0
10.980000 0.259059 0
10.985000 0.225446 0
10.990000 0.191118 0
10.995000 0.156887 0
11.000000 0.123484 0
11.005000 0.091535 0
11.010000 0.061543 0
11.015000 0.033889 0
11.020000 0.008824 0
11.025000 -0.013516 0
11.030000 -0.033100 0
11.035000 -0.049989 0
11.040000 -0.064315 0
11.045000 -0.076261 0
11.050000 -0.086049 0
11.055000 -0.093919 0
11.060000 -0.100116 0
11.065000 -0.104882 0
11.070000 -0.108444 0
11.075000 -0.111011 0
11.080000 -0.112379 0
11.085000 -0.111461 0
11.090000 -0.110548 0
11.095000 -0.109639 0
11.100000 -0.108734 0
11.105000 -0.107833 0
11.110000 -0.106933 0
11.115000 -0.106032 0
11.120000 -0.105125 0
11.125000 -0.104201 0
11.130000 -0.103243 0
11.135000 -0.102219 0
11.140000 -0.101080 0
11.145000 -0.099742 0
11.150000 -0.098081 0
11.155000 -0.095912 0
11.160000 -0.092977 0
11.165000 -0.088929 0
11.170000 -0.083329 0
11.175000 -0.075653 0
11.180000 -0.065324 0
11.185000 -0.051758 0
11.190000 -0.034456 0
11.195000 -0.013098 0
11.200000 0.012339 0
11.205000 0.041475 0
11.210000 0.073451 0
11.215000 0.106911 0
11.220000 0.140058 0
11.225000 0.170788 0
11.230000 0.196905 0
11.235000 0.216372 0
11.240000 0.227574 0
11.245000 0.229538 1
11.250000 0.222075 0
11.255000 0.205804 0
11.260000 0.182074 0
11.265000 0.152768 0
11.270000 0.120047 0
11.275000 0.086005 0
11.280000 0.052199 0
11.285000 0.018905 0
11.290000 -0.015843 0
11.295000 -0.056615 0
11.300000 -0.108487 0
11.305000 -0.171248 0
11.310000 -0.232416 0
11.315000 -0.265223 2
11.320000 -0.234787 0
11.325000 -0.108539 0
11.330000 0.131846 0
11.335000 0.471670 0
11.340000 0.840866 0
11.345000 1.117857 0
11.350000 1.185770 3
11.355000 1.010466 0
11.360000 0.663443 0
11.365000 0.270493 0
11.370000 -0.060679 0
11.375000 -0.275056 0
11.380000 -0.363973 4
11.385000 -0.349228 0
11.390000 -0.270993 0
11.395000 -0.173116 0
11.400000 -0.086709 0
11.405000 -0.022814 0
11.410000 0.022338 0
11.415000 0.057273 0
11.420000 0.088689 0
11.425000 0.119949 0
11.430000 0.152082 0
11.435000 0.184991 0
11.440000 0.218126 0
11.445000 0.250759 0
11.450000 0.282078 0
11.455000 0.311234 0
11.460000 0.337382 0
11.465000 0.359722 0
11.470000 0.377539 0
11.475000 0.390236 0
11.480000 0.397373 0
11.485000 0.398685 5
11.490000 0.394104 0
11.495000 0.383758 0
11.500000 0.367967 0
11.505000 0.347225 0
11.510000 0.322176 0
11.515000 0.293576 0
11.520000 0.262258 0
11.525000 0.229092 0
11.530000 0.194941 0
11.535000 0.160630 0
11.540000 0.126909 0
11.545000 0.094434 0
11.550000 0.063744 0
11.555000 0.035258 0
11.560000 0.009270 0
11.565000 -0.014047 0
11.570000 -0.034624 0
11.575000 -0.052492 0
11.580000 -0.067753 0
11.585000 -0.080573 0
11.590000 -0.091157 0
11.595000 -0.099736 0
11.600000 -0.106553 0
11.605000 -0.111849 0
11.610000 -0.115855 0
11.615000 -0.118786 0
11.620000 -0.120833 0
11.625000 -0.120309 0
11.630000 -0.119352 0
11.635000 -0.118399 0
11.640000 -0.117451 0
11.645000 -0.116507 0
11.650000 -0.115565 0
11.655000 -0.114624 0
11.660000 -0.113681 0
11.665000 -0.112726 0
11.670000 -0.111748 0
11.675000 -0.110723 0
11.680000 -0.109612 0
11.685000 -0.108350 0
11.690000 -0.106840 0
11.695000 -0.104931 0
11.700000 -0.102409 0
11.705000 -0.098980 0
11.710000 -0.094262 0
11.715000 -0.087780 0
11.720000 -0.078989 0
11.725000 -0.067309 0
11.730000 -0.052188 0
11.735000 -0.033193 0
11.740000 -0.010116 0
11.745000 0.016913 0
11.750000 0.047337 0
11.755000 0.080111 0
11.760000 0.113715 0
11.765000 0.146238 0
11.770000 0.175542 0
11.775000 0.199485 0
11.780000 0.216177 0
11.785000 0.224230 1
11.790000 0.222945 0
11.795000 0.212413 0
11.800000 0.193505 0
11.805000 0.167754 0
11.810000 0.137142 0
11.815000 0.103823 0
11.820000 0.069758 0
11.825000 0.036190 0
11.830000 0.002827 0
11.835000 -0.033062 0
11.840000 -0.076508 0
11.845000 -0.131781 0
11.850000 -0.195941 0
11.855000 -0.252717 0
11.860000 -0.272683 2
11.865000 -0.220947 0
11.870000 -0.067612 0
11.875000 0.199565 0
11.880000 0.554785 0
11.885000 0.914972 0
11.890000 1.154444 0
11.895000 1.169545 3
11.900000 0.946253 0
11.905000 0.576038 0
11.910000 0.191110 0
11.915000 -0.109804 0
11.920000 -0.284901 0
11.925000 -0.336395 4
11.930000 -0.294575 0
11.935000 -0.204549 0
11.940000 -0.108729 0
11.945000 -0.031451 0
11.950000 0.023276 0
11.955000 0.062665 0
11.960000 0.095206 0
11.965000 0.126196 0
11.970000 0.157763 0
11.975000 0.190258 0
11.980000 0.223274 0
11.985000 0.256119 0
11.990000 0.287975 0
11.995000 0.317968 0
12.000000 0.345213 0
12.005000 0.368854 0
12.010000 0.388111 0
12.015000 0.402318 0
12.020000 0.410964 0
12.025000 0.413722 5
12.030000 0.410463 0
12.035000 0.401274 0
12.040000 0.386445 0
12.045000 0.366455 0
12.050000 0.341950 0
12.055000 0.313701 0
12.060000 0.282567 0
12.065000 0.249451 0
12.070000 0.215256 0
12.075000 0.180843 0
12.080000 0.146999 0
12.085000 0.114409 0
12.090000 0.083639 0
12.095000 0.055123 0
12.100000 0.029162 0
12.105000 0.005934 0
12.110000 -0.014501 0
12.115000 -0.032178 0
12.120000 -0.047214 0
12.125000 -0.059788 0
12.130000 -0.070118 0
12.135000 -0.078448 0
12.140000 -0.085030 0
12.145000 -0.090115 0
12.150000 -0.093938 0
12.155000 -0.096719 0
12.160000 -0.098248 0
12.165000 -0.097401 0
12.170000 -0.096558 0
12.175000 -0.095719 0
12.180000 -0.094883 0
12.185000 -0.094051 0
12.190000 -0.093220 0
12.195000 -0.092388 0
12.200000 -0.091549 0
12.205000 -0.090693 0
12.210000 -0.089803 0
12.215000 -0.088845 0
12.220000 -0.087768 0
12.225000 -0.086485 0
12.230000 -0.084867 0
12.235000 -0.082719 0
12.240000 -0.079769 0
12.245000 -0.075654 0
12.250000 -0.069911 0
12.255000 -0.061994 0
12.260000 -0.051304 0
12.265000 -0.037250 0
12.270000 -0.019336 0
12.275000 0.002722 0
12.280000 0.028878 0
12.285000 0.058649 0
12.290000 0.091044 0
12.295000 0.124557 0
12.300000 0.157248 0
12.305000 0.186908 0
12.310000 0.211295 0
12.315000 0.228411 0
12.320000 0.236769 1
12.325000 0.235610 0
12.330000 0.225011 0
12.335000 0.205879 0
12.340000 0.179820 0
12.345000 0.148910 0
12.350000 0.115390 0
12.355000 0.081265 0
12.360000 0.047702 0
12.365000 0.014120 0
12.370000 -0.022730 0
12.375000 -0.068265 0
12.380000 -0.126078 0
12.385000 -0.190590 0
12.390000 -0.241407 0
12.395000 -0.245553 2
12.400000 -0.167041 0
12.405000 0.021502 0
12.410000 0.323096 0
12.415000 0.692352 0
12.420000 1.022711 0
12.425000 1.182378 3
12.430000 1.094696 0
12.435000 0.794927 0
12.440000 0.403274 0
12.445000 0.044941 0
12.450000 -0.205024 0
12.455000 -0.325549 0
12.460000 -0.332396 4
12.465000 -0.264128 0
12.470000 -0.167213 0
12.475000 -0.077704 0
12.480000 -0.010625 0
12.485000 0.036301 0
12.490000 0.071824 0
12.495000 0.103274 0
12.500000 0.134422 0
12.505000 0.166448 0
12.510000 0.199278 0
12.515000 0.232341 0
12.520000 0.264874 0
12.525000 0.296025 0
12.530000 0.324906 0
12.535000 0.350635 0
12.540000 0.372382 0
12.545000 0.389412 0
12.550000 0.401123 0
12.555000 0.407086 5
12.560000 0.407061 0
12.565000 0.401022 0
12.570000 0.389151 0
12.575000 0.371833 0
12.580000 0.349632 0
12.585000 0.323261 0
12.590000 0.293543 0
12.595000 0.261366 0
12.600000 0.227643 0
12.605000 0.193264 0
12.610000 0.159063 0
12.615000 0.125781 0
12.620000 0.094051 0
12.625000 0.064375 0
12.630000 0.037124 0
12.635000 0.012537 0
12.640000 -0.009268 0
12.645000 -0.028281 0
12.650000 -0.044581 0
12.655000 -0.058320 0
12.660000 -0.069698 0
12.665000 -0.078951 0
12.670000 -0.086329 0
12.675000 -0.092087 0
12.680000 -0.096468 0
12.685000 -0.099702 0
12.690000 -0.101995 0
12.695000 -0.101586 0
12.700000 -0.100723 0
12.705000 -0.099863 0
12.710000 -0.099007 0
12.715000 -0.098155 0
12.720000 -0.097305 0
12.725000 -0.096455 0
12.730000 -0.095602 0
12.735000 -0.094738 0
12.740000 -0.093848 0
12.745000 -0.092907 0
12.750000 -0.091874 0
12.755000 -0.090680 0
12.760000 -0.089214 0
12.765000 -0.087312 0
12.770000 -0.084740 0
12.775000 -0.081173 0
12.780000 -0.076190 0
12.785000 -0.069278 0
12.790000 -0.059853 0
12.795000 -0.047307 0
12.800000 -0.031089 0
12.805000 -0.010808 0
12.810000 0.013648 0
12.815000 0.041992 0
12.820000 0.073451 0
12.825000 0.106726 0
12.830000 0.140037 0
12.835000 0.171255 0
12.840000 0.198108 0
12.845000 0.218455 0
12.850000 0.230561 0
12.855000 0.233344 1
12.860000 0.226532 0
12.865000 0.210706 0
12.870000 0.187219 0
12.875000 0.157999 0
12.880000 0.125272 0
12.885000 0.091201 0
12.890000 0.057382 0
12.895000 0.024050 0
12.900000 -0.010945 0
12.905000 -0.052440 0
12.910000 -0.105496 0
12.915000 -0.168977 0
12.920000 -0.228350 0
12.925000 -0.254462 2
12.930000 -0.210985 0
12.935000 -0.065718 0
12.940000 0.195962 0
12.945000 0.549483 0
12.950000 0.909630 0
12.955000 1.145400 0
12.960000 1.150079 3
12.965000 0.919125 0
12.970000 0.547281 0
12.975000 0.162436 0
12.980000 -0.140127 0
12.985000 -0.319335 0
12.990000 -0.376283 4
12.995000 -0.339191 0
13.000000 -0.251204 0
13.005000 -0.154257 0
13.010000 -0.074010 0
13.015000 -0.016316 0
13.020000 0.024996 0
13.025000 0.058387 0
13.030000 0.089580 0
13.035000 0.121108 0
13.040000 0.153560 0
13.045000 0.186651 0
13.050000 0.219757 0
13.055000 0.252111 0
13.060000 0.282881 0
13.065000 0.311210 0
13.070000 0.336260 0
13.075000 0.357248 0
13.080000 0.373490 0
13.085000 0.384435 0
13.090000 0.389694 5
13.095000 0.389068 0
13.100000 0.382553 0
13.105000 0.370345 0
13.110000 0.352828 0
13.115000 0.330554 0
13.120000 0.304213 0
13.125000 0.274598 0
13.130000 0.242563 0
13.135000 0.208986 0
13.140000 0.174725 0
13.145000 0.140585 0
13.150000 0.107289 0
13.155000 0.075454 0
13.160000 0.045579 0
13.165000 0.018038 0
13.170000 -0.006920 0
13.175000 -0.029161 0
13.180000 -0.048657 0
13.185000 -0.065468 0
13.190000 -0.079724 0
13.195000 -0.091608 0
13.200000 -0.101340 0
13.205000 -0.109157 0
13.210000 -0.115304 0
13.215000 -0.120021 0
13.220000 -0.123534 0
13.225000 -0.126050 0
13.230000 -0.127363 0
13.235000 -0.126370 0
13.240000 -0.125383 0
13.245000 -0.124400 0
13.250000 -0.123421 0
13.255000 -0.122447 0
13.260000 -0.121474 0
13.265000 -0.120501 0
13.270000 -0.119522 0
13.275000 -0.118529 0
13.280000 -0.117502 0
13.285000 -0.116414 0
13.290000 -0.115215 0
13.295000 -0.113827 0
13.300000 -0.112128 0
13.305000 -0.109942 0
13.310000 -0.107018 0
13.315000 -0.103020 0
13.320000 -0.097522 0
13.325000 -0.090009 0
13.330000 -0.079910 0
13.335000 -0.066646 0
13.340000 -0.049707 0
13.345000 -0.028748 0
13.350000 -0.003710 0
13.355000 0.025082 0
13.360000 0.056834 0
13.365000 0.090260 0
13.370000 0.123623 0
13.375000 0.154867 0
13.380000 0.181806 0
13.385000 0.202381 0
13.390000 0.214914 0
13.395000 0.218337 1
13.400000 0.212341 0
13.405000 0.197423 0
13.410000 0.174819 0
13.415000 0.146332 0
13.420000 0.114083 0
13.425000 0.080191 0
13.430000 0.046335 0
13.435000 0.013077 0
13.440000 -0.021080 0
13.445000 -0.060263 0
13.450000 -0.109752 0
13.455000 -0.170890 0
13.460000 -0.234002 0
13.465000 -0.275015 2
13.470000 -0.260103 0
13.475000 -0.155590 0
13.480000 0.060828 0
13.485000 0.383391 0
13.490000 0.755345 0
13.495000 1.064032 0
13.500000 1.185403 3
13.505000 1.060706 0
13.510000 0.740249 0
13.515000 0.346564 0
13.520000 -0.002642 0
13.525000 -0.240626 0
13.530000 -0.351060 0
13.535000 -0.351515 4
13.540000 -0.280520 0
13.545000 -0.183213 0
13.550000 -0.094017 0
13.555000 -0.027049 0
13.560000 0.020041 0
13.565000 0.055779 0
13.570000 0.087357 0
13.575000 0.118548 0
13.580000 0.150583 0
13.585000 0.183434 0
13.590000 0.216571 0
13.595000 0.249262 0
13.600000 0.280684 0
13.605000 0.309978 0
13.610000 0.336282 0
13.615000 0.358781 0
13.620000 0.376742 0
13.625000 0.389556 0
13.630000 0.396770 0
13.635000 0.398114 5
13.640000 0.393516 0
13.645000 0.383107 0
13.650000 0.367215 0
13.655000 0.346344 0
13.660000 0.321152 0
13.665000 0.292412 0
13.670000 0.260973 0
13.675000 0.227719 0
13.680000 0.193527 0
13.685000 0.159230 0
13.690000 0.125585 0
13.695000 0.093248 0
13.700000 0.062757 0
13.705000 0.034524 0
13.710000 0.008834 0
13.715000 -0.014148 0
13.720000 -0.034369 0
13.725000 -0.051869 0
13.730000 -0.066763 0
13.735000 -0.079226 0
13.740000 -0.089472 0
13.745000 -0.097739 0
13.750000 -0.104273 0
13.755000 -0.109320 0
13.760000 -0.113109 0
13.765000 -0.115857 0
13.770000 -0.117340 0
13.775000 -0.116398 0
13.780000 -0.115460 0
13.785000 -0.114527 0
13.790000 -0.113598 0
13.795000 -0.112672 0
13.800000 -0.111749 0
13.805000 -0.110825 0
13.810000 -0.109897 0
13.815000 -0.108955 0
13.820000 -0.107983 0
13.825000 -0.106954 0
13.830000 -0.105820 0
13.835000 -0.104508 0
13.840000 -0.102900 0
13.845000 -0.100826 0
13.850000 -0.098041 0
13.855000 -0.094215 0
13.860000 -0.088924 0
13.865000 -0.081659 0
13.870000 -0.071845 0
13.875000 -0.058893 0
13.880000 -0.042279 0
13.885000 -0.021640 0
13.890000 0.003108 0
13.895000 0.031663 0
13.900000 0.063250 0
13.905000 0.096594 0
13.910000 0.129959 0
13.915000 0.161274 0
13.920000 0.188332 0
13.925000 0.209043 0
13.930000 0.221699 0
13.935000 0.225208 1
13.940000 0.219246 0
13.945000 0.204311 0
13.950000 0.181649 0
13.955000 0.153084 0
13.960000 0.120762 0
13.965000 0.086821 0
13.970000 0.052943 0
13.975000 0.019653 0
13.980000 -0.014639 0
13.985000 -0.054194 0
13.990000 -0.104303 0
13.995000 -0.165947 0
14.000000 -0.228598 0
14.005000 -0.267147 2
14.010000 -0.247102 0
14.015000 -0.134839 0
14.020000 0.090754 0
14.025000 0.420552 0
14.030000 0.791996 0
14.035000 1.087527 0
14.040000 1.184858 3
14.045000 1.035439 0
14.050000 0.700655 0
14.055000 0.306847 0
14.060000 -0.031987 0
14.065000 -0.255128 0
14.070000 -0.350961 4
14.075000 -0.340301 0
14.080000 -0.263608 0
14.085000 -0.165839 0
14.090000 -0.079237 0
14.095000 -0.015353 0
14.100000 0.029623 0
14.105000 0.064398 0
14.110000 0.095745 0
14.115000 0.127006 0
14.120000 0.159164 0
14.125000 0.192083 0
14.130000 0.225184 0
14.135000 0.257712 0
14.140000 0.288833 0
14.145000 0.317676 0
14.150000 0.343381 0
14.155000 0.365139 0
14.160000 0.382230 0
14.165000 0.394068 0
14.170000 0.400227 0
14.175000 0.400470 5
14.180000 0.394762 0
14.185000 0.383273 0
14.190000 0.366367 0
14.195000 0.344585 0
14.200000 0.318613 0
14.205000 0.289246 0
14.210000 0.257350 0
14.215000 0.223816 0
14.220000 0.189519 0
14.225000 0.155284 0
14.230000 0.121853 0
14.235000 0.089861 0
14.240000 0.059822 0
14.245000 0.032122 0
14.250000 0.007021 0
14.255000 -0.015344 0
14.260000 -0.034941 0
14.265000 -0.051830 0
14.270000 -0.066142 0
14.275000 -0.078066 0
14.280000 -0.087822 0
14.285000 -0.095654 0
14.290000 -0.101811 0
14.295000 -0.106535 0
14.300000 -0.110056 0
14.305000 -0.112583 0
14.310000 -0.113919 0
14.315000 -0.112994 0
14.320000 -0.112073 0
14.325000 -0.111157 0
14.330000 -0.110244 0
14.335000 -0.109335 0
14.340000 -0.108427 0
14.345000 -0.107518 0
14.350000 -0.106602 0
14.355000 -0.105669 0
14.360000 -0.104698 0
14.365000 -0.103659 0
14.370000 -0.102496 0
14.375000 -0.101123 0
14.380000 -0.099409 0
14.385000 -0.097160 0
14.390000 -0.094104 0
14.395000 -0.089881 0
14.400000 -0.084037 0
14.405000 -0.076032 0
14.410000 -0.065279 0
14.415000 -0.051196 0
14.420000 -0.033297 0
14.425000 -0.011297 0
14.430000 0.014773 0
14.435000 0.044454 0
14.440000 0.076798 0
14.445000 0.110354 0
14.450000 0.143242 0
14.455000 0.173305 0
14.460000 0.198333 0
14.465000 0.216331 0
14.470000 0.225776 0
14.475000 0.225836 1
14.480000 0.216485 0
14.485000 0.198512 0
14.490000 0.173412 0
14.495000 0.143172 0
14.500000 0.109991 0
14.505000 0.075909 0
14.510000 0.042277 0
14.515000 0.008924 0
14.520000 -0.026796 0
14.525000 -0.069956 0
14.530000 -0.125015 0
14.535000 -0.189163 0
14.540000 -0.245886 0
14.545000 -0.265086 2
14.550000 -0.211102 0
14.555000 -0.053666 0
14.560000 0.218686 0
14.565000 0.577025 0
14.570000 0.932918 0
14.575000 1.156983 3
14.580000 1.152340 0
14.585000 0.917578 0
14.590000 0.545110 0
14.595000 0.159948 0
14.600000 -0.144570 0
14.605000 -0.327531 0
14.610000 -0.389073 4
14.615000 -0.355905 0
14.620000 -0.269765 0
14.625000 -0.172244 0
14.630000 -0.089939 0
14.635000 -0.030074 0
14.640000 0.012687 0
14.645000 0.046719 0
14.650000 0.078037 0
14.655000 0.109479 0
14.660000 0.141819 0
14.665000 0.174868 0
14.670000 0.208055 0
14.675000 0.240649 0
14.680000 0.271848 0
14.685000 0.300817 0
14.690000 0.326730 0
14.695000 0.348807 0
14.700000 0.366353 0
14.705000 0.378794 0
14.710000 0.385705 0
14.715000 0.386839 5
14.720000 0.382134 0
14.725000 0.371724 0
14.730000 0.355926 0
14.735000 0.335229 0
14.740000 0.310264 0
14.745000 0.281773 0
14.750000 0.250573 0
14.755000 0.217519 0
14.760000 0.183457 0
14.765000 0.149201 0
14.770000 0.115491 0
14.775000 0.082976 0
14.780000 0.052195 0
14.785000 0.023568 0
14.790000 -0.002606 0
14.795000 -0.026144 0
14.800000 -0.046971 0
14.805000 -0.065103 0
14.810000 -0.080637 0
14.815000 -0.093725 0
14.820000 -0.104565 0
14.825000 -0.113382 0
14.830000 -0.120412 0
14.835000 -0.125894 0
14.840000 -0.130055 0
14.845000 -0.133111 0
14.850000 -0.135256 0
14.855000 -0.134685 0
14.860000 -0.133656 0
14.865000 -0.132633 0
14.870000 -0.131613 0
14.875000 -0.130599 0
14.880000 -0.129587 0
14.885000 -0.128578 0
14.890000 -0.127567 0
14.895000 -0.126549 0
14.900000 -0.125513 0
14.905000 -0.124439 0
14.910000 -0.123294 0
14.915000 -0.122025 0
14.920000 -0.120548 0
14.925000 -0.118733 0
14.930000 -0.116396 0
14.935000 -0.113277 0
14.940000 -0.109033 0
14.945000 -0.103232 0
14.950000 -0.095362 0
14.955000 -0.084862 0
14.960000 -0.071170 0
14.965000 -0.053799 0
14.970000 -0.032439 0
14.975000 -0.007060 0
14.980000 0.021985 0
14.985000 0.053891 0
14.990000 0.087376 0
14.995000 0.120728 0
15.000000 0.151931 0
15.005000 0.178854 0
15.010000 0.199487 0
15.015000 0.212189 0
15.020000 0.215905 1
15.025000 0.210311 0
15.030000 0.195860 0
15.035000 0.173725 0
15.040000 0.145637 0
15.045000 0.113653 0
15.050000 0.079857 0
15.055000 0.045960 0
15.060000 0.012681 0
15.065000 -0.021135 0
15.070000 -0.059182 0
15.075000 -0.106683 0
15.080000 -0.166068 0
15.085000 -0.230205 0
15.090000 -0.278108 2
15.095000 -0.277932 0
15.100000 -0.195886 0
15.105000 -0.006589 0
15.110000 0.292786 0
15.115000 0.660937 0
15.120000 0.999978 0
15.125000 1.184505 3
15.130000 1.131715 0
15.135000 0.859842 0
15.140000 0.474895 0
15.145000 0.100667 0
15.150000 -0.179520 0
15.155000 -0.334668 0
15.160000 -0.371874 4
15.165000 -0.322608 0
15.170000 -0.230496 0
15.175000 -0.135058 0
15.180000 -0.058336 0
15.185000 -0.003603 0
15.190000 0.036099 0
15.195000 0.068913 0
15.200000 0.100028 0
15.205000 0.131626 0
15.210000 0.164138 0
15.215000 0.197228 0
15.220000 0.230259 0
15.225000 0.262468 0
15.230000 0.293029 0
15.235000 0.321098 0
15.240000 0.345852 0
15.245000 0.366523 0
15.250000 0.382443 0
15.255000 0.393079 0
15.260000 0.398057 5
15.265000 0.397186 0
15.270000 0.390471 0
15.275000 0.378109 0
15.280000 0.360484 0
15.285000 0.338143 0
15.290000 0.311766 0
15.295000 0.282135 0
15.300000 0.250093 0
15.305000 0.216506 0
15.310000 0.182220 0
15.315000 0.148031 0
15.320000 0.114655 0
15.325000 0.082706 0
15.330000 0.052681 0
15.335000 0.024957 0
15.340000 -0.000214 0
15.345000 -0.022692 0
15.350000 -0.042443 0
15.355000 -0.059517 0
15.360000 -0.074039 0
15.365000 -0.086184 0
15.370000 -0.096167 0
15.375000 -0.104221 0
15.380000 -0.110586 0
15.385000 -0.115500 0
15.390000 -0.119189 0
15.395000 -0.121859 0
15.400000 -0.123287 0
15.405000 -0.122315 0
15.410000 -0.121348 0
15.415000 -0.120385 0
15.420000 -0.119427 0
15.425000 -0.118472 0
15.430000 -0.117520 0
15.435000 -0.116568 0
15.440000 -0.115612 0
15.445000 -0.114643 0
15.450000 -0.113647 0
15.455000 -0.112597 0
15.460000 -0.111451 0
15.465000 -0.110138 0
15.470000 -0.108552 0
15.475000 -0.106534 0
15.480000 -0.103856 0
15.485000 -0.100211 0
15.490000 -0.095201 0
15.495000 -0.088344 0
15.500000 -0.079088 0
15.505000 -0.066858 0
15.510000 -0.051119 0
15.515000 -0.031471 0
15.520000 -0.007754 0
15.525000 0.019843 0
15.530000 0.050696 0
15.535000 0.083698 0
15.540000 0.117280 0
15.545000 0.149504 0
15.550000 0.178234 0
15.555000 0.201364 0
15.560000 0.217072 0
15.565000 0.224054 1
15.570000 0.221706 0
15.575000 0.210208 0
15.580000 0.190506 0
15.585000 0.164175 0
15.590000 0.133212 0
15.595000 0.099752 0
15.600000 0.065702 0
15.605000 0.032197 0
15.610000 -0.001222 0
15.615000 -0.037477 0
15.620000 -0.081653 0
15.625000 -0.137725 0
15.630000 -0.202051 0
15.635000 -0.257588 0
15.640000 -0.274574 2
15.645000 -0.218398 0
15.650000 -0.059937 0
15.655000 0.211756 0
15.660000 0.569047 0
15.665000 0.927397 0
15.670000 1.161590 0
15.675000 1.170578 3
15.680000 0.943639 0
15.685000 0.572591 0
15.690000 0.187670 0
15.695000 -0.113998 0
15.700000 -0.290962 0
15.705000 -0.344932 4
15.710000 -0.305259 0
15.715000 -0.216160 0
15.720000 -0.119845 0
15.725000 -0.041264 0
15.730000 0.014742 0
15.735000 0.054929 0
15.740000 0.087789 0
15.745000 0.118814 0
15.750000 0.150316 0
15.755000 0.182747 0
15.760000 0.215757 0
15.765000 0.248682 0
15.770000 0.280727 0
15.775000 0.311038 0
15.780000 0.338742 0
15.785000 0.362990 0
15.790000 0.383000 0
15.795000 0.398097 0
15.800000 0.407752 0
15.805000 0.411607 5
15.810000 0.409502 0
15.815000 0.401481 0
15.820000 0.387791 0
15.825000 0.368867 0
15.830000 0.345313 0
15.835000 0.317863 0
15.840000 0.287349 0
15.845000 0.254651 0
15.850000 0.220662 0
15.855000 0.186243 0
15.860000 0.152192 0
15.865000 0.119213 0
15.870000 0.087894 0
15.875000 0.058701 0
15.880000 0.031969 0
15.885000 0.007907 0
15.890000 -0.013390 0
15.895000 -0.031929 0
15.900000 -0.047802 0
15.905000 -0.061167 0
15.910000 -0.072227 0
15.915000 -0.081215 0
15.920000 -0.088379 0
15.925000 -0.093966 0
15.930000 -0.098216 0
15.935000 -0.101350 0
15.940000 -0.103569 0
15.945000 -0.103143 0
15.950000 -0.102271 0
15.955000 -0.101404 0
15.960000 -0.100540 0
15.965000 -0.099680 0
15.970000 -0.098823 0
15.975000 -0.097966 0
15.980000 -0.097105 0
15.985000 -0.096233 0
15.990000 -0.095336 0
15.995000 -0.094391 0
16.000000 -0.093356 0
16.005000 -0.092164 0
16.010000 -0.090712 0
16.015000 -0.088842 0
16.020000 -0.086328 0
16.025000 -0.082861 0
16.030000 -0.078038 0
16.035000 -0.071363 0
16.040000 -0.062270 0
16.045000 -0.050163 0
16.050000 -0.034489 0
16.055000 -0.014835 0
16.060000 0.008957 0
16.065000 0.036676 0
16.070000 0.067651 0
16.075000 0.100701 0
16.080000 0.134166 0
16.085000 0.166013 0
16.090000 0.194023 0
16.095000 0.216046 0
16.100000 0.230265 0
16.105000 0.235448 1
16.110000 0.231118 0
16.115000 0.217631 0
16.120000 0.196122 0
16.125000 0.168346 0
16.130000 0.136433 0
16.135000 0.102566 0
16.140000 0.068552 0
16.145000 0.035160 0
16.150000 0.001163 0
16.155000 -0.037367 0
16.160000 -0.085854 0
16.165000 -0.146311 0
16.170000 -0.209996 0
16.175000 -0.253366 2
16.180000 -0.242305 0
16.185000 -0.142229 0
16.190000 0.070333 0
16.195000 0.390750 0
16.200000 0.762533 0
16.205000 1.071522 0
16.210000 1.191367 3
16.215000 1.065501 0
16.220000 0.745288 0
16.225000 0.351606 0
16.230000 0.000925 0
16.235000 -0.240039 0
16.240000 -0.354237 0
16.245000 -0.358197 4
16.250000 -0.289376 0
16.255000 -0.192391 0
16.260000 -0.102092 0
16.265000 -0.033586 0
16.270000 0.014694 0
16.275000 0.051040 0
16.280000 0.082792 0
16.285000 0.113945 0
16.290000 0.145889 0
16.295000 0.178678 0
16.300000 0.211822 0
16.305000 0.244614 0
16.310000 0.276252 0
16.315000 0.305890 0
16.320000 0.332678 0
16.325000 0.355801 0
16.330000 0.374523 0
16.335000 0.388222 0
16.340000 0.396423 0
16.345000 0.398829 5
16.350000 0.395333 0
16.355000 0.386027 0
16.360000 0.371197 0
16.365000 0.351309 0
16.370000 0.326983 0
16.375000 0.298959 0
16.380000 0.268061 0
16.385000 0.235158 0
16.390000 0.201118 0
16.395000 0.166778 0
16.400000 0.132904 0
16.405000 0.100171 0
16.410000 0.069141 0
16.415000 0.040254 0
16.420000 0.013826 0
16.425000 -0.009948 0
16.430000 -0.030984 0
16.435000 -0.049297 0
16.440000 -0.064979 0
16.445000 -0.078187 0
16.450000 -0.089121 0
16.455000 -0.098010 0
16.460000 -0.105095 0
16.465000 -0.110619 0
16.470000 -0.114816 0
16.475000 -0.117904 0
16.480000 -0.120080 0
16.485000 -0.119578 0
16.490000 -0.118625 0
16.495000 -0.117676 0
16.500000 -0.116731 0
16.505000 -0.115790 0
16.510000 -0.114853 0
16.515000 -0.113916 0
16.520000 -0.112977 0
16.525000 -0.112029 0
16.530000 -0.111060 0
16.535000 -0.110048 0
16.540000 -0.108956 0
16.545000 -0.107725 0
16.550000 -0.106261 0
16.555000 -0.104423 0
16.560000 -0.102005 0
16.565000 -0.098724 0
16.570000 -0.094210 0
16.575000 -0.087999 0
16.580000 -0.079553 0
16.585000 -0.068291 0
16.590000 -0.053652 0
16.595000 -0.035181 0
16.600000 -0.012634 0
16.605000 0.013910 0
16.610000 0.043948 0
16.615000 0.076499 0
16.620000 0.110094 0
16.625000 0.142861 0
16.630000 0.172672 0
16.635000 0.197367 0
16.640000 0.215011 0
16.645000 0.224137 1
16.650000 0.223958 0
16.655000 0.214469 0
16.660000 0.196458 0
16.665000 0.171392 0
16.670000 0.141220 0
16.675000 0.108096 0
16.680000 0.074031 0
16.685000 0.040385 0
16.690000 0.007079 0
16.695000 -0.028330 0
16.700000 -0.070716 0
16.705000 -0.124701 0
16.710000 -0.188440 0
16.715000 -0.247154 0
16.720000 -0.272454 2
16.725000 -0.229458 0
16.730000 -0.087206 0
16.735000 0.169095 0
16.740000 0.518412 0
16.745000 0.883251 0
16.750000 1.139622 0
16.755000 1.178044 3
16.760000 0.976325 0
16.765000 0.616374 0
16.770000 0.226403 0
16.775000 -0.091016 0
16.780000 -0.287580 0
16.785000 -0.359688 4
16.790000 -0.332724 0
16.795000 -0.248831 0
16.800000 -0.151243 0
16.805000 -0.068285 0
16.810000 -0.008061 0
16.815000 0.034704 0
16.820000 0.068605 0
16.825000 0.099804 0
16.830000 0.131168 0
16.835000 0.163450 0
16.840000 0.196428 0
16.845000 0.229501 0
16.850000 0.261911 0
16.855000 0.292827 0
16.860000 0.321390 0
16.865000 0.346756 0
16.870000 0.368130 0
16.875000 0.384815 0
16.880000 0.396241 0
16.885000 0.402003 5
16.890000 0.401880 0
16.895000 0.395850 0
16.900000 0.384091 0
16.905000 0.366971 0
16.910000 0.345030 0
16.915000 0.318950 0
16.920000 0.289519 0
16.925000 0.257591 0
16.930000 0.224045 0
16.935000 0.189747 0
16.940000 0.155509 0
16.945000 0.122063 0
16.950000 0.090040 0
16.955000 0.059947 0
16.960000 0.032169 0
16.965000 0.006966 0
16.970000 -0.015521 0
16.975000 -0.035257 0
16.980000 -0.052296 0
16.985000 -0.066766 0
16.990000 -0.078848 0
16.995000 -0.088760 0
17.000000 -0.096739 0
17.005000 -0.103032 0
17.010000 -0.107879 0
17.015000 -0.111508 0
17.020000 -0.114128 0
17.025000 -0.115529 0
17.030000 -0.114596 0
17.035000 -0.113667 0
17.040000 -0.112743 0
17.045000 -0.111823 0
17.050000 -0.110906 0
17.055000 -0.109991 0
17.060000 -0.109075 0
17.065000 -0.108154 0
17.070000 -0.107218 0
17.075000 -0.106250 0
17.080000 -0.105220 0
17.085000 -0.104081 0
17.090000 -0.102754 0
17.095000 -0.101119 0
17.100000 -0.099001 0
17.105000 -0.096149 0
17.110000 -0.092228 0
17.115000 -0.086811 0
17.120000 -0.079384 0
17.125000 -0.069375 0
17.130000 -0.056201 0
17.135000 -0.039348 0
17.140000 -0.018471 0
17.145000 0.006494 0
17.150000 0.035223 0
17.155000 0.066920 0
17.160000 0.100295 0
17.165000 0.133607 0
17.170000 0.164789 0
17.175000 0.191650 0
17.180000 0.212125 0
17.185000 0.224533 0
17.190000 0.227808 1
17.195000 0.221649 0
17.200000 0.206564 0
17.205000 0.183804 0
17.210000 0.155185 0
17.215000 0.122838 0
17.220000 0.088885 0
17.225000 0.054995 0
17.230000 0.021696 0
17.235000 -0.012579 0
17.240000 -0.052033 0
17.245000 -0.101939 0
17.250000 -0.163411 0
17.255000 -0.226292 0
17.260000 -0.265974 2
17.265000 -0.248340 0
17.270000 -0.139809 0
17.275000 0.081270 0
17.280000 0.407470 0
17.285000 0.779277 0
17.290000 1.081792 0
17.295000 1.191894 3
17.300000 1.053494 0
17.305000 0.723322 0
17.310000 0.329468 0
17.315000 -0.010527 0
17.320000 -0.233808 0
17.325000 -0.328411 4
17.330000 -0.315892 0
17.335000 -0.237907 0
17.340000 -0.140233 0
17.345000 -0.054932 0
17.350000 0.007313 0
17.355000 0.051054 0
17.360000 0.085198 0
17.365000 0.116348 0
17.370000 0.147609 0
17.375000 0.179803 0
17.380000 0.212706 0
17.385000 0.245693 0
17.390000 0.277975 0
17.395000 0.308687 0
17.400000 0.336940 0
17.405000 0.361858 0
17.410000 0.382628 0
17.415000 0.398539 0
17.420000 0.409024 0
17.425000 0.413690 5
17.430000 0.412344 0
17.435000 0.405004 0
17.440000 0.391897 0
17.445000 0.373449 0
17.450000 0.350259 0
17.455000 0.323066 0
17.460000 0.292713 0
17.465000 0.260096 0
17.470000 0.226128 0
17.475000 0.191691 0
17.480000 0.157599 0
17.485000 0.124575 0
17.490000 0.093223 0
17.495000 0.064018 0
17.500000 0.037300 0
17.505000 0.013283 0
17.510000 -0.007941 0
17.515000 -0.026381 0
17.520000 -0.042136 0
17.525000 -0.055369 0
17.530000 -0.066290 0
17.535000 -0.075139 0
17.540000 -0.082168 0
17.545000 -0.087631 0
17.550000 -0.091769 0
17.555000 -0.094807 0
17.560000 -0.096946 0
17.565000 -0.096535 0
17.570000 -0.095697 0
17.575000 -0.094862 0
17.580000 -0.094031 0
17.585000 -0.093203 0
17.590000 -0.092377 0
17.595000 -0.091551 0
17.600000 -0.090720 0
17.605000 -0.089874 0
17.610000 -0.088999 0
17.615000 -0.088066 0
17.620000 -0.087027 0
17.625000 -0.085806 0
17.630000 -0.084282 0
17.635000 -0.082277 0
17.640000 -0.079535 0
17.645000 -0.075713 0
17.650000 -0.070368 0
17.655000 -0.062966 0
17.660000 -0.052913 0
17.665000 -0.039606 0
17.670000 -0.022521 0
17.675000 -0.001316 0
17.680000 0.024038 0
17.685000 0.053151 0
17.690000 0.085132 0
17.695000 0.118565 0
17.700000 0.151577 0
17.705000 0.181981 0
17.710000 0.207512 0
17.715000 0.226095 0
17.720000 0.236124 0
17.725000 0.236690 1
17.730000 0.227718 0
17.735000 0.209977 0
17.740000 0.184972 0
17.745000 0.154728 0
17.750000 0.121492 0
17.755000 0.087352 0
17.760000 0.053675 0
17.765000 0.020235 0
17.770000 -0.015772 0
17.775000 -0.059600 0
17.780000 -0.115573 0
17.785000 -0.179996 0
17.790000 -0.234719 0
17.795000 -0.248006 2
17.800000 -0.183434 0
17.805000 -0.011472 0
17.810000 0.275699 0
17.815000 0.640687 0
17.820000 0.984126 0
17.825000 1.172826 3
17.830000 1.120316 0
17.835000 0.846334 0
17.840000 0.460313 0
17.845000 0.088756 0
17.850000 -0.184970 0
17.855000 -0.331521 0
17.860000 -0.360242 4
17.865000 -0.304984 0
17.870000 -0.210893 0
17.875000 -0.117065 0
17.880000 -0.043555 0
17.885000 0.008318 0
17.890000 0.046359 0
17.895000 0.078572 0
17.900000 0.109666 0
17.905000 0.141439 0
17.910000 0.174109 0
17.915000 0.207236 0
17.920000 0.240128 0
17.925000 0.271977 0
17.930000 0.301928 0
17.935000 0.329114 0
17.940000 0.352700 0
17.945000 0.371925 0
17.950000 0.386144 0
17.955000 0.394857 0
17.960000 0.397744 5
17.965000 0.394680 0
17.970000 0.385745 0
17.975000 0.371216 0
17.980000 0.351558 0
17.985000 0.327394 0
17.990000 0.299472 0
17.995000 0.268628 0
18.000000 0.235746 0
18.005000 0.201708 0
18.010000 0.167365 0
18.015000 0.133496 0
18.020000 0.100787 0
18.025000 0.069806 0
18.030000 0.040999 0
18.035000 0.014680 0
18.040000 -0.008957 0
18.045000 -0.029832 0
18.050000 -0.047966 0
18.055000 -0.063457 0
18.060000 -0.076469 0
18.065000 -0.087209 0
18.070000 -0.095911 0
18.075000 -0.102821 0
18.080000 -0.108186 0
18.085000 -0.112241 0
18.090000 -0.115206 0
18.095000 -0.117278 0
18.100000 -0.116772 0
18.105000 -0.115832 0
18.110000 -0.114897 0
18.115000 -0.113967 0
18.120000 -0.113040 0
18.125000 -0.112115 0
18.130000 -0.111191 0
18.135000 -0.110264 0
18.140000 -0.109325 0
18.145000 -0.108360 0
18.150000 -0.107345 0
18.155000 -0.106237 0
18.160000 -0.104969 0
18.165000 -0.103433 0
18.170000 -0.101470 0
18.175000 -0.098852 0
18.180000 -0.095265 0
18.185000 -0.090305 0
18.190000 -0.083475 0
18.195000 -0.074209 0
18.200000 -0.061915 0
18.205000 -0.046047 0
18.210000 -0.026202 0
18.215000 -0.002231 0
18.220000 0.025645 0
18.225000 0.056742 0
18.230000 0.089878 0
18.235000 0.123390 0
18.240000 0.155252 0
18.245000 0.183259 0
18.250000 0.205274 0
18.255000 0.219494 0
18.260000 0.224699 1
18.265000 0.220418 0
18.270000 0.207005 0
18.275000 0.185586 0
18.280000 0.157905 0
18.285000 0.126079 0
18.290000 0.092278 0
18.295000 0.058311 0
18.300000 0.024965 0
18.305000 -0.008931 0
18.310000 -0.047223 0
18.315000 -0.095314 0
18.320000 -0.155405 0
18.325000 -0.219234 0
18.330000 -0.263866 2
18.335000 -0.255598 0
18.340000 -0.159848 0
18.345000 0.047478 0
18.350000 0.363561 0
18.355000 0.735156 0
18.360000 1.051049 0
18.365000 1.184216 3
18.370000 1.072496 0
18.375000 0.760974 0
18.380000 0.368102 0
18.385000 0.012172 0
18.390000 -0.236785 0
18.395000 -0.359059 0
18.400000 -0.369366 4
18.405000 -0.304041 0
18.410000 -0.207644 0
18.415000 -0.116086 0
18.420000 -0.045869 0
18.425000 0.003681 0
18.430000 0.040667 0
18.435000 0.072625 0
18.440000 0.103789 0
18.445000 0.135696 0
18.450000 0.168469 0
18.455000 0.201646 0
18.460000 0.234534 0
18.465000 0.266339 0
18.470000 0.296217 0
18.475000 0.323321 0
18.480000 0.346834 0
18.485000 0.366012 0
18.490000 0.380223 0
18.495000 0.388980 0
18.500000 0.391969 5
18.505000 0.389065 0
18.510000 0.380341 0
18.515000 0.366064 0
18.520000 0.346684 0
18.525000 0.322803 0
18.530000 0.295151 0
18.535000 0.264542 0
18.540000 0.231840 0
18.545000 0.197914 0
18.550000 0.163602 0
18.555000 0.129678 0
18.560000 0.096825 0
18.565000 0.065617 0
18.570000 0.036508 0
18.575000 0.009825 0
18.580000 -0.014225 0
18.585000 -0.035545 0
18.590000 -0.054138 0
18.595000 -0.070090 0
18.600000 -0.083550 0
18.605000 -0.094712 0
18.610000 -0.103804 0
18.615000 -0.111065 0
18.620000 -0.116737 0
18.625000 -0.121056 0
18.630000 -0.124240 0
18.635000 -0.126490 0
18.640000 -0.125972 0
18.645000 -0.124986 0
18.650000 -0.124006 0
18.655000 -0.123030 0
18.660000 -0.122058 0
18.665000 -0.121089 0
18.670000 -0.120122 0
18.675000 -0.119154 0
18.680000 -0.118177 0
18.685000 -0.117182 0
18.690000 -0.116148 0
18.695000 -0.115041 0
18.700000 -0.113806 0
18.705000 -0.112354 0
18.710000 -0.110553 0
18.715000 -0.108209 0
18.720000 -0.105052 0
18.725000 -0.100724 0
18.730000 -0.094779 0
18.735000 -0.086688 0
18.740000 -0.075877 0
18.745000 -0.061776 0
18.750000 -0.043909 0
18.755000 -0.021992 0
18.760000 0.003955 0
18.765000 0.033505 0
18.770000 0.065758 0
18.775000 0.099327 0
18.780000 0.132401 0
18.785000 0.162887 0
18.790000 0.188621 0
18.795000 0.207612 0
18.800000 0.218306 0
18.805000 0.219787 1
18.810000 0.211913 0
18.815000 0.195336 0
18.820000 0.171414 0
18.825000 0.142021 0
18.830000 0.109295 0
18.835000 0.075296 0
18.840000 0.041549 0
18.845000 0.008308 0
18.850000 -0.026376 0
18.855000 -0.067012 0
18.860000 -0.118635 0
18.865000 -0.181186 0
18.870000 -0.242665 0
18.875000 -0.276992 2
18.880000 -0.249835 0
18.885000 -0.128725 0
18.890000 0.105472 0
18.895000 0.440681 0
18.900000 0.811425 0
18.905000 1.099874 0
18.910000 1.187422 3
18.915000 1.028789 0
18.920000 0.688735 0
18.925000 0.295294 0
18.930000 -0.038848 0
18.935000 -0.255351 0
18.940000 -0.344596 4
18.945000 -0.328920 0
18.950000 -0.249750 0
18.955000 -0.151987 0
18.960000 -0.066815 0
18.965000 -0.004534 0
18.970000 0.039364 0
18.975000 0.073650 0
18.980000 0.104876 0
18.985000 0.136163 0
18.990000 0.168369 0
18.995000 0.201299 0
19.000000 0.234349 0
19.005000 0.266751 0
19.010000 0.297657 0
19.015000 0.326193 0
19.020000 0.351496 0
19.025000 0.372759 0
19.030000 0.389270 0
19.035000 0.400456 0
19.040000 0.405909 5
19.045000 0.405414 0
19.050000 0.398959 0
19.055000 0.386741 0
19.060000 0.369149 0
19.065000 0.346747 0
19.070000 0.320243 0
19.075000 0.290449 0
19.080000 0.258241 0
19.085000 0.224516 0
19.090000 0.190150 0
19.095000 0.155962 0
19.100000 0.122684 0
19.105000 0.090936 0
19.110000 0.061217 0
19.115000 0.033894 0
19.120000 0.009207 0
19.125000 -0.012722 0
19.130000 -0.031880 0
19.135000 -0.048339 0
19.140000 -0.062244 0
19.145000 -0.073790 0
19.150000 -0.083206 0
19.155000 -0.090738 0
19.160000 -0.096636 0
19.165000 -0.101142 0
19.170000 -0.104483 0
19.175000 -0.106867 0
19.180000 -0.108112 0
19.185000 -0.107216 0
19.190000 -0.106324 0
19.195000 -0.105436 0
19.200000 -0.104551 0
19.205000 -0.103670 0
19.210000 -0.102790 0
19.215000 -0.101907 0
19.220000 -0.101015 0
19.225000 -0.100102 0
19.230000 -0.099146 0
19.235000 -0.098110 0
19.240000 -0.096932 0
19.245000 -0.095518 0
19.250000 -0.093719 0
19.255000 -0.091324 0
19.260000 -0.088039 0
19.265000 -0.083477 0
19.270000 -0.077157 0
19.275000 -0.068520 0
19.280000 -0.056971 0
19.285000 -0.041938 0
19.290000 -0.022977 0
19.295000 0.000127 0
19.300000 0.027233 0
19.305000 0.057749 0
19.310000 0.090579 0
19.315000 0.124130 0
19.320000 0.156413 0
19.325000 0.185215 0
19.330000 0.208350 0
19.335000 0.223923 0
19.340000 0.230589 1
19.345000 0.227745 0
19.350000 0.215620 0
19.355000 0.195240 0
19.360000 0.168288 0
19.365000 0.136865 0
19.370000 0.103176 0
19.375000 0.069125 0
19.380000 0.035683 0
19.385000 0.001963 0
19.390000 -0.035605 0
19.395000 -0.082456 0
19.400000 -0.141494 0
19.405000 -0.205763 0
19.410000 -0.253543 2
19.415000 -0.251463 0
19.420000 -0.164254 0
19.425000 0.033792 0
19.430000 0.342792 0
19.435000 0.713484 0
19.440000 1.037035 0
19.445000 1.184029 3
19.450000 1.085815 0
19.455000 0.781964 0
19.460000 0.390005 0
19.465000 0.030837 0
19.470000 -0.222516 0
19.475000 -0.348582 0
19.480000 -0.361371 4
19.485000 -0.297176 0
19.490000 -0.200992 0
19.495000 -0.109322 0
19.500000 -0.039041 0
19.505000 0.010465 0
19.510000 0.047372 0
19.515000 0.079274 0
19.520000 0.110413 0
19.525000 0.142311 0
19.530000 0.175074 0
19.535000 0.208225 0
19.540000 0.241061 0
19.545000 0.272775 0
19.550000 0.302516 0
19.555000 0.329426 0
19.560000 0.352685 0
19.565000 0.371545 0
19.570000 0.385376 0
19.575000 0.393698 0
19.580000 0.396206 5
19.585000 0.392788 0
19.590000 0.383537 0
19.595000 0.368738 0
19.600000 0.348861 0
19.605000 0.324530 0
19.610000 0.296490 0
19.615000 0.265575 0
19.620000 0.232657 0
19.625000 0.198613 0
19.630000 0.164284 0
19.635000 0.130440 0
19.640000 0.097760 0
19.645000 0.066805 0
19.650000 0.038014 0
19.655000 0.011702 0
19.660000 -0.011940 0
19.665000 -0.032834 0
19.670000 -0.050997 0
19.675000 -0.066527 0
19.680000 -0.079585 0
19.685000 -0.090374 0
19.690000 -0.099126 0
19.695000 -0.106086 0
19.700000 -0.111497 0
19.705000 -0.115594 0
19.710000 -0.118594 0
19.715000 -0.120695 0
19.720000 -0.120180 0
19.725000 -0.119223 0
19.730000 -0.118271 0
19.735000 -0.117323 0
19.740000 -0.116380 0
19.745000 -0.115439 0
19.750000 -0.114499 0
19.755000 -0.113556 0
19.760000 -0.112603 0
19.765000 -0.111626 0
19.770000 -0.110602 0
19.775000 -0.109492 0
19.780000 -0.108232 0
19.785000 -0.106721 0
19.790000 -0.104808 0
19.795000 -0.102277 0
19.800000 -0.098829 0
19.805000 -0.094075 0
19.810000 -0.087536 0
19.815000 -0.078659 0
19.820000 -0.066858 0
19.825000 -0.051577 0
19.830000 -0.032388 0
19.835000 -0.009094 0
19.840000 0.018154 0
19.845000 0.048764 0
19.850000 0.081650 0
19.855000 0.115247 0
19.860000 0.147603 0
19.865000 0.176548 0
19.870000 0.199930 0
19.875000 0.215877 0
19.880000 0.223044 1
19.885000 0.220799 0
19.890000 0.209318 0
19.895000 0.189560 0
19.900000 0.163136 0
19.905000 0.132083 0
19.910000 0.098573 0
19.915000 0.064531 0
19.920000 0.031058 0
19.925000 -0.002433 0
19.930000 -0.039087 0
19.935000 -0.084155 0
19.940000 -0.141308 0
19.945000 -0.205765 0
19.950000 -0.258695 0
19.955000 -0.268781 2
19.960000 -0.200896 0
19.965000 -0.026932 0
19.970000 0.260237 0
19.975000 0.624677 0
19.980000 0.971451 0
19.985000 1.171723 3
19.990000 1.137170 0
19.995000 0.879029 0
20.000000 0.498275 0
20.005000 0.119328 0
20.010000 -0.170608 0
20.015000 -0.336746 0
20.020000 -0.383482 4
20.025000 -0.340397 0
20.030000 -0.250407 0
20.035000 -0.153928 0
20.040000 -0.074862 0
20.045000 -0.018044 0
20.050000 0.022879 0
20.055000 0.056173 0
20.060000 0.087370 0
20.065000 0.118914 0
20.070000 0.151373 0
20.075000 0.184467 0
20.080000 0.217589 0
20.085000 0.249987 0
20.090000 0.280848 0
20.095000 0.309332 0
20.100000 0.334614 0
20.105000 0.355921 0
20.110000 0.372575 0
20.115000 0.384024 0
20.120000 0.389871 0
20.125000 0.389901 5
20.130000 0.384090 0
20.135000 0.372605 0
20.140000 0.355802 0
20.145000 0.334199 0
20.150000 0.308457 0
20.155000 0.279338 0
20.160000 0.247676 0
20.165000 0.214327 0
20.170000 0.180142 0
20.175000 0.145922 0
20.180000 0.112396 0
20.185000 0.080191 0
20.190000 0.049826 0
20.195000 0.021696 0
20.200000 -0.003926 0
20.205000 -0.026880 0
20.210000 -0.047113 0
20.215000 -0.064660 0
20.220000 -0.079634 0
20.225000 -0.092199 0
20.230000 -0.102562 0
20.235000 -0.110952 0
20.240000 -0.117609 0
20.245000 -0.122769 0
20.250000 -0.126661 0
20.255000 -0.129495 0
20.260000 -0.131460 0
20.265000 -0.130879 0
20.270000 -0.129869 0
20.275000 -0.128864 0
20.280000 -0.127863 0
20.285000 -0.126867 0
20.290000 -0.125874 0
20.295000 -0.124882 0
20.300000 -0.123887 0
20.305000 -0.122882 0
20.310000 -0.121854 0
20.315000 -0.120782 0
20.320000 -0.119625 0
20.325000 -0.118325 0
20.330000 -0.116783 0
20.335000 -0.114857 0
20.340000 -0.112340 0
20.345000 -0.108949 0
20.350000 -0.104312 0
20.355000 -0.097970 0
20.360000 -0.089391 0
20.365000 -0.078002 0
20.370000 -0.063254 0
20.375000 -0.044700 0
20.380000 -0.022104 0
20.385000 0.004458 0
20.390000 0.034494 0
20.395000 0.067044 0
20.400000 0.100677 0
20.405000 0.133557 0
20.410000 0.163599 0
20.415000 0.188673 0
20.420000 0.206853 0
20.425000 0.216662 0
20.430000 0.217271 1
20.435000 0.208614 0
20.440000 0.191399 0
20.445000 0.167017 0
20.450000 0.137346 0
20.455000 0.104500 0
20.460000 0.070498 0
20.465000 0.036798 0
20.470000 0.003573 0
20.475000 -0.031204 0
20.480000 -0.072051 0
20.485000 -0.123899 0
20.490000 -0.186529 0
20.495000 -0.247921 0
20.500000 -0.282259 2
20.505000 -0.255657 0
20.510000 -0.136012 0
20.515000 0.095855 0
20.520000 0.428941 0
20.525000 0.800262 0
20.530000 1.094695 0
20.535000 1.193597 3
20.540000 1.046850 0
20.545000 0.713535 0
20.550000 0.319627 0
20.555000 -0.020431 0
20.560000 -0.245253 0
20.565000 -0.342714 4
20.570000 -0.333282 0
20.575000 -0.257216 0
20.580000 -0.159511 0
20.585000 -0.072658 0
20.590000 -0.008485 0
20.595000 0.036672 0
20.600000 0.071504 0
20.605000 0.102833 0
20.610000 0.134045 0
20.615000 0.166151 0
20.620000 0.199023 0
20.625000 0.232090 0
20.630000 0.264597 0
20.635000 0.295712 0
20.640000 0.324566 0
20.645000 0.350298 0
20.650000 0.372098 0
20.655000 0.389244 0
20.660000 0.401148 0
20.665000 0.407382 0
20.670000 0.407704 5
20.675000 0.402077 0
20.680000 0.390664 0
20.685000 0.373828 0
20.690000 0.352104 0
20.695000 0.326176 0
20.700000 0.296837 0
20.705000 0.264952 0
20.710000 0.231409 0
20.715000 0.197086 0
20.720000 0.162807 0
20.725000 0.129317 0
20.730000 0.097252 0
20.735000 0.067130 0
20.740000 0.039339 0
20.745000 0.014140 0
20.750000 -0.008324 0
20.755000 -0.028021 0
20.760000 -0.045007 0
20.765000 -0.059414 0
20.770000 -0.071427 0
20.775000 -0.081267 0
20.780000 -0.089178 0
20.785000 -0.095406 0
20.790000 -0.100197 0
20.795000 -0.103778 0
20.800000 -0.106360 0
20.805000 -0.107744 0
20.810000 -0.106849 0
20.815000 -0.105959 0
20.820000 -0.105073 0
20.825000 -0.104191 0
20.830000 -0.103312 0
20.835000 -0.102435 0
20.840000 -0.101556 0
20.845000 -0.100670 0
20.850000 -0.099767 0
20.855000 -0.098828 0
20.860000 -0.097820 0
20.865000 -0.096692 0
20.870000 -0.095357 0
20.875000 -0.093685 0
20.880000 -0.091485 0
20.885000 -0.088489 0
20.890000 -0.084339 0
20.895000 -0.078584 0
20.900000 -0.070688 0
20.905000 -0.060064 0
20.910000 -0.046130 0
20.915000 -0.028395 0
20.920000 -0.006563 0
20.925000 0.019343 0
20.930000 0.048884 0
20.935000 0.081129 0
20.940000 0.114644 0
20.945000 0.147565 0
20.950000 0.177741 0
20.955000 0.202961 0
20.960000 0.221219 0
20.965000 0.230972 0
20.970000 0.231359 1
20.975000 0.222324 0
20.980000 0.204627 0
20.985000 0.179737 0
20.990000 0.149628 0
20.995000 0.116494 0
21.000000 0.082389 0
21.005000 0.048704 0
21.010000 0.015346 0
21.015000 -0.020220 0
21.020000 -0.062999 0
21.025000 -0.117581 0
21.030000 -0.181602 0
21.035000 -0.239173 0
21.040000 -0.260651 2
21.045000 -0.210412 0
21.050000 -0.057753 0
21.055000 0.209941 0
21.060000 0.565968 0
21.065000 0.924486 0
21.070000 1.156784 0
21.075000 1.159737 3
21.080000 0.927272 0
21.085000 0.554314 0
21.090000 0.170459 0
21.095000 -0.128798 0
21.100000 -0.303277 0
21.105000 -0.355332 4
21.110000 -0.314548 0
21.115000 -0.225067 0
21.120000 -0.128790 0
21.125000 -0.050346 0
21.130000 0.005587 0
21.135000 0.045776 0
21.140000 0.078674 0
21.145000 0.109745 0
21.150000 0.141289 0
21.155000 0.173761 0
21.160000 0.206813 0
21.165000 0.239785 0
21.170000 0.271887 0
21.175000 0.302269 0
21.180000 0.330062 0
21.185000 0.354419 0
21.190000 0.374561 0
21.195000 0.389813 0
21.200000 0.399644 0
21.205000 0.403694 5
21.210000 0.401799 0
21.215000 0.393995 0
21.220000 0.380523 0
21.225000 0.361812 0
21.230000 0.338456 0
21.235000 0.311183 0
21.240000 0.280817 0
21.245000 0.248234 0
21.250000 0.214325 0
21.255000 0.179948 0
21.260000 0.145901 0
21.265000 0.112889 0
21.270000 0.081508 0
21.275000 0.052225 0
21.280000 0.025382 0
21.285000 0.001196 0
21.290000 -0.020235 0
21.295000 -0.038910 0
21.300000 -0.054918 0
21.305000 -0.068410 0
21.310000 -0.079586 0
21.315000 -0.088678 0
21.320000 -0.095930 0
21.325000 -0.101591 0
21.330000 -0.105899 0
21.335000 -0.109077 0
21.340000 -0.111327 0
21.345000 -0.110872 0
21.350000 -0.109962 0
21.355000 -0.109056 0
21.360000 -0.108155 0
21.365000 -0.107257 0
21.370000 -0.106362 0
21.375000 -0.105468 0
21.380000 -0.104570 0
21.385000 -0.103664 0
21.390000 -0.102734 0
21.395000 -0.101759 0
21.400000 -0.100700 0
21.405000 -0.099495 0
21.410000 -0.098043 0
21.415000 -0.096196 0
21.420000 -0.093738 0
21.425000 -0.090370 0
21.430000 -0.085704 0
21.435000 -0.079256 0
21.440000 -0.070469 0
21.445000 -0.058750 0
21.450000 -0.043539 0
21.455000 -0.024400 0
21.460000 -0.001134 0
21.465000 0.026106 0
21.470000 0.056716 0
21.475000 0.089594 0
21.480000 0.123150 0
21.485000 0.155401 0
21.490000 0.184153 0
21.495000 0.207237 0
21.500000 0.222776 0
21.505000 0.229442 1
21.510000 0.226635 0
21.515000 0.214579 0
21.520000 0.194289 0
21.525000 0.167429 0
21.530000 0.136076 0
21.535000 0.102424 0
21.540000 0.068371 0
21.545000 0.034921 0
21.550000 0.001265 0
21.555000 -0.036041 0
21.560000 -0.082377 0
21.565000 -0.140881 0
21.570000 -0.205276 0
21.575000 -0.254760 0
21.580000 -0.256638 2
21.585000 -0.175718 0
21.590000 0.014497 0
21.595000 0.316542 0
21.600000 0.685757 0
21.605000 1.017974 0
21.610000 1.183654 3
21.615000 1.106501 0
21.620000 0.817667 0
21.625000 0.428586 0
21.630000 0.061079 0
21.635000 -0.206910 0
21.640000 -0.349018 0
21.645000 -0.375415 4
21.650000 -0.319512 0
21.655000 -0.225384 0
21.660000 -0.131231 0
21.665000 -0.056953 0
21.670000 -0.004235 0
21.675000 0.034387 0
21.680000 0.066853 0
21.685000 0.097985 0
21.690000 0.129711 0
21.695000 0.162340 0
21.700000 0.195486 0
21.705000 0.228491 0
21.710000 0.260581 0
21.715000 0.290926 0
21.720000 0.318679 0
21.725000 0.343021 0
21.730000 0.363193 0
21.735000 0.378540 0
21.740000 0.388544 0
21.745000 0.392853 5
21.750000 0.391299 0
21.755000 0.383910 0
21.760000 0.370907 0
21.765000 0.352695 0
21.770000 0.329839 0
21.775000 0.303038 0
21.780000 0.273083 0
21.785000 0.240824 0
21.790000 0.207127 0
21.795000 0.172835 0
21.800000 0.138737 0
21.805000 0.105539 0
21.810000 0.073839 0
21.815000 0.044122 0
21.820000 0.016746 0
21.825000 -0.008049 0
21.830000 -0.030140 0
21.835000 -0.049503 0
21.840000 -0.066200 0
21.845000 -0.080365 0
21.850000 -0.092179 0
21.855000 -0.101860 0
21.860000 -0.109643 0
21.865000 -0.115770 0
21.870000 -0.120477 0
21.875000 -0.123989 0
21.880000 -0.126508 0
21.885000 -0.127826 0
21.890000 -0.126831 0
21.895000 -0.125841 0
21.900000 -0.124856 0
21.905000 -0.123875 0
21.910000 -0.122898 0
21.915000 -0.121924 0
21.920000 -0.120949 0
21.925000 -0.119969 0
21.930000 -0.118975 0
21.935000 -0.117950 0
21.940000 -0.116867 0
21.945000 -0.115678 0
21.950000 -0.114310 0
21.955000 -0.112648 0
21.960000 -0.110522 0
21.965000 -0.107695 0
21.970000 -0.103844 0
21.975000 -0.098557 0
21.980000 -0.091338 0
21.985000 -0.081628 0
21.990000 -0.068851 0
21.995000 -0.052488 0
22.000000 -0.032168 0
22.005000 -0.007780 0
22.010000 0.020422 0
22.015000 0.051735 0
22.020000 0.084972 0
22.025000 0.118493 0
22.030000 0.150309 0
22.035000 0.178270 0
22.040000 0.200297 0
22.045000 0.214634 0
22.050000 0.220085 1
22.055000 0.216172 0
22.060000 0.203212 0
22.065000 0.182270 0
22.070000 0.155013 0
22.075000 0.123488 0
22.080000 0.089823 0
22.085000 0.055839 0
22.090000 0.022462 0
22.095000 -0.011148 0
22.100000 -0.048380 0
22.105000 -0.094481 0
22.110000 -0.152605 0
22.115000 -0.217016 0
22.120000 -0.268067 0
22.125000 -0.274353 2
22.130000 -0.201426 0
22.135000 -0.022311 0
22.140000 0.268669 0
22.145000 0.634246 0
22.150000 0.979485 0
22.155000 1.177499 3
22.160000 1.139094 0
22.165000 0.875013 0
22.170000 0.491591 0
22.175000 0.116620 0
22.180000 -0.163377 0
22.185000 -0.316483 0
22.190000 -0.350480 4
22.195000 -0.298346 0
22.200000 -0.205157 0
22.205000 -0.110758 0
22.210000 -0.036238 0
22.215000 0.016405 0
22.220000 0.054810 0
22.225000 0.087099 0
22.230000 0.118140 0
22.235000 0.149826 0
22.240000 0.182419 0
22.245000 0.215493 0
22.250000 0.248360 0
22.255000 0.280214 0
22.260000 0.310197 0
22.265000 0.337442 0
22.270000 0.361110 0
22.275000 0.380436 0
22.280000 0.394766 0
22.285000 0.403598 0
22.290000 0.406604 5
22.295000 0.403654 0
22.300000 0.394821 0
22.305000 0.380380 0
22.310000 0.360790 0
22.315000 0.336674 0
22.320000 0.308779 0
22.325000 0.277942 0
22.330000 0.245045 0
22.335000 0.210977 0
22.340000 0.176589 0
22.345000 0.142665 0
22.350000 0.109891 0
22.355000 0.078841 0
22.360000 0.049962 0
22.365000 0.023572 0
22.370000 -0.000135 0
22.375000 -0.021078 0
22.380000 -0.039275 0
22.385000 -0.054826 0
22.390000 -0.067894 0
22.395000 -0.078686 0
22.400000 -0.087436 0
22.405000 -0.094392 0
22.410000 -0.099800 0
22.415000 -0.103898 0
22.420000 -0.106903 0
22.425000 -0.109014 0
22.430000 -0.108549 0
22.435000 -0.107651 0
22.440000 -0.106757 0
22.445000 -0.105866 0
22.450000 -0.104980 0
22.455000 -0.104095 0
22.460000 -0.103211 0
22.465000 -0.102324 0
22.470000 -0.101424 0
22.475000 -0.100498 0
22.480000 -0.099521 0
22.485000 -0.098450 0
22.490000 -0.097217 0
22.495000 -0.095714 0
22.500000 -0.093780 0
22.505000 -0.091183 0
22.510000 -0.087610 0
22.515000 -0.082651 0
22.520000 -0.075809 0
22.525000 -0.066513 0
22.530000 -0.054171 0
22.535000 -0.038238 0
22.540000 -0.018315 0
22.545000 0.005738 0
22.550000 0.033686 0
22.555000 0.064832 0
22.560000 0.097973 0
22.565000 0.131429 0
22.570000 0.163161 0
22.575000 0.190956 0
22.580000 0.212680 0
22.585000 0.226545 0
22.590000 0.231351 1
22.595000 0.226660 0
22.600000 0.212858 0
22.605000 0.191103 0
22.610000 0.163165 0
22.615000 0.131173 0
22.620000 0.097297 0
22.625000 0.063320 0
22.630000 0.029961 0
22.635000 -0.004071 0
22.640000 -0.042759 0
22.645000 -0.091501 0
22.650000 -0.152145 0
22.655000 -0.215688 0
22.660000 -0.258397 2
22.665000 -0.246169 0
22.670000 -0.144619 0
22.675000 0.069395 0
22.680000 0.390780 0
22.685000 0.762609 0
22.690000 1.070717 0
22.695000 1.189352 3
22.700000 1.060760 0
22.705000 0.737425 0
22.710000 0.343590 0
22.715000 -0.002976 0
22.720000 -0.236619 0
22.725000 -0.342299 4
22.730000 -0.338781 0
22.735000 -0.265567 0
22.740000 -0.168052 0
22.745000 -0.080001 0
22.750000 -0.014496 0
22.755000 0.031520 0
22.760000 0.066722 0
22.765000 0.098139 0
22.770000 0.129335 0
22.775000 0.161410 0
22.780000 0.194273 0
22.785000 0.227362 0
22.790000 0.259927 0
22.795000 0.291133 0
22.800000 0.320109 0
22.805000 0.345991 0
22.810000 0.367961 0
22.815000 0.385292 0
22.820000 0.397389 0
22.825000 0.403815 0
22.830000 0.404323 5
22.835000 0.398868 0
22.840000 0.387611 0
22.845000 0.370909 0
22.850000 0.349296 0
22.855000 0.323457 0
22.860000 0.294185 0
22.865000 0.262347 0
22.870000 0.228836 0
22.875000 0.194532 0
22.880000 0.160264 0
22.885000 0.126779 0
22.890000 0.094718 0
22.895000 0.064600 0
22.900000 0.036817 0
22.905000 0.011630 0
22.910000 -0.010817 0
22.915000 -0.030492 0
22.920000 -0.047452 0
22.925000 -0.061829 0
22.930000 -0.073810 0
22.935000 -0.083617 0
22.940000 -0.091493 0
22.945000 -0.097688 0
22.950000 -0.102446 0
22.955000 -0.105996 0
22.960000 -0.108549 0
22.965000 -0.109908 0
22.970000 -0.109003 0
22.975000 -0.108102 0
22.980000 -0.107206 0
22.985000 -0.106313 0
22.990000 -0.105423 0
22.995000 -0.104535 0
23.000000 -0.103645 0
23.005000 -0.102749 0
23.010000 -0.101834 0
23.015000 -0.100882 0
23.020000 -0.099861 0
23.025000 -0.098714 0
23.030000 -0.097357 0
23.035000 -0.095654 0
23.040000 -0.093411 0
23.045000 -0.090354 0
23.050000 -0.086120 0
23.055000 -0.080250 0
23.060000 -0.072203 0
23.065000 -0.061388 0
23.070000 -0.047223 0
23.075000 -0.029224 0
23.080000 -0.007112 0
23.085000 0.019067 0
23.090000 0.048840 0
23.095000 0.081239 0
23.100000 0.114790 0
23.105000 0.147594 0
23.110000 0.177480 0
23.115000 0.202236 0
23.120000 0.219875 0
23.125000 0.228896 1
23.130000 0.228497 0
23.135000 0.218693 0
23.140000 0.200311 0
23.145000 0.174882 0
23.150000 0.144417 0
23.155000 0.111123 0
23.160000 0.077025 0
23.165000 0.043418 0
23.170000 0.010010 0
23.175000 -0.026016 0
23.180000 -0.069839 0
23.185000 -0.125697 0
23.190000 -0.190046 0
23.195000 -0.245329 0
23.200000 -0.260665 2
23.205000 -0.200301 0
23.210000 -0.034693 0
23.215000 0.245570 0
23.220000 0.607521 0
23.225000 0.958042 0
23.230000 1.166648 3
23.235000 1.139897 0
23.240000 0.887056 0
23.245000 0.507848 0
23.250000 0.127732 0
23.255000 -0.164391 0
23.260000 -0.332582 0
23.265000 -0.380743 4
23.270000 -0.338373 0
23.275000 -0.248577 0
23.280000 -0.152082 0
23.285000 -0.073012 0
23.290000 -0.016250 0
23.295000 0.024603 0
23.300000 0.057855 0
23.305000 0.089041 0
23.310000 0.120592 0
23.315000 0.153060 0
23.320000 0.186157 0
23.325000 0.219266 0
23.330000 0.251630 0
23.335000 0.282427 0
23.340000 0.310814 0
23.345000 0.335961 0
23.350000 0.357095 0
23.355000 0.373535 0
23.360000 0.384733 0
23.365000 0.390299 5
23.370000 0.390023 0
23.375000 0.383892 0
23.380000 0.372086 0
23.385000 0.354971 0
23.390000 0.333079 0
23.395000 0.307082 0
23.400000 0.277754 0
23.405000 0.245935 0
23.410000 0.212490 0
23.415000 0.178269 0
23.420000 0.144076 0
23.425000 0.110634 0
23.430000 0.078569 0
23.435000 0.048388 0
23.440000 0.020480 0
23.445000 -0.004892 0
23.450000 -0.027578 0
23.455000 -0.047535 0
23.460000 -0.064808 0
23.465000 -0.079514 0
23.470000 -0.091826 0
23.475000 -0.101955 0
23.480000 -0.110133 0
23.485000 -0.116602 0
23.490000 -0.121600 0
23.495000 -0.125352 0
23.500000 -0.128069 0
23.505000 -0.129939 0
23.510000 -0.129350 0
23.515000 -0.128347 0
23.520000 -0.127350 0
23.525000 -0.126357 0
23.530000 -0.125368 0
23.535000 -0.124382 0
23.540000 -0.123396 0
23.545000 -0.122407 0
23.550000 -0.121406 0
23.555000 -0.120379 0
23.560000 -0.119302 0
23.565000 -0.118132 0
23.570000 -0.116804 0
23.575000 -0.115212 0
23.580000 -0.113202 0
23.585000 -0.110554 0
23.590000 -0.106966 0
23.595000 -0.102047 0
23.600000 -0.095320 0
23.605000 -0.086238 0
23.610000 -0.074225 0
23.615000 -0.058739 0
23.620000 -0.039367 0
23.625000 -0.015926 0
23.630000 0.011426 0
23.635000 0.042098 0
23.640000 0.075020 0
23.645000 0.108652 0
23.650000 0.141079 0
23.655000 0.170170 0
23.660000 0.193807 0
23.665000 0.210136 0
23.670000 0.217810 1
23.675000 0.216167 0
23.680000 0.205332 0
23.685000 0.186198 0
23.690000 0.160305 0
23.695000 0.129628 0
23.700000 0.096305 0
23.705000 0.062275 0
23.710000 0.028753 0
23.715000 -0.004582 0
23.720000 -0.040466 0
23.725000 -0.083904 0
23.730000 -0.139130 0
23.735000 -0.203241 0
23.740000 -0.260161 0
23.745000 -0.280772 2
23.750000 -0.230443 0
23.755000 -0.079330 0
23.760000 0.185257 0
23.765000 0.538921 0
23.770000 0.900840 0
23.775000 1.146800 0
23.780000 1.171710 3
23.785000 0.959280 0
23.790000 0.594455 0
23.795000 0.206356 0
23.800000 -0.104687 0
23.805000 -0.293228 0
23.810000 -0.357860 4
23.815000 -0.325583 0
23.820000 -0.239409 0
23.825000 -0.142203 0
23.830000 -0.060952 0
23.835000 -0.002425 0
23.840000 0.039286 0
23.845000 0.072759 0
23.850000 0.103892 0
23.855000 0.135324 0
23.860000 0.167684 0
23.865000 0.200696 0
23.870000 0.233733 0
23.875000 0.266024 0
23.880000 0.296727 0
23.885000 0.324980 0
23.890000 0.349934 0
23.895000 0.370801 0
23.900000 0.386891 0
23.905000 0.397651 0
23.910000 0.402693 5
23.915000 0.401820 0
23.920000 0.395033 0
23.925000 0.382539 0
23.930000 0.364731 0
23.935000 0.342174 0
23.940000 0.315570 0
23.945000 0.285723 0
23.950000 0.253499 0
23.955000 0.219783 0
23.960000 0.185439 0
23.965000 0.151273 0
23.970000 0.118008 0
23.975000 0.086258 0
23.980000 0.056516 0
23.985000 0.029147 0
23.990000 0.004391 0
23.995000 -0.017629 0
24.000000 -0.036893 0
24.005000 -0.053471 0
24.010000 -0.067501 0
24.015000 -0.079174 0
24.020000 -0.088714 0
24.025000 -0.096362 0
24.030000 -0.102366 0
24.035000 -0.106966 0
24.040000 -0.110387 0
24.045000 -0.112836 0
24.050000 -0.114120 0
24.055000 -0.113193 0
24.060000 -0.112272 0
24.065000 -0.111354 0
24.070000 -0.110441 0
24.075000 -0.109530 0
24.080000 -0.108621 0
24.085000 -0.107711 0
24.090000 -0.106793 0
24.095000 -0.105857 0
24.100000 -0.104883 0
24.105000 -0.103839 0
24.110000 -0.102668 0
24.115000 -0.101285 0
24.120000 -0.099557 0
24.125000 -0.097288 0
24.130000 -0.094208 0
24.135000 -0.089957 0
24.140000 -0.084081 0
24.145000 -0.076045 0
24.150000 -0.065264 0
24.155000 -0.051163 0
24.160000 -0.033259 0
24.165000 -0.011268 0
24.170000 0.014776 0
24.175000 0.044424 0
24.180000 0.076739 0
24.185000 0.110287 0
24.190000 0.143209 0
24.195000 0.173366 0
24.200000 0.198564 0
24.205000 0.216813 0
24.210000 0.226582 0
24.215000 0.227018 1
24.220000 0.218062 0
24.225000 0.200465 0
24.230000 0.175680 0
24.235000 0.145661 0
24.240000 0.112589 0
24.245000 0.078511 0
24.250000 0.044830 0
24.255000 0.011510 0
24.260000 -0.023882 0
24.265000 -0.066263 0
24.270000 -0.120310 0
24.275000 -0.184113 0
24.280000 -0.242557 0
24.285000 -0.266728 2
24.290000 -0.221283 0
24.295000 -0.075163 0
24.300000 0.185709 0
24.305000 0.537965 0
24.310000 0.900262 0
24.315000 1.145947 0
24.320000 1.167798 3
24.325000 0.950718 0
24.330000 0.583284 0
24.335000 0.196756 0
24.340000 -0.108898 0
24.345000 -0.289998 0
24.350000 -0.347132 4
24.355000 -0.309245 0
24.360000 -0.220697 0
24.365000 -0.124232 0
24.370000 -0.045343 0
24.375000 0.010863 0
24.380000 0.051127 0
24.385000 0.084012 0
24.390000 0.115057 0
24.395000 0.146584 0
24.400000 0.179045 0
24.405000 0.212079 0
24.410000 0.245016 0
24.415000 0.277054 0
24.420000 0.307331 0
24.425000 0.334967 0
24.430000 0.359108 0
24.435000 0.378969 0
24.440000 0.393875 0
24.445000 0.403298 0
24.450000 0.406888 5
24.455000 0.404492 0
24.460000 0.396165 0
24.465000 0.382167 0
24.470000 0.362948 0
24.475000 0.339126 0
24.480000 0.311449 0
24.485000 0.280759 0
24.490000 0.247946 0
24.495000 0.213908 0
24.500000 0.179510 0
24.505000 0.145548 0
24.510000 0.112720 0
24.515000 0.081610 0
24.520000 0.052673 0
24.525000 0.026233 0
24.530000 0.002489 0
24.535000 -0.018476 0
24.540000 -0.036680 0
24.545000 -0.052224 0
24.550000 -0.065273 0
24.555000 -0.076038 0
24.560000 -0.084755 0
24.565000 -0.091675 0
24.570000 -0.097047 0
24.575000 -0.101110 0
24.580000 -0.104083 0
24.585000 -0.106167 0
24.590000 -0.105710 0
24.595000 -0.104825 0
24.600000 -0.103945 0
24.605000 -0.103069 0
24.610000 -0.102196 0
24.615000 -0.101325 0
24.620000 -0.100455 0
24.625000 -0.099579 0
24.630000 -0.098691 0
24.635000 -0.097774 0
24.640000 -0.096802 0
24.645000 -0.095729 0
24.650000 -0.094482 0
24.655000 -0.092945 0
24.660000 -0.090947 0
24.665000 -0.088245 0
24.670000 -0.084507 0
24.675000 -0.079304 0
24.680000 -0.072121 0
24.685000 -0.062373 0
24.690000 -0.049464 0
24.695000 -0.032861 0
24.700000 -0.012196 0
24.705000 0.012610 0
24.710000 0.041238 0
24.715000 0.072885 0
24.720000 0.106233 0
24.725000 0.139498 0
24.730000 0.170563 0
24.735000 0.197183 0
24.740000 0.217256 0
24.745000 0.229090 0
24.750000 0.231637 1
24.755000 0.224653 0
24.760000 0.208726 0
24.765000 0.185203 0
24.770000 0.155990 0
24.775000 0.123286 0
24.780000 0.089231 0
24.785000 0.055413 0
24.790000 0.022098 0
24.795000 -0.012768 0
24.800000 -0.053899 0
24.805000 -0.106386 0
24.810000 -0.169551 0
24.815000 -0.229799 0
24.820000 -0.259010 2
24.825000 -0.221414 0
24.830000 -0.084547 0
24.835000 0.167968 0
24.840000 0.515993 0
24.845000 0.880788 0
24.850000 1.134866 0
24.855000 1.166410 3
24.860000 0.957126 0
24.865000 0.594149 0
24.870000 0.205137 0
24.875000 -0.109381 0
24.880000 -0.302809 0
24.885000 -0.372431 4
24.890000 -0.343966 0
24.895000 -0.259495 0
24.900000 -0.161890 0
24.905000 -0.079072 0
24.910000 -0.018927 0
24.915000 0.023849 0
24.920000 0.057801 0
24.925000 0.089055 0
24.930000 0.120468 0
24.935000 0.152794 0
24.940000 0.185818 0
24.945000 0.218946 0
24.950000 0.251424 0
24.955000 0.282428 0
24.960000 0.311105 0
24.965000 0.336613 0
24.970000 0.358162 0
24.975000 0.375054 0
24.980000 0.386719 0
24.985000 0.392748 0
24.990000 0.392914 5
24.995000 0.387188 0
25.000000 0.375736 0
25.005000 0.358917 0
25.010000 0.337260 0
25.015000 0.311437 0
25.020000 0.282225 0
25.025000 0.250471 0
25.030000 0.217049 0
25.035000 0.182822 0
25.040000 0.148601 0
25.045000 0.115121 0
25.050000 0.083016 0
25.055000 0.052801 0
25.060000 0.024869 0
25.065000 -0.000513 0
25.070000 -0.023195 0
25.075000 -0.043133 0
25.080000 -0.060375 0
25.085000 -0.075039 0
25.090000 -0.087303 0
25.095000 -0.097379 0
25.100000 -0.105504 0
25.105000 -0.111921 0
25.110000 -0.116871 0
25.115000 -0.120582 0
25.120000 -0.123263 0
25.125000 -0.124694 0
25.130000 -0.123715 0
25.135000 -0.122741 0
25.140000 -0.121771 0
25.145000 -0.120806 0
25.150000 -0.119845 0
25.155000 -0.118886 0
25.160000 -0.117927 0
25.165000 -0.116964 0
25.170000 -0.115987 0
25.175000 -0.114982 0
25.180000 -0.113922 0
25.185000 -0.112761 0
25.190000 -0.111429 0
25.195000 -0.109812 0
25.200000 -0.107747 0
25.205000 -0.104998 0
25.210000 -0.101246 0
25.215000 -0.096083 0
25.220000 -0.089012 0
25.225000 -0.079470 0
25.230000 -0.066877 0
25.235000 -0.050700 0
25.240000 -0.030559 0
25.245000 -0.006326 0
25.250000 0.021755 0
25.255000 0.052990 0
25.260000 0.086192 0
25.265000 0.119713 0
25.270000 0.151549 0
25.275000 0.179530 0
25.280000 0.201553 0
25.285000 0.215847 0
25.290000 0.221203 1
25.295000 0.217148 0
25.300000 0.204014 0
25.305000 0.182888 0
25.310000 0.155468 0
25.315000 0.123827 0
25.320000 0.090110 0
25.325000 0.056134 0
25.330000 0.022775 0
25.335000 -0.010934 0
25.340000 -0.048558 0
25.345000 -0.095416 0
25.350000 -0.154324 0
25.355000 -0.218601 0
25.360000 -0.267332 0
25.365000 -0.268182 2
25.370000 -0.186589 0
25.375000 0.003418 0
25.380000 0.304454 0
25.385000 0.673280 0
25.390000 1.008456 0
25.395000 1.182252 3
25.400000 1.114707 0
25.405000 0.830438 0
25.410000 0.441979 0
25.415000 0.074306 0
25.420000 -0.192596 0
25.425000 -0.332095 0
25.430000 -0.355200 4
25.435000 -0.296698 0
25.440000 -0.201791 0
25.445000 -0.108729 0
25.450000 -0.036434 0
25.455000 0.014511 0
25.460000 0.052080 0
25.465000 0.084138 0
25.470000 0.115221 0
25.475000 0.147017 0
25.480000 0.179700 0
25.485000 0.212812 0
25.490000 0.245655 0
25.495000 0.277421 0
25.500000 0.307253 0
25.505000 0.334287 0
25.510000 0.357692 0
25.515000 0.376713 0
25.520000 0.390709 0
25.525000 0.399190 0
25.530000 0.401842 5
25.535000 0.398548 0
25.540000 0.389394 0
25.545000 0.374665 0
25.550000 0.354830 0
25.555000 0.330514 0
25.560000 0.302470 0
25.565000 0.271534 0
25.570000 0.238586 0
25.575000 0.204510 0
25.580000 0.170151 0
25.585000 0.136286 0
25.590000 0.103596 0
25.595000 0.072645 0
25.600000 0.043875 0
25.605000 0.017598 0
25.610000 -0.005998 0
25.615000 -0.026833 0
25.620000 -0.044931 0
25.625000 -0.060390 0
25.630000 -0.073377 0
25.635000 -0.084096 0
25.640000 -0.092784 0
25.645000 -0.099685 0
25.650000 -0.105046 0
25.655000 -0.109102 0
25.660000 -0.112071 0
25.665000 -0.114149 0
25.670000 -0.113657 0
25.675000 -0.112733 0
25.680000 -0.111814 0
25.685000 -0.110898 0
25.690000 -0.109986 0
25.695000 -0.109077 0
25.700000 -0.108168 0
25.705000 -0.107256 0
25.710000 -0.106332 0
25.715000 -0.105382 0
25.720000 -0.104382 0
25.725000 -0.103289 0
25.730000 -0.102035 0
25.735000 -0.100515 0
25.740000 -0.098568 0
25.745000 -0.095967 0
25.750000 -0.092399 0
25.755000 -0.087462 0
25.760000 -0.080659 0
25.765000 -0.071427 0
25.770000 -0.059174 0
25.775000 -0.043355 0
25.780000 -0.023564 0
25.785000 0.000349 0
25.790000 0.028168 0
25.795000 0.059217 0
25.800000 0.092320 0
25.805000 0.125827 0
25.810000 0.157716 0
25.815000 0.185789 0
25.820000 0.207908 0
25.825000 0.222268 0
25.830000 0.227637 1
25.835000 0.223530 0
25.840000 0.210283 0
25.845000 0.189007 0
25.850000 0.161432 0
25.855000 0.129663 0
25.860000 0.095873 0
25.865000 0.061881 0
25.870000 0.028509 0
25.875000 -0.005345 0
25.880000 -0.043452 0
25.885000 -0.091206 0
25.890000 -0.151001 0
25.895000 -0.214996 0
25.900000 -0.260742 2
25.905000 -0.254800 0
25.910000 -0.162503 0
25.915000 0.040769 0
25.920000 0.353521 0
25.925000 0.724740 0
25.930000 1.045133 0
25.935000 1.187115 3
25.940000 1.082630 0
25.945000 0.772917 0
25.950000 0.380043 0
25.955000 0.026261 0
25.960000 -0.217237 0
25.965000 -0.331862 0
25.970000 -0.334591 4
25.975000 -0.264349 0
25.980000 -0.167170 0
25.985000 -0.078201 0
25.990000 -0.011705 0
25.995000 0.034890 0
26.000000 0.070299 0
26.005000 0.101737 0
26.010000 0.132899 0
26.015000 0.164938 0
26.020000 0.197775 0
26.025000 0.230846 0
26.030000 0.263394 0
26.035000 0.294573 0
26.040000 0.323503 0
26.045000 0.349311 0
26.050000 0.371172 0
26.055000 0.388352 0
26.060000 0.400253 0
26.065000 0.406440 0
26.070000 0.406671 5
26.075000 0.400909 0
26.080000 0.389327 0
26.085000 0.372296 0
26.090000 0.350367 0
26.095000 0.324240 0
26.100000 0.294723 0
26.105000 0.262697 0
26.110000 0.229065 0
26.115000 0.194713 0
26.120000 0.160473 0
26.125000 0.127091 0
26.130000 0.095203 0
26.135000 0.065319 0
26.140000 0.037819 0
26.145000 0.012955 0
26.150000 -0.009146 0
26.155000 -0.028463 0
26.160000 -0.045065 0
26.165000 -0.059094 0
26.170000 -0.070746 0
26.175000 -0.080250 0
26.180000 -0.087854 0
26.185000 -0.093810 0
26.190000 -0.098361 0
26.195000 -0.101738 0
26.200000 -0.104149 0
26.205000 -0.105416 0
26.210000 -0.104533 0
26.215000 -0.103654 0
26.220000 -0.102780 0
26.225000 -0.101909 0
26.230000 -0.101041 0
26.235000 -0.100173 0
26.240000 -0.099304 0
26.245000 -0.098424 0
26.250000 -0.097523 0
26.255000 -0.096578 0
26.260000 -0.095551 0
26.265000 -0.094380 0
26.270000 -0.092966 0
26.275000 -0.091158 0
26.280000 -0.088741 0
26.285000 -0.085412 0
26.290000 -0.080777 0
26.295000 -0.074346 0
26.300000 -0.065552 0
26.305000 -0.053794 0
26.310000 -0.038502 0
26.315000 -0.019240 0
26.320000 0.004185 0
26.325000 0.031598 0
26.330000 0.062360 0
26.335000 0.095322 0
26.340000 0.128834 0
26.345000 0.160861 0
26.350000 0.189165 0
26.355000 0.211557 0
26.360000 0.226177 0
26.365000 0.231745 1
26.370000 0.227749 0
26.375000 0.214519 0
26.380000 0.193183 0
26.385000 0.165506 0
26.390000 0.133639 0
26.395000 0.099791 0
26.400000 0.065792 0
26.405000 0.032415 0
26.410000 -0.001603 0
26.415000 -0.040272 0
26.420000 -0.089064 0
26.425000 -0.149822 0
26.430000 -0.213242 0
26.435000 -0.254975 2
26.440000 -0.240265 0
26.445000 -0.134399 0
26.450000 0.085313 0
26.455000 0.411632 0
26.460000 0.783218 0
26.465000 1.081469 0
26.470000 1.181123 3
26.475000 1.033497 0
26.480000 0.701118 0
26.485000 0.307144 0
26.490000 -0.035684 0
26.495000 -0.265718 0
26.500000 -0.369494 4
26.505000 -0.365703 0
26.510000 -0.292875 0
26.515000 -0.195316 0
26.520000 -0.106392 0
26.525000 -0.039591 0
26.530000 0.007535 0
26.535000 0.043381 0
26.540000 0.075045 0
26.545000 0.106280 0
26.550000 0.138338 0
26.555000 0.171219 0
26.560000 0.204410 0
26.565000 0.237201 0
26.570000 0.268787 0
26.575000 0.298324 0
26.580000 0.324964 0
26.585000 0.347900 0
26.590000 0.366404 0
26.595000 0.379862 0
26.600000 0.387811 0
26.605000 0.389963 5
26.610000 0.386222 0
26.615000 0.376690 0
26.620000 0.361661 0
26.625000 0.341607 0
26.630000 0.317152 0
26.635000 0.289037 0
26.640000 0.258088 0
26.645000 0.225170 0
26.650000 0.191149 0
26.655000 0.156856 0
26.660000 0.123053 0
26.665000 0.090409 0
26.670000 0.059480 0
26.675000 0.030702 0
26.680000 0.004386 0
26.685000 -0.019277 0
26.690000 -0.040207 0
26.695000 -0.058419 0
26.700000 -0.074007 0
26.705000 -0.087128 0
26.710000 -0.097983 0
26.715000 -0.106799 0
26.720000 -0.113819 0
26.725000 -0.119283 0
26.730000 -0.123426 0
26.735000 -0.126462 0
26.740000 -0.128590 0
26.745000 -0.128045 0
26.750000 -0.127049 0
26.755000 -0.126058 0
26.760000 -0.125072 0
26.765000 -0.124090 0
26.770000 -0.123111 0
26.775000 -0.122133 0
26.780000 -0.121153 0
26.785000 -0.120165 0
26.790000 -0.119155 0
26.795000 -0.118103 0
26.800000 -0.116973 0
26.805000 -0.115704 0
26.810000 -0.114205 0
26.815000 -0.112336 0
26.820000 -0.109892 0
26.825000 -0.106595 0
26.830000 -0.102074 0
26.835000 -0.095872 0
26.840000 -0.087453 0
26.845000 -0.076239 0
26.850000 -0.061668 0
26.855000 -0.043282 0
26.860000 -0.020831 0
26.865000 0.005618 0
26.870000 0.035582 0
26.875000 0.068098 0
26.880000 0.101721 0
26.885000 0.134597 0
26.890000 0.164612 0
26.895000 0.189610 0
26.900000 0.207645 0
26.905000 0.217230 0
26.910000 0.217545 1
26.915000 0.208546 0
26.920000 0.190979 0
26.925000 0.166279 0
26.930000 0.136366 0
26.935000 0.103386 0
26.940000 0.069362 0
26.945000 0.035707 0
26.950000 0.002457 0
26.955000 -0.032659 0
26.960000 -0.074387 0
26.965000 -0.127510 0
26.970000 -0.190851 0
26.975000 -0.250676 0
26.980000 -0.279478 2
26.985000 -0.242611 0
26.990000 -0.108562 0
26.995000 0.139189 0
27.000000 0.483274 0
27.005000 0.851117 0
27.010000 1.121177 0
27.015000 1.180080 3
27.020000 0.997342 0
27.025000 0.646966 0
27.030000 0.254490 0
27.035000 -0.074224 0
27.040000 -0.285811 0
27.045000 -0.372480 4
27.050000 -0.356352 0
27.055000 -0.277557 0
27.060000 -0.179628 0
27.065000 -0.093317 0
27.070000 -0.029470 0
27.075000 0.015703 0
27.080000 0.050684 0
27.085000 0.082139 0
27.090000 0.113424 0
27.095000 0.145578 0
27.100000 0.178509 0
27.105000 0.211676 0
27.110000 0.244356 0
27.115000 0.275743 0
27.120000 0.304994 0
27.125000 0.331270 0
27.130000 0.353772 0
27.135000 0.371785 0
27.140000 0.384713 0
27.145000 0.392111 0
27.150000 0.393709 5
27.155000 0.389430 0
27.160000 0.379392 0
27.165000 0.363905 0
27.170000 0.343451 0
27.175000 0.318662 0
27.180000 0.290285 0
27.185000 0.259144 0
27.190000 0.226102 0
27.195000 0.192020 0
27.200000 0.157721 0
27.205000 0.123958 0
27.210000 0.091389 0
27.215000 0.060561 0
27.220000 0.031901 0
27.225000 0.005710 0
27.230000 -0.017828 0
27.235000 -0.038637 0
27.240000 -0.056737 0
27.245000 -0.072225 0
27.250000 -0.085261 0
27.255000 -0.096043 0
27.260000 -0.104802 0
27.265000 -0.111777 0
27.270000 -0.117207 0
27.275000 -0.121326 0
27.280000 -0.124347 0
27.285000 -0.126466 0
27.290000 -0.125929 0
27.295000 -0.124944 0
27.300000 -0.123963 0
27.305000 -0.122987 0
27.310000 -0.122015 0
27.315000 -0.121047 0
27.320000 -0.120079 0
27.325000 -0.119110 0
27.330000 -0.118131 0
27.335000 -0.117132 0
27.340000 -0.116090 0
27.345000 -0.114970 0
27.350000 -0.113714 0
27.355000 -0.112228 0
27.360000 -0.110374 0
27.365000 -0.107952 0
27.370000 -0.104683 0
27.375000 -0.100202 0
27.380000 -0.094056 0
27.385000 -0.085711 0
27.390000 -0.074593 0
27.395000 -0.060143 0
27.400000 -0.041901 0
27.405000 -0.019606 0
27.410000 0.006686 0
27.415000 0.036512 0
27.420000 0.068933 0
27.425000 0.102532 0
27.430000 0.135479 0
27.435000 0.165680 0
27.440000 0.190983 0
27.445000 0.209436 0
27.450000 0.219529 0
27.455000 0.220400 1
27.460000 0.211961 0
27.465000 0.194905 0
27.470000 0.170620 0
27.475000 0.140993 0
27.480000 0.108152 0
27.485000 0.074135 0
27.490000 0.040416 0
27.495000 0.007172 0
27.500000 -0.027646 0
27.505000 -0.068600 0
27.510000 -0.120639 0
27.515000 -0.183412 0
27.520000 -0.244550 0
27.525000 -0.277776 2
27.530000 -0.248862 0
27.535000 -0.125673 0
27.540000 0.110424 0
27.545000 0.446724 0
27.550000 0.817290 0
27.555000 1.104530 0
27.560000 1.190764 3
27.565000 1.032861 0
27.570000 0.693896 0
27.575000 0.300245 0
27.580000 -0.036061 0
27.585000 -0.256195 0
27.590000 -0.349570 4
27.595000 -0.337398 0
27.600000 -0.260111 0
27.605000 -0.162329 0
27.610000 -0.075892 0
27.615000 -0.012122 0
27.620000 0.032820 0
27.625000 0.067590 0
27.630000 0.098926 0
27.635000 0.130164 0
27.640000 0.162293 0
27.645000 0.195186 0
27.650000 0.228272 0
27.655000 0.260802 0
27.660000 0.291948 0
27.665000 0.320847 0
27.670000 0.346642 0
27.675000 0.368527 0
27.680000 0.385784 0
27.685000 0.397823 0
27.690000 0.404216 0
27.695000 0.404719 5
27.700000 0.399287 0
27.705000 0.388078 0
27.710000 0.371446 0
27.715000 0.349917 0
27.720000 0.324167 0
27.725000 0.294980 0
27.730000 0.263213 0
27.735000 0.229750 0
27.740000 0.195464 0
27.745000 0.161180 0
27.750000 0.127641 0
27.755000 0.095490 0
27.760000 0.065246 0
27.765000 0.037305 0
27.770000 0.011935 0
27.775000 -0.010715 0
27.780000 -0.030603 0
27.785000 -0.047782 0
27.790000 -0.062376 0
27.795000 -0.074566 0
27.800000 -0.084569 0
27.805000 -0.092625 0
27.810000 -0.098982 0
27.815000 -0.103881 0
27.820000 -0.107554 0
27.825000 -0.110210 0
27.830000 -0.111639 0
27.835000 -0.110725 0
27.840000 -0.109816 0
27.845000 -0.108911 0
27.850000 -0.108010 0
27.855000 -0.107112 0
27.860000 -0.106216 0
27.865000 -0.105319 0
27.870000 -0.104416 0
27.875000 -0.103498 0
27.880000 -0.102548 0
27.885000 -0.101534 0
27.890000 -0.100409 0
27.895000 -0.099093 0
27.900000 -0.097464 0
27.905000 -0.095340 0
27.910000 -0.092470 0
27.915000 -0.088510 0
27.920000 -0.083026 0
27.925000 -0.075498 0
27.930000 -0.065347 0
27.935000 -0.051989 0
27.940000 -0.034912 0
27.945000 -0.013783 0
27.950000 0.011441 0
27.955000 0.040400 0
27.960000 0.072260 0
27.965000 0.105684 0
27.970000 0.138888 0
27.975000 0.169773 0
27.980000 0.196131 0
27.985000 0.215909 0
27.990000 0.227462 0
27.995000 0.229786 1
28.000000 0.222659 0
28.005000 0.206674 0
28.010000 0.183162 0
28.015000 0.153999 0
28.020000 0.121346 0
28.025000 0.087315 0
28.030000 0.053489 0
28.035000 0.020193 0
28.040000 -0.014483 0
28.045000 -0.055071 0
28.050000 -0.106701 0
28.055000 -0.169334 0
28.060000 -0.230708 0
28.065000 -0.264173 2
28.070000 -0.234780 0
28.075000 -0.109756 0
28.080000 0.129526 0
28.085000 0.468746 0
28.090000 0.838085 0
28.095000 1.115787 0
28.100000 1.184410 3
28.105000 1.009339 0
28.110000 0.662915 0
28.115000 0.269793 0
28.120000 -0.062809 0
28.125000 -0.279598 0
28.130000 -0.371286 4
28.135000 -0.358918 0
28.140000 -0.281984 0
28.145000 -0.184113 0
28.150000 -0.096831 0
28.155000 -0.031871 0
28.160000 0.014059 0
28.165000 0.049381 0
28.170000 0.080911 0
28.175000 0.112161 0
28.180000 0.144257 0
28.185000 0.177152 0
28.190000 0.210321 0
28.195000 0.243051 0
28.200000 0.274542 0
28.205000 0.303954 0
28.210000 0.330450 0
28.215000 0.353230 0
28.220000 0.371573 0
28.225000 0.384876 0
28.230000 0.392684 0
28.235000 0.394715 5
28.240000 0.390876 0
28.245000 0.381271 0
28.250000 0.366194 0
28.255000 0.346115 0
28.260000 0.321650 0
28.265000 0.293538 0
28.270000 0.262595 0
28.275000 0.229680 0
28.280000 0.195653 0
28.285000 0.161339 0
28.290000 0.127495 0
28.295000 0.094788 0
28.300000 0.063774 0
28.305000 0.034890 0
28.310000 0.008447 0
28.315000 -0.015359 0
28.320000 -0.036444 0
28.325000 -0.054817 0
28.330000 -0.070570 0
28.335000 -0.083854 0
28.340000 -0.094867 0
28.345000 -0.103833 0
28.350000 -0.110992 0
28.355000 -0.116582 0
28.360000 -0.120838 0
28.365000 -0.123974 0
28.370000 -0.126189 0
28.375000 -0.125667 0
28.380000 -0.124683 0
28.385000 -0.123704 0
28.390000 -0.122729 0
28.395000 -0.121759 0
28.400000 -0.120792 0
