0.000000 1.113962 3
0.005000 1.047436 0
0.010000 0.876520 0
0.015000 0.635602 0
0.020000 0.368095 0
0.025000 0.113540 0
0.030000 -0.100198 0
0.035000 -0.258376 0
0.040000 -0.357024 0
0.045000 -0.400000 4
0.050000 -0.396911 0
0.055000 -0.361331 0
0.060000 -0.308407 0
0.065000 -0.251895 0
0.070000 -0.201629 0
0.075000 -0.162494 0
0.080000 -0.135052 0
0.085000 -0.117206 0
0.090000 -0.105935 0
0.095000 -0.098477 0
0.100000 -0.092828 0
0.105000 -0.087746 0
0.110000 -0.082547 0
0.115000 -0.076874 0
0.120000 -0.070537 0
0.125000 -0.063419 0
0.130000 -0.055435 0
0.135000 -0.046509 0
0.140000 -0.036576 0
0.145000 -0.025579 0
0.150000 -0.013472 0
0.155000 -0.000222 0
0.160000 0.014191 0
0.165000 0.029764 0
0.170000 0.046475 0
0.175000 0.064279 0
0.180000 0.083104 0
0.185000 0.102852 0
0.190000 0.123397 0
0.195000 0.144585 0
0.200000 0.166236 0
0.205000 0.188142 0
0.210000 0.210075 0
0.215000 0.231786 0
0.220000 0.253010 0
0.225000 0.273472 0
0.230000 0.292894 0
0.235000 0.310996 0
0.240000 0.327509 0
0.245000 0.342176 0
0.250000 0.354761 0
0.255000 0.365057 0
0.260000 0.372887 0
0.265000 0.378113 0
0.270000 0.380638 5
0.275000 0.380408 0
0.280000 0.377416 0
0.285000 0.371701 0
0.290000 0.363346 0
0.295000 0.352477 0
0.300000 0.339262 0
0.305000 0.323901 0
0.310000 0.306626 0
0.315000 0.287694 0
0.320000 0.267377 0
0.325000 0.245961 0
0.330000 0.223734 0
0.335000 0.200983 0
0.340000 0.177989 0
0.345000 0.155016 0
0.350000 0.132311 0
0.355000 0.110100 0
0.360000 0.088583 0
0.365000 0.067930 0
0.370000 0.048287 0
0.375000 0.029766 0
0.380000 0.012454 0
0.385000 -0.003593 0
0.390000 -0.018341 0
0.395000 -0.031783 0
0.400000 -0.043931 0
0.405000 -0.054817 0
0.410000 -0.064487 0
0.415000 -0.073000 0
0.420000 -0.080423 0
0.425000 -0.086833 0
0.430000 -0.092307 0
0.435000 -0.096929 0
0.440000 -0.100778 0
0.445000 -0.103936 0
0.450000 -0.106478 0
0.455000 -0.108478 0
0.460000 -0.110004 0
0.465000 -0.111119 0
0.470000 -0.111880 0
0.475000 -0.112340 0
0.480000 -0.112545 0
0.485000 -0.112534 0
0.490000 -0.112346 0
0.495000 -0.112009 0
0.500000 -0.111551 0
0.505000 -0.110995 0
0.510000 -0.110359 0
0.515000 -0.109661 0
0.520000 -0.108912 0
0.525000 -0.108125 0
0.530000 -0.107308 0
0.535000 -0.106469 0
0.540000 -0.105612 0
0.545000 -0.104744 0
0.550000 -0.103863 0
0.555000 -0.102953 0
0.560000 -0.102047 0
0.565000 -0.101146 0
0.570000 -0.100250 0
0.575000 -0.099357 0
0.580000 -0.098470 0
0.585000 -0.097587 0
0.590000 -0.096708 0
0.595000 -0.095833 0
0.600000 -0.094963 0
0.605000 -0.094098 0
0.610000 -0.093236 0
0.615000 -0.092379 0
0.620000 -0.091526 0
0.625000 -0.090678 0
0.630000 -0.089834 0
0.635000 -0.088993 0
0.640000 -0.088158 0
0.645000 -0.087326 0
0.650000 -0.086498 0
0.655000 -0.085675 0
0.660000 -0.084855 0
0.665000 -0.084040 0
0.670000 -0.083229 0
0.675000 -0.082422 0
0.680000 -0.081618 0
0.685000 -0.080819 0
0.690000 -0.080024 0
0.695000 -0.079233 0
0.700000 -0.078445 0
0.705000 -0.077662 0
0.710000 -0.076882 0
0.715000 -0.076106 0
0.720000 -0.075332 0
0.725000 -0.074562 0
0.730000 -0.073794 0
0.735000 -0.073026 0
0.740000 -0.072257 0
0.745000 -0.071485 0
0.750000 -0.070705 0
0.755000 -0.069910 0
0.760000 -0.069091 0
0.765000 -0.068235 0
0.770000 -0.067323 0
0.775000 -0.066329 0
0.780000 -0.065218 0
0.785000 -0.063942 0
0.790000 -0.062441 0
0.795000 -0.060636 0
0.800000 -0.058432 0
0.805000 -0.055710 0
0.810000 -0.052332 0
0.815000 -0.048139 0
0.820000 -0.042956 0
0.825000 -0.036595 0
0.830000 -0.028865 0
0.835000 -0.019583 0
0.840000 -0.008590 0
0.845000 0.004236 0
0.850000 0.018958 0
0.855000 0.035563 0
0.860000 0.053946 0
0.865000 0.073896 0
0.870000 0.095092 0
0.875000 0.117094 0
0.880000 0.139361 0
0.885000 0.161264 0
0.890000 0.182110 0
0.895000 0.201183 0
0.900000 0.217778 0
0.905000 0.231247 0
0.910000 0.241038 0
0.915000 0.246734 0
0.920000 0.248084 1
0.925000 0.245014 0
0.930000 0.237643 0
0.935000 0.226267 0
0.940000 0.211340 0
0.945000 0.193449 0
0.950000 0.173271 0
0.955000 0.151529 0
0.960000 0.128955 0
0.965000 0.106246 0
0.970000 0.084028 0
0.975000 0.062837 0
0.980000 0.043094 0
0.985000 0.025096 0
0.990000 0.009000 0
0.995000 -0.005197 0
1.000000 -0.017716 0
1.005000 -0.029093 0
1.010000 -0.040309 0
1.015000 -0.052897 0
1.020000 -0.068876 0
1.025000 -0.090335 0
1.030000 -0.118549 0
1.035000 -0.152769 0
1.040000 -0.189113 0
1.045000 -0.220169 0
1.050000 -0.235636 2
1.055000 -0.223811 0
1.060000 -0.173340 0
1.065000 -0.074930 0
1.070000 0.076534 0
1.075000 0.278714 0
1.080000 0.517660 0
1.085000 0.765106 0
1.090000 0.980735 0
1.095000 1.121340 0
1.100000 1.154517 3
1.105000 1.070377 0
1.110000 0.885453 0
1.115000 0.636922 0
1.120000 0.368877 0
1.125000 0.119685 0
1.130000 -0.084847 0
1.135000 -0.232023 0
1.140000 -0.319524 0
1.145000 -0.352533 4
1.150000 -0.341735 0
1.155000 -0.301425 0
1.160000 -0.246888 0
1.165000 -0.191349 0
1.170000 -0.143657 0
1.175000 -0.107628 0
1.180000 -0.083025 0
1.185000 -0.067350 0
1.190000 -0.057527 0
1.195000 -0.050935 0
1.200000 -0.045761 0
1.205000 -0.040925 0
1.210000 -0.035845 0
1.215000 -0.030221 0
1.220000 -0.023888 0
1.225000 -0.016741 0
1.230000 -0.008697 0
1.235000 0.000317 0
1.240000 0.010365 0
1.245000 0.021501 0
1.250000 0.033768 0
1.255000 0.047195 0
1.260000 0.061794 0
1.265000 0.077558 0
1.270000 0.094455 0
1.275000 0.112430 0
1.280000 0.131401 0
1.285000 0.151258 0
1.290000 0.171864 0
1.295000 0.193052 0
1.300000 0.214629 0
1.305000 0.236377 0
1.310000 0.258055 0
1.315000 0.279403 0
1.320000 0.300151 0
1.325000 0.320015 0
1.330000 0.338714 0
1.335000 0.355969 0
1.340000 0.371510 0
1.345000 0.385087 0
1.350000 0.396473 0
1.355000 0.405471 0
1.360000 0.411921 0
1.365000 0.415700 0
1.370000 0.416731 5
1.375000 0.414982 0
1.380000 0.410468 0
1.385000 0.403251 0
1.390000 0.393436 0
1.395000 0.381174 0
1.400000 0.366650 0
1.405000 0.350086 0
1.410000 0.331728 0
1.415000 0.311848 0
1.420000 0.290727 0
1.425000 0.268658 0
1.430000 0.245934 0
1.435000 0.222840 0
1.440000 0.199652 0
1.445000 0.176630 0
1.450000 0.154011 0
1.455000 0.132008 0
1.460000 0.110809 0
1.465000 0.090569 0
1.470000 0.071416 0
1.475000 0.053449 0
1.480000 0.036736 0
1.485000 0.021321 0
1.490000 0.007219 0
1.495000 -0.005573 0
1.500000 -0.017081 0
1.505000 -0.027347 0
1.510000 -0.036426 0
1.515000 -0.044383 0
1.520000 -0.051294 0
1.525000 -0.057236 0
1.530000 -0.062293 0
1.535000 -0.066545 0
1.540000 -0.070076 0
1.545000 -0.072963 0
1.550000 -0.075282 0
1.555000 -0.077104 0
1.560000 -0.078493 0
1.565000 -0.079510 0
1.570000 -0.080209 0
1.575000 -0.080638 0
1.580000 -0.080839 0
1.585000 -0.080852 0
1.590000 -0.080707 0
1.595000 -0.080433 0
1.600000 -0.080054 0
1.605000 -0.079591 0
1.610000 -0.079059 0
1.615000 -0.078474 0
1.620000 -0.077847 0
1.625000 -0.077188 0
1.630000 -0.076503 0
1.635000 -0.075800 0
1.640000 -0.075084 0
1.645000 -0.074357 0
1.650000 -0.073600 0
1.655000 -0.072841 0
1.660000 -0.072086 0
1.665000 -0.071334 0
1.670000 -0.070586 0
1.675000 -0.069842 0
1.680000 -0.069102 0
1.685000 -0.068365 0
1.690000 -0.067632 0
1.695000 -0.066903 0
1.700000 -0.066177 0
1.705000 -0.065455 0
1.710000 -0.064736 0
1.715000 -0.064021 0
1.720000 -0.063310 0
1.725000 -0.062602 0
1.730000 -0.061898 0
1.735000 -0.061197 0
1.740000 -0.060500 0
1.745000 -0.059806 0
1.750000 -0.059115 0
1.755000 -0.058429 0
1.760000 -0.057745 0
1.765000 -0.057065 0
1.770000 -0.056388 0
1.775000 -0.055715 0
1.780000 -0.055045 0
1.785000 -0.054378 0
1.790000 -0.053715 0
1.795000 -0.053055 0
1.800000 -0.052398 0
1.805000 -0.051744 0
1.810000 -0.051093 0
1.815000 -0.050445 0
1.820000 -0.049798 0
1.825000 -0.049153 0
1.830000 -0.048508 0
1.835000 -0.047862 0
1.840000 -0.047211 0
1.845000 -0.046550 0
1.850000 -0.045874 0
1.855000 -0.045173 0
1.860000 -0.044432 0
1.865000 -0.043633 0
1.870000 -0.042747 0
1.875000 -0.041739 0
1.880000 -0.040559 0
1.885000 -0.039144 0
1.890000 -0.037413 0
1.895000 -0.035265 0
1.900000 -0.032580 0
1.905000 -0.029214 0
1.910000 -0.025004 0
1.915000 -0.019770 0
1.920000 -0.013321 0
1.925000 -0.005464 0
1.930000 0.003984 0
1.935000 0.015178 0
1.940000 0.028233 0
1.945000 0.043200 0
1.950000 0.060051 0
1.955000 0.078659 0
1.960000 0.098790 0
1.965000 0.120092 0
1.970000 0.142099 0
1.975000 0.164242 0
1.980000 0.185866 0
1.985000 0.206263 0
1.990000 0.224706 0
1.995000 0.240491 0
2.000000 0.252982 0
2.005000 0.261652 0
2.010000 0.266120 0
2.015000 0.266177 1
2.020000 0.261802 0
2.025000 0.253165 0
2.030000 0.240615 0
2.035000 0.224654 0
2.040000 0.205906 0
2.045000 0.185076 0
2.050000 0.162903 0
2.055000 0.140120 0
2.060000 0.117414 0
2.065000 0.095391 0
2.070000 0.074557 0
2.075000 0.055296 0
2.080000 0.037862 0
2.085000 0.022361 0
2.090000 0.008720 0
2.095000 -0.003388 0
2.100000 -0.014654 0
2.105000 -0.026276 0
2.110000 -0.040017 0
2.115000 -0.058022 0
2.120000 -0.082211 0
2.125000 -0.113208 0
2.130000 -0.149069 0
2.135000 -0.184383 0
2.140000 -0.210283 0
2.145000 -0.215527 2
2.150000 -0.188206 0
2.155000 -0.117522 0
2.160000 0.004374 0
2.165000 0.179756 0
2.170000 0.401407 0
2.175000 0.648628 0
2.180000 0.886395 0
2.185000 1.070976 0
2.190000 1.162105 3
2.195000 1.136850 0
2.200000 0.998485 0
2.205000 0.775848 0
2.210000 0.511876 0
2.215000 0.249483 0
2.220000 0.021302 0
2.225000 -0.153742 0
2.230000 -0.268774 0
2.235000 -0.325812 0
2.240000 -0.333324 4
2.245000 -0.304391 0
2.250000 -0.254401 0
2.255000 -0.198008 0
2.260000 -0.146278 0
2.265000 -0.105221 0
2.270000 -0.076141 0
2.275000 -0.057235 0
2.280000 -0.045467 0
2.285000 -0.037922 0
2.290000 -0.032430 0
2.295000 -0.027629 0
2.300000 -0.022765 0
2.305000 -0.017445 0
2.310000 -0.011465 0
2.315000 -0.004700 0
2.320000 0.002939 0
2.325000 0.011529 0
2.330000 0.021137 0
2.335000 0.031823 0
2.340000 0.043634 0
2.345000 0.056605 0
2.350000 0.070753 0
2.355000 0.086078 0
2.360000 0.102556 0
2.365000 0.120140 0
2.370000 0.138754 0
2.375000 0.158296 0
2.380000 0.178636 0
2.385000 0.199613 0
2.390000 0.221040 0
2.395000 0.242702 0
2.400000 0.264363 0
2.405000 0.285764 0
2.410000 0.306633 0
2.415000 0.326687 0
2.420000 0.345640 0
2.425000 0.363208 0
2.430000 0.379116 0
2.435000 0.393105 0
2.440000 0.404941 0
2.445000 0.414416 0
2.450000 0.421359 0
2.455000 0.425639 0
2.460000 0.427167 5
2.465000 0.425902 0
2.470000 0.421850 0
2.475000 0.415064 0
2.480000 0.405643 0
2.485000 0.393732 0
2.490000 0.379513 0
2.495000 0.363203 0
2.500000 0.345050 0
2.505000 0.325323 0
2.510000 0.304306 0
2.515000 0.282295 0
2.520000 0.259585 0
2.525000 0.236468 0
2.530000 0.213223 0
2.535000 0.190116 0
2.540000 0.167389 0
2.545000 0.145260 0
2.550000 0.123921 0
2.555000 0.103534 0
2.560000 0.084231 0
2.565000 0.066112 0
2.570000 0.049252 0
2.575000 0.033693 0
2.580000 0.019456 0
2.585000 0.006536 0
2.590000 -0.005091 0
2.595000 -0.015467 0
2.600000 -0.024645 0
2.605000 -0.032694 0
2.610000 -0.039688 0
2.615000 -0.045706 0
2.620000 -0.050831 0
2.625000 -0.055147 0
2.630000 -0.058735 0
2.635000 -0.061677 0
2.640000 -0.064048 0
2.645000 -0.065918 0
2.650000 -0.067355 0
2.655000 -0.068419 0
2.660000 -0.069164 0
2.665000 -0.069638 0
2.670000 -0.069886 0
2.675000 -0.069944 0
2.680000 -0.069846 0
2.685000 -0.069619 0
2.690000 -0.069288 0
2.695000 -0.068872 0
2.700000 -0.068390 0
2.705000 -0.067854 0
2.710000 -0.067276 0
2.715000 -0.066666 0
2.720000 -0.066032 0
2.725000 -0.065379 0
2.730000 -0.064712 0
2.735000 -0.064031 0
2.740000 -0.063320 0
2.745000 -0.062612 0
2.750000 -0.061907 0
2.755000 -0.061207 0
2.760000 -0.060509 0
2.765000 -0.059815 0
2.770000 -0.059125 0
2.775000 -0.058438 0
2.780000 -0.057754 0
2.785000 -0.057074 0
2.790000 -0.056398 0
2.795000 -0.055724 0
2.800000 -0.055054 0
2.805000 -0.054388 0
2.810000 -0.053724 0
2.815000 -0.053064 0
2.820000 -0.052408 0
2.825000 -0.051754 0
2.830000 -0.051104 0
2.835000 -0.050457 0
2.840000 -0.049813 0
2.845000 -0.049173 0
2.850000 -0.048535 0
2.855000 -0.047901 0
2.860000 -0.047270 0
2.865000 -0.046642 0
2.870000 -0.046018 0
2.875000 -0.045396 0
2.880000 -0.044777 0
2.885000 -0.044162 0
2.890000 -0.043549 0
2.895000 -0.042939 0
2.900000 -0.042332 0
2.905000 -0.041727 0
2.910000 -0.041124 0
2.915000 -0.040521 0
2.920000 -0.039918 0
2.925000 -0.039312 0
2.930000 -0.038700 0
2.935000 -0.038076 0
2.940000 -0.037433 0
2.945000 -0.036760 0
2.950000 -0.036041 0
2.955000 -0.035254 0
2.960000 -0.034367 0
2.965000 -0.033339 0
2.970000 -0.032116 0
2.975000 -0.030625 0
2.980000 -0.028779 0
2.985000 -0.026468 0
2.990000 -0.023558 0
2.995000 -0.019898 0
3.000000 -0.015313 0
3.005000 -0.009617 0
3.010000 -0.002614 0
3.015000 0.005888 0
3.020000 0.016065 0
3.025000 0.028057 0
3.030000 0.041953 0
3.035000 0.057771 0
3.040000 0.075438 0
3.045000 0.094775 0
3.050000 0.115489 0
3.055000 0.137168 0
3.060000 0.159288 0
3.065000 0.181227 0
3.070000 0.202291 0
3.075000 0.221750 0
3.080000 0.238873 0
3.085000 0.252981 0
3.090000 0.263481 0
3.095000 0.269914 0
3.100000 0.271986 1
3.105000 0.269586 0
3.110000 0.262800 0
3.115000 0.251901 0
3.120000 0.237331 0
3.125000 0.219674 0
3.130000 0.199612 0
3.135000 0.177884 0
3.140000 0.155239 0
3.145000 0.132394 0
3.150000 0.110001 0
3.155000 0.088613 0
3.160000 0.068670 0
3.165000 0.050482 0
3.170000 0.034216 0
3.175000 0.019872 0
3.180000 0.007227 0
3.185000 -0.004266 0
3.190000 -0.015622 0
3.195000 -0.028422 0
3.200000 -0.044746 0
3.205000 -0.066716 0
3.210000 -0.095545 0
3.215000 -0.130265 0
3.220000 -0.166599 0
3.225000 -0.196630 0
3.230000 -0.209575 2
3.235000 -0.193401 0
3.240000 -0.136663 0
3.245000 -0.030308 0
3.250000 0.129963 0
3.255000 0.340050 0
3.260000 0.583135 0
3.265000 0.827529 0
3.270000 1.030399 0
3.275000 1.148680 0
3.280000 1.153656 3
3.285000 1.041763 0
3.290000 0.836077 0
3.295000 0.577865 0
3.300000 0.311710 0
3.305000 0.073606 0
3.310000 -0.114171 0
3.315000 -0.242239 0
3.320000 -0.310941 0
3.325000 -0.327634 4
3.330000 -0.304761 0
3.335000 -0.257649 0
3.340000 -0.201511 0
3.345000 -0.148382 0
3.350000 -0.105289 0
3.355000 -0.074288 0
3.360000 -0.053951 0
3.365000 -0.041299 0
3.370000 -0.033304 0
3.375000 -0.027643 0
3.380000 -0.022830 0
3.385000 -0.018029 0
3.390000 -0.012808 0
3.395000 -0.006942 0
3.400000 -0.000299 0
3.405000 0.007214 0
3.410000 0.015677 0
3.415000 0.025158 0
3.420000 0.035717 0
3.425000 0.047405 0
3.430000 0.060258 0
3.435000 0.074295 0
3.440000 0.089517 0
3.445000 0.105902 0
3.450000 0.123402 0
3.455000 0.141945 0
3.460000 0.161428 0
3.465000 0.181719 0
3.470000 0.202659 0
3.475000 0.224058 0
3.480000 0.245700 0
3.485000 0.267346 0
3.490000 0.288734 0
3.495000 0.309591 0
3.500000 0.329629 0
3.505000 0.348559 0
3.510000 0.366093 0
3.515000 0.381954 0
3.520000 0.395880 0
3.525000 0.407633 0
3.530000 0.417006 0
3.535000 0.423827 0
3.540000 0.427964 0
3.545000 0.429331 5
3.550000 0.427887 0
3.555000 0.423641 0
3.560000 0.416651 0
3.565000 0.407021 0
3.570000 0.394898 0
3.575000 0.380470 0
3.580000 0.363962 0
3.585000 0.345625 0
3.590000 0.325733 0
3.595000 0.304576 0
3.600000 0.282452 0
3.605000 0.259662 0
3.610000 0.236497 0
3.615000 0.213240 0
3.620000 0.190156 0
3.625000 0.167487 0
3.630000 0.145450 0
3.635000 0.124235 0
3.640000 0.104001 0
3.645000 0.084875 0
3.650000 0.066955 0
3.655000 0.050310 0
3.660000 0.034980 0
3.665000 0.020980 0
3.670000 0.008301 0
3.675000 -0.003085 0
3.680000 -0.013222 0
3.685000 -0.022170 0
3.690000 -0.029998 0
3.695000 -0.036782 0
3.700000 -0.042604 0
3.705000 -0.047547 0
3.710000 -0.051698 0
3.715000 -0.055137 0
3.720000 -0.057946 0
3.725000 -0.060199 0
3.730000 -0.061968 0
3.735000 -0.063318 0
3.740000 -0.064308 0
3.745000 -0.064992 0
3.750000 -0.065417 0
3.755000 -0.065625 0
3.760000 -0.065654 0
3.765000 -0.065534 0
3.770000 -0.065293 0
3.775000 -0.064953 0
3.780000 -0.064535 0
3.785000 -0.064054 0
3.790000 -0.063523 0
3.795000 -0.062954 0
3.800000 -0.062355 0
3.805000 -0.061734 0
3.810000 -0.061096 0
3.815000 -0.060446 0
3.820000 -0.059782 0
3.825000 -0.059092 0
3.830000 -0.058405 0
3.835000 -0.057722 0
3.840000 -0.057042 0
3.845000 -0.056365 0
3.850000 -0.055692 0
3.855000 -0.055022 0
3.860000 -0.054356 0
3.865000 -0.053692 0
3.870000 -0.053033 0
3.875000 -0.052376 0
3.880000 -0.051723 0
3.885000 -0.051073 0
3.890000 -0.050426 0
3.895000 -0.049782 0
3.900000 -0.049142 0
3.905000 -0.048505 0
3.910000 -0.047871 0
3.915000 -0.047240 0
3.920000 -0.046612 0
3.925000 -0.045988 0
3.930000 -0.045366 0
3.935000 -0.044748 0
3.940000 -0.044133 0
3.945000 -0.043521 0
3.950000 -0.042911 0
3.955000 -0.042305 0
3.960000 -0.041702 0
3.965000 -0.041102 0
3.970000 -0.040505 0
3.975000 -0.039910 0
3.980000 -0.039318 0
3.985000 -0.038729 0
3.990000 -0.038141 0
3.995000 -0.037554 0
4.000000 -0.036967 0
4.005000 -0.036379 0
4.010000 -0.035785 0
4.015000 -0.035183 0
4.020000 -0.034564 0
4.025000 -0.033920 0
4.030000 -0.033236 0
4.035000 -0.032493 0
4.040000 -0.031661 0
4.045000 -0.030705 0
4.050000 -0.029573 0
4.055000 -0.028200 0
4.060000 -0.026502 0
4.065000 -0.024375 0
4.070000 -0.021693 0
4.075000 -0.018309 0
4.080000 -0.014054 0
4.085000 -0.008740 0
4.090000 -0.002173 0
4.095000 0.005844 0
4.100000 0.015496 0
4.105000 0.026938 0
4.110000 0.040276 0
4.115000 0.055551 0
4.120000 0.072716 0
4.125000 0.091621 0
4.130000 0.112001 0
4.135000 0.133471 0
4.140000 0.155526 0
4.145000 0.177562 0
4.150000 0.198892 0
4.155000 0.218780 0
4.160000 0.236485 0
4.165000 0.251303 0
4.170000 0.262611 0
4.175000 0.269914 0
4.180000 0.272876 1
4.185000 0.271348 0
4.190000 0.265375 0
4.195000 0.255201 0
4.200000 0.241242 0
4.205000 0.224066 0
4.210000 0.204349 0
4.215000 0.182831 0
4.220000 0.160272 0
4.225000 0.137406 0
4.230000 0.114903 0
4.235000 0.093340 0
4.240000 0.073176 0
4.245000 0.054745 0
4.250000 0.038234 0
4.255000 0.023666 0
4.260000 0.010845 0
4.265000 -0.000741 0
4.270000 -0.012063 0
4.275000 -0.024666 0
4.280000 -0.040619 0
4.285000 -0.062094 0
4.290000 -0.090435 0
4.295000 -0.124865 0
4.300000 -0.161305 0
4.305000 -0.191958 0
4.310000 -0.206042 2
4.315000 -0.191402 0
4.320000 -0.136397 0
4.325000 -0.031740 0
4.330000 0.127116 0
4.335000 0.336298 0
4.340000 0.579084 0
4.345000 0.823627 0
4.350000 1.026665 0
4.355000 1.144629 0
4.360000 1.148547 3
4.365000 1.035114 0
4.370000 0.828055 0
4.375000 0.569191 0
4.380000 0.303410 0
4.385000 0.066675 0
4.390000 -0.118992 0
4.395000 -0.244539 0
4.400000 -0.310651 0
4.405000 -0.325024 4
4.410000 -0.300418 0
4.415000 -0.252375 0
4.420000 -0.196130 0
4.425000 -0.143537 0
4.430000 -0.101320 0
4.435000 -0.071237 0
4.440000 -0.051658 0
4.445000 -0.039527 0
4.450000 -0.031832 0
4.455000 -0.026309 0
4.460000 -0.021530 0
4.465000 -0.016704 0
4.470000 -0.011425 0
4.475000 -0.005480 0
4.480000 0.001258 0
4.485000 0.008881 0
4.490000 0.017467 0
4.495000 0.027084 0
4.500000 0.037793 0
4.505000 0.049641 0
4.510000 0.062664 0
4.515000 0.076878 0
4.520000 0.092280 0
4.525000 0.108845 0
4.530000 0.126521 0
4.535000 0.145230 0
4.540000 0.164863 0
4.545000 0.185283 0
4.550000 0.206322 0
4.555000 0.227785 0
4.560000 0.249448 0
4.565000 0.271067 0
4.570000 0.292375 0
4.575000 0.313091 0
4.580000 0.332924 0
4.585000 0.351584 0
4.590000 0.368781 0
4.595000 0.384237 0
4.600000 0.397694 0
4.605000 0.408919 0
4.610000 0.417708 0
4.615000 0.423898 0
4.620000 0.427368 0
4.625000 0.428039 5
4.630000 0.425885 0
4.635000 0.420927 0
4.640000 0.413235 0
4.645000 0.402925 0
4.650000 0.390159 0
4.655000 0.375136 0
4.660000 0.358090 0
4.665000 0.339283 0
4.670000 0.318996 0
4.675000 0.297526 0
4.680000 0.275174 0
4.685000 0.252240 0
4.690000 0.229019 0
4.695000 0.205790 0
4.700000 0.182813 0
4.705000 0.160326 0
4.710000 0.138538 0
4.715000 0.117631 0
4.720000 0.097755 0
4.725000 0.079029 0
4.730000 0.061540 0
4.735000 0.045349 0
4.740000 0.030487 0
4.745000 0.016959 0
4.750000 0.004750 0
4.755000 -0.006174 0
4.760000 -0.015865 0
4.765000 -0.024387 0
4.770000 -0.031811 0
4.775000 -0.038219 0
4.780000 -0.043692 0
4.785000 -0.048317 0
4.790000 -0.052179 0
4.795000 -0.055359 0
4.800000 -0.057937 0
4.805000 -0.059987 0
4.810000 -0.061578 0
4.815000 -0.062774 0
4.820000 -0.063632 0
4.825000 -0.064204 0
4.830000 -0.064535 0
4.835000 -0.064665 0
4.840000 -0.064629 0
4.845000 -0.064456 0
4.850000 -0.064173 0
4.855000 -0.063800 0
4.860000 -0.063355 0
4.865000 -0.062854 0
4.870000 -0.062309 0
4.875000 -0.061729 0
4.880000 -0.061123 0
4.885000 -0.060498 0
4.890000 -0.059858 0
4.895000 -0.059208 0
4.900000 -0.058527 0
4.905000 -0.057843 0
4.910000 -0.057162 0
4.915000 -0.056485 0
4.920000 -0.055811 0
4.925000 -0.055141 0
4.930000 -0.054474 0
4.935000 -0.053810 0
4.940000 -0.053149 0
4.945000 -0.052492 0
4.950000 -0.051838 0
4.955000 -0.051188 0
4.960000 -0.050540 0
4.965000 -0.049896 0
4.970000 -0.049255 0
4.975000 -0.048618 0
4.980000 -0.047983 0
4.985000 -0.047352 0
4.990000 -0.046723 0
4.995000 -0.046098 0
5.000000 -0.045476 0
5.005000 -0.044857 0
5.010000 -0.044242 0
5.015000 -0.043629 0
5.020000 -0.043019 0
5.025000 -0.042413 0
5.030000 -0.041809 0
5.035000 -0.041208 0
5.040000 -0.040611 0
5.045000 -0.040016 0
5.050000 -0.039424 0
5.055000 -0.038834 0
5.060000 -0.038247 0
5.065000 -0.037663 0
5.070000 -0.037079 0
5.075000 -0.036496 0
5.080000 -0.035912 0
5.085000 -0.035323 0
5.090000 -0.034728 0
5.095000 -0.034118 0
5.100000 -0.033487 0
5.105000 -0.032821 0
5.110000 -0.032101 0
5.115000 -0.031304 0
5.120000 -0.030393 0
5.125000 -0.029322 0
5.130000 -0.028030 0
5.135000 -0.026438 0
5.140000 -0.024447 0
5.145000 -0.021937 0
5.150000 -0.018764 0
5.155000 -0.014764 0
5.160000 -0.009752 0
5.165000 -0.003533 0
5.170000 0.004093 0
5.175000 0.013316 0
5.180000 0.024302 0
5.185000 0.037172 0
5.190000 0.051986 0
5.195000 0.068718 0
5.200000 0.087244 0
5.205000 0.107322 0
5.210000 0.128592 0
5.215000 0.150570 0
5.220000 0.172666 0
5.225000 0.194202 0
5.230000 0.214443 0
5.235000 0.232638 0
5.240000 0.248066 0
5.245000 0.260080 0
5.250000 0.268151 0
5.255000 0.271911 1
5.260000 0.271172 0
5.265000 0.265946 0
5.270000 0.256445 0
5.275000 0.243064 0
5.280000 0.226352 0
5.285000 0.206976 0
5.290000 0.185678 0
5.295000 0.163224 0
5.300000 0.140360 0
5.305000 0.117774 0
5.310000 0.096060 0
5.315000 0.075701 0
5.320000 0.057048 0
5.325000 0.040309 0
5.330000 0.025529 0
5.335000 0.012538 0
5.340000 0.000859 0
5.345000 -0.010434 0
5.350000 -0.022841 0
5.355000 -0.038411 0
5.360000 -0.059356 0
5.365000 -0.087149 0
5.370000 -0.121223 0
5.375000 -0.157736 0
5.380000 -0.189077 0
5.385000 -0.204519 2
5.390000 -0.191831 0
5.395000 -0.139186 0
5.400000 -0.037043 0
5.405000 0.119485 0
5.410000 0.326944 0
5.415000 0.569024 0
5.420000 0.814094 0
5.425000 1.018721 0
5.430000 1.138786 0
5.435000 1.144627 3
5.440000 1.032491 0
5.445000 0.826062 0
5.450000 0.567356 0
5.455000 0.301583 0
5.460000 0.064968 0
5.465000 -0.120344 0
5.470000 -0.245306 0
5.475000 -0.310682 0
5.480000 -0.324298 4
5.485000 -0.299069 0
5.490000 -0.250671 0
5.495000 -0.194393 0
5.500000 -0.142049 0
5.505000 -0.100243 0
5.510000 -0.070599 0
5.515000 -0.051388 0
5.520000 -0.039514 0
5.525000 -0.031966 0
5.530000 -0.026507 0
5.535000 -0.021738 0
5.540000 -0.016892 0
5.545000 -0.011574 0
5.550000 -0.005577 0
5.555000 0.001222 0
5.560000 0.008916 0
5.565000 0.017581 0
5.570000 0.027287 0
5.575000 0.038092 0
5.580000 0.050045 0
5.585000 0.063178 0
5.590000 0.077508 0
5.595000 0.093030 0
5.600000 0.109714 0
5.605000 0.127507 0
5.610000 0.146327 0
5.615000 0.166060 0
5.620000 0.186566 0
5.625000 0.207672 0
5.630000 0.229178 0
5.635000 0.250857 0
5.640000 0.272457 0
5.645000 0.293710 0
5.650000 0.314330 0
5.655000 0.334025 0
5.660000 0.352501 0
5.665000 0.369467 0
5.670000 0.384648 0
5.675000 0.397785 0
5.680000 0.408647 0
5.685000 0.417038 0
5.690000 0.422797 0
5.695000 0.425810 0
5.700000 0.426007 5
5.705000 0.423368 0
5.710000 0.417924 0
5.715000 0.409754 0
5.720000 0.398984 0
5.725000 0.385783 0
5.730000 0.370360 0
5.735000 0.352955 0
5.740000 0.333837 0
5.745000 0.313293 0
5.750000 0.291623 0
5.755000 0.269130 0
5.760000 0.246117 0
5.765000 0.222876 0
5.770000 0.199686 0
5.775000 0.176804 0
5.780000 0.154463 0
5.785000 0.132868 0
5.790000 0.112194 0
5.795000 0.092585 0
5.800000 0.074154 0
5.805000 0.056982 0
5.810000 0.041122 0
5.815000 0.026598 0
5.820000 0.013412 0
5.825000 0.001542 0
5.830000 -0.009051 0
5.835000 -0.018423 0
5.840000 -0.026640 0
5.845000 -0.033778 0
5.850000 -0.039918 0
5.855000 -0.045144 0
5.860000 -0.049544 0
5.865000 -0.053200 0
5.870000 -0.056197 0
5.875000 -0.058612 0
5.880000 -0.060518 0
5.885000 -0.061983 0
5.890000 -0.063070 0
5.895000 -0.063835 0
5.900000 -0.064327 0
5.905000 -0.064590 0
5.910000 -0.064664 0
5.915000 -0.064581 0
5.920000 -0.064369 0
5.925000 -0.064054 0
5.930000 -0.063656 0
5.935000 -0.063190 0
5.940000 -0.062673 0
5.945000 -0.062115 0
5.950000 -0.061525 0
5.955000 -0.060912 0
5.960000 -0.060281 0
5.965000 -0.059637 0
5.970000 -0.058979 0
5.975000 -0.058292 0
5.980000 -0.057610 0
5.985000 -0.056930 0
5.990000 -0.056254 0
5.995000 -0.055582 0
6.000000 -0.054912 0
6.005000 -0.054246 0
6.010000 -0.053584 0
6.015000 -0.052924 0
6.020000 -0.052268 0
6.025000 -0.051616 0
6.030000 -0.050966 0
6.035000 -0.050320 0
6.040000 -0.049677 0
6.045000 -0.049037 0
6.050000 -0.048400 0
6.055000 -0.047767 0
6.060000 -0.047137 0
6.065000 -0.046509 0
6.070000 -0.045885 0
6.075000 -0.045264 0
6.080000 -0.044647 0
6.085000 -0.044032 0
6.090000 -0.043420 0
6.095000 -0.042812 0
6.100000 -0.042206 0
6.105000 -0.041603 0
6.110000 -0.041004 0
6.115000 -0.040407 0
6.120000 -0.039813 0
6.125000 -0.039222 0
6.130000 -0.038633 0
6.135000 -0.038047 0
6.140000 -0.037463 0
6.145000 -0.036879 0
6.150000 -0.036295 0
6.155000 -0.035709 0
6.160000 -0.035117 0
6.165000 -0.034515 0
6.170000 -0.033896 0
6.175000 -0.033248 0
6.180000 -0.032557 0
6.185000 -0.031800 0
6.190000 -0.030949 0
6.195000 -0.029961 0
6.200000 -0.028782 0
6.205000 -0.027343 0
6.210000 -0.025552 0
6.215000 -0.023300 0
6.220000 -0.020452 0
6.225000 -0.016852 0
6.230000 -0.012324 0
6.235000 -0.006675 0
6.240000 0.000297 0
6.245000 0.008788 0
6.250000 0.018980 0
6.255000 0.031015 0
6.260000 0.044984 0
6.265000 0.060901 0
6.270000 0.078686 0
6.275000 0.098146 0
6.280000 0.118969 0
6.285000 0.140721 0
6.290000 0.162850 0
6.295000 0.184705 0
6.300000 0.205567 0
6.305000 0.224679 0
6.310000 0.241299 0
6.315000 0.254739 0
6.320000 0.264415 0
6.325000 0.269888 0
6.330000 0.270895 1
6.335000 0.267372 0
6.340000 0.259456 0
6.345000 0.247476 0
6.350000 0.231931 0
6.355000 0.213455 0
6.360000 0.192773 0
6.365000 0.170651 0
6.370000 0.147854 0
6.375000 0.125100 0
6.380000 0.103023 0
6.385000 0.082150 0
6.390000 0.062883 0
6.395000 0.045483 0
6.400000 0.030053 0
6.405000 0.016504 0
6.410000 0.004471 0
6.415000 -0.006812 0
6.420000 -0.018660 0
6.425000 -0.032980 0
6.430000 -0.052018 0
6.435000 -0.077619 0
6.440000 -0.110000 0
6.445000 -0.146405 0
6.450000 -0.180310 0
6.455000 -0.201719 2
6.460000 -0.198564 0
6.465000 -0.158623 0
6.470000 -0.071415 0
6.475000 0.069633 0
6.480000 0.263875 0
6.485000 0.498914 0
6.490000 0.747119 0
6.495000 0.967190 0
6.500000 1.113447 0
6.505000 1.150734 3
6.510000 1.067821 0
6.515000 0.881965 0
6.520000 0.632103 0
6.525000 0.364221 0
6.530000 0.117761 0
6.535000 -0.081432 0
6.540000 -0.221314 0
6.545000 -0.300548 0
6.550000 -0.325486 4
6.555000 -0.308065 0
6.560000 -0.263639 0
6.565000 -0.207964 0
6.570000 -0.153938 0
6.575000 -0.109444 0
6.580000 -0.077137 0
6.585000 -0.055859 0
6.590000 -0.042649 0
6.595000 -0.034379 0
6.600000 -0.028611 0
6.605000 -0.023773 0
6.610000 -0.018979 0
6.615000 -0.013774 0
6.620000 -0.007923 0
6.625000 -0.001288 0
6.630000 0.006226 0
6.635000 0.014700 0
6.640000 0.024203 0
6.645000 0.034799 0
6.650000 0.046536 0
6.655000 0.059453 0
6.660000 0.073567 0
6.665000 0.088879 0
6.670000 0.105363 0
6.675000 0.122971 0
6.680000 0.141624 0
6.685000 0.161216 0
6.690000 0.181608 0
6.695000 0.202634 0
6.700000 0.224096 0
6.705000 0.245771 0
6.710000 0.267410 0
6.715000 0.288745 0
6.720000 0.309491 0
6.725000 0.329356 0
6.730000 0.348043 0
6.735000 0.365261 0
6.740000 0.380728 0
6.745000 0.394183 0
6.750000 0.405389 0
6.755000 0.414143 0
6.760000 0.420278 0
6.765000 0.423674 0
6.770000 0.424253 5
6.775000 0.421990 0
6.780000 0.416908 0
6.785000 0.409080 0
6.790000 0.398628 0
6.795000 0.385716 0
6.800000 0.370550 0
6.805000 0.353368 0
6.810000 0.334436 0
6.815000 0.314042 0
6.820000 0.292485 0
6.825000 0.270072 0
6.830000 0.247105 0
6.835000 0.223882 0
6.840000 0.200681 0
6.845000 0.177765 0
6.850000 0.155371 0
6.855000 0.133706 0
6.860000 0.112950 0
6.865000 0.093250 0
6.870000 0.074722 0
6.875000 0.057451 0
6.880000 0.041491 0
6.885000 0.026869 0
6.890000 0.013589 0
6.895000 0.001630 0
6.900000 -0.009046 0
6.905000 -0.018494 0
6.910000 -0.026779 0
6.915000 -0.033977 0
6.920000 -0.040170 0
6.925000 -0.045444 0
6.930000 -0.049883 0
6.935000 -0.053573 0
6.940000 -0.056598 0
6.945000 -0.059035 0
6.950000 -0.060960 0
6.955000 -0.062440 0
6.960000 -0.063539 0
6.965000 -0.064312 0
6.970000 -0.064810 0
6.975000 -0.065078 0
6.980000 -0.065154 0
6.985000 -0.065072 0
6.990000 -0.064861 0
6.995000 -0.064546 0
7.000000 -0.064146 0
7.005000 -0.063680 0
7.010000 -0.063161 0
7.015000 -0.062601 0
7.020000 -0.062009 0
7.025000 -0.061393 0
7.030000 -0.060760 0
7.035000 -0.060114 0
7.040000 -0.059453 0
7.045000 -0.058764 0
7.050000 -0.058079 0
7.055000 -0.057397 0
7.060000 -0.056719 0
7.065000 -0.056044 0
7.070000 -0.055373 0
7.075000 -0.054704 0
7.080000 -0.054039 0
7.085000 -0.053378 0
7.090000 -0.052720 0
7.095000 -0.052065 0
7.100000 -0.051413 0
7.105000 -0.050764 0
7.110000 -0.050119 0
7.115000 -0.049477 0
7.120000 -0.048838 0
7.125000 -0.048203 0
7.130000 -0.047570 0
7.135000 -0.046941 0
7.140000 -0.046315 0
7.145000 -0.045691 0
7.150000 -0.045072 0
7.155000 -0.044455 0
7.160000 -0.043841 0
7.165000 -0.043230 0
7.170000 -0.042622 0
7.175000 -0.042018 0
7.180000 -0.041416 0
7.185000 -0.040817 0
7.190000 -0.040221 0
7.195000 -0.039628 0
7.200000 -0.039038 0
7.205000 -0.038449 0
7.210000 -0.037862 0
7.215000 -0.037277 0
7.220000 -0.036690 0
7.225000 -0.036102 0
7.230000 -0.035507 0
7.235000 -0.034901 0
7.240000 -0.034277 0
7.245000 -0.033624 0
7.250000 -0.032925 0
7.255000 -0.032158 0
7.260000 -0.031292 0
7.265000 -0.030284 0
7.270000 -0.029078 0
7.275000 -0.027602 0
7.280000 -0.025762 0
7.285000 -0.023444 0
7.290000 -0.020512 0
7.295000 -0.016806 0
7.300000 -0.012146 0
7.305000 -0.006336 0
7.310000 0.000825 0
7.315000 0.009534 0
7.320000 0.019970 0
7.325000 0.032270 0
7.330000 0.046516 0
7.335000 0.062709 0
7.340000 0.080753 0
7.345000 0.100440 0
7.350000 0.121437 0
7.355000 0.143288 0
7.360000 0.165423 0
7.365000 0.187176 0
7.370000 0.207814 0
7.375000 0.226578 0
7.380000 0.242726 0
7.385000 0.255581 0
7.390000 0.264578 0
7.395000 0.269305 0
7.400000 0.269529 1
7.405000 0.265222 0
7.410000 0.256555 0
7.415000 0.243893 0
7.420000 0.227765 0
7.425000 0.208827 0
7.430000 0.187819 0
7.435000 0.165515 0
7.440000 0.142676 0
7.445000 0.120011 0
7.450000 0.098138 0
7.455000 0.077562 0
7.460000 0.058660 0
7.465000 0.041664 0
7.470000 0.026642 0
7.475000 0.013455 0
7.480000 0.001664 0
7.485000 -0.009607 0
7.490000 -0.021811 0
7.495000 -0.036973 0
7.500000 -0.057345 0
7.505000 -0.084536 0
7.510000 -0.118200 0
7.515000 -0.154747 0
7.520000 -0.186746 0
7.525000 -0.203515 2
7.530000 -0.192718 0
7.535000 -0.142315 0
7.540000 -0.042489 0
7.545000 0.111974 0
7.550000 0.317978 0
7.555000 0.559493 0
7.560000 0.804904 0
7.565000 1.010431 0
7.570000 1.131356 0
7.575000 1.137498 3
7.580000 1.025071 0
7.585000 0.818176 0
7.590000 0.559206 0
7.595000 0.293660 0
7.600000 0.057850 0
7.605000 -0.126174 0
7.610000 -0.249544 0
7.615000 -0.313239 0
7.620000 -0.325323 4
7.625000 -0.298941 0
7.630000 -0.249930 0
7.635000 -0.193607 0
7.640000 -0.141659 0
7.645000 -0.100478 0
7.650000 -0.071476 0
7.655000 -0.052786 0
7.660000 -0.041258 0
7.665000 -0.033900 0
7.670000 -0.028515 0
7.675000 -0.023749 0
7.680000 -0.018865 0
7.685000 -0.013485 0
7.690000 -0.007410 0
7.695000 -0.000521 0
7.700000 0.007273 0
7.705000 0.016049 0
7.710000 0.025877 0
7.715000 0.036814 0
7.720000 0.048907 0
7.725000 0.062188 0
7.730000 0.076672 0
7.735000 0.092349 0
7.740000 0.109188 0
7.745000 0.127132 0
7.750000 0.146093 0
7.755000 0.165955 0
7.760000 0.186570 0
7.765000 0.207762 0
7.770000 0.229323 0
7.775000 0.251022 0
7.780000 0.272603 0
7.785000 0.293791 0
7.790000 0.314297 0
7.795000 0.333826 0
7.800000 0.352082 0
7.805000 0.368775 0
7.810000 0.383627 0
7.815000 0.396385 0
7.820000 0.406821 0
7.825000 0.414742 0
7.830000 0.419997 0
7.835000 0.422477 5
7.840000 0.422123 0
7.845000 0.418924 0
7.850000 0.412922 0
7.855000 0.404207 0
7.860000 0.392913 0
7.865000 0.379222 0
7.870000 0.363350 0
7.875000 0.345548 0
7.880000 0.326090 0
7.885000 0.305269 0
7.890000 0.283389 0
7.895000 0.260757 0
7.900000 0.237675 0
7.905000 0.214435 0
7.910000 0.191312 0
7.915000 0.168561 0
7.920000 0.146408 0
7.925000 0.125053 0
7.930000 0.104663 0
7.935000 0.085377 0
7.940000 0.067297 0
7.945000 0.050498 0
7.950000 0.035026 0
7.955000 0.020898 0
7.960000 0.008107 0
7.965000 -0.003372 0
7.970000 -0.013586 0
7.975000 -0.022592 0
7.980000 -0.030461 0
7.985000 -0.037272 0
7.990000 -0.043108 0
7.995000 -0.048055 0
8.000000 -0.052199 0
8.005000 -0.055625 0
8.010000 -0.058414 0
8.015000 -0.060645 0
8.020000 -0.062388 0
8.025000 -0.063711 0
8.030000 -0.064674 0
8.035000 -0.065332 0
8.040000 -0.065732 0
8.045000 -0.065917 0
8.050000 -0.065924 0
8.055000 -0.065785 0
8.060000 -0.065527 0
8.065000 -0.065172 0
8.070000 -0.064740 0
8.075000 -0.064248 0
8.080000 -0.063707 0
8.085000 -0.063130 0
8.090000 -0.062524 0
8.095000 -0.061897 0
8.100000 -0.061254 0
8.105000 -0.060600 0
8.110000 -0.059911 0
8.115000 -0.059221 0
8.120000 -0.058533 0
8.125000 -0.057849 0
8.130000 -0.057169 0
8.135000 -0.056491 0
8.140000 -0.055817 0
8.145000 -0.055147 0
8.150000 -0.054480 0
8.155000 -0.053816 0
8.160000 -0.053156 0
8.165000 -0.052498 0
8.170000 -0.051845 0
8.175000 -0.051194 0
8.180000 -0.050547 0
8.185000 -0.049902 0
8.190000 -0.049261 0
8.195000 -0.048624 0
8.200000 -0.047989 0
8.205000 -0.047358 0
8.210000 -0.046729 0
8.215000 -0.046104 0
8.220000 -0.045482 0
8.225000 -0.044863 0
8.230000 -0.044247 0
8.235000 -0.043635 0
8.240000 -0.043025 0
8.245000 -0.042418 0
8.250000 -0.041815 0
8.255000 -0.041214 0
8.260000 -0.040616 0
8.265000 -0.040020 0
8.270000 -0.039428 0
8.275000 -0.038837 0
8.280000 -0.038247 0
8.285000 -0.037658 0
8.290000 -0.037068 0
8.295000 -0.036474 0
8.300000 -0.035872 0
8.305000 -0.035256 0
8.310000 -0.034617 0
8.315000 -0.033941 0
8.320000 -0.033211 0
8.325000 -0.032399 0
8.330000 -0.031470 0
8.335000 -0.030374 0
8.340000 -0.029049 0
8.345000 -0.027411 0
8.350000 -0.025358 0
8.355000 -0.022765 0
8.360000 -0.019484 0
8.365000 -0.015344 0
8.370000 -0.010158 0
8.375000 -0.003723 0
8.380000 0.004160 0
8.385000 0.013683 0
8.390000 0.025008 0
8.395000 0.038247 0
8.400000 0.053447 0
8.405000 0.070563 0
8.410000 0.089447 0
8.415000 0.109827 0
8.420000 0.131312 0
8.425000 0.153385 0
8.430000 0.175423 0
8.435000 0.196723 0
8.440000 0.216530 0
8.445000 0.234086 0
8.450000 0.248674 0
8.455000 0.259665 0
8.460000 0.266564 0
8.465000 0.269046 1
8.470000 0.266980 0
8.475000 0.260438 0
8.480000 0.249692 0
8.485000 0.235196 0
8.490000 0.217551 0
8.495000 0.197463 0
8.500000 0.175697 0
8.505000 0.153029 0
8.510000 0.130200 0
8.515000 0.107877 0
8.520000 0.086625 0
8.525000 0.066884 0
8.530000 0.048959 0
8.535000 0.033000 0
8.540000 0.018976 0
8.545000 0.006603 0
8.550000 -0.004769 0
8.555000 -0.016309 0
8.560000 -0.029796 0
8.565000 -0.047455 0
8.570000 -0.071343 0
8.575000 -0.102209 0
8.580000 -0.138103 0
8.585000 -0.173368 0
8.590000 -0.198656 0
8.595000 -0.202125 2
8.600000 -0.171325 0
8.605000 -0.095142 0
8.610000 0.034135 0
8.615000 0.217766 0
8.620000 0.446127 0
8.625000 0.694645 0
8.630000 0.924004 0
8.635000 1.087975 0
8.640000 1.147845 3
8.645000 1.087061 0
8.650000 0.917933 0
8.655000 0.676470 0
8.660000 0.408632 0
8.665000 0.155932 0
8.670000 -0.053049 0
8.675000 -0.203918 0
8.680000 -0.293660 0
8.685000 -0.327442 4
8.690000 -0.316385 0
8.695000 -0.275477 0
8.700000 -0.220692 0
8.705000 -0.165658 0
8.710000 -0.119212 0
8.715000 -0.084840 0
8.720000 -0.061886 0
8.725000 -0.047551 0
8.730000 -0.038645 0
8.735000 -0.032583 0
8.740000 -0.027653 0
8.745000 -0.022876 0
8.750000 -0.017740 0
8.755000 -0.011985 0
8.760000 -0.005464 0
8.765000 0.001924 0
8.770000 0.010262 0
8.775000 0.019620 0
8.780000 0.030064 0
8.785000 0.041644 0
8.790000 0.054400 0
8.795000 0.068354 0
8.800000 0.083509 0
8.805000 0.099843 0
8.810000 0.117311 0
8.815000 0.135839 0
8.820000 0.155323 0
8.825000 0.175630 0
8.830000 0.196596 0
8.835000 0.218027 0
8.840000 0.239703 0
8.845000 0.261378 0
8.850000 0.282784 0
8.855000 0.303639 0
8.860000 0.323650 0
8.865000 0.342519 0
8.870000 0.359952 0
8.875000 0.375668 0
8.880000 0.389399 0
8.885000 0.400905 0
8.890000 0.409979 0
8.895000 0.416448 0
8.900000 0.420185 0
8.905000 0.421109 5
8.910000 0.419186 0
8.915000 0.414435 0
8.920000 0.406925 0
8.925000 0.396770 0
8.930000 0.384132 0
8.935000 0.369212 0
8.940000 0.352247 0
8.945000 0.333500 0
8.950000 0.313258 0
8.955000 0.291820 0
8.960000 0.269494 0
8.965000 0.246583 0
8.970000 0.223385 0
8.975000 0.200185 0
8.980000 0.177245 0
8.985000 0.154805 0
8.990000 0.133078 0
8.995000 0.112246 0
9.000000 0.092459 0
9.005000 0.073837 0
9.010000 0.056466 0
9.015000 0.040405 0
9.020000 0.025683 0
9.025000 0.012304 0
9.030000 0.000251 0
9.035000 -0.010515 0
9.040000 -0.020045 0
9.045000 -0.028406 0
9.050000 -0.035672 0
9.055000 -0.041926 0
9.060000 -0.047252 0
9.065000 -0.051737 0
9.070000 -0.055467 0
9.075000 -0.058524 0
9.080000 -0.060988 0
9.085000 -0.062934 0
9.090000 -0.064430 0
9.095000 -0.065541 0
9.100000 -0.066322 0
9.105000 -0.066825 0
9.110000 -0.067095 0
9.115000 -0.067171 0
9.120000 -0.067088 0
9.125000 -0.066873 0
9.130000 -0.066553 0
9.135000 -0.066147 0
9.140000 -0.065674 0
9.145000 -0.065147 0
9.150000 -0.064579 0
9.155000 -0.063979 0
9.160000 -0.063355 0
9.165000 -0.062713 0
9.170000 -0.062057 0
9.175000 -0.061387 0
9.180000 -0.060689 0
9.185000 -0.059994 0
9.190000 -0.059303 0
9.195000 -0.058615 0
9.200000 -0.057931 0
9.205000 -0.057250 0
9.210000 -0.056572 0
9.215000 -0.055898 0
9.220000 -0.055227 0
9.225000 -0.054559 0
9.230000 -0.053895 0
9.235000 -0.053234 0
9.240000 -0.052577 0
9.245000 -0.051922 0
9.250000 -0.051271 0
9.255000 -0.050624 0
9.260000 -0.049979 0
9.265000 -0.049338 0
9.270000 -0.048700 0
9.275000 -0.048065 0
9.280000 -0.047433 0
9.285000 -0.046804 0
9.290000 -0.046179 0
9.295000 -0.045556 0
9.300000 -0.044937 0
9.305000 -0.044321 0
9.310000 -0.043708 0
9.315000 -0.043097 0
9.320000 -0.042490 0
9.325000 -0.041886 0
9.330000 -0.041285 0
9.335000 -0.040686 0
9.340000 -0.040089 0
9.345000 -0.039494 0
9.350000 -0.038900 0
9.355000 -0.038306 0
9.360000 -0.037709 0
9.365000 -0.037106 0
9.370000 -0.036492 0
9.375000 -0.035860 0
9.380000 -0.035198 0
9.385000 -0.034490 0
9.390000 -0.033714 0
9.395000 -0.032838 0
9.400000 -0.031818 0
9.405000 -0.030600 0
9.410000 -0.029107 0
9.415000 -0.027249 0
9.420000 -0.024909 0
9.425000 -0.021950 0
9.430000 -0.018210 0
9.435000 -0.013509 0
9.440000 -0.007651 0
9.445000 -0.000433 0
9.450000 0.008342 0
9.455000 0.018852 0
9.460000 0.031233 0
9.465000 0.045564 0
9.470000 0.061843 0
9.475000 0.079970 0
9.480000 0.099730 0
9.485000 0.120784 0
9.490000 0.142670 0
9.495000 0.164811 0
9.500000 0.186534 0
9.505000 0.207105 0
9.510000 0.225759 0
9.515000 0.241756 0
9.520000 0.254422 0
9.525000 0.263198 0
9.530000 0.267679 1
9.535000 0.267644 0
9.540000 0.263076 0
9.545000 0.254159 0
9.550000 0.241270 0
9.555000 0.224949 0
9.560000 0.205859 0
9.565000 0.184748 0
9.570000 0.162391 0
9.575000 0.139550 0
9.580000 0.116929 0
9.585000 0.095142 0
9.590000 0.074687 0
9.595000 0.055930 0
9.600000 0.039092 0
9.605000 0.024228 0
9.610000 0.011180 0
9.615000 -0.000523 0
9.620000 -0.011802 0
9.625000 -0.024163 0
9.630000 -0.039677 0
9.635000 -0.060589 0
9.640000 -0.088397 0
9.645000 -0.122514 0
9.650000 -0.159005 0
9.655000 -0.190081 0
9.660000 -0.204799 2
9.665000 -0.190732 0
9.670000 -0.135939 0
9.675000 -0.030900 0
9.680000 0.128989 0
9.685000 0.339541 0
9.690000 0.583162 0
9.695000 0.826620 0
9.700000 1.025276 0
9.705000 1.135082 3
9.710000 1.128164 0
9.715000 1.004011 0
9.720000 0.789407 0
9.725000 0.527702 0
9.730000 0.263795 0
9.735000 0.032541 0
9.740000 -0.145534 0
9.745000 -0.262734 0
9.750000 -0.320849 0
9.755000 -0.328512 4
9.760000 -0.299218 0
9.765000 -0.248866 0
9.770000 -0.192510 0
9.775000 -0.141355 0
9.780000 -0.101275 0
9.785000 -0.073294 0
9.790000 -0.055356 0
9.795000 -0.044287 0
9.800000 -0.037155 0
9.805000 -0.031846 0
9.810000 -0.027074 0
9.815000 -0.022141 0
9.820000 -0.016691 0
9.825000 -0.010537 0
9.830000 -0.003561 0
9.835000 0.004325 0
9.840000 0.013198 0
9.845000 0.023125 0
9.850000 0.034164 0
9.855000 0.046361 0
9.860000 0.059746 0
9.865000 0.074332 0
9.870000 0.090108 0
9.875000 0.107042 0
9.880000 0.125074 0
9.885000 0.144115 0
9.890000 0.164046 0
9.895000 0.184720 0
9.900000 0.205956 0
9.905000 0.227549 0
9.910000 0.249263 0
9.915000 0.270844 0
9.920000 0.292015 0
9.925000 0.312489 0
9.930000 0.331971 0
9.935000 0.350164 0
9.940000 0.366781 0
9.945000 0.381546 0
9.950000 0.394206 0
9.955000 0.404537 0
9.960000 0.412347 0
9.965000 0.417489 0
9.970000 0.419855 5
9.975000 0.419388 0
9.980000 0.416082 0
9.985000 0.409978 0
9.990000 0.401168 0
9.995000 0.389790 0
10.000000 0.376025 0
10.005000 0.360091 0
10.010000 0.342239 0
10.015000 0.322742 0
10.020000 0.301895 0
10.025000 0.280000 0
10.030000 0.257363 0
10.035000 0.234286 0
10.040000 0.211059 0
10.045000 0.187957 0
10.050000 0.165231 0
10.055000 0.143110 0
10.060000 0.121789 0
10.065000 0.101437 0
10.070000 0.082188 0
10.075000 0.064147 0
10.080000 0.047387 0
10.085000 0.031952 0
10.090000 0.017859 0
10.095000 0.005103 0
10.100000 -0.006345 0
10.105000 -0.016529 0
10.110000 -0.025508 0
10.115000 -0.033352 0
10.120000 -0.040140 0
10.125000 -0.045955 0
10.130000 -0.050882 0
10.135000 -0.055008 0
10.140000 -0.058418 0
10.145000 -0.061191 0
10.150000 -0.063407 0
10.155000 -0.065137 0
10.160000 -0.066447 0
10.165000 -0.067397 0
10.170000 -0.068042 0
10.175000 -0.068429 0
10.180000 -0.068602 0
10.185000 -0.068597 0
10.190000 -0.068446 0
10.195000 -0.068175 0
10.200000 -0.067808 0
10.205000 -0.067364 0
10.210000 -0.066859 0
10.215000 -0.066306 0
10.220000 -0.065716 0
10.225000 -0.065098 0
10.230000 -0.064458 0
10.235000 -0.063803 0
10.240000 -0.063136 0
10.245000 -0.062436 0
10.250000 -0.061732 0
10.255000 -0.061032 0
10.260000 -0.060336 0
10.265000 -0.059643 0
10.270000 -0.058953 0
10.275000 -0.058267 0
10.280000 -0.057584 0
10.285000 -0.056905 0
10.290000 -0.056229 0
10.295000 -0.055557 0
10.300000 -0.054888 0
10.305000 -0.054222 0
10.310000 -0.053559 0
10.315000 -0.052900 0
10.320000 -0.052244 0
10.325000 -0.051591 0
10.330000 -0.050942 0
10.335000 -0.050296 0
10.340000 -0.049653 0
10.345000 -0.049013 0
10.350000 -0.048377 0
10.355000 -0.047743 0
10.360000 -0.047113 0
10.365000 -0.046486 0
10.370000 -0.045862 0
10.375000 -0.045241 0
10.380000 -0.044624 0
10.385000 -0.044009 0
10.390000 -0.043397 0
10.395000 -0.042788 0
10.400000 -0.042182 0
10.405000 -0.041579 0
10.410000 -0.040977 0
10.415000 -0.040377 0
10.420000 -0.039778 0
10.425000 -0.039177 0
10.430000 -0.038573 0
10.435000 -0.037961 0
10.440000 -0.037336 0
10.445000 -0.036689 0
10.450000 -0.036007 0
10.455000 -0.035271 0
10.460000 -0.034457 0
10.465000 -0.033528 0
10.470000 -0.032437 0
10.475000 -0.031122 0
10.480000 -0.029503 0
10.485000 -0.027478 0
10.490000 -0.024924 0
10.495000 -0.021697 0
10.500000 -0.017626 0
10.505000 -0.012527 0
10.510000 -0.006199 0
10.515000 0.001560 0
10.520000 0.010940 0
10.525000 0.022106 0
10.530000 0.035177 0
10.535000 0.050205 0
10.540000 0.067155 0
10.545000 0.085889 0
10.550000 0.106150 0
10.555000 0.127556 0
10.560000 0.149605 0
10.565000 0.171686 0
10.570000 0.193101 0
10.575000 0.213103 0
10.580000 0.230934 0
10.585000 0.245870 0
10.590000 0.257274 0
10.595000 0.264636 0
10.600000 0.267613 1
10.605000 0.266050 0
10.610000 0.259999 0
10.615000 0.249711 0
10.620000 0.235618 0
10.625000 0.218305 0
10.630000 0.198468 0
10.635000 0.176864 0
10.640000 0.154270 0
10.645000 0.131431 0
10.650000 0.109023 0
10.655000 0.087622 0
10.660000 0.067684 0
10.665000 0.049530 0
10.670000 0.033330 0
10.675000 0.019079 0
10.680000 0.006531 0
10.685000 -0.004909 0
10.690000 -0.016332 0
10.695000 -0.029434 0
10.700000 -0.046401 0
10.705000 -0.069362 0
10.710000 -0.099320 0
10.715000 -0.134766 0
10.720000 -0.170588 0
10.725000 -0.197919 0
10.730000 -0.205184 2
10.735000 -0.179930 0
10.740000 -0.110766 0
10.745000 0.010636 0
10.750000 0.186700 0
10.755000 0.409694 0
10.760000 0.657415 0
10.765000 0.892512 0
10.770000 1.069088 0
10.775000 1.146380 3
10.780000 1.103841 0
10.785000 0.949618 0
10.790000 0.716666 0
10.795000 0.450038 0
10.800000 0.192401 0
10.805000 -0.025492 0
10.810000 -0.187094 0
10.815000 -0.287683 0
10.820000 -0.331105 4
10.825000 -0.327440 0
10.830000 -0.291014 0
10.835000 -0.237742 0
10.840000 -0.181838 0
10.845000 -0.133136 0
10.850000 -0.096136 0
10.855000 -0.070896 0
10.860000 -0.054927 0
10.865000 -0.045038 0
10.870000 -0.038486 0
10.875000 -0.033381 0
10.880000 -0.028604 0
10.885000 -0.023562 0
10.890000 -0.017953 0
10.895000 -0.011611 0
10.900000 -0.004429 0
10.905000 0.003677 0
10.910000 0.012783 0
10.915000 0.022952 0
10.920000 0.034241 0
10.925000 0.046691 0
10.930000 0.060330 0
10.935000 0.075164 0
10.940000 0.091182 0
10.945000 0.108343 0
10.950000 0.126584 0
10.955000 0.145811 0
10.960000 0.165900 0
10.965000 0.186698 0
10.970000 0.208023 0
10.975000 0.229662 0
10.980000 0.251381 0
10.985000 0.272920 0
10.990000 0.294004 0
10.995000 0.314344 0
11.000000 0.333647 0
11.005000 0.351620 0
11.010000 0.367976 0
11.015000 0.382447 0
11.020000 0.394784 0
11.025000 0.404769 0
11.030000 0.412218 0
11.035000 0.416987 0
11.040000 0.418979 5
11.045000 0.418144 0
11.050000 0.414480 0
11.055000 0.408036 0
11.060000 0.398909 0
11.065000 0.387241 0
11.070000 0.373217 0
11.075000 0.357059 0
11.080000 0.339017 0
11.085000 0.319368 0
11.090000 0.298404 0
11.095000 0.276426 0
11.100000 0.253740 0
11.105000 0.230644 0
11.110000 0.207425 0
11.115000 0.184354 0
11.120000 0.161680 0
11.125000 0.139625 0
11.130000 0.118385 0
11.135000 0.098122 0
11.140000 0.078968 0
11.145000 0.061024 0
11.150000 0.044362 0
11.155000 0.029022 0
11.160000 0.015022 0
11.165000 0.002352 0
11.170000 -0.009014 0
11.175000 -0.019124 0
11.180000 -0.028035 0
11.185000 -0.035819 0
11.190000 -0.042552 0
11.195000 -0.048320 0
11.200000 -0.053205 0
11.205000 -0.057295 0
11.210000 -0.060673 0
11.215000 -0.063420 0
11.220000 -0.065612 0
11.225000 -0.067321 0
11.230000 -0.068613 0
11.235000 -0.069548 0
11.240000 -0.070179 0
11.245000 -0.070554 0
11.250000 -0.070715 0
11.255000 -0.070698 0
11.260000 -0.070536 0
11.265000 -0.070256 0
11.270000 -0.069879 0
11.275000 -0.069425 0
11.280000 -0.068911 0
11.285000 -0.068348 0
11.290000 -0.067749 0
11.295000 -0.067121 0
11.300000 -0.066472 0
11.305000 -0.065807 0
11.310000 -0.065131 0
11.315000 -0.064420 0
11.320000 -0.063707 0
11.325000 -0.062997 0
11.330000 -0.062291 0
11.335000 -0.061588 0
11.340000 -0.060889 0
11.345000 -0.060193 0
11.350000 -0.059501 0
11.355000 -0.058812 0
11.360000 -0.058126 0
11.365000 -0.057444 0
11.370000 -0.056766 0
11.375000 -0.056091 0
11.380000 -0.055419 0
11.385000 -0.054750 0
11.390000 -0.054085 0
11.395000 -0.053423 0
11.400000 -0.052765 0
11.405000 -0.052110 0
11.410000 -0.051458 0
11.415000 -0.050809 0
11.420000 -0.050164 0
11.425000 -0.049521 0
11.430000 -0.048882 0
11.435000 -0.048246 0
11.440000 -0.047614 0
11.445000 -0.046984 0
11.450000 -0.046358 0
11.455000 -0.045734 0
11.460000 -0.045114 0
11.465000 -0.044496 0
11.470000 -0.043882 0
11.475000 -0.043270 0
11.480000 -0.042660 0
11.485000 -0.042052 0
11.490000 -0.041445 0
11.495000 -0.040837 0
11.500000 -0.040225 0
11.505000 -0.039607 0
11.510000 -0.038977 0
11.515000 -0.038326 0
11.520000 -0.037643 0
11.525000 -0.036910 0
11.530000 -0.036103 0
11.535000 -0.035189 0
11.540000 -0.034123 0
11.545000 -0.032845 0
11.550000 -0.031279 0
11.555000 -0.029328 0
11.560000 -0.026875 0
11.565000 -0.023779 0
11.570000 -0.019876 0
11.575000 -0.014983 0
11.580000 -0.008905 0
11.585000 -0.001441 0
11.590000 0.007603 0
11.595000 0.018397 0
11.600000 0.031070 0
11.605000 0.045690 0
11.610000 0.062242 0
11.615000 0.080611 0
11.620000 0.100568 0
11.625000 0.121762 0
11.630000 0.143720 0
11.635000 0.165856 0
11.640000 0.187496 0
11.645000 0.207904 0
11.650000 0.226324 0
11.655000 0.242026 0
11.660000 0.254352 0
11.665000 0.262759 0
11.670000 0.266862 1
11.675000 0.266459 0
11.680000 0.261549 0
11.685000 0.252332 0
11.690000 0.239193 0
11.695000 0.222677 0
11.700000 0.203450 0
11.705000 0.182254 0
11.710000 0.159860 0
11.715000 0.137021 0
11.720000 0.114432 0
11.725000 0.092696 0
11.730000 0.072303 0
11.735000 0.053610 0
11.740000 0.036833 0
11.745000 0.022021 0
11.750000 0.009011 0
11.755000 -0.002669 0
11.760000 -0.013939 0
11.765000 -0.026298 0
11.770000 -0.041803 0
11.775000 -0.062677 0
11.780000 -0.090415 0
11.785000 -0.124460 0
11.790000 -0.160955 0
11.795000 -0.192239 0
11.800000 -0.207515 2
11.805000 -0.194473 0
11.810000 -0.141231 0
11.815000 -0.038231 0
11.820000 0.119341 0
11.825000 0.327802 0
11.830000 0.570420 0
11.835000 0.815002 0
11.840000 1.017656 0
11.845000 1.134227 0
11.850000 1.135623 3
11.855000 1.019590 0
11.860000 0.810909 0
11.865000 0.551508 0
11.870000 0.286046 0
11.875000 0.050130 0
11.880000 -0.134543 0
11.885000 -0.259136 0
11.890000 -0.324450 0
11.895000 -0.338237 4
11.900000 -0.313259 0
11.905000 -0.265024 0
11.910000 -0.208703 0
11.915000 -0.156083 0
11.920000 -0.113842 0
11.925000 -0.083714 0
11.930000 -0.064073 0
11.935000 -0.051871 0
11.940000 -0.044104 0
11.945000 -0.038513 0
11.950000 -0.033672 0
11.955000 -0.028788 0
11.960000 -0.023455 0
11.965000 -0.017458 0
11.970000 -0.010672 0
11.975000 -0.003003 0
11.980000 0.005625 0
11.985000 0.015281 0
11.990000 0.026026 0
11.995000 0.037907 0
12.000000 0.050960 0
12.005000 0.065201 0
12.010000 0.080629 0
12.015000 0.097219 0
12.020000 0.114919 0
12.025000 0.133652 0
12.030000 0.153312 0
12.035000 0.173762 0
12.040000 0.194836 0
12.045000 0.216340 0
12.050000 0.238053 0
12.055000 0.259731 0
12.060000 0.281110 0
12.065000 0.301909 0
12.070000 0.321841 0
12.075000 0.340613 0
12.080000 0.357938 0
12.085000 0.373538 0
12.090000 0.387154 0
12.095000 0.398553 0
12.100000 0.407530 0
12.105000 0.413921 0
12.110000 0.417599 0
12.115000 0.418488 5
12.120000 0.416556 0
12.125000 0.411821 0
12.130000 0.404351 0
12.135000 0.394258 0
12.140000 0.381700 0
12.145000 0.366874 0
12.150000 0.350011 0
12.155000 0.331370 0
12.160000 0.311230 0
12.165000 0.289886 0
12.170000 0.267638 0
12.175000 0.244787 0
12.180000 0.221625 0
12.185000 0.198433 0
12.190000 0.175472 0
12.195000 0.152980 0
12.200000 0.131170 0
12.205000 0.110224 0
12.210000 0.090295 0
12.215000 0.071504 0
12.220000 0.053943 0
12.225000 0.037672 0
12.230000 0.022725 0
12.235000 0.009111 0
12.240000 -0.003183 0
12.245000 -0.014191 0
12.250000 -0.023962 0
12.255000 -0.032558 0
12.260000 -0.040051 0
12.265000 -0.046520 0
12.270000 -0.052048 0
12.275000 -0.056719 0
12.280000 -0.060619 0
12.285000 -0.063829 0
12.290000 -0.066429 0
12.295000 -0.068494 0
12.300000 -0.070094 0
12.305000 -0.071291 0
12.310000 -0.072145 0
12.315000 -0.072707 0
12.320000 -0.073023 0
12.325000 -0.073134 0
12.330000 -0.073076 0
12.335000 -0.072877 0
12.340000 -0.072566 0
12.345000 -0.072162 0
12.350000 -0.071685 0
12.355000 -0.071150 0
12.360000 -0.070569 0
12.365000 -0.069953 0
12.370000 -0.069310 0
12.375000 -0.068646 0
12.380000 -0.067968 0
12.385000 -0.067279 0
12.390000 -0.066558 0
12.395000 -0.065834 0
12.400000 -0.065113 0
12.405000 -0.064396 0
12.410000 -0.063683 0
12.415000 -0.062974 0
12.420000 -0.062267 0
12.425000 -0.061565 0
12.430000 -0.060866 0
12.435000 -0.060170 0
12.440000 -0.059478 0
12.445000 -0.058789 0
12.450000 -0.058104 0
12.455000 -0.057422 0
12.460000 -0.056744 0
12.465000 -0.056068 0
12.470000 -0.055397 0
12.475000 -0.054728 0
12.480000 -0.054063 0
12.485000 -0.053402 0
12.490000 -0.052743 0
12.495000 -0.052088 0
12.500000 -0.051436 0
12.505000 -0.050788 0
12.510000 -0.050142 0
12.515000 -0.049500 0
12.520000 -0.048861 0
12.525000 -0.048225 0
12.530000 -0.047593 0
12.535000 -0.046963 0
12.540000 -0.046336 0
12.545000 -0.045713 0
12.550000 -0.045091 0
12.555000 -0.044473 0
12.560000 -0.043856 0
12.565000 -0.043239 0
12.570000 -0.042622 0
12.575000 -0.042002 0
12.580000 -0.041376 0
12.585000 -0.040738 0
12.590000 -0.040080 0
12.595000 -0.039390 0
12.600000 -0.038652 0
12.605000 -0.037842 0
12.610000 -0.036928 0
12.615000 -0.035866 0
12.620000 -0.034598 0
12.625000 -0.033051 0
12.630000 -0.031129 0
12.635000 -0.028718 0
12.640000 -0.025681 0
12.645000 -0.021858 0
12.650000 -0.017069 0
12.655000 -0.011122 0
12.660000 -0.003817 0
12.665000 0.005039 0
12.670000 0.015618 0
12.675000 0.028055 0
12.680000 0.042424 0
12.685000 0.058723 0
12.690000 0.076853 0
12.695000 0.096604 0
12.700000 0.117644 0
12.705000 0.139524 0
12.710000 0.161678 0
12.715000 0.183452 0
12.720000 0.204122 0
12.725000 0.222942 0
12.730000 0.239180 0
12.735000 0.252167 0
12.740000 0.261342 0
12.745000 0.266292 0
12.750000 0.266780 1
12.755000 0.262767 0
12.760000 0.254410 0
12.765000 0.242055 0
12.770000 0.226213 0
12.775000 0.207520 0
12.780000 0.186701 0
12.785000 0.164515 0
12.790000 0.141718 0
12.795000 0.119015 0
12.800000 0.097026 0
12.805000 0.076267 0
12.810000 0.057125 0
12.815000 0.039850 0
12.820000 0.024536 0
12.825000 0.011085 0
12.830000 -0.000879 0
12.835000 -0.012131 0
12.840000 -0.023992 0
12.845000 -0.038362 0
12.850000 -0.057469 0
12.855000 -0.083123 0
12.860000 -0.115515 0
12.865000 -0.151897 0
12.870000 -0.185807 0
12.875000 -0.207362 2
12.880000 -0.204627 0
12.885000 -0.165490 0
12.890000 -0.079524 0
12.895000 0.059908 0
12.900000 0.252444 0
12.905000 0.486301 0
12.910000 0.734746 0
12.915000 0.957361 0
12.920000 1.108807 0
12.925000 1.153291 3
12.930000 1.078610 0
12.935000 0.900144 0
12.940000 0.654521 0
12.945000 0.386476 0
12.950000 0.135574 0
12.955000 -0.071259 0
12.960000 -0.220590 0
12.965000 -0.309737 0
12.970000 -0.343777 4
12.975000 -0.333468 0
12.980000 -0.293295 0
12.985000 -0.238778 0
12.990000 -0.183333 0
12.995000 -0.135887 0
13.000000 -0.100225 0
13.005000 -0.076019 0
13.010000 -0.060689 0
13.015000 -0.051117 0
13.020000 -0.044680 0
13.025000 -0.039584 0
13.030000 -0.034774 0
13.035000 -0.029686 0
13.040000 -0.024032 0
13.045000 -0.017651 0
13.050000 -0.010440 0
13.055000 -0.002315 0
13.060000 0.006795 0
13.065000 0.016955 0
13.070000 0.028219 0
13.075000 0.040629 0
13.080000 0.054212 0
13.085000 0.068976 0
13.090000 0.084912 0
13.095000 0.101982 0
13.100000 0.120127 0
13.105000 0.139258 0
13.110000 0.159258 0
13.115000 0.179981 0
13.120000 0.201253 0
13.125000 0.222871 0
13.130000 0.244609 0
13.135000 0.266216 0
13.140000 0.287427 0
13.145000 0.307962 0
13.150000 0.327535 0
13.155000 0.345857 0
13.160000 0.362648 0
13.165000 0.377639 0
13.170000 0.390581 0
13.175000 0.401254 0
13.180000 0.409466 0
13.185000 0.415067 0
13.190000 0.417947 0
13.195000 0.418041 5
13.200000 0.415333 0
13.205000 0.409854 0
13.210000 0.401684 0
13.215000 0.390945 0
13.220000 0.377804 0
13.225000 0.362464 0
13.230000 0.345160 0
13.235000 0.326153 0
13.240000 0.305723 0
13.245000 0.284163 0
13.250000 0.261770 0
13.255000 0.238838 0
13.260000 0.215656 0
13.265000 0.192495 0
13.270000 0.169611 0
13.275000 0.147234 0
13.280000 0.125568 0
13.285000 0.104789 0
13.290000 0.085042 0
13.295000 0.066442 0
13.300000 0.049075 0
13.305000 0.032996 0
13.310000 0.018236 0
13.315000 0.004800 0
13.320000 -0.007329 0
13.325000 -0.018184 0
13.330000 -0.027816 0
13.335000 -0.036287 0
13.340000 -0.043670 0
13.345000 -0.050042 0
13.350000 -0.055485 0
13.355000 -0.060084 0
13.360000 -0.063922 0
13.365000 -0.067080 0
13.370000 -0.069636 0
13.375000 -0.071664 0
13.380000 -0.073232 0
13.385000 -0.074402 0
13.390000 -0.075233 0
13.395000 -0.075775 0
13.400000 -0.076074 0
13.405000 -0.076169 0
13.410000 -0.076096 0
13.415000 -0.075884 0
13.420000 -0.075558 0
13.425000 -0.075142 0
13.430000 -0.074652 0
13.435000 -0.074104 0
13.440000 -0.073510 0
13.445000 -0.072881 0
13.450000 -0.072225 0
13.455000 -0.071548 0
13.460000 -0.070857 0
13.465000 -0.070154 0
13.470000 -0.069418 0
13.475000 -0.068680 0
13.480000 -0.067946 0
13.485000 -0.067215 0
13.490000 -0.066487 0
13.495000 -0.065764 0
13.500000 -0.065044 0
13.505000 -0.064327 0
13.510000 -0.063614 0
13.515000 -0.062905 0
13.520000 -0.062199 0
13.525000 -0.061497 0
13.530000 -0.060798 0
13.535000 -0.060103 0
13.540000 -0.059411 0
13.545000 -0.058722 0
13.550000 -0.058038 0
13.555000 -0.057356 0
13.560000 -0.056678 0
13.565000 -0.056003 0
13.570000 -0.055332 0
13.575000 -0.054664 0
13.580000 -0.053999 0
13.585000 -0.053338 0
13.590000 -0.052679 0
13.595000 -0.052025 0
13.600000 -0.051373 0
13.605000 -0.050725 0
13.610000 -0.050080 0
13.615000 -0.049438 0
13.620000 -0.048799 0
13.625000 -0.048163 0
13.630000 -0.047530 0
13.635000 -0.046899 0
13.640000 -0.046270 0
13.645000 -0.045643 0
13.650000 -0.045015 0
13.655000 -0.044386 0
13.660000 -0.043751 0
13.665000 -0.043107 0
13.670000 -0.042446 0
13.675000 -0.041758 0
13.680000 -0.041030 0
13.685000 -0.040239 0
13.690000 -0.039358 0
13.695000 -0.038348 0
13.700000 -0.037158 0
13.705000 -0.035720 0
13.710000 -0.033951 0
13.715000 -0.031745 0
13.720000 -0.028976 0
13.725000 -0.025495 0
13.730000 -0.021132 0
13.735000 -0.015703 0
13.740000 -0.009011 0
13.745000 -0.000863 0
13.750000 0.008923 0
13.755000 0.020499 0
13.760000 0.033968 0
13.765000 0.049366 0
13.770000 0.066642 0
13.775000 0.085643 0
13.780000 0.106101 0
13.785000 0.127630 0
13.790000 0.149726 0
13.795000 0.171785 0
13.800000 0.193124 0
13.805000 0.213014 0
13.810000 0.230719 0
13.815000 0.245539 0
13.820000 0.256860 0
13.825000 0.264188 0
13.830000 0.267192 1
13.835000 0.265722 0
13.840000 0.259823 0
13.845000 0.249734 0
13.850000 0.235866 0
13.855000 0.218781 0
13.860000 0.199148 0
13.865000 0.177701 0
13.870000 0.155194 0
13.875000 0.132356 0
13.880000 0.109856 0
13.885000 0.088270 0
13.890000 0.068061 0
13.895000 0.049565 0
13.900000 0.032976 0
13.905000 0.018327 0
13.910000 0.005438 0
13.915000 -0.006175 0
13.920000 -0.017440 0
13.925000 -0.029850 0
13.930000 -0.045430 0
13.935000 -0.066352 0
13.940000 -0.094067 0
13.945000 -0.128034 0
13.950000 -0.164530 0
13.955000 -0.196146 0
13.960000 -0.212404 2
13.965000 -0.201292 0
13.970000 -0.151115 0
13.975000 -0.052310 0
13.980000 0.100322 0
13.985000 0.304128 0
13.990000 0.544232 0
13.995000 0.790817 0
14.000000 1.001899 0
14.005000 1.133439 0
14.010000 1.153920 3
14.015000 1.057009 0
14.020000 0.862825 0
14.025000 0.609945 0
14.030000 0.342275 0
14.035000 0.096922 0
14.040000 -0.101851 0
14.045000 -0.242648 0
14.050000 -0.324073 0
14.055000 -0.351955 4
14.060000 -0.337428 0
14.065000 -0.294990 0
14.070000 -0.239819 0
14.075000 -0.184753 0
14.080000 -0.138120 0
14.085000 -0.103268 0
14.090000 -0.079656 0
14.095000 -0.064672 0
14.100000 -0.055258 0
14.105000 -0.048869 0
14.110000 -0.043769 0
14.115000 -0.038937 0
14.120000 -0.033826 0
14.125000 -0.028153 0
14.130000 -0.021761 0
14.135000 -0.014549 0
14.140000 -0.006433 0
14.145000 0.002656 0
14.150000 0.012783 0
14.155000 0.024001 0
14.160000 0.036351 0
14.165000 0.049862 0
14.170000 0.064544 0
14.175000 0.080386 0
14.180000 0.097358 0
14.185000 0.115401 0
14.190000 0.134432 0
14.195000 0.154339 0
14.200000 0.174984 0
14.205000 0.196197 0
14.210000 0.217784 0
14.215000 0.239526 0
14.220000 0.261182 0
14.225000 0.282491 0
14.230000 0.303183 0
14.235000 0.322975 0
14.240000 0.341586 0
14.245000 0.358737 0
14.250000 0.374161 0
14.255000 0.387610 0
14.260000 0.398858 0
14.265000 0.407712 0
14.270000 0.414013 0
14.275000 0.417640 0
14.280000 0.418521 5
14.285000 0.416624 0
14.290000 0.411967 0
14.295000 0.404615 0
14.300000 0.394674 0
14.305000 0.382296 0
14.310000 0.367669 0
14.315000 0.351014 0
14.320000 0.332579 0
14.325000 0.312635 0
14.330000 0.291463 0
14.335000 0.269356 0
14.340000 0.246605 0
14.345000 0.223495 0
14.350000 0.200302 0
14.355000 0.177283 0
14.360000 0.154673 0
14.365000 0.132686 0
14.370000 0.111507 0
14.375000 0.091290 0
14.380000 0.072162 0
14.385000 0.054221 0
14.390000 0.037535 0
14.395000 0.022145 0
14.400000 0.008069 0
14.405000 -0.004701 0
14.410000 -0.016189 0
14.415000 -0.026437 0
14.420000 -0.035500 0
14.425000 -0.043444 0
14.430000 -0.050344 0
14.435000 -0.056278 0
14.440000 -0.061328 0
14.445000 -0.065576 0
14.450000 -0.069104 0
14.455000 -0.071990 0
14.460000 -0.074310 0
14.465000 -0.076133 0
14.470000 -0.077524 0
14.475000 -0.078544 0
14.480000 -0.079247 0
14.485000 -0.079680 0
14.490000 -0.079886 0
14.495000 -0.079902 0
14.500000 -0.079762 0
14.505000 -0.079494 0
14.510000 -0.079120 0
14.515000 -0.078661 0
14.520000 -0.078135 0
14.525000 -0.077555 0
14.530000 -0.076933 0
14.535000 -0.076278 0
14.540000 -0.075598 0
14.545000 -0.074900 0
14.550000 -0.074188 0
14.555000 -0.073466 0
14.560000 -0.072714 0
14.565000 -0.071959 0
14.570000 -0.071208 0
14.575000 -0.070461 0
14.580000 -0.069717 0
14.585000 -0.068977 0
14.590000 -0.068241 0
14.595000 -0.067509 0
14.600000 -0.066780 0
14.605000 -0.066055 0
14.610000 -0.065334 0
14.615000 -0.064616 0
14.620000 -0.063901 0
14.625000 -0.063191 0
14.630000 -0.062483 0
14.635000 -0.061780 0
14.640000 -0.061079 0
14.645000 -0.060383 0
14.650000 -0.059689 0
14.655000 -0.059000 0
14.660000 -0.058313 0
14.665000 -0.057630 0
14.670000 -0.056951 0
14.675000 -0.056275 0
14.680000 -0.055602 0
14.685000 -0.054933 0
14.690000 -0.054267 0
14.695000 -0.053604 0
14.700000 -0.052944 0
14.705000 -0.052288 0
14.710000 -0.051635 0
14.715000 -0.050985 0
14.720000 -0.050338 0
14.725000 -0.049693 0
14.730000 -0.049051 0
14.735000 -0.048409 0
14.740000 -0.047768 0
14.745000 -0.047126 0
14.750000 -0.046479 0
14.755000 -0.045823 0
14.760000 -0.045152 0
14.765000 -0.044457 0
14.770000 -0.043723 0
14.775000 -0.042932 0
14.780000 -0.042057 0
14.785000 -0.041062 0
14.790000 -0.039899 0
14.795000 -0.038507 0
14.800000 -0.036805 0
14.805000 -0.034695 0
14.810000 -0.032057 0
14.815000 -0.028751 0
14.820000 -0.024615 0
14.825000 -0.019470 0
14.830000 -0.013127 0
14.835000 -0.005392 0
14.840000 0.003918 0
14.845000 0.014961 0
14.850000 0.027855 0
14.855000 0.042658 0
14.860000 0.059348 0
14.865000 0.077808 0
14.870000 0.097813 0
14.875000 0.119024 0
14.880000 0.140986 0
14.885000 0.163138 0
14.890000 0.184835 0
14.895000 0.205373 0
14.900000 0.224026 0
14.905000 0.240089 0
14.910000 0.252919 0
14.915000 0.261978 0
14.920000 0.266870 0
14.925000 0.267369 1
14.930000 0.263435 0
14.935000 0.255218 0
14.940000 0.243048 0
14.945000 0.227413 0
14.950000 0.208924 0
14.955000 0.188278 0
14.960000 0.166210 0
14.965000 0.143455 0
14.970000 0.120705 0
14.975000 0.098575 0
14.980000 0.077580 0
14.985000 0.058120 0
14.990000 0.040463 0
14.995000 0.024733 0
15.000000 0.010881 0
15.005000 -0.001385 0
15.010000 -0.012703 0
15.015000 -0.024202 0
15.020000 -0.037574 0
15.025000 -0.054936 0
15.030000 -0.078282 0
15.035000 -0.108464 0
15.040000 -0.143932 0
15.045000 -0.179750 0
15.050000 -0.207474 0
15.055000 -0.216105 2
15.060000 -0.193748 0
15.065000 -0.129384 0
15.070000 -0.014665 0
15.075000 0.153628 0
15.080000 0.369838 0
15.085000 0.615313 0
15.090000 0.856918 0
15.095000 1.051621 0
15.100000 1.157882 3
15.105000 1.150584 0
15.110000 1.029553 0
15.115000 0.819256 0
15.120000 0.559857 0
15.125000 0.293925 0
15.130000 0.055705 0
15.135000 -0.133451 0
15.140000 -0.264306 0
15.145000 -0.336831 0
15.150000 -0.357674 4
15.155000 -0.338384 0
15.160000 -0.293461 0
15.165000 -0.237675 0
15.170000 -0.183188 0
15.175000 -0.137633 0
15.180000 -0.103845 0
15.185000 -0.081029 0
15.190000 -0.066530 0
15.195000 -0.057359 0
15.200000 -0.051062 0
15.205000 -0.045979 0
15.210000 -0.041133 0
15.215000 -0.036000 0
15.220000 -0.030305 0
15.225000 -0.023899 0
15.230000 -0.016679 0
15.235000 -0.008565 0
15.240000 0.000511 0
15.245000 0.010614 0
15.250000 0.021794 0
15.255000 0.034095 0
15.260000 0.047543 0
15.265000 0.062150 0
15.270000 0.077909 0
15.275000 0.094788 0
15.280000 0.112735 0
15.285000 0.131669 0
15.290000 0.151484 0
15.295000 0.172046 0
15.300000 0.193194 0
15.305000 0.214740 0
15.310000 0.236472 0
15.315000 0.258157 0
15.320000 0.279542 0
15.325000 0.300363 0
15.330000 0.320343 0
15.335000 0.339207 0
15.340000 0.356680 0
15.345000 0.372497 0
15.350000 0.386409 0
15.355000 0.398191 0
15.360000 0.407643 0
15.365000 0.414602 0
15.370000 0.418939 0
15.375000 0.420570 5
15.380000 0.419454 0
15.385000 0.415594 0
15.390000 0.409040 0
15.395000 0.399885 0
15.400000 0.388264 0
15.405000 0.374351 0
15.410000 0.358353 0
15.415000 0.340505 0
15.420000 0.321065 0
15.425000 0.300308 0
15.430000 0.278516 0
15.435000 0.255978 0
15.440000 0.232975 0
15.445000 0.209783 0
15.450000 0.186662 0
15.455000 0.163853 0
15.460000 0.141574 0
15.465000 0.120019 0
15.470000 0.099353 0
15.475000 0.079714 0
15.480000 0.061209 0
15.485000 0.043920 0
15.490000 0.027898 0
15.495000 0.013173 0
15.500000 -0.000251 0
15.505000 -0.012389 0
15.510000 -0.023275 0
15.515000 -0.032956 0
15.520000 -0.041492 0
15.525000 -0.048951 0
15.530000 -0.055410 0
15.535000 -0.060946 0
15.540000 -0.065640 0
15.545000 -0.069573 0
15.550000 -0.072825 0
15.555000 -0.075470 0
15.560000 -0.077581 0
15.565000 -0.079224 0
15.570000 -0.080463 0
15.575000 -0.081353 0
15.580000 -0.081946 0
15.585000 -0.082287 0
15.590000 -0.082415 0
15.595000 -0.082367 0
15.600000 -0.082173 0
15.605000 -0.081858 0
15.610000 -0.081446 0
15.615000 -0.080955 0
15.620000 -0.080401 0
15.625000 -0.079797 0
15.630000 -0.079154 0
15.635000 -0.078481 0
15.640000 -0.077785 0
15.645000 -0.077072 0
15.650000 -0.076346 0
15.655000 -0.075606 0
15.660000 -0.074837 0
15.665000 -0.074071 0
15.670000 -0.073310 0
15.675000 -0.072552 0
15.680000 -0.071798 0
15.685000 -0.071048 0
15.690000 -0.070302 0
15.695000 -0.069559 0
15.700000 -0.068820 0
15.705000 -0.068085 0
15.710000 -0.067353 0
15.715000 -0.066625 0
15.720000 -0.065901 0
15.725000 -0.065180 0
15.730000 -0.064463 0
15.735000 -0.063749 0
15.740000 -0.063039 0
15.745000 -0.062333 0
15.750000 -0.061630 0
15.755000 -0.060930 0
15.760000 -0.060234 0
15.765000 -0.059542 0
15.770000 -0.058853 0
15.775000 -0.058167 0
15.780000 -0.057485 0
15.785000 -0.056806 0
15.790000 -0.056131 0
15.795000 -0.055459 0
15.800000 -0.054790 0
15.805000 -0.054124 0
15.810000 -0.053462 0
15.815000 -0.052803 0
15.820000 -0.052147 0
15.825000 -0.051493 0
15.830000 -0.050842 0
15.835000 -0.050192 0
15.840000 -0.049543 0
15.845000 -0.048892 0
15.850000 -0.048238 0
15.855000 -0.047576 0
15.860000 -0.046900 0
15.865000 -0.046202 0
15.870000 -0.045470 0
15.875000 -0.044685 0
15.880000 -0.043823 0
15.885000 -0.042852 0
15.890000 -0.041727 0
15.895000 -0.040391 0
15.900000 -0.038770 0
15.905000 -0.036773 0
15.910000 -0.034288 0
15.915000 -0.031182 0
15.920000 -0.027303 0
15.925000 -0.022480 0
15.930000 -0.016528 0
15.935000 -0.009259 0
15.940000 -0.000488 0
15.945000 0.009951 0
15.950000 0.022187 0
15.955000 0.036302 0
15.960000 0.052303 0
15.965000 0.070113 0
15.970000 0.089552 0
15.975000 0.110332 0
15.980000 0.132049 0
15.985000 0.154194 0
15.990000 0.176167 0
15.995000 0.197296 0
16.000000 0.216875 0
16.005000 0.234197 0
16.010000 0.248598 0
16.015000 0.259497 0
16.020000 0.266435 0
16.025000 0.269108 1
16.030000 0.267384 0
16.035000 0.261320 0
16.040000 0.251150 0
16.045000 0.237277 0
16.050000 0.220239 0
16.055000 0.200683 0
16.060000 0.179313 0
16.065000 0.156857 0
16.070000 0.134022 0
16.075000 0.111458 0
16.080000 0.089732 0
16.085000 0.069305 0
16.090000 0.050518 0
16.095000 0.033583 0
16.100000 0.018564 0
16.105000 0.005333 0
16.110000 -0.006502 0
16.115000 -0.017720 0
16.120000 -0.029614 0
16.125000 -0.044015 0
16.130000 -0.063043 0
16.135000 -0.088435 0
16.140000 -0.120450 0
16.145000 -0.156670 0
16.150000 -0.191241 0
16.155000 -0.215058 0
16.160000 -0.216920 2
16.165000 -0.185207 0
16.170000 -0.109574 0
16.175000 0.017250 0
16.180000 0.196821 0
16.185000 0.421140 0
16.190000 0.668917 0
16.195000 0.905104 0
16.200000 1.086701 0
16.205000 1.174675 3
16.210000 1.148102 0
16.215000 1.011076 0
16.220000 0.790833 0
16.225000 0.528055 0
16.230000 0.263991 0
16.235000 0.030794 0
16.240000 -0.152099 0
16.245000 -0.276778 0
16.250000 -0.344003 0
16.255000 -0.360839 4
16.260000 -0.338982 0
16.265000 -0.292818 0
16.270000 -0.236781 0
16.275000 -0.182601 0
16.280000 -0.137525 0
16.285000 -0.104148 0
16.290000 -0.081591 0
16.295000 -0.067213 0
16.300000 -0.058078 0
16.305000 -0.051781 0
16.310000 -0.046692 0
16.315000 -0.041844 0
16.320000 -0.036719 0
16.325000 -0.031043 0
16.330000 -0.024666 0
16.335000 -0.017486 0
16.340000 -0.009425 0
16.345000 -0.000413 0
16.350000 0.009611 0
16.355000 0.020700 0
16.360000 0.032895 0
16.365000 0.046227 0
16.370000 0.060706 0
16.375000 0.076329 0
16.380000 0.093066 0
16.385000 0.110870 0
16.390000 0.129665 0
16.395000 0.149349 0
16.400000 0.169796 0
16.405000 0.190851 0
16.410000 0.212334 0
16.415000 0.234041 0
16.420000 0.255746 0
16.425000 0.277203 0
16.430000 0.298155 0
16.435000 0.318333 0
16.440000 0.337464 0
16.445000 0.355278 0
16.450000 0.371512 0
16.455000 0.385917 0
16.460000 0.398264 0
16.465000 0.408351 0
16.470000 0.416005 0
16.475000 0.421093 0
16.480000 0.423518 5
16.485000 0.423226 0
16.490000 0.420208 0
16.495000 0.414498 0
16.500000 0.406175 0
16.505000 0.395359 0
16.510000 0.382207 0
16.515000 0.366913 0
16.520000 0.349698 0
16.525000 0.330809 0
16.530000 0.310511 0
16.535000 0.289079 0
16.540000 0.266795 0
16.545000 0.243940 0
16.550000 0.220787 0
16.555000 0.197599 0
16.560000 0.174622 0
16.565000 0.152080 0
16.570000 0.130174 0
16.575000 0.109080 0
16.580000 0.088945 0
16.585000 0.069889 0
16.590000 0.052003 0
16.595000 0.035354 0
16.600000 0.019980 0
16.605000 0.005896 0
16.610000 -0.006902 0
16.615000 -0.018438 0
16.620000 -0.028753 0
16.625000 -0.037899 0
16.630000 -0.045939 0
16.635000 -0.052943 0
16.640000 -0.058989 0
16.645000 -0.064154 0
16.650000 -0.068518 0
16.655000 -0.072159 0
16.660000 -0.075155 0
16.665000 -0.077578 0
16.670000 -0.079497 0
16.675000 -0.080978 0
16.680000 -0.082077 0
16.685000 -0.082850 0
16.690000 -0.083344 0
16.695000 -0.083603 0
16.700000 -0.083664 0
16.705000 -0.083559 0
16.710000 -0.083319 0
16.715000 -0.082966 0
16.720000 -0.082523 0
16.725000 -0.082007 0
16.730000 -0.081431 0
16.735000 -0.080810 0
16.740000 -0.080153 0
16.745000 -0.079467 0
16.750000 -0.078761 0
16.755000 -0.078038 0
16.760000 -0.077304 0
16.765000 -0.076558 0
16.770000 -0.075784 0
16.775000 -0.075014 0
16.780000 -0.074247 0
16.785000 -0.073485 0
16.790000 -0.072726 0
16.795000 -0.071972 0
16.800000 -0.071221 0
16.805000 -0.070473 0
16.810000 -0.069730 0
16.815000 -0.068990 0
16.820000 -0.068254 0
16.825000 -0.067521 0
16.830000 -0.066793 0
16.835000 -0.066067 0
16.840000 -0.065346 0
16.845000 -0.064628 0
16.850000 -0.063913 0
16.855000 -0.063203 0
16.860000 -0.062495 0
16.865000 -0.061791 0
16.870000 -0.061091 0
16.875000 -0.060394 0
16.880000 -0.059701 0
16.885000 -0.059011 0
16.890000 -0.058325 0
16.895000 -0.057642 0
16.900000 -0.056962 0
16.905000 -0.056286 0
16.910000 -0.055613 0
16.915000 -0.054944 0
16.920000 -0.054277 0
16.925000 -0.053614 0
16.930000 -0.052954 0
16.935000 -0.052296 0
16.940000 -0.051641 0
16.945000 -0.050988 0
16.950000 -0.050335 0
16.955000 -0.049681 0
16.960000 -0.049024 0
16.965000 -0.048359 0
16.970000 -0.047682 0
16.975000 -0.046985 0
16.980000 -0.046255 0
16.985000 -0.045476 0
16.990000 -0.044626 0
16.995000 -0.043673 0
17.000000 -0.042577 0
17.005000 -0.041283 0
17.010000 -0.039723 0
17.015000 -0.037810 0
17.020000 -0.035438 0
17.025000 -0.032482 0
17.030000 -0.028795 0
17.035000 -0.024214 0
17.040000 -0.018560 0
17.045000 -0.011647 0
17.050000 -0.003293 0
17.055000 0.006671 0
17.060000 0.018387 0
17.065000 0.031948 0
17.070000 0.047384 0
17.075000 0.064647 0
17.080000 0.083592 0
17.085000 0.103970 0
17.090000 0.125421 0
17.095000 0.147479 0
17.100000 0.169581 0
17.105000 0.191089 0
17.110000 0.211317 0
17.115000 0.229565 0
17.120000 0.245161 0
17.125000 0.257495 0
17.130000 0.266067 0
17.135000 0.270513 0
17.140000 0.270632 1
17.145000 0.266401 0
17.150000 0.257977 0
17.155000 0.245686 0
17.160000 0.230003 0
17.165000 0.211520 0
17.170000 0.190907 0
17.175000 0.168876 0
17.180000 0.146135 0
17.185000 0.123355 0
17.190000 0.101138 0
17.195000 0.079990 0
17.200000 0.060311 0
17.205000 0.042374 0
17.210000 0.026324 0
17.215000 0.012144 0
17.220000 -0.000398 0
17.225000 -0.011838 0
17.230000 -0.023150 0
17.235000 -0.035837 0
17.240000 -0.051872 0
17.245000 -0.073292 0
17.250000 -0.101370 0
17.255000 -0.135460 0
17.260000 -0.171934 0
17.265000 -0.203759 0
17.270000 -0.221053 2
17.275000 -0.212458 0
17.280000 -0.166803 0
17.285000 -0.074723 0
17.290000 0.069412 0
17.295000 0.264551 0
17.300000 0.499023 0
17.305000 0.747547 0
17.310000 0.972406 0
17.315000 1.131037 0
17.320000 1.188639 3
17.325000 1.130657 0
17.330000 0.967860 0
17.335000 0.732112 0
17.340000 0.465211 0
17.345000 0.206495 0
17.350000 -0.015240 0
17.355000 -0.183837 0
17.360000 -0.293880 0
17.365000 -0.347869 0
17.370000 -0.354110 4
17.375000 -0.325080 0
17.380000 -0.275353 0
17.385000 -0.218867 0
17.390000 -0.166345 0
17.395000 -0.123878 0
17.400000 -0.093122 0
17.405000 -0.072659 0
17.410000 -0.059693 0
17.415000 -0.051372 0
17.420000 -0.045468 0
17.425000 -0.040517 0
17.430000 -0.035670 0
17.435000 -0.030475 0
17.440000 -0.024695 0
17.445000 -0.018193 0
17.450000 -0.010874 0
17.455000 -0.002662 0
17.460000 0.006509 0
17.465000 0.016700 0
17.470000 0.027961 0
17.475000 0.040332 0
17.480000 0.053838 0
17.485000 0.068489 0
17.490000 0.084276 0
17.495000 0.101169 0
17.500000 0.119114 0
17.505000 0.138031 0
17.510000 0.157818 0
17.515000 0.178342 0
17.520000 0.199447 0
17.525000 0.220950 0
17.530000 0.242643 0
17.535000 0.264300 0
17.540000 0.285676 0
17.545000 0.306511 0
17.550000 0.326538 0
17.555000 0.345487 0
17.560000 0.363087 0
17.565000 0.379081 0
17.570000 0.393223 0
17.575000 0.405287 0
17.580000 0.415077 0
17.585000 0.422425 0
17.590000 0.427202 0
17.595000 0.429316 5
17.600000 0.428720 0
17.605000 0.425407 0
17.610000 0.419416 0
17.615000 0.410830 0
17.620000 0.399772 0
17.625000 0.386401 0
17.630000 0.370911 0
17.635000 0.353527 0
17.640000 0.334495 0
17.645000 0.314078 0
17.650000 0.292552 0
17.655000 0.270196 0
17.660000 0.247289 0
17.665000 0.224103 0
17.670000 0.200897 0
17.675000 0.177915 0
17.680000 0.155379 0
17.685000 0.133487 0
17.690000 0.112412 0
17.695000 0.092300 0
17.700000 0.073269 0
17.705000 0.055407 0
17.710000 0.038780 0
17.715000 0.023426 0
17.720000 0.009359 0
17.725000 -0.003427 0
17.730000 -0.014956 0
17.735000 -0.025267 0
17.740000 -0.034414 0
17.745000 -0.042459 0
17.750000 -0.049473 0
17.755000 -0.055530 0
17.760000 -0.060710 0
17.765000 -0.065091 0
17.770000 -0.068752 0
17.775000 -0.071768 0
17.780000 -0.074213 0
17.785000 -0.076156 0
17.790000 -0.077659 0
17.795000 -0.078781 0
17.800000 -0.079577 0
17.805000 -0.080094 0
17.810000 -0.080375 0
17.815000 -0.080457 0
17.820000 -0.080374 0
17.825000 -0.080154 0
17.830000 -0.079822 0
17.835000 -0.079398 0
17.840000 -0.078900 0
17.845000 -0.078343 0
17.850000 -0.077739 0
17.855000 -0.077099 0
17.860000 -0.076431 0
17.865000 -0.075740 0
17.870000 -0.075034 0
17.875000 -0.074316 0
17.880000 -0.073585 0
17.885000 -0.072826 0
17.890000 -0.072071 0
17.895000 -0.071319 0
17.900000 -0.070571 0
17.905000 -0.069827 0
17.910000 -0.069087 0
17.915000 -0.068350 0
17.920000 -0.067617 0
17.925000 -0.066888 0
17.930000 -0.066162 0
17.935000 -0.065440 0
17.940000 -0.064722 0
17.945000 -0.064007 0
17.950000 -0.063296 0
17.955000 -0.062588 0
17.960000 -0.061884 0
17.965000 -0.061183 0
17.970000 -0.060486 0
17.975000 -0.059792 0
17.980000 -0.059102 0
17.985000 -0.058415 0
17.990000 -0.057732 0
17.995000 -0.057052 0
18.000000 -0.056375 0
18.005000 -0.055702 0
18.010000 -0.055032 0
18.015000 -0.054365 0
18.020000 -0.053702 0
18.025000 -0.053042 0
18.030000 -0.052385 0
18.035000 -0.051732 0
18.040000 -0.051081 0
18.045000 -0.050434 0
18.050000 -0.049789 0
18.055000 -0.049146 0
18.060000 -0.048506 0
18.065000 -0.047866 0
18.070000 -0.047225 0
18.075000 -0.046582 0
18.080000 -0.045932 0
18.085000 -0.045271 0
18.090000 -0.044591 0
18.095000 -0.043881 0
18.100000 -0.043127 0
18.105000 -0.042306 0
18.110000 -0.041391 0
18.115000 -0.040343 0
18.120000 -0.039110 0
18.125000 -0.037628 0
18.130000 -0.035815 0
18.135000 -0.033570 0
18.140000 -0.030774 0
18.145000 -0.027285 0
18.150000 -0.022944 0
18.155000 -0.017577 0
18.160000 -0.011001 0
18.165000 -0.003031 0
18.170000 0.006504 0
18.175000 0.017754 0
18.180000 0.030824 0
18.185000 0.045763 0
18.190000 0.062545 0
18.195000 0.081051 0
18.200000 0.101061 0
18.205000 0.122249 0
18.210000 0.144179 0
18.215000 0.166316 0
18.220000 0.188044 0
18.225000 0.208692 0
18.230000 0.227564 0
18.235000 0.243979 0
18.240000 0.257310 0
18.245000 0.267025 0
18.250000 0.272718 0
18.255000 0.274139 1
18.260000 0.271211 0
18.265000 0.264037 0
18.270000 0.252890 0
18.275000 0.238200 0
18.280000 0.220521 0
18.285000 0.200501 0
18.290000 0.178836 0
18.295000 0.156237 0
18.300000 0.133387 0
18.305000 0.110909 0
18.310000 0.089340 0
18.315000 0.069114 0
18.320000 0.050546 0
18.325000 0.033828 0
18.330000 0.018999 0
18.335000 0.005914 0
18.340000 -0.005840 0
18.345000 -0.017063 0
18.350000 -0.029057 0
18.355000 -0.043637 0
18.360000 -0.062880 0
18.365000 -0.088452 0
18.370000 -0.120555 0
18.375000 -0.156785 0
18.380000 -0.191414 0
18.385000 -0.215567 0
18.390000 -0.218322 2
18.395000 -0.188312 0
18.400000 -0.115338 0
18.405000 0.007930 0
18.410000 0.183500 0
18.415000 0.404445 0
18.420000 0.651225 0
18.425000 0.890807 0
18.430000 1.081528 0
18.435000 1.183983 3
18.440000 1.173714 0
18.445000 1.050730 0
18.450000 0.839553 0
18.455000 0.579924 0
18.460000 0.313838 0
18.465000 0.075117 0
18.470000 -0.115048 0
18.475000 -0.247378 0
18.480000 -0.321669 0
18.485000 -0.344311 4
18.490000 -0.326552 0
18.495000 -0.282623 0
18.500000 -0.227157 0
18.505000 -0.172370 0
18.510000 -0.126103 0
18.515000 -0.091463 0
18.520000 -0.067881 0
18.525000 -0.052824 0
18.530000 -0.043325 0
18.535000 -0.036892 0
18.540000 -0.031807 0
18.545000 -0.027041 0
18.550000 -0.022036 0
18.555000 -0.016500 0
18.560000 -0.010272 0
18.565000 -0.003249 0
18.570000 0.004650 0
18.575000 0.013496 0
18.580000 0.023351 0
18.585000 0.034269 0
18.590000 0.046292 0
18.595000 0.059452 0
18.600000 0.073762 0
18.605000 0.089218 0
18.610000 0.105796 0
18.615000 0.123446 0
18.620000 0.142097 0
18.625000 0.161648 0
18.630000 0.181974 0
18.635000 0.202923 0
18.640000 0.224314 0
18.645000 0.245945 0
18.650000 0.267590 0
18.655000 0.289006 0
18.660000 0.309933 0
18.665000 0.330102 0
18.670000 0.349240 0
18.675000 0.367075 0
18.680000 0.383343 0
18.685000 0.397793 0
18.690000 0.410194 0
18.695000 0.420341 0
18.700000 0.428060 0
18.705000 0.433215 0
18.710000 0.435705 5
18.715000 0.435476 0
18.720000 0.432517 0
18.725000 0.426858 0
18.730000 0.418579 0
18.735000 0.407796 0
18.740000 0.394667 0
18.745000 0.379385 0
18.750000 0.362171 0
18.755000 0.343272 0
18.760000 0.322953 0
18.765000 0.301490 0
18.770000 0.279167 0
18.775000 0.256263 0
18.780000 0.233056 0
18.785000 0.209807 0
18.790000 0.186765 0
18.795000 0.164154 0
18.800000 0.142178 0
18.805000 0.121013 0
18.810000 0.100807 0
18.815000 0.081680 0
18.820000 0.063726 0
18.825000 0.047009 0
18.830000 0.031569 0
18.835000 0.017423 0
18.840000 0.004564 0
18.845000 -0.007030 0
18.850000 -0.017401 0
18.855000 -0.026600 0
18.860000 -0.034692 0
18.865000 -0.041747 0
18.870000 -0.047842 0
18.875000 -0.053055 0
18.880000 -0.057465 0
18.885000 -0.061153 0
18.890000 -0.064195 0
18.895000 -0.066664 0
18.900000 -0.068630 0
18.905000 -0.070157 0
18.910000 -0.071303 0
18.915000 -0.072123 0
18.920000 -0.072664 0
18.925000 -0.072970 0
18.930000 -0.073079 0
18.935000 -0.073023 0
18.940000 -0.072831 0
18.945000 -0.072527 0
18.950000 -0.072133 0
18.955000 -0.071666 0
18.960000 -0.071140 0
18.965000 -0.070568 0
18.970000 -0.069960 0
18.975000 -0.069325 0
18.980000 -0.068668 0
18.985000 -0.067995 0
18.990000 -0.067311 0
18.995000 -0.066613 0
19.000000 -0.065889 0
19.005000 -0.065168 0
19.010000 -0.064451 0
19.015000 -0.063738 0
19.020000 -0.063028 0
19.025000 -0.062321 0
19.030000 -0.061618 0
19.035000 -0.060919 0
19.040000 -0.060223 0
19.045000 -0.059530 0
19.050000 -0.058842 0
19.055000 -0.058156 0
19.060000 -0.057474 0
19.065000 -0.056795 0
19.070000 -0.056120 0
19.075000 -0.055448 0
19.080000 -0.054779 0
19.085000 -0.054114 0
19.090000 -0.053452 0
19.095000 -0.052793 0
19.100000 -0.052138 0
19.105000 -0.051486 0
19.110000 -0.050837 0
19.115000 -0.050191 0
19.120000 -0.049549 0
19.125000 -0.048910 0
19.130000 -0.048274 0
19.135000 -0.047641 0
19.140000 -0.047011 0
19.145000 -0.046384 0
19.150000 -0.045761 0
19.155000 -0.045140 0
19.160000 -0.044522 0
19.165000 -0.043906 0
19.170000 -0.043293 0
19.175000 -0.042681 0
19.180000 -0.042069 0
19.185000 -0.041456 0
19.190000 -0.040838 0
19.195000 -0.040213 0
19.200000 -0.039574 0
19.205000 -0.038914 0
19.210000 -0.038218 0
19.215000 -0.037472 0
19.220000 -0.036650 0
19.225000 -0.035720 0
19.230000 -0.034640 0
19.235000 -0.033354 0
19.240000 -0.031790 0
19.245000 -0.029859 0
19.250000 -0.027453 0
19.255000 -0.024441 0
19.260000 -0.020675 0
19.265000 -0.015989 0
19.270000 -0.010201 0
19.275000 -0.003125 0
19.280000 0.005422 0
19.285000 0.015606 0
19.290000 0.027562 0
19.295000 0.041375 0
19.300000 0.057066 0
19.305000 0.074570 0
19.310000 0.093728 0
19.315000 0.114271 0
19.320000 0.135821 0
19.325000 0.157892 0
19.330000 0.179908 0
19.335000 0.201217 0
19.340000 0.221126 0
19.345000 0.238934 0
19.350000 0.253974 0
19.355000 0.265652 0
19.360000 0.273487 0
19.365000 0.277140 1
19.370000 0.276442 0
19.375000 0.271402 0
19.380000 0.262209 0
19.385000 0.249220 0
19.390000 0.232936 0
19.395000 0.213967 0
19.400000 0.192999 0
19.405000 0.170746 0
19.410000 0.147916 0
19.415000 0.125171 0
19.420000 0.103096 0
19.425000 0.082181 0
19.430000 0.062801 0
19.435000 0.045209 0
19.440000 0.029516 0
19.445000 0.015668 0
19.450000 0.003380 0
19.455000 -0.007967 0
19.460000 -0.019457 0
19.465000 -0.032711 0
19.470000 -0.049769 0
19.475000 -0.072597 0
19.480000 -0.102159 0
19.485000 -0.137231 0
19.490000 -0.173428 0
19.495000 -0.202980 0
19.500000 -0.215500 2
19.505000 -0.199489 0
19.510000 -0.144007 0
19.515000 -0.040314 0
19.520000 0.116008 0
19.525000 0.321799 0
19.530000 0.562336 0
19.535000 0.808993 0
19.540000 1.021845 0
19.545000 1.158800 0
19.550000 1.188798 3
19.555000 1.102232 0
19.560000 0.915980 0
19.565000 0.666965 0
19.570000 0.398751 0
19.575000 0.149224 0
19.580000 -0.056059 0
19.585000 -0.204430 0
19.590000 -0.293452 0
19.595000 -0.328095 4
19.600000 -0.318774 0
19.605000 -0.279524 0
19.610000 -0.225463 0
19.615000 -0.169819 0
19.620000 -0.121605 0
19.625000 -0.084880 0
19.630000 -0.059625 0
19.635000 -0.043473 0
19.640000 -0.033383 0
19.645000 -0.026705 0
19.650000 -0.021574 0
19.655000 -0.016860 0
19.660000 -0.011948 0
19.665000 -0.006521 0
19.670000 -0.000405 0
19.675000 0.006509 0
19.680000 0.014305 0
19.685000 0.023056 0
19.690000 0.032825 0
19.695000 0.043668 0
19.700000 0.055630 0
19.705000 0.068741 0
19.710000 0.083017 0
19.715000 0.098452 0
19.720000 0.115021 0
19.725000 0.132674 0
19.730000 0.151336 0
19.735000 0.170902 0
19.740000 0.191243 0
19.745000 0.212201 0
19.750000 0.233589 0
19.755000 0.255199 0
19.760000 0.276796 0
19.765000 0.298130 0
19.770000 0.318934 0
19.775000 0.338932 0
19.780000 0.357844 0
19.785000 0.375393 0
19.790000 0.391310 0
19.795000 0.405343 0
19.800000 0.417260 0
19.805000 0.426858 0
19.810000 0.433967 0
19.815000 0.438455 0
19.820000 0.440231 5
19.825000 0.439250 0
19.830000 0.435513 0
19.835000 0.429064 0
19.840000 0.419995 0
19.845000 0.408439 0
19.850000 0.394569 0
19.855000 0.378591 0
19.860000 0.360742 0
19.865000 0.341280 0
19.870000 0.320481 0
19.875000 0.298631 0
19.880000 0.276019 0
19.885000 0.252932 0
19.890000 0.229645 0
19.895000 0.206423 0
19.900000 0.183509 0
19.905000 0.161124 0
19.910000 0.139463 0
19.915000 0.118694 0
19.920000 0.098956 0
19.925000 0.080357 0
19.930000 0.062978 0
19.935000 0.046874 0
19.940000 0.032072 0
19.945000 0.018576 0
19.950000 0.006372 0
19.955000 -0.004576 0
19.960000 -0.014314 0
19.965000 -0.022905 0
19.970000 -0.030418 0
19.975000 -0.036927 0
19.980000 -0.042514 0
19.985000 -0.047259 0
19.990000 -0.051244 0
19.995000 -0.054548 0
20.000000 -0.057248 0
20.005000 -0.059416 0
20.010000 -0.061118 0
20.015000 -0.062419 0
20.020000 -0.063373 0
20.025000 -0.064031 0
20.030000 -0.064440 0
20.035000 -0.064640 0
20.040000 -0.064664 0
20.045000 -0.064545 0
20.050000 -0.064306 0
20.055000 -0.063972 0
20.060000 -0.063559 0
20.065000 -0.063085 0
20.070000 -0.062562 0
20.075000 -0.062000 0
20.080000 -0.061408 0
20.085000 -0.060794 0
20.090000 -0.060163 0
20.095000 -0.059519 0
20.100000 -0.058862 0
20.105000 -0.058176 0
20.110000 -0.057494 0
20.115000 -0.056815 0
20.120000 -0.056140 0
20.125000 -0.055467 0
20.130000 -0.054799 0
20.135000 -0.054133 0
20.140000 -0.053471 0
20.145000 -0.052813 0
20.150000 -0.052157 0
20.155000 -0.051505 0
20.160000 -0.050856 0
20.165000 -0.050210 0
20.170000 -0.049568 0
20.175000 -0.048928 0
20.180000 -0.048292 0
20.185000 -0.047659 0
20.190000 -0.047030 0
20.195000 -0.046403 0
20.200000 -0.045780 0
20.205000 -0.045159 0
20.210000 -0.044542 0
20.215000 -0.043928 0
20.220000 -0.043316 0
20.225000 -0.042708 0
20.230000 -0.042103 0
20.235000 -0.041501 0
20.240000 -0.040902 0
20.245000 -0.040306 0
20.250000 -0.039713 0
20.255000 -0.039122 0
20.260000 -0.038534 0
20.265000 -0.037949 0
20.270000 -0.037366 0
20.275000 -0.036785 0
20.280000 -0.036205 0
20.285000 -0.035624 0
20.290000 -0.035041 0
20.295000 -0.034453 0
20.300000 -0.033855 0
20.305000 -0.033240 0
20.310000 -0.032599 0
20.315000 -0.031918 0
20.320000 -0.031176 0
20.325000 -0.030346 0
20.330000 -0.029393 0
20.335000 -0.028265 0
20.340000 -0.026901 0
20.345000 -0.025220 0
20.350000 -0.023121 0
20.355000 -0.020486 0
20.360000 -0.017171 0
20.365000 -0.013016 0
20.370000 -0.007843 0
20.375000 -0.001462 0
20.380000 0.006316 0
20.385000 0.015671 0
20.390000 0.026759 0
20.395000 0.039694 0
20.400000 0.054528 0
20.405000 0.071237 0
20.410000 0.089700 0
20.415000 0.109692 0
20.420000 0.130872 0
20.425000 0.152786 0
20.430000 0.174879 0
20.435000 0.196511 0
20.440000 0.216984 0
20.445000 0.235580 0
20.450000 0.251600 0
20.455000 0.264409 0
20.460000 0.273471 0
20.465000 0.278393 0
20.470000 0.278948 1
20.475000 0.275090 0
20.480000 0.266964 0
20.485000 0.254891 0
20.490000 0.239346 0
20.495000 0.220931 0
20.500000 0.200332 0
20.505000 0.178276 0
20.510000 0.155492 0
20.515000 0.132667 0
20.520000 0.110419 0
20.525000 0.089265 0
20.530000 0.069610 0
20.535000 0.051731 0
20.540000 0.035765 0
20.545000 0.021682 0
20.550000 0.009224 0
20.555000 -0.002201 0
20.560000 -0.013647 0
20.565000 -0.026726 0
20.570000 -0.043502 0
20.575000 -0.066012 0
20.580000 -0.095322 0
20.585000 -0.130297 0
20.590000 -0.166560 0
20.595000 -0.196231 0
20.600000 -0.208712 2
20.605000 -0.192247 0
20.610000 -0.135670 0
20.615000 -0.030131 0
20.620000 0.128668 0
20.625000 0.337014 0
20.630000 0.579046 0
20.635000 0.824532 0
20.640000 1.032064 0
20.645000 1.159092 0
20.650000 1.175806 3
20.655000 1.075402 0
20.660000 0.878180 0
20.665000 0.623653 0
20.670000 0.356196 0
20.675000 0.112829 0
20.680000 -0.082652 0
20.685000 -0.219425 0
20.690000 -0.296661 0
20.695000 -0.320728 4
20.700000 -0.303264 0
20.705000 -0.259134 0
20.710000 -0.203610 0
20.715000 -0.149301 0
20.720000 -0.104088 0
20.725000 -0.070833 0
20.730000 -0.048636 0
20.735000 -0.034714 0
20.740000 -0.026003 0
20.745000 -0.020032 0
20.750000 -0.015165 0
20.755000 -0.010454 0
20.760000 -0.005402 0
20.765000 0.000249 0
20.770000 0.006646 0
20.775000 0.013885 0
20.780000 0.022049 0
20.785000 0.031207 0
20.790000 0.041422 0
20.795000 0.052745 0
20.800000 0.065217 0
20.805000 0.078863 0
20.810000 0.093687 0
20.815000 0.109675 0
20.820000 0.126789 0
20.825000 0.144965 0
20.830000 0.164110 0
20.835000 0.184104 0
20.840000 0.204799 0
20.845000 0.226017 0
20.850000 0.247553 0
20.855000 0.269178 0
20.860000 0.290643 0
20.865000 0.311680 0
20.870000 0.332010 0
20.875000 0.351347 0
20.880000 0.369406 0
20.885000 0.385907 0
20.890000 0.400587 0
20.895000 0.413199 0
20.900000 0.423527 0
20.905000 0.431384 0
20.910000 0.436625 0
20.915000 0.439143 5
20.920000 0.438881 0
20.925000 0.435825 0
20.930000 0.430010 0
20.935000 0.421520 0
20.940000 0.410481 0
20.945000 0.397060 0
20.950000 0.381464 0
20.955000 0.363928 0
20.960000 0.344713 0
20.965000 0.324099 0
20.970000 0.302378 0
20.975000 0.279845 0
20.980000 0.256794 0
20.985000 0.233509 0
20.990000 0.210262 0
20.995000 0.187304 0
21.000000 0.164864 0
21.005000 0.143143 0
21.010000 0.122314 0
21.015000 0.102521 0
21.020000 0.083876 0
21.025000 0.066464 0
21.030000 0.050340 0
21.035000 0.035533 0
21.040000 0.022046 0
21.045000 0.009864 0
21.050000 -0.001049 0
21.055000 -0.010742 0
21.060000 -0.019279 0
21.065000 -0.026730 0
21.070000 -0.033174 0
21.075000 -0.038692 0
21.080000 -0.043368 0
21.085000 -0.047286 0
21.090000 -0.050524 0
21.095000 -0.053163 0
21.100000 -0.055273 0
21.105000 -0.056925 0
21.110000 -0.058179 0
21.115000 -0.059094 0
21.120000 -0.059720 0
21.125000 -0.060102 0
21.130000 -0.060280 0
21.135000 -0.060289 0
21.140000 -0.060158 0
21.145000 -0.059914 0
21.150000 -0.059577 0
21.155000 -0.059167 0
21.160000 -0.058698 0
21.165000 -0.058183 0
21.170000 -0.057631 0
21.175000 -0.057052 0
21.180000 -0.056452 0
21.185000 -0.055837 0
21.190000 -0.055210 0
21.195000 -0.054549 0
21.200000 -0.053885 0
21.205000 -0.053224 0
21.210000 -0.052566 0
21.215000 -0.051912 0
21.220000 -0.051261 0
21.225000 -0.050613 0
21.230000 -0.049969 0
21.235000 -0.049328 0
21.240000 -0.048690 0
21.245000 -0.048055 0
21.250000 -0.047423 0
21.255000 -0.046794 0
21.260000 -0.046169 0
21.265000 -0.045546 0
21.270000 -0.044927 0
21.275000 -0.044311 0
21.280000 -0.043698 0
21.285000 -0.043088 0
21.290000 -0.042481 0
21.295000 -0.041877 0
21.300000 -0.041276 0
21.305000 -0.040678 0
21.310000 -0.040083 0
21.315000 -0.039491 0
21.320000 -0.038902 0
21.325000 -0.038316 0
21.330000 -0.037733 0
21.335000 -0.037153 0
21.340000 -0.036575 0
21.345000 -0.036000 0
21.350000 -0.035428 0
21.355000 -0.034859 0
21.360000 -0.034291 0
21.365000 -0.033726 0
21.370000 -0.033161 0
21.375000 -0.032596 0
21.380000 -0.032030 0
21.385000 -0.031458 0
21.390000 -0.030877 0
21.395000 -0.030281 0
21.400000 -0.029660 0
21.405000 -0.029000 0
21.410000 -0.028281 0
21.415000 -0.027477 0
21.420000 -0.026552 0
21.425000 -0.025456 0
21.430000 -0.024125 0
21.435000 -0.022479 0
21.440000 -0.020417 0
21.445000 -0.017817 0
21.450000 -0.014534 0
21.455000 -0.010404 0
21.460000 -0.005245 0
21.465000 0.001137 0
21.470000 0.008936 0
21.475000 0.018336 0
21.480000 0.029495 0
21.485000 0.042527 0
21.490000 0.057483 0
21.495000 0.074330 0
21.500000 0.092938 0
21.505000 0.113064 0
21.510000 0.134348 0
21.515000 0.156314 0
21.520000 0.178380 0
21.525000 0.199881 0
21.530000 0.220099 0
21.535000 0.238297 0
21.540000 0.253770 0
21.545000 0.265882 0
21.550000 0.274112 0
21.555000 0.278090 1
21.560000 0.277624 0
21.565000 0.272711 0
21.570000 0.263546 0
21.575000 0.250497 0
21.580000 0.234092 0
21.585000 0.214972 0
21.590000 0.193856 0
21.595000 0.171494 0
21.600000 0.148622 0
21.605000 0.125923 0
21.610000 0.103998 0
21.615000 0.083336 0
21.620000 0.064308 0
21.625000 0.047145 0
21.630000 0.031928 0
21.635000 0.018541 0
21.640000 0.006598 0
21.645000 -0.004687 0
21.650000 -0.016637 0
21.655000 -0.031135 0
21.660000 -0.050369 0
21.665000 -0.076105 0
21.670000 -0.108518 0
21.675000 -0.144921 0
21.680000 -0.179012 0
21.685000 -0.201146 2
21.690000 -0.199635 0
21.695000 -0.162558 0
21.700000 -0.079554 0
21.705000 0.056185 0
21.710000 0.244898 0
21.715000 0.476025 0
21.720000 0.724613 0
21.725000 0.951982 0
21.730000 1.113482 0
21.735000 1.172139 3
21.740000 1.111892 0
21.745000 0.944028 0
21.750000 0.703655 0
21.755000 0.435850 0
21.760000 0.181690 0
21.765000 -0.030156 0
21.770000 -0.184895 0
21.775000 -0.278983 0
21.780000 -0.317005 4
21.785000 -0.309472 0
21.790000 -0.270860 0
21.795000 -0.216902 0
21.800000 -0.161372 0
21.805000 -0.113571 0
21.810000 -0.077556 0
21.815000 -0.053125 0
21.820000 -0.037715 0
21.825000 -0.028168 0
21.830000 -0.021815 0
21.835000 -0.016827 0
21.840000 -0.012130 0
21.845000 -0.007153 0
21.850000 -0.001604 0
21.855000 0.004678 0
21.860000 0.011798 0
21.865000 0.019840 0
21.870000 0.028877 0
21.875000 0.038972 0
21.880000 0.050181 0
21.885000 0.062546 0
21.890000 0.076093 0
21.895000 0.090830 0
21.900000 0.106744 0
21.905000 0.123797 0
21.910000 0.141927 0
21.915000 0.161040 0
21.920000 0.181017 0
21.925000 0.201706 0
21.930000 0.222928 0
21.935000 0.244476 0
21.940000 0.266116 0
21.945000 0.287595 0
21.950000 0.308640 0
21.955000 0.328968 0
21.960000 0.348287 0
21.965000 0.366307 0
21.970000 0.382744 0
21.975000 0.397331 0
21.980000 0.409818 0
21.985000 0.419987 0
21.990000 0.427651 0
21.995000 0.432665 0
22.000000 0.434926 5
22.005000 0.434377 0
22.010000 0.431013 0
22.015000 0.424873 0
22.020000 0.416049 0
22.025000 0.404674 0
22.030000 0.390925 0
22.035000 0.375017 0
22.040000 0.357193 0
22.045000 0.337724 0
22.050000 0.316896 0
22.055000 0.295007 0
22.060000 0.272358 0
22.065000 0.249246 0
22.070000 0.225959 0
22.075000 0.202768 0
22.080000 0.179924 0
22.085000 0.157654 0
22.090000 0.136155 0
22.095000 0.115596 0
22.100000 0.096114 0
22.105000 0.077817 0
22.110000 0.060781 0
22.115000 0.045055 0
22.120000 0.030659 0
22.125000 0.017592 0
22.130000 0.005831 0
22.135000 -0.004665 0
22.140000 -0.013952 0
22.145000 -0.022096 0
22.150000 -0.029174 0
22.155000 -0.035266 0
22.160000 -0.040456 0
22.165000 -0.044829 0
22.170000 -0.048469 0
22.175000 -0.051456 0
22.180000 -0.053869 0
22.185000 -0.055779 0
22.190000 -0.057253 0
22.195000 -0.058353 0
22.200000 -0.059134 0
22.205000 -0.059644 0
22.210000 -0.059928 0
22.215000 -0.060023 0
22.220000 -0.059963 0
22.225000 -0.059775 0
22.230000 -0.059483 0
22.235000 -0.059109 0
22.240000 -0.058667 0
22.245000 -0.058174 0
22.250000 -0.057639 0
22.255000 -0.057073 0
22.260000 -0.056483 0
22.265000 -0.055875 0
22.270000 -0.055254 0
22.275000 -0.054618 0
22.280000 -0.053953 0
22.285000 -0.053292 0
22.290000 -0.052634 0
22.295000 -0.051980 0
22.300000 -0.051328 0
22.305000 -0.050680 0
22.310000 -0.050035 0
22.315000 -0.049394 0
22.320000 -0.048755 0
22.325000 -0.048120 0
22.330000 -0.047488 0
22.335000 -0.046859 0
22.340000 -0.046233 0
22.345000 -0.045611 0
22.350000 -0.044991 0
22.355000 -0.044375 0
22.360000 -0.043761 0
22.365000 -0.043151 0
22.370000 -0.042544 0
22.375000 -0.041939 0
22.380000 -0.041338 0
22.385000 -0.040740 0
22.390000 -0.040145 0
22.395000 -0.039552 0
22.400000 -0.038963 0
22.405000 -0.038377 0
22.410000 -0.037793 0
22.415000 -0.037213 0
22.420000 -0.036635 0
22.425000 -0.036060 0
22.430000 -0.035487 0
22.435000 -0.034918 0
22.440000 -0.034350 0
22.445000 -0.033784 0
22.450000 -0.033220 0
22.455000 -0.032655 0
22.460000 -0.032089 0
22.465000 -0.031518 0
22.470000 -0.030938 0
22.475000 -0.030343 0
22.480000 -0.029724 0
22.485000 -0.029066 0
22.490000 -0.028351 0
22.495000 -0.027551 0
22.500000 -0.026629 0
22.505000 -0.025537 0
22.510000 -0.024210 0
22.515000 -0.022565 0
22.520000 -0.020501 0
22.525000 -0.017893 0
22.530000 -0.014593 0
22.535000 -0.010434 0
22.540000 -0.005230 0
22.545000 0.001215 0
22.550000 0.009101 0
22.555000 0.018612 0
22.560000 0.029907 0
22.565000 0.043099 0
22.570000 0.058232 0
22.575000 0.075265 0
22.580000 0.094055 0
22.585000 0.114343 0
22.590000 0.135747 0
22.595000 0.157769 0
22.600000 0.179805 0
22.605000 0.201168 0
22.610000 0.221121 0
22.615000 0.238919 0
22.620000 0.253851 0
22.625000 0.265288 0
22.630000 0.272727 0
22.635000 0.275823 1
22.640000 0.274420 0
22.645000 0.268559 0
22.650000 0.258476 0
22.655000 0.244588 0
22.660000 0.227461 0
22.665000 0.207771 0
22.670000 0.186263 0
22.675000 0.163699 0
22.680000 0.140817 0
22.685000 0.118292 0
22.690000 0.096703 0
22.695000 0.076514 0
22.700000 0.058061 0
22.705000 0.041532 0
22.710000 0.026950 0
22.715000 0.014119 0
22.720000 0.002521 0
22.725000 -0.008822 0
22.730000 -0.021466 0
22.735000 -0.037497 0
22.740000 -0.059089 0
22.745000 -0.087572 0
22.750000 -0.122112 0
22.755000 -0.158537 0
22.760000 -0.188934 0
22.765000 -0.202413 2
22.770000 -0.186754 0
22.775000 -0.130303 0
22.780000 -0.023843 0
22.785000 0.136975 0
22.790000 0.347861 0
22.795000 0.591435 0
22.800000 0.835105 0
22.805000 1.035117 0
22.810000 1.148051 3
22.815000 1.145861 0
22.820000 1.026634 0
22.825000 0.815428 0
22.830000 0.554925 0
22.835000 0.290055 0
22.840000 0.056211 0
22.845000 -0.125384 0
22.850000 -0.246416 0
22.855000 -0.308177 0
22.860000 -0.318878 4
22.865000 -0.291692 0
22.870000 -0.242371 0
22.875000 -0.186065 0
22.880000 -0.134283 0
22.885000 -0.093283 0
22.890000 -0.064412 0
22.895000 -0.045797 0
22.900000 -0.034309 0
22.905000 -0.026977 0
22.910000 -0.021619 0
22.915000 -0.016887 0
22.920000 -0.012042 0
22.925000 -0.006707 0
22.930000 -0.000684 0
22.935000 0.006148 0
22.940000 0.013880 0
22.945000 0.022588 0
22.950000 0.032341 0
22.955000 0.043197 0
22.960000 0.055203 0
22.965000 0.068392 0
22.970000 0.082778 0
22.975000 0.098354 0
22.980000 0.115091 0
22.985000 0.132932 0
22.990000 0.151793 0
22.995000 0.171560 0
23.000000 0.192089 0
23.005000 0.213206 0
23.010000 0.234710 0
23.015000 0.256371 0
23.020000 0.277937 0
23.025000 0.299137 0
23.030000 0.319686 0
23.035000 0.339291 0
23.040000 0.357657 0
23.045000 0.374497 0
23.050000 0.389533 0
23.055000 0.402509 0
23.060000 0.413198 0
23.065000 0.421403 0
23.070000 0.426968 0
23.075000 0.429781 5
23.080000 0.429775 0
23.085000 0.426935 0
23.090000 0.421293 0
23.095000 0.412932 0
23.100000 0.401980 0
23.105000 0.388610 0
23.110000 0.373032 0
23.115000 0.355489 0
23.120000 0.336251 0
23.125000 0.315607 0
23.130000 0.293856 0
23.135000 0.271302 0
23.140000 0.248247 0
23.145000 0.224983 0
23.150000 0.201788 0
23.155000 0.178916 0
23.160000 0.156599 0
23.165000 0.135041 0
23.170000 0.114414 0
23.175000 0.094861 0
23.180000 0.076492 0
23.185000 0.059386 0
23.190000 0.043595 0
23.195000 0.029141 0
23.200000 0.016024 0
23.205000 0.004220 0
23.210000 -0.006309 0
23.215000 -0.015621 0
23.220000 -0.023782 0
23.225000 -0.030870 0
23.230000 -0.036964 0
23.235000 -0.042151 0
23.240000 -0.046516 0
23.245000 -0.050145 0
23.250000 -0.053117 0
23.255000 -0.055513 0
23.260000 -0.057405 0
23.265000 -0.058860 0
23.270000 -0.059941 0
23.275000 -0.060702 0
23.280000 -0.061194 0
23.285000 -0.061460 0
23.290000 -0.061538 0
23.295000 -0.061461 0
23.300000 -0.061258 0
23.305000 -0.060952 0
23.310000 -0.060564 0
23.315000 -0.060110 0
23.320000 -0.059605 0
23.325000 -0.059060 0
23.330000 -0.058484 0
23.335000 -0.057884 0
23.340000 -0.057267 0
23.345000 -0.056637 0
23.350000 -0.055993 0
23.355000 -0.055322 0
23.360000 -0.054654 0
23.365000 -0.053989 0
23.370000 -0.053328 0
23.375000 -0.052670 0
23.380000 -0.052015 0
23.385000 -0.051363 0
23.390000 -0.050715 0
23.395000 -0.050070 0
23.400000 -0.049428 0
23.405000 -0.048790 0
23.410000 -0.048154 0
23.415000 -0.047522 0
23.420000 -0.046893 0
23.425000 -0.046267 0
23.430000 -0.045644 0
23.435000 -0.045025 0
23.440000 -0.044408 0
23.445000 -0.043794 0
23.450000 -0.043184 0
23.455000 -0.042576 0
23.460000 -0.041972 0
23.465000 -0.041371 0
23.470000 -0.040772 0
23.475000 -0.040177 0
23.480000 -0.039584 0
23.485000 -0.038995 0
23.490000 -0.038408 0
23.495000 -0.037824 0
23.500000 -0.037243 0
23.505000 -0.036665 0
23.510000 -0.036089 0
23.515000 -0.035515 0
23.520000 -0.034943 0
23.525000 -0.034372 0
23.530000 -0.033801 0
23.535000 -0.033226 0
23.540000 -0.032646 0
23.545000 -0.032056 0
23.550000 -0.031447 0
23.555000 -0.030809 0
23.560000 -0.030126 0
23.565000 -0.029376 0
23.570000 -0.028529 0
23.575000 -0.027542 0
23.580000 -0.026361 0
23.585000 -0.024913 0
23.590000 -0.023108 0
23.595000 -0.020833 0
23.600000 -0.017952 0
23.605000 -0.014309 0
23.610000 -0.009726 0
23.615000 -0.004008 0
23.620000 0.003046 0
23.625000 0.011631 0
23.630000 0.021927 0
23.635000 0.034075 0
23.640000 0.048161 0
23.645000 0.064192 0
23.650000 0.082081 0
23.655000 0.101630 0
23.660000 0.122517 0
23.665000 0.144301 0
23.670000 0.166422 0
23.675000 0.188225 0
23.680000 0.208985 0
23.685000 0.227947 0
23.690000 0.244370 0
23.695000 0.257570 0
23.700000 0.266974 0
23.705000 0.272152 0
23.710000 0.272854 1
23.715000 0.269029 0
23.720000 0.260826 0
23.725000 0.248587 0
23.730000 0.232821 0
23.735000 0.214169 0
23.740000 0.193359 0
23.745000 0.171161 0
23.750000 0.148336 0
23.755000 0.125597 0
23.760000 0.103574 0
23.765000 0.082786 0
23.770000 0.063624 0
23.775000 0.046341 0
23.780000 0.031029 0
23.785000 0.017584 0
23.790000 0.005619 0
23.795000 -0.005664 0
23.800000 -0.017619 0
23.805000 -0.032186 0
23.810000 -0.051615 0
23.815000 -0.077686 0
23.820000 -0.110460 0
23.825000 -0.146952 0
23.830000 -0.180388 0
23.835000 -0.200585 2
23.840000 -0.195406 0
23.845000 -0.152685 0
23.850000 -0.062121 0
23.855000 0.082506 0
23.860000 0.279927 0
23.865000 0.516828 0
23.870000 0.764562 0
23.875000 0.981176 0
23.880000 1.121192 0
23.885000 1.150672 3
23.890000 1.060241 0
23.895000 0.868892 0
23.900000 0.616477 0
23.905000 0.348905 0
23.910000 0.104854 0
23.915000 -0.090776 0
23.920000 -0.226735 0
23.925000 -0.302259 0
23.930000 -0.324109 4
23.935000 -0.304506 0
23.940000 -0.258924 0
23.945000 -0.203024 0
23.950000 -0.149430 0
23.955000 -0.105677 0
23.960000 -0.074129 0
23.965000 -0.053455 0
23.970000 -0.040645 0
23.975000 -0.032599 0
23.980000 -0.026933 0
23.985000 -0.022124 0
23.990000 -0.017322 0
23.995000 -0.012090 0
24.000000 -0.006200 0
24.005000 0.000479 0
24.010000 0.008042 0
24.015000 0.016570 0
24.020000 0.026131 0
24.025000 0.036787 0
24.030000 0.048588 0
24.035000 0.061569 0
24.040000 0.075749 0
24.045000 0.091124 0
24.050000 0.107671 0
24.055000 0.125336 0
24.060000 0.144041 0
24.065000 0.163678 0
24.070000 0.184106 0
24.075000 0.205156 0
24.080000 0.226631 0
24.085000 0.248304 0
24.090000 0.269927 0
24.095000 0.291229 0
24.100000 0.311926 0
24.105000 0.331725 0
24.110000 0.350330 0
24.115000 0.367449 0
24.120000 0.382802 0
24.125000 0.396130 0
24.130000 0.407196 0
24.135000 0.415801 0
24.140000 0.421779 0
24.145000 0.425013 0
24.150000 0.425428 5
24.155000 0.423001 0
24.160000 0.417758 0
24.165000 0.409776 0
24.170000 0.399178 0
24.175000 0.386131 0
24.180000 0.370842 0
24.185000 0.353552 0
24.190000 0.334528 0
24.195000 0.314057 0
24.200000 0.292441 0
24.205000 0.269984 0
24.210000 0.246991 0
24.215000 0.223756 0
24.220000 0.200559 0
24.225000 0.177659 0
24.230000 0.155293 0
24.235000 0.133666 0
24.240000 0.112957 0
24.245000 0.093311 0
24.250000 0.074841 0
24.255000 0.057631 0
24.260000 0.041735 0
24.265000 0.027178 0
24.270000 0.013961 0
24.275000 0.002064 0
24.280000 -0.008553 0
24.285000 -0.017945 0
24.290000 -0.026178 0
24.295000 -0.033329 0
24.300000 -0.039478 0
24.305000 -0.044712 0
24.310000 -0.049117 0
24.315000 -0.052777 0
24.320000 -0.055776 0
24.325000 -0.058191 0
24.330000 -0.060097 0
24.335000 -0.061562 0
24.340000 -0.062647 0
24.345000 -0.063411 0
24.350000 -0.063901 0
24.355000 -0.064163 0
24.360000 -0.064236 0
24.365000 -0.064152 0
24.370000 -0.063940 0
24.375000 -0.063625 0
24.380000 -0.063226 0
24.385000 -0.062761 0
24.390000 -0.062245 0
24.395000 -0.061687 0
24.400000 -0.061099 0
24.405000 -0.060487 0
24.410000 -0.059857 0
24.415000 -0.059214 0
24.420000 -0.058558 0
24.425000 -0.057874 0
24.430000 -0.057193 0
24.435000 -0.056516 0
24.440000 -0.055842 0
24.445000 -0.055171 0
24.450000 -0.054504 0
24.455000 -0.053840 0
24.460000 -0.053179 0
24.465000 -0.052522 0
24.470000 -0.051868 0
24.475000 -0.051217 0
24.480000 -0.050570 0
24.485000 -0.049926 0
24.490000 -0.049284 0
24.495000 -0.048647 0
24.500000 -0.048012 0
24.505000 -0.047380 0
24.510000 -0.046752 0
24.515000 -0.046127 0
24.520000 -0.045505 0
24.525000 -0.044886 0
24.530000 -0.044270 0
24.535000 -0.043657 0
24.540000 -0.043047 0
24.545000 -0.042440 0
24.550000 -0.041836 0
24.555000 -0.041236 0
24.560000 -0.040638 0
24.565000 -0.040043 0
24.570000 -0.039451 0
24.575000 -0.038862 0
24.580000 -0.038275 0
24.585000 -0.037690 0
24.590000 -0.037107 0
24.595000 -0.036525 0
24.600000 -0.035942 0
24.605000 -0.035357 0
24.610000 -0.034766 0
24.615000 -0.034163 0
24.620000 -0.033542 0
24.625000 -0.032890 0
24.630000 -0.032193 0
24.635000 -0.031426 0
24.640000 -0.030559 0
24.645000 -0.029548 0
24.650000 -0.028337 0
24.655000 -0.026852 0
24.660000 -0.025000 0
24.665000 -0.022665 0
24.670000 -0.019711 0
24.675000 -0.015976 0
24.680000 -0.011280 0
24.685000 -0.005428 0
24.690000 0.001782 0
24.695000 0.010548 0
24.700000 0.021046 0
24.705000 0.033411 0
24.710000 0.047724 0
24.715000 0.063982 0
24.720000 0.082085 0
24.725000 0.101821 0
24.730000 0.122853 0
24.735000 0.144721 0
24.740000 0.166851 0
24.745000 0.188575 0
24.750000 0.209158 0
24.755000 0.227841 0
24.760000 0.243885 0
24.765000 0.256615 0
24.770000 0.265471 0
24.775000 0.270046 0
24.780000 0.270115 1
24.785000 0.265657 0
24.790000 0.256849 0
24.795000 0.244061 0
24.800000 0.227827 0
24.805000 0.208807 0
24.810000 0.187742 0
24.815000 0.165406 0
24.820000 0.142559 0
24.825000 0.119907 0
24.830000 0.098065 0
24.835000 0.077534 0
24.840000 0.058685 0
24.845000 0.041747 0
24.850000 0.026782 0
24.855000 0.013643 0
24.860000 0.001881 0
24.865000 -0.009397 0
24.870000 -0.021660 0
24.875000 -0.036949 0
24.880000 -0.057509 0
24.885000 -0.084912 0
24.890000 -0.118733 0
24.895000 -0.155273 0
24.900000 -0.186996 0
24.905000 -0.203150 2
24.910000 -0.191382 0
24.915000 -0.139696 0
24.920000 -0.038370 0
24.925000 0.117631 0
24.930000 0.324911 0
24.935000 0.567029 0
24.940000 0.811962 0
24.945000 1.015734 0
24.950000 1.133831 0
24.955000 1.136682 3
24.960000 1.021355 0
24.965000 0.812650 0
24.970000 0.553052 0
24.975000 0.287788 0
24.980000 0.052762 0
24.985000 -0.130323 0
24.990000 -0.252824 0
24.995000 -0.315832 0
25.000000 -0.327452 4
25.005000 -0.300816 0
25.010000 -0.251707 0
25.015000 -0.195370 0
25.020000 -0.143426 0
25.025000 -0.102232 0
25.030000 -0.073194 0
25.035000 -0.054458 0
25.040000 -0.042887 0
25.045000 -0.035496 0
25.050000 -0.030092 0
25.055000 -0.025317 0
25.060000 -0.020430 0
25.065000 -0.015053 0
25.070000 -0.008985 0
25.075000 -0.002107 0
25.080000 0.005673 0
25.085000 0.014431 0
25.090000 0.024236 0
25.095000 0.035147 0
25.100000 0.047211 0
25.105000 0.060459 0
25.110000 0.074906 0
25.115000 0.090546 0
25.120000 0.107347 0
25.125000 0.125252 0
25.130000 0.144177 0
25.135000 0.164006 0
25.140000 0.184595 0
25.145000 0.205767 0
25.150000 0.227320 0
25.155000 0.249022 0
25.160000 0.270620 0
25.165000 0.291842 0
25.170000 0.312400 0
25.175000 0.332002 0
25.180000 0.350351 0
25.185000 0.367157 0
25.190000 0.382145 0
25.195000 0.395059 0
25.200000 0.405671 0
25.205000 0.413785 0
25.210000 0.419249 0
25.215000 0.421950 5
25.220000 0.421825 0
25.225000 0.418861 0
25.230000 0.413094 0
25.235000 0.404609 0
25.240000 0.393538 0
25.245000 0.380057 0
25.250000 0.364378 0
25.255000 0.346749 0
25.260000 0.327441 0
25.265000 0.306744 0
25.270000 0.284960 0
25.275000 0.262394 0
25.280000 0.239348 0
25.285000 0.216116 0
25.290000 0.192972 0
25.295000 0.170172 0
25.300000 0.147946 0
25.305000 0.126495 0
25.310000 0.105990 0
25.315000 0.086572 0
25.320000 0.068347 0
25.325000 0.051394 0
25.330000 0.035760 0
25.335000 0.021467 0
25.340000 0.008511 0
25.345000 -0.003132 0
25.350000 -0.013504 0
25.355000 -0.022663 0
25.360000 -0.030678 0
25.365000 -0.037625 0
25.370000 -0.043587 0
25.375000 -0.048649 0
25.380000 -0.052898 0
25.385000 -0.056418 0
25.390000 -0.059291 0
25.395000 -0.061595 0
25.400000 -0.063402 0
25.405000 -0.064780 0
25.410000 -0.065790 0
25.415000 -0.066487 0
25.420000 -0.066919 0
25.425000 -0.067130 0
25.430000 -0.067159 0
25.435000 -0.067036 0
25.440000 -0.066790 0
25.445000 -0.066444 0
25.450000 -0.066018 0
25.455000 -0.065530 0
25.460000 -0.064991 0
25.465000 -0.064413 0
25.470000 -0.063806 0
25.475000 -0.063177 0
25.480000 -0.062530 0
25.485000 -0.061872 0
25.490000 -0.061201 0
25.495000 -0.060504 0
25.500000 -0.059810 0
25.505000 -0.059120 0
25.510000 -0.058433 0
25.515000 -0.057749 0
25.520000 -0.057069 0
25.525000 -0.056392 0
25.530000 -0.055719 0
25.535000 -0.055049 0
25.540000 -0.054382 0
25.545000 -0.053719 0
25.550000 -0.053059 0
25.555000 -0.052402 0
25.560000 -0.051749 0
25.565000 -0.051099 0
25.570000 -0.050452 0
25.575000 -0.049808 0
25.580000 -0.049168 0
25.585000 -0.048530 0
25.590000 -0.047896 0
25.595000 -0.047265 0
25.600000 -0.046637 0
25.605000 -0.046013 0
25.610000 -0.045391 0
25.615000 -0.044773 0
25.620000 -0.044157 0
25.625000 -0.043545 0
25.630000 -0.042936 0
25.635000 -0.042329 0
25.640000 -0.041726 0
25.645000 -0.041125 0
25.650000 -0.040527 0
25.655000 -0.039931 0
25.660000 -0.039336 0
25.665000 -0.038743 0
25.670000 -0.038148 0
25.675000 -0.037551 0
25.680000 -0.036947 0
25.685000 -0.036331 0
25.690000 -0.035694 0
25.695000 -0.035026 0
25.700000 -0.034309 0
25.705000 -0.033519 0
25.710000 -0.032622 0
25.715000 -0.031575 0
25.720000 -0.030318 0
25.725000 -0.028774 0
25.730000 -0.026848 0
25.735000 -0.024422 0
25.740000 -0.021355 0
25.745000 -0.017482 0
25.750000 -0.012622 0
25.755000 -0.006577 0
25.760000 0.000855 0
25.765000 0.009868 0
25.770000 0.020633 0
25.775000 0.033281 0
25.780000 0.047880 0
25.785000 0.064416 0
25.790000 0.082773 0
25.795000 0.102723 0
25.800000 0.123911 0
25.805000 0.145861 0
25.810000 0.167987 0
25.815000 0.189607 0
25.820000 0.209984 0
25.825000 0.228359 0
25.830000 0.243999 0
25.835000 0.256243 0
25.840000 0.264550 0
25.845000 0.268536 1
25.850000 0.268005 0
25.855000 0.262959 0
25.860000 0.253605 0
25.865000 0.240336 0
25.870000 0.223703 0
25.875000 0.204379 0
25.880000 0.183112 0
25.885000 0.160675 0
25.890000 0.137824 0
25.895000 0.115253 0
25.900000 0.093564 0
25.905000 0.073240 0
25.910000 0.054636 0
25.915000 0.037959 0
25.920000 0.023248 0
25.925000 0.010325 0
25.930000 -0.001307 0
25.935000 -0.012607 0
25.940000 -0.025118 0
25.945000 -0.040936 0
25.950000 -0.062279 0
25.955000 -0.090546 0
25.960000 -0.124970 0
25.965000 -0.161391 0
25.970000 -0.191830 0
25.975000 -0.205246 2
25.980000 -0.189241 0
25.985000 -0.132000 0
25.990000 -0.024229 0
25.995000 0.138318 0
26.000000 0.350926 0
26.005000 0.595361 0
26.010000 0.837868 0
26.015000 1.033718 0
26.020000 1.139389 3
26.025000 1.128013 0
26.030000 1.000171 0
26.035000 0.783446 0
26.040000 0.521120 0
26.045000 0.257600 0
26.050000 0.027167 0
26.055000 -0.150073 0
26.060000 -0.266646 0
26.065000 -0.324411 0
26.070000 -0.331968 4
26.075000 -0.302715 0
26.080000 -0.252422 0
26.085000 -0.196044 0
26.090000 -0.144745 0
26.095000 -0.104427 0
26.100000 -0.076180 0
26.105000 -0.058007 0
26.110000 -0.046765 0
26.115000 -0.039527 0
26.120000 -0.034167 0
26.125000 -0.029379 0
26.130000 -0.024453 0
26.135000 -0.019025 0
26.140000 -0.012902 0
26.145000 -0.005968 0
26.150000 0.001869 0
26.155000 0.010683 0
26.160000 0.020543 0
26.165000 0.031506 0
26.170000 0.043619 0
26.175000 0.056914 0
26.180000 0.071403 0
26.185000 0.087080 0
26.190000 0.103913 0
26.195000 0.121847 0
26.200000 0.140795 0
26.205000 0.160644 0
26.210000 0.181249 0
26.215000 0.202436 0
26.220000 0.224003 0
26.225000 0.245721 0
26.230000 0.267337 0
26.235000 0.288582 0
26.240000 0.309171 0
26.245000 0.328811 0
26.250000 0.347209 0
26.255000 0.364078 0
26.260000 0.379142 0
26.265000 0.392146 0
26.270000 0.402863 0
26.275000 0.411099 0
26.280000 0.416697 0
26.285000 0.419545 0
26.290000 0.419579 5
26.295000 0.416782 0
26.300000 0.411188 0
26.305000 0.402877 0
26.310000 0.391980 0
26.315000 0.378668 0
26.320000 0.363150 0
26.325000 0.345668 0
26.330000 0.326492 0
26.335000 0.305909 0
26.340000 0.284217 0
26.345000 0.261721 0
26.350000 0.238720 0
26.355000 0.215507 0
26.360000 0.192357 0
26.365000 0.169526 0
26.370000 0.147246 0
26.375000 0.125719 0
26.380000 0.105118 0
26.385000 0.085587 0
26.390000 0.067235 0
26.395000 0.050143 0
26.400000 0.034363 0
26.405000 0.019917 0
26.410000 0.006807 0
26.415000 -0.004991 0
26.420000 -0.015515 0
26.425000 -0.024822 0
26.430000 -0.032977 0
26.435000 -0.040057 0
26.440000 -0.046143 0
26.445000 -0.051319 0
26.450000 -0.055671 0
26.455000 -0.059283 0
26.460000 -0.062238 0
26.465000 -0.064613 0
26.470000 -0.066482 0
26.475000 -0.067912 0
26.480000 -0.068965 0
26.485000 -0.069697 0
26.490000 -0.070157 0
26.495000 -0.070390 0
26.500000 -0.070433 0
26.505000 -0.070320 0
26.510000 -0.070080 0
26.515000 -0.069736 0
26.520000 -0.069309 0
26.525000 -0.068816 0
26.530000 -0.068270 0
26.535000 -0.067684 0
26.540000 -0.067067 0
26.545000 -0.066426 0
26.550000 -0.065768 0
26.555000 -0.065097 0
26.560000 -0.064411 0
26.565000 -0.063698 0
26.570000 -0.062988 0
26.575000 -0.062282 0
26.580000 -0.061579 0
26.585000 -0.060880 0
26.590000 -0.060184 0
26.595000 -0.059492 0
26.600000 -0.058803 0
26.605000 -0.058118 0
26.610000 -0.057436 0
26.615000 -0.056758 0
26.620000 -0.056082 0
26.625000 -0.055411 0
26.630000 -0.054742 0
26.635000 -0.054077 0
26.640000 -0.053415 0
26.645000 -0.052757 0
26.650000 -0.052102 0
26.655000 -0.051450 0
26.660000 -0.050801 0
26.665000 -0.050156 0
26.670000 -0.049513 0
26.675000 -0.048874 0
26.680000 -0.048239 0
26.685000 -0.047606 0
26.690000 -0.046976 0
26.695000 -0.046350 0
26.700000 -0.045727 0
26.705000 -0.045106 0
26.710000 -0.044489 0
26.715000 -0.043875 0
26.720000 -0.043263 0
26.725000 -0.042654 0
26.730000 -0.042046 0
26.735000 -0.041440 0
26.740000 -0.040834 0
26.745000 -0.040225 0
26.750000 -0.039611 0
26.755000 -0.038988 0
26.760000 -0.038348 0
26.765000 -0.037681 0
26.770000 -0.036971 0
26.775000 -0.036199 0
26.780000 -0.035334 0
26.785000 -0.034337 0
26.790000 -0.033154 0
26.795000 -0.031717 0
26.800000 -0.029938 0
26.805000 -0.027707 0
26.810000 -0.024894 0
26.815000 -0.021344 0
26.820000 -0.016884 0
26.825000 -0.011321 0
26.830000 -0.004455 0
26.835000 0.003910 0
26.840000 0.013957 0
26.845000 0.025833 0
26.850000 0.039636 0
26.855000 0.055385 0
26.860000 0.073011 0
26.865000 0.092334 0
26.870000 0.113056 0
26.875000 0.134755 0
26.880000 0.156891 0
26.885000 0.178827 0
26.890000 0.199849 0
26.895000 0.219206 0
26.900000 0.236154 0
26.905000 0.249997 0
26.910000 0.260141 0
26.915000 0.266130 0
26.920000 0.267680 1
26.925000 0.264704 0
26.930000 0.257313 0
26.935000 0.245816 0
26.940000 0.230692 0
26.945000 0.212557 0
26.950000 0.192125 0
26.955000 0.170159 0
26.960000 0.147424 0
26.965000 0.124643 0
26.970000 0.102462 0
26.975000 0.081421 0
26.980000 0.061938 0
26.985000 0.044293 0
26.990000 0.028611 0
26.995000 0.014834 0
27.000000 0.002642 0
27.005000 -0.008664 0
27.010000 -0.020311 0
27.015000 -0.034121 0
27.020000 -0.052319 0
27.025000 -0.076870 0
27.030000 -0.108316 0
27.035000 -0.144422 0
27.040000 -0.179256 0
27.045000 -0.203310 0
27.050000 -0.204746 2
27.055000 -0.171275 0
27.060000 -0.092051 0
27.065000 0.040275 0
27.070000 0.226484 0
27.075000 0.456399 0
27.080000 0.705001 0
27.085000 0.932908 0
27.090000 1.094350 0
27.095000 1.151451 3
27.100000 1.088677 0
27.105000 0.918980 0
27.110000 0.677733 0
27.115000 0.409940 0
27.120000 0.156398 0
27.125000 -0.054541 0
27.130000 -0.208320 0
27.135000 -0.301544 0
27.140000 -0.338871 4
27.145000 -0.330842 0
27.150000 -0.291921 0
27.155000 -0.237797 0
27.160000 -0.182184 0
27.165000 -0.134327 0
27.170000 -0.098245 0
27.175000 -0.073730 0
27.180000 -0.058221 0
27.185000 -0.048569 0
27.190000 -0.042109 0
27.195000 -0.037018 0
27.200000 -0.032221 0
27.205000 -0.027147 0
27.210000 -0.021503 0
27.215000 -0.015129 0
27.220000 -0.007920 0
27.225000 0.000209 0
27.230000 0.009329 0
27.235000 0.019506 0
27.240000 0.030793 0
27.245000 0.043233 0
27.250000 0.056853 0
27.255000 0.071661 0
27.260000 0.087644 0
27.265000 0.104765 0
27.270000 0.122963 0
27.275000 0.142145 0
27.280000 0.162192 0
27.285000 0.182954 0
27.290000 0.204254 0
27.295000 0.225885 0
27.300000 0.247615 0
27.305000 0.269193 0
27.310000 0.290346 0
27.315000 0.310792 0
27.320000 0.330241 0
27.325000 0.348404 0
27.330000 0.364996 0
27.335000 0.379750 0
27.340000 0.392418 0
27.345000 0.402778 0
27.350000 0.410645 0
27.355000 0.415870 0
27.360000 0.418348 5
27.365000 0.418023 0
27.370000 0.414884 0
27.375000 0.408971 0
27.380000 0.400370 0
27.385000 0.389213 0
27.390000 0.375674 0
27.395000 0.359965 0
27.400000 0.342328 0
27.405000 0.323030 0
27.410000 0.302357 0
27.415000 0.280606 0
27.420000 0.258076 0
27.425000 0.235065 0
27.430000 0.211860 0
27.435000 0.188732 0
27.440000 0.165934 0
27.445000 0.143694 0
27.450000 0.122210 0
27.455000 0.101653 0
27.460000 0.082163 0
27.465000 0.063848 0
27.470000 0.046788 0
27.475000 0.031032 0
27.480000 0.016604 0
27.485000 0.003504 0
27.490000 -0.008290 0
27.495000 -0.018817 0
27.500000 -0.028131 0
27.505000 -0.036299 0
27.510000 -0.043394 0
27.515000 -0.049498 0
27.520000 -0.054694 0
27.525000 -0.059067 0
27.530000 -0.062700 0
27.535000 -0.065674 0
27.540000 -0.068067 0
27.545000 -0.069952 0
27.550000 -0.071396 0
27.555000 -0.072460 0
27.560000 -0.073200 0
27.565000 -0.073666 0
27.570000 -0.073902 0
27.575000 -0.073946 0
27.580000 -0.073831 0
27.585000 -0.073587 0
27.590000 -0.073237 0
27.595000 -0.072802 0
27.600000 -0.072300 0
27.605000 -0.071744 0
27.610000 -0.071146 0
27.615000 -0.070516 0
27.620000 -0.069862 0
27.625000 -0.069189 0
27.630000 -0.068504 0
27.635000 -0.067803 0
27.640000 -0.067073 0
27.645000 -0.066346 0
27.650000 -0.065623 0
27.655000 -0.064904 0
27.660000 -0.064188 0
27.665000 -0.063476 0
27.670000 -0.062767 0
27.675000 -0.062062 0
27.680000 -0.061360 0
27.685000 -0.060662 0
27.690000 -0.059968 0
27.695000 -0.059276 0
27.700000 -0.058589 0
27.705000 -0.057904 0
27.710000 -0.057223 0
27.715000 -0.056546 0
27.720000 -0.055872 0
27.725000 -0.055201 0
27.730000 -0.054534 0
27.735000 -0.053870 0
27.740000 -0.053209 0
27.745000 -0.052552 0
27.750000 -0.051897 0
27.755000 -0.051246 0
27.760000 -0.050599 0
27.765000 -0.049954 0
27.770000 -0.049313 0
27.775000 -0.048675 0
27.780000 -0.048040 0
27.785000 -0.047408 0
27.790000 -0.046779 0
27.795000 -0.046153 0
27.800000 -0.045530 0
27.805000 -0.044908 0
27.810000 -0.044289 0
27.815000 -0.043669 0
27.820000 -0.043049 0
27.825000 -0.042425 0
27.830000 -0.041793 0
27.835000 -0.041148 0
27.840000 -0.040481 0
27.845000 -0.039778 0
27.850000 -0.039022 0
27.855000 -0.038187 0
27.860000 -0.037240 0
27.865000 -0.036132 0
27.870000 -0.034802 0
27.875000 -0.033174 0
27.880000 -0.031147 0
27.885000 -0.028602 0
27.890000 -0.025398 0
27.895000 -0.021369 0
27.900000 -0.016335 0
27.905000 -0.010100 0
27.910000 -0.002466 0
27.915000 0.006756 0
27.920000 0.017731 0
27.925000 0.030582 0
27.930000 0.045367 0
27.935000 0.062067 0
27.940000 0.080559 0
27.945000 0.100610 0
27.950000 0.121865 0
27.955000 0.143851 0
27.960000 0.165985 0
27.965000 0.187598 0
27.970000 0.207962 0
27.975000 0.226332 0
27.980000 0.241989 0
27.985000 0.254283 0
27.990000 0.262681 0
27.995000 0.266802 1
28.000000 0.266449 0
28.005000 0.261616 0
28.010000 0.252498 0
28.015000 0.239472 0
28.020000 0.223070 0
28.025000 0.203947 0
28.030000 0.182834 0
28.035000 0.160490 0
28.040000 0.137661 0
28.045000 0.115039 0
28.050000 0.093224 0
28.055000 0.072710 0
28.060000 0.053861 0
28.065000 0.036902 0
28.070000 0.021900 0
28.075000 0.008719 0
28.080000 -0.003069 0
28.085000 -0.014311 0
28.090000 -0.026415 0
28.095000 -0.041350 0
28.100000 -0.061332 0
28.105000 -0.088011 0
28.110000 -0.121227 0
28.115000 -0.157738 0
28.120000 -0.190575 0
28.125000 -0.209504 2
28.130000 -0.202499 0
28.135000 -0.157613 0
28.140000 -0.064830 0
28.145000 0.081755 0
28.150000 0.280562 0
28.155000 0.518074 0
28.160000 0.765722 0
28.165000 0.981994 0
28.170000 1.122049 0
28.175000 1.152399 3
28.180000 1.063988 0
28.185000 0.875579 0
28.190000 0.625208 0
28.195000 0.357288 0
28.200000 0.109959 0
28.205000 -0.091506 0
28.210000 -0.234998 0
28.215000 -0.318716 0
28.220000 -0.348301 4
28.225000 -0.334840 0
28.230000 -0.292914 0
28.235000 -0.237874 0
28.240000 -0.182756 0
28.245000 -0.136044 0
28.250000 -0.101162 0
28.255000 -0.077578 0
28.260000 -0.062651 0
28.265000 -0.053296 0
28.270000 -0.046949 0
28.275000 -0.041873 0
28.280000 -0.037048 0
28.285000 -0.031930 0
28.290000 -0.026241 0
28.295000 -0.019824 0
28.300000 -0.012578 0
28.305000 -0.004420 0
28.310000 0.004722 0
