0.000000 1.122861 3
0.005000 1.047301 0
0.010000 0.853944 0
0.015000 0.587519 0
0.020000 0.301984 0
0.025000 0.043039 0
0.030000 -0.160541 0
0.035000 -0.296626 0
0.040000 -0.365611 0
0.045000 -0.376758 4
0.050000 -0.345575 0
0.055000 -0.290688 0
0.060000 -0.229675 0
0.065000 -0.175241 0
0.070000 -0.133499 0
0.075000 -0.104855 0
0.080000 -0.086416 0
0.085000 -0.074403 0
0.090000 -0.065632 0
0.095000 -0.057983 0
0.100000 -0.050260 0
0.105000 -0.041857 0
0.110000 -0.032477 0
0.115000 -0.021965 0
0.120000 -0.010227 0
0.125000 0.002802 0
0.130000 0.017161 0
0.135000 0.032870 0
0.140000 0.049918 0
0.145000 0.068269 0
0.150000 0.087851 0
0.155000 0.108557 0
0.160000 0.130244 0
0.165000 0.152730 0
0.170000 0.175798 0
0.175000 0.199195 0
0.180000 0.222636 0
0.185000 0.245811 0
0.190000 0.268388 0
0.195000 0.290024 0
0.200000 0.310369 0
0.205000 0.329078 0
0.210000 0.345821 0
0.215000 0.360288 0
0.220000 0.372205 0
0.225000 0.381337 0
0.230000 0.387498 0
0.235000 0.390555 5
0.240000 0.390435 0
0.245000 0.387127 0
0.250000 0.380680 0
0.255000 0.371205 0
0.260000 0.358870 0
0.265000 0.343895 0
0.270000 0.326544 0
0.275000 0.307121 0
0.280000 0.285955 0
0.285000 0.263397 0
0.290000 0.239805 0
0.295000 0.215539 0
0.300000 0.190948 0
0.305000 0.166363 0
0.310000 0.142093 0
0.315000 0.118416 0
0.320000 0.095574 0
0.325000 0.073774 0
0.330000 0.053184 0
0.335000 0.033930 0
0.340000 0.016102 0
0.345000 -0.000244 0
0.350000 -0.015088 0
0.355000 -0.028440 0
0.360000 -0.040332 0
0.365000 -0.050819 0
0.370000 -0.059975 0
0.375000 -0.067884 0
0.380000 -0.074640 0
0.385000 -0.080342 0
0.390000 -0.085091 0
0.395000 -0.088988 0
0.400000 -0.092131 0
0.405000 -0.094612 0
0.410000 -0.096518 0
0.415000 -0.097931 0
0.420000 -0.098923 0
0.425000 -0.099560 0
0.430000 -0.099900 0
0.435000 -0.099993 0
0.440000 -0.099884 0
0.445000 -0.099610 0
0.450000 -0.099203 0
0.455000 -0.098691 0
0.460000 -0.098094 0
0.465000 -0.097433 0
0.470000 -0.096720 0
0.475000 -0.095970 0
0.480000 -0.095176 0
0.485000 -0.094301 0
0.490000 -0.093431 0
0.495000 -0.092566 0
0.500000 -0.091704 0
0.505000 -0.090847 0
0.510000 -0.089994 0
0.515000 -0.089145 0
0.520000 -0.088301 0
0.525000 -0.087461 0
0.530000 -0.086625 0
0.535000 -0.085793 0
0.540000 -0.084965 0
0.545000 -0.084142 0
0.550000 -0.083322 0
0.555000 -0.082507 0
0.560000 -0.081696 0
0.565000 -0.080888 0
0.570000 -0.080085 0
0.575000 -0.079286 0
0.580000 -0.078491 0
0.585000 -0.077699 0
0.590000 -0.076912 0
0.595000 -0.076128 0
0.600000 -0.075348 0
0.605000 -0.074572 0
0.610000 -0.073799 0
0.615000 -0.073029 0
0.620000 -0.072261 0
0.625000 -0.071495 0
0.630000 -0.070727 0
0.635000 -0.069955 0
0.640000 -0.069174 0
0.645000 -0.068376 0
0.650000 -0.067551 0
0.655000 -0.066680 0
0.660000 -0.065740 0
0.665000 -0.064695 0
0.670000 -0.063499 0
0.675000 -0.062086 0
0.680000 -0.060371 0
0.685000 -0.058246 0
0.690000 -0.055574 0
0.695000 -0.052191 0
0.700000 -0.047905 0
0.705000 -0.042500 0
0.710000 -0.035742 0
0.715000 -0.027394 0
0.720000 -0.017229 0
0.725000 -0.005052 0
0.730000 0.009271 0
0.735000 0.025794 0
0.740000 0.044458 0
0.745000 0.065073 0
0.750000 0.087300 0
0.755000 0.110646 0
0.760000 0.134473 0
0.765000 0.158017 0
0.770000 0.180425 0
0.775000 0.200803 0
0.780000 0.218274 0
0.785000 0.232042 0
0.790000 0.241445 0
0.795000 0.246017 1
0.800000 0.245515 0
0.805000 0.239950 0
0.810000 0.229581 0
0.815000 0.214893 0
0.820000 0.196567 0
0.825000 0.175418 0
0.830000 0.152342 0
0.835000 0.128248 0
0.840000 0.104005 0
0.845000 0.080387 0
0.850000 0.058037 0
0.855000 0.037433 0
0.860000 0.018855 0
0.865000 0.002321 0
0.870000 -0.012520 0
0.875000 -0.026565 0
0.880000 -0.041442 0
0.885000 -0.059509 0
0.890000 -0.083382 0
0.895000 -0.114765 0
0.900000 -0.152720 0
0.905000 -0.192087 0
0.910000 -0.223025 0
0.915000 -0.232154 2
0.920000 -0.204855 0
0.925000 -0.127783 0
0.930000 0.008502 0
0.935000 0.205729 0
0.940000 0.452281 0
0.945000 0.718088 0
0.950000 0.955534 0
0.955000 1.110668 0
0.960000 1.142385 3
0.965000 1.040596 0
0.970000 0.829148 0
0.975000 0.555182 0
0.980000 0.271250 0
0.985000 0.019650 0
0.990000 -0.174228 0
0.995000 -0.300640 0
1.000000 -0.361393 0
1.005000 -0.366519 4
1.010000 -0.331787 0
1.015000 -0.275565 0
1.020000 -0.214759 0
1.025000 -0.161264 0
1.030000 -0.120553 0
1.035000 -0.092698 0
1.040000 -0.074741 0
1.045000 -0.062978 0
1.050000 -0.054327 0
1.055000 -0.046743 0
1.060000 -0.039071 0
1.065000 -0.030722 0
1.070000 -0.021406 0
1.075000 -0.010972 0
1.080000 0.000675 0
1.085000 0.013598 0
1.090000 0.027836 0
1.095000 0.043410 0
1.100000 0.060311 0
1.105000 0.078505 0
1.110000 0.097924 0
1.115000 0.118467 0
1.120000 0.139996 0
1.125000 0.162338 0
1.130000 0.185283 0
1.135000 0.208588 0
1.140000 0.231978 0
1.145000 0.255151 0
1.150000 0.277787 0
1.155000 0.299548 0
1.160000 0.320093 0
1.165000 0.339082 0
1.170000 0.356188 0
1.175000 0.371103 0
1.180000 0.383550 0
1.185000 0.393289 0
1.190000 0.400125 0
1.195000 0.403916 0
1.200000 0.404575 5
1.205000 0.402074 0
1.210000 0.396447 0
1.215000 0.387784 0
1.220000 0.376235 0
1.225000 0.362000 0
1.230000 0.345325 0
1.235000 0.326497 0
1.240000 0.305831 0
1.245000 0.283666 0
1.250000 0.260350 0
1.255000 0.236237 0
1.260000 0.211673 0
1.265000 0.186992 0
1.270000 0.162506 0
1.275000 0.138500 0
1.280000 0.115225 0
1.285000 0.092901 0
1.290000 0.071707 0
1.295000 0.051786 0
1.300000 0.033242 0
1.305000 0.016145 0
1.310000 0.000530 0
1.315000 -0.013598 0
1.320000 -0.026261 0
1.325000 -0.037503 0
1.330000 -0.047386 0
1.335000 -0.055988 0
1.340000 -0.063398 0
1.345000 -0.069708 0
1.350000 -0.075019 0
1.355000 -0.079430 0
1.360000 -0.083037 0
1.365000 -0.085936 0
1.370000 -0.088215 0
1.375000 -0.089957 0
1.380000 -0.091239 0
1.385000 -0.092129 0
1.390000 -0.092688 0
1.395000 -0.092972 0
1.400000 -0.093027 0
1.405000 -0.092895 0
1.410000 -0.092610 0
1.415000 -0.092202 0
1.420000 -0.091697 0
1.425000 -0.091114 0
1.430000 -0.090471 0
1.435000 -0.089781 0
1.440000 -0.089056 0
1.445000 -0.088290 0
1.450000 -0.087450 0
1.455000 -0.086614 0
1.460000 -0.085783 0
1.465000 -0.084955 0
1.470000 -0.084131 0
1.475000 -0.083312 0
1.480000 -0.082497 0
1.485000 -0.081685 0
1.490000 -0.080878 0
1.495000 -0.080075 0
1.500000 -0.079276 0
1.505000 -0.078481 0
1.510000 -0.077689 0
1.515000 -0.076902 0
1.520000 -0.076119 0
1.525000 -0.075339 0
1.530000 -0.074564 0
1.535000 -0.073792 0
1.540000 -0.073024 0
1.545000 -0.072260 0
1.550000 -0.071500 0
1.555000 -0.070744 0
1.560000 -0.069991 0
1.565000 -0.069242 0
1.570000 -0.068496 0
1.575000 -0.067753 0
1.580000 -0.067013 0
1.585000 -0.066276 0
1.590000 -0.065539 0
1.595000 -0.064801 0
1.600000 -0.064059 0
1.605000 -0.063309 0
1.610000 -0.062542 0
1.615000 -0.061749 0
1.620000 -0.060913 0
1.625000 -0.060011 0
1.630000 -0.059011 0
1.635000 -0.057866 0
1.640000 -0.056517 0
1.645000 -0.054882 0
1.650000 -0.052859 0
1.655000 -0.050319 0
1.660000 -0.047105 0
1.665000 -0.043034 0
1.670000 -0.037898 0
1.675000 -0.031471 0
1.680000 -0.023519 0
1.685000 -0.013816 0
1.690000 -0.002163 0
1.695000 0.011589 0
1.700000 0.027515 0
1.705000 0.045587 0
1.710000 0.065656 0
1.715000 0.087430 0
1.720000 0.110470 0
1.725000 0.134191 0
1.730000 0.157878 0
1.735000 0.180718 0
1.740000 0.201843 0
1.745000 0.220380 0
1.750000 0.235515 0
1.755000 0.246545 0
1.760000 0.252938 0
1.765000 0.254370 1
1.770000 0.250756 0
1.775000 0.242253 0
1.780000 0.229251 0
1.785000 0.212345 0
1.790000 0.192283 0
1.795000 0.169917 0
1.800000 0.146141 0
1.805000 0.121831 0
1.810000 0.097794 0
1.815000 0.074727 0
1.820000 0.053180 0
1.825000 0.033529 0
1.830000 0.015931 0
1.835000 0.000248 0
1.840000 -0.014095 0
1.845000 -0.028291 0
1.850000 -0.044283 0
1.855000 -0.064592 0
1.860000 -0.091579 0
1.865000 -0.126037 0
1.870000 -0.165480 0
1.875000 -0.202956 0
1.880000 -0.227228 2
1.885000 -0.224411 0
1.890000 -0.180354 0
1.895000 -0.083043 0
1.900000 0.074626 0
1.905000 0.290524 0
1.910000 0.547592 0
1.915000 0.810198 0
1.920000 1.027987 0
1.925000 1.149732 3
1.930000 1.142957 0
1.935000 1.007694 0
1.940000 0.774721 0
1.945000 0.493423 0
1.950000 0.213919 0
1.955000 -0.026107 0
1.960000 -0.205613 0
1.965000 -0.317895 0
1.970000 -0.366632 4
1.975000 -0.362958 0
1.980000 -0.323067 0
1.985000 -0.265000 0
1.990000 -0.204705 0
1.995000 -0.152877 0
2.000000 -0.113993 0
2.005000 -0.087572 0
2.010000 -0.070516 0
2.015000 -0.059214 0
2.020000 -0.050747 0
2.025000 -0.043205 0
2.030000 -0.035515 0
2.035000 -0.027129 0
2.040000 -0.017776 0
2.045000 -0.007311 0
2.050000 0.004355 0
2.055000 0.017284 0
2.060000 0.031515 0
2.065000 0.047066 0
2.070000 0.063930 0
2.075000 0.082074 0
2.080000 0.101431 0
2.085000 0.121904 0
2.090000 0.143360 0
2.095000 0.165631 0
2.100000 0.188513 0
2.105000 0.211771 0
2.110000 0.235138 0
2.115000 0.258322 0
2.120000 0.281010 0
2.125000 0.302873 0
2.130000 0.323578 0
2.135000 0.342791 0
2.140000 0.360188 0
2.145000 0.375466 0
2.150000 0.388348 0
2.155000 0.398590 0
2.160000 0.405994 0
2.165000 0.410410 0
2.170000 0.411741 5
2.175000 0.409947 0
2.180000 0.405045 0
2.185000 0.397113 0
2.190000 0.386282 0
2.195000 0.372735 0
2.200000 0.356702 0
2.205000 0.338453 0
2.210000 0.318290 0
2.215000 0.296537 0
2.220000 0.273534 0
2.225000 0.249627 0
2.230000 0.225158 0
2.235000 0.200459 0
2.240000 0.175844 0
2.245000 0.151602 0
2.250000 0.127993 0
2.255000 0.105244 0
2.260000 0.083546 0
2.265000 0.063054 0
2.270000 0.043887 0
2.275000 0.026126 0
2.280000 0.009820 0
2.285000 -0.005012 0
2.290000 -0.018381 0
2.295000 -0.030318 0
2.300000 -0.040879 0
2.305000 -0.050131 0
2.310000 -0.058156 0
2.315000 -0.065044 0
2.320000 -0.070890 0
2.325000 -0.075792 0
2.330000 -0.079845 0
2.335000 -0.083144 0
2.340000 -0.085779 0
2.345000 -0.087836 0
2.350000 -0.089393 0
2.355000 -0.090521 0
2.360000 -0.091286 0
2.365000 -0.091744 0
2.370000 -0.091947 0
2.375000 -0.091939 0
2.380000 -0.091758 0
2.385000 -0.091436 0
2.390000 -0.091000 0
2.395000 -0.090475 0
2.400000 -0.089878 0
2.405000 -0.089226 0
2.410000 -0.088531 0
2.415000 -0.087803 0
2.420000 -0.086982 0
2.425000 -0.086148 0
2.430000 -0.085319 0
2.435000 -0.084493 0
2.440000 -0.083672 0
2.445000 -0.082855 0
2.450000 -0.082042 0
2.455000 -0.081233 0
2.460000 -0.080428 0
2.465000 -0.079627 0
2.470000 -0.078830 0
2.475000 -0.078037 0
2.480000 -0.077248 0
2.485000 -0.076463 0
2.490000 -0.075682 0
2.495000 -0.074905 0
2.500000 -0.074131 0
2.505000 -0.073362 0
2.510000 -0.072596 0
2.515000 -0.071834 0
2.520000 -0.071076 0
2.525000 -0.070322 0
2.530000 -0.069571 0
2.535000 -0.068824 0
2.540000 -0.068081 0
2.545000 -0.067341 0
2.550000 -0.066604 0
2.555000 -0.065870 0
2.560000 -0.065138 0
2.565000 -0.064407 0
2.570000 -0.063675 0
2.575000 -0.062940 0
2.580000 -0.062196 0
2.585000 -0.061438 0
2.590000 -0.060654 0
2.595000 -0.059831 0
2.600000 -0.058945 0
2.605000 -0.057967 0
2.610000 -0.056854 0
2.615000 -0.055549 0
2.620000 -0.053977 0
2.625000 -0.052041 0
2.630000 -0.049619 0
2.635000 -0.046564 0
2.640000 -0.042701 0
2.645000 -0.037833 0
2.650000 -0.031739 0
2.655000 -0.024194 0
2.660000 -0.014971 0
2.665000 -0.003868 0
2.670000 0.009279 0
2.675000 0.024563 0
2.680000 0.041991 0
2.685000 0.061452 0
2.690000 0.082708 0
2.695000 0.105373 0
2.700000 0.128921 0
2.705000 0.152693 0
2.710000 0.175924 0
2.715000 0.197776 0
2.720000 0.217392 0
2.725000 0.233943 0
2.730000 0.246693 0
2.735000 0.255048 0
2.740000 0.258601 1
2.745000 0.257167 0
2.750000 0.250798 0
2.755000 0.239776 0
2.760000 0.224596 0
2.765000 0.205926 0
2.770000 0.184561 0
2.775000 0.161362 0
2.780000 0.137203 0
2.785000 0.112915 0
2.790000 0.089241 0
2.795000 0.066799 0
2.800000 0.046054 0
2.805000 0.027286 0
2.810000 0.010534 0
2.815000 -0.004498 0
2.820000 -0.018601 0
2.825000 -0.033235 0
2.830000 -0.050571 0
2.835000 -0.073142 0
2.840000 -0.102882 0
2.845000 -0.139595 0
2.850000 -0.179388 0
2.855000 -0.213924 0
2.860000 -0.231106 2
2.865000 -0.216990 0
2.870000 -0.158117 0
2.875000 -0.043824 0
2.880000 0.130767 0
2.885000 0.360085 0
2.890000 0.622714 0
2.895000 0.879297 0
2.900000 1.078687 0
2.905000 1.173215 3
2.910000 1.137101 0
2.915000 0.977294 0
2.920000 0.729690 0
2.925000 0.444863 0
2.930000 0.170759 0
2.935000 -0.058530 0
2.940000 -0.225249 0
2.945000 -0.325034 0
2.950000 -0.363117 4
2.955000 -0.351651 0
2.960000 -0.307295 0
2.965000 -0.247857 0
2.970000 -0.188433 0
2.975000 -0.138594 0
2.980000 -0.101849 0
2.985000 -0.077143 0
2.990000 -0.061208 0
2.995000 -0.050513 0
3.000000 -0.042307 0
3.005000 -0.034831 0
3.010000 -0.027109 0
3.015000 -0.018647 0
3.020000 -0.009200 0
3.025000 0.001367 0
3.030000 0.013139 0
3.035000 0.026173 0
3.040000 0.040507 0
3.045000 0.056155 0
3.050000 0.073109 0
3.055000 0.091332 0
3.060000 0.110755 0
3.065000 0.131279 0
3.070000 0.152769 0
3.075000 0.175055 0
3.080000 0.197934 0
3.085000 0.221169 0
3.090000 0.244494 0
3.095000 0.267618 0
3.100000 0.290229 0
3.105000 0.312002 0
3.110000 0.332605 0
3.115000 0.351709 0
3.120000 0.368992 0
3.125000 0.384155 0
3.130000 0.396923 0
3.135000 0.407058 0
3.140000 0.414364 0
3.145000 0.418692 0
3.150000 0.419947 5
3.155000 0.418091 0
3.160000 0.413142 0
3.165000 0.405176 0
3.170000 0.394322 0
3.175000 0.380764 0
3.180000 0.364727 0
3.185000 0.346480 0
3.190000 0.326320 0
3.195000 0.304570 0
3.200000 0.281565 0
3.205000 0.257649 0
3.210000 0.233162 0
3.215000 0.208432 0
3.220000 0.183772 0
3.225000 0.159470 0
3.230000 0.135785 0
3.235000 0.112944 0
3.240000 0.091140 0
3.245000 0.070527 0
3.250000 0.051226 0
3.255000 0.033321 0
3.260000 0.016863 0
3.265000 0.001872 0
3.270000 -0.011659 0
3.275000 -0.023761 0
3.280000 -0.034486 0
3.285000 -0.043900 0
3.290000 -0.052082 0
3.295000 -0.059122 0
3.300000 -0.065113 0
3.305000 -0.070151 0
3.310000 -0.074332 0
3.315000 -0.077750 0
3.320000 -0.080496 0
3.325000 -0.082654 0
3.330000 -0.084303 0
3.335000 -0.085515 0
3.340000 -0.086356 0
3.345000 -0.086883 0
3.350000 -0.087149 0
3.355000 -0.087197 0
3.360000 -0.087066 0
3.365000 -0.086790 0
3.370000 -0.086397 0
3.375000 -0.085910 0
3.380000 -0.085349 0
3.385000 -0.084729 0
3.390000 -0.084065 0
3.395000 -0.083366 0
3.400000 -0.082628 0
3.405000 -0.081816 0
3.410000 -0.081009 0
3.415000 -0.080205 0
3.420000 -0.079405 0
3.425000 -0.078609 0
3.430000 -0.077817 0
3.435000 -0.077029 0
3.440000 -0.076245 0
3.445000 -0.075465 0
3.450000 -0.074689 0
3.455000 -0.073917 0
3.460000 -0.073148 0
3.465000 -0.072384 0
3.470000 -0.071623 0
3.475000 -0.070866 0
3.480000 -0.070113 0
3.485000 -0.069363 0
3.490000 -0.068617 0
3.495000 -0.067875 0
3.500000 -0.067137 0
3.505000 -0.066402 0
3.510000 -0.065671 0
3.515000 -0.064944 0
3.520000 -0.064220 0
3.525000 -0.063499 0
3.530000 -0.062782 0
3.535000 -0.062067 0
3.540000 -0.061355 0
3.545000 -0.060644 0
3.550000 -0.059932 0
3.555000 -0.059218 0
3.560000 -0.058498 0
3.565000 -0.057766 0
3.570000 -0.057012 0
3.575000 -0.056224 0
3.580000 -0.055384 0
3.585000 -0.054463 0
3.590000 -0.053425 0
3.595000 -0.052220 0
3.600000 -0.050778 0
3.605000 -0.049013 0
3.610000 -0.046815 0
3.615000 -0.044047 0
3.620000 -0.040546 0
3.625000 -0.036124 0
3.630000 -0.030573 0
3.635000 -0.023669 0
3.640000 -0.015186 0
3.645000 -0.004910 0
3.650000 0.007338 0
3.655000 0.021684 0
3.660000 0.038175 0
3.665000 0.056752 0
3.670000 0.077237 0
3.675000 0.099312 0
3.680000 0.122518 0
3.685000 0.146256 0
3.690000 0.169813 0
3.695000 0.192386 0
3.700000 0.213127 0
3.705000 0.231194 0
3.710000 0.245808 0
3.715000 0.256306 0
3.720000 0.262192 0
3.725000 0.263174 1
3.730000 0.259187 0
3.735000 0.250400 0
3.740000 0.237203 0
3.745000 0.220179 0
3.750000 0.200059 0
3.755000 0.177671 0
3.760000 0.153880 0
3.765000 0.129540 0
3.770000 0.105437 0
3.775000 0.082254 0
3.780000 0.060536 0
3.785000 0.040662 0
3.790000 0.022809 0
3.795000 0.006880 0
3.800000 -0.007618 0
3.805000 -0.021747 0
3.810000 -0.037279 0
3.815000 -0.056598 0
3.820000 -0.082117 0
3.825000 -0.115050 0
3.830000 -0.153806 0
3.835000 -0.192682 0
3.840000 -0.221690 0
3.845000 -0.227806 2
3.850000 -0.197123 0
3.855000 -0.117133 0
3.860000 0.020879 0
3.865000 0.218303 0
3.870000 0.464048 0
3.875000 0.729884 0
3.880000 0.971048 0
3.885000 1.135980 0
3.890000 1.183500 3
3.895000 1.098916 0
3.900000 0.900403 0
3.905000 0.632174 0
3.910000 0.346432 0
3.915000 0.087163 0
3.920000 -0.117800 0
3.925000 -0.256498 0
3.930000 -0.328974 0
3.935000 -0.343816 4
3.940000 -0.315696 0
3.945000 -0.262526 0
3.950000 -0.201613 0
3.955000 -0.145943 0
3.960000 -0.102293 0
3.965000 -0.071757 0
3.970000 -0.051889 0
3.975000 -0.039048 0
3.980000 -0.029972 0
3.985000 -0.022384 0
3.990000 -0.014943 0
3.995000 -0.006950 0
4.000000 0.001941 0
4.005000 0.011909 0
4.010000 0.023058 0
4.015000 0.035456 0
4.020000 0.049152 0
4.025000 0.064170 0
4.030000 0.080512 0
4.035000 0.098153 0
4.040000 0.117036 0
4.045000 0.137073 0
4.050000 0.158142 0
4.055000 0.180084 0
4.060000 0.202704 0
4.065000 0.225775 0
4.070000 0.249036 0
4.075000 0.272201 0
4.080000 0.294958 0
4.085000 0.316982 0
4.090000 0.337936 0
4.095000 0.357484 0
4.100000 0.375297 0
4.105000 0.391061 0
4.110000 0.404491 0
4.115000 0.415331 0
4.120000 0.423370 0
4.125000 0.428443 0
4.130000 0.430440 5
4.135000 0.429305 0
4.140000 0.425043 0
4.145000 0.417717 0
4.150000 0.407446 0
4.155000 0.394404 0
4.160000 0.378811 0
4.165000 0.360932 0
4.170000 0.341064 0
4.175000 0.319529 0
4.180000 0.296667 0
4.185000 0.272826 0
4.190000 0.248352 0
4.195000 0.223582 0
4.200000 0.198836 0
4.205000 0.174410 0
4.210000 0.150573 0
4.215000 0.127559 0
4.220000 0.105568 0
4.225000 0.084762 0
4.230000 0.065268 0
4.235000 0.047173 0
4.240000 0.030532 0
4.245000 0.015370 0
4.250000 0.001680 0
4.255000 -0.010567 0
4.260000 -0.021422 0
4.265000 -0.030953 0
4.270000 -0.039240 0
4.275000 -0.046372 0
4.280000 -0.052444 0
4.285000 -0.057555 0
4.290000 -0.061801 0
4.295000 -0.065279 0
4.300000 -0.068079 0
4.305000 -0.070288 0
4.310000 -0.071985 0
4.315000 -0.073244 0
4.320000 -0.074131 0
4.325000 -0.074705 0
4.330000 -0.075017 0
4.335000 -0.075112 0
4.340000 -0.075029 0
4.345000 -0.074803 0
4.350000 -0.074459 0
4.355000 -0.074023 0
4.360000 -0.073514 0
4.365000 -0.072947 0
4.370000 -0.072337 0
4.375000 -0.071692 0
4.380000 -0.070951 0
4.385000 -0.070198 0
4.390000 -0.069448 0
4.395000 -0.068702 0
4.400000 -0.067959 0
4.405000 -0.067220 0
4.410000 -0.066485 0
4.415000 -0.065754 0
4.420000 -0.065026 0
4.425000 -0.064302 0
4.430000 -0.063581 0
4.435000 -0.062865 0
4.440000 -0.062151 0
4.445000 -0.061441 0
4.450000 -0.060735 0
4.455000 -0.060032 0
4.460000 -0.059333 0
4.465000 -0.058638 0
4.470000 -0.057945 0
4.475000 -0.057256 0
4.480000 -0.056571 0
4.485000 -0.055889 0
4.490000 -0.055210 0
4.495000 -0.054535 0
4.500000 -0.053863 0
4.505000 -0.053194 0
4.510000 -0.052528 0
4.515000 -0.051864 0
4.520000 -0.051202 0
4.525000 -0.050540 0
4.530000 -0.049877 0
4.535000 -0.049210 0
4.540000 -0.048534 0
4.545000 -0.047843 0
4.550000 -0.047125 0
4.555000 -0.046366 0
4.560000 -0.045542 0
4.565000 -0.044624 0
4.570000 -0.043566 0
4.575000 -0.042310 0
4.580000 -0.040779 0
4.585000 -0.038874 0
4.590000 -0.036471 0
4.595000 -0.033417 0
4.600000 -0.029537 0
4.605000 -0.024626 0
4.610000 -0.018465 0
4.615000 -0.010823 0
4.620000 -0.001475 0
4.625000 0.009780 0
4.630000 0.023100 0
4.635000 0.038572 0
4.640000 0.056189 0
4.645000 0.075826 0
4.650000 0.097223 0
4.655000 0.119977 0
4.660000 0.143538 0
4.665000 0.167227 0
4.670000 0.190260 0
4.675000 0.211788 0
4.680000 0.230948 0
4.685000 0.246917 0
4.690000 0.258970 0
4.695000 0.266536 0
4.700000 0.269238 1
4.705000 0.266929 0
4.710000 0.259698 0
4.715000 0.247868 0
4.720000 0.231971 0
4.725000 0.212706 0
4.730000 0.190888 0
4.735000 0.167392 0
4.740000 0.143095 0
4.745000 0.118818 0
4.750000 0.095289 0
4.755000 0.073103 0
4.760000 0.052692 0
4.765000 0.034294 0
4.770000 0.017890 0
4.775000 0.003091 0
4.780000 -0.011031 0
4.785000 -0.026109 0
4.790000 -0.044459 0
4.795000 -0.068604 0
4.800000 -0.100149 0
4.805000 -0.138155 0
4.810000 -0.177664 0
4.815000 -0.209254 0
4.820000 -0.220082 2
4.825000 -0.196010 0
4.830000 -0.123966 0
4.835000 0.005650 0
4.840000 0.195559 0
4.845000 0.436467 0
4.850000 0.701965 0
4.855000 0.948214 0
4.860000 1.122855 0
4.865000 1.182195 3
4.870000 1.107958 0
4.875000 0.915488 0
4.880000 0.649310 0
4.885000 0.363417 0
4.890000 0.103694 0
4.895000 -0.100868 0
4.900000 -0.237972 0
4.905000 -0.307901 0
4.910000 -0.319846 4
4.915000 -0.289273 0
4.920000 -0.234806 0
4.925000 -0.174064 0
4.930000 -0.119814 0
4.935000 -0.078232 0
4.940000 -0.049764 0
4.945000 -0.031533 0
4.950000 -0.019758 0
4.955000 -0.011244 0
4.960000 -0.003864 0
4.965000 0.003585 0
4.970000 0.011714 0
4.975000 0.020820 0
4.980000 0.031058 0
4.985000 0.042524 0
4.990000 0.055281 0
4.995000 0.069371 0
5.000000 0.084812 0
5.005000 0.101595 0
5.010000 0.119682 0
5.015000 0.139002 0
5.020000 0.159448 0
5.025000 0.180877 0
5.030000 0.203108 0
5.035000 0.225923 0
5.040000 0.249069 0
5.045000 0.272261 0
5.050000 0.295189 0
5.055000 0.317522 0
5.060000 0.338914 0
5.065000 0.359018 0
5.070000 0.377487 0
5.075000 0.393990 0
5.080000 0.408219 0
5.085000 0.419898 0
5.090000 0.428793 0
5.095000 0.434717 0
5.100000 0.437538 5
5.105000 0.437182 0
5.110000 0.433638 0
5.115000 0.426956 0
5.120000 0.417246 0
5.125000 0.404677 0
5.130000 0.389468 0
5.135000 0.371885 0
5.140000 0.352231 0
5.145000 0.330836 0
5.150000 0.308050 0
5.155000 0.284232 0
5.160000 0.259742 0
5.165000 0.234929 0
5.170000 0.210125 0
5.175000 0.185639 0
5.180000 0.161747 0
5.185000 0.138693 0
5.190000 0.116684 0
5.195000 0.095885 0
5.200000 0.076426 0
5.205000 0.058395 0
5.210000 0.041846 0
5.215000 0.026801 0
5.220000 0.013251 0
5.225000 0.001160 0
5.230000 -0.009525 0
5.235000 -0.018877 0
5.240000 -0.026982 0
5.245000 -0.033933 0
5.250000 -0.039830 0
5.255000 -0.044774 0
5.260000 -0.048865 0
5.265000 -0.052201 0
5.270000 -0.054875 0
5.275000 -0.056975 0
5.280000 -0.058581 0
5.285000 -0.059765 0
5.290000 -0.060594 0
5.295000 -0.061125 0
5.300000 -0.061409 0
5.305000 -0.061490 0
5.310000 -0.061406 0
5.315000 -0.061189 0
5.320000 -0.060865 0
5.325000 -0.060456 0
5.330000 -0.059981 0
5.335000 -0.059455 0
5.340000 -0.058890 0
5.345000 -0.058281 0
5.350000 -0.057590 0
5.355000 -0.056903 0
5.360000 -0.056220 0
5.365000 -0.055539 0
5.370000 -0.054863 0
5.375000 -0.054189 0
5.380000 -0.053519 0
5.385000 -0.052852 0
5.390000 -0.052189 0
5.395000 -0.051529 0
5.400000 -0.050872 0
5.405000 -0.050218 0
5.410000 -0.049568 0
5.415000 -0.048921 0
5.420000 -0.048277 0
5.425000 -0.047637 0
5.430000 -0.046999 0
5.435000 -0.046365 0
5.440000 -0.045734 0
5.445000 -0.045106 0
5.450000 -0.044481 0
5.455000 -0.043860 0
5.460000 -0.043241 0
5.465000 -0.042625 0
5.470000 -0.042012 0
5.475000 -0.041402 0
5.480000 -0.040793 0
5.485000 -0.040186 0
5.490000 -0.039579 0
5.495000 -0.038970 0
5.500000 -0.038357 0
5.505000 -0.037733 0
5.510000 -0.037091 0
5.515000 -0.036421 0
5.520000 -0.035704 0
5.525000 -0.034916 0
5.530000 -0.034023 0
5.535000 -0.032975 0
5.540000 -0.031708 0
5.545000 -0.030136 0
5.550000 -0.028149 0
5.555000 -0.025611 0
5.560000 -0.022357 0
5.565000 -0.018194 0
5.570000 -0.012904 0
5.575000 -0.006255 0
5.580000 0.001992 0
5.585000 0.012063 0
5.590000 0.024151 0
5.595000 0.038390 0
5.600000 0.054830 0
5.605000 0.073409 0
5.610000 0.093932 0
5.615000 0.116057 0
5.620000 0.139287 0
5.625000 0.162977 0
5.630000 0.186362 0
5.635000 0.208585 0
5.640000 0.228752 0
5.645000 0.245987 0
5.650000 0.259496 0
5.655000 0.268624 0
5.660000 0.272908 1
5.665000 0.272114 0
5.670000 0.266261 0
5.675000 0.255615 0
5.680000 0.240669 0
5.685000 0.222108 0
5.690000 0.200752 0
5.695000 0.177498 0
5.700000 0.153257 0
5.705000 0.128894 0
5.710000 0.105181 0
5.715000 0.082755 0
5.720000 0.062090 0
5.725000 0.043456 0
5.730000 0.026863 0
5.735000 0.011944 0
5.740000 -0.002223 0
5.745000 -0.017293 0
5.750000 -0.035645 0
5.755000 -0.059891 0
5.760000 -0.091671 0
5.765000 -0.129917 0
5.770000 -0.169297 0
5.775000 -0.199804 0
5.780000 -0.207961 2
5.785000 -0.179142 0
5.790000 -0.100094 0
5.795000 0.038421 0
5.800000 0.237736 0
5.805000 0.485595 0
5.810000 0.751164 0
5.815000 0.986276 0
5.820000 1.137066 0
5.825000 1.163322 3
5.830000 1.055000 0
5.835000 0.837016 0
5.840000 0.559747 0
5.845000 0.277693 0
5.850000 0.033144 0
5.855000 -0.149879 0
5.860000 -0.263484 0
5.865000 -0.311425 4
5.870000 -0.305709 0
5.875000 -0.263832 0
5.880000 -0.205029 0
5.885000 -0.145793 0
5.890000 -0.096522 0
5.895000 -0.060851 0
5.900000 -0.037431 0
5.905000 -0.022638 0
5.910000 -0.012752 0
5.915000 -0.005002 0
5.920000 0.002295 0
5.925000 0.010031 0
5.930000 0.018637 0
5.935000 0.028328 0
5.940000 0.039225 0
5.945000 0.051405 0
5.950000 0.064922 0
5.955000 0.079803 0
5.960000 0.096051 0
5.965000 0.113641 0
5.970000 0.132513 0
5.975000 0.152570 0
5.980000 0.173679 0
5.985000 0.195668 0
5.990000 0.218325 0
5.995000 0.241401 0
6.000000 0.264615 0
6.005000 0.287655 0
6.010000 0.310185 0
6.015000 0.331855 0
6.020000 0.352307 0
6.025000 0.371184 0
6.030000 0.388142 0
6.035000 0.402859 0
6.040000 0.415045 0
6.045000 0.424449 0
6.050000 0.430872 0
6.055000 0.434167 0
6.060000 0.434252 5
6.065000 0.431104 0
6.070000 0.424768 0
6.075000 0.415350 0
6.080000 0.403018 0
6.085000 0.387992 0
6.090000 0.370542 0
6.095000 0.350978 0
6.100000 0.329636 0
6.105000 0.306876 0
6.110000 0.283067 0
6.115000 0.258576 0
6.120000 0.233762 0
6.125000 0.208966 0
6.130000 0.184503 0
6.135000 0.160656 0
6.140000 0.137673 0
6.145000 0.115762 0
6.150000 0.095090 0
6.155000 0.075785 0
6.160000 0.057935 0
6.165000 0.041590 0
6.170000 0.026768 0
6.175000 0.013455 0
6.180000 0.001613 0
6.185000 -0.008819 0
6.190000 -0.017919 0
6.195000 -0.025774 0
6.200000 -0.032484 0
6.205000 -0.038151 0
6.210000 -0.042878 0
6.215000 -0.046768 0
6.220000 -0.049921 0
6.225000 -0.052430 0
6.230000 -0.054382 0
6.235000 -0.055859 0
6.240000 -0.056931 0
6.245000 -0.057665 0
6.250000 -0.058116 0
6.255000 -0.058334 0
6.260000 -0.058362 0
6.265000 -0.058236 0
6.270000 -0.057986 0
6.275000 -0.057638 0
6.280000 -0.057213 0
6.285000 -0.056729 0
6.290000 -0.056198 0
6.295000 -0.055632 0
6.300000 -0.054971 0
6.305000 -0.054297 0
6.310000 -0.053627 0
6.315000 -0.052959 0
6.320000 -0.052295 0
6.325000 -0.051635 0
6.330000 -0.050977 0
6.335000 -0.050323 0
6.340000 -0.049673 0
6.345000 -0.049025 0
6.350000 -0.048381 0
6.355000 -0.047740 0
6.360000 -0.047102 0
6.365000 -0.046467 0
6.370000 -0.045835 0
6.375000 -0.045207 0
6.380000 -0.044582 0
6.385000 -0.043960 0
6.390000 -0.043341 0
6.395000 -0.042725 0
6.400000 -0.042112 0
6.405000 -0.041502 0
6.410000 -0.040895 0
6.415000 -0.040291 0
6.420000 -0.039689 0
6.425000 -0.039091 0
6.430000 -0.038494 0
6.435000 -0.037899 0
6.440000 -0.037304 0
6.445000 -0.036707 0
6.450000 -0.036105 0
6.455000 -0.035494 0
6.460000 -0.034866 0
6.465000 -0.034210 0
6.470000 -0.033507 0
6.475000 -0.032734 0
6.480000 -0.031855 0
6.485000 -0.030822 0
6.490000 -0.029566 0
6.495000 -0.028002 0
6.500000 -0.026015 0
6.505000 -0.023465 0
6.510000 -0.020182 0
6.515000 -0.015966 0
6.520000 -0.010593 0
6.525000 -0.003822 0
6.530000 0.004590 0
6.535000 0.014874 0
6.540000 0.027221 0
6.545000 0.041761 0
6.550000 0.058530 0
6.555000 0.077445 0
6.560000 0.098282 0
6.565000 0.120661 0
6.570000 0.144042 0
6.575000 0.167736 0
6.580000 0.190933 0
6.585000 0.212739 0
6.590000 0.232238 0
6.595000 0.248544 0
6.600000 0.260875 0
6.605000 0.268610 0
6.610000 0.271341 1
6.615000 0.268906 0
6.620000 0.261407 0
6.625000 0.249199 0
6.630000 0.232862 0
6.635000 0.213156 0
6.640000 0.190959 0
6.645000 0.167204 0
6.650000 0.142813 0
6.655000 0.118642 0
6.660000 0.095427 0
6.665000 0.073751 0
6.670000 0.054012 0
6.675000 0.036372 0
6.680000 0.020675 0
6.685000 0.006286 0
6.690000 -0.008105 0
6.695000 -0.024608 0
6.700000 -0.045897 0
6.705000 -0.074300 0
6.710000 -0.110172 0
6.715000 -0.150047 0
6.720000 -0.185586 0
6.725000 -0.204147 2
6.730000 -0.190871 0
6.735000 -0.131336 0
6.740000 -0.014214 0
6.745000 0.165260 0
6.750000 0.399871 0
6.755000 0.664409 0
6.760000 0.914208 0
6.765000 1.093917 0
6.770000 1.156246 3
6.775000 1.082040 0
6.780000 0.888836 0
6.785000 0.622018 0
6.790000 0.336415 0
6.795000 0.078280 0
6.800000 -0.123525 0
6.805000 -0.257115 0
6.810000 -0.323293 0
6.815000 -0.331834 4
6.820000 -0.298775 0
6.825000 -0.243112 0
6.830000 -0.182467 0
6.835000 -0.129236 0
6.840000 -0.089047 0
6.845000 -0.061868 0
6.850000 -0.044560 0
6.855000 -0.033299 0
6.860000 -0.024972 0
6.865000 -0.017565 0
6.870000 -0.009964 0
6.875000 -0.001616 0
6.880000 0.007751 0
6.885000 0.018279 0
6.890000 0.030059 0
6.895000 0.043151 0
6.900000 0.057592 0
6.905000 0.073396 0
6.910000 0.090547 0
6.915000 0.109001 0
6.920000 0.128675 0
6.925000 0.149455 0
6.930000 0.171183 0
6.935000 0.193667 0
6.940000 0.216675 0
6.945000 0.239942 0
6.950000 0.263169 0
6.955000 0.286036 0
6.960000 0.308200 0
6.965000 0.329308 0
6.970000 0.349006 0
6.975000 0.366946 0
6.980000 0.382799 0
6.985000 0.396260 0
6.990000 0.407063 0
6.995000 0.414986 0
7.000000 0.419858 0
7.005000 0.421567 5
7.010000 0.420061 0
7.015000 0.415353 0
7.020000 0.407517 0
7.025000 0.396691 0
7.030000 0.383066 0
7.035000 0.366888 0
7.040000 0.348441 0
7.045000 0.328049 0
7.050000 0.306056 0
7.055000 0.282824 0
7.060000 0.258719 0
7.065000 0.234103 0
7.070000 0.209322 0
7.075000 0.184705 0
7.080000 0.160548 0
7.085000 0.137119 0
7.090000 0.114644 0
7.095000 0.093313 0
7.100000 0.073275 0
7.105000 0.054639 0
7.110000 0.037476 0
7.115000 0.021823 0
7.120000 0.007682 0
7.125000 -0.004969 0
7.130000 -0.016179 0
7.135000 -0.026014 0
7.140000 -0.034556 0
7.145000 -0.041897 0
7.150000 -0.048135 0
7.155000 -0.053375 0
7.160000 -0.057717 0
7.165000 -0.061264 0
7.170000 -0.064111 0
7.175000 -0.066349 0
7.180000 -0.068062 0
7.185000 -0.069327 0
7.190000 -0.070214 0
7.195000 -0.070783 0
7.200000 -0.071088 0
7.205000 -0.071177 0
7.210000 -0.071088 0
7.215000 -0.070857 0
7.220000 -0.070512 0
7.225000 -0.070076 0
7.230000 -0.069569 0
7.235000 -0.069007 0
7.240000 -0.068403 0
7.245000 -0.067767 0
7.250000 -0.067044 0
7.255000 -0.066310 0
7.260000 -0.065580 0
7.265000 -0.064853 0
7.270000 -0.064130 0
7.275000 -0.063410 0
7.280000 -0.062694 0
7.285000 -0.061981 0
7.290000 -0.061273 0
7.295000 -0.060567 0
7.300000 -0.059865 0
7.305000 -0.059167 0
7.310000 -0.058472 0
7.315000 -0.057781 0
7.320000 -0.057093 0
7.325000 -0.056408 0
7.330000 -0.055727 0
7.335000 -0.055049 0
7.340000 -0.054375 0
7.345000 -0.053704 0
7.350000 -0.053036 0
7.355000 -0.052372 0
7.360000 -0.051710 0
7.365000 -0.051052 0
7.370000 -0.050397 0
7.375000 -0.049745 0
7.380000 -0.049095 0
7.385000 -0.048447 0
7.390000 -0.047798 0
7.395000 -0.047148 0
7.400000 -0.046494 0
7.405000 -0.045829 0
7.410000 -0.045146 0
7.415000 -0.044433 0
7.420000 -0.043673 0
7.425000 -0.042840 0
7.430000 -0.041897 0
7.435000 -0.040794 0
7.440000 -0.039464 0
7.445000 -0.037817 0
7.450000 -0.035740 0
7.455000 -0.033090 0
7.460000 -0.029696 0
7.465000 -0.025360 0
7.470000 -0.019857 0
7.475000 -0.012949 0
7.480000 -0.004395 0
7.485000 0.006033 0
7.490000 0.018521 0
7.495000 0.033194 0
7.500000 0.050084 0
7.505000 0.069104 0
7.510000 0.090029 0
7.515000 0.112477 0
7.520000 0.135910 0
7.525000 0.159646 0
7.530000 0.182879 0
7.535000 0.204726 0
7.540000 0.224277 0
7.545000 0.240657 0
7.550000 0.253089 0
7.555000 0.260956 0
7.560000 0.263848 1
7.565000 0.261601 0
7.570000 0.254307 0
7.575000 0.242309 0
7.580000 0.226176 0
7.585000 0.206651 0
7.590000 0.184601 0
7.595000 0.160949 0
7.600000 0.136611 0
7.605000 0.112439 0
7.610000 0.089171 0
7.615000 0.067399 0
7.620000 0.047530 0
7.625000 0.029748 0
7.630000 0.013929 0
7.635000 -0.000500 0
7.640000 -0.014765 0
7.645000 -0.030877 0
7.650000 -0.051454 0
7.655000 -0.078911 0
7.660000 -0.113927 0
7.665000 -0.153612 0
7.670000 -0.190327 0
7.675000 -0.212016 2
7.680000 -0.204109 0
7.685000 -0.152101 0
7.690000 -0.044148 0
7.695000 0.125747 0
7.700000 0.352715 0
7.705000 0.614949 0
7.710000 0.871116 0
7.715000 1.067075 0
7.720000 1.153018 3
7.725000 1.104650 0
7.730000 0.933691 0
7.735000 0.679212 0
7.740000 0.393423 0
7.745000 0.123972 0
7.750000 -0.096619 0
7.755000 -0.252495 0
7.760000 -0.340999 0
7.765000 -0.368862 4
7.770000 -0.349559 0
7.775000 -0.300648 0
7.780000 -0.240074 0
7.785000 -0.182207 0
7.790000 -0.135378 0
7.795000 -0.101857 0
7.800000 -0.079777 0
7.805000 -0.065569 0
7.810000 -0.055782 0
7.815000 -0.047895 0
7.820000 -0.040378 0
7.825000 -0.032418 0
7.830000 -0.023610 0
7.835000 -0.013750 0
7.840000 -0.002723 0
7.845000 0.009545 0
7.850000 0.023108 0
7.855000 0.037994 0
7.860000 0.054209 0
7.865000 0.071734 0
7.870000 0.090518 0
7.875000 0.110478 0
7.880000 0.131496 0
7.885000 0.153419 0
7.890000 0.176057 0
7.895000 0.199187 0
7.900000 0.222551 0
7.905000 0.245865 0
7.910000 0.268818 0
7.915000 0.291084 0
7.920000 0.312327 0
7.925000 0.332205 0
7.930000 0.350388 0
7.935000 0.366556 0
7.940000 0.380417 0
7.945000 0.391710 0
7.950000 0.400216 0
7.955000 0.405764 0
7.960000 0.408234 5
7.965000 0.407566 0
7.970000 0.403755 0
7.975000 0.396860 0
7.980000 0.386994 0
7.985000 0.374327 0
7.990000 0.359076 0
7.995000 0.341504 0
8.000000 0.321906 0
8.005000 0.300606 0
8.010000 0.277945 0
8.015000 0.254272 0
8.020000 0.229936 0
8.025000 0.205277 0
8.030000 0.180619 0
8.035000 0.156263 0
8.040000 0.132480 0
8.045000 0.109509 0
8.050000 0.087552 0
8.055000 0.066776 0
8.060000 0.047310 0
8.065000 0.029243 0
8.070000 0.012634 0
8.075000 -0.002494 0
8.080000 -0.016144 0
8.085000 -0.028346 0
8.090000 -0.039150 0
8.095000 -0.048624 0
8.100000 -0.056849 0
8.105000 -0.063913 0
8.110000 -0.069913 0
8.115000 -0.074947 0
8.120000 -0.079114 0
8.125000 -0.082508 0
8.130000 -0.085224 0
8.135000 -0.087346 0
8.140000 -0.088956 0
8.145000 -0.090128 0
8.150000 -0.090927 0
8.155000 -0.091412 0
8.160000 -0.091636 0
8.165000 -0.091644 0
8.170000 -0.091475 0
8.175000 -0.091163 0
8.180000 -0.090735 0
8.185000 -0.090215 0
8.190000 -0.089622 0
8.195000 -0.088973 0
8.200000 -0.088280 0
8.205000 -0.087554 0
8.210000 -0.086734 0
8.215000 -0.085902 0
8.220000 -0.085074 0
8.225000 -0.084250 0
8.230000 -0.083430 0
8.235000 -0.082614 0
8.240000 -0.081802 0
8.245000 -0.080994 0
8.250000 -0.080190 0
8.255000 -0.079391 0
8.260000 -0.078595 0
8.265000 -0.077803 0
8.270000 -0.077015 0
8.275000 -0.076231 0
8.280000 -0.075451 0
8.285000 -0.074675 0
8.290000 -0.073903 0
8.295000 -0.073135 0
8.300000 -0.072370 0
8.305000 -0.071609 0
8.310000 -0.070852 0
8.315000 -0.070099 0
8.320000 -0.069350 0
8.325000 -0.068604 0
8.330000 -0.067861 0
8.335000 -0.067122 0
8.340000 -0.066387 0
8.345000 -0.065653 0
8.350000 -0.064922 0
8.355000 -0.064192 0
8.360000 -0.063460 0
8.365000 -0.062723 0
8.370000 -0.061978 0
8.375000 -0.061215 0
8.380000 -0.060424 0
8.385000 -0.059589 0
8.390000 -0.058685 0
8.395000 -0.057679 0
8.400000 -0.056524 0
8.405000 -0.055158 0
8.410000 -0.053500 0
8.415000 -0.051446 0
8.420000 -0.048864 0
8.425000 -0.045597 0
8.430000 -0.041463 0
8.435000 -0.036251 0
8.440000 -0.029738 0
8.445000 -0.021691 0
8.450000 -0.011887 0
8.455000 -0.000130 0
8.460000 0.013724 0
8.465000 0.029745 0
8.470000 0.047900 0
8.475000 0.068035 0
8.480000 0.089856 0
8.485000 0.112919 0
8.490000 0.136641 0
8.495000 0.160308 0
8.500000 0.183112 0
8.505000 0.204189 0
8.510000 0.222674 0
8.515000 0.237760 0
8.520000 0.248751 0
8.525000 0.255119 0
8.530000 0.256545 1
8.535000 0.252942 0
8.540000 0.244467 0
8.545000 0.231506 0
8.550000 0.214644 0
8.555000 0.194625 0
8.560000 0.172293 0
8.565000 0.148533 0
8.570000 0.124219 0
8.575000 0.100153 0
8.580000 0.077031 0
8.585000 0.055405 0
8.590000 0.035657 0
8.595000 0.017953 0
8.600000 0.002174 0
8.605000 -0.012224 0
8.610000 -0.026386 0
8.615000 -0.042198 0
8.620000 -0.062139 0
8.625000 -0.088603 0
8.630000 -0.122546 0
8.635000 -0.161794 0
8.640000 -0.199807 0
8.645000 -0.225732 0
8.650000 -0.225920 2
8.655000 -0.186247 0
8.660000 -0.094489 0
8.665000 0.057036 0
8.670000 0.267382 0
8.675000 0.521402 0
8.680000 0.785693 0
8.685000 1.011374 0
8.690000 1.146726 0
8.695000 1.155953 3
8.700000 1.034973 0
8.705000 0.812426 0
8.710000 0.534927 0
8.715000 0.252103 0
8.720000 0.003056 0
8.725000 -0.188956 0
8.730000 -0.315067 0
8.735000 -0.377053 0
8.740000 -0.384331 4
8.745000 -0.351722 0
8.750000 -0.296665 0
8.755000 -0.235564 0
8.760000 -0.180435 0
8.765000 -0.137356 0
8.770000 -0.107114 0
8.775000 -0.087256 0
8.780000 -0.074258 0
8.785000 -0.064972 0
8.790000 -0.057189 0
8.795000 -0.049591 0
8.800000 -0.041481 0
8.805000 -0.032508 0
8.810000 -0.022493 0
8.815000 -0.011329 0
8.820000 0.001053 0
8.825000 0.014701 0
8.830000 0.029644 0
8.835000 0.045885 0
8.840000 0.063408 0
8.845000 0.082163 0
8.850000 0.102073 0
8.855000 0.123028 0
8.860000 0.144884 0
8.865000 0.167463 0
8.870000 0.190556 0
8.875000 0.213920 0
8.880000 0.237288 0
8.885000 0.260367 0
8.890000 0.282848 0
8.895000 0.304409 0
8.900000 0.324725 0
8.905000 0.343474 0
8.910000 0.360347 0
8.915000 0.375055 0
8.920000 0.387337 0
8.925000 0.396967 0
8.930000 0.403762 0
8.935000 0.407587 0
8.940000 0.408360 5
8.945000 0.406052 0
8.950000 0.400690 0
8.955000 0.392357 0
8.960000 0.381189 0
8.965000 0.367370 0
8.970000 0.351128 0
8.975000 0.332729 0
8.980000 0.312468 0
8.985000 0.290662 0
8.990000 0.267641 0
8.995000 0.243742 0
9.000000 0.219297 0
9.005000 0.194628 0
9.010000 0.170040 0
9.015000 0.145814 0
9.020000 0.122203 0
9.025000 0.099431 0
9.030000 0.077684 0
9.035000 0.057116 0
9.040000 0.037844 0
9.045000 0.019952 0
9.050000 0.003491 0
9.055000 -0.011518 0
9.060000 -0.025080 0
9.065000 -0.037224 0
9.070000 -0.047999 0
9.075000 -0.057470 0
9.080000 -0.065713 0
9.085000 -0.072814 0
9.090000 -0.078865 0
9.095000 -0.083960 0
9.100000 -0.088193 0
9.105000 -0.091657 0
9.110000 -0.094441 0
9.115000 -0.096629 0
9.120000 -0.098299 0
9.125000 -0.099523 0
9.130000 -0.100367 0
9.135000 -0.100889 0
9.140000 -0.101141 0
9.145000 -0.101168 0
9.150000 -0.101010 0
9.155000 -0.100700 0
9.160000 -0.100268 0
9.165000 -0.099737 0
9.170000 -0.099128 0
9.175000 -0.098456 0
9.180000 -0.097737 0
9.185000 -0.096982 0
9.190000 -0.096184 0
9.195000 -0.095304 0
9.200000 -0.094429 0
9.205000 -0.093558 0
9.210000 -0.092692 0
9.215000 -0.091830 0
9.220000 -0.090972 0
9.225000 -0.090118 0
9.230000 -0.089269 0
9.235000 -0.088424 0
9.240000 -0.087583 0
9.245000 -0.086747 0
9.250000 -0.085914 0
9.255000 -0.085086 0
9.260000 -0.084262 0
9.265000 -0.083442 0
9.270000 -0.082626 0
9.275000 -0.081814 0
9.280000 -0.081006 0
9.285000 -0.080202 0
9.290000 -0.079402 0
9.295000 -0.078607 0
9.300000 -0.077815 0
9.305000 -0.077027 0
9.310000 -0.076242 0
9.315000 -0.075462 0
9.320000 -0.074685 0
9.325000 -0.073912 0
9.330000 -0.073141 0
9.335000 -0.072373 0
9.340000 -0.071606 0
9.345000 -0.070838 0
9.350000 -0.070067 0
9.355000 -0.069288 0
9.360000 -0.068495 0
9.365000 -0.067678 0
9.370000 -0.066823 0
9.375000 -0.065908 0
9.380000 -0.064906 0
9.385000 -0.063776 0
9.390000 -0.062464 0
9.395000 -0.060899 0
9.400000 -0.058991 0
9.405000 -0.056625 0
9.410000 -0.053662 0
9.415000 -0.049938 0
9.420000 -0.045263 0
9.425000 -0.039430 0
9.430000 -0.032218 0
9.435000 -0.023406 0
9.440000 -0.012789 0
9.445000 -0.000199 0
9.450000 0.014479 0
9.455000 0.031278 0
9.460000 0.050127 0
9.465000 0.070835 0
9.470000 0.093079 0
9.475000 0.116393 0
9.480000 0.140184 0
9.485000 0.163742 0
9.490000 0.186278 0
9.495000 0.206960 0
9.500000 0.224965 0
9.505000 0.239532 0
9.510000 0.250015 0
9.515000 0.255929 0
9.520000 0.256989 1
9.525000 0.253130 0
9.530000 0.244513 0
9.535000 0.231514 0
9.540000 0.214698 0
9.545000 0.194775 0
9.550000 0.172552 0
9.555000 0.148877 0
9.560000 0.124588 0
9.565000 0.100464 0
9.570000 0.077187 0
9.575000 0.055305 0
9.580000 0.035212 0
9.585000 0.017111 0
9.590000 0.000951 0
9.595000 -0.013682 0
9.600000 -0.027725 0
9.605000 -0.042791 0
9.610000 -0.061132 0
9.615000 -0.085184 0
9.620000 -0.116502 0
9.625000 -0.154249 0
9.630000 -0.193804 0
9.635000 -0.226300 0
9.640000 -0.239524 2
9.645000 -0.219852 0
9.650000 -0.154451 0
9.655000 -0.033481 0
9.660000 0.146930 0
9.665000 0.380107 0
9.670000 0.643803 0
9.675000 0.898683 0
9.680000 1.094760 0
9.685000 1.186185 3
9.690000 1.148317 0
9.695000 0.988022 0
9.700000 0.740676 0
9.705000 0.455950 0
9.710000 0.181088 0
9.715000 -0.050051 0
9.720000 -0.219550 0
9.725000 -0.322667 0
9.730000 -0.364141 4
9.735000 -0.355571 0
9.740000 -0.313108 0
9.745000 -0.254303 0
9.750000 -0.194351 0
9.755000 -0.143237 0
9.760000 -0.104985 0
9.765000 -0.078955 0
9.770000 -0.062076 0
9.775000 -0.050838 0
9.780000 -0.042399 0
9.785000 -0.034895 0
9.790000 -0.027265 0
9.795000 -0.018964 0
9.800000 -0.009721 0
9.805000 0.000612 0
9.810000 0.012124 0
9.815000 0.024876 0
9.820000 0.038909 0
9.825000 0.054243 0
9.830000 0.070874 0
9.835000 0.088774 0
9.840000 0.107883 0
9.845000 0.128111 0
9.850000 0.149335 0
9.855000 0.171398 0
9.860000 0.194110 0
9.865000 0.217247 0
9.870000 0.240557 0
9.875000 0.263762 0
9.880000 0.286560 0
9.885000 0.308637 0
9.890000 0.329667 0
9.895000 0.349326 0
9.900000 0.367294 0
9.905000 0.383268 0
9.910000 0.396969 0
9.915000 0.408148 0
9.920000 0.416595 0
9.925000 0.422145 0
9.930000 0.424683 5
9.935000 0.424148 0
9.940000 0.420532 0
9.945000 0.413887 0
9.950000 0.404316 0
9.955000 0.391975 0
9.960000 0.377068 0
9.965000 0.359839 0
9.970000 0.340567 0
9.975000 0.319558 0
9.980000 0.297137 0
9.985000 0.273637 0
9.990000 0.249396 0
9.995000 0.224742 0
10.000000 0.199993 0
10.005000 0.175444 0
10.010000 0.151367 0
10.015000 0.128004 0
10.020000 0.105561 0
10.025000 0.084215 0
10.030000 0.064102 0
10.035000 0.045327 0
10.040000 0.027958 0
10.045000 0.012036 0
10.050000 -0.002432 0
10.055000 -0.015461 0
10.060000 -0.027089 0
10.065000 -0.037372 0
10.070000 -0.046380 0
10.075000 -0.054195 0
10.080000 -0.060905 0
10.085000 -0.066604 0
10.090000 -0.071387 0
10.095000 -0.075347 0
10.100000 -0.078576 0
10.105000 -0.081160 0
10.110000 -0.083183 0
10.115000 -0.084720 0
10.120000 -0.085840 0
10.125000 -0.086605 0
10.130000 -0.087072 0
10.135000 -0.087288 0
10.140000 -0.087298 0
10.145000 -0.087137 0
10.150000 -0.086838 0
10.155000 -0.086427 0
10.160000 -0.085926 0
10.165000 -0.085355 0
10.170000 -0.084728 0
10.175000 -0.084058 0
10.180000 -0.083355 0
10.185000 -0.082556 0
10.190000 -0.081745 0
10.195000 -0.080937 0
10.200000 -0.080134 0
10.205000 -0.079334 0
10.210000 -0.078539 0
10.215000 -0.077747 0
10.220000 -0.076960 0
10.225000 -0.076176 0
10.230000 -0.075396 0
10.235000 -0.074620 0
10.240000 -0.073848 0
10.245000 -0.073080 0
10.250000 -0.072316 0
10.255000 -0.071556 0
10.260000 -0.070799 0
10.265000 -0.070046 0
10.270000 -0.069297 0
10.275000 -0.068551 0
10.280000 -0.067810 0
10.285000 -0.067072 0
10.290000 -0.066337 0
10.295000 -0.065607 0
10.300000 -0.064879 0
10.305000 -0.064156 0
10.310000 -0.063436 0
10.315000 -0.062718 0
10.320000 -0.062004 0
10.325000 -0.061292 0
10.330000 -0.060582 0
10.335000 -0.059872 0
10.340000 -0.059160 0
10.345000 -0.058442 0
10.350000 -0.057713 0
10.355000 -0.056965 0
10.360000 -0.056187 0
10.365000 -0.055361 0
10.370000 -0.054462 0
10.375000 -0.053456 0
10.380000 -0.052297 0
10.385000 -0.050923 0
10.390000 -0.049252 0
10.395000 -0.047183 0
10.400000 -0.044588 0
10.405000 -0.041316 0
10.410000 -0.037188 0
10.415000 -0.032004 0
10.420000 -0.025549 0
10.425000 -0.017600 0
10.430000 -0.007941 0
10.435000 0.003617 0
10.440000 0.017219 0
10.445000 0.032940 0
10.450000 0.050761 0
10.455000 0.070553 0
10.460000 0.092057 0
10.465000 0.114874 0
10.470000 0.138469 0
10.475000 0.162185 0
10.480000 0.185263 0
10.485000 0.206885 0
10.490000 0.226214 0
10.495000 0.242453 0
10.500000 0.254892 0
10.505000 0.262964 0
10.510000 0.266284 1
10.515000 0.264682 0
10.520000 0.258213 0
10.525000 0.247157 0
10.530000 0.231994 0
10.535000 0.213375 0
10.540000 0.192069 0
10.545000 0.168915 0
10.550000 0.144763 0
10.555000 0.120428 0
10.560000 0.096640 0
10.565000 0.074016 0
10.570000 0.053023 0
10.575000 0.033959 0
10.580000 0.016898 0
10.585000 0.001610 0
10.590000 -0.012587 0
10.595000 -0.026991 0
10.600000 -0.043594 0
10.605000 -0.064850 0
10.610000 -0.092881 0
10.615000 -0.128120 0
10.620000 -0.167760 0
10.625000 -0.204780 0
10.630000 -0.228237 2
10.635000 -0.224829 0
10.640000 -0.181078 0
10.645000 -0.085505 0
10.650000 0.068866 0
10.655000 0.280635 0
10.660000 0.534846 0
10.665000 0.799299 0
10.670000 1.027148 0
10.675000 1.168462 0
10.680000 1.187531 3
10.685000 1.075033 0
10.690000 0.855894 0
10.695000 0.578736 0
10.700000 0.296011 0
10.705000 0.048819 0
10.710000 -0.138933 0
10.715000 -0.258760 0
10.720000 -0.313437 0
10.725000 -0.313763 4
10.730000 -0.276041 0
10.735000 -0.218787 0
10.740000 -0.158586 0
10.745000 -0.106680 0
10.750000 -0.067842 0
10.755000 -0.041644 0
10.760000 -0.024909 0
10.765000 -0.013938 0
10.770000 -0.005761 0
10.775000 0.001547 0
10.780000 0.009051 0
10.785000 0.017288 0
10.790000 0.026524 0
10.795000 0.036899 0
10.800000 0.048502 0
10.805000 0.061393 0
10.810000 0.075610 0
10.815000 0.091167 0
10.820000 0.108054 0
10.825000 0.126230 0
10.830000 0.145621 0
10.835000 0.166120 0
10.840000 0.187583 0
10.845000 0.209828 0
10.850000 0.232639 0
10.855000 0.255765 0
10.860000 0.278925 0
10.865000 0.301810 0
10.870000 0.324095 0
10.875000 0.345440 0
10.880000 0.365500 0
10.885000 0.383935 0
10.890000 0.400420 0
10.895000 0.414650 0
10.900000 0.426354 0
10.905000 0.435298 0
10.910000 0.441298 0
10.915000 0.444222 5
10.920000 0.443996 0
10.925000 0.440603 0
10.930000 0.434091 0
10.935000 0.424565 0
10.940000 0.412186 0
10.945000 0.397167 0
10.950000 0.379766 0
10.955000 0.360279 0
10.960000 0.339029 0
10.965000 0.316359 0
10.970000 0.292624 0
10.975000 0.268176 0
10.980000 0.243362 0
10.985000 0.218513 0
10.990000 0.193936 0
10.995000 0.169909 0
11.000000 0.146677 0
11.005000 0.124450 0
11.010000 0.103400 0
11.015000 0.083659 0
11.020000 0.065322 0
11.025000 0.048449 0
11.030000 0.033068 0
11.035000 0.019175 0
11.040000 0.006741 0
11.045000 -0.004282 0
11.050000 -0.013964 0
11.055000 -0.022385 0
11.060000 -0.029637 0
11.065000 -0.035816 0
11.070000 -0.041021 0
11.075000 -0.045352 0
11.080000 -0.048907 0
11.085000 -0.051778 0
11.090000 -0.054054 0
11.095000 -0.055816 0
11.100000 -0.057137 0
11.105000 -0.058085 0
11.110000 -0.058720 0
11.115000 -0.059094 0
11.120000 -0.059252 0
11.125000 -0.059233 0
11.130000 -0.059072 0
11.135000 -0.058795 0
11.140000 -0.058426 0
11.145000 -0.057986 0
11.150000 -0.057489 0
11.155000 -0.056949 0
11.160000 -0.056376 0
11.165000 -0.055711 0
11.170000 -0.055033 0
11.175000 -0.054359 0
11.180000 -0.053688 0
11.185000 -0.053020 0
11.190000 -0.052356 0
11.195000 -0.051695 0
11.200000 -0.051038 0
11.205000 -0.050383 0
11.210000 -0.049732 0
11.215000 -0.049084 0
11.220000 -0.048440 0
11.225000 -0.047798 0
11.230000 -0.047160 0
11.235000 -0.046525 0
11.240000 -0.045893 0
11.245000 -0.045265 0
11.250000 -0.044639 0
11.255000 -0.044017 0
11.260000 -0.043397 0
11.265000 -0.042781 0
11.270000 -0.042168 0
11.275000 -0.041557 0
11.280000 -0.040950 0
11.285000 -0.040346 0
11.290000 -0.039744 0
11.295000 -0.039144 0
11.300000 -0.038547 0
11.305000 -0.037950 0
11.310000 -0.037352 0
11.315000 -0.036752 0
11.320000 -0.036146 0
11.325000 -0.035527 0
11.330000 -0.034887 0
11.335000 -0.034213 0
11.340000 -0.033485 0
11.345000 -0.032678 0
11.350000 -0.031751 0
11.355000 -0.030653 0
11.360000 -0.029314 0
11.365000 -0.027643 0
11.370000 -0.025523 0
11.375000 -0.022814 0
11.380000 -0.019343 0
11.385000 -0.014914 0
11.390000 -0.009308 0
11.395000 -0.002293 0
11.400000 0.006365 0
11.405000 0.016883 0
11.410000 0.029440 0
11.415000 0.044151 0
11.420000 0.061043 0
11.425000 0.080029 0
11.430000 0.100888 0
11.435000 0.123253 0
11.440000 0.146605 0
11.445000 0.170285 0
11.450000 0.193519 0
11.455000 0.215455 0
11.460000 0.235209 0
11.465000 0.251928 0
11.470000 0.264844 0
11.475000 0.273336 0
11.480000 0.276977 1
11.485000 0.275567 0
11.490000 0.269151 0
11.495000 0.258020 0
11.500000 0.242680 0
11.505000 0.223822 0
11.510000 0.202264 0
11.515000 0.178891 0
11.520000 0.154601 0
11.525000 0.130241 0
11.530000 0.106566 0
11.535000 0.084197 0
11.540000 0.063590 0
11.545000 0.045005 0
11.550000 0.028444 0
11.555000 0.013534 0
11.560000 -0.000639 0
11.565000 -0.015714 0
11.570000 -0.034034 0
11.575000 -0.058176 0
11.580000 -0.089788 0
11.585000 -0.127899 0
11.590000 -0.167399 0
11.595000 -0.198586 0
11.600000 -0.208287 2
11.605000 -0.182084 0
11.610000 -0.106765 0
11.615000 0.027139 0
11.620000 0.221708 0
11.625000 0.466196 0
11.630000 0.731932 0
11.635000 0.972757 0
11.640000 1.135329 0
11.645000 1.177519 3
11.650000 1.083432 0
11.655000 0.874595 0
11.660000 0.600491 0
11.665000 0.316874 0
11.670000 0.068154 0
11.675000 -0.119804 0
11.680000 -0.237955 0
11.685000 -0.289459 4
11.690000 -0.286103 0
11.695000 -0.245445 0
11.700000 -0.187027 0
11.705000 -0.127746 0
11.710000 -0.078340 0
11.715000 -0.042620 0
11.720000 -0.019259 0
11.725000 -0.004586 0
11.730000 0.005171 0
11.735000 0.012811 0
11.740000 0.020024 0
11.745000 0.027698 0
11.750000 0.036261 0
11.755000 0.045925 0
11.760000 0.056811 0
11.765000 0.068995 0
11.770000 0.082528 0
11.775000 0.097439 0
11.780000 0.113728 0
11.785000 0.131365 0
11.790000 0.150287 0
11.795000 0.170391 0
11.800000 0.191539 0
11.805000 0.213550 0
11.810000 0.236205 0
11.815000 0.259247 0
11.820000 0.282383 0
11.825000 0.305294 0
11.830000 0.327637 0
11.835000 0.349053 0
11.840000 0.369179 0
11.845000 0.387653 0
11.850000 0.404131 0
11.855000 0.418289 0
11.860000 0.429842 0
11.865000 0.438544 0
11.870000 0.444205 0
11.875000 0.446691 5
11.880000 0.445930 0
11.885000 0.441917 0
11.890000 0.434713 0
11.895000 0.424442 0
11.900000 0.411289 0
11.905000 0.395493 0
11.910000 0.377338 0
11.915000 0.357149 0
11.920000 0.335276 0
11.925000 0.312087 0
11.930000 0.287957 0
11.935000 0.263258 0
11.940000 0.238349 0
11.945000 0.213568 0
11.950000 0.189225 0
11.955000 0.165594 0
11.960000 0.142913 0
11.965000 0.121379 0
11.970000 0.101146 0
11.975000 0.082329 0
11.980000 0.065002 0
11.985000 0.049203 0
11.990000 0.034935 0
11.995000 0.022175 0
12.000000 0.010873 0
12.005000 0.000960 0
12.010000 -0.007648 0
12.015000 -0.015045 0
12.020000 -0.021335 0
12.025000 -0.026621 0
12.030000 -0.031009 0
12.035000 -0.034603 0
12.040000 -0.037499 0
12.045000 -0.039790 0
12.050000 -0.041562 0
12.055000 -0.042891 0
12.060000 -0.043848 0
12.065000 -0.044494 0
12.070000 -0.044882 0
12.075000 -0.045059 0
12.080000 -0.045065 0
12.085000 -0.044932 0
12.090000 -0.044690 0
12.095000 -0.044361 0
12.100000 -0.043965 0
12.105000 -0.043516 0
12.110000 -0.043028 0
12.115000 -0.042496 0
12.120000 -0.041884 0
12.125000 -0.041275 0
12.130000 -0.040670 0
12.135000 -0.040067 0
12.140000 -0.039467 0
12.145000 -0.038871 0
12.150000 -0.038277 0
12.155000 -0.037686 0
12.160000 -0.037098 0
12.165000 -0.036514 0
12.170000 -0.035932 0
12.175000 -0.035353 0
12.180000 -0.034777 0
12.185000 -0.034203 0
12.190000 -0.033633 0
12.195000 -0.033065 0
12.200000 -0.032501 0
12.205000 -0.031939 0
12.210000 -0.031380 0
12.215000 -0.030823 0
12.220000 -0.030270 0
12.225000 -0.029719 0
12.230000 -0.029171 0
12.235000 -0.028625 0
12.240000 -0.028081 0
12.245000 -0.027540 0
12.250000 -0.026999 0
12.255000 -0.026459 0
12.260000 -0.025918 0
12.265000 -0.025372 0
12.270000 -0.024817 0
12.275000 -0.024245 0
12.280000 -0.023647 0
12.285000 -0.023005 0
12.290000 -0.022296 0
12.295000 -0.021485 0
12.300000 -0.020524 0
12.305000 -0.019348 0
12.310000 -0.017870 0
12.315000 -0.015978 0
12.320000 -0.013531 0
12.325000 -0.010360 0
12.330000 -0.006264 0
12.335000 -0.001017 0
12.340000 0.005626 0
12.345000 0.013911 0
12.350000 0.024075 0
12.355000 0.036312 0
12.360000 0.050758 0
12.365000 0.067450 0
12.370000 0.086307 0
12.375000 0.107103 0
12.380000 0.129450 0
12.385000 0.152800 0
12.390000 0.176451 0
12.395000 0.199577 0
12.400000 0.221270 0
12.405000 0.240598 0
12.410000 0.256666 0
12.415000 0.268688 0
12.420000 0.276045 0
12.425000 0.278339 1
12.430000 0.275427 0
12.435000 0.267435 0
12.440000 0.254744 0
12.445000 0.237966 0
12.450000 0.217887 0
12.455000 0.195409 0
12.460000 0.171481 0
12.465000 0.147035 0
12.470000 0.122923 0
12.475000 0.099873 0
12.480000 0.078450 0
12.485000 0.059024 0
12.490000 0.041710 0
12.495000 0.026278 0
12.500000 0.011973 0
12.505000 -0.002692 0
12.510000 -0.020010 0
12.515000 -0.042723 0
12.520000 -0.072920 0
12.525000 -0.110240 0
12.530000 -0.150061 0
12.535000 -0.182753 0
12.540000 -0.194688 2
12.545000 -0.170640 0
12.550000 -0.096522 0
12.555000 0.037780 0
12.560000 0.234357 0
12.565000 0.481209 0
12.570000 0.746727 0
12.575000 0.980838 0
12.580000 1.127573 0
12.585000 1.146030 3
12.590000 1.028297 0
12.595000 0.803290 0
12.600000 0.523448 0
12.605000 0.243668 0
12.610000 0.005214 0
12.615000 -0.169480 0
12.620000 -0.274041 0
12.625000 -0.313552 4
12.630000 -0.301209 0
12.635000 -0.255370 0
12.640000 -0.195481 0
12.645000 -0.137465 0
12.650000 -0.090652 0
12.655000 -0.057605 0
12.660000 -0.036280 0
12.665000 -0.022823 0
12.670000 -0.013605 0
12.675000 -0.006063 0
12.680000 0.001297 0
12.685000 0.009239 0
12.690000 0.018130 0
12.695000 0.028156 0
12.700000 0.039425 0
12.705000 0.052007 0
12.710000 0.065949 0
12.715000 0.081274 0
12.720000 0.097974 0
12.725000 0.116014 0
12.730000 0.135319 0
12.735000 0.155780 0
12.740000 0.177247 0
12.745000 0.199530 0
12.750000 0.222399 0
12.755000 0.245588 0
12.760000 0.268796 0
12.765000 0.291696 0
12.770000 0.313940 0
12.775000 0.335164 0
12.780000 0.355005 0
12.785000 0.373102 0
12.790000 0.389114 0
12.795000 0.402726 0
12.800000 0.413659 0
12.805000 0.421683 0
12.810000 0.426618 0
12.815000 0.428347 5
12.820000 0.426815 0
12.825000 0.422035 0
12.830000 0.414085 0
12.835000 0.403107 0
12.840000 0.389300 0
12.845000 0.372918 0
12.850000 0.354259 0
12.855000 0.333656 0
12.860000 0.311466 0
12.865000 0.288062 0
12.870000 0.263820 0
12.875000 0.239112 0
12.880000 0.214291 0
12.885000 0.189690 0
12.890000 0.165609 0
12.895000 0.142315 0
12.900000 0.120034 0
12.905000 0.098951 0
12.910000 0.079210 0
12.915000 0.060912 0
12.920000 0.044121 0
12.925000 0.028864 0
12.930000 0.015136 0
12.935000 0.002906 0
12.940000 -0.007884 0
12.945000 -0.017306 0
12.950000 -0.025451 0
12.955000 -0.032415 0
12.960000 -0.038302 0
12.965000 -0.043217 0
12.970000 -0.047267 0
12.975000 -0.050552 0
12.980000 -0.053170 0
12.985000 -0.055210 0
12.990000 -0.056756 0
12.995000 -0.057884 0
13.000000 -0.058659 0
13.005000 -0.059141 0
13.010000 -0.059382 0
13.015000 -0.059426 0
13.020000 -0.059311 0
13.025000 -0.059067 0
13.030000 -0.058723 0
13.035000 -0.058298 0
13.040000 -0.057812 0
13.045000 -0.057279 0
13.050000 -0.056710 0
13.055000 -0.056044 0
13.060000 -0.055364 0
13.065000 -0.054688 0
13.070000 -0.054016 0
13.075000 -0.053347 0
13.080000 -0.052681 0
13.085000 -0.052018 0
13.090000 -0.051359 0
13.095000 -0.050703 0
13.100000 -0.050050 0
13.105000 -0.049401 0
13.110000 -0.048755 0
13.115000 -0.048112 0
13.120000 -0.047472 0
13.125000 -0.046835 0
13.130000 -0.046202 0
13.135000 -0.045572 0
13.140000 -0.044945 0
13.145000 -0.044321 0
13.150000 -0.043700 0
13.155000 -0.043082 0
13.160000 -0.042467 0
13.165000 -0.041856 0
13.170000 -0.041247 0
13.175000 -0.040640 0
13.180000 -0.040037 0
13.185000 -0.039435 0
13.190000 -0.038835 0
13.195000 -0.038234 0
13.200000 -0.037631 0
13.205000 -0.037023 0
13.210000 -0.036403 0
13.215000 -0.035764 0
13.220000 -0.035092 0
13.225000 -0.034367 0
13.230000 -0.033563 0
13.235000 -0.032639 0
13.240000 -0.031541 0
13.245000 -0.030194 0
13.250000 -0.028502 0
13.255000 -0.026340 0
13.260000 -0.023556 0
13.265000 -0.019964 0
13.270000 -0.015353 0
13.275000 -0.009487 0
13.280000 -0.002118 0
13.285000 0.007001 0
13.290000 0.018091 0
13.295000 0.031327 0
13.300000 0.046804 0
13.305000 0.064513 0
13.310000 0.084310 0
13.315000 0.105899 0
13.320000 0.128820 0
13.325000 0.152452 0
13.330000 0.176032 0
13.335000 0.198687 0
13.340000 0.219488 0
13.345000 0.237509 0
13.350000 0.251893 0
13.355000 0.261917 0
13.360000 0.267057 1
13.365000 0.267027 0
13.370000 0.261805 0
13.375000 0.251639 0
13.380000 0.237023 0
13.385000 0.218659 0
13.390000 0.197397 0
13.395000 0.174174 0
13.400000 0.149941 0
13.405000 0.125602 0
13.410000 0.101961 0
13.415000 0.079673 0
13.420000 0.059218 0
13.425000 0.040854 0
13.430000 0.024548 0
13.435000 0.009841 0
13.440000 -0.004355 0
13.445000 -0.019930 0
13.450000 -0.039492 0
13.455000 -0.065661 0
13.460000 -0.099581 0
13.465000 -0.138978 0
13.470000 -0.176727 0
13.475000 -0.200948 2
13.480000 -0.196826 0
13.485000 -0.149313 0
13.490000 -0.045871 0
13.495000 0.120257 0
13.500000 0.344895 0
13.505000 0.606503 0
13.510000 0.863161 0
13.515000 1.059327 0
13.520000 1.143782 3
13.525000 1.093409 0
13.530000 0.919909 0
13.535000 0.663579 0
13.540000 0.377652 0
13.545000 0.110116 0
13.550000 -0.106825 0
13.555000 -0.257956 0
13.560000 -0.341340 0
13.565000 -0.364454 4
13.570000 -0.341497 0
13.575000 -0.290558 0
13.580000 -0.229691 0
13.585000 -0.172899 0
13.590000 -0.127844 0
13.595000 -0.096143 0
13.600000 -0.075507 0
13.605000 -0.062229 0
13.610000 -0.052918 0
13.615000 -0.045191 0
13.620000 -0.037643 0
13.625000 -0.029544 0
13.630000 -0.020537 0
13.635000 -0.010439 0
13.640000 0.000856 0
13.645000 0.013419 0
13.650000 0.027297 0
13.655000 0.042515 0
13.660000 0.059073 0
13.665000 0.076943 0
13.670000 0.096064 0
13.675000 0.116343 0
13.680000 0.137649 0
13.685000 0.159815 0
13.690000 0.182638 0
13.695000 0.205877 0
13.700000 0.229263 0
13.705000 0.252495 0
13.710000 0.275252 0
13.715000 0.297196 0
13.720000 0.317982 0
13.725000 0.337267 0
13.730000 0.354715 0
13.735000 0.370012 0
13.740000 0.382871 0
13.745000 0.393043 0
13.750000 0.400325 0
13.755000 0.404563 0
13.760000 0.405662 5
13.765000 0.403584 0
13.770000 0.398355 0
13.775000 0.390059 0
13.780000 0.378840 0
13.785000 0.364893 0
13.790000 0.348465 0
13.795000 0.329838 0
13.800000 0.309331 0
13.805000 0.287282 0
13.810000 0.264045 0
13.815000 0.239975 0
13.820000 0.215425 0
13.825000 0.190732 0
13.830000 0.166214 0
13.835000 0.142159 0
13.840000 0.118827 0
13.845000 0.096439 0
13.850000 0.075179 0
13.855000 0.055193 0
13.860000 0.036588 0
13.865000 0.019436 0
13.870000 0.003772 0
13.875000 -0.010396 0
13.880000 -0.023091 0
13.885000 -0.034358 0
13.890000 -0.044258 0
13.895000 -0.052871 0
13.900000 -0.060285 0
13.905000 -0.066596 0
13.910000 -0.071904 0
13.915000 -0.076309 0
13.920000 -0.079909 0
13.925000 -0.082800 0
13.930000 -0.085071 0
13.935000 -0.086806 0
13.940000 -0.088081 0
13.945000 -0.088966 0
13.950000 -0.089523 0
13.955000 -0.089805 0
13.960000 -0.089861 0
13.965000 -0.089731 0
13.970000 -0.089451 0
13.975000 -0.089049 0
13.980000 -0.088551 0
13.985000 -0.087976 0
13.990000 -0.087343 0
13.995000 -0.086664 0
14.000000 -0.085950 0
14.005000 -0.085198 0
14.010000 -0.084373 0
14.015000 -0.083552 0
14.020000 -0.082736 0
14.025000 -0.081923 0
14.030000 -0.081115 0
14.035000 -0.080311 0
14.040000 -0.079510 0
14.045000 -0.078714 0
14.050000 -0.077922 0
14.055000 -0.077133 0
14.060000 -0.076349 0
14.065000 -0.075568 0
14.070000 -0.074791 0
14.075000 -0.074019 0
14.080000 -0.073250 0
14.085000 -0.072484 0
14.090000 -0.071723 0
14.095000 -0.070966 0
14.100000 -0.070212 0
14.105000 -0.069462 0
14.110000 -0.068716 0
14.115000 -0.067973 0
14.120000 -0.067234 0
14.125000 -0.066498 0
14.130000 -0.065766 0
14.135000 -0.065037 0
14.140000 -0.064310 0
14.145000 -0.063585 0
14.150000 -0.062861 0
14.155000 -0.062135 0
14.160000 -0.061403 0
14.165000 -0.060661 0
14.170000 -0.059900 0
14.175000 -0.059108 0
14.180000 -0.058266 0
14.185000 -0.057349 0
14.190000 -0.056320 0
14.195000 -0.055127 0
14.200000 -0.053705 0
14.205000 -0.051963 0
14.210000 -0.049790 0
14.215000 -0.047045 0
14.220000 -0.043561 0
14.225000 -0.039144 0
14.230000 -0.033574 0
14.235000 -0.026621 0
14.240000 -0.018047 0
14.245000 -0.007633 0
14.250000 0.004807 0
14.255000 0.019397 0
14.260000 0.036175 0
14.265000 0.055068 0
14.270000 0.075867 0
14.275000 0.098219 0
14.280000 0.121616 0
14.285000 0.145411 0
14.290000 0.168833 0
14.295000 0.191031 0
14.300000 0.211119 0
14.305000 0.228233 0
14.310000 0.241593 0
14.315000 0.250560 0
14.320000 0.254688 1
14.325000 0.253758 0
14.330000 0.247799 0
14.335000 0.237084 0
14.340000 0.222109 0
14.345000 0.203558 0
14.350000 0.182244 0
14.355000 0.159059 0
14.360000 0.134902 0
14.365000 0.110631 0
14.370000 0.087010 0
14.375000 0.064669 0
14.380000 0.044077 0
14.385000 0.025506 0
14.390000 0.008968 0
14.395000 -0.005891 0
14.400000 -0.019969 0
14.405000 -0.034882 0
14.410000 -0.052968 0
14.415000 -0.076822 0
14.420000 -0.108146 0
14.425000 -0.146053 0
14.430000 -0.185509 0
14.435000 -0.216853 0
14.440000 -0.226889 2
14.445000 -0.201128 0
14.450000 -0.126264 0
14.455000 0.007273 0
14.460000 0.201645 0
14.465000 0.446127 0
14.470000 0.711954 0
14.475000 0.952739 0
14.480000 1.114885 0
14.485000 1.156170 3
14.490000 1.065997 0
14.495000 0.865265 0
14.500000 0.596931 0
14.505000 0.311211 0
14.510000 0.050596 0
14.515000 -0.157609 0
14.520000 -0.301182 0
14.525000 -0.379449 0
14.530000 -0.400000 4
14.535000 -0.376389 0
14.540000 -0.325617 0
14.545000 -0.264676 0
14.550000 -0.206977 0
14.555000 -0.160222 0
14.560000 -0.126485 0
14.565000 -0.103991 0
14.570000 -0.089343 0
14.575000 -0.079208 0
14.580000 -0.071104 0
14.585000 -0.063487 0
14.590000 -0.055516 0
14.595000 -0.046762 0
14.600000 -0.037011 0
14.605000 -0.026141 0
14.610000 -0.014073 0
14.615000 -0.000755 0
14.620000 0.013848 0
14.625000 0.029748 0
14.630000 0.046935 0
14.635000 0.065369 0
14.640000 0.084983 0
14.645000 0.105677 0
14.650000 0.127318 0
14.655000 0.149742 0
14.660000 0.172747 0
14.665000 0.196103 0
14.670000 0.219552 0
14.675000 0.242809 0
14.680000 0.265572 0
14.685000 0.287522 0
14.690000 0.308337 0
14.695000 0.327694 0
14.700000 0.345281 0
14.705000 0.360801 0
14.710000 0.373984 0
14.715000 0.384593 0
14.720000 0.392430 0
14.725000 0.397344 0
14.730000 0.399234 5
14.735000 0.398053 0
14.740000 0.393808 0
14.745000 0.386563 0
14.750000 0.376434 0
14.755000 0.363588 0
14.760000 0.348238 0
14.765000 0.330635 0
14.770000 0.311063 0
14.775000 0.289832 0
14.780000 0.267266 0
14.785000 0.243699 0
14.790000 0.219464 0
14.795000 0.194888 0
14.800000 0.170280 0
14.805000 0.145930 0
14.810000 0.122102 0
14.815000 0.099029 0
14.820000 0.076911 0
14.825000 0.055915 0
14.830000 0.036172 0
14.835000 0.017776 0
14.840000 0.000792 0
14.845000 -0.014747 0
14.850000 -0.028838 0
14.855000 -0.041499 0
14.860000 -0.052773 0
14.865000 -0.062718 0
14.870000 -0.071405 0
14.875000 -0.078917 0
14.880000 -0.085344 0
14.885000 -0.090777 0
14.890000 -0.095312 0
14.895000 -0.099042 0
14.900000 -0.102056 0
14.905000 -0.104441 0
14.910000 -0.106277 0
14.915000 -0.107639 0
14.920000 -0.108595 0
14.925000 -0.109206 0
14.930000 -0.109526 0
14.935000 -0.109603 0
14.940000 -0.109479 0
14.945000 -0.109190 0
14.950000 -0.108767 0
14.955000 -0.108235 0
14.960000 -0.107617 0
14.965000 -0.106930 0
14.970000 -0.106191 0
14.975000 -0.105410 0
14.980000 -0.104597 0
14.985000 -0.103692 0
14.990000 -0.102775 0
14.995000 -0.101863 0
15.000000 -0.100955 0
15.005000 -0.100052 0
15.010000 -0.099153 0
15.015000 -0.098259 0
15.020000 -0.097369 0
15.025000 -0.096483 0
15.030000 -0.095602 0
15.035000 -0.094726 0
15.040000 -0.093853 0
15.045000 -0.092985 0
15.050000 -0.092122 0
15.055000 -0.091263 0
15.060000 -0.090408 0
15.065000 -0.089557 0
15.070000 -0.088711 0
15.075000 -0.087868 0
15.080000 -0.087030 0
15.085000 -0.086196 0
15.090000 -0.085367 0
15.095000 -0.084541 0
15.100000 -0.083719 0
15.105000 -0.082902 0
15.110000 -0.082088 0
15.115000 -0.081278 0
15.120000 -0.080471 0
15.125000 -0.079667 0
15.130000 -0.078865 0
15.135000 -0.078064 0
15.140000 -0.077261 0
15.145000 -0.076453 0
15.150000 -0.075635 0
15.155000 -0.074798 0
15.160000 -0.073931 0
15.165000 -0.073018 0
15.170000 -0.072033 0
15.175000 -0.070944 0
15.180000 -0.069704 0
15.185000 -0.068252 0
15.190000 -0.066509 0
15.195000 -0.064373 0
15.200000 -0.061721 0
15.205000 -0.058401 0
15.210000 -0.054238 0
15.215000 -0.049034 0
15.220000 -0.042576 0
15.225000 -0.034642 0
15.230000 -0.025018 0
15.235000 -0.013512 0
15.240000 0.000022 0
15.245000 0.015664 0
15.250000 0.033406 0
15.255000 0.053126 0
15.260000 0.074578 0
15.265000 0.097378 0
15.270000 0.121005 0
15.275000 0.144816 0
15.280000 0.168067 0
15.285000 0.189946 0
15.290000 0.209624 0
15.295000 0.226300 0
15.300000 0.239257 0
15.305000 0.247915 0
15.310000 0.251870 1
15.315000 0.250926 0
15.320000 0.245111 0
15.325000 0.234678 0
15.330000 0.220079 0
15.335000 0.201943 0
15.340000 0.181022 0
15.345000 0.158142 0
15.350000 0.134150 0
15.355000 0.109864 0
15.360000 0.086025 0
15.365000 0.063261 0
15.370000 0.042064 0
15.375000 0.022756 0
15.380000 0.005451 0
15.385000 -0.010025 0
15.390000 -0.024261 0
15.395000 -0.038437 0
15.400000 -0.054420 0
15.405000 -0.074607 0
15.410000 -0.101251 0
15.415000 -0.135200 0
15.420000 -0.174354 0
15.425000 -0.212536 0
15.430000 -0.239520 0
15.435000 -0.242377 2
15.440000 -0.207574 0
15.445000 -0.123137 0
15.450000 0.019022 0
15.455000 0.219621 0
15.460000 0.467018 0
15.465000 0.732904 0
15.470000 0.973177 0
15.475000 1.137501 0
15.480000 1.185779 3
15.485000 1.104303 0
15.490000 0.910546 0
15.495000 0.645718 0
15.500000 0.359492 0
15.505000 0.094951 0
15.510000 -0.119423 0
15.515000 -0.270202 0
15.520000 -0.355685 0
15.525000 -0.382578 4
15.530000 -0.363685 0
15.535000 -0.315552 0
15.540000 -0.255184 0
15.545000 -0.196490 0
15.550000 -0.147933 0
15.555000 -0.112309 0
15.560000 -0.088303 0
15.565000 -0.072682 0
15.570000 -0.062062 0
15.575000 -0.053826 0
15.580000 -0.046293 0
15.585000 -0.038526 0
15.590000 -0.030043 0
15.595000 -0.020600 0
15.600000 -0.010066 0
15.605000 0.001644 0
15.610000 0.014588 0
15.615000 0.028802 0
15.620000 0.044305 0
15.625000 0.061091 0
15.630000 0.079129 0
15.635000 0.098360 0
15.640000 0.118692 0
15.645000 0.140004 0
15.650000 0.162140 0
15.655000 0.184912 0
15.660000 0.208101 0
15.665000 0.231458 0
15.670000 0.254709 0
15.675000 0.277559 0
15.680000 0.299700 0
15.685000 0.320813 0
15.690000 0.340578 0
15.695000 0.358682 0
15.700000 0.374827 0
15.705000 0.388736 0
15.710000 0.400163 0
15.715000 0.408899 0
15.720000 0.414778 0
15.725000 0.417681 5
15.730000 0.417544 0
15.735000 0.414352 0
15.740000 0.408149 0
15.745000 0.399030 0
15.750000 0.387141 0
15.755000 0.372674 0
15.760000 0.355865 0
15.765000 0.336980 0
15.770000 0.316317 0
15.775000 0.294191 0
15.780000 0.270929 0
15.785000 0.246861 0
15.790000 0.222314 0
15.795000 0.197601 0
15.800000 0.173018 0
15.805000 0.148839 0
15.810000 0.125308 0
15.815000 0.102638 0
15.820000 0.081010 0
15.825000 0.060568 0
15.830000 0.041425 0
15.835000 0.023660 0
15.840000 0.007318 0
15.845000 -0.007582 0
15.850000 -0.021048 0
15.855000 -0.033111 0
15.860000 -0.043819 0
15.865000 -0.053237 0
15.870000 -0.061442 0
15.875000 -0.068518 0
15.880000 -0.074556 0
15.885000 -0.079648 0
15.890000 -0.083887 0
15.895000 -0.087365 0
15.900000 -0.090168 0
15.905000 -0.092379 0
15.910000 -0.094076 0
15.915000 -0.095330 0
15.920000 -0.096205 0
15.925000 -0.096759 0
15.930000 -0.097043 0
15.935000 -0.097102 0
15.940000 -0.096974 0
15.945000 -0.096694 0
15.950000 -0.096291 0
15.955000 -0.095787 0
15.960000 -0.095205 0
15.965000 -0.094559 0
15.970000 -0.093865 0
15.975000 -0.093132 0
15.980000 -0.092372 0
15.985000 -0.091526 0
15.990000 -0.090670 0
15.995000 -0.089818 0
16.000000 -0.088970 0
16.005000 -0.088127 0
16.010000 -0.087287 0
16.015000 -0.086452 0
16.020000 -0.085621 0
16.025000 -0.084794 0
16.030000 -0.083972 0
16.035000 -0.083153 0
16.040000 -0.082338 0
16.045000 -0.081528 0
16.050000 -0.080721 0
16.055000 -0.079919 0
16.060000 -0.079121 0
16.065000 -0.078326 0
16.070000 -0.077536 0
16.075000 -0.076749 0
16.080000 -0.075967 0
16.085000 -0.075188 0
16.090000 -0.074413 0
16.095000 -0.073642 0
16.100000 -0.072875 0
16.105000 -0.072111 0
16.110000 -0.071351 0
16.115000 -0.070595 0
16.120000 -0.069841 0
16.125000 -0.069090 0
16.130000 -0.068340 0
16.135000 -0.067591 0
16.140000 -0.066839 0
16.145000 -0.066082 0
16.150000 -0.065313 0
16.155000 -0.064525 0
16.160000 -0.063705 0
16.165000 -0.062836 0
16.170000 -0.061894 0
16.175000 -0.060844 0
16.180000 -0.059639 0
16.185000 -0.058218 0
16.190000 -0.056501 0
16.195000 -0.054387 0
16.200000 -0.051750 0
16.205000 -0.048442 0
16.210000 -0.044286 0
16.215000 -0.039088 0
16.220000 -0.032636 0
16.225000 -0.024711 0
16.230000 -0.015101 0
16.235000 -0.003618 0
16.240000 0.009882 0
16.245000 0.025478 0
16.250000 0.043159 0
16.255000 0.062809 0
16.260000 0.084184 0
16.265000 0.106907 0
16.270000 0.130468 0
16.275000 0.154234 0
16.280000 0.177472 0
16.285000 0.199384 0
16.290000 0.219150 0
16.295000 0.235974 0
16.300000 0.249145 0
16.305000 0.258077 0
16.310000 0.262358 1
16.315000 0.261777 0
16.320000 0.256344 0
16.325000 0.246288 0
16.330000 0.232040 0
16.335000 0.214204 0
16.340000 0.193512 0
16.345000 0.170774 0
16.350000 0.146829 0
16.355000 0.122490 0
16.360000 0.098501 0
16.365000 0.075501 0
16.370000 0.053997 0
16.375000 0.034333 0
16.380000 0.016660 0
16.385000 0.000860 0
16.390000 -0.013569 0
16.395000 -0.027677 0
16.400000 -0.043185 0
16.405000 -0.062397 0
16.410000 -0.087647 0
16.415000 -0.120177 0
16.420000 -0.158632 0
16.425000 -0.197813 0
16.430000 -0.228420 0
16.435000 -0.238111 2
16.440000 -0.213462 0
16.445000 -0.142085 0
16.450000 -0.014800 0
16.455000 0.171342 0
16.460000 0.408467 0
16.465000 0.673132 0
16.470000 0.925392 0
16.475000 1.115762 0
16.480000 1.200000 3
16.485000 1.153103 0
16.490000 0.983393 0
16.495000 0.729553 0
16.500000 0.443626 0
16.505000 0.173340 0
16.510000 -0.048561 0
16.515000 -0.205978 0
16.520000 -0.296045 0
16.525000 -0.325316 4
16.530000 -0.307117 0
16.535000 -0.258912 0
16.540000 -0.198646 0
16.545000 -0.140789 0
16.550000 -0.093817 0
16.555000 -0.060145 0
16.560000 -0.037988 0
16.565000 -0.023806 0
16.570000 -0.014133 0
16.575000 -0.006422 0
16.580000 0.000882 0
16.585000 0.008611 0
16.590000 0.017179 0
16.595000 0.026792 0
16.600000 0.037568 0
16.605000 0.049583 0
16.610000 0.062890 0
16.615000 0.077519 0
16.620000 0.093477 0
16.625000 0.110746 0
16.630000 0.129276 0
16.635000 0.148986 0
16.640000 0.169761 0
16.645000 0.191448 0
16.650000 0.213861 0
16.655000 0.236777 0
16.660000 0.259943 0
16.665000 0.283074 0
16.670000 0.305863 0
16.675000 0.327985 0
16.680000 0.349103 0
16.685000 0.368880 0
16.690000 0.386982 0
16.695000 0.403091 0
16.700000 0.416912 0
16.705000 0.428185 0
16.710000 0.436687 0
16.715000 0.442244 0
16.720000 0.444734 5
16.725000 0.444091 0
16.730000 0.440309 0
16.735000 0.433441 0
16.740000 0.423598 0
16.745000 0.410943 0
16.750000 0.395692 0
16.755000 0.378103 0
16.760000 0.358468 0
16.765000 0.337109 0
16.770000 0.314366 0
16.775000 0.290586 0
16.780000 0.266117 0
16.785000 0.241302 0
16.790000 0.216463 0
16.795000 0.191902 0
16.800000 0.167894 0
16.805000 0.144680 0
16.810000 0.122464 0
16.815000 0.101416 0
16.820000 0.081667 0
16.825000 0.063310 0
16.830000 0.046407 0
16.835000 0.030984 0
16.840000 0.017038 0
16.845000 0.004544 0
16.850000 -0.006547 0
16.855000 -0.016302 0
16.860000 -0.024800 0
16.865000 -0.032129 0
16.870000 -0.038385 0
16.875000 -0.043665 0
16.880000 -0.048068 0
16.885000 -0.051690 0
16.890000 -0.054624 0
16.895000 -0.056955 0
16.900000 -0.058766 0
16.905000 -0.060131 0
16.910000 -0.061116 0
16.915000 -0.061781 0
16.920000 -0.062179 0
16.925000 -0.062356 0
16.930000 -0.062351 0
16.935000 -0.062199 0
16.940000 -0.061927 0
16.945000 -0.061560 0
16.950000 -0.061119 0
16.955000 -0.060618 0
16.960000 -0.060071 0
16.965000 -0.059490 0
16.970000 -0.058870 0
16.975000 -0.058177 0
16.980000 -0.057487 0
16.985000 -0.056800 0
16.990000 -0.056117 0
16.995000 -0.055437 0
17.000000 -0.054761 0
17.005000 -0.054088 0
17.010000 -0.053419 0
17.015000 -0.052752 0
17.020000 -0.052090 0
17.025000 -0.051430 0
17.030000 -0.050774 0
17.035000 -0.050121 0
17.040000 -0.049471 0
17.045000 -0.048824 0
17.050000 -0.048181 0
17.055000 -0.047541 0
17.060000 -0.046904 0
17.065000 -0.046270 0
17.070000 -0.045640 0
17.075000 -0.045012 0
17.080000 -0.044388 0
17.085000 -0.043766 0
17.090000 -0.043148 0
17.095000 -0.042532 0
17.100000 -0.041919 0
17.105000 -0.041308 0
17.110000 -0.040699 0
17.115000 -0.040090 0
17.120000 -0.039479 0
17.125000 -0.038864 0
17.130000 -0.038240 0
17.135000 -0.037599 0
17.140000 -0.036932 0
17.145000 -0.036223 0
17.150000 -0.035449 0
17.155000 -0.034579 0
17.160000 -0.033568 0
17.165000 -0.032358 0
17.170000 -0.030870 0
17.175000 -0.029004 0
17.180000 -0.026634 0
17.185000 -0.023609 0
17.190000 -0.019748 0
17.195000 -0.014848 0
17.200000 -0.008687 0
17.205000 -0.001033 0
17.210000 0.008340 0
17.215000 0.019632 0
17.220000 0.032999 0
17.225000 0.048526 0
17.230000 0.066199 0
17.235000 0.085887 0
17.240000 0.107323 0
17.245000 0.130093 0
17.250000 0.153637 0
17.255000 0.177266 0
17.260000 0.200188 0
17.265000 0.221547 0
17.270000 0.240477 0
17.275000 0.256156 0
17.280000 0.267866 0
17.285000 0.275043 0
17.290000 0.277328 1
17.295000 0.274588 0
17.300000 0.266933 0
17.305000 0.254705 0
17.310000 0.238454 0
17.315000 0.218893 0
17.320000 0.196849 0
17.325000 0.173205 0
17.330000 0.148835 0
17.335000 0.124560 0
17.340000 0.101099 0
17.345000 0.079034 0
17.350000 0.058783 0
17.355000 0.040560 0
17.360000 0.024314 0
17.365000 0.009606 0
17.370000 -0.004569 0
17.375000 -0.019934 0
17.380000 -0.038874 0
17.385000 -0.063887 0
17.390000 -0.096372 0
17.395000 -0.134962 0
17.400000 -0.174121 0
17.405000 -0.203864 0
17.410000 -0.210996 2
17.415000 -0.181321 0
17.420000 -0.102024 0
17.425000 0.035844 0
17.430000 0.233702 0
17.435000 0.480080 0
17.440000 0.745815 0
17.445000 0.984857 0
17.450000 1.144692 0
17.455000 1.184353 3
17.460000 1.088211 0
17.465000 0.877991 0
17.470000 0.603349 0
17.475000 0.319902 0
17.480000 0.071776 0
17.485000 -0.115436 0
17.490000 -0.232866 0
17.495000 -0.283783 4
17.500000 -0.280025 0
17.505000 -0.239165 0
17.510000 -0.180710 0
17.515000 -0.121497 0
17.520000 -0.072200 0
17.525000 -0.036583 0
17.530000 -0.013300 0
17.535000 0.001317 0
17.540000 0.011034 0
17.545000 0.018642 0
17.550000 0.025826 0
17.555000 0.033472 0
17.560000 0.042006 0
17.565000 0.051641 0
17.570000 0.062496 0
17.575000 0.074648 0
17.580000 0.088150 0
17.585000 0.103027 0
17.590000 0.119281 0
17.595000 0.136883 0
17.600000 0.155769 0
17.605000 0.175838 0
17.610000 0.196951 0
17.615000 0.218928 0
17.620000 0.241550 0
17.625000 0.264561 0
17.630000 0.287671 0
17.635000 0.310559 0
17.640000 0.332883 0
17.645000 0.354286 0
17.650000 0.374404 0
17.655000 0.392878 0
17.660000 0.409361 0
17.665000 0.423531 0
17.670000 0.435102 0
17.675000 0.443829 0
17.680000 0.449520 0
17.685000 0.452040 5
17.690000 0.451317 0
17.695000 0.447344 0
17.700000 0.440180 0
17.705000 0.429949 0
17.710000 0.416834 0
17.715000 0.401071 0
17.720000 0.382944 0
17.725000 0.362777 0
17.730000 0.340917 0
17.735000 0.317733 0
17.740000 0.293599 0
17.745000 0.268886 0
17.750000 0.243954 0
17.755000 0.219141 0
17.760000 0.194755 0
17.765000 0.171074 0
17.770000 0.148336 0
17.775000 0.126738 0
17.780000 0.106437 0
17.785000 0.087547 0
17.790000 0.070144 0
17.795000 0.054267 0
17.800000 0.039921 0
17.805000 0.027083 0
17.810000 0.015704 0
17.815000 0.005717 0
17.820000 -0.002963 0
17.825000 -0.010429 0
17.830000 -0.016784 0
17.835000 -0.022132 0
17.840000 -0.026578 0
17.845000 -0.030224 0
17.850000 -0.033170 0
17.855000 -0.035508 0
17.860000 -0.037323 0
17.865000 -0.038692 0
17.870000 -0.039686 0
17.875000 -0.040366 0
17.880000 -0.040786 0
17.885000 -0.040992 0
17.890000 -0.041026 0
17.895000 -0.040920 0
17.900000 -0.040703 0
17.905000 -0.040399 0
17.910000 -0.040025 0
17.915000 -0.039599 0
17.920000 -0.039132 0
17.925000 -0.038621 0
17.930000 -0.038028 0
17.935000 -0.037439 0
17.940000 -0.036852 0
17.945000 -0.036269 0
17.950000 -0.035688 0
17.955000 -0.035110 0
17.960000 -0.034535 0
17.965000 -0.033963 0
17.970000 -0.033394 0
17.975000 -0.032828 0
17.980000 -0.032264 0
17.985000 -0.031703 0
17.990000 -0.031145 0
17.995000 -0.030590 0
18.000000 -0.030038 0
18.005000 -0.029488 0
18.010000 -0.028941 0
18.015000 -0.028397 0
18.020000 -0.027856 0
18.025000 -0.027317 0
18.030000 -0.026781 0
18.035000 -0.026247 0
18.040000 -0.025716 0
18.045000 -0.025188 0
18.050000 -0.024662 0
18.055000 -0.024137 0
18.060000 -0.023614 0
18.065000 -0.023091 0
18.070000 -0.022567 0
18.075000 -0.022038 0
18.080000 -0.021501 0
18.085000 -0.020948 0
18.090000 -0.020369 0
18.095000 -0.019748 0
18.100000 -0.019062 0
18.105000 -0.018278 0
18.110000 -0.017348 0
18.115000 -0.016209 0
18.120000 -0.014777 0
18.125000 -0.012942 0
18.130000 -0.010566 0
18.135000 -0.007482 0
18.140000 -0.003493 0
18.145000 0.001626 0
18.150000 0.008117 0
18.155000 0.016228 0
18.160000 0.026194 0
18.165000 0.038218 0
18.170000 0.052439 0
18.175000 0.068906 0
18.180000 0.087550 0
18.185000 0.108160 0
18.190000 0.130364 0
18.195000 0.153629 0
18.200000 0.177270 0
18.205000 0.200471 0
18.210000 0.222332 0
18.215000 0.241922 0
18.220000 0.258342 0
18.225000 0.270790 0
18.230000 0.278631 0
18.235000 0.281442 1
18.240000 0.279053 0
18.245000 0.271563 0
18.250000 0.259327 0
18.255000 0.242932 0
18.260000 0.223149 0
18.265000 0.200869 0
18.270000 0.177038 0
18.275000 0.152590 0
18.280000 0.128389 0
18.285000 0.105176 0
18.290000 0.083536 0
18.295000 0.063860 0
18.300000 0.046299 0
18.305000 0.030666 0
18.310000 0.016278 0
18.315000 0.001744 0
18.320000 -0.015141 0
18.325000 -0.037102 0
18.330000 -0.066386 0
18.335000 -0.103022 0
18.340000 -0.142968 0
18.345000 -0.177185 0
18.350000 -0.192437 2
18.355000 -0.173566 0
18.360000 -0.106226 0
18.365000 0.020345 0
18.370000 0.209512 0
18.375000 0.451391 0
18.380000 0.716994 0
18.385000 0.958191 0
18.390000 1.118770 0
18.395000 1.154792 3
18.400000 1.053142 0
18.405000 0.838552 0
18.410000 0.562125 0
18.415000 0.279930 0
18.420000 0.035576 0
18.425000 -0.146305 0
18.430000 -0.257826 0
18.435000 -0.303133 4
18.440000 -0.294866 0
18.445000 -0.251205 0
18.450000 -0.191850 0
18.455000 -0.133299 0
18.460000 -0.085529 0
18.465000 -0.051582 0
18.470000 -0.029631 0
18.475000 -0.015839 0
18.480000 -0.006493 0
18.485000 0.001055 0
18.490000 0.008365 0
18.495000 0.016233 0
18.500000 0.025045 0
18.505000 0.034991 0
18.510000 0.046181 0
18.515000 0.058690 0
18.520000 0.072564 0
18.525000 0.087826 0
18.530000 0.104470 0
18.535000 0.122461 0
18.540000 0.141724 0
18.545000 0.162149 0
18.550000 0.183584 0
18.555000 0.205840 0
18.560000 0.228682 0
18.565000 0.251843 0
18.570000 0.275020 0
18.575000 0.297881 0
18.580000 0.320075 0
18.585000 0.341236 0
18.590000 0.360996 0
18.595000 0.378993 0
18.600000 0.394883 0
18.605000 0.408351 0
18.610000 0.419117 0
18.615000 0.426950 0
18.620000 0.431674 0
18.625000 0.433173 5
18.630000 0.431397 0
18.635000 0.426362 0
18.640000 0.418153 0
18.645000 0.406916 0
18.650000 0.392857 0
18.655000 0.376237 0
18.660000 0.357359 0
18.665000 0.336562 0
18.670000 0.314207 0
18.675000 0.290672 0
18.680000 0.266335 0
18.685000 0.241570 0
18.690000 0.216732 0
18.695000 0.192152 0
18.700000 0.168129 0
18.705000 0.144927 0
18.710000 0.122769 0
18.715000 0.101836 0
18.720000 0.082266 0
18.725000 0.064157 0
18.730000 0.047567 0
18.735000 0.032519 0
18.740000 0.019004 0
18.745000 0.006984 0
18.750000 -0.003601 0
18.755000 -0.012827 0
18.760000 -0.020786 0
18.765000 -0.027578 0
18.770000 -0.033308 0
18.775000 -0.038082 0
18.780000 -0.042006 0
18.785000 -0.045182 0
18.790000 -0.047706 0
18.795000 -0.049668 0
18.800000 -0.051150 0
18.805000 -0.052227 0
18.810000 -0.052962 0
18.815000 -0.053416 0
18.820000 -0.053638 0
18.825000 -0.053671 0
18.830000 -0.053551 0
18.835000 -0.053310 0
18.840000 -0.052973 0
18.845000 -0.052560 0
18.850000 -0.052089 0
18.855000 -0.051573 0
18.860000 -0.051024 0
18.865000 -0.050385 0
18.870000 -0.049734 0
18.875000 -0.049086 0
18.880000 -0.048441 0
18.885000 -0.047800 0
18.890000 -0.047161 0
18.895000 -0.046526 0
18.900000 -0.045895 0
18.905000 -0.045266 0
18.910000 -0.044640 0
18.915000 -0.044018 0
18.920000 -0.043399 0
18.925000 -0.042782 0
18.930000 -0.042169 0
18.935000 -0.041559 0
18.940000 -0.040952 0
18.945000 -0.040348 0
18.950000 -0.039747 0
18.955000 -0.039149 0
18.960000 -0.038554 0
18.965000 -0.037962 0
18.970000 -0.037372 0
18.975000 -0.036786 0
18.980000 -0.036202 0
18.985000 -0.035621 0
18.990000 -0.035042 0
18.995000 -0.034465 0
19.000000 -0.033888 0
19.005000 -0.033311 0
19.010000 -0.032730 0
19.015000 -0.032141 0
19.020000 -0.031538 0
19.025000 -0.030910 0
19.030000 -0.030243 0
19.035000 -0.029513 0
19.040000 -0.028688 0
19.045000 -0.027721 0
19.050000 -0.026552 0
19.055000 -0.025095 0
19.060000 -0.023241 0
19.065000 -0.020853 0
19.070000 -0.017764 0
19.075000 -0.013774 0
19.080000 -0.008657 0
19.085000 -0.002170 0
19.090000 0.005939 0
19.095000 0.015911 0
19.100000 0.027951 0
19.105000 0.042201 0
19.110000 0.058713 0
19.115000 0.077417 0
19.120000 0.098097 0
19.125000 0.120376 0
19.130000 0.143712 0
19.135000 0.167404 0
19.140000 0.190625 0
19.145000 0.212459 0
19.150000 0.231962 0
19.155000 0.248227 0
19.160000 0.260450 0
19.165000 0.267999 0
19.170000 0.270463 1
19.175000 0.267690 0
19.180000 0.259801 0
19.185000 0.247182 0
19.190000 0.230447 0
19.195000 0.210392 0
19.200000 0.187931 0
19.205000 0.164023 0
19.210000 0.139610 0
19.215000 0.115553 0
19.220000 0.092583 0
19.225000 0.071268 0
19.230000 0.051969 0
19.235000 0.034794 0
19.240000 0.019484 0
19.245000 0.005237 0
19.250000 -0.009503 0
19.255000 -0.027107 0
19.260000 -0.050349 0
19.265000 -0.081211 0
19.270000 -0.119012 0
19.275000 -0.158605 0
19.280000 -0.189767 0
19.285000 -0.198411 2
19.290000 -0.169124 0
19.295000 -0.087971 0
19.300000 0.054540 0
19.305000 0.259050 0
19.310000 0.510969 0
19.315000 0.775362 0
19.320000 0.999617 0
19.325000 1.127999 3
19.330000 1.123532 0
19.335000 0.986799 0
19.340000 0.751409 0
19.345000 0.469088 0
19.350000 0.191578 0
19.355000 -0.043141 0
19.360000 -0.214748 0
19.365000 -0.317723 0
19.370000 -0.357131 4
19.375000 -0.345598 0
19.380000 -0.300626 0
19.385000 -0.240893 0
19.390000 -0.181997 0
19.395000 -0.133482 0
19.400000 -0.098443 0
19.405000 -0.075342 0
19.410000 -0.060596 0
19.415000 -0.050598 0
19.420000 -0.042672 0
19.425000 -0.035188 0
19.430000 -0.027278 0
19.435000 -0.018516 0
19.440000 -0.008689 0
19.445000 0.002322 0
19.450000 0.014595 0
19.455000 0.028182 0
19.460000 0.043112 0
19.465000 0.059392 0
19.470000 0.076999 0
19.475000 0.095877 0
19.480000 0.115940 0
19.485000 0.137061 0
19.490000 0.159079 0
19.495000 0.181794 0
19.500000 0.204970 0
19.505000 0.228338 0
19.510000 0.251600 0
19.515000 0.274434 0
19.520000 0.296501 0
19.525000 0.317453 0
19.530000 0.336941 0
19.535000 0.354626 0
19.540000 0.370187 0
19.545000 0.383330 0
19.550000 0.393800 0
19.555000 0.401385 0
19.560000 0.405924 0
19.565000 0.407315 5
19.570000 0.405514 0
19.575000 0.400542 0
19.580000 0.392478 0
19.585000 0.381463 0
19.590000 0.367692 0
19.595000 0.351407 0
19.600000 0.332895 0
19.605000 0.312472 0
19.610000 0.290482 0
19.615000 0.267279 0
19.620000 0.243225 0
19.625000 0.218674 0
19.630000 0.193968 0
19.635000 0.169429 0
19.640000 0.145349 0
19.645000 0.121990 0
19.650000 0.099577 0
19.655000 0.078296 0
19.660000 0.058295 0
19.665000 0.039681 0
19.670000 0.022527 0
19.675000 0.006870 0
19.680000 -0.007286 0
19.685000 -0.019962 0
19.690000 -0.031203 0
19.695000 -0.041075 0
19.700000 -0.049656 0
19.705000 -0.057036 0
19.710000 -0.063312 0
19.715000 -0.068586 0
19.720000 -0.072957 0
19.725000 -0.076527 0
19.730000 -0.079389 0
19.735000 -0.081635 0
19.740000 -0.083349 0
19.745000 -0.084606 0
19.750000 -0.085477 0
19.755000 -0.086023 0
19.760000 -0.086298 0
19.765000 -0.086351 0
19.770000 -0.086220 0
19.775000 -0.085942 0
19.780000 -0.085544 0
19.785000 -0.085053 0
19.790000 -0.084487 0
19.795000 -0.083864 0
19.800000 -0.083196 0
19.805000 -0.082495 0
19.810000 -0.081700 0
19.815000 -0.080893 0
19.820000 -0.080089 0
19.825000 -0.079290 0
19.830000 -0.078495 0
19.835000 -0.077704 0
19.840000 -0.076916 0
19.845000 -0.076133 0
19.850000 -0.075353 0
19.855000 -0.074578 0
19.860000 -0.073806 0
19.865000 -0.073038 0
19.870000 -0.072274 0
19.875000 -0.071514 0
19.880000 -0.070757 0
19.885000 -0.070005 0
19.890000 -0.069256 0
19.895000 -0.068510 0
19.900000 -0.067769 0
19.905000 -0.067031 0
19.910000 -0.066297 0
19.915000 -0.065566 0
19.920000 -0.064839 0
19.925000 -0.064116 0
19.930000 -0.063396 0
19.935000 -0.062679 0
19.940000 -0.061965 0
19.945000 -0.061253 0
19.950000 -0.060543 0
19.955000 -0.059832 0
19.960000 -0.059119 0
19.965000 -0.058399 0
19.970000 -0.057666 0
19.975000 -0.056910 0
19.980000 -0.056118 0
19.985000 -0.055269 0
19.990000 -0.054333 0
19.995000 -0.053269 0
20.000000 -0.052020 0
20.005000 -0.050511 0
20.010000 -0.048646 0
20.015000 -0.046300 0
20.020000 -0.043323 0
20.025000 -0.039535 0
20.030000 -0.034730 0
20.035000 -0.028682 0
20.040000 -0.021152 0
20.045000 -0.011906 0
20.050000 -0.000733 0
20.055000 0.012534 0
20.060000 0.027990 0
20.065000 0.045630 0
20.070000 0.065328 0
20.075000 0.086814 0
20.080000 0.109666 0
20.085000 0.133311 0
20.090000 0.157037 0
20.095000 0.180028 0
20.100000 0.201401 0
20.105000 0.220263 0
20.110000 0.235771 0
20.115000 0.247197 0
20.120000 0.253976 0
20.125000 0.255760 1
20.130000 0.252444 0
20.135000 0.244173 0
20.140000 0.231335 0
20.145000 0.214526 0
20.150000 0.194509 0
20.155000 0.172150 0
20.160000 0.148362 0
20.165000 0.124038 0
20.170000 0.100003 0
20.175000 0.076964 0
20.180000 0.055477 0
20.185000 0.035917 0
20.190000 0.018432 0
20.195000 0.002855 0
20.200000 -0.011439 0
20.205000 -0.025732 0
20.210000 -0.042078 0
20.215000 -0.063079 0
20.220000 -0.091042 0
20.225000 -0.126443 0
20.230000 -0.166164 0
20.235000 -0.202416 0
20.240000 -0.223161 2
20.245000 -0.214007 0
20.250000 -0.160726 0
20.255000 -0.051752 0
20.260000 0.118694 0
20.265000 0.345720 0
20.270000 0.607866 0
20.275000 0.864587 0
20.280000 1.062662 0
20.285000 1.152695 3
20.290000 1.111798 0
20.295000 0.949006 0
20.300000 0.700269 0
20.305000 0.415420 0
20.310000 0.141489 0
20.315000 -0.088051 0
20.320000 -0.255663 0
20.325000 -0.356891 0
20.330000 -0.396688 4
20.335000 -0.386814 0
20.340000 -0.343514 0
20.345000 -0.284333 0
20.350000 -0.224363 0
20.355000 -0.173426 0
20.360000 -0.135392 0
20.365000 -0.109518 0
20.370000 -0.092696 0
20.375000 -0.081421 0
20.380000 -0.072879 0
20.385000 -0.065230 0
20.390000 -0.057433 0
20.395000 -0.048955 0
20.400000 -0.039529 0
20.405000 -0.029010 0
20.410000 -0.017311 0
20.415000 -0.004369 0
20.420000 0.009853 0
20.425000 0.025377 0
20.430000 0.042197 0
20.435000 0.060283 0
20.440000 0.079576 0
20.445000 0.099984 0
20.450000 0.121383 0
20.455000 0.143615 0
20.460000 0.166487 0
20.465000 0.189777 0
20.470000 0.213230 0
20.475000 0.236565 0
20.480000 0.259483 0
20.485000 0.281667 0
20.490000 0.302792 0
20.495000 0.322532 0
20.500000 0.340569 0
20.505000 0.356600 0
20.510000 0.370346 0
20.515000 0.381561 0
20.520000 0.390035 0
20.525000 0.395605 0
20.530000 0.398159 5
20.535000 0.397635 0
20.540000 0.394032 0
20.545000 0.387399 0
20.550000 0.377845 0
20.555000 0.365527 0
20.560000 0.350650 0
20.565000 0.333461 0
20.570000 0.314239 0
20.575000 0.293293 0
20.580000 0.270946 0
20.585000 0.247535 0
20.590000 0.223394 0
20.595000 0.198855 0
20.600000 0.174232 0
20.605000 0.149821 0
20.610000 0.125893 0
20.615000 0.102688 0
20.620000 0.080412 0
20.625000 0.059237 0
20.630000 0.039302 0
20.635000 0.020708 0
20.640000 0.003523 0
20.645000 -0.012215 0
20.650000 -0.026499 0
20.655000 -0.039346 0
20.660000 -0.050793 0
20.665000 -0.060899 0
20.670000 -0.069734 0
20.675000 -0.077381 0
20.680000 -0.083927 0
20.685000 -0.089467 0
20.690000 -0.094095 0
20.695000 -0.097905 0
20.700000 -0.100989 0
20.705000 -0.103433 0
20.710000 -0.105320 0
20.715000 -0.106725 0
20.720000 -0.107716 0
20.725000 -0.108356 0
20.730000 -0.108700 0
20.735000 -0.108798 0
20.740000 -0.108691 0
20.745000 -0.108415 0
20.750000 -0.108004 0
20.755000 -0.107482 0
20.760000 -0.106872 0
20.765000 -0.106192 0
20.770000 -0.105459 0
20.775000 -0.104683 0
20.780000 -0.103876 0
20.785000 -0.102974 0
20.790000 -0.102061 0
20.795000 -0.101152 0
20.800000 -0.100248 0
20.805000 -0.099348 0
20.810000 -0.098453 0
20.815000 -0.097562 0
20.820000 -0.096675 0
20.825000 -0.095794 0
20.830000 -0.094916 0
20.835000 -0.094043 0
20.840000 -0.093174 0
20.845000 -0.092309 0
20.850000 -0.091449 0
20.855000 -0.090593 0
20.860000 -0.089742 0
20.865000 -0.088894 0
20.870000 -0.088051 0
20.875000 -0.087212 0
20.880000 -0.086377 0
20.885000 -0.085547 0
20.890000 -0.084720 0
20.895000 -0.083898 0
20.900000 -0.083079 0
20.905000 -0.082265 0
20.910000 -0.081454 0
20.915000 -0.080647 0
20.920000 -0.079844 0
20.925000 -0.079043 0
20.930000 -0.078244 0
20.935000 -0.077445 0
20.940000 -0.076645 0
20.945000 -0.075839 0
20.950000 -0.075022 0
20.955000 -0.074187 0
20.960000 -0.073320 0
20.965000 -0.072404 0
20.970000 -0.071414 0
20.975000 -0.070315 0
20.980000 -0.069059 0
20.985000 -0.067584 0
20.990000 -0.065807 0
20.995000 -0.063624 0
21.000000 -0.060907 0
21.005000 -0.057501 0
21.010000 -0.053226 0
21.015000 -0.047882 0
21.020000 -0.041252 0
21.025000 -0.033112 0
21.030000 -0.023249 0
21.035000 -0.011474 0
21.040000 0.002352 0
21.045000 0.018299 0
21.050000 0.036342 0
21.055000 0.056342 0
21.060000 0.078030 0
21.065000 0.100998 0
21.070000 0.124703 0
21.075000 0.148476 0
21.080000 0.171555 0
21.085000 0.193117 0
21.090000 0.212326 0
21.095000 0.228388 0
21.100000 0.240603 0
21.105000 0.248415 0
21.110000 0.251453 1
21.115000 0.249564 0
21.120000 0.242819 0
21.125000 0.231513 0
21.130000 0.216143 0
21.135000 0.197368 0
21.140000 0.175967 0
21.145000 0.152780 0
21.150000 0.128658 0
21.155000 0.104411 0
21.160000 0.080763 0
21.165000 0.058319 0
21.170000 0.037536 0
21.175000 0.018696 0
21.180000 0.001855 0
21.185000 -0.013250 0
21.190000 -0.027339 0
21.195000 -0.041765 0
21.200000 -0.058575 0
21.205000 -0.080232 0
21.210000 -0.108783 0
21.215000 -0.144459 0
21.220000 -0.184138 0
21.225000 -0.220455 0
21.230000 -0.242199 2
21.235000 -0.235963 0
21.240000 -0.188345 0
21.245000 -0.088117 0
21.250000 0.071189 0
21.255000 0.287270 0
21.260000 0.543834 0
21.265000 0.807249 0
21.270000 1.029832 0
21.275000 1.162117 0
21.280000 1.170308 3
21.285000 1.050624 0
21.290000 0.829502 0
21.295000 0.552702 0
21.300000 0.269277 0
21.305000 0.018249 0
21.310000 -0.176827 0
21.315000 -0.306629 0
21.320000 -0.372423 0
21.325000 -0.383091 4
21.330000 -0.352949 0
21.335000 -0.299116 0
21.340000 -0.237991 0
21.345000 -0.181916 0
21.350000 -0.137459 0
21.355000 -0.105865 0
21.360000 -0.084959 0
21.365000 -0.071298 0
21.370000 -0.061685 0
21.375000 -0.053810 0
21.380000 -0.046263 0
21.385000 -0.038286 0
21.390000 -0.029493 0
21.395000 -0.019689 0
21.400000 -0.008760 0
21.405000 0.003367 0
21.410000 0.016743 0
21.415000 0.031399 0
21.420000 0.047346 0
21.425000 0.064570 0
21.430000 0.083030 0
21.435000 0.102657 0
21.440000 0.123349 0
21.445000 0.144972 0
21.450000 0.167359 0
21.455000 0.190312 0
21.460000 0.213600 0
21.465000 0.236965 0
21.470000 0.260125 0
21.475000 0.282779 0
21.480000 0.304613 0
21.485000 0.325308 0
21.490000 0.344544 0
21.495000 0.362012 0
21.500000 0.377419 0
21.505000 0.390499 0
21.510000 0.401017 0
21.515000 0.408778 0
21.520000 0.413631 0
21.525000 0.415478 5
21.530000 0.414270 0
21.535000 0.410014 0
21.540000 0.402773 0
21.545000 0.392658 0
21.550000 0.379835 0
21.555000 0.364512 0
21.560000 0.346936 0
21.565000 0.327388 0
21.570000 0.306171 0
21.575000 0.283607 0
21.580000 0.260026 0
21.585000 0.235758 0
21.590000 0.211125 0
21.595000 0.186437 0
21.600000 0.161983 0
21.605000 0.138026 0
21.610000 0.114798 0
21.615000 0.092504 0
21.620000 0.071309 0
21.625000 0.051347 0
21.630000 0.032718 0
21.635000 0.015488 0
21.640000 -0.000307 0
21.645000 -0.014659 0
21.650000 -0.027585 0
21.655000 -0.039123 0
21.660000 -0.049328 0
21.665000 -0.058269 0
21.670000 -0.066028 0
21.675000 -0.072691 0
21.680000 -0.078350 0
21.685000 -0.083097 0
21.690000 -0.087026 0
21.695000 -0.090227 0
21.700000 -0.092785 0
21.705000 -0.094782 0
21.710000 -0.096292 0
21.715000 -0.097384 0
21.720000 -0.098120 0
21.725000 -0.098555 0
21.730000 -0.098738 0
21.735000 -0.098711 0
21.740000 -0.098513 0
21.745000 -0.098173 0
21.750000 -0.097720 0
21.755000 -0.097175 0
21.760000 -0.096557 0
21.765000 -0.095883 0
21.770000 -0.095165 0
21.775000 -0.094412 0
21.780000 -0.093621 0
21.785000 -0.092754 0
21.790000 -0.091892 0
21.795000 -0.091034 0
21.800000 -0.090180 0
21.805000 -0.089330 0
21.810000 -0.088485 0
21.815000 -0.087644 0
21.820000 -0.086807 0
21.825000 -0.085974 0
21.830000 -0.085145 0
21.835000 -0.084321 0
21.840000 -0.083501 0
21.845000 -0.082684 0
21.850000 -0.081872 0
21.855000 -0.081064 0
21.860000 -0.080260 0
21.865000 -0.079460 0
21.870000 -0.078664 0
21.875000 -0.077872 0
21.880000 -0.077083 0
21.885000 -0.076299 0
21.890000 -0.075519 0
21.895000 -0.074742 0
21.900000 -0.073969 0
21.905000 -0.073200 0
21.910000 -0.072435 0
21.915000 -0.071672 0
21.920000 -0.070913 0
21.925000 -0.070156 0
21.930000 -0.069399 0
21.935000 -0.068642 0
21.940000 -0.067882 0
21.945000 -0.067114 0
21.950000 -0.066331 0
21.955000 -0.065524 0
21.960000 -0.064680 0
21.965000 -0.063776 0
21.970000 -0.062785 0
21.975000 -0.061668 0
21.980000 -0.060372 0
21.985000 -0.058828 0
21.990000 -0.056946 0
21.995000 -0.054615 0
22.000000 -0.051699 0
22.005000 -0.048038 0
22.010000 -0.043445 0
22.015000 -0.037718 0
22.020000 -0.030640 0
22.025000 -0.021993 0
22.030000 -0.011572 0
22.035000 0.000793 0
22.040000 0.015221 0
22.045000 0.031755 0
22.050000 0.050338 0
22.055000 0.070800 0
22.060000 0.092837 0
22.065000 0.116011 0
22.070000 0.139756 0
22.075000 0.163387 0
22.080000 0.186138 0
22.085000 0.207192 0
22.090000 0.225734 0
22.095000 0.240996 0
22.100000 0.252319 0
22.105000 0.259188 0
22.110000 0.261280 1
22.115000 0.258484 0
22.120000 0.250909 0
22.125000 0.238879 0
22.130000 0.222912 0
22.135000 0.203676 0
22.140000 0.181947 0
22.145000 0.158557 0
22.150000 0.134339 0
22.155000 0.110080 0
22.160000 0.086483 0
22.165000 0.064129 0
22.170000 0.043454 0
22.175000 0.024718 0
22.180000 0.007959 0
22.185000 -0.007103 0
22.190000 -0.021207 0
22.195000 -0.035710 0
22.200000 -0.052645 0
22.205000 -0.074438 0
22.210000 -0.103084 0
22.215000 -0.138791 0
22.220000 -0.178493 0
22.225000 -0.214987 0
22.230000 -0.237309 2
22.235000 -0.232311 0
22.240000 -0.186781 0
22.245000 -0.089547 0
22.250000 0.066081 0
22.255000 0.278518 0
22.260000 0.532870 0
22.265000 0.797415 0
22.270000 1.026115 0
22.275000 1.169775 0
22.280000 1.192777 3
22.285000 1.086111 0
22.290000 0.871749 0
22.295000 0.596692 0
22.300000 0.312745 0
22.305000 0.061408 0
22.310000 -0.132439 0
22.315000 -0.259242 0
22.320000 -0.320764 0
22.325000 -0.326851 4
22.330000 -0.293001 0
22.335000 -0.237336 0
22.340000 -0.176648 0
22.345000 -0.122891 0
22.350000 -0.081726 0
22.355000 -0.053428 0
22.360000 -0.035175 0
22.365000 -0.023303 0
22.370000 -0.014705 0
22.375000 -0.007289 0
22.380000 0.000145 0
22.385000 0.008216 0
22.390000 0.017227 0
22.395000 0.027338 0
22.400000 0.038646 0
22.405000 0.051215 0
22.410000 0.065089 0
22.415000 0.080288 0
22.420000 0.096810 0
22.425000 0.114623 0
22.430000 0.133665 0
22.435000 0.153843 0
22.440000 0.175025 0
22.445000 0.197047 0
22.450000 0.219708 0
22.455000 0.242773 0
22.460000 0.265976 0
22.465000 0.289025 0
22.470000 0.311606 0
22.475000 0.333389 0
22.480000 0.354037 0
22.485000 0.373214 0
22.490000 0.390594 0
22.495000 0.405867 0
22.500000 0.418751 0
22.505000 0.429001 0
22.510000 0.436412 0
22.515000 0.440831 0
22.520000 0.442156 5
22.525000 0.440345 0
22.530000 0.435414 0
22.535000 0.427436 0
22.540000 0.416542 0
22.545000 0.402916 0
22.550000 0.386789 0
22.555000 0.368431 0
22.560000 0.348145 0
22.565000 0.326260 0
22.570000 0.303117 0
22.575000 0.279065 0
22.580000 0.254449 0
22.585000 0.229603 0
22.590000 0.204844 0
22.595000 0.180462 0
22.600000 0.156720 0
22.605000 0.133846 0
22.610000 0.112032 0
22.615000 0.091433 0
22.620000 0.072167 0
22.625000 0.054316 0
22.630000 0.037927 0
22.635000 0.023019 0
22.640000 0.009580 0
22.645000 -0.002425 0
22.650000 -0.013050 0
22.655000 -0.022365 0
22.660000 -0.030454 0
22.665000 -0.037407 0
22.670000 -0.043320 0
22.675000 -0.048291 0
22.680000 -0.052417 0
22.685000 -0.055794 0
22.690000 -0.058511 0
22.695000 -0.060655 0
22.700000 -0.062303 0
22.705000 -0.063527 0
22.710000 -0.064391 0
22.715000 -0.064953 0
22.720000 -0.065264 0
22.725000 -0.065366 0
22.730000 -0.065299 0
22.735000 -0.065093 0
22.740000 -0.064776 0
22.745000 -0.064370 0
22.750000 -0.063894 0
22.755000 -0.063364 0
22.760000 -0.062792 0
22.765000 -0.062188 0
22.770000 -0.061494 0
22.775000 -0.060788 0
22.780000 -0.060085 0
22.785000 -0.059385 0
22.790000 -0.058689 0
22.795000 -0.057997 0
22.800000 -0.057308 0
22.805000 -0.056622 0
22.810000 -0.055940 0
22.815000 -0.055261 0
22.820000 -0.054586 0
22.825000 -0.053914 0
22.830000 -0.053245 0
22.835000 -0.052580 0
22.840000 -0.051918 0
22.845000 -0.051259 0
22.850000 -0.050603 0
22.855000 -0.049951 0
22.860000 -0.049302 0
22.865000 -0.048656 0
22.870000 -0.048014 0
22.875000 -0.047375 0
22.880000 -0.046738 0
22.885000 -0.046105 0
22.890000 -0.045475 0
22.895000 -0.044848 0
22.900000 -0.044223 0
22.905000 -0.043600 0
22.910000 -0.042979 0
22.915000 -0.042357 0
22.920000 -0.041734 0
22.925000 -0.041105 0
22.930000 -0.040466 0
22.935000 -0.039809 0
22.940000 -0.039122 0
22.945000 -0.038389 0
22.950000 -0.037585 0
22.955000 -0.036676 0
22.960000 -0.035615 0
22.965000 -0.034340 0
22.970000 -0.032767 0
22.975000 -0.030792 0
22.980000 -0.028284 0
22.985000 -0.025086 0
22.990000 -0.021012 0
22.995000 -0.015856 0
23.000000 -0.009393 0
23.005000 -0.001392 0
23.010000 0.008367 0
23.015000 0.020080 0
23.020000 0.033886 0
23.025000 0.049854 0
23.030000 0.067949 0
23.035000 0.088014 0
23.040000 0.109755 0
23.045000 0.132730 0
23.050000 0.156356 0
23.055000 0.179923 0
23.060000 0.202628 0
23.065000 0.223612 0
23.070000 0.242014 0
23.075000 0.257032 0
23.080000 0.267972 0
23.085000 0.274308 0
23.090000 0.275720 1
23.095000 0.272117 0
23.100000 0.263651 0
23.105000 0.250700 0
23.110000 0.233844 0
23.115000 0.213816 0
23.120000 0.191454 0
23.125000 0.167640 0
23.130000 0.143240 0
23.135000 0.119059 0
23.140000 0.095792 0
23.145000 0.073997 0
23.150000 0.054059 0
23.155000 0.036159 0
23.160000 0.020195 0
23.165000 0.005655 0
23.170000 -0.008559 0
23.175000 -0.024275 0
23.180000 -0.043935 0
23.185000 -0.069962 0
23.190000 -0.103461 0
23.195000 -0.142557 0
23.200000 -0.181098 0
23.205000 -0.208595 0
23.210000 -0.211621 2
23.215000 -0.176083 0
23.220000 -0.089560 0
23.225000 0.056135 0
23.230000 0.261097 0
23.235000 0.511873 0
23.240000 0.777091 0
23.245000 1.009304 0
23.250000 1.156535 0
23.255000 1.180585 3
23.260000 1.071485 0
23.265000 0.852716 0
23.270000 0.575033 0
23.275000 0.293158 0
23.280000 0.049372 0
23.285000 -0.132466 0
23.290000 -0.244680 0
23.295000 -0.291251 4
23.300000 -0.284419 0
23.305000 -0.241870 0
23.310000 -0.182926 0
23.315000 -0.124007 0
23.320000 -0.075322 0
23.325000 -0.040294 0
23.330000 -0.017423 0
23.335000 -0.003026 0
23.340000 0.006607 0
23.345000 0.014207 0
23.350000 0.021417 0
23.355000 0.029100 0
23.360000 0.037673 0
23.365000 0.047344 0
23.370000 0.058230 0
23.375000 0.070409 0
23.380000 0.083930 0
23.385000 0.098821 0
23.390000 0.115083 0
23.395000 0.132688 0
23.400000 0.151571 0
23.405000 0.171635 0
23.410000 0.192741 0
23.415000 0.214713 0
23.420000 0.237335 0
23.425000 0.260353 0
23.430000 0.283481 0
23.435000 0.306402 0
23.440000 0.328779 0
23.445000 0.350256 0
23.450000 0.370475 0
23.455000 0.389076 0
23.460000 0.405717 0
23.465000 0.420077 0
23.470000 0.431867 0
23.475000 0.440841 0
23.480000 0.446806 0
23.485000 0.449622 5
23.490000 0.449212 0
23.495000 0.445563 0
23.500000 0.438729 0
23.505000 0.428824 0
23.510000 0.416025 0
23.515000 0.400561 0
23.520000 0.382709 0
23.525000 0.362785 0
23.530000 0.341131 0
23.535000 0.318112 0
23.540000 0.294098 0
23.545000 0.269458 0
23.550000 0.244550 0
23.555000 0.219714 0
23.560000 0.195261 0
23.565000 0.171471 0
23.570000 0.148584 0
23.575000 0.126805 0
23.580000 0.106294 0
23.585000 0.087173 0
23.590000 0.069522 0
23.595000 0.053387 0
23.600000 0.038778 0
23.605000 0.025677 0
23.610000 0.014040 0
23.615000 0.003804 0
23.620000 -0.005113 0
23.625000 -0.012801 0
23.630000 -0.019361 0
23.635000 -0.024895 0
23.640000 -0.029510 0
23.645000 -0.033306 0
23.650000 -0.036383 0
23.655000 -0.038834 0
23.660000 -0.040745 0
23.665000 -0.042195 0
23.670000 -0.043255 0
23.675000 -0.043988 0
23.680000 -0.044450 0
23.685000 -0.044688 0
23.690000 -0.044745 0
23.695000 -0.044655 0
23.700000 -0.044446 0
23.705000 -0.044145 0
23.710000 -0.043771 0
23.715000 -0.043340 0
23.720000 -0.042865 0
23.725000 -0.042358 0
23.730000 -0.041762 0
23.735000 -0.041154 0
23.740000 -0.040549 0
23.745000 -0.039947 0
23.750000 -0.039348 0
23.755000 -0.038752 0
23.760000 -0.038159 0
23.765000 -0.037569 0
23.770000 -0.036981 0
23.775000 -0.036397 0
23.780000 -0.035816 0
23.785000 -0.035237 0
23.790000 -0.034662 0
23.795000 -0.034089 0
23.800000 -0.033519 0
23.805000 -0.032952 0
23.810000 -0.032388 0
23.815000 -0.031827 0
23.820000 -0.031268 0
23.825000 -0.030713 0
23.830000 -0.030159 0
23.835000 -0.029609 0
23.840000 -0.029062 0
23.845000 -0.028516 0
23.850000 -0.027974 0
23.855000 -0.027433 0
23.860000 -0.026894 0
23.865000 -0.026356 0
23.870000 -0.025817 0
23.875000 -0.025276 0
23.880000 -0.024728 0
23.885000 -0.024167 0
23.890000 -0.023586 0
23.895000 -0.022971 0
23.900000 -0.022302 0
23.905000 -0.021551 0
23.910000 -0.020678 0
23.915000 -0.019628 0
23.920000 -0.018326 0
23.925000 -0.016675 0
23.930000 -0.014553 0
23.935000 -0.011807 0
23.940000 -0.008254 0
23.945000 -0.003685 0
23.950000 0.002135 0
23.955000 0.009449 0
23.960000 0.018500 0
23.965000 0.029508 0
23.970000 0.042645 0
23.975000 0.058007 0
23.980000 0.075588 0
23.985000 0.095250 0
23.990000 0.116708 0
23.995000 0.139515 0
24.000000 0.163065 0
24.005000 0.186613 0
24.010000 0.209305 0
24.015000 0.230225 0
24.020000 0.248457 0
24.025000 0.263146 0
24.030000 0.273566 0
24.035000 0.279176 0
24.040000 0.279670 1
24.045000 0.274995 0
24.050000 0.265366 0
24.055000 0.251241 0
24.060000 0.233289 0
24.065000 0.212333 0
24.070000 0.189288 0
24.075000 0.165096 0
24.080000 0.140661 0
24.085000 0.116793 0
24.090000 0.094169 0
24.095000 0.073294 0
24.100000 0.054469 0
24.105000 0.037723 0
24.110000 0.022703 0
24.115000 0.008480 0
24.120000 -0.006636 0
24.125000 -0.025097 0
24.130000 -0.049589 0
24.135000 -0.081748 0
24.140000 -0.120307 0
24.145000 -0.159474 0
24.150000 -0.188601 0
24.155000 -0.193574 2
24.160000 -0.159338 0
24.165000 -0.072569 0
24.170000 0.075412 0
24.175000 0.284222 0
24.180000 0.538215 0
24.185000 0.801884 0
24.190000 1.023077 0
24.195000 1.147542 3
24.200000 1.139706 0
24.205000 0.998543 0
24.210000 0.758852 0
24.215000 0.475071 0
24.220000 0.200391 0
24.225000 -0.027406 0
24.230000 -0.189238 0
24.235000 -0.281178 0
24.240000 -0.310010 4
24.245000 -0.290099 0
24.250000 -0.240318 0
24.255000 -0.179777 0
24.260000 -0.123331 0
24.265000 -0.079002 0
24.270000 -0.048319 0
24.275000 -0.028720 0
24.280000 -0.016282 0
24.285000 -0.007538 0
24.290000 -0.000134 0
24.295000 0.007265 0
24.300000 0.015331 0
24.305000 0.024387 0
24.310000 0.034600 0
24.315000 0.046068 0
24.320000 0.058860 0
24.325000 0.073016 0
24.330000 0.088555 0
24.335000 0.105464 0
24.340000 0.123702 0
24.345000 0.143189 0
24.350000 0.163809 0
24.355000 0.185404 0
24.360000 0.207780 0
24.365000 0.230699 0
24.370000 0.253890 0
24.375000 0.277049 0
24.380000 0.299843 0
24.385000 0.321923 0
24.390000 0.342925 0
24.395000 0.362484 0
24.400000 0.380246 0
24.405000 0.395870 0
24.410000 0.409049 0
24.415000 0.419511 0
24.420000 0.427033 0
24.425000 0.431446 0
24.430000 0.432642 5
24.435000 0.430577 0
24.440000 0.425275 0
24.445000 0.416822 0
24.450000 0.405371 0
24.455000 0.391129 0
24.460000 0.374357 0
24.465000 0.355359 0
24.470000 0.334470 0
24.475000 0.312053 0
24.480000 0.288478 0
24.485000 0.264124 0
24.490000 0.239357 0
24.495000 0.214529 0
24.500000 0.189967 0
24.505000 0.165967 0
24.510000 0.142789 0
24.515000 0.120653 0
24.520000 0.099738 0
24.525000 0.080180 0
24.530000 0.062077 0
24.535000 0.045486 0
24.540000 0.030430 0
24.545000 0.016899 0
24.550000 0.004857 0
24.555000 -0.005754 0
24.560000 -0.015010 0
24.565000 -0.023002 0
24.570000 -0.029829 0
24.575000 -0.035593 0
24.580000 -0.040402 0
24.585000 -0.044358 0
24.590000 -0.047565 0
24.595000 -0.050116 0
24.600000 -0.052103 0
24.605000 -0.053606 0
24.610000 -0.054699 0
24.615000 -0.055449 0
24.620000 -0.055913 0
24.625000 -0.056143 0
24.630000 -0.056180 0
24.635000 -0.056063 0
24.640000 -0.055821 0
24.645000 -0.055481 0
24.650000 -0.055064 0
24.655000 -0.054587 0
24.660000 -0.054064 0
24.665000 -0.053507 0
24.670000 -0.052856 0
24.675000 -0.052193 0
24.680000 -0.051533 0
24.685000 -0.050876 0
24.690000 -0.050222 0
24.695000 -0.049572 0
24.700000 -0.048925 0
24.705000 -0.048281 0
24.710000 -0.047641 0
24.715000 -0.047003 0
24.720000 -0.046369 0
24.725000 -0.045738 0
24.730000 -0.045110 0
24.735000 -0.044485 0
24.740000 -0.043863 0
24.745000 -0.043245 0
24.750000 -0.042629 0
24.755000 -0.042017 0
24.760000 -0.041408 0
24.765000 -0.040801 0
24.770000 -0.040198 0
24.775000 -0.039598 0
24.780000 -0.039000 0
24.785000 -0.038405 0
24.790000 -0.037813 0
24.795000 -0.037224 0
24.800000 -0.036636 0
24.805000 -0.036049 0
24.810000 -0.035462 0
24.815000 -0.034872 0
24.820000 -0.034277 0
24.825000 -0.033669 0
24.830000 -0.033040 0
24.835000 -0.032377 0
24.840000 -0.031659 0
24.845000 -0.030858 0
24.850000 -0.029933 0
24.855000 -0.028826 0
24.860000 -0.027463 0
24.865000 -0.025744 0
24.870000 -0.023542 0
24.875000 -0.020702 0
24.880000 -0.017035 0
24.885000 -0.012329 0
24.890000 -0.006345 0
24.895000 0.001165 0
24.900000 0.010445 0
24.905000 0.021713 0
24.910000 0.035138 0
24.915000 0.050807 0
24.920000 0.068698 0
24.925000 0.088657 0
24.930000 0.110372 0
24.935000 0.133371 0
24.940000 0.157018 0
24.945000 0.180540 0
24.950000 0.203061 0
24.955000 0.223650 0
24.960000 0.241383 0
24.965000 0.255415 0
24.970000 0.265039 0
24.975000 0.269749 1
24.980000 0.269280 0
24.985000 0.263634 0
24.990000 0.253078 0
24.995000 0.238124 0
25.000000 0.219487 0
25.005000 0.198026 0
25.010000 0.174679 0
25.015000 0.150395 0
25.020000 0.126072 0
25.025000 0.102500 0
25.030000 0.080324 0
25.035000 0.060006 0
25.040000 0.041787 0
25.045000 0.025608 0
25.050000 0.010971 0
25.055000 -0.003260 0
25.060000 -0.019036 0
25.065000 -0.038991 0
25.070000 -0.065697 0
25.075000 -0.100124 0
25.080000 -0.139703 0
25.085000 -0.176973 0
25.090000 -0.199801 2
25.095000 -0.193290 0
25.100000 -0.142494 0
25.105000 -0.035152 0
25.110000 0.134960 0
25.115000 0.362759 0
25.120000 0.625472 0
25.125000 0.880068 0
25.130000 1.070733 0
25.135000 1.147297 3
25.140000 1.087350 0
25.145000 0.906065 0
25.150000 0.645551 0
25.155000 0.359489 0
25.160000 0.095099 0
25.165000 -0.116699 0
25.170000 -0.261903 0
25.175000 -0.339519 0
25.180000 -0.357761 4
25.185000 -0.331394 0
25.190000 -0.278774 0
25.195000 -0.217811 0
25.200000 -0.162008 0
25.205000 -0.118391 0
25.210000 -0.088057 0
25.215000 -0.068440 0
25.220000 -0.055786 0
25.225000 -0.046783 0
25.230000 -0.039159 0
25.235000 -0.031599 0
25.240000 -0.023429 0
25.245000 -0.014318 0
25.250000 -0.004097 0
25.255000 0.007335 0
25.260000 0.020046 0
25.265000 0.034080 0
25.270000 0.049460 0
25.275000 0.066181 0
25.280000 0.084211 0
25.285000 0.103484 0
25.290000 0.123902 0
25.295000 0.145327 0
25.300000 0.167586 0
25.305000 0.190469 0
25.310000 0.213729 0
25.315000 0.237091 0
25.320000 0.260247 0
25.325000 0.282873 0
25.330000 0.304627 0
25.335000 0.325162 0
25.340000 0.344133 0
25.345000 0.361206 0
25.350000 0.376069 0
25.355000 0.388441 0
25.360000 0.398078 0
25.365000 0.404786 0
25.370000 0.408419 0
25.375000 0.408893 5
25.380000 0.406183 0
25.385000 0.400326 0
25.390000 0.391418 0
25.395000 0.379614 0
25.400000 0.365122 0
25.405000 0.348198 0
25.410000 0.329133 0
25.415000 0.308253 0
25.420000 0.285901 0
25.425000 0.262435 0
25.430000 0.238212 0
25.435000 0.213584 0
25.440000 0.188885 0
25.445000 0.164429 0
25.450000 0.140500 0
25.455000 0.117350 0
25.460000 0.095192 0
25.465000 0.074204 0
25.470000 0.054521 0
25.475000 0.036244 0
25.480000 0.019434 0
25.485000 0.004122 0
25.490000 -0.009695 0
25.495000 -0.022044 0
25.500000 -0.032975 0
25.505000 -0.042556 0
25.510000 -0.050868 0
25.515000 -0.058003 0
25.520000 -0.064058 0
25.525000 -0.069134 0
25.530000 -0.073332 0
25.535000 -0.076749 0
25.540000 -0.079480 0
25.545000 -0.081614 0
25.550000 -0.083232 0
25.555000 -0.084410 0
25.560000 -0.085215 0
25.565000 -0.085707 0
25.570000 -0.085938 0
25.575000 -0.085955 0
25.580000 -0.085796 0
25.585000 -0.085496 0
25.590000 -0.085082 0
25.595000 -0.084578 0
25.600000 -0.084003 0
25.605000 -0.083373 0
25.610000 -0.082701 0
25.615000 -0.081997 0
25.620000 -0.081203 0
25.625000 -0.080399 0
25.630000 -0.079598 0
25.635000 -0.078801 0
25.640000 -0.078008 0
25.645000 -0.077219 0
25.650000 -0.076434 0
25.655000 -0.075653 0
25.660000 -0.074876 0
25.665000 -0.074103 0
25.670000 -0.073334 0
25.675000 -0.072568 0
25.680000 -0.071806 0
25.685000 -0.071048 0
25.690000 -0.070294 0
25.695000 -0.069544 0
25.700000 -0.068797 0
25.705000 -0.068054 0
25.710000 -0.067315 0
25.715000 -0.066580 0
25.720000 -0.065848 0
25.725000 -0.065119 0
25.730000 -0.064395 0
25.735000 -0.063673 0
25.740000 -0.062956 0
25.745000 -0.062241 0
25.750000 -0.061529 0
25.755000 -0.060819 0
25.760000 -0.060111 0
25.765000 -0.059402 0
25.770000 -0.058690 0
25.775000 -0.057970 0
25.780000 -0.057238 0
25.785000 -0.056482 0
25.790000 -0.055687 0
25.795000 -0.054834 0
25.800000 -0.053891 0
25.805000 -0.052817 0
25.810000 -0.051554 0
25.815000 -0.050026 0
25.820000 -0.048133 0
25.825000 -0.045753 0
25.830000 -0.042731 0
25.835000 -0.038889 0
25.840000 -0.034019 0
25.845000 -0.027896 0
25.850000 -0.020281 0
25.855000 -0.010944 0
25.860000 0.000327 0
25.865000 0.013693 0
25.870000 0.029244 0
25.875000 0.046971 0
25.880000 0.066742 0
25.885000 0.088284 0
25.890000 0.111171 0
25.895000 0.134826 0
25.900000 0.158539 0
25.905000 0.181494 0
25.910000 0.202810 0
25.915000 0.221601 0
25.920000 0.237030 0
25.925000 0.248373 0
25.930000 0.255073 0
25.935000 0.256788 1
25.940000 0.253415 0
25.945000 0.245101 0
25.950000 0.232234 0
25.955000 0.215410 0
25.960000 0.195386 0
25.965000 0.173027 0
25.970000 0.149238 0
25.975000 0.124912 0
25.980000 0.100868 0
25.985000 0.077810 0
25.990000 0.056295 0
25.995000 0.036699 0
26.000000 0.019173 0
26.005000 0.003559 0
26.010000 -0.010755 0
26.015000 -0.025027 0
26.020000 -0.041280 0
26.025000 -0.062098 0
26.030000 -0.089806 0
26.035000 -0.124969 0
26.040000 -0.164639 0
26.045000 -0.201245 0
26.050000 -0.222951 2
26.055000 -0.215484 0
26.060000 -0.164620 0
26.065000 -0.058663 0
26.070000 0.108532 0
26.075000 0.332812 0
26.080000 0.593859 0
26.085000 0.852349 0
26.090000 1.055688 0
26.095000 1.153872 3
26.100000 1.120389 0
26.105000 0.963456 0
26.110000 0.717960 0
26.115000 0.433691 0
26.120000 0.158374 0
26.125000 -0.073603 0
26.130000 -0.243950 0
26.135000 -0.347724 0
26.140000 -0.389592 4
26.145000 -0.381164 0
26.150000 -0.338662 0
26.155000 -0.279737 0
26.160000 -0.219672 0
26.165000 -0.168494 0
26.170000 -0.130222 0
26.175000 -0.104183 0
26.180000 -0.087278 0
26.185000 -0.075980 0
26.190000 -0.067448 0
26.195000 -0.059824 0
26.200000 -0.052057 0
26.205000 -0.043608 0
26.210000 -0.034208 0
26.215000 -0.023712 0
26.220000 -0.012032 0
26.225000 0.000894 0
26.230000 0.015105 0
26.235000 0.030620 0
26.240000 0.047436 0
26.245000 0.065520 0
26.250000 0.084813 0
26.255000 0.105223 0
26.260000 0.126622 0
26.265000 0.148852 0
26.270000 0.171719 0
26.275000 0.194996 0
26.280000 0.218428 0
26.285000 0.241732 0
26.290000 0.264604 0
26.295000 0.286727 0
26.300000 0.307774 0
26.305000 0.327417 0
26.310000 0.345338 0
26.315000 0.361232 0
26.320000 0.374821 0
26.325000 0.385858 0
26.330000 0.394137 0
26.335000 0.399496 0
26.340000 0.401824 5
26.345000 0.401066 0
26.350000 0.397222 0
26.355000 0.390347 0
26.360000 0.380554 0
26.365000 0.368003 0
26.370000 0.352907 0
26.375000 0.335514 0
26.380000 0.316109 0
26.385000 0.295003 0
26.390000 0.272524 0
26.395000 0.249009 0
26.400000 0.224796 0
26.405000 0.200215 0
26.410000 0.175581 0
26.415000 0.151190 0
26.420000 0.127309 0
26.425000 0.104178 0
26.430000 0.081999 0
26.435000 0.060943 0
26.440000 0.041142 0
26.445000 0.022696 0
26.450000 0.005669 0
26.455000 -0.009906 0
26.460000 -0.024023 0
26.465000 -0.036703 0
26.470000 -0.047988 0
26.475000 -0.057936 0
26.480000 -0.066621 0
26.485000 -0.074126 0
26.490000 -0.080542 0
26.495000 -0.085962 0
26.500000 -0.090482 0
26.505000 -0.094197 0
26.510000 -0.097197 0
26.515000 -0.099569 0
26.520000 -0.101394 0
26.525000 -0.102748 0
26.530000 -0.103697 0
26.535000 -0.104305 0
26.540000 -0.104624 0
26.545000 -0.104704 0
26.550000 -0.104585 0
26.555000 -0.104303 0
26.560000 -0.103890 0
26.565000 -0.103370 0
26.570000 -0.102766 0
26.575000 -0.102095 0
26.580000 -0.101372 0
26.585000 -0.100609 0
26.590000 -0.099816 0
26.595000 -0.098934 0
26.600000 -0.098041 0
26.605000 -0.097152 0
26.610000 -0.096268 0
26.615000 -0.095388 0
26.620000 -0.094512 0
26.625000 -0.093641 0
26.630000 -0.092774 0
26.635000 -0.091912 0
26.640000 -0.091054 0
26.645000 -0.090200 0
26.650000 -0.089350 0
26.655000 -0.088505 0
26.660000 -0.087663 0
26.665000 -0.086826 0
26.670000 -0.085994 0
26.675000 -0.085165 0
26.680000 -0.084340 0
26.685000 -0.083520 0
26.690000 -0.082703 0
26.695000 -0.081891 0
26.700000 -0.081083 0
26.705000 -0.080279 0
26.710000 -0.079478 0
26.715000 -0.078682 0
26.720000 -0.077889 0
26.725000 -0.077100 0
26.730000 -0.076313 0
26.735000 -0.075530 0
26.740000 -0.074747 0
26.745000 -0.073965 0
26.750000 -0.073180 0
26.755000 -0.072387 0
26.760000 -0.071582 0
26.765000 -0.070755 0
26.770000 -0.069892 0
26.775000 -0.068973 0
26.780000 -0.067971 0
26.785000 -0.066846 0
26.790000 -0.065548 0
26.795000 -0.064006 0
26.800000 -0.062133 0
26.805000 -0.059815 0
26.810000 -0.056917 0
26.815000 -0.053274 0
26.820000 -0.048699 0
26.825000 -0.042984 0
26.830000 -0.035908 0
26.835000 -0.027247 0
26.840000 -0.016793 0
26.845000 -0.004370 0
26.850000 0.010141 0
26.855000 0.026782 0
26.860000 0.045493 0
26.865000 0.066090 0
26.870000 0.088256 0
26.875000 0.111533 0
26.880000 0.135331 0
26.885000 0.158940 0
26.890000 0.181569 0
26.895000 0.202380 0
26.900000 0.220542 0
26.905000 0.235284 0
26.910000 0.245948 0
26.915000 0.252039 0
26.920000 0.253263 1
26.925000 0.249545 0
26.930000 0.241045 0
26.935000 0.228136 0
26.940000 0.211384 0
26.945000 0.191504 0
26.950000 0.169307 0
26.955000 0.145650 0
26.960000 0.121376 0
26.965000 0.097272 0
26.970000 0.074022 0
26.975000 0.052179 0
26.980000 0.032136 0
26.985000 0.014094 0
26.990000 -0.002004 0
26.995000 -0.016589 0
27.000000 -0.030625 0
27.005000 -0.045763 0
27.010000 -0.064292 0
27.015000 -0.088654 0
27.020000 -0.120339 0
27.025000 -0.158335 0
27.030000 -0.197746 0
27.035000 -0.229398 0
27.040000 -0.240825 2
27.045000 -0.218279 0
27.050000 -0.148965 0
27.055000 -0.023298 0
27.060000 0.161969 0
27.065000 0.398969 0
27.070000 0.663738 0
27.075000 0.915237 0
27.080000 1.102739 0
27.085000 1.181448 3
27.090000 1.129831 0
27.095000 0.958518 0
27.100000 0.705031 0
27.105000 0.419359 0
27.110000 0.147609 0
27.115000 -0.078046 0
27.120000 -0.241192 0
27.125000 -0.338152 0
27.130000 -0.374389 4
27.135000 -0.361987 0
27.140000 -0.317320 0
27.145000 -0.257822 0
27.150000 -0.198278 0
27.155000 -0.148125 0
27.160000 -0.110912 0
27.165000 -0.085710 0
27.170000 -0.069361 0
27.175000 -0.058388 0
27.180000 -0.050033 0
27.185000 -0.042507 0
27.190000 -0.034801 0
27.195000 -0.026400 0
27.200000 -0.017045 0
27.205000 -0.006595 0
27.210000 0.005037 0
27.215000 0.017910 0
27.220000 0.032064 0
27.225000 0.047516 0
27.230000 0.064263 0
27.235000 0.082272 0
27.240000 0.101484 0
27.245000 0.121808 0
27.250000 0.143118 0
27.255000 0.165256 0
27.260000 0.188031 0
27.265000 0.211218 0
27.270000 0.234566 0
27.275000 0.257794 0
27.280000 0.280602 0
27.285000 0.302676 0
27.290000 0.323692 0
27.295000 0.343325 0
27.300000 0.361258 0
27.305000 0.377190 0
27.310000 0.390843 0
27.315000 0.401970 0
27.320000 0.410364 0
27.325000 0.415861 0
27.330000 0.418348 5
27.335000 0.417765 0
27.340000 0.414109 0
27.345000 0.407428 0
27.350000 0.397830 0
27.355000 0.385469 0
27.360000 0.370551 0
27.365000 0.353319 0
27.370000 0.334052 0
27.375000 0.313054 0
27.380000 0.290651 0
27.385000 0.267174 0
27.390000 0.242959 0
27.395000 0.218335 0
27.400000 0.193618 0
27.405000 0.169101 0
27.410000 0.145057 0
27.415000 0.121724 0
27.420000 0.099311 0
27.425000 0.077992 0
27.430000 0.057904 0
27.435000 0.039150 0
27.440000 0.021801 0
27.445000 0.005895 0
27.450000 -0.008559 0
27.455000 -0.021576 0
27.460000 -0.033193 0
27.465000 -0.043466 0
27.470000 -0.052466 0
27.475000 -0.060273 0
27.480000 -0.066975 0
27.485000 -0.072666 0
27.490000 -0.077439 0
27.495000 -0.081389 0
27.500000 -0.084607 0
27.505000 -0.087179 0
27.510000 -0.089188 0
27.515000 -0.090710 0
27.520000 -0.091813 0
27.525000 -0.092560 0
27.530000 -0.093007 0
27.535000 -0.093203 0
27.540000 -0.093191 0
27.545000 -0.093008 0
27.550000 -0.092685 0
27.555000 -0.092249 0
27.560000 -0.091724 0
27.565000 -0.091126 0
27.570000 -0.090473 0
27.575000 -0.089777 0
27.580000 -0.089047 0
27.585000 -0.088280 0
27.590000 -0.087440 0
27.595000 -0.086604 0
27.600000 -0.085772 0
27.605000 -0.084944 0
27.610000 -0.084121 0
27.615000 -0.083302 0
27.620000 -0.082486 0
27.625000 -0.081675 0
27.630000 -0.080868 0
27.635000 -0.080065 0
27.640000 -0.079266 0
27.645000 -0.078471 0
27.650000 -0.077679 0
27.655000 -0.076892 0
27.660000 -0.076109 0
27.665000 -0.075329 0
27.670000 -0.074554 0
27.675000 -0.073782 0
27.680000 -0.073015 0
27.685000 -0.072251 0
27.690000 -0.071490 0
27.695000 -0.070734 0
27.700000 -0.069981 0
27.705000 -0.069232 0
27.710000 -0.068487 0
27.715000 -0.067744 0
27.720000 -0.067005 0
27.725000 -0.066269 0
27.730000 -0.065534 0
27.735000 -0.064799 0
27.740000 -0.064063 0
27.745000 -0.063322 0
27.750000 -0.062571 0
27.755000 -0.061802 0
27.760000 -0.061004 0
27.765000 -0.060161 0
27.770000 -0.059248 0
27.775000 -0.058234 0
27.780000 -0.057073 0
27.785000 -0.055706 0
27.790000 -0.054054 0
27.795000 -0.052018 0
27.800000 -0.049474 0
27.805000 -0.046275 0
27.810000 -0.042246 0
27.815000 -0.037191 0
27.820000 -0.030895 0
27.825000 -0.023136 0
27.830000 -0.013700 0
27.835000 -0.002391 0
27.840000 0.010942 0
27.845000 0.026384 0
27.850000 0.043933 0
27.855000 0.063476 0
27.860000 0.084772 0
27.865000 0.107446 0
27.870000 0.130984 0
27.875000 0.154748 0
27.880000 0.177994 0
27.885000 0.199913 0
27.890000 0.219671 0
27.895000 0.236463 0
27.900000 0.249565 0
27.905000 0.258385 0
27.910000 0.262510 1
27.915000 0.261732 0
27.920000 0.256071 0
27.925000 0.245768 0
27.930000 0.231273 0
27.935000 0.213207 0
27.940000 0.192321 0
27.945000 0.169443 0
27.950000 0.145424 0
27.955000 0.121083 0
27.960000 0.097167 0
27.965000 0.074313 0
27.970000 0.053015 0
27.975000 0.033604 0
27.980000 0.016199 0
27.985000 0.000634 0
27.990000 -0.013671 0
27.995000 -0.027883 0
28.000000 -0.043865 0
28.005000 -0.064014 0
28.010000 -0.090600 0
28.015000 -0.124508 0
28.020000 -0.163677 0
28.025000 -0.201965 0
28.030000 -0.229151 0
28.035000 -0.232279 2
28.040000 -0.197774 0
28.045000 -0.113608 0
28.050000 0.028353 0
28.055000 0.228851 0
28.060000 0.476222 0
28.065000 0.742056 0
28.070000 0.982090 0
28.075000 1.145843 0
28.080000 1.193199 3
28.085000 1.109114 0
28.090000 0.910415 0
28.095000 0.641832 0
28.100000 0.356138 0
28.105000 0.097636 0
28.110000 -0.105847 0
28.115000 -0.242554 0
28.120000 -0.312832 0
28.125000 -0.325628 4
28.130000 -0.295984 0
28.135000 -0.242078 0
28.140000 -0.181260 0
28.145000 -0.126323 0
28.150000 -0.083706 0
28.155000 -0.054183 0
28.160000 -0.035112 0
28.165000 -0.022799 0
28.170000 -0.014019 0
28.175000 -0.006567 0
28.180000 0.000832 0
28.185000 0.008838 0
28.190000 0.017775 0
28.195000 0.027811 0
28.200000 0.039045 0
28.205000 0.051544 0
28.210000 0.065354 0
28.215000 0.080496 0
28.220000 0.096968 0
28.225000 0.114741 0
28.230000 0.133752 0
28.235000 0.153907 0
28.240000 0.175075 0
28.245000 0.197090 0
28.250000 0.219749 0
28.255000 0.242814 0
28.260000 0.266018 0
28.265000 0.289064 0
28.270000 0.311635 0
28.275000 0.333397 0
28.280000 0.354011 0
28.285000 0.373135 0
28.290000 0.390441 0
28.295000 0.405616 0
28.300000 0.418379 0
28.305000 0.428481 0
28.310000 0.435719 0
28.315000 0.439941 0
28.320000 0.441049 5
28.325000 0.439002 0
28.330000 0.433822 0
28.335000 0.425589 0
