0.000000 1.149197 3
0.005000 1.045968 0
0.010000 0.785425 0
0.015000 0.447637 0
0.020000 0.118311 0
0.025000 -0.142932 0
0.030000 -0.309758 0
0.035000 -0.381491 4
0.040000 -0.374716 0
0.045000 -0.317024 0
0.050000 -0.239087 0
0.055000 -0.165263 0
0.060000 -0.107793 0
0.065000 -0.067647 0
0.070000 -0.039732 0
0.075000 -0.018032 0
0.080000 0.001787 0
0.085000 0.022054 0
0.090000 0.043735 0
0.095000 0.067094 0
0.100000 0.092078 0
0.105000 0.118485 0
0.110000 0.146019 0
0.115000 0.174309 0
0.120000 0.202914 0
0.125000 0.231337 0
0.130000 0.259034 0
0.135000 0.285435 0
0.140000 0.309957 0
0.145000 0.332027 0
0.150000 0.351106 0
0.155000 0.366707 0
0.160000 0.378417 0
0.165000 0.385916 0
0.170000 0.388988 5
0.175000 0.387533 0
0.180000 0.381572 0
0.185000 0.371246 0
0.190000 0.356808 0
0.195000 0.338618 0
0.200000 0.317121 0
0.205000 0.292834 0
0.210000 0.266320 0
0.215000 0.238173 0
0.220000 0.208989 0
0.225000 0.179349 0
0.230000 0.149802 0
0.235000 0.120843 0
0.240000 0.092909 0
0.245000 0.066364 0
0.250000 0.041498 0
0.255000 0.018524 0
0.260000 -0.002417 0
0.265000 -0.021255 0
0.270000 -0.037978 0
0.275000 -0.052630 0
0.280000 -0.065298 0
0.285000 -0.076100 0
0.290000 -0.085180 0
0.295000 -0.092697 0
0.300000 -0.098817 0
0.305000 -0.103708 0
0.310000 -0.107530 0
0.315000 -0.110437 0
0.320000 -0.112571 0
0.325000 -0.114061 0
0.330000 -0.115018 0
0.335000 -0.115543 0
0.340000 -0.115720 0
0.345000 -0.115621 0
0.350000 -0.114760 0
0.355000 -0.113773 0
0.360000 -0.112792 0
0.365000 -0.111816 0
0.370000 -0.110844 0
0.375000 -0.109877 0
0.380000 -0.108915 0
0.385000 -0.107958 0
0.390000 -0.107006 0
0.395000 -0.106058 0
0.400000 -0.105114 0
0.405000 -0.104174 0
0.410000 -0.103238 0
0.415000 -0.102303 0
0.420000 -0.101367 0
0.425000 -0.100425 0
0.430000 -0.099471 0
0.435000 -0.098490 0
0.440000 -0.097462 0
0.445000 -0.096354 0
0.450000 -0.095117 0
0.455000 -0.093676 0
0.460000 -0.091927 0
0.465000 -0.089725 0
0.470000 -0.086878 0
0.475000 -0.083138 0
0.480000 -0.078204 0
0.485000 -0.071723 0
0.490000 -0.063308 0
0.495000 -0.052563 0
0.500000 -0.039120 0
0.505000 -0.022695 0
0.510000 -0.003143 0
0.515000 0.019482 0
0.520000 0.044871 0
0.525000 0.072424 0
0.530000 0.101244 0
0.535000 0.130163 0
0.540000 0.157805 0
0.545000 0.182688 0
0.550000 0.203356 0
0.555000 0.218512 0
0.560000 0.227159 0
0.565000 0.228707 1
0.570000 0.223037 0
0.575000 0.210518 0
0.580000 0.191970 0
0.585000 0.168570 0
0.590000 0.141732 0
0.595000 0.112965 0
0.600000 0.083721 0
0.605000 0.055245 0
0.610000 0.028382 0
0.615000 0.003280 0
0.620000 -0.021050 0
0.625000 -0.047147 0
0.630000 -0.078893 0
0.635000 -0.119820 0
0.640000 -0.169648 0
0.645000 -0.220509 0
0.650000 -0.255632 2
0.655000 -0.252101 0
0.660000 -0.186230 0
0.665000 -0.039348 0
0.670000 0.194713 0
0.675000 0.497762 0
0.680000 0.816168 0
0.685000 1.065992 0
0.690000 1.164425 3
0.695000 1.072560 0
0.700000 0.819083 0
0.705000 0.483053 0
0.710000 0.151593 0
0.715000 -0.113526 0
0.720000 -0.284363 0
0.725000 -0.359375 4
0.730000 -0.354778 0
0.735000 -0.298154 0
0.740000 -0.220476 0
0.745000 -0.146536 0
0.750000 -0.088915 0
0.755000 -0.048722 0
0.760000 -0.020856 0
0.765000 0.000753 0
0.770000 0.020478 0
0.775000 0.040662 0
0.780000 0.062272 0
0.785000 0.085569 0
0.790000 0.110496 0
0.795000 0.136848 0
0.800000 0.164323 0
0.805000 0.192545 0
0.810000 0.221066 0
0.815000 0.249385 0
0.820000 0.276950 0
0.825000 0.303185 0
0.830000 0.327502 0
0.835000 0.349325 0
0.840000 0.368112 0
0.845000 0.383377 0
0.850000 0.394708 0
0.855000 0.401789 0
0.860000 0.404412 5
0.865000 0.402487 0
0.870000 0.396043 0
0.875000 0.385235 0
0.880000 0.370329 0
0.885000 0.351695 0
0.890000 0.329793 0
0.895000 0.305148 0
0.900000 0.278336 0
0.905000 0.249954 0
0.910000 0.220604 0
0.915000 0.190870 0
0.920000 0.161297 0
0.925000 0.132379 0
0.930000 0.104545 0
0.935000 0.078154 0
0.940000 0.053487 0
0.945000 0.030746 0
0.950000 0.010062 0
0.955000 -0.008503 0
0.960000 -0.024949 0
0.965000 -0.039327 0
0.970000 -0.051730 0
0.975000 -0.062283 0
0.980000 -0.071136 0
0.985000 -0.078451 0
0.990000 -0.084394 0
0.995000 -0.089135 0
1.000000 -0.092835 0
1.005000 -0.095646 0
1.010000 -0.097708 0
1.015000 -0.099148 0
1.020000 -0.100077 0
1.025000 -0.100592 0
1.030000 -0.100774 0
1.035000 -0.100573 0
1.040000 -0.099657 0
1.045000 -0.098747 0
1.050000 -0.097840 0
1.055000 -0.096938 0
1.060000 -0.096041 0
1.065000 -0.095148 0
1.070000 -0.094259 0
1.075000 -0.093375 0
1.080000 -0.092495 0
1.085000 -0.091620 0
1.090000 -0.090748 0
1.095000 -0.089880 0
1.100000 -0.089014 0
1.105000 -0.088148 0
1.110000 -0.087280 0
1.115000 -0.086405 0
1.120000 -0.085512 0
1.125000 -0.084587 0
1.130000 -0.083606 0
1.135000 -0.082530 0
1.140000 -0.081303 0
1.145000 -0.079840 0
1.150000 -0.078024 0
1.155000 -0.075692 0
1.160000 -0.072633 0
1.165000 -0.068578 0
1.170000 -0.063205 0
1.175000 -0.056142 0
1.180000 -0.046992 0
1.185000 -0.035361 0
1.190000 -0.020902 0
1.195000 -0.003373 0
1.200000 0.017304 0
1.205000 0.040981 0
1.210000 0.067238 0
1.215000 0.095353 0
1.220000 0.124308 0
1.225000 0.152830 0
1.230000 0.179476 0
1.235000 0.202745 0
1.240000 0.221216 0
1.245000 0.233692 0
1.250000 0.239327 1
1.255000 0.237721 0
1.260000 0.228966 0
1.265000 0.213640 0
1.270000 0.192739 0
1.275000 0.167572 0
1.280000 0.139628 0
1.285000 0.110419 0
1.290000 0.081338 0
1.295000 0.053482 0
1.300000 0.027426 0
1.305000 0.002843 0
1.310000 -0.021967 0
1.315000 -0.050308 0
1.320000 -0.086257 0
1.325000 -0.132021 0
1.330000 -0.183965 0
1.335000 -0.229636 0
1.340000 -0.248458 2
1.345000 -0.216202 0
1.350000 -0.110785 0
1.355000 0.081379 0
1.360000 0.355563 0
1.365000 0.675624 0
1.370000 0.969149 0
1.375000 1.146721 3
1.380000 1.143830 0
1.385000 0.957827 0
1.390000 0.649017 0
1.395000 0.305632 0
1.400000 0.003544 0
1.405000 -0.213888 0
1.410000 -0.333850 0
1.415000 -0.364852 4
1.420000 -0.329657 0
1.425000 -0.258593 0
1.430000 -0.180416 0
1.435000 -0.113947 0
1.440000 -0.065460 0
1.445000 -0.032210 0
1.450000 -0.008132 0
1.455000 0.012131 0
1.460000 0.031882 0
1.465000 0.052686 0
1.470000 0.075094 0
1.475000 0.099182 0
1.480000 0.124810 0
1.485000 0.151726 0
1.490000 0.179594 0
1.495000 0.208004 0
1.500000 0.236486 0
1.505000 0.264517 0
1.510000 0.291534 0
1.515000 0.316957 0
1.520000 0.340204 0
1.525000 0.360716 0
1.530000 0.377976 0
1.535000 0.391532 0
1.540000 0.401015 0
1.545000 0.406156 0
1.550000 0.406798 5
1.555000 0.402904 0
1.560000 0.394557 0
1.565000 0.381958 0
1.570000 0.365419 0
1.575000 0.345347 0
1.580000 0.322227 0
1.585000 0.296607 0
1.590000 0.269069 0
1.595000 0.240212 0
1.600000 0.210628 0
1.605000 0.180886 0
1.610000 0.151508 0
1.615000 0.122961 0
1.620000 0.095644 0
1.625000 0.069884 0
1.630000 0.045929 0
1.635000 0.023954 0
1.640000 0.004061 0
1.645000 -0.013712 0
1.650000 -0.029386 0
1.655000 -0.043028 0
1.660000 -0.054744 0
1.665000 -0.064668 0
1.670000 -0.072954 0
1.675000 -0.079765 0
1.680000 -0.085269 0
1.685000 -0.089631 0
1.690000 -0.093010 0
1.695000 -0.095553 0
1.700000 -0.097394 0
1.705000 -0.098654 0
1.710000 -0.099438 0
1.715000 -0.099838 0
1.720000 -0.099931 0
1.725000 -0.099164 0
1.730000 -0.098256 0
1.735000 -0.097352 0
1.740000 -0.096452 0
1.745000 -0.095558 0
1.750000 -0.094667 0
1.755000 -0.093781 0
1.760000 -0.092899 0
1.765000 -0.092022 0
1.770000 -0.091149 0
1.775000 -0.090280 0
1.780000 -0.089414 0
1.785000 -0.088552 0
1.790000 -0.087692 0
1.795000 -0.086832 0
1.800000 -0.085968 0
1.805000 -0.085094 0
1.810000 -0.084200 0
1.815000 -0.083268 0
1.820000 -0.082271 0
1.825000 -0.081167 0
1.830000 -0.079892 0
1.835000 -0.078357 0
1.840000 -0.076431 0
1.845000 -0.073944 0
1.850000 -0.070670 0
1.855000 -0.066329 0
1.860000 -0.060586 0
1.865000 -0.053065 0
1.870000 -0.043369 0
1.875000 -0.031111 0
1.880000 -0.015967 0
1.885000 0.002272 0
1.890000 0.023637 0
1.895000 0.047925 0
1.900000 0.074653 0
1.905000 0.103036 0
1.910000 0.132005 0
1.915000 0.160251 0
1.920000 0.186316 0
1.925000 0.208713 0
1.930000 0.226064 0
1.935000 0.237240 0
1.940000 0.241480 1
1.945000 0.238481 0
1.950000 0.228428 0
1.955000 0.211979 0
1.960000 0.190191 0
1.965000 0.164409 0
1.970000 0.136128 0
1.975000 0.106840 0
1.980000 0.077892 0
1.985000 0.050308 0
1.990000 0.024537 0
1.995000 0.000069 0
2.000000 -0.025042 0
2.005000 -0.054296 0
2.010000 -0.091680 0
2.015000 -0.138781 0
2.020000 -0.190814 0
2.025000 -0.234093 0
2.030000 -0.247320 2
2.035000 -0.206362 0
2.040000 -0.090003 0
2.045000 0.113533 0
2.050000 0.396256 0
2.055000 0.717609 0
2.060000 1.001916 0
2.065000 1.160811 3
2.070000 1.135095 0
2.075000 0.928944 0
2.080000 0.609855 0
2.085000 0.268610 0
2.090000 -0.021518 0
2.095000 -0.221805 0
2.100000 -0.323670 0
2.105000 -0.339089 4
2.110000 -0.293592 0
2.115000 -0.218748 0
2.120000 -0.142284 0
2.125000 -0.080351 0
2.130000 -0.036528 0
2.135000 -0.006559 0
2.140000 0.015851 0
2.145000 0.035617 0
2.150000 0.055510 0
2.155000 0.076730 0
2.160000 0.099636 0
2.165000 0.124214 0
2.170000 0.150271 0
2.175000 0.177516 0
2.180000 0.205574 0
2.185000 0.234001 0
2.190000 0.262290 0
2.195000 0.289885 0
2.200000 0.316201 0
2.205000 0.340639 0
2.210000 0.362609 0
2.215000 0.381557 0
2.220000 0.396980 0
2.225000 0.408455 0
2.230000 0.415654 0
2.235000 0.418360 5
2.240000 0.416474 0
2.245000 0.410027 0
2.250000 0.399172 0
2.255000 0.384180 0
2.260000 0.365428 0
2.265000 0.343386 0
2.270000 0.318590 0
2.275000 0.291627 0
2.280000 0.263108 0
2.285000 0.233644 0
2.290000 0.203829 0
2.295000 0.174214 0
2.300000 0.145300 0
2.305000 0.117517 0
2.310000 0.091221 0
2.315000 0.066691 0
2.320000 0.044126 0
2.325000 0.023649 0
2.330000 0.005313 0
2.335000 -0.010888 0
2.340000 -0.025015 0
2.345000 -0.037168 0
2.350000 -0.047480 0
2.355000 -0.056105 0
2.360000 -0.063210 0
2.365000 -0.068967 0
2.370000 -0.073546 0
2.375000 -0.077109 0
2.380000 -0.079810 0
2.385000 -0.081787 0
2.390000 -0.083166 0
2.395000 -0.084055 0
2.400000 -0.084550 0
2.405000 -0.084731 0
2.410000 -0.084041 0
2.415000 -0.083208 0
2.420000 -0.082379 0
2.425000 -0.081555 0
2.430000 -0.080734 0
2.435000 -0.079917 0
2.440000 -0.079105 0
2.445000 -0.078296 0
2.450000 -0.077492 0
2.455000 -0.076691 0
2.460000 -0.075894 0
2.465000 -0.075100 0
2.470000 -0.074309 0
2.475000 -0.073520 0
2.480000 -0.072729 0
2.485000 -0.071934 0
2.490000 -0.071127 0
2.495000 -0.070296 0
2.500000 -0.069422 0
2.505000 -0.068474 0
2.510000 -0.067406 0
2.515000 -0.066147 0
2.520000 -0.064594 0
2.525000 -0.062607 0
2.530000 -0.059994 0
2.535000 -0.056510 0
2.540000 -0.051851 0
2.545000 -0.045659 0
2.550000 -0.037539 0
2.555000 -0.027082 0
2.560000 -0.013909 0
2.565000 0.002280 0
2.570000 0.021640 0
2.575000 0.044119 0
2.580000 0.069402 0
2.585000 0.096870 0
2.590000 0.125597 0
2.595000 0.154371 0
2.600000 0.181771 0
2.605000 0.206272 0
2.610000 0.226384 0
2.615000 0.240798 0
2.620000 0.248526 0
2.625000 0.249017 1
2.630000 0.242213 0
2.635000 0.228566 0
2.640000 0.208981 0
2.645000 0.184722 0
2.650000 0.157271 0
2.655000 0.128177 0
2.660000 0.098902 0
2.665000 0.070650 0
2.670000 0.044149 0
2.675000 0.019298 0
2.680000 -0.005322 0
2.685000 -0.032784 0
2.690000 -0.067235 0
2.695000 -0.111514 0
2.700000 -0.163142 0
2.705000 -0.210869 0
2.710000 -0.234710 2
2.715000 -0.210147 0
2.720000 -0.114092 0
2.725000 0.068682 0
2.730000 0.335916 0
2.735000 0.654315 0
2.740000 0.952962 0
2.745000 1.140837 0
2.750000 1.149145 3
2.755000 0.971573 0
2.760000 0.667042 0
2.765000 0.323340 0
2.770000 0.017672 0
2.775000 -0.204826 0
2.780000 -0.329957 0
2.785000 -0.365285 4
2.790000 -0.332942 0
2.795000 -0.263039 0
2.800000 -0.184646 0
2.805000 -0.117254 0
2.810000 -0.067776 0
2.815000 -0.033823 0
2.820000 -0.009386 0
2.825000 0.010985 0
2.830000 0.030711 0
2.835000 0.051432 0
2.840000 0.073742 0
2.845000 0.097734 0
2.850000 0.123278 0
2.855000 0.150126 0
2.860000 0.177948 0
2.865000 0.206338 0
2.870000 0.234830 0
2.875000 0.262903 0
2.880000 0.289998 0
2.885000 0.315536 0
2.890000 0.338933 0
2.895000 0.359630 0
2.900000 0.377107 0
2.905000 0.390907 0
2.910000 0.400655 0
2.915000 0.406078 0
2.920000 0.407009 5
2.925000 0.403405 0
2.930000 0.395341 0
2.935000 0.383010 0
2.940000 0.366716 0
2.945000 0.346861 0
2.950000 0.323927 0
2.955000 0.298454 0
2.960000 0.271025 0
2.965000 0.242238 0
2.970000 0.212685 0
2.975000 0.182936 0
2.980000 0.153517 0
2.985000 0.124900 0
2.990000 0.097487 0
2.995000 0.071609 0
3.000000 0.047522 0
3.005000 0.025404 0
3.010000 0.005363 0
3.015000 -0.012561 0
3.020000 -0.028382 0
3.025000 -0.042166 0
3.030000 -0.054016 0
3.035000 -0.064065 0
3.040000 -0.072464 0
3.045000 -0.079376 0
3.050000 -0.084970 0
3.055000 -0.089411 0
3.060000 -0.092857 0
3.065000 -0.095457 0
3.070000 -0.097346 0
3.075000 -0.098646 0
3.080000 -0.099462 0
3.085000 -0.099888 0
3.090000 -0.100002 0
3.095000 -0.099757 0
3.100000 -0.098845 0
3.105000 -0.097939 0
3.110000 -0.097036 0
3.115000 -0.096138 0
3.120000 -0.095245 0
3.125000 -0.094356 0
3.130000 -0.093471 0
3.135000 -0.092591 0
3.140000 -0.091715 0
3.145000 -0.090843 0
3.150000 -0.089975 0
3.155000 -0.089110 0
3.160000 -0.088248 0
3.165000 -0.087385 0
3.170000 -0.086519 0
3.175000 -0.085644 0
3.180000 -0.084750 0
3.185000 -0.083819 0
3.190000 -0.082827 0
3.195000 -0.081732 0
3.200000 -0.080473 0
3.205000 -0.078961 0
3.210000 -0.077073 0
3.215000 -0.074639 0
3.220000 -0.071441 0
3.225000 -0.067202 0
3.230000 -0.061593 0
3.235000 -0.054240 0
3.240000 -0.044747 0
3.245000 -0.032726 0
3.250000 -0.017845 0
3.255000 0.000118 0
3.260000 0.021212 0
3.265000 0.045256 0
3.270000 0.071795 0
3.275000 0.100071 0
3.280000 0.129040 0
3.285000 0.157412 0
3.290000 0.183739 0
3.295000 0.206533 0
3.300000 0.224401 0
3.305000 0.236185 0
3.310000 0.241088 1
3.315000 0.238762 0
3.320000 0.229348 0
3.325000 0.213459 0
3.330000 0.192121 0
3.335000 0.166655 0
3.340000 0.138546 0
3.345000 0.109295 0
3.350000 0.080266 0
3.355000 0.052521 0
3.360000 0.026581 0
3.365000 0.002048 0
3.370000 -0.022868 0
3.375000 -0.051534 0
3.380000 -0.087983 0
3.385000 -0.134209 0
3.390000 -0.186214 0
3.395000 -0.231208 0
3.400000 -0.248488 2
3.405000 -0.213960 0
3.410000 -0.105874 0
3.415000 0.088858 0
3.420000 0.364831 0
3.425000 0.685218 0
3.430000 0.977396 0
3.435000 1.152568 3
3.440000 1.147358 0
3.445000 0.959055 0
3.450000 0.647967 0
3.455000 0.305050 0
3.460000 0.007166 0
3.465000 -0.203090 0
3.470000 -0.314463 0
3.475000 -0.337290 4
3.480000 -0.296206 0
3.485000 -0.222778 0
3.490000 -0.145628 0
3.495000 -0.082171 0
3.500000 -0.036955 0
3.505000 -0.006122 0
3.510000 0.016660 0
3.515000 0.036492 0
3.520000 0.056311 0
3.525000 0.077409 0
3.530000 0.100191 0
3.535000 0.124655 0
3.540000 0.150619 0
3.545000 0.177794 0
3.550000 0.205809 0
3.555000 0.234220 0
3.560000 0.262520 0
3.565000 0.290154 0
3.570000 0.316533 0
3.575000 0.341055 0
3.580000 0.363128 0
3.585000 0.382190 0
3.590000 0.397735 0
3.595000 0.409335 0
3.600000 0.416655 0
3.605000 0.419475 5
3.610000 0.417692 0
3.615000 0.411334 0
3.620000 0.400551 0
3.625000 0.385614 0
3.630000 0.366902 0
3.635000 0.344883 0
3.640000 0.320099 0
3.645000 0.293138 0
3.650000 0.264614 0
3.655000 0.235143 0
3.660000 0.205319 0
3.665000 0.175699 0
3.670000 0.146785 0
3.675000 0.119008 0
3.680000 0.092726 0
3.685000 0.068218 0
3.690000 0.045683 0
3.695000 0.025243 0
3.700000 0.006951 0
3.705000 -0.009203 0
3.710000 -0.023278 0
3.715000 -0.035379 0
3.720000 -0.045639 0
3.725000 -0.054213 0
3.730000 -0.061271 0
3.735000 -0.066983 0
3.740000 -0.071522 0
3.745000 -0.075051 0
3.750000 -0.077721 0
3.755000 -0.079674 0
3.760000 -0.081033 0
3.765000 -0.081907 0
3.770000 -0.082391 0
3.775000 -0.082565 0
3.780000 -0.081883 0
3.785000 -0.081061 0
3.790000 -0.080243 0
3.795000 -0.079429 0
3.800000 -0.078619 0
3.805000 -0.077813 0
3.810000 -0.077011 0
3.815000 -0.076212 0
3.820000 -0.075418 0
3.825000 -0.074628 0
3.830000 -0.073841 0
3.835000 -0.073058 0
3.840000 -0.072277 0
3.845000 -0.071497 0
3.850000 -0.070716 0
3.855000 -0.069929 0
3.860000 -0.069129 0
3.865000 -0.068304 0
3.870000 -0.067433 0
3.875000 -0.066483 0
3.880000 -0.065405 0
3.885000 -0.064125 0
3.890000 -0.062535 0
3.895000 -0.060487 0
3.900000 -0.057783 0
3.905000 -0.054168 0
3.910000 -0.049328 0
3.915000 -0.042898 0
3.920000 -0.034475 0
3.925000 -0.023652 0
3.930000 -0.010053 0
3.935000 0.006604 0
3.940000 0.026447 0
3.945000 0.049387 0
3.950000 0.075062 0
3.955000 0.102799 0
3.960000 0.131617 0
3.965000 0.160258 0
3.970000 0.187266 0
3.975000 0.211105 0
3.980000 0.230297 0
3.985000 0.243573 0
3.990000 0.250011 1
3.995000 0.249143 0
4.000000 0.241008 0
4.005000 0.226149 0
4.010000 0.205555 0
4.015000 0.180549 0
4.020000 0.152646 0
4.025000 0.123399 0
4.030000 0.094240 0
4.035000 0.066304 0
4.040000 0.040185 0
4.045000 0.015546 0
4.050000 -0.009376 0
4.055000 -0.038001 0
4.060000 -0.074488 0
4.065000 -0.120890 0
4.070000 -0.172971 0
4.075000 -0.217282 0
4.080000 -0.232214 2
4.085000 -0.192910 0
4.090000 -0.077372 0
4.095000 0.126633 0
4.100000 0.410654 0
4.105000 0.732050 0
4.110000 1.011835 0
4.115000 1.159539 3
4.120000 1.120107 0
4.125000 0.906056 0
4.130000 0.584761 0
4.135000 0.243770 0
4.140000 -0.046723 0
4.145000 -0.249300 0
4.150000 -0.355157 0
4.155000 -0.375148 4
4.160000 -0.333247 0
4.165000 -0.259750 0
4.170000 -0.182177 0
4.175000 -0.117604 0
4.180000 -0.070941 0
4.185000 -0.038856 0
4.190000 -0.015292 0
4.195000 0.004868 0
4.200000 0.024707 0
4.205000 0.045662 0
4.210000 0.068226 0
4.215000 0.092454 0
4.220000 0.118200 0
4.225000 0.145208 0
4.230000 0.173145 0
4.235000 0.201603 0
4.240000 0.230116 0
4.245000 0.258166 0
4.250000 0.285199 0
4.255000 0.310641 0
4.260000 0.333919 0
4.265000 0.354480 0
4.270000 0.371814 0
4.275000 0.385474 0
4.280000 0.395096 0
4.285000 0.400410 0
4.290000 0.401259 5
4.295000 0.397600 0
4.300000 0.389512 0
4.305000 0.377186 0
4.310000 0.360923 0
4.315000 0.341121 0
4.320000 0.318253 0
4.325000 0.292855 0
4.330000 0.265500 0
4.335000 0.236779 0
4.340000 0.207277 0
4.345000 0.177558 0
4.350000 0.148145 0
4.355000 0.119505 0
4.360000 0.092040 0
4.365000 0.066083 0
4.370000 0.041889 0
4.375000 0.019641 0
4.380000 -0.000549 0
4.385000 -0.018635 0
4.390000 -0.034629 0
4.395000 -0.048589 0
4.400000 -0.060614 0
4.405000 -0.070832 0
4.410000 -0.079391 0
4.415000 -0.086451 0
4.420000 -0.092179 0
4.425000 -0.096738 0
4.430000 -0.100286 0
4.435000 -0.102970 0
4.440000 -0.104928 0
4.445000 -0.106281 0
4.450000 -0.107137 0
4.455000 -0.107589 0
4.460000 -0.107718 0
4.465000 -0.107471 0
4.470000 -0.106521 0
4.475000 -0.105576 0
4.480000 -0.104636 0
4.485000 -0.103700 0
4.490000 -0.102769 0
4.495000 -0.101842 0
4.500000 -0.100920 0
4.505000 -0.100003 0
4.510000 -0.099090 0
4.515000 -0.098182 0
4.520000 -0.097277 0
4.525000 -0.096376 0
4.530000 -0.095478 0
4.535000 -0.094581 0
4.540000 -0.093682 0
4.545000 -0.092776 0
4.550000 -0.091854 0
4.555000 -0.090903 0
4.560000 -0.089900 0
4.565000 -0.088810 0
4.570000 -0.087580 0
4.575000 -0.086131 0
4.580000 -0.084355 0
4.585000 -0.082100 0
4.590000 -0.079168 0
4.595000 -0.075306 0
4.600000 -0.070208 0
4.605000 -0.063519 0
4.610000 -0.054852 0
4.615000 -0.043817 0
4.620000 -0.030058 0
4.625000 -0.013308 0
4.630000 0.006559 0
4.635000 0.029460 0
4.640000 0.055062 0
4.645000 0.082742 0
4.650000 0.111585 0
4.655000 0.140413 0
4.660000 0.167851 0
4.665000 0.192431 0
4.670000 0.212719 0
4.675000 0.227449 0
4.680000 0.235656 0
4.685000 0.236783 1
4.690000 0.230737 0
4.695000 0.217908 0
4.700000 0.199121 0
4.705000 0.175553 0
4.710000 0.148609 0
4.715000 0.119780 0
4.720000 0.090503 0
4.725000 0.062003 0
4.730000 0.035113 0
4.735000 0.009975 0
4.740000 -0.014385 0
4.745000 -0.040468 0
4.750000 -0.072107 0
4.755000 -0.112833 0
4.760000 -0.162506 0
4.765000 -0.213593 0
4.770000 -0.249776 2
4.775000 -0.248526 0
4.780000 -0.186316 0
4.785000 -0.044274 0
4.790000 0.184666 0
4.795000 0.484373 0
4.800000 0.804218 0
4.805000 1.062533 0
4.810000 1.175698 3
4.815000 1.099817 0
4.820000 0.856627 0
4.825000 0.523497 0
4.830000 0.189360 0
4.835000 -0.081023 0
4.840000 -0.257402 0
4.845000 -0.336985 4
4.850000 -0.335440 0
4.855000 -0.280312 0
4.860000 -0.202976 0
4.865000 -0.128833 0
4.870000 -0.070949 0
4.875000 -0.030638 0
4.880000 -0.002792 0
4.885000 0.018735 0
4.890000 0.038369 0
4.895000 0.058477 0
4.900000 0.080027 0
4.905000 0.103275 0
4.910000 0.128161 0
4.915000 0.154473 0
4.920000 0.181903 0
4.925000 0.210068 0
4.930000 0.238512 0
4.935000 0.266722 0
4.940000 0.294143 0
4.945000 0.320186 0
4.950000 0.344258 0
4.955000 0.365777 0
4.960000 0.384199 0
4.965000 0.399038 0
4.970000 0.409886 0
4.975000 0.416432 0
4.980000 0.418479 5
4.985000 0.415947 0
4.990000 0.408883 0
4.995000 0.397456 0
5.000000 0.381951 0
5.005000 0.362755 0
5.010000 0.340343 0
5.015000 0.315257 0
5.020000 0.288083 0
5.025000 0.259429 0
5.030000 0.229900 0
5.035000 0.200084 0
5.040000 0.170522 0
5.045000 0.141706 0
5.050000 0.114054 0
5.055000 0.087916 0
5.060000 0.063558 0
5.065000 0.041172 0
5.070000 0.020874 0
5.075000 0.002712 0
5.080000 -0.013325 0
5.085000 -0.027301 0
5.090000 -0.039318 0
5.095000 -0.049510 0
5.100000 -0.058030 0
5.105000 -0.065046 0
5.110000 -0.070728 0
5.115000 -0.075244 0
5.120000 -0.078756 0
5.125000 -0.081415 0
5.130000 -0.083359 0
5.135000 -0.084711 0
5.140000 -0.085578 0
5.145000 -0.086055 0
5.150000 -0.086221 0
5.155000 -0.085523 0
5.160000 -0.084683 0
5.165000 -0.083847 0
5.170000 -0.083015 0
5.175000 -0.082187 0
5.180000 -0.081363 0
5.185000 -0.080543 0
5.190000 -0.079727 0
5.195000 -0.078916 0
5.200000 -0.078108 0
5.205000 -0.077304 0
5.210000 -0.076503 0
5.215000 -0.075705 0
5.220000 -0.074909 0
5.225000 -0.074111 0
5.230000 -0.073309 0
5.235000 -0.072496 0
5.240000 -0.071660 0
5.245000 -0.070781 0
5.250000 -0.069831 0
5.255000 -0.068764 0
5.260000 -0.067510 0
5.265000 -0.065970 0
5.270000 -0.064006 0
5.275000 -0.061431 0
5.280000 -0.058006 0
5.285000 -0.053431 0
5.290000 -0.047356 0
5.295000 -0.039389 0
5.300000 -0.029124 0
5.305000 -0.016180 0
5.310000 -0.000252 0
5.315000 0.018830 0
5.320000 0.041034 0
5.325000 0.066074 0
5.330000 0.093366 0
5.335000 0.122018 0
5.340000 0.150854 0
5.345000 0.178481 0
5.350000 0.203389 0
5.355000 0.224087 0
5.360000 0.239246 0
5.365000 0.247841 0
5.370000 0.249265 1
5.375000 0.243399 0
5.380000 0.230626 0
5.385000 0.211790 0
5.390000 0.188105 0
5.395000 0.161020 0
5.400000 0.132075 0
5.405000 0.102744 0
5.410000 0.074274 0
5.415000 0.047480 0
5.420000 0.022421 0
5.425000 -0.002065 0
5.430000 -0.028761 0
5.435000 -0.061717 0
5.440000 -0.104235 0
5.445000 -0.155090 0
5.450000 -0.204798 0
5.455000 -0.234886 2
5.460000 -0.221400 0
5.465000 -0.140682 0
5.470000 0.024496 0
5.475000 0.276321 0
5.480000 0.588905 0
5.485000 0.898979 0
5.490000 1.117376 0
5.495000 1.167156 3
5.500000 1.027771 0
5.505000 0.745992 0
5.510000 0.403871 0
5.515000 0.081953 0
5.520000 -0.166982 0
5.525000 -0.321482 0
5.530000 -0.383414 4
5.535000 -0.370387 0
5.540000 -0.309890 0
5.545000 -0.231568 0
5.550000 -0.158409 0
5.555000 -0.101647 0
5.560000 -0.061878 0
5.565000 -0.034070 0
5.570000 -0.012380 0
5.575000 0.007416 0
5.580000 0.027611 0
5.585000 0.049177 0
5.590000 0.072390 0
5.595000 0.097214 0
5.600000 0.123460 0
5.605000 0.150848 0
5.610000 0.179026 0
5.615000 0.207573 0
5.620000 0.236013 0
5.625000 0.263826 0
5.630000 0.290460 0
5.635000 0.315350 0
5.640000 0.337937 0
5.645000 0.357688 0
5.650000 0.374119 0
5.655000 0.386808 0
5.660000 0.395421 0
5.665000 0.399720 5
5.670000 0.399575 0
5.675000 0.394971 0
5.680000 0.386009 0
5.685000 0.372901 0
5.690000 0.355962 0
5.695000 0.335595 0
5.700000 0.312279 0
5.705000 0.286547 0
5.710000 0.258966 0
5.715000 0.230116 0
5.720000 0.200570 0
5.725000 0.170877 0
5.730000 0.141543 0
5.735000 0.113021 0
5.740000 0.085700 0
5.745000 0.059898 0
5.750000 0.035861 0
5.755000 0.013762 0
5.760000 -0.006294 0
5.765000 -0.024263 0
5.770000 -0.040161 0
5.775000 -0.054045 0
5.780000 -0.066014 0
5.785000 -0.076194 0
5.790000 -0.084731 0
5.795000 -0.091782 0
5.800000 -0.097510 0
5.805000 -0.102075 0
5.810000 -0.105633 0
5.815000 -0.108330 0
5.820000 -0.110300 0
5.825000 -0.111663 0
5.830000 -0.112527 0
5.835000 -0.112984 0
5.840000 -0.113114 0
5.845000 -0.112861 0
5.850000 -0.111884 0
5.855000 -0.110912 0
5.860000 -0.109945 0
5.865000 -0.108983 0
5.870000 -0.108026 0
5.875000 -0.107073 0
5.880000 -0.106125 0
5.885000 -0.105182 0
5.890000 -0.104243 0
5.895000 -0.103309 0
5.900000 -0.102379 0
5.905000 -0.101453 0
5.910000 -0.100530 0
5.915000 -0.099608 0
5.920000 -0.098686 0
5.925000 -0.097759 0
5.930000 -0.096819 0
5.935000 -0.095854 0
5.940000 -0.094846 0
5.945000 -0.093763 0
5.950000 -0.092559 0
5.955000 -0.091166 0
5.960000 -0.089487 0
5.965000 -0.087387 0
5.970000 -0.084689 0
5.975000 -0.081163 0
5.980000 -0.076526 0
5.985000 -0.070446 0
5.990000 -0.062552 0
5.995000 -0.052459 0
6.000000 -0.039799 0
6.005000 -0.024268 0
6.010000 -0.005681 0
6.015000 0.015974 0
6.020000 0.040480 0
6.025000 0.067349 0
6.030000 0.095811 0
6.035000 0.124819 0
6.040000 0.153104 0
6.045000 0.179253 0
6.050000 0.201826 0
6.055000 0.219482 0
6.060000 0.231114 0
6.065000 0.235959 1
6.070000 0.233685 0
6.075000 0.224428 0
6.080000 0.208776 0
6.085000 0.187710 0
6.090000 0.162500 0
6.095000 0.134581 0
6.100000 0.105409 0
6.105000 0.076328 0
6.110000 0.048412 0
6.115000 0.022250 0
6.120000 -0.002385 0
6.125000 -0.026985 0
6.130000 -0.054567 0
6.135000 -0.089071 0
6.140000 -0.133149 0
6.145000 -0.184551 0
6.150000 -0.232993 0
6.155000 -0.260032 2
6.160000 -0.242645 0
6.165000 -0.158528 0
6.170000 0.008331 0
6.175000 0.259721 0
6.180000 0.571313 0
6.185000 0.883983 0
6.190000 1.113330 0
6.195000 1.183291 3
6.200000 1.065170 0
6.205000 0.794789 0
6.210000 0.454491 0
6.215000 0.128897 0
6.220000 -0.125076 0
6.225000 -0.283601 0
6.230000 -0.347777 4
6.235000 -0.335439 0
6.240000 -0.274883 0
6.245000 -0.196651 0
6.250000 -0.124197 0
6.255000 -0.068617 0
6.260000 -0.030066 0
6.265000 -0.003162 0
6.270000 0.018030 0
6.275000 0.037648 0
6.280000 0.057859 0
6.285000 0.079536 0
6.290000 0.102899 0
6.295000 0.127874 0
6.300000 0.154248 0
6.305000 0.181717 0
6.310000 0.209899 0
6.315000 0.238347 0
6.320000 0.266557 0
6.325000 0.293980 0
6.330000 0.320041 0
6.335000 0.344157 0
6.340000 0.365757 0
6.345000 0.384303 0
6.350000 0.399317 0
6.355000 0.410395 0
6.360000 0.417225 0
6.365000 0.419606 5
6.370000 0.417452 0
6.375000 0.410798 0
6.380000 0.399799 0
6.385000 0.384724 0
6.390000 0.365944 0
6.395000 0.343915 0
6.400000 0.319163 0
6.405000 0.292258 0
6.410000 0.263795 0
6.415000 0.234372 0
6.420000 0.204568 0
6.425000 0.174926 0
6.430000 0.145936 0
6.435000 0.118027 0
6.440000 0.091553 0
6.445000 0.066794 0
6.450000 0.043954 0
6.455000 0.023164 0
6.460000 0.004486 0
6.465000 -0.012079 0
6.470000 -0.026579 0
6.475000 -0.039107 0
6.480000 -0.049786 0
6.485000 -0.058764 0
6.490000 -0.066200 0
6.495000 -0.072262 0
6.500000 -0.077117 0
6.505000 -0.080926 0
6.510000 -0.083841 0
6.515000 -0.086002 0
6.520000 -0.087535 0
6.525000 -0.088551 0
6.530000 -0.089149 0
6.535000 -0.089409 0
6.540000 -0.089279 0
6.545000 -0.088420 0
6.550000 -0.087565 0
6.555000 -0.086714 0
6.560000 -0.085868 0
6.565000 -0.085026 0
6.570000 -0.084188 0
6.575000 -0.083354 0
6.580000 -0.082524 0
6.585000 -0.081699 0
6.590000 -0.080877 0
6.595000 -0.080059 0
6.600000 -0.079244 0
6.605000 -0.078431 0
6.610000 -0.077619 0
6.615000 -0.076805 0
6.620000 -0.075983 0
6.625000 -0.075146 0
6.630000 -0.074279 0
6.635000 -0.073359 0
6.640000 -0.072351 0
6.645000 -0.071201 0
6.650000 -0.069830 0
6.655000 -0.068126 0
6.660000 -0.065935 0
6.665000 -0.063055 0
6.670000 -0.059227 0
6.675000 -0.054139 0
6.680000 -0.047429 0
6.685000 -0.038704 0
6.690000 -0.027570 0
6.695000 -0.013670 0
6.700000 0.003258 0
6.705000 0.023324 0
6.710000 0.046427 0
6.715000 0.072201 0
6.720000 0.099985 0
6.725000 0.128820 0
6.730000 0.157486 0
6.735000 0.184573 0
6.740000 0.208590 0
6.745000 0.228098 0
6.750000 0.241851 0
6.755000 0.248927 1
6.760000 0.248829 0
6.765000 0.241543 0
6.770000 0.227543 0
6.775000 0.207733 0
6.780000 0.183358 0
6.785000 0.155868 0
6.790000 0.126775 0
6.795000 0.097503 0
6.800000 0.069231 0
6.805000 0.042680 0
6.810000 0.017786 0
6.815000 -0.006761 0
6.820000 -0.033870 0
6.825000 -0.067571 0
6.830000 -0.110883 0
6.835000 -0.162075 0
6.840000 -0.211178 0
6.845000 -0.239570 2
6.850000 -0.223586 0
6.855000 -0.140133 0
6.860000 0.027372 0
6.865000 0.280562 0
6.870000 0.593459 0
6.875000 0.903635 0
6.880000 1.123458 0
6.885000 1.176923 3
6.890000 1.042212 0
6.895000 0.763547 0
6.900000 0.421971 0
6.905000 0.098173 0
6.910000 -0.154208 0
6.915000 -0.312766 0
6.920000 -0.378571 4
6.925000 -0.368555 0
6.930000 -0.309739 0
6.935000 -0.231711 0
6.940000 -0.157864 0
6.945000 -0.100050 0
6.950000 -0.059364 0
6.955000 -0.030988 0
6.960000 -0.009063 0
6.965000 0.010747 0
6.970000 0.030843 0
6.975000 0.052263 0
6.980000 0.075320 0
6.985000 0.099991 0
6.990000 0.126100 0
6.995000 0.153376 0
7.000000 0.181472 0
7.005000 0.209978 0
7.010000 0.238426 0
7.015000 0.266300 0
7.020000 0.293056 0
7.025000 0.318131 0
7.030000 0.340970 0
7.035000 0.361037 0
7.040000 0.377845 0
7.045000 0.390968 0
7.050000 0.400062 0
7.055000 0.404877 0
7.060000 0.405271 5
7.065000 0.401216 0
7.070000 0.392796 0
7.075000 0.380207 0
7.080000 0.363750 0
7.085000 0.343814 0
7.090000 0.320867 0
7.095000 0.295431 0
7.100000 0.268067 0
7.105000 0.239349 0
7.110000 0.209852 0
7.115000 0.180124 0
7.120000 0.150677 0
7.125000 0.121971 0
7.130000 0.094403 0
7.135000 0.068302 0
7.140000 0.043923 0
7.145000 0.021452 0
7.150000 0.001006 0
7.155000 -0.017364 0
7.160000 -0.033661 0
7.165000 -0.047937 0
7.170000 -0.060281 0
7.175000 -0.070816 0
7.180000 -0.079682 0
7.185000 -0.087035 0
7.190000 -0.093035 0
7.195000 -0.097844 0
7.200000 -0.101617 0
7.205000 -0.104501 0
7.210000 -0.106633 0
7.215000 -0.108135 0
7.220000 -0.109117 0
7.225000 -0.109674 0
7.230000 -0.109888 0
7.235000 -0.109828 0
7.240000 -0.108997 0
7.245000 -0.108040 0
7.250000 -0.107087 0
7.255000 -0.106139 0
7.260000 -0.105195 0
7.265000 -0.104257 0
7.270000 -0.103323 0
7.275000 -0.102394 0
7.280000 -0.101469 0
7.285000 -0.100549 0
7.290000 -0.099633 0
7.295000 -0.098721 0
7.300000 -0.097812 0
7.305000 -0.096905 0
7.310000 -0.095998 0
7.315000 -0.095087 0
7.320000 -0.094166 0
7.325000 -0.093225 0
7.330000 -0.092246 0
7.335000 -0.091203 0
7.340000 -0.090054 0
7.345000 -0.088740 0
7.350000 -0.087172 0
7.355000 -0.085230 0
7.360000 -0.082749 0
7.365000 -0.079518 0
7.370000 -0.075271 0
7.375000 -0.069693 0
7.380000 -0.062426 0
7.385000 -0.053086 0
7.390000 -0.041300 0
7.395000 -0.026740 0
7.400000 -0.009175 0
7.405000 0.011467 0
7.410000 0.035051 0
7.415000 0.061185 0
7.420000 0.089197 0
7.425000 0.118136 0
7.430000 0.146808 0
7.435000 0.173846 0
7.440000 0.197813 0
7.445000 0.217328 0
7.450000 0.231192 0
7.455000 0.238514 0
7.460000 0.238805 1
7.465000 0.232030 0
7.470000 0.218615 0
7.475000 0.199402 0
7.480000 0.175560 0
7.485000 0.148470 0
7.490000 0.119590 0
7.495000 0.090314 0
7.500000 0.061833 0
7.505000 0.034950 0
7.510000 0.009802 0
7.515000 -0.014548 0
7.520000 -0.040509 0
7.525000 -0.071797 0
7.530000 -0.111940 0
7.535000 -0.161126 0
7.540000 -0.212601 0
7.545000 -0.251098 0
7.550000 -0.254998 2
7.555000 -0.201178 0
7.560000 -0.070364 0
7.565000 0.146416 0
7.570000 0.437507 0
7.575000 0.759101 0
7.580000 1.035236 0
7.585000 1.181500 3
7.590000 1.144458 0
7.595000 0.931824 0
7.600000 0.610904 0
7.605000 0.269714 0
7.610000 -0.021040 0
7.615000 -0.223660 0
7.620000 -0.329308 0
7.625000 -0.348951 4
7.630000 -0.306755 0
7.635000 -0.233198 0
7.640000 -0.155853 0
7.645000 -0.091710 0
7.650000 -0.045517 0
7.655000 -0.013818 0
7.660000 0.009482 0
7.665000 0.029479 0
7.670000 0.049219 0
7.675000 0.070106 0
7.680000 0.092614 0
7.685000 0.116789 0
7.690000 0.142478 0
7.695000 0.169421 0
7.700000 0.197278 0
7.705000 0.225637 0
7.710000 0.254027 0
7.715000 0.281923 0
7.720000 0.308768 0
7.725000 0.333983 0
7.730000 0.356993 0
7.735000 0.377244 0
7.740000 0.394227 0
7.745000 0.407498 0
7.750000 0.416696 0
7.755000 0.421559 0
7.760000 0.421937 5
7.765000 0.417798 0
7.770000 0.409229 0
7.775000 0.396434 0
7.780000 0.379724 0
7.785000 0.359506 0
7.790000 0.336264 0
7.795000 0.310541 0
7.800000 0.282915 0
7.805000 0.253981 0
7.810000 0.224328 0
7.815000 0.194517 0
7.820000 0.165068 0
7.825000 0.136445 0
7.830000 0.109044 0
7.835000 0.083190 0
7.840000 0.059131 0
7.845000 0.037042 0
7.850000 0.017026 0
7.855000 -0.000879 0
7.860000 -0.016690 0
7.865000 -0.030473 0
7.870000 -0.042332 0
7.875000 -0.052399 0
7.880000 -0.060825 0
7.885000 -0.067773 0
7.890000 -0.073409 0
7.895000 -0.077898 0
7.900000 -0.081396 0
7.905000 -0.084051 0
7.910000 -0.085997 0
7.915000 -0.087356 0
7.920000 -0.088232 0
7.925000 -0.088718 0
7.930000 -0.088892 0
7.935000 -0.088705 0
7.940000 -0.087849 0
7.945000 -0.086997 0
7.950000 -0.086149 0
7.955000 -0.085306 0
7.960000 -0.084466 0
7.965000 -0.083631 0
7.970000 -0.082800 0
7.975000 -0.081973 0
7.980000 -0.081150 0
7.985000 -0.080331 0
7.990000 -0.079515 0
7.995000 -0.078703 0
8.000000 -0.077892 0
8.005000 -0.077081 0
8.010000 -0.076268 0
8.015000 -0.075445 0
8.020000 -0.074604 0
8.025000 -0.073728 0
8.030000 -0.072793 0
8.035000 -0.071760 0
8.040000 -0.070570 0
8.045000 -0.069137 0
8.050000 -0.067344 0
8.055000 -0.065026 0
8.060000 -0.061971 0
8.065000 -0.057912 0
8.070000 -0.052527 0
8.075000 -0.045450 0
8.080000 -0.036287 0
8.085000 -0.024651 0
8.090000 -0.010202 0
8.095000 0.007298 0
8.100000 0.027923 0
8.105000 0.051528 0
8.110000 0.077701 0
8.115000 0.105732 0
8.120000 0.134625 0
8.125000 0.163130 0
8.130000 0.189828 0
8.135000 0.213237 0
8.140000 0.231950 0
8.145000 0.244770 0
8.150000 0.250839 1
8.155000 0.249729 0
8.160000 0.241496 0
8.165000 0.226669 0
8.170000 0.206199 0
8.175000 0.181353 0
8.180000 0.153587 0
8.185000 0.124398 0
8.190000 0.095181 0
8.195000 0.067066 0
8.200000 0.040704 0
8.205000 0.015927 0
8.210000 -0.008717 0
8.215000 -0.036261 0
8.220000 -0.070732 0
8.225000 -0.114879 0
8.230000 -0.166401 0
8.235000 -0.214668 0
8.240000 -0.240639 2
8.245000 -0.220670 0
8.250000 -0.132088 0
8.255000 0.040896 0
8.260000 0.298610 0
8.265000 0.613302 0
8.270000 0.921112 0
8.275000 1.134576 0
8.280000 1.179876 3
8.285000 1.037470 0
8.290000 0.753178 0
8.295000 0.410536 0
8.300000 0.090556 0
8.305000 -0.154519 0
8.310000 -0.304173 0
8.315000 -0.361263 4
8.320000 -0.344376 0
8.325000 -0.281773 0
8.330000 -0.203285 0
8.335000 -0.131377 0
8.340000 -0.076391 0
8.345000 -0.038177 0
8.350000 -0.011374 0
8.355000 0.009832 0
8.360000 0.029489 0
8.365000 0.049727 0
8.370000 0.071409 0
8.375000 0.094760 0
8.380000 0.119713 0
8.385000 0.146062 0
8.390000 0.173512 0
8.395000 0.201692 0
8.400000 0.230168 0
8.405000 0.258447 0
8.410000 0.285996 0
8.415000 0.312250 0
8.420000 0.336637 0
8.425000 0.358593 0
8.430000 0.377588 0
8.435000 0.393141 0
8.440000 0.404845 0
8.445000 0.412381 0
8.450000 0.415532 5
8.455000 0.414195 0
8.460000 0.408384 0
8.465000 0.398230 0
8.470000 0.383976 0
8.475000 0.365968 0
8.480000 0.344637 0
8.485000 0.320486 0
8.490000 0.294067 0
8.495000 0.265960 0
8.500000 0.236754 0
8.505000 0.207025 0
8.510000 0.177315 0
8.515000 0.148122 0
8.520000 0.119885 0
8.525000 0.092974 0
8.530000 0.067686 0
8.535000 0.044245 0
8.540000 0.022801 0
8.545000 0.003436 0
8.550000 -0.013827 0
8.555000 -0.029022 0
8.560000 -0.042225 0
8.565000 -0.053547 0
8.570000 -0.063124 0
8.575000 -0.071112 0
8.580000 -0.077671 0
8.585000 -0.082966 0
8.590000 -0.087159 0
8.595000 -0.090403 0
8.600000 -0.092842 0
8.605000 -0.094604 0
8.610000 -0.095807 0
8.615000 -0.096551 0
8.620000 -0.096924 0
8.625000 -0.097002 0
8.630000 -0.096246 0
8.635000 -0.095352 0
8.640000 -0.094462 0
8.645000 -0.093577 0
8.650000 -0.092697 0
8.655000 -0.091820 0
8.660000 -0.090949 0
8.665000 -0.090081 0
8.670000 -0.089218 0
8.675000 -0.088359 0
8.680000 -0.087503 0
8.685000 -0.086652 0
8.690000 -0.085803 0
8.695000 -0.084957 0
8.700000 -0.084111 0
8.705000 -0.083261 0
8.710000 -0.082401 0
8.715000 -0.081522 0
8.720000 -0.080607 0
8.725000 -0.079629 0
8.730000 -0.078550 0
8.735000 -0.077308 0
8.740000 -0.075818 0
8.745000 -0.073957 0
8.750000 -0.071561 0
8.755000 -0.068417 0
8.760000 -0.064255 0
8.765000 -0.058756 0
8.770000 -0.051554 0
8.775000 -0.042260 0
8.780000 -0.030491 0
8.785000 -0.015914 0
8.790000 0.001701 0
8.795000 0.022424 0
8.800000 0.046106 0
8.805000 0.072332 0
8.810000 0.100400 0
8.815000 0.129320 0
8.820000 0.157856 0
8.825000 0.184606 0
8.830000 0.208102 0
8.835000 0.226951 0
8.840000 0.239962 0
8.845000 0.246277 1
8.850000 0.245458 0
8.855000 0.237541 0
8.860000 0.223033 0
8.865000 0.202856 0
8.870000 0.178250 0
8.875000 0.150648 0
8.880000 0.121535 0
8.885000 0.092301 0
8.890000 0.064091 0
8.895000 0.037599 0
8.900000 0.012743 0
8.905000 -0.011778 0
8.910000 -0.038820 0
8.915000 -0.072340 0
8.920000 -0.115358 0
8.925000 -0.166360 0
8.930000 -0.215882 0
8.935000 -0.245968 2
8.940000 -0.233504 0
8.945000 -0.155603 0
8.950000 0.004719 0
8.955000 0.250715 0
8.960000 0.559896 0
8.965000 0.874472 0
8.970000 1.109648 0
8.975000 1.187006 3
8.980000 1.074757 0
8.985000 0.808121 0
8.990000 0.468649 0
8.995000 0.141493 0
9.000000 -0.115329 0
9.005000 -0.277024 0
9.010000 -0.344036 4
9.015000 -0.333762 0
9.020000 -0.274276 0
9.025000 -0.196202 0
9.030000 -0.123339 0
9.035000 -0.067189 0
9.040000 -0.028179 0
9.045000 -0.001018 0
9.050000 0.020265 0
9.055000 0.039877 0
9.060000 0.060037 0
9.065000 0.081648 0
9.070000 0.104944 0
9.075000 0.129857 0
9.080000 0.156178 0
9.085000 0.183604 0
9.090000 0.211756 0
9.095000 0.240189 0
9.100000 0.268401 0
9.105000 0.295844 0
9.110000 0.321943 0
9.115000 0.346114 0
9.120000 0.367787 0
9.125000 0.386423 0
9.130000 0.401539 0
9.135000 0.412730 0
9.140000 0.419682 0
9.145000 0.422189 5
9.150000 0.420162 0
9.155000 0.413631 0
9.160000 0.402749 0
9.165000 0.387782 0
9.170000 0.369096 0
9.175000 0.347146 0
9.180000 0.322456 0
9.185000 0.295595 0
9.190000 0.267158 0
9.195000 0.237743 0
9.200000 0.207930 0
9.205000 0.178264 0
9.210000 0.149236 0
9.215000 0.121276 0
9.220000 0.094742 0
9.225000 0.069916 0
9.230000 0.047005 0
9.235000 0.026140 0
9.240000 0.007386 0
9.245000 -0.009253 0
9.250000 -0.023825 0
9.255000 -0.036422 0
9.260000 -0.047166 0
9.265000 -0.056203 0
9.270000 -0.063694 0
9.275000 -0.069806 0
9.280000 -0.074706 0
9.285000 -0.078555 0
9.290000 -0.081506 0
9.295000 -0.083698 0
9.300000 -0.085259 0
9.305000 -0.086300 0
9.310000 -0.086920 0
9.315000 -0.087200 0
9.320000 -0.087087 0
9.325000 -0.086239 0
9.330000 -0.085395 0
9.335000 -0.084555 0
9.340000 -0.083719 0
9.345000 -0.082888 0
9.350000 -0.082061 0
9.355000 -0.081237 0
9.360000 -0.080418 0
9.365000 -0.079603 0
9.370000 -0.078792 0
9.375000 -0.077984 0
9.380000 -0.077179 0
9.385000 -0.076377 0
9.390000 -0.075575 0
9.395000 -0.074772 0
9.400000 -0.073961 0
9.405000 -0.073134 0
9.410000 -0.072279 0
9.415000 -0.071371 0
9.420000 -0.070376 0
9.425000 -0.069241 0
9.430000 -0.067887 0
9.435000 -0.066204 0
9.440000 -0.064039 0
9.445000 -0.061191 0
9.450000 -0.057404 0
9.455000 -0.052365 0
9.460000 -0.045715 0
9.465000 -0.037062 0
9.470000 -0.026009 0
9.475000 -0.012200 0
9.480000 0.004632 0
9.485000 0.024603 0
9.490000 0.047616 0
9.495000 0.073315 0
9.500000 0.101045 0
9.505000 0.129858 0
9.510000 0.158537 0
9.515000 0.185678 0
9.520000 0.209790 0
9.525000 0.229430 0
9.530000 0.243344 0
9.535000 0.250601 0
9.540000 0.250692 1
9.545000 0.243588 0
9.550000 0.229750 0
9.555000 0.210074 0
9.560000 0.185795 0
9.565000 0.158360 0
9.570000 0.129282 0
9.575000 0.099990 0
9.580000 0.071670 0
9.585000 0.045061 0
9.590000 0.020125 0
9.595000 -0.004410 0
9.600000 -0.031409 0
9.605000 -0.064892 0
9.610000 -0.107950 0
9.615000 -0.159029 0
9.620000 -0.208401 0
9.625000 -0.237641 2
9.630000 -0.223144 0
9.635000 -0.141725 0
9.640000 0.023457 0
9.645000 0.274577 0
9.650000 0.586543 0
9.655000 0.897845 0
9.660000 1.121127 0
9.665000 1.179491 3
9.670000 1.047456 0
9.675000 0.767636 0
9.680000 0.425458 0
9.685000 0.105097 0
9.690000 -0.139147 0
9.695000 -0.286288 0
9.700000 -0.339765 4
9.705000 -0.319356 0
9.710000 -0.254624 0
9.715000 -0.176100 0
9.720000 -0.105917 0
9.725000 -0.053368 0
9.730000 -0.017293 0
9.735000 0.008155 0
9.740000 0.028771 0
9.745000 0.048352 0
9.750000 0.068786 0
9.755000 0.090781 0
9.760000 0.114476 0
9.765000 0.139760 0
9.770000 0.166391 0
9.775000 0.194041 0
9.780000 0.222307 0
9.785000 0.250718 0
9.790000 0.278750 0
9.795000 0.305835 0
9.800000 0.331387 0
9.805000 0.354813 0
9.810000 0.375541 0
9.815000 0.393041 0
9.820000 0.406848 0
9.825000 0.416577 0
9.830000 0.421949 0
9.835000 0.422794 5
9.840000 0.419067 0
9.845000 0.410846 0
9.850000 0.398330 0
9.855000 0.381830 0
9.860000 0.361757 0
9.865000 0.338603 0
9.870000 0.312920 0
9.875000 0.285302 0
9.880000 0.256356 0
9.885000 0.226684 0
9.890000 0.196861 0
9.895000 0.167418 0
9.900000 0.138826 0
9.905000 0.111489 0
9.910000 0.085734 0
9.915000 0.061809 0
9.920000 0.039888 0
9.925000 0.020070 0
9.930000 0.002387 0
9.935000 -0.013184 0
9.940000 -0.026717 0
9.945000 -0.038321 0
9.950000 -0.048136 0
9.955000 -0.056320 0
9.960000 -0.063038 0
9.965000 -0.068462 0
9.970000 -0.072758 0
9.975000 -0.076086 0
9.980000 -0.078594 0
9.985000 -0.080415 0
9.990000 -0.081669 0
9.995000 -0.082462 0
10.000000 -0.082883 0
10.005000 -0.083007 0
10.010000 -0.082317 0
10.015000 -0.081492 0
10.020000 -0.080672 0
10.025000 -0.079856 0
10.030000 -0.079044 0
10.035000 -0.078236 0
10.040000 -0.077431 0
10.045000 -0.076631 0
10.050000 -0.075835 0
10.055000 -0.075043 0
10.060000 -0.074254 0
10.065000 -0.073468 0
10.070000 -0.072685 0
10.075000 -0.071903 0
10.080000 -0.071119 0
10.085000 -0.070330 0
10.090000 -0.069527 0
10.095000 -0.068699 0
10.100000 -0.067824 0
10.105000 -0.066870 0
10.110000 -0.065787 0
10.115000 -0.064503 0
10.120000 -0.062911 0
10.125000 -0.060866 0
10.130000 -0.058172 0
10.135000 -0.054579 0
10.140000 -0.049780 0
10.145000 -0.043416 0
10.150000 -0.035092 0
10.155000 -0.024404 0
10.160000 -0.010981 0
10.165000 0.005462 0
10.170000 0.025065 0
10.175000 0.047758 0
10.180000 0.073207 0
10.185000 0.100778 0
10.190000 0.129533 0
10.195000 0.158259 0
10.200000 0.185538 0
10.205000 0.209859 0
10.210000 0.229750 0
10.215000 0.243925 0
10.220000 0.251420 0
10.225000 0.251703 1
10.230000 0.244731 0
10.235000 0.230962 0
10.240000 0.211301 0
10.245000 0.187001 0
10.250000 0.159531 0
10.255000 0.130428 0
10.260000 0.101139 0
10.265000 0.072860 0
10.270000 0.046318 0
10.275000 0.021433 0
10.280000 -0.003167 0
10.285000 -0.030484 0
10.290000 -0.064619 0
10.295000 -0.108499 0
10.300000 -0.159972 0
10.305000 -0.208323 0
10.310000 -0.234124 2
10.315000 -0.213179 0
10.320000 -0.122363 0
10.325000 0.054154 0
10.330000 0.315779 0
10.335000 0.632252 0
10.340000 0.936038 0
10.345000 1.137225 0
10.350000 1.163770 3
10.355000 1.002453 0
10.360000 0.706054 0
10.365000 0.362301 0
10.370000 0.051381 0
10.375000 -0.178264 0
10.380000 -0.310225 0
10.385000 -0.350871 4
10.390000 -0.321800 0
10.395000 -0.253198 0
10.400000 -0.174745 0
10.405000 -0.106731 0
10.410000 -0.056659 0
10.415000 -0.022363 0
10.420000 0.002185 0
10.425000 0.022540 0
10.430000 0.042201 0
10.435000 0.062851 0
10.440000 0.085097 0
10.445000 0.109035 0
10.450000 0.134533 0
10.455000 0.161342 0
10.460000 0.189124 0
10.465000 0.217470 0
10.470000 0.245905 0
10.475000 0.273903 0
10.480000 0.300898 0
10.485000 0.326302 0
10.490000 0.349527 0
10.495000 0.370009 0
10.500000 0.387223 0
10.505000 0.400715 0
10.510000 0.410111 0
10.515000 0.415141 0
10.520000 0.415648 5
10.525000 0.411595 0
10.530000 0.403072 0
10.535000 0.390284 0
10.540000 0.373548 0
10.545000 0.353281 0
10.550000 0.329976 0
10.555000 0.304187 0
10.560000 0.276506 0
10.565000 0.247536 0
10.570000 0.217877 0
10.575000 0.188097 0
10.580000 0.158722 0
10.585000 0.130219 0
10.590000 0.102984 0
10.595000 0.077339 0
10.600000 0.053530 0
10.605000 0.031724 0
10.610000 0.012018 0
10.615000 -0.005557 0
10.620000 -0.021028 0
10.625000 -0.034469 0
10.630000 -0.045990 0
10.635000 -0.055729 0
10.640000 -0.063844 0
10.645000 -0.070502 0
10.650000 -0.075871 0
10.655000 -0.080118 0
10.660000 -0.083401 0
10.665000 -0.085867 0
10.670000 -0.087649 0
10.675000 -0.088867 0
10.680000 -0.089623 0
10.685000 -0.090009 0
10.690000 -0.090100 0
10.695000 -0.089375 0
10.700000 -0.088515 0
10.705000 -0.087660 0
10.710000 -0.086809 0
10.715000 -0.085962 0
10.720000 -0.085119 0
10.725000 -0.084281 0
10.730000 -0.083446 0
10.735000 -0.082616 0
10.740000 -0.081790 0
10.745000 -0.080967 0
10.750000 -0.080148 0
10.755000 -0.079332 0
10.760000 -0.078516 0
10.765000 -0.077700 0
10.770000 -0.076879 0
10.775000 -0.076045 0
10.780000 -0.075185 0
10.785000 -0.074282 0
10.790000 -0.073301 0
10.795000 -0.072197 0
10.800000 -0.070896 0
10.805000 -0.069297 0
10.810000 -0.067257 0
10.815000 -0.064585 0
10.820000 -0.061037 0
10.825000 -0.056310 0
10.830000 -0.050052 0
10.835000 -0.041870 0
10.840000 -0.031364 0
10.845000 -0.018159 0
10.850000 -0.001962 0
10.855000 0.017382 0
10.860000 0.039825 0
10.865000 0.065059 0
10.870000 0.092486 0
10.875000 0.121200 0
10.880000 0.150019 0
10.885000 0.177549 0
10.890000 0.202292 0
10.895000 0.222771 0
10.900000 0.237679 0
10.905000 0.246015 0
10.910000 0.247194 1
10.915000 0.241116 0
10.920000 0.228176 0
10.925000 0.209224 0
10.930000 0.185469 0
10.935000 0.158355 0
10.940000 0.129408 0
10.945000 0.100091 0
10.950000 0.071639 0
10.955000 0.044857 0
10.960000 0.019806 0
10.965000 -0.004660 0
10.970000 -0.031290 0
10.975000 -0.064098 0
10.980000 -0.106401 0
10.985000 -0.157117 0
10.990000 -0.207057 0
10.995000 -0.238106 2
11.000000 -0.226582 0
11.005000 -0.148893 0
11.010000 0.012445 0
11.015000 0.260502 0
11.020000 0.571220 0
11.025000 0.883673 0
11.030000 1.109979 0
11.035000 1.171736 3
11.040000 1.041278 0
11.045000 0.761220 0
11.050000 0.418895 0
11.055000 0.100040 0
11.060000 -0.140731 0
11.065000 -0.283042 0
11.070000 -0.331377 4
11.075000 -0.306761 0
11.080000 -0.239826 0
11.085000 -0.161393 0
11.090000 -0.092921 0
11.095000 -0.042564 0
11.100000 -0.008260 0
11.105000 0.016169 0
11.110000 0.036414 0
11.115000 0.056027 0
11.120000 0.076687 0
11.125000 0.098982 0
11.130000 0.122990 0
11.135000 0.148565 0
11.140000 0.175440 0
11.145000 0.203259 0
11.150000 0.231595 0
11.155000 0.259950 0
11.160000 0.287775 0
11.165000 0.314483 0
11.170000 0.339469 0
11.175000 0.362131 0
11.180000 0.381894 0
11.185000 0.398233 0
11.190000 0.410697 0
11.195000 0.418928 0
11.200000 0.422678 5
11.205000 0.421817 0
11.210000 0.416347 0
11.215000 0.406395 0
11.220000 0.392211 0
11.225000 0.374157 0
11.230000 0.352690 0
11.235000 0.328343 0
11.240000 0.301702 0
11.245000 0.273384 0
11.250000 0.244010 0
11.255000 0.214185 0
11.260000 0.184477 0
11.265000 0.155401 0
11.270000 0.127405 0
11.275000 0.100861 0
11.280000 0.076062 0
11.285000 0.053220 0
11.290000 0.032467 0
11.295000 0.013868 0
11.300000 -0.002580 0
11.305000 -0.016932 0
11.310000 -0.029287 0
11.315000 -0.039777 0
11.320000 -0.048556 0
11.325000 -0.055793 0
11.330000 -0.061661 0
11.335000 -0.066334 0
11.340000 -0.069977 0
11.345000 -0.072744 0
11.350000 -0.074779 0
11.355000 -0.076207 0
11.360000 -0.077140 0
11.365000 -0.077675 0
11.370000 -0.077892 0
11.375000 -0.077236 0
11.380000 -0.076437 0
11.385000 -0.075642 0
11.390000 -0.074851 0
11.395000 -0.074063 0
11.400000 -0.073280 0
11.405000 -0.072501 0
11.410000 -0.071725 0
11.415000 -0.070953 0
11.420000 -0.070185 0
11.425000 -0.069421 0
11.430000 -0.068659 0
11.435000 -0.067900 0
11.440000 -0.067142 0
11.445000 -0.066383 0
11.450000 -0.065618 0
11.455000 -0.064840 0
11.460000 -0.064036 0
11.465000 -0.063186 0
11.470000 -0.062257 0
11.475000 -0.061198 0
11.480000 -0.059934 0
11.485000 -0.058358 0
11.490000 -0.056318 0
11.495000 -0.053613 0
11.500000 -0.049984 0
11.505000 -0.045114 0
11.510000 -0.038633 0
11.515000 -0.030134 0
11.520000 -0.019206 0
11.525000 -0.005475 0
11.530000 0.011338 0
11.535000 0.031352 0
11.540000 0.054461 0
11.545000 0.080282 0
11.550000 0.108116 0
11.555000 0.136951 0
11.560000 0.165502 0
11.565000 0.192290 0
11.570000 0.215766 0
11.575000 0.234452 0
11.580000 0.247096 0
11.585000 0.252810 1
11.590000 0.251168 0
11.595000 0.242265 0
11.600000 0.226701 0
11.605000 0.205513 0
11.610000 0.180067 0
11.615000 0.151902 0
11.620000 0.122577 0
11.625000 0.093508 0
11.630000 0.065783 0
11.635000 0.039900 0
11.640000 0.015351 0
11.645000 -0.009883 0
11.650000 -0.039457 0
11.655000 -0.077473 0
11.660000 -0.125297 0
11.665000 -0.177297 0
11.670000 -0.218381 0
11.675000 -0.225813 2
11.680000 -0.174599 0
11.685000 -0.043725 0
11.690000 0.176367 0
11.695000 0.471780 0
11.700000 0.792184 0
11.705000 1.052921 0
11.710000 1.165749 3
11.715000 1.087839 0
11.720000 0.844132 0
11.725000 0.511145 0
11.730000 0.176689 0
11.735000 -0.095022 0
11.740000 -0.273636 0
11.745000 -0.355895 0
11.750000 -0.356813 4
11.755000 -0.303261 0
11.760000 -0.226243 0
11.765000 -0.151329 0
11.770000 -0.092160 0
11.775000 -0.050636 0
11.780000 -0.021962 0
11.785000 -0.000019 0
11.790000 0.019747 0
11.795000 0.039831 0
11.800000 0.061290 0
11.805000 0.084427 0
11.810000 0.109205 0
11.815000 0.135431 0
11.820000 0.162810 0
11.825000 0.190973 0
11.830000 0.219482 0
11.835000 0.247837 0
11.840000 0.275496 0
11.845000 0.301882 0
11.850000 0.326410 0
11.855000 0.348502 0
11.860000 0.367614 0
11.865000 0.383252 0
11.870000 0.395000 0
11.875000 0.402529 0
11.880000 0.405621 5
11.885000 0.404172 0
11.890000 0.398200 0
11.895000 0.387846 0
11.900000 0.373363 0
11.905000 0.355112 0
11.910000 0.333540 0
11.915000 0.309169 0
11.920000 0.282565 0
11.925000 0.254325 0
11.930000 0.225051 0
11.935000 0.195327 0
11.940000 0.165703 0
11.945000 0.136680 0
11.950000 0.108694 0
11.955000 0.082110 0
11.960000 0.057219 0
11.965000 0.034232 0
11.970000 0.013289 0
11.975000 -0.005542 0
11.980000 -0.022252 0
11.985000 -0.036887 0
11.990000 -0.049536 0
11.995000 -0.060320 0
12.000000 -0.069384 0
12.005000 -0.076890 0
12.010000 -0.083005 0
12.015000 -0.087897 0
12.020000 -0.091728 0
12.025000 -0.094651 0
12.030000 -0.096809 0
12.035000 -0.098330 0
12.040000 -0.099325 0
12.045000 -0.099894 0
12.050000 -0.100121 0
12.055000 -0.099950 0
12.060000 -0.099038 0
12.065000 -0.098130 0
12.070000 -0.097227 0
12.075000 -0.096328 0
12.080000 -0.095433 0
12.085000 -0.094544 0
12.090000 -0.093658 0
12.095000 -0.092777 0
12.100000 -0.091900 0
12.105000 -0.091028 0
12.110000 -0.090159 0
12.115000 -0.089293 0
12.120000 -0.088431 0
12.125000 -0.087569 0
12.130000 -0.086705 0
12.135000 -0.085835 0
12.140000 -0.084949 0
12.145000 -0.084034 0
12.150000 -0.083067 0
12.155000 -0.082013 0
12.160000 -0.080818 0
12.165000 -0.079403 0
12.170000 -0.077656 0
12.175000 -0.075423 0
12.180000 -0.072502 0
12.185000 -0.068632 0
12.190000 -0.063502 0
12.195000 -0.056747 0
12.200000 -0.047972 0
12.205000 -0.036782 0
12.210000 -0.022819 0
12.215000 -0.005820 0
12.220000 0.014325 0
12.225000 0.037511 0
12.230000 0.063367 0
12.235000 0.091223 0
12.240000 0.120114 0
12.245000 0.148807 0
12.250000 0.175885 0
12.255000 0.199848 0
12.260000 0.219256 0
12.265000 0.232863 0
12.270000 0.239755 1
12.275000 0.239449 0
12.280000 0.231948 0
12.285000 0.217744 0
12.290000 0.197762 0
12.295000 0.173264 0
12.300000 0.145711 0
12.305000 0.116621 0
12.310000 0.087418 0
12.315000 0.059267 0
12.320000 0.032860 0
12.325000 0.008078 0
12.330000 -0.016484 0
12.335000 -0.043841 0
12.340000 -0.078057 0
12.345000 -0.121983 0
12.350000 -0.173416 0
12.355000 -0.221709 0
12.360000 -0.247640 2
12.365000 -0.227286 0
12.370000 -0.137727 0
12.375000 0.036883 0
12.380000 0.296466 0
12.385000 0.612084 0
12.390000 0.918071 0
12.395000 1.125689 0
12.400000 1.161866 3
12.405000 1.008102 0
12.410000 0.714746 0
12.415000 0.371138 0
12.420000 0.059843 0
12.425000 -0.169256 0
12.430000 -0.299475 0
12.435000 -0.337663 4
12.440000 -0.306317 0
12.445000 -0.236530 0
12.450000 -0.158364 0
12.455000 -0.091739 0
12.460000 -0.043371 0
12.465000 -0.010444 0
12.470000 0.013319 0
12.475000 0.033393 0
12.480000 0.053087 0
12.485000 0.073924 0
12.490000 0.096418 0
12.495000 0.120615 0
12.500000 0.146353 0
12.505000 0.173358 0
12.510000 0.201269 0
12.515000 0.229651 0
12.520000 0.258004 0
12.525000 0.285776 0
12.530000 0.312381 0
12.535000 0.337214 0
12.540000 0.359677 0
12.545000 0.379199 0
12.550000 0.395265 0
12.555000 0.407431 0
12.560000 0.415347 0
12.565000 0.418775 5
12.570000 0.417596 0
12.575000 0.411821 0
12.580000 0.401585 0
12.585000 0.387147 0
12.590000 0.368872 0
12.595000 0.347223 0
12.600000 0.322735 0
12.605000 0.295994 0
12.610000 0.267617 0
12.615000 0.238221 0
12.620000 0.208408 0
12.625000 0.178743 0
12.630000 0.149734 0
12.635000 0.121824 0
12.640000 0.095380 0
12.645000 0.070690 0
12.650000 0.047960 0
12.655000 0.027322 0
12.660000 0.008834 0
12.665000 -0.007507 0
12.670000 -0.021759 0
12.675000 -0.034022 0
12.680000 -0.044427 0
12.685000 -0.053131 0
12.690000 -0.060301 0
12.695000 -0.066110 0
12.700000 -0.070731 0
12.705000 -0.074327 0
12.710000 -0.077054 0
12.715000 -0.079052 0
12.720000 -0.080448 0
12.725000 -0.081352 0
12.730000 -0.081859 0
12.735000 -0.082050 0
12.740000 -0.081374 0
12.745000 -0.080554 0
12.750000 -0.079738 0
12.755000 -0.078927 0
12.760000 -0.078119 0
12.765000 -0.077316 0
12.770000 -0.076516 0
12.775000 -0.075720 0
12.780000 -0.074929 0
12.785000 -0.074141 0
12.790000 -0.073357 0
12.795000 -0.072575 0
12.800000 -0.071797 0
12.805000 -0.071019 0
12.810000 -0.070241 0
12.815000 -0.069457 0
12.820000 -0.068660 0
12.825000 -0.067838 0
12.830000 -0.066970 0
12.835000 -0.066024 0
12.840000 -0.064950 0
12.845000 -0.063673 0
12.850000 -0.062087 0
12.855000 -0.060043 0
12.860000 -0.057342 0
12.865000 -0.053726 0
12.870000 -0.048883 0
12.875000 -0.042443 0
12.880000 -0.034004 0
12.885000 -0.023154 0
12.890000 -0.009519 0
12.895000 0.007184 0
12.900000 0.027082 0
12.905000 0.050080 0
12.910000 0.075807 0
12.915000 0.103583 0
12.920000 0.132413 0
12.925000 0.161028 0
12.930000 0.187961 0
12.935000 0.211670 0
12.940000 0.230672 0
12.945000 0.243706 0
12.950000 0.249859 1
12.955000 0.248682 0
12.960000 0.240235 0
12.965000 0.225085 0
12.970000 0.204244 0
12.975000 0.179052 0
12.980000 0.151039 0
12.985000 0.121762 0
12.990000 0.092647 0
12.995000 0.064810 0
13.000000 0.038803 0
13.005000 0.014216 0
13.010000 -0.010832 0
13.015000 -0.039873 0
13.020000 -0.077050 0
13.025000 -0.124118 0
13.030000 -0.176203 0
13.035000 -0.219078 0
13.040000 -0.230575 2
13.045000 -0.185733 0
13.050000 -0.062975 0
13.055000 0.148725 0
13.060000 0.438389 0
13.065000 0.759697 0
13.070000 1.030772 0
13.075000 1.161923 3
13.080000 1.105607 0
13.085000 0.879294 0
13.090000 0.553203 0
13.095000 0.213979 0
13.100000 -0.071014 0
13.105000 -0.266999 0
13.110000 -0.366842 0
13.115000 -0.382319 4
13.120000 -0.337802 0
13.125000 -0.263442 0
13.130000 -0.186155 0
13.135000 -0.122294 0
13.140000 -0.076262 0
13.145000 -0.044545 0
13.150000 -0.021121 0
13.155000 -0.000970 0
13.160000 0.018914 0
13.165000 0.039926 0
13.170000 0.062544 0
13.175000 0.086818 0
13.180000 0.112600 0
13.185000 0.139639 0
13.190000 0.167601 0
13.195000 0.196084 0
13.200000 0.224625 0
13.205000 0.252712 0
13.210000 0.279794 0
13.215000 0.305304 0
13.220000 0.328672 0
13.225000 0.349350 0
13.230000 0.366830 0
13.235000 0.380666 0
13.240000 0.390493 0
13.245000 0.396041 0
13.250000 0.397146 5
13.255000 0.393762 0
13.260000 0.385958 0
13.265000 0.373920 0
13.270000 0.357938 0
13.275000 0.338400 0
13.280000 0.315772 0
13.285000 0.290580 0
13.290000 0.263392 0
13.295000 0.234792 0
13.300000 0.205363 0
13.305000 0.175665 0
13.310000 0.146223 0
13.315000 0.117505 0
13.320000 0.089918 0
13.325000 0.063800 0
13.330000 0.039412 0
13.335000 0.016944 0
13.340000 -0.003484 0
13.345000 -0.021819 0
13.350000 -0.038066 0
13.355000 -0.052277 0
13.360000 -0.064544 0
13.365000 -0.074992 0
13.370000 -0.083765 0
13.375000 -0.091020 0
13.380000 -0.096922 0
13.385000 -0.101634 0
13.390000 -0.105313 0
13.395000 -0.108109 0
13.400000 -0.110158 0
13.405000 -0.111584 0
13.410000 -0.112497 0
13.415000 -0.112992 0
13.420000 -0.113151 0
13.425000 -0.112916 0
13.430000 -0.111938 0
13.435000 -0.110966 0
13.440000 -0.109999 0
13.445000 -0.109036 0
13.450000 -0.108079 0
13.455000 -0.107126 0
13.460000 -0.106177 0
13.465000 -0.105234 0
13.470000 -0.104295 0
13.475000 -0.103361 0
13.480000 -0.102430 0
13.485000 -0.101504 0
13.490000 -0.100581 0
13.495000 -0.099659 0
13.500000 -0.098737 0
13.505000 -0.097809 0
13.510000 -0.096869 0
13.515000 -0.095905 0
13.520000 -0.094895 0
13.525000 -0.093810 0
13.530000 -0.092603 0
13.535000 -0.091204 0
13.540000 -0.089514 0
13.545000 -0.087397 0
13.550000 -0.084671 0
13.555000 -0.081100 0
13.560000 -0.076398 0
13.565000 -0.070226 0
13.570000 -0.062209 0
13.575000 -0.051956 0
13.580000 -0.039099 0
13.585000 -0.023337 0
13.590000 -0.004494 0
13.595000 0.017425 0
13.600000 0.042176 0
13.605000 0.069244 0
13.610000 0.097819 0
13.615000 0.126818 0
13.620000 0.154939 0
13.625000 0.180745 0
13.630000 0.202785 0
13.635000 0.219726 0
13.640000 0.230488 0
13.645000 0.234356 1
13.650000 0.231058 0
13.655000 0.220800 0
13.660000 0.204241 0
13.665000 0.182425 0
13.670000 0.156670 0
13.675000 0.128440 0
13.680000 0.099198 0
13.685000 0.070265 0
13.690000 0.042656 0
13.695000 0.016841 0
13.700000 -0.007621 0
13.705000 -0.032534 0
13.710000 -0.061232 0
13.715000 -0.097666 0
13.720000 -0.143783 0
13.725000 -0.195729 0
13.730000 -0.241130 0
13.735000 -0.259867 2
13.740000 -0.228356 0
13.745000 -0.125046 0
13.750000 0.063618 0
13.755000 0.334037 0
13.760000 0.652996 0
13.765000 0.952122 0
13.770000 1.144314 0
13.775000 1.162502 3
13.780000 0.994729 0
13.785000 0.694740 0
13.790000 0.350927 0
13.795000 0.042666 0
13.800000 -0.182938 0
13.805000 -0.310614 0
13.810000 -0.347554 4
13.815000 -0.315954 0
13.820000 -0.246269 0
13.825000 -0.167975 0
13.830000 -0.100803 0
13.835000 -0.051668 0
13.840000 -0.018061 0
13.845000 0.006122 0
13.850000 0.026353 0
13.855000 0.046026 0
13.860000 0.066745 0
13.865000 0.089078 0
13.870000 0.113102 0
13.875000 0.138677 0
13.880000 0.165544 0
13.885000 0.193363 0
13.890000 0.221717 0
13.895000 0.250129 0
13.900000 0.278066 0
13.905000 0.304959 0
13.910000 0.330218 0
13.915000 0.353255 0
13.920000 0.373506 0
13.925000 0.390451 0
13.930000 0.403636 0
13.935000 0.412698 0
13.940000 0.417371 0
13.945000 0.417509 5
13.950000 0.413085 0
13.955000 0.404197 0
13.960000 0.391060 0
13.965000 0.374002 0
13.970000 0.353447 0
13.975000 0.329896 0
13.980000 0.303908 0
13.985000 0.276078 0
13.990000 0.247012 0
13.995000 0.217307 0
14.000000 0.187533 0
14.005000 0.158210 0
14.010000 0.129799 0
14.015000 0.102693 0
14.020000 0.077206 0
14.025000 0.053576 0
14.030000 0.031965 0
14.035000 0.012462 0
14.040000 -0.004909 0
14.045000 -0.020178 0
14.050000 -0.033424 0
14.055000 -0.044761 0
14.060000 -0.054331 0
14.065000 -0.062292 0
14.070000 -0.068813 0
14.075000 -0.074061 0
14.080000 -0.078205 0
14.085000 -0.081400 0
14.090000 -0.083792 0
14.095000 -0.085515 0
14.100000 -0.086685 0
14.105000 -0.087405 0
14.110000 -0.087764 0
14.115000 -0.087835 0
14.120000 -0.087116 0
14.125000 -0.086267 0
14.130000 -0.085423 0
14.135000 -0.084583 0
14.140000 -0.083748 0
14.145000 -0.082916 0
14.150000 -0.082089 0
14.155000 -0.081265 0
14.160000 -0.080446 0
14.165000 -0.079630 0
14.170000 -0.078818 0
14.175000 -0.078010 0
14.180000 -0.077204 0
14.185000 -0.076399 0
14.190000 -0.075592 0
14.195000 -0.074779 0
14.200000 -0.073952 0
14.205000 -0.073098 0
14.210000 -0.072195 0
14.215000 -0.071210 0
14.220000 -0.070092 0
14.225000 -0.068764 0
14.230000 -0.067119 0
14.235000 -0.065007 0
14.240000 -0.062229 0
14.245000 -0.058531 0
14.250000 -0.053603 0
14.255000 -0.047082 0
14.260000 -0.038573 0
14.265000 -0.027674 0
14.270000 -0.014020 0
14.275000 0.002666 0
14.280000 0.022510 0
14.285000 0.045425 0
14.290000 0.071059 0
14.295000 0.098760 0
14.300000 0.127571 0
14.305000 0.156268 0
14.310000 0.183428 0
14.315000 0.207541 0
14.320000 0.227146 0
14.325000 0.240977 0
14.330000 0.248094 1
14.335000 0.247993 0
14.340000 0.240659 0
14.345000 0.226574 0
14.350000 0.206662 0
14.355000 0.182186 0
14.360000 0.154621 0
14.365000 0.125496 0
14.370000 0.096247 0
14.375000 0.068051 0
14.380000 0.041608 0
14.385000 0.016790 0
14.390000 -0.007831 0
14.395000 -0.035314 0
14.400000 -0.069760 0
14.405000 -0.113976 0
14.410000 -0.165557 0
14.415000 -0.213495 0
14.420000 -0.238170 2
14.425000 -0.215394 0
14.430000 -0.122228 0
14.435000 0.056794 0
14.440000 0.320444 0
14.445000 0.637599 0
14.450000 0.940030 0
14.455000 1.137944 0
14.460000 1.160413 3
14.465000 0.998638 0
14.470000 0.704534 0
14.475000 0.360973 0
14.480000 0.045080 0
14.485000 -0.194676 0
14.490000 -0.339942 0
14.495000 -0.394324 4
14.500000 -0.376287 0
14.505000 -0.313435 0
14.510000 -0.234803 0
14.515000 -0.162379 0
14.520000 -0.106524 0
14.525000 -0.067390 0
14.530000 -0.039883 0
14.535000 -0.018272 0
14.540000 0.001543 0
14.545000 0.021786 0
14.550000 0.043396 0
14.555000 0.066641 0
14.560000 0.091485 0
14.565000 0.117742 0
14.570000 0.145137 0
14.575000 0.173324 0
14.580000 0.201889 0
14.585000 0.230367 0
14.590000 0.258245 0
14.595000 0.284980 0
14.600000 0.310015 0
14.605000 0.332800 0
14.610000 0.352806 0
14.615000 0.369550 0
14.620000 0.382613 0
14.625000 0.391657 0
14.630000 0.396435 0
14.635000 0.396811 5
14.640000 0.392755 0
14.645000 0.384354 0
14.650000 0.371803 0
14.655000 0.355400 0
14.660000 0.335531 0
14.665000 0.312659 0
14.670000 0.287302 0
14.675000 0.260013 0
14.680000 0.231366 0
14.685000 0.201926 0
14.690000 0.172242 0
14.695000 0.142821 0
14.700000 0.114121 0
14.705000 0.086538 0
14.710000 0.060402 0
14.715000 0.035971 0
14.720000 0.013431 0
14.725000 -0.007098 0
14.730000 -0.025561 0
14.735000 -0.041958 0
14.740000 -0.056336 0
14.745000 -0.068784 0
14.750000 -0.079418 0
14.755000 -0.088379 0
14.760000 -0.095818 0
14.765000 -0.101895 0
14.770000 -0.106770 0
14.775000 -0.110599 0
14.780000 -0.113527 0
14.785000 -0.115692 0
14.790000 -0.117216 0
14.795000 -0.118210 0
14.800000 -0.118770 0
14.805000 -0.118979 0
14.810000 -0.118908 0
14.815000 -0.118036 0
14.820000 -0.117034 0
14.825000 -0.116036 0
14.830000 -0.115044 0
14.835000 -0.114056 0
14.840000 -0.113073 0
14.845000 -0.112095 0
14.850000 -0.111122 0
14.855000 -0.110154 0
14.860000 -0.109190 0
14.865000 -0.108231 0
14.870000 -0.107276 0
14.875000 -0.106325 0
14.880000 -0.105377 0
14.885000 -0.104429 0
14.890000 -0.103478 0
14.895000 -0.102519 0
14.900000 -0.101543 0
14.905000 -0.100533 0
14.910000 -0.099467 0
14.915000 -0.098306 0
14.920000 -0.096997 0
14.925000 -0.095458 0
14.930000 -0.093579 0
14.935000 -0.091207 0
14.940000 -0.088144 0
14.945000 -0.084141 0
14.950000 -0.078896 0
14.955000 -0.072064 0
14.960000 -0.063270 0
14.965000 -0.052137 0
14.970000 -0.038321 0
14.975000 -0.021564 0
14.980000 -0.001745 0
14.985000 0.021066 0
14.990000 0.046554 0
14.995000 0.074136 0
15.000000 0.102948 0
15.005000 0.131871 0
15.010000 0.159591 0
15.015000 0.184695 0
15.020000 0.205780 0
15.025000 0.221587 0
15.030000 0.231125 0
15.035000 0.233771 1
15.040000 0.229341 0
15.045000 0.218109 0
15.050000 0.200777 0
15.055000 0.178409 0
15.060000 0.152315 0
15.065000 0.123930 0
15.070000 0.094675 0
15.075000 0.065820 0
15.080000 0.038325 0
15.085000 0.012610 0
15.090000 -0.011809 0
15.095000 -0.036745 0
15.100000 -0.065481 0
15.105000 -0.101876 0
15.110000 -0.147845 0
15.115000 -0.199741 0
15.120000 -0.245724 0
15.125000 -0.266387 2
15.130000 -0.238758 0
15.135000 -0.141517 0
15.140000 0.039428 0
15.145000 0.302559 0
15.150000 0.618897 0
15.155000 0.925281 0
15.160000 1.137169 0
15.165000 1.183794 3
15.170000 1.043286 0
15.175000 0.759462 0
15.180000 0.416799 0
15.185000 0.097277 0
15.190000 -0.146472 0
15.195000 -0.294081 0
15.200000 -0.348841 4
15.205000 -0.329937 0
15.210000 -0.266190 0
15.215000 -0.187665 0
15.220000 -0.116585 0
15.225000 -0.062757 0
15.230000 -0.025555 0
15.235000 0.000602 0
15.240000 0.021515 0
15.245000 0.041113 0
15.250000 0.061414 0
15.255000 0.083212 0
15.260000 0.106692 0
15.265000 0.131769 0
15.270000 0.158222 0
15.275000 0.185741 0
15.280000 0.213944 0
15.285000 0.242381 0
15.290000 0.270548 0
15.295000 0.297897 0
15.300000 0.323855 0
15.305000 0.347842 0
15.310000 0.369291 0
15.315000 0.387671 0
15.320000 0.402507 0
15.325000 0.413403 0
15.330000 0.420052 0
15.335000 0.422259 5
15.340000 0.419942 0
15.345000 0.413140 0
15.350000 0.402012 0
15.355000 0.386827 0
15.360000 0.367958 0
15.365000 0.345859 0
15.370000 0.321054 0
15.375000 0.294111 0
15.380000 0.265623 0
15.385000 0.236184 0
15.390000 0.206369 0
15.395000 0.176719 0
15.400000 0.147721 0
15.405000 0.119800 0
15.410000 0.093310 0
15.415000 0.068529 0
15.420000 0.045662 0
15.425000 0.024837 0
15.430000 0.006119 0
15.435000 -0.010491 0
15.440000 -0.025040 0
15.445000 -0.037619 0
15.450000 -0.048352 0
15.455000 -0.057382 0
15.460000 -0.064871 0
15.465000 -0.070983 0
15.470000 -0.075886 0
15.475000 -0.079739 0
15.480000 -0.082694 0
15.485000 -0.084891 0
15.490000 -0.086457 0
15.495000 -0.087502 0
15.500000 -0.088125 0
15.505000 -0.088407 0
15.510000 -0.088294 0
15.515000 -0.087440 0
15.520000 -0.086590 0
15.525000 -0.085744 0
15.530000 -0.084903 0
15.535000 -0.084065 0
15.540000 -0.083232 0
15.545000 -0.082403 0
15.550000 -0.081578 0
15.555000 -0.080757 0
15.560000 -0.079940 0
15.565000 -0.079126 0
15.570000 -0.078316 0
15.575000 -0.077508 0
15.580000 -0.076701 0
15.585000 -0.075893 0
15.590000 -0.075077 0
15.595000 -0.074247 0
15.600000 -0.073389 0
15.605000 -0.072481 0
15.610000 -0.071491 0
15.615000 -0.070365 0
15.620000 -0.069030 0
15.625000 -0.067379 0
15.630000 -0.065263 0
15.635000 -0.062488 0
15.640000 -0.058804 0
15.645000 -0.053907 0
15.650000 -0.047443 0
15.655000 -0.039023 0
15.660000 -0.028255 0
15.665000 -0.014774 0
15.670000 0.001697 0
15.675000 0.021294 0
15.680000 0.043950 0
15.685000 0.069343 0
15.690000 0.096862 0
15.695000 0.125599 0
15.700000 0.154376 0
15.705000 0.181817 0
15.710000 0.206443 0
15.715000 0.226803 0
15.720000 0.241616 0
15.725000 0.249902 0
15.730000 0.251086 1
15.735000 0.245069 0
15.740000 0.232234 0
15.745000 0.213410 0
15.750000 0.189782 0
15.755000 0.162763 0
15.760000 0.133857 0
15.765000 0.104510 0
15.770000 0.075957 0
15.775000 0.049026 0
15.780000 0.023847 0
15.785000 -0.000592 0
15.790000 -0.026851 0
15.795000 -0.058814 0
15.800000 -0.099977 0
15.805000 -0.149983 0
15.810000 -0.200885 0
15.815000 -0.235879 2
15.820000 -0.232086 0
15.825000 -0.165904 0
15.830000 -0.018765 0
15.835000 0.215413 0
15.840000 0.518418 0
15.845000 0.836742 0
15.850000 1.086698 0
15.855000 1.185667 3
15.860000 1.097402 0
15.865000 0.849373 0
15.870000 0.515835 0
15.875000 0.180710 0
15.880000 -0.094198 0
15.885000 -0.278806 0
15.890000 -0.368748 0
15.895000 -0.377167 4
15.900000 -0.328837 0
15.905000 -0.253401 0
15.910000 -0.176645 0
15.915000 -0.113783 0
15.920000 -0.068546 0
15.925000 -0.037258 0
15.930000 -0.014003 0
15.935000 0.006091 0
15.940000 0.025942 0
15.945000 0.046908 0
15.950000 0.069461 0
15.955000 0.093653 0
15.960000 0.119344 0
15.965000 0.146289 0
15.970000 0.174167 0
15.975000 0.202586 0
15.980000 0.231098 0
15.985000 0.259202 0
15.990000 0.286365 0
15.995000 0.312030 0
16.000000 0.335639 0
16.005000 0.356651 0
16.010000 0.374563 0
16.015000 0.388928 0
16.020000 0.399377 0
16.025000 0.405627 0
16.030000 0.407502 5
16.035000 0.404934 0
16.040000 0.397970 0
16.045000 0.386768 0
16.050000 0.371593 0
16.055000 0.352803 0
16.060000 0.330840 0
16.065000 0.306207 0
16.070000 0.279449 0
16.075000 0.251139 0
16.080000 0.221848 0
16.085000 0.192135 0
16.090000 0.162524 0
16.095000 0.133493 0
16.100000 0.105461 0
16.105000 0.078780 0
16.110000 0.053732 0
16.115000 0.030528 0
16.120000 0.009307 0
16.125000 -0.009853 0
16.130000 -0.026937 0
16.135000 -0.041980 0
16.140000 -0.055057 0
16.145000 -0.066279 0
16.150000 -0.075779 0
16.155000 -0.083707 0
16.160000 -0.090223 0
16.165000 -0.095487 0
16.170000 -0.099657 0
16.175000 -0.102882 0
16.180000 -0.105304 0
16.185000 -0.107049 0
16.190000 -0.108233 0
16.195000 -0.108956 0
16.200000 -0.109304 0
16.205000 -0.109353 0
16.210000 -0.108796 0
16.215000 -0.107839 0
16.220000 -0.106888 0
16.225000 -0.105941 0
16.230000 -0.104998 0
16.235000 -0.104061 0
16.240000 -0.103128 0
16.245000 -0.102199 0
16.250000 -0.101276 0
16.255000 -0.100356 0
16.260000 -0.099442 0
16.265000 -0.098531 0
16.270000 -0.097623 0
16.275000 -0.096719 0
16.280000 -0.095815 0
16.285000 -0.094910 0
16.290000 -0.093998 0
16.295000 -0.093070 0
16.300000 -0.092114 0
16.305000 -0.091107 0
16.310000 -0.090016 0
16.315000 -0.088790 0
16.320000 -0.087356 0
16.325000 -0.085610 0
16.330000 -0.083408 0
16.335000 -0.080563 0
16.340000 -0.076837 0
16.345000 -0.071938 0
16.350000 -0.065529 0
16.355000 -0.057236 0
16.360000 -0.046680 0
16.365000 -0.033504 0
16.370000 -0.017427 0
16.375000 0.001708 0
16.380000 0.023873 0
16.385000 0.048810 0
16.390000 0.075988 0
16.395000 0.104596 0
16.400000 0.133559 0
16.405000 0.161591 0
16.410000 0.187284 0
16.415000 0.209216 0
16.420000 0.226088 0
16.425000 0.236841 0
16.430000 0.240775 1
16.435000 0.237618 0
16.440000 0.227560 0
16.445000 0.211233 0
16.450000 0.189644 0
16.455000 0.164075 0
16.460000 0.135953 0
16.465000 0.106717 0
16.470000 0.077680 0
16.475000 0.049871 0
16.480000 0.023826 0
16.485000 -0.000758 0
16.490000 -0.025457 0
16.495000 -0.053348 0
16.500000 -0.088338 0
16.505000 -0.132892 0
16.510000 -0.184460 0
16.515000 -0.232486 0
16.520000 -0.258459 2
16.525000 -0.239524 0
16.530000 -0.153695 0
16.535000 0.014664 0
16.540000 0.266999 0
16.545000 0.578848 0
16.550000 0.891445 0
16.555000 1.121193 0
16.560000 1.192664 3
16.565000 1.075541 0
16.570000 0.805974 0
16.575000 0.465855 0
16.580000 0.139679 0
16.585000 -0.115456 0
16.590000 -0.275434 0
16.595000 -0.341060 4
16.600000 -0.329893 0
16.605000 -0.270008 0
16.610000 -0.191898 0
16.615000 -0.119167 0
16.620000 -0.063164 0
16.625000 -0.024253 0
16.630000 0.002859 0
16.635000 0.024117 0
16.640000 0.043709 0
16.645000 0.063847 0
16.650000 0.085433 0
16.655000 0.108700 0
16.660000 0.133583 0
16.665000 0.159873 0
16.670000 0.187269 0
16.675000 0.215395 0
16.680000 0.243807 0
16.685000 0.272006 0
16.690000 0.299447 0
16.695000 0.325558 0
16.700000 0.349756 0
16.705000 0.371472 0
16.710000 0.390169 0
16.715000 0.405364 0
16.720000 0.416651 0
16.725000 0.423714 0
16.730000 0.426344 5
16.735000 0.424449 0
16.740000 0.418056 0
16.745000 0.407312 0
16.750000 0.392477 0
16.755000 0.373915 0
16.760000 0.352075 0
16.765000 0.327475 0
16.770000 0.300682 0
16.775000 0.272288 0
16.780000 0.242890 0
16.785000 0.213065 0
16.790000 0.183360 0
16.795000 0.154268 0
16.800000 0.126220 0
16.805000 0.099577 0
16.810000 0.074625 0
16.815000 0.051574 0
16.820000 0.030560 0
16.825000 0.011651 0
16.830000 -0.005144 0
16.835000 -0.019873 0
16.840000 -0.032621 0
16.845000 -0.043510 0
16.850000 -0.052683 0
16.855000 -0.060301 0
16.860000 -0.066529 0
16.865000 -0.071534 0
16.870000 -0.075476 0
16.875000 -0.078510 0
16.880000 -0.080776 0
16.885000 -0.082401 0
16.890000 -0.083498 0
16.895000 -0.084166 0
16.900000 -0.084488 0
16.905000 -0.084407 0
16.910000 -0.083572 0
16.915000 -0.082742 0
16.920000 -0.081915 0
16.925000 -0.081093 0
16.930000 -0.080274 0
16.935000 -0.079460 0
16.940000 -0.078650 0
16.945000 -0.077844 0
16.950000 -0.077041 0
16.955000 -0.076243 0
16.960000 -0.075448 0
16.965000 -0.074656 0
16.970000 -0.073867 0
16.975000 -0.073078 0
16.980000 -0.072288 0
16.985000 -0.071491 0
16.990000 -0.070680 0
16.995000 -0.069841 0
17.000000 -0.068955 0
17.005000 -0.067986 0
17.010000 -0.066886 0
17.015000 -0.065580 0
17.020000 -0.063961 0
17.025000 -0.061886 0
17.030000 -0.059159 0
17.035000 -0.055533 0
17.040000 -0.050705 0
17.045000 -0.044323 0
17.050000 -0.035998 0
17.055000 -0.025335 0
17.060000 -0.011969 0
17.065000 0.004382 0
17.070000 0.023862 0
17.075000 0.046409 0
17.080000 0.071711 0
17.085000 0.099164 0
17.090000 0.127865 0
17.095000 0.156644 0
17.100000 0.184124 0
17.105000 0.208825 0
17.110000 0.229291 0
17.115000 0.244232 0
17.120000 0.252658 0
17.125000 0.253984 1
17.130000 0.248098 0
17.135000 0.235375 0
17.140000 0.216639 0
17.145000 0.193069 0
17.150000 0.166080 0
17.155000 0.137178 0
17.160000 0.107814 0
17.165000 0.079228 0
17.170000 0.052259 0
17.175000 0.027048 0
17.180000 0.002597 0
17.185000 -0.023641 0
17.190000 -0.055552 0
17.195000 -0.096651 0
17.200000 -0.146628 0
17.205000 -0.197579 0
17.210000 -0.232717 2
17.215000 -0.229137 0
17.220000 -0.163183 0
17.225000 -0.016227 0
17.230000 0.217854 0
17.235000 0.520843 0
17.240000 0.839127 0
17.245000 1.088845 0
17.250000 1.187273 3
17.255000 1.096182 0
17.260000 0.843948 0
17.265000 0.508412 0
17.270000 0.175900 0
17.275000 -0.091791 0
17.280000 -0.266170 0
17.285000 -0.344975 4
17.290000 -0.343640 0
17.295000 -0.289050 0
17.300000 -0.211882 0
17.305000 -0.137230 0
17.310000 -0.078361 0
17.315000 -0.037027 0
17.320000 -0.008449 0
17.325000 0.013436 0
17.330000 0.033138 0
17.335000 0.053140 0
17.340000 0.074501 0
17.345000 0.097531 0
17.350000 0.122196 0
17.355000 0.148309 0
17.360000 0.175581 0
17.365000 0.203649 0
17.370000 0.232081 0
17.375000 0.260389 0
17.380000 0.288033 0
17.385000 0.314448 0
17.390000 0.339053 0
17.395000 0.361275 0
17.400000 0.380571 0
17.405000 0.396450 0
17.410000 0.408491 0
17.415000 0.416361 0
17.420000 0.419833 5
17.425000 0.418793 0
17.430000 0.413247 0
17.435000 0.403318 0
17.440000 0.389248 0
17.445000 0.371379 0
17.450000 0.350147 0
17.455000 0.326057 0
17.460000 0.299667 0
17.465000 0.271564 0
17.470000 0.242344 0
17.475000 0.212590 0
17.480000 0.182852 0
17.485000 0.153635 0
17.490000 0.125382 0
17.495000 0.098467 0
17.500000 0.073190 0
17.505000 0.049776 0
17.510000 0.028375 0
17.515000 0.009067 0
17.520000 -0.008126 0
17.525000 -0.023242 0
17.530000 -0.036359 0
17.535000 -0.047591 0
17.540000 -0.057080 0
17.545000 -0.064980 0
17.550000 -0.071456 0
17.555000 -0.076676 0
17.560000 -0.080802 0
17.565000 -0.083989 0
17.570000 -0.086379 0
17.575000 -0.088103 0
17.580000 -0.089276 0
17.585000 -0.090001 0
17.590000 -0.090363 0
17.595000 -0.090436 0
17.600000 -0.089707 0
17.605000 -0.088846 0
17.610000 -0.087989 0
17.615000 -0.087136 0
17.620000 -0.086287 0
17.625000 -0.085443 0
17.630000 -0.084603 0
17.635000 -0.083767 0
17.640000 -0.082935 0
17.645000 -0.082107 0
17.650000 -0.081283 0
17.655000 -0.080463 0
17.660000 -0.079645 0
17.665000 -0.078828 0
17.670000 -0.078011 0
17.675000 -0.077189 0
17.680000 -0.076355 0
17.685000 -0.075497 0
17.690000 -0.074598 0
17.695000 -0.073626 0
17.700000 -0.072537 0
17.705000 -0.071264 0
17.710000 -0.069709 0
17.715000 -0.067737 0
17.720000 -0.065169 0
17.725000 -0.061771 0
17.730000 -0.057254 0
17.735000 -0.051278 0
17.740000 -0.043464 0
17.745000 -0.033415 0
17.750000 -0.020754 0
17.755000 -0.005174 0
17.760000 0.013511 0
17.765000 0.035298 0
17.770000 0.059945 0
17.775000 0.086928 0
17.780000 0.115425 0
17.785000 0.144335 0
17.790000 0.172330 0
17.795000 0.197949 0
17.800000 0.219720 0
17.805000 0.236298 0
17.810000 0.246602 0
17.815000 0.249928 1
17.820000 0.246032 0
17.825000 0.235158 0
17.830000 0.218008 0
17.835000 0.195673 0
17.840000 0.169513 0
17.845000 0.141019 0
17.850000 0.111670 0
17.855000 0.082778 0
17.860000 0.055319 0
17.865000 0.029670 0
17.870000 0.005211 0
17.875000 -0.020133 0
17.880000 -0.049948 0
17.885000 -0.088137 0
17.890000 -0.135921 0
17.895000 -0.187926 0
17.900000 -0.229893 0
17.905000 -0.240272 2
17.910000 -0.195087 0
17.915000 -0.073631 0
17.920000 0.134953 0
17.925000 0.421180 0
17.930000 0.742703 0
17.935000 1.022830 0
17.940000 1.174095 3
17.945000 1.139617 0
17.950000 0.927501 0
17.955000 0.606199 0
17.960000 0.265431 0
17.965000 -0.023204 0
17.970000 -0.222151 0
17.975000 -0.323290 0
17.980000 -0.338589 4
17.985000 -0.293293 0
17.990000 -0.218593 0
17.995000 -0.141982 0
18.000000 -0.079637 0
18.005000 -0.035334 0
18.010000 -0.004998 0
18.015000 0.017599 0
18.020000 0.037397 0
18.025000 0.057228 0
18.030000 0.078337 0
18.035000 0.101114 0
18.040000 0.125559 0
18.045000 0.151493 0
18.050000 0.178633 0
18.055000 0.206617 0
18.060000 0.235011 0
18.065000 0.263320 0
18.070000 0.290999 0
18.075000 0.317473 0
18.080000 0.342149 0
18.085000 0.364445 0
18.090000 0.383806 0
18.095000 0.399727 0
18.100000 0.411780 0
18.105000 0.419625 0
18.110000 0.423029 5
18.115000 0.421879 0
18.120000 0.416181 0
18.125000 0.406067 0
18.130000 0.391785 0
18.135000 0.373690 0
18.140000 0.352229 0
18.145000 0.327923 0
18.150000 0.301341 0
18.155000 0.273084 0
18.160000 0.243758 0
18.165000 0.213955 0
18.170000 0.184231 0
18.175000 0.155092 0
18.180000 0.126982 0
18.185000 0.100270 0
18.190000 0.075251 0
18.195000 0.052142 0
18.200000 0.031083 0
18.205000 0.012145 0
18.210000 -0.004664 0
18.215000 -0.019388 0
18.220000 -0.032118 0
18.225000 -0.042976 0
18.230000 -0.052108 0
18.235000 -0.059678 0
18.240000 -0.065853 0
18.245000 -0.070803 0
18.250000 -0.074692 0
18.255000 -0.077674 0
18.260000 -0.079891 0
18.265000 -0.081472 0
18.270000 -0.082531 0
18.275000 -0.083165 0
18.280000 -0.083459 0
18.285000 -0.083360 0
18.290000 -0.082530 0
18.295000 -0.081705 0
18.300000 -0.080883 0
18.305000 -0.080066 0
18.310000 -0.079253 0
18.315000 -0.078444 0
18.320000 -0.077638 0
18.325000 -0.076837 0
18.330000 -0.076040 0
18.335000 -0.075246 0
18.340000 -0.074456 0
18.345000 -0.073669 0
18.350000 -0.072884 0
18.355000 -0.072099 0
18.360000 -0.071312 0
18.365000 -0.070516 0
18.370000 -0.069704 0
18.375000 -0.068859 0
18.380000 -0.067957 0
18.385000 -0.066961 0
18.390000 -0.065814 0
18.395000 -0.064430 0
18.400000 -0.062693 0
18.405000 -0.060439 0
18.410000 -0.057455 0
18.415000 -0.053471 0
18.420000 -0.048161 0
18.425000 -0.041151 0
18.430000 -0.032043 0
18.435000 -0.020438 0
18.440000 -0.005990 0
18.445000 0.011542 0
18.450000 0.032233 0
18.455000 0.055926 0
18.460000 0.082188 0
18.465000 0.110284 0
18.470000 0.139179 0
18.475000 0.167582 0
18.480000 0.194036 0
18.485000 0.217030 0
18.490000 0.235143 0
18.495000 0.247184 0
18.500000 0.252327 1
18.505000 0.250198 0
18.510000 0.240920 0
18.515000 0.225105 0
18.520000 0.203782 0
18.525000 0.178286 0
18.530000 0.150123 0
18.535000 0.120811 0
18.540000 0.091734 0
18.545000 0.063961 0
18.550000 0.038007 0
18.555000 0.013436 0
18.560000 -0.011618 0
18.565000 -0.040619 0
18.570000 -0.077631 0
18.575000 -0.124450 0
18.580000 -0.176545 0
18.585000 -0.220351 0
18.590000 -0.234459 2
18.595000 -0.194433 0
18.600000 -0.078718 0
18.605000 0.124696 0
18.610000 0.407716 0
18.615000 0.729053 0
18.620000 1.011757 0
18.625000 1.166548 3
18.630000 1.134271 0
18.635000 0.922336 0
18.640000 0.600497 0
18.645000 0.260243 0
18.650000 -0.025990 0
18.655000 -0.220897 0
18.660000 -0.317184 0
18.665000 -0.327911 4
18.670000 -0.279465 0
18.675000 -0.203737 0
18.680000 -0.128038 0
18.685000 -0.067627 0
18.690000 -0.025254 0
18.695000 0.003748 0
18.700000 0.025697 0
18.705000 0.045346 0
18.710000 0.065301 0
18.715000 0.086655 0
18.720000 0.109716 0
18.725000 0.134439 0
18.730000 0.160620 0
18.735000 0.187952 0
18.740000 0.216050 0
18.745000 0.244455 0
18.750000 0.272650 0
18.755000 0.300068 0
18.760000 0.326116 0
18.765000 0.350190 0
18.770000 0.371699 0
18.775000 0.390090 0
18.780000 0.404867 0
18.785000 0.415619 0
18.790000 0.422031 0
18.795000 0.423905 5
18.800000 0.421164 0
18.805000 0.413861 0
18.810000 0.402173 0
18.815000 0.386394 0
18.820000 0.366926 0
18.825000 0.344254 0
18.830000 0.318934 0
18.835000 0.291564 0
18.840000 0.262761 0
18.845000 0.233141 0
18.850000 0.203293 0
18.855000 0.173766 0
18.860000 0.145046 0
18.865000 0.117553 0
18.870000 0.091628 0
18.875000 0.067531 0
18.880000 0.045444 0
18.885000 0.025474 0
18.890000 0.007658 0
18.895000 -0.008026 0
18.900000 -0.021649 0
18.905000 -0.033324 0
18.910000 -0.043190 0
18.915000 -0.051407 0
18.920000 -0.058147 0
18.925000 -0.063581 0
18.930000 -0.067880 0
18.935000 -0.071206 0
18.940000 -0.073709 0
18.945000 -0.075525 0
18.950000 -0.076775 0
18.955000 -0.077565 0
18.960000 -0.077985 0
18.965000 -0.078113 0
18.970000 -0.077443 0
18.975000 -0.076643 0
18.980000 -0.075847 0
18.985000 -0.075055 0
18.990000 -0.074266 0
18.995000 -0.073482 0
19.000000 -0.072702 0
19.005000 -0.071925 0
19.010000 -0.071152 0
19.015000 -0.070383 0
19.020000 -0.069617 0
19.025000 -0.068855 0
19.030000 -0.068094 0
19.035000 -0.067334 0
19.040000 -0.066571 0
19.045000 -0.065802 0
19.050000 -0.065016 0
19.055000 -0.064199 0
19.060000 -0.063329 0
19.065000 -0.062367 0
19.070000 -0.061259 0
19.075000 -0.059919 0
19.080000 -0.058231 0
19.085000 -0.056032 0
19.090000 -0.053105 0
19.095000 -0.049178 0
19.100000 -0.043920 0
19.105000 -0.036950 0
19.110000 -0.027860 0
19.115000 -0.016245 0
19.120000 -0.001751 0
19.125000 0.015865 0
19.130000 0.036672 0
19.135000 0.060499 0
19.140000 0.086889 0
19.145000 0.115070 0
19.150000 0.143963 0
19.155000 0.172233 0
19.160000 0.198381 0
19.165000 0.220867 0
19.170000 0.238260 0
19.175000 0.249384 0
19.180000 0.253455 1
19.185000 0.250163 0
19.190000 0.239717 0
19.195000 0.222820 0
19.200000 0.200586 0
19.205000 0.174424 0
19.210000 0.145885 0
19.215000 0.116503 0
19.220000 0.087638 0
19.225000 0.060275 0
19.230000 0.034745 0
19.235000 0.010278 0
19.240000 -0.015479 0
19.245000 -0.046403 0
19.250000 -0.086359 0
19.255000 -0.135686 0
19.260000 -0.187072 0
19.265000 -0.223782 2
19.270000 -0.222307 0
19.275000 -0.158027 0
19.280000 -0.011443 0
19.285000 0.223826 0
19.290000 0.528338 0
19.295000 0.845187 0
19.300000 1.086524 0
19.305000 1.168544 3
19.310000 1.058288 0
19.315000 0.791920 0
19.320000 0.452360 0
19.325000 0.126130 0
19.330000 -0.128291 0
19.335000 -0.286438 0
19.340000 -0.349482 4
19.345000 -0.335754 0
19.350000 -0.274205 0
19.355000 -0.195832 0
19.360000 -0.124059 0
19.365000 -0.069549 0
19.370000 -0.031971 0
19.375000 -0.005682 0
19.380000 0.015265 0
19.385000 0.034897 0
19.390000 0.055262 0
19.395000 0.077154 0
19.400000 0.100751 0
19.405000 0.125954 0
19.410000 0.152533 0
19.415000 0.180165 0
19.420000 0.208451 0
19.425000 0.236927 0
19.430000 0.265068 0
19.435000 0.292312 0
19.440000 0.318068 0
19.445000 0.341744 0
19.450000 0.362762 0
19.455000 0.380587 0
19.460000 0.394745 0
19.465000 0.404847 0
19.470000 0.410601 0
19.475000 0.411831 5
19.480000 0.408481 0
19.485000 0.400621 0
19.490000 0.388442 0
19.495000 0.372248 0
19.500000 0.352446 0
19.505000 0.329525 0
19.510000 0.304035 0
19.515000 0.276570 0
19.520000 0.247737 0
19.525000 0.218143 0
19.530000 0.188365 0
19.535000 0.158938 0
19.540000 0.130340 0
19.545000 0.102979 0
19.550000 0.077186 0
19.555000 0.053216 0
19.560000 0.031244 0
19.565000 0.011375 0
19.570000 -0.006356 0
19.575000 -0.021970 0
19.580000 -0.035540 0
19.585000 -0.047174 0
19.590000 -0.057010 0
19.595000 -0.065206 0
19.600000 -0.071929 0
19.605000 -0.077350 0
19.610000 -0.081636 0
19.615000 -0.084948 0
19.620000 -0.087434 0
19.625000 -0.089229 0
19.630000 -0.090454 0
19.635000 -0.091213 0
19.640000 -0.091598 0
19.645000 -0.091686 0
19.650000 -0.090953 0
19.655000 -0.090086 0
19.660000 -0.089222 0
19.665000 -0.088363 0
19.670000 -0.087509 0
19.675000 -0.086658 0
19.680000 -0.085812 0
19.685000 -0.084970 0
19.690000 -0.084132 0
19.695000 -0.083299 0
19.700000 -0.082469 0
19.705000 -0.081642 0
19.710000 -0.080818 0
19.715000 -0.079995 0
19.720000 -0.079171 0
19.725000 -0.078342 0
19.730000 -0.077499 0
19.735000 -0.076631 0
19.740000 -0.075716 0
19.745000 -0.074722 0
19.750000 -0.073600 0
19.755000 -0.072275 0
19.760000 -0.070641 0
19.765000 -0.068551 0
19.770000 -0.065809 0
19.775000 -0.062164 0
19.780000 -0.057306 0
19.785000 -0.050875 0
19.790000 -0.042474 0
19.795000 -0.031699 0
19.800000 -0.018179 0
19.805000 -0.001629 0
19.810000 0.018086 0
19.815000 0.040890 0
19.820000 0.066442 0
19.825000 0.094097 0
19.830000 0.122908 0
19.835000 0.151648 0
19.840000 0.178893 0
19.845000 0.203126 0
19.850000 0.222875 0
19.855000 0.236859 0
19.860000 0.244126 0
19.865000 0.244159 1
19.870000 0.236936 0
19.875000 0.222935 0
19.880000 0.203080 0
19.885000 0.178641 0
19.890000 0.151098 0
19.895000 0.121990 0
19.900000 0.092760 0
19.905000 0.064591 0
19.910000 0.038181 0
19.915000 0.013393 0
19.920000 -0.011230 0
19.925000 -0.038786 0
19.930000 -0.073401 0
19.935000 -0.117829 0
19.940000 -0.169480 0
19.945000 -0.217041 0
19.950000 -0.240580 2
19.955000 -0.215727 0
19.960000 -0.119567 0
19.965000 0.063021 0
19.970000 0.329859 0
19.975000 0.648094 0
19.980000 0.947584 0
19.985000 1.137911 0
19.990000 1.149993 3
19.995000 0.974064 0
20.000000 0.668477 0
20.005000 0.325064 0
20.010000 0.023549 0
20.015000 -0.190945 0
20.020000 -0.305793 0
20.025000 -0.330841 4
20.030000 -0.290782 0
20.035000 -0.217607 0
20.040000 -0.140465 0
20.045000 -0.077100 0
20.050000 -0.032100 0
20.055000 -0.001498 0
20.060000 0.021130 0
20.065000 0.040907 0
20.070000 0.060746 0
20.075000 0.081908 0
20.080000 0.104774 0
20.085000 0.129329 0
20.090000 0.155380 0
20.095000 0.182626 0
20.100000 0.210683 0
20.105000 0.239095 0
20.110000 0.267343 0
20.115000 0.294856 0
20.120000 0.321035 0
20.125000 0.345268 0
20.130000 0.366955 0
20.135000 0.385534 0
20.140000 0.400500 0
20.145000 0.411431 0
20.150000 0.418004 0
20.155000 0.420016 5
20.160000 0.417385 0
20.165000 0.410161 0
20.170000 0.398521 0
20.175000 0.382765 0
20.180000 0.363296 0
20.185000 0.340608 0
20.190000 0.315263 0
20.195000 0.287866 0
20.200000 0.259044 0
20.205000 0.229419 0
20.210000 0.199587 0
20.215000 0.170100 0
20.220000 0.141448 0
20.225000 0.114052 0
20.230000 0.088251 0
20.235000 0.064304 0
20.240000 0.042390 0
20.245000 0.022611 0
20.250000 0.004998 0
20.255000 -0.010474 0
20.260000 -0.023883 0
20.265000 -0.035346 0
20.270000 -0.045007 0
20.275000 -0.053029 0
20.280000 -0.059587 0
20.285000 -0.064855 0
20.290000 -0.069003 0
20.295000 -0.072196 0
20.300000 -0.074582 0
20.305000 -0.076296 0
20.310000 -0.077460 0
20.315000 -0.078178 0
20.320000 -0.078538 0
20.325000 -0.078488 0
20.330000 -0.077682 0
20.335000 -0.076881 0
20.340000 -0.076084 0
20.345000 -0.075290 0
20.350000 -0.074501 0
20.355000 -0.073715 0
20.360000 -0.072934 0
20.365000 -0.072156 0
20.370000 -0.071382 0
20.375000 -0.070612 0
20.380000 -0.069845 0
20.385000 -0.069080 0
20.390000 -0.068318 0
20.395000 -0.067555 0
20.400000 -0.066789 0
20.405000 -0.066014 0
20.410000 -0.065219 0
20.415000 -0.064387 0
20.420000 -0.063491 0
20.425000 -0.062489 0
20.430000 -0.061316 0
20.435000 -0.059877 0
20.440000 -0.058039 0
20.445000 -0.055621 0
20.450000 -0.052385 0
20.455000 -0.048034 0
20.460000 -0.042215 0
20.465000 -0.034529 0
20.470000 -0.024559 0
20.475000 -0.011908 0
20.480000 0.003748 0
20.485000 0.022596 0
20.490000 0.044621 0
20.495000 0.069540 0
20.500000 0.096768 0
20.505000 0.125392 0
20.510000 0.154208 0
20.515000 0.181782 0
20.520000 0.206561 0
20.525000 0.227013 0
20.530000 0.241785 0
20.535000 0.249847 0
20.540000 0.250609 1
20.545000 0.243995 0
20.550000 0.230450 0
20.555000 0.210892 0
20.560000 0.186608 0
20.565000 0.159111 0
20.570000 0.129984 0
20.575000 0.100714 0
20.580000 0.072517 0
20.585000 0.046105 0
20.590000 0.021312 0
20.595000 -0.003420 0
20.600000 -0.031354 0
20.605000 -0.066730 0
20.610000 -0.112094 0
20.615000 -0.164055 0
20.620000 -0.209959 0
20.625000 -0.228491 2
20.630000 -0.194458 0
20.635000 -0.085061 0
20.640000 0.113141 0
20.645000 0.393333 0
20.650000 0.714446 0
20.655000 0.997780 0
20.660000 1.151160 3
20.665000 1.118623 0
20.670000 0.909221 0
20.675000 0.589646 0
20.680000 0.248287 0
20.685000 -0.043367 0
20.690000 -0.246989 0
20.695000 -0.353408 0
20.700000 -0.373484 4
20.705000 -0.331410 0
20.710000 -0.257782 0
20.715000 -0.180314 0
20.720000 -0.116076 0
20.725000 -0.069824 0
20.730000 -0.038071 0
20.735000 -0.014693 0
20.740000 0.005411 0
20.745000 0.025281 0
20.750000 0.046311 0
20.755000 0.068969 0
20.760000 0.093294 0
20.765000 0.119133 0
20.770000 0.146222 0
20.775000 0.174216 0
20.780000 0.202702 0
20.785000 0.231203 0
20.790000 0.259193 0
20.795000 0.286108 0
20.800000 0.311370 0
20.805000 0.334399 0
20.810000 0.354642 0
20.815000 0.371589 0
20.820000 0.384796 0
20.825000 0.393907 0
20.830000 0.398663 0
20.835000 0.398919 5
20.840000 0.394648 0
20.845000 0.385946 0
20.850000 0.373023 0
20.855000 0.356198 0
20.860000 0.335884 0
20.865000 0.312573 0
20.870000 0.286811 0
20.875000 0.259184 0
20.880000 0.230287 0
20.885000 0.200710 0
20.890000 0.171015 0
20.895000 0.141721 0
20.900000 0.113288 0
20.905000 0.086109 0
20.910000 0.060503 0
20.915000 0.036714 0
20.920000 0.014909 0
20.925000 -0.004812 0
20.930000 -0.022418 0
20.935000 -0.037930 0
20.940000 -0.051419 0
20.945000 -0.062992 0
20.950000 -0.072785 0
20.955000 -0.080950 0
20.960000 -0.087652 0
20.965000 -0.093059 0
20.970000 -0.097333 0
20.975000 -0.100633 0
20.980000 -0.103104 0
20.985000 -0.104881 0
20.990000 -0.106083 0
20.995000 -0.106814 0
21.000000 -0.107164 0
21.005000 -0.107211 0
21.010000 -0.106407 0
21.015000 -0.105462 0
21.020000 -0.104522 0
21.025000 -0.103587 0
21.030000 -0.102657 0
21.035000 -0.101731 0
21.040000 -0.100809 0
21.045000 -0.099893 0
21.050000 -0.098980 0
21.055000 -0.098073 0
21.060000 -0.097169 0
21.065000 -0.096269 0
21.070000 -0.095373 0
21.075000 -0.094479 0
21.080000 -0.093584 0
21.085000 -0.092687 0
21.090000 -0.091779 0
21.095000 -0.090851 0
21.100000 -0.089886 0
21.105000 -0.088856 0
21.110000 -0.087719 0
21.115000 -0.086413 0
21.120000 -0.084846 0
21.125000 -0.082891 0
21.130000 -0.080376 0
21.135000 -0.077078 0
21.140000 -0.072718 0
21.145000 -0.066963 0
21.150000 -0.059438 0
21.155000 -0.049747 0
21.160000 -0.037506 0
21.165000 -0.022389 0
21.170000 -0.004185 0
21.175000 0.017141 0
21.180000 0.041393 0
21.185000 0.068095 0
21.190000 0.096475 0
21.195000 0.125474 0
21.200000 0.153792 0
21.205000 0.179980 0
21.210000 0.202554 0
21.215000 0.220136 0
21.220000 0.231589 0
21.225000 0.236139 1
21.230000 0.233464 0
21.235000 0.223729 0
21.240000 0.207572 0
21.245000 0.186030 0
21.250000 0.160433 0
21.255000 0.132266 0
21.260000 0.103022 0
21.265000 0.074054 0
21.270000 0.046402 0
21.275000 0.020559 0
21.280000 -0.003920 0
21.285000 -0.028880 0
21.290000 -0.057730 0
21.295000 -0.094478 0
21.300000 -0.140976 0
21.305000 -0.192979 0
21.310000 -0.237447 0
21.315000 -0.253548 2
21.320000 -0.217239 0
21.325000 -0.106972 0
21.330000 0.089972 0
21.335000 0.367584 0
21.340000 0.688278 0
21.345000 0.978945 0
21.350000 1.151076 3
21.355000 1.140538 0
21.360000 0.946601 0
21.365000 0.633049 0
21.370000 0.290515 0
21.375000 -0.005398 0
21.380000 -0.213267 0
21.385000 -0.322535 0
21.390000 -0.343864 4
21.395000 -0.301965 0
21.400000 -0.228277 0
21.405000 -0.151170 0
21.410000 -0.087824 0
21.415000 -0.042670 0
21.420000 -0.011839 0
21.425000 0.010971 0
21.430000 0.030833 0
21.435000 0.050675 0
21.440000 0.071788 0
21.445000 0.094577 0
21.450000 0.119046 0
21.455000 0.145014 0
21.460000 0.172195 0
21.465000 0.200221 0
21.470000 0.228653 0
21.475000 0.256987 0
21.480000 0.284673 0
21.485000 0.311125 0
21.490000 0.335745 0
21.495000 0.357942 0
21.500000 0.377158 0
21.505000 0.392886 0
21.510000 0.404695 0
21.515000 0.412250 0
21.520000 0.415323 5
21.525000 0.413809 0
21.530000 0.407727 0
21.535000 0.397219 0
21.540000 0.382550 0
21.545000 0.364089 0
21.550000 0.342297 0
21.555000 0.317709 0
21.560000 0.290907 0
21.565000 0.262500 0
21.570000 0.233102 0
21.575000 0.203308 0
21.580000 0.173674 0
21.585000 0.144703 0
21.590000 0.116832 0
21.595000 0.090424 0
21.600000 0.065763 0
21.605000 0.043054 0
21.610000 0.022426 0
21.615000 0.003938 0
21.620000 -0.012414 0
21.625000 -0.026684 0
21.630000 -0.038972 0
21.635000 -0.049408 0
21.640000 -0.058145 0
21.645000 -0.065348 0
21.650000 -0.071190 0
21.655000 -0.075841 0
21.660000 -0.079464 0
21.665000 -0.082213 0
21.670000 -0.084229 0
21.675000 -0.085637 0
21.680000 -0.086548 0
21.685000 -0.087058 0
21.690000 -0.087248 0
21.695000 -0.087072 0
21.700000 -0.086224 0
21.705000 -0.085380 0
21.710000 -0.084540 0
21.715000 -0.083705 0
21.720000 -0.082873 0
21.725000 -0.082046 0
21.730000 -0.081223 0
21.735000 -0.080404 0
21.740000 -0.079589 0
21.745000 -0.078777 0
21.750000 -0.077969 0
21.755000 -0.077164 0
21.760000 -0.076360 0
21.765000 -0.075556 0
21.770000 -0.074748 0
21.775000 -0.073928 0
21.780000 -0.073086 0
21.785000 -0.072202 0
21.790000 -0.071249 0
21.795000 -0.070178 0
21.800000 -0.068923 0
21.805000 -0.067385 0
21.810000 -0.065424 0
21.815000 -0.062854 0
21.820000 -0.059435 0
21.825000 -0.054865 0
21.830000 -0.048793 0
21.835000 -0.040824 0
21.840000 -0.030549 0
21.845000 -0.017584 0
21.850000 -0.001623 0
21.855000 0.017503 0
21.860000 0.039761 0
21.865000 0.064857 0
21.870000 0.092199 0
21.875000 0.120880 0
21.880000 0.149711 0
21.885000 0.177284 0
21.890000 0.202076 0
21.895000 0.222589 0
21.900000 0.237495 0
21.905000 0.245778 0
21.910000 0.246848 1
21.915000 0.240610 0
21.920000 0.227476 0
21.925000 0.208321 0
21.930000 0.184384 0
21.935000 0.157135 0
21.940000 0.128126 0
21.945000 0.098829 0
21.950000 0.070476 0
21.955000 0.043842 0
21.960000 0.018905 0
21.965000 -0.005633 0
21.970000 -0.032721 0
21.975000 -0.066481 0
21.980000 -0.109984 0
21.985000 -0.161310 0
21.990000 -0.209944 0
21.995000 -0.236470 2
22.000000 -0.216510 0
22.005000 -0.126653 0
22.010000 0.049216 0
22.015000 0.310649 0
22.020000 0.627183 0
22.025000 0.930567 0
22.030000 1.130036 0
22.035000 1.153395 3
22.040000 0.989899 0
22.045000 0.694624 0
22.050000 0.350999 0
22.055000 0.036200 0
22.060000 -0.201646 0
22.065000 -0.344639 0
22.070000 -0.396822 4
22.075000 -0.377071 0
22.080000 -0.313291 0
22.085000 -0.234561 0
22.090000 -0.162625 0
22.095000 -0.107464 0
22.100000 -0.068922 0
22.105000 -0.041776 0
22.110000 -0.020311 0
22.115000 -0.000498 0
22.120000 0.019817 0
22.125000 0.041530 0
22.130000 0.064886 0
22.135000 0.089837 0
22.140000 0.116191 0
22.145000 0.143666 0
22.150000 0.171909 0
22.155000 0.200501 0
22.160000 0.228970 0
22.165000 0.256798 0
22.170000 0.283437 0
22.175000 0.308328 0
22.180000 0.330918 0
22.185000 0.350678 0
22.190000 0.367129 0
22.195000 0.379855 0
22.200000 0.388524 0
22.205000 0.392899 5
22.210000 0.392851 0
22.215000 0.388365 0
22.220000 0.379536 0
22.225000 0.366574 0
22.230000 0.349787 0
22.235000 0.329573 0
22.240000 0.306405 0
22.245000 0.280807 0
22.250000 0.253341 0
22.255000 0.224582 0
22.260000 0.195098 0
22.265000 0.165435 0
22.270000 0.136098 0
22.275000 0.107540 0
22.280000 0.080151 0
22.285000 0.054251 0
22.290000 0.030090 0
22.295000 0.007847 0
22.300000 -0.012369 0
22.305000 -0.030511 0
22.310000 -0.046585 0
22.315000 -0.060647 0
22.320000 -0.072790 0
22.325000 -0.083136 0
22.330000 -0.091828 0
22.335000 -0.099021 0
22.340000 -0.104875 0
22.345000 -0.109551 0
22.350000 -0.113204 0
22.355000 -0.115978 0
22.360000 -0.118010 0
22.365000 -0.119421 0
22.370000 -0.120319 0
22.375000 -0.120798 0
22.380000 -0.120939 0
22.385000 -0.120811 0
22.390000 -0.119924 0
22.395000 -0.118912 0
22.400000 -0.117905 0
22.405000 -0.116903 0
22.410000 -0.115906 0
22.415000 -0.114914 0
22.420000 -0.113927 0
22.425000 -0.112944 0
22.430000 -0.111967 0
22.435000 -0.110994 0
22.440000 -0.110026 0
22.445000 -0.109062 0
22.450000 -0.108102 0
22.455000 -0.107143 0
22.460000 -0.106185 0
22.465000 -0.105224 0
22.470000 -0.104252 0
22.475000 -0.103259 0
22.480000 -0.102229 0
22.485000 -0.101134 0
22.490000 -0.099933 0
22.495000 -0.098565 0
22.500000 -0.096943 0
22.505000 -0.094945 0
22.510000 -0.092407 0
22.515000 -0.089117 0
22.520000 -0.084810 0
22.525000 -0.079171 0
22.530000 -0.071843 0
22.535000 -0.062445 0
22.540000 -0.050602 0
22.545000 -0.035988 0
22.550000 -0.018376 0
22.555000 0.002308 0
22.560000 0.025929 0
22.565000 0.052098 0
22.570000 0.080146 0
22.575000 0.109126 0
22.580000 0.137851 0
22.585000 0.164958 0
22.590000 0.189016 0
22.595000 0.208647 0
22.600000 0.222651 0
22.605000 0.230137 0
22.610000 0.230608 1
22.615000 0.224021 0
22.620000 0.210789 0
22.625000 0.191745 0
22.630000 0.168047 0
22.635000 0.141069 0
22.640000 0.112261 0
22.645000 0.083020 0
22.650000 0.054538 0
22.655000 0.027634 0
22.660000 0.002474 0
22.665000 -0.021831 0
22.670000 -0.047623 0
22.675000 -0.078573 0
22.680000 -0.118257 0
22.685000 -0.167083 0
22.690000 -0.218684 0
22.695000 -0.258215 0
22.700000 -0.264329 2
22.705000 -0.213923 0
22.710000 -0.087460 0
22.715000 0.124762 0
22.720000 0.412569 0
22.725000 0.734265 0
22.730000 1.015575 0
22.735000 1.171785 3
22.740000 1.146420 0
22.745000 0.942850 0
22.750000 0.625890 0
22.755000 0.283684 0
22.760000 -0.011252 0
22.765000 -0.219257 0
22.770000 -0.330103 0
22.775000 -0.353874 4
22.780000 -0.314213 0
22.785000 -0.241532 0
22.790000 -0.163837 0
22.795000 -0.098795 0
22.800000 -0.051723 0
22.805000 -0.019432 0
22.810000 0.004161 0
22.815000 0.024252 0
22.820000 0.043985 0
22.825000 0.064826 0
22.830000 0.087281 0
22.835000 0.111406 0
22.840000 0.137057 0
22.845000 0.163976 0
22.850000 0.191824 0
22.855000 0.220194 0
22.860000 0.248613 0
22.865000 0.276560 0
22.870000 0.303476 0
22.875000 0.328782 0
22.880000 0.351901 0
22.885000 0.372278 0
22.890000 0.389401 0
22.895000 0.402821 0
22.900000 0.412175 0
22.905000 0.417196 0
22.910000 0.417732 5
22.915000 0.413745 0
22.920000 0.405320 0
22.925000 0.392658 0
22.930000 0.376068 0
22.935000 0.355954 0
22.940000 0.332801 0
22.945000 0.307151 0
22.950000 0.279582 0
22.955000 0.250691 0
22.960000 0.221066 0
22.965000 0.191272 0
22.970000 0.161831 0
22.975000 0.133207 0
22.980000 0.105801 0
22.985000 0.079937 0
22.990000 0.055867 0
22.995000 0.033766 0
23.000000 0.013738 0
23.005000 -0.004177 0
23.010000 -0.019995 0
23.015000 -0.033784 0
23.020000 -0.045645 0
23.025000 -0.055711 0
23.030000 -0.064133 0
23.035000 -0.071075 0
23.040000 -0.076702 0
23.045000 -0.081180 0
23.050000 -0.084666 0
23.055000 -0.087308 0
23.060000 -0.089240 0
23.065000 -0.090584 0
23.070000 -0.091445 0
23.075000 -0.091915 0
23.080000 -0.092073 0
23.085000 -0.091870 0
23.090000 -0.090998 0
23.095000 -0.090130 0
23.100000 -0.089267 0
23.105000 -0.088408 0
23.110000 -0.087553 0
23.115000 -0.086702 0
23.120000 -0.085856 0
23.125000 -0.085013 0
23.130000 -0.084175 0
23.135000 -0.083341 0
23.140000 -0.082510 0
23.145000 -0.081683 0
23.150000 -0.080857 0
23.155000 -0.080032 0
23.160000 -0.079203 0
23.165000 -0.078366 0
23.170000 -0.077509 0
23.175000 -0.076619 0
23.180000 -0.075668 0
23.185000 -0.074617 0
23.190000 -0.073409 0
23.195000 -0.071956 0
23.200000 -0.070138 0
23.205000 -0.067792 0
23.210000 -0.064702 0
23.215000 -0.060600 0
23.220000 -0.055163 0
23.225000 -0.048021 0
23.230000 -0.038782 0
23.235000 -0.027057 0
23.240000 -0.012507 0
23.245000 0.005100 0
23.250000 0.025836 0
23.255000 0.049545 0
23.260000 0.075805 0
23.265000 0.103897 0
23.270000 0.132813 0
23.275000 0.161293 0
23.280000 0.187911 0
23.285000 0.211183 0
23.290000 0.229705 0
23.295000 0.242289 0
23.300000 0.248090 1
23.305000 0.246698 0
23.310000 0.238190 0
23.315000 0.223114 0
23.320000 0.202438 0
23.325000 0.177445 0
23.330000 0.149595 0
23.335000 0.120389 0
23.340000 0.091214 0
23.345000 0.063186 0
23.350000 0.036927 0
23.355000 0.012216 0
23.360000 -0.012477 0
23.365000 -0.040266 0
23.370000 -0.075193 0
23.375000 -0.119844 0
23.380000 -0.171534 0
23.385000 -0.219117 0
23.390000 -0.243137 2
23.395000 -0.219811 0
23.400000 -0.126653 0
23.405000 0.051535 0
23.410000 0.313791 0
23.415000 0.630250 0
23.420000 0.934869 0
23.425000 1.139608 0
23.430000 1.172876 3
23.435000 1.020449 0
23.440000 0.732255 0
23.445000 0.389315 0
23.450000 0.069204 0
23.455000 -0.177823 0
23.460000 -0.331505 0
23.465000 -0.393835 4
23.470000 -0.381909 0
23.475000 -0.322388 0
23.480000 -0.244229 0
23.485000 -0.170276 0
23.490000 -0.112161 0
23.495000 -0.071057 0
23.500000 -0.042311 0
23.505000 -0.020157 0
23.510000 -0.000261 0
23.515000 0.019821 0
23.520000 0.041169 0
23.525000 0.064126 0
23.530000 0.088690 0
23.535000 0.114697 0
23.540000 0.141892 0
23.545000 0.169944 0
23.550000 0.198458 0
23.555000 0.226983 0
23.560000 0.255021 0
23.565000 0.282041 0
23.570000 0.307497 0
23.575000 0.330839 0
23.580000 0.351540 0
23.585000 0.369112 0
23.590000 0.383121 0
23.595000 0.393214 0
23.600000 0.399122 0
23.605000 0.400681 5
23.610000 0.397834 0
23.615000 0.390633 0
23.620000 0.379243 0
23.625000 0.363928 0
23.630000 0.345046 0
23.635000 0.323034 0
23.640000 0.298387 0
23.645000 0.271644 0
23.650000 0.243366 0
23.655000 0.214118 0
23.660000 0.184447 0
23.665000 0.154870 0
23.670000 0.125858 0
23.675000 0.097824 0
23.680000 0.071118 0
23.685000 0.046021 0
23.690000 0.022742 0
23.695000 0.001425 0
23.700000 -0.017853 0
23.705000 -0.035071 0
23.710000 -0.050258 0
23.715000 -0.063487 0
23.720000 -0.074863 0
23.725000 -0.084514 0
23.730000 -0.092588 0
23.735000 -0.099239 0
23.740000 -0.104626 0
23.745000 -0.108905 0
23.750000 -0.112225 0
23.755000 -0.114726 0
23.760000 -0.116535 0
23.765000 -0.117767 0
23.770000 -0.118524 0
23.775000 -0.118894 0
23.780000 -0.118953 0
23.785000 -0.118644 0
23.790000 -0.117639 0
23.795000 -0.116638 0
23.800000 -0.115643 0
23.805000 -0.114652 0
23.810000 -0.113666 0
23.815000 -0.112685 0
23.820000 -0.111709 0
23.825000 -0.110738 0
23.830000 -0.109772 0
23.835000 -0.108810 0
23.840000 -0.107853 0
23.845000 -0.106899 0
23.850000 -0.105949 0
23.855000 -0.105001 0
23.860000 -0.104052 0
23.865000 -0.103099 0
23.870000 -0.102135 0
23.875000 -0.101148 0
23.880000 -0.100120 0
23.885000 -0.099024 0
23.890000 -0.097816 0
23.895000 -0.096435 0
23.900000 -0.094790 0
23.905000 -0.092758 0
23.910000 -0.090174 0
23.915000 -0.086825 0
23.920000 -0.082448 0
23.925000 -0.076729 0
23.930000 -0.069315 0
23.935000 -0.059833 0
23.940000 -0.047914 0
23.945000 -0.033243 0
23.950000 -0.015596 0
23.955000 0.005094 0
23.960000 0.028694 0
23.965000 0.054823 0
23.970000 0.082825 0
23.975000 0.111777 0
23.980000 0.140518 0
23.985000 0.167714 0
23.990000 0.191961 0
23.995000 0.211897 0
24.000000 0.226331 0
24.005000 0.234358 0
24.010000 0.235458 1
24.015000 0.229546 0
24.020000 0.216986 0
24.025000 0.198553 0
24.030000 0.175353 0
24.035000 0.148716 0
24.040000 0.120066 0
24.045000 0.090789 0
24.050000 0.062100 0
24.055000 0.034876 0
24.060000 0.009418 0
24.065000 -0.014928 0
24.070000 -0.040172 0
24.075000 -0.069724 0
24.080000 -0.107322 0
24.085000 -0.154361 0
24.090000 -0.206348 0
24.095000 -0.250614 0
24.100000 -0.267372 2
24.105000 -0.233858 0
24.110000 -0.129447 0
24.115000 0.058792 0
24.120000 0.327562 0
24.125000 0.645695 0
24.130000 0.948571 0
24.135000 1.152307 0
24.140000 1.189066 3
24.145000 1.041763 0
24.150000 0.754604 0
24.155000 0.411547 0
24.160000 0.092996 0
24.165000 -0.149743 0
24.170000 -0.296912 0
24.175000 -0.351859 4
24.180000 -0.333485 0
24.185000 -0.270183 0
24.190000 -0.191680 0
24.195000 -0.120159 0
24.200000 -0.065655 0
24.205000 -0.027828 0
24.210000 -0.001264 0
24.215000 0.019822 0
24.220000 0.039427 0
24.225000 0.059643 0
24.230000 0.081314 0
24.235000 0.104653 0
24.240000 0.129590 0
24.245000 0.155919 0
24.250000 0.183340 0
24.255000 0.211485 0
24.260000 0.239915 0
24.265000 0.268140 0
24.270000 0.295624 0
24.275000 0.321804 0
24.280000 0.346107 0
24.285000 0.367971 0
24.290000 0.386866 0
24.295000 0.402313 0
24.300000 0.413906 0
24.305000 0.421329 0
24.310000 0.424366 5
24.315000 0.422916 0
24.320000 0.416996 0
24.325000 0.406737 0
24.330000 0.392385 0
24.335000 0.374285 0
24.340000 0.352870 0
24.345000 0.328643 0
24.350000 0.302157 0
24.355000 0.273991 0
24.360000 0.244734 0
24.365000 0.214960 0
24.370000 0.185212 0
24.375000 0.155987 0
24.380000 0.127721 0
24.385000 0.100784 0
24.390000 0.075473 0
24.395000 0.052009 0
24.400000 0.030544 0
24.405000 0.011158 0
24.410000 -0.006128 0
24.415000 -0.021346 0
24.420000 -0.034574 0
24.425000 -0.045922 0
24.430000 -0.055527 0
24.435000 -0.063543 0
24.440000 -0.070132 0
24.445000 -0.075459 0
24.450000 -0.079684 0
24.455000 -0.082962 0
24.460000 -0.085434 0
24.465000 -0.087231 0
24.470000 -0.088468 0
24.475000 -0.089248 0
24.480000 -0.089657 0
24.485000 -0.089770 0
24.490000 -0.089050 0
24.495000 -0.088192 0
24.500000 -0.087338 0
24.505000 -0.086488 0
24.510000 -0.085643 0
24.515000 -0.084802 0
24.520000 -0.083965 0
24.525000 -0.083132 0
24.530000 -0.082304 0
24.535000 -0.081479 0
24.540000 -0.080658 0
24.545000 -0.079841 0
24.550000 -0.079027 0
24.555000 -0.078214 0
24.560000 -0.077401 0
24.565000 -0.076585 0
24.570000 -0.075758 0
24.575000 -0.074913 0
24.580000 -0.074031 0
24.585000 -0.073087 0
24.590000 -0.072040 0
24.595000 -0.070832 0
24.600000 -0.069376 0
24.605000 -0.067550 0
24.610000 -0.065191 0
24.615000 -0.062085 0
24.620000 -0.057964 0
24.625000 -0.052508 0
24.630000 -0.045354 0
24.635000 -0.036111 0
24.640000 -0.024398 0
24.645000 -0.009880 0
24.650000 0.007673 0
24.655000 0.028334 0
24.660000 0.051955 0
24.665000 0.078126 0
24.670000 0.106147 0
24.675000 0.135033 0
24.680000 0.163553 0
24.685000 0.190303 0
24.690000 0.213821 0
24.695000 0.232710 0
24.700000 0.245778 0
24.705000 0.252162 1
24.710000 0.251417 0
24.715000 0.243574 0
24.720000 0.229131 0
24.725000 0.209004 0
24.730000 0.184428 0
24.735000 0.156835 0
24.740000 0.127707 0
24.745000 0.098436 0
24.750000 0.070172 0
24.755000 0.043619 0
24.760000 0.018713 0
24.765000 -0.005821 0
24.770000 -0.032806 0
24.775000 -0.066191 0
24.780000 -0.109043 0
24.785000 -0.159974 0
24.790000 -0.209708 0
24.795000 -0.240452 2
24.800000 -0.229165 0
24.805000 -0.152914 0
24.810000 0.005468 0
24.815000 0.249652 0
24.820000 0.557876 0
24.825000 0.873202 0
24.830000 1.111224 0
24.835000 1.192926 3
24.840000 1.086536 0
24.845000 0.825604 0
24.850000 0.487994 0
24.855000 0.157175 0
24.860000 -0.108040 0
24.865000 -0.280817 0
24.870000 -0.359318 4
24.875000 -0.358627 0
24.880000 -0.304858 0
24.885000 -0.227929 0
24.890000 -0.152642 0
24.895000 -0.092547 0
24.900000 -0.049931 0
24.905000 -0.020411 0
24.910000 0.001966 0
24.915000 0.021802 0
24.920000 0.041724 0
24.925000 0.062901 0
24.930000 0.085704 0
24.935000 0.110139 0
24.940000 0.136041 0
24.945000 0.163146 0
24.950000 0.191114 0
24.955000 0.219537 0
24.960000 0.247950 0
24.965000 0.275841 0
24.970000 0.302662 0
24.975000 0.327851 0
24.980000 0.350845 0
24.985000 0.371107 0
24.990000 0.388139 0
24.995000 0.401508 0
25.000000 0.410862 0
25.005000 0.415941 0
25.010000 0.416595 5
25.015000 0.412787 0
25.020000 0.404593 0
25.025000 0.392204 0
25.030000 0.375915 0
25.035000 0.356113 0
25.040000 0.333264 0
25.045000 0.307890 0
25.050000 0.280553 0
25.055000 0.251831 0
25.060000 0.222301 0
25.065000 0.192516 0
25.070000 0.162994 0
25.075000 0.134197 0
25.080000 0.106528 0
25.085000 0.080319 0
25.090000 0.055831 0
25.095000 0.033251 0
25.100000 0.012699 0
25.105000 -0.005772 0
25.110000 -0.022163 0
25.115000 -0.036527 0
25.120000 -0.048953 0
25.125000 -0.059562 0
25.130000 -0.068497 0
25.135000 -0.075914 0
25.140000 -0.081974 0
25.145000 -0.086838 0
25.150000 -0.090664 0
25.155000 -0.093599 0
25.160000 -0.095781 0
25.165000 -0.097331 0
25.170000 -0.098361 0
25.175000 -0.098966 0
25.180000 -0.099228 0
25.185000 -0.099217 0
25.190000 -0.098438 0
25.195000 -0.097533 0
25.200000 -0.096633 0
25.205000 -0.095737 0
25.210000 -0.094845 0
25.215000 -0.093958 0
25.220000 -0.093076 0
25.225000 -0.092198 0
25.230000 -0.091324 0
25.235000 -0.090454 0
25.240000 -0.089588 0
25.245000 -0.088726 0
25.250000 -0.087867 0
25.255000 -0.087010 0
25.260000 -0.086152 0
25.265000 -0.085290 0
25.270000 -0.084416 0
25.275000 -0.083521 0
25.280000 -0.082587 0
25.285000 -0.081585 0
25.290000 -0.080474 0
25.295000 -0.079191 0
25.300000 -0.077645 0
25.305000 -0.075712 0
25.310000 -0.073223 0
25.315000 -0.069959 0
25.320000 -0.065652 0
25.325000 -0.059977 0
25.330000 -0.052572 0
25.335000 -0.043053 0
25.340000 -0.031045 0
25.345000 -0.016225 0
25.350000 0.001623 0
25.355000 0.022554 0
25.360000 0.046404 0
25.365000 0.072749 0
25.370000 0.100882 0
25.375000 0.129815 0
25.380000 0.158322 0
25.385000 0.185015 0
25.390000 0.208450 0
25.395000 0.227253 0
25.400000 0.240255 0
25.405000 0.246608 1
25.410000 0.245879 0
25.415000 0.238099 0
25.420000 0.223757 0
25.425000 0.203753 0
25.430000 0.179301 0
25.435000 0.151810 0
25.440000 0.122744 0
25.445000 0.093483 0
25.450000 0.065177 0
25.455000 0.038548 0
25.460000 0.013591 0
25.465000 -0.010858 0
25.470000 -0.037475 0
25.475000 -0.070118 0
25.480000 -0.112016 0
25.485000 -0.162378 0
25.490000 -0.212919 0
25.495000 -0.246880 2
25.500000 -0.241855 0
25.505000 -0.174912 0
25.510000 -0.028042 0
25.515000 0.204764 0
25.520000 0.506336 0
25.525000 0.825687 0
25.530000 1.082111 0
25.535000 1.193841 3
25.540000 1.118279 0
25.545000 0.876700 0
25.550000 0.544492 0
25.555000 0.209003 0
25.560000 -0.065236 0
25.565000 -0.247205 0
25.570000 -0.332950 0
25.575000 -0.336823 4
25.580000 -0.285143 0
25.585000 -0.208696 0
25.590000 -0.133318 0
25.595000 -0.073220 0
25.600000 -0.030835 0
25.605000 -0.001635 0
25.610000 0.020489 0
25.615000 0.040196 0
25.620000 0.060095 0
25.625000 0.081316 0
25.630000 0.104200 0
25.635000 0.128731 0
25.640000 0.154724 0
25.645000 0.181898 0
25.650000 0.209893 0
25.655000 0.238278 0
25.660000 0.266567 0
25.665000 0.294223 0
25.670000 0.320678 0
25.675000 0.345351 0
25.680000 0.367667 0
25.685000 0.387081 0
25.690000 0.403095 0
25.695000 0.415285 0
25.700000 0.423312 0
25.705000 0.426944 5
25.710000 0.426061 0
25.715000 0.420664 0
25.720000 0.410872 0
25.725000 0.396922 0
25.730000 0.379155 0
25.735000 0.358002 0
25.740000 0.333969 0
25.745000 0.307613 0
25.750000 0.279522 0
25.755000 0.250294 0
25.760000 0.220512 0
25.765000 0.190732 0
25.770000 0.161458 0
25.775000 0.133139 0
25.780000 0.106150 0
25.785000 0.080794 0
25.790000 0.057299 0
25.795000 0.035817 0
25.800000 0.016430 0
25.805000 -0.000841 0
25.810000 -0.016030 0
25.815000 -0.029216 0
25.820000 -0.040513 0
25.825000 -0.050061 0
25.830000 -0.058017 0
25.835000 -0.064545 0
25.840000 -0.069813 0
25.845000 -0.073984 0
25.850000 -0.077212 0
25.855000 -0.079642 0
25.860000 -0.081403 0
25.865000 -0.082613 0
25.870000 -0.083372 0
25.875000 -0.083769 0
25.880000 -0.083876 0
25.885000 -0.083179 0
25.890000 -0.082350 0
25.895000 -0.081526 0
25.900000 -0.080705 0
25.905000 -0.079889 0
25.910000 -0.079077 0
25.915000 -0.078268 0
25.920000 -0.077464 0
25.925000 -0.076663 0
25.930000 -0.075867 0
25.935000 -0.075074 0
25.940000 -0.074284 0
25.945000 -0.073497 0
25.950000 -0.072711 0
25.955000 -0.071924 0
25.960000 -0.071132 0
25.965000 -0.070328 0
25.970000 -0.069500 0
25.975000 -0.068629 0
25.980000 -0.067685 0
25.985000 -0.066622 0
25.990000 -0.065373 0
25.995000 -0.063838 0
26.000000 -0.061883 0
26.005000 -0.059324 0
26.010000 -0.055926 0
26.015000 -0.051400 0
26.020000 -0.045401 0
26.025000 -0.037549 0
26.030000 -0.027446 0
26.035000 -0.014717 0
26.040000 0.000946 0
26.045000 0.019719 0
26.050000 0.041594 0
26.055000 0.066318 0
26.060000 0.093354 0
26.065000 0.121866 0
26.070000 0.150739 0
26.075000 0.178635 0
26.080000 0.204085 0
26.085000 0.225618 0
26.090000 0.241894 0
26.095000 0.251844 0
26.100000 0.254785 1
26.105000 0.250497 0
26.110000 0.239247 0
26.115000 0.221765 0
26.120000 0.199159 0
26.125000 0.172804 0
26.130000 0.144198 0
26.135000 0.114817 0
26.140000 0.085963 0
26.145000 0.058587 0
26.150000 0.033018 0
26.155000 0.008557 0
26.160000 -0.016979 0
26.165000 -0.047258 0
26.170000 -0.086126 0
26.175000 -0.134487 0
26.180000 -0.186382 0
26.185000 -0.226915 0
26.190000 -0.234133 2
26.195000 -0.184048 0
26.200000 -0.056373 0
26.205000 0.158685 0
26.210000 0.449548 0
26.215000 0.770932 0
26.220000 1.043937 0
26.225000 1.181775 3
26.230000 1.132196 0
26.235000 0.907991 0
26.240000 0.581556 0
26.245000 0.242995 0
26.250000 -0.038377 0
26.255000 -0.227856 0
26.260000 -0.319594 0
26.265000 -0.327265 4
26.270000 -0.277318 0
26.275000 -0.201250 0
26.280000 -0.125762 0
26.285000 -0.065624 0
26.290000 -0.023391 0
26.295000 0.005587 0
26.300000 0.027547 0
26.305000 0.047193 0
26.310000 0.067117 0
26.315000 0.088417 0
26.320000 0.111410 0
26.325000 0.136058 0
26.330000 0.162164 0
26.335000 0.189431 0
26.340000 0.217480 0
26.345000 0.245864 0
26.350000 0.274076 0
26.355000 0.301559 0
26.360000 0.327730 0
26.365000 0.351993 0
26.370000 0.373763 0
26.375000 0.392488 0
26.380000 0.407674 0
26.385000 0.418903 0
26.390000 0.425855 0
26.395000 0.428317 5
26.400000 0.426198 0
26.405000 0.419532 0
26.410000 0.408477 0
26.415000 0.393306 0
26.420000 0.374399 0
26.425000 0.352225 0
26.430000 0.327319 0
26.435000 0.300267 0
26.440000 0.271675 0
26.445000 0.242154 0
26.450000 0.212293 0
26.455000 0.182641 0
26.460000 0.153693 0
26.465000 0.125878 0
26.470000 0.099550 0
26.475000 0.074985 0
26.480000 0.052381 0
26.485000 0.031860 0
26.490000 0.013477 0
26.495000 -0.002777 0
26.500000 -0.016960 0
26.505000 -0.029173 0
26.510000 -0.039548 0
26.515000 -0.048236 0
26.520000 -0.055406 0
26.525000 -0.061227 0
26.530000 -0.065868 0
26.535000 -0.069493 0
26.540000 -0.072253 0
26.545000 -0.074287 0
26.550000 -0.075721 0
26.555000 -0.076663 0
26.560000 -0.077208 0
26.565000 -0.077436 0
26.570000 -0.077302 0
26.575000 -0.076503 0
26.580000 -0.075707 0
26.585000 -0.074916 0
26.590000 -0.074128 0
26.595000 -0.073345 0
26.600000 -0.072565 0
26.605000 -0.071789 0
26.610000 -0.071017 0
26.615000 -0.070248 0
26.620000 -0.069484 0
26.625000 -0.068722 0
26.630000 -0.067963 0
26.635000 -0.067205 0
26.640000 -0.066447 0
26.645000 -0.065683 0
26.650000 -0.064909 0
26.655000 -0.064112 0
26.660000 -0.063274 0
26.665000 -0.062366 0
26.670000 -0.061342 0
26.675000 -0.060135 0
26.680000 -0.058646 0
26.685000 -0.056739 0
26.690000 -0.054230 0
26.695000 -0.050878 0
26.700000 -0.046388 0
26.705000 -0.040410 0
26.710000 -0.032551 0
26.715000 -0.022406 0
26.720000 -0.009591 0
26.725000 0.006204 0
26.730000 0.025154 0
26.735000 0.047234 0
26.740000 0.072165 0
26.745000 0.099372 0
26.750000 0.127968 0
26.755000 0.156783 0
26.760000 0.184423 0
26.765000 0.209379 0
26.770000 0.230152 0
26.775000 0.245407 0
26.780000 0.254109 0
26.785000 0.255640 1
26.790000 0.249871 0
26.795000 0.237176 0
26.800000 0.218396 0
26.805000 0.194740 0
26.810000 0.167660 0
26.815000 0.138698 0
26.820000 0.109332 0
26.825000 0.080817 0
26.830000 0.053974 0
26.835000 0.028872 0
26.840000 0.004359 0
26.845000 -0.022343 0
26.850000 -0.055289 0
26.855000 -0.097799 0
26.860000 -0.148669 0
26.865000 -0.198424 0
26.870000 -0.228566 2
26.875000 -0.215095 0
26.880000 -0.134304 0
26.885000 0.031057 0
26.890000 0.283124 0
26.895000 0.595835 0
26.900000 0.905621 0
26.905000 1.123079 0
26.910000 1.171358 3
26.915000 1.029005 0
26.920000 0.742793 0
26.925000 0.399760 0
26.930000 0.083202 0
26.935000 -0.154631 0
26.940000 -0.294653 0
26.945000 -0.341735 4
26.950000 -0.316740 0
26.955000 -0.249821 0
26.960000 -0.171312 0
26.965000 -0.102460 0
26.970000 -0.051530 0
26.975000 -0.016690 0
26.980000 0.008089 0
26.985000 0.028483 0
26.990000 0.048103 0
26.995000 0.068690 0
27.000000 0.090876 0
27.005000 0.114765 0
27.010000 0.140225 0
27.015000 0.167004 0
27.020000 0.194762 0
27.025000 0.223084 0
27.030000 0.251492 0
27.035000 0.279449 0
27.040000 0.306385 0
27.045000 0.331705 0
27.050000 0.354815 0
27.055000 0.375146 0
27.060000 0.392170 0
27.065000 0.405430 0
27.070000 0.414555 0
27.075000 0.419277 0
27.080000 0.419446 5
27.085000 0.415033 0
27.090000 0.406137 0
27.095000 0.392975 0
27.100000 0.375878 0
27.105000 0.355273 0
27.110000 0.331667 0
27.115000 0.305624 0
27.120000 0.277744 0
27.125000 0.248639 0
27.130000 0.218911 0
27.135000 0.189131 0
27.140000 0.159823 0
27.145000 0.131450 0
27.150000 0.104402 0
27.155000 0.078994 0
27.160000 0.055462 0
27.165000 0.033964 0
27.170000 0.014585 0
27.175000 -0.002652 0
27.180000 -0.017784 0
27.185000 -0.030892 0
27.190000 -0.042094 0
27.195000 -0.051535 0
27.200000 -0.059375 0
27.205000 -0.065784 0
27.210000 -0.070933 0
27.215000 -0.074988 0
27.220000 -0.078108 0
27.225000 -0.080437 0
27.230000 -0.082107 0
27.235000 -0.083235 0
27.240000 -0.083923 0
27.245000 -0.084259 0
27.250000 -0.084314 0
27.255000 -0.083608 0
27.260000 -0.082777 0
27.265000 -0.081950 0
27.270000 -0.081127 0
27.275000 -0.080309 0
27.280000 -0.079494 0
27.285000 -0.078684 0
27.290000 -0.077878 0
27.295000 -0.077075 0
27.300000 -0.076276 0
27.305000 -0.075481 0
27.310000 -0.074689 0
27.315000 -0.073899 0
27.320000 -0.073110 0
27.325000 -0.072318 0
27.330000 -0.071518 0
27.335000 -0.070703 0
27.340000 -0.069856 0
27.345000 -0.068954 0
27.350000 -0.067960 0
27.355000 -0.066818 0
27.360000 -0.065444 0
27.365000 -0.063722 0
27.370000 -0.061489 0
27.375000 -0.058531 0
27.380000 -0.054580 0
27.385000 -0.049309 0
27.390000 -0.042341 0
27.395000 -0.033275 0
27.400000 -0.021709 0
27.405000 -0.007292 0
27.410000 0.010221 0
27.415000 0.030905 0
27.420000 0.054605 0
27.425000 0.080885 0
27.430000 0.109001 0
27.435000 0.137905 0
27.440000 0.166296 0
27.445000 0.192701 0
27.450000 0.215597 0
27.455000 0.233554 0
27.460000 0.245384 0
27.465000 0.250264 1
27.470000 0.247836 0
27.475000 0.238248 0
27.480000 0.222137 0
27.485000 0.200558 0
27.490000 0.174872 0
27.495000 0.146600 0
27.500000 0.117272 0
27.505000 0.088264 0
27.510000 0.060627 0
27.515000 0.034822 0
27.520000 0.010310 0
27.525000 -0.014929 0
27.530000 -0.044507 0
27.535000 -0.082457 0
27.540000 -0.130150 0
27.545000 -0.182166 0
27.550000 -0.223861 0
27.555000 -0.233037 2
27.560000 -0.185090 0
27.565000 -0.059029 0
27.570000 0.155449 0
27.575000 0.446627 0
27.580000 0.767875 0
27.585000 1.037935 0
27.590000 1.168425 3
27.595000 1.107965 0
27.600000 0.873175 0
27.605000 0.542023 0
27.610000 0.207186 0
27.615000 -0.063308 0
27.620000 -0.237913 0
27.625000 -0.314108 4
27.630000 -0.308750 0
27.635000 -0.250935 0
27.640000 -0.173111 0
27.645000 -0.100590 0
27.650000 -0.045359 0
27.655000 -0.007514 0
27.660000 0.018715 0
27.665000 0.039510 0
27.670000 0.059028 0
27.675000 0.079347 0
27.680000 0.101249 0
27.685000 0.124890 0
27.690000 0.150154 0
27.695000 0.176787 0
27.700000 0.204444 0
27.705000 0.232700 0
27.710000 0.261059 0
27.715000 0.288968 0
27.720000 0.315834 0
27.725000 0.341040 0
27.730000 0.363971 0
27.735000 0.384037 0
27.740000 0.400698 0
27.745000 0.413485 0
27.750000 0.422024 0
27.755000 0.426053 5
27.760000 0.425432 0
27.765000 0.420155 0
27.770000 0.410346 0
27.775000 0.396254 0
27.780000 0.378245 0
27.785000 0.356784 0
27.790000 0.332412 0
27.795000 0.305728 0
27.800000 0.277359 0
27.805000 0.247939 0
27.810000 0.218083 0
27.815000 0.188368 0
27.820000 0.159317 0
27.825000 0.131380 0
27.830000 0.104933 0
27.835000 0.080266 0
27.840000 0.057589 0
27.845000 0.037031 0
27.850000 0.018648 0
27.855000 0.002432 0
27.860000 -0.011679 0
27.865000 -0.023791 0
27.870000 -0.034043 0
27.875000 -0.042594 0
27.880000 -0.049618 0
27.885000 -0.055293 0
27.890000 -0.059792 0
27.895000 -0.063282 0
27.900000 -0.065921 0
27.905000 -0.067847 0
27.910000 -0.069189 0
27.915000 -0.070055 0
27.920000 -0.070539 0
27.925000 -0.070721 0
27.930000 -0.070091 0
27.935000 -0.069328 0
27.940000 -0.068568 0
27.945000 -0.067812 0
27.950000 -0.067060 0
27.955000 -0.066312 0
27.960000 -0.065567 0
27.965000 -0.064826 0
27.970000 -0.064088 0
27.975000 -0.063355 0
27.980000 -0.062624 0
27.985000 -0.061896 0
27.990000 -0.061170 0
27.995000 -0.060444 0
28.000000 -0.059715 0
28.005000 -0.058977 0
28.010000 -0.058222 0
28.015000 -0.057432 0
28.020000 -0.056583 0
28.025000 -0.055634 0
28.030000 -0.054523 0
28.035000 -0.053159 0
28.040000 -0.051413 0
28.045000 -0.049107 0
28.050000 -0.046008 0
28.055000 -0.041823 0
28.060000 -0.036199 0
28.065000 -0.028737 0
28.070000 -0.019016 0
28.075000 -0.006629 0
28.080000 0.008758 0
28.085000 0.027348 0
28.090000 0.049143 0
28.095000 0.073875 0
28.100000 0.100971 0
28.105000 0.129526 0
28.110000 0.158334 0
28.115000 0.185953 0
28.120000 0.210814 0
28.125000 0.231367 0
28.130000 0.246236 0
28.135000 0.254370 0
28.140000 0.255167 1
28.145000 0.248546 0
28.150000 0.234955 0
28.155000 0.215325 0
28.160000 0.190958 0
28.165000 0.163388 0
28.170000 0.134215 0
28.175000 0.104937 0
28.180000 0.076772 0
28.185000 0.050415 0
28.190000 0.025646 0
28.195000 0.000808 0
28.200000 -0.027485 0
28.205000 -0.063514 0
28.210000 -0.109590 0
28.215000 -0.161687 0
28.220000 -0.206245 0
28.225000 -0.221161 2
28.230000 -0.180919 0
28.235000 -0.063031 0
28.240000 0.144623 0
28.245000 0.432111 0
28.250000 0.753419 0
28.255000 1.025519 0
28.260000 1.156653 3
28.265000 1.095699 0
28.270000 0.862901 0
28.275000 0.533264 0
28.280000 0.196791 0
28.285000 -0.079092 0
28.290000 -0.261771 0
28.295000 -0.346960 0
28.300000 -0.349462 4
28.305000 -0.296454 0
28.310000 -0.219516 0
28.315000 -0.144721 0
28.320000 -0.085882 0
28.325000 -0.044790 0
28.330000 -0.016475 0
28.335000 0.005270 0
28.340000 0.024986 0
28.345000 0.045118 0
28.350000 0.066678 0
28.355000 0.089939 0
28.360000 0.114846 0
28.365000 0.141190 0
28.370000 0.168663 0
28.375000 0.196880 0
28.380000 0.225387 0
