0.000000 1.165314 3
0.005000 1.027739 0
0.010000 0.688200 0
0.015000 0.281207 0
0.020000 -0.069276 0
0.025000 -0.297303 0
0.030000 -0.390849 4
0.035000 -0.373260 0
0.040000 -0.288867 0
0.045000 -0.185678 0
0.050000 -0.096480 0
0.055000 -0.031406 0
0.060000 0.014888 0
0.065000 0.051673 0
0.070000 0.085499 0
0.075000 0.119261 0
0.080000 0.153577 0
0.085000 0.188061 0
0.090000 0.221958 0
0.095000 0.254377 0
0.100000 0.284383 0
0.105000 0.311048 0
0.110000 0.333499 0
0.115000 0.350970 0
0.120000 0.362837 0
0.125000 0.368663 5
0.130000 0.368215 0
0.135000 0.361488 0
0.140000 0.348696 0
0.145000 0.330271 0
0.150000 0.306828 0
0.155000 0.279137 0
0.160000 0.248080 0
0.165000 0.214600 0
0.170000 0.179658 0
0.175000 0.144187 0
0.180000 0.109050 0
0.185000 0.075010 0
0.190000 0.042708 0
0.195000 0.012644 0
0.200000 -0.014821 0
0.205000 -0.039463 0
0.210000 -0.061186 0
0.215000 -0.080003 0
0.220000 -0.096020 0
0.225000 -0.109412 0
0.230000 -0.120401 0
0.235000 -0.129243 0
0.240000 -0.136203 0
0.245000 -0.141547 0
0.250000 -0.145530 0
0.255000 -0.148385 0
0.260000 -0.147903 0
0.265000 -0.146856 0
0.270000 -0.145814 0
0.275000 -0.144776 0
0.280000 -0.143741 0
0.285000 -0.142707 0
0.290000 -0.141669 0
0.295000 -0.140617 0
0.300000 -0.139535 0
0.305000 -0.138394 0
0.310000 -0.137144 0
0.315000 -0.135703 0
0.320000 -0.133945 0
0.325000 -0.131679 0
0.330000 -0.128636 0
0.335000 -0.124447 0
0.340000 -0.118642 0
0.345000 -0.110655 0
0.350000 -0.099856 0
0.355000 -0.085612 0
0.360000 -0.067380 0
0.365000 -0.044825 0
0.370000 -0.017951 0
0.375000 0.012778 0
0.380000 0.046361 0
0.385000 0.081241 0
0.390000 0.115390 0
0.395000 0.146478 0
0.400000 0.172125 0
0.405000 0.190202 0
0.410000 0.199123 1
0.415000 0.198073 0
0.420000 0.187136 0
0.425000 0.167283 0
0.430000 0.140227 0
0.435000 0.108176 0
0.440000 0.073469 0
0.445000 0.038095 0
0.450000 0.002906 0
0.455000 -0.033473 0
0.460000 -0.075370 0
0.465000 -0.128391 0
0.470000 -0.193485 0
0.475000 -0.258834 0
0.480000 -0.296576 2
0.485000 -0.269018 0
0.490000 -0.140391 0
0.495000 0.109560 0
0.500000 0.464259 0
0.505000 0.845161 0
0.510000 1.118289 0
0.515000 1.161353 3
0.520000 0.949781 0
0.525000 0.574134 0
0.530000 0.173403 0
0.535000 -0.144545 0
0.540000 -0.332096 0
0.545000 -0.389470 4
0.550000 -0.347421 0
0.555000 -0.253112 0
0.560000 -0.151576 0
0.565000 -0.069036 0
0.570000 -0.010094 0
0.575000 0.032688 0
0.580000 0.068157 0
0.585000 0.101769 0
0.590000 0.135638 0
0.595000 0.170019 0
0.600000 0.204395 0
0.605000 0.237965 0
0.610000 0.269829 0
0.615000 0.299053 0
0.620000 0.324726 0
0.625000 0.346001 0
0.630000 0.362148 0
0.635000 0.372588 0
0.640000 0.376933 5
0.645000 0.375004 0
0.650000 0.366844 0
0.655000 0.352719 0
0.660000 0.333099 0
0.665000 0.308633 0
0.670000 0.280113 0
0.675000 0.248434 0
0.680000 0.214539 0
0.685000 0.179381 0
0.690000 0.143876 0
0.695000 0.108865 0
0.700000 0.075082 0
0.705000 0.043138 0
0.710000 0.013505 0
0.715000 -0.013485 0
0.720000 -0.037635 0
0.725000 -0.058869 0
0.730000 -0.077219 0
0.735000 -0.092803 0
0.740000 -0.105805 0
0.745000 -0.116452 0
0.750000 -0.125000 0
0.755000 -0.131715 0
0.760000 -0.136860 0
0.765000 -0.140685 0
0.770000 -0.143418 0
0.775000 -0.142939 0
0.780000 -0.141917 0
0.785000 -0.140899 0
0.790000 -0.139886 0
0.795000 -0.138875 0
0.800000 -0.137864 0
0.805000 -0.136848 0
0.810000 -0.135817 0
0.815000 -0.134754 0
0.820000 -0.133626 0
0.825000 -0.132382 0
0.830000 -0.130937 0
0.835000 -0.129158 0
0.840000 -0.126850 0
0.845000 -0.123734 0
0.850000 -0.119434 0
0.855000 -0.113475 0
0.860000 -0.105284 0
0.865000 -0.094234 0
0.870000 -0.079700 0
0.875000 -0.061154 0
0.880000 -0.038285 0
0.885000 -0.011128 0
0.890000 0.019818 0
0.895000 0.053518 0
0.900000 0.088393 0
0.905000 0.122400 0
0.910000 0.153214 0
0.915000 0.178476 0
0.920000 0.196093 0
0.925000 0.204522 1
0.930000 0.202997 0
0.935000 0.191640 0
0.940000 0.171451 0
0.945000 0.144157 0
0.950000 0.111960 0
0.955000 0.077187 0
0.960000 0.041790 0
0.965000 0.006579 0
0.970000 -0.029876 0
0.975000 -0.071924 0
0.980000 -0.125126 0
0.985000 -0.190322 0
0.990000 -0.255630 0
0.995000 -0.293279 2
1.000000 -0.265799 0
1.005000 -0.137638 0
1.010000 0.111437 0
1.015000 0.465334 0
1.020000 0.846704 0
1.025000 1.122809 0
1.030000 1.171105 3
1.035000 0.964309 0
1.040000 0.590709 0
1.045000 0.189118 0
1.050000 -0.131444 0
1.055000 -0.322113 0
1.060000 -0.382248 4
1.065000 -0.342037 0
1.070000 -0.248426 0
1.075000 -0.146699 0
1.080000 -0.063608 0
1.085000 -0.004191 0
1.090000 0.038840 0
1.095000 0.074373 0
1.100000 0.107959 0
1.105000 0.141778 0
1.110000 0.176116 0
1.115000 0.210466 0
1.120000 0.244035 0
1.125000 0.275922 0
1.130000 0.305196 0
1.135000 0.330943 0
1.140000 0.352317 0
1.145000 0.368583 0
1.150000 0.379158 0
1.155000 0.383648 5
1.160000 0.381867 0
1.165000 0.373855 0
1.170000 0.359867 0
1.175000 0.340370 0
1.180000 0.316007 0
1.185000 0.287566 0
1.190000 0.255937 0
1.195000 0.222065 0
1.200000 0.186901 0
1.205000 0.151362 0
1.210000 0.116291 0
1.215000 0.082426 0
1.220000 0.050383 0
1.225000 0.020636 0
1.230000 -0.006477 0
1.235000 -0.030755 0
1.240000 -0.052119 0
1.245000 -0.070597 0
1.250000 -0.086304 0
1.255000 -0.099422 0
1.260000 -0.110178 0
1.265000 -0.118826 0
1.270000 -0.125631 0
1.275000 -0.130858 0
1.280000 -0.134756 0
1.285000 -0.137555 0
1.290000 -0.137110 0
1.295000 -0.136117 0
1.300000 -0.135129 0
1.305000 -0.134144 0
1.310000 -0.133162 0
1.315000 -0.132180 0
1.320000 -0.131193 0
1.325000 -0.130191 0
1.330000 -0.129157 0
1.335000 -0.128061 0
1.340000 -0.126852 0
1.345000 -0.125445 0
1.350000 -0.123711 0
1.355000 -0.121456 0
1.360000 -0.118408 0
1.365000 -0.114194 0
1.370000 -0.108342 0
1.375000 -0.100286 0
1.380000 -0.089398 0
1.385000 -0.075052 0
1.390000 -0.056715 0
1.395000 -0.034063 0
1.400000 -0.007115 0
1.405000 0.023655 0
1.410000 0.057236 0
1.415000 0.092073 0
1.420000 0.126142 0
1.425000 0.157127 0
1.430000 0.182665 0
1.435000 0.200648 0
1.440000 0.209502 1
1.445000 0.208420 0
1.450000 0.197484 0
1.455000 0.177653 0
1.460000 0.150625 0
1.465000 0.118585 0
1.470000 0.083860 0
1.475000 0.048437 0
1.480000 0.013202 0
1.485000 -0.023137 0
1.490000 -0.064795 0
1.495000 -0.117372 0
1.500000 -0.182141 0
1.505000 -0.248010 0
1.510000 -0.287952 2
1.515000 -0.264747 0
1.520000 -0.142471 0
1.525000 0.100301 0
1.530000 0.450036 0
1.535000 0.832932 0
1.540000 1.118095 0
1.545000 1.180201 3
1.550000 0.985057 0
1.555000 0.615936 0
1.560000 0.213110 0
1.565000 -0.110905 0
1.570000 -0.304774 0
1.575000 -0.366912 4
1.580000 -0.327512 0
1.585000 -0.234061 0
1.590000 -0.132463 0
1.595000 -0.049728 0
1.600000 0.009238 0
1.605000 0.051918 0
1.610000 0.087265 0
1.615000 0.120780 0
1.620000 0.154570 0
1.625000 0.188870 0
1.630000 0.223143 0
1.635000 0.256575 0
1.640000 0.288249 0
1.645000 0.317220 0
1.650000 0.342566 0
1.655000 0.363436 0
1.660000 0.379097 0
1.665000 0.388979 0
1.670000 0.392701 5
1.675000 0.390103 0
1.680000 0.381250 0
1.685000 0.366432 0
1.690000 0.346146 0
1.695000 0.321069 0
1.700000 0.292018 0
1.705000 0.259908 0
1.710000 0.225699 0
1.715000 0.190353 0
1.720000 0.154791 0
1.725000 0.119847 0
1.730000 0.086250 0
1.735000 0.054593 0
1.740000 0.025331 0
1.745000 -0.001224 0
1.750000 -0.024898 0
1.755000 -0.045635 0
1.760000 -0.063487 0
1.765000 -0.078589 0
1.770000 -0.091138 0
1.775000 -0.101373 0
1.780000 -0.109555 0
1.785000 -0.115956 0
1.790000 -0.120839 0
1.795000 -0.124452 0
1.800000 -0.126511 0
1.805000 -0.125571 0
1.810000 -0.124636 0
1.815000 -0.123704 0
1.820000 -0.122776 0
1.825000 -0.121849 0
1.830000 -0.120921 0
1.835000 -0.119985 0
1.840000 -0.119029 0
1.845000 -0.118031 0
1.850000 -0.116954 0
1.855000 -0.115736 0
1.860000 -0.114276 0
1.865000 -0.112420 0
1.870000 -0.109942 0
1.875000 -0.106528 0
1.880000 -0.101760 0
1.885000 -0.095118 0
1.890000 -0.085995 0
1.895000 -0.073748 0
1.900000 -0.057768 0
1.905000 -0.037591 0
1.910000 -0.013028 0
1.915000 0.015709 0
1.920000 0.047896 0
1.925000 0.082249 0
1.930000 0.116951 0
1.935000 0.149783 0
1.940000 0.178337 0
1.945000 0.200308 0
1.950000 0.213793 0
1.955000 0.217567 1
1.960000 0.211265 0
1.965000 0.195442 0
1.970000 0.171489 0
1.975000 0.141428 0
1.980000 0.107601 0
1.985000 0.072254 0
1.990000 0.036898 0
1.995000 0.001336 0
2.000000 -0.037422 0
2.005000 -0.084895 0
2.010000 -0.145163 0
2.015000 -0.213005 0
2.020000 -0.267399 0
2.025000 -0.273501 2
2.030000 -0.192913 0
2.035000 0.003562 0
2.040000 0.318646 0
2.045000 0.702267 0
2.050000 1.038710 0
2.055000 1.188557 3
2.060000 1.076919 0
2.065000 0.750566 0
2.070000 0.343758 0
2.075000 -0.013219 0
2.080000 -0.248594 0
2.085000 -0.347547 4
2.090000 -0.332793 0
2.095000 -0.249315 0
2.100000 -0.146356 0
2.105000 -0.057567 0
2.110000 0.006833 0
2.115000 0.052485 0
2.120000 0.088847 0
2.125000 0.122447 0
2.130000 0.156073 0
2.135000 0.190255 0
2.140000 0.224552 0
2.145000 0.258169 0
2.150000 0.290185 0
2.155000 0.319640 0
2.160000 0.345587 0
2.165000 0.367145 0
2.170000 0.383548 0
2.175000 0.394188 0
2.180000 0.398651 5
2.185000 0.396745 0
2.190000 0.388510 0
2.195000 0.374217 0
2.200000 0.354352 0
2.205000 0.329591 0
2.210000 0.300754 0
2.215000 0.268767 0
2.220000 0.234607 0
2.225000 0.199254 0
2.230000 0.163647 0
2.235000 0.128640 0
2.240000 0.094976 0
2.245000 0.063264 0
2.250000 0.033965 0
2.255000 0.007398 0
2.260000 -0.016260 0
2.265000 -0.036957 0
2.270000 -0.054748 0
2.275000 -0.069771 0
2.280000 -0.082230 0
2.285000 -0.092370 0
2.290000 -0.100459 0
2.295000 -0.106771 0
2.300000 -0.111575 0
2.305000 -0.115120 0
2.310000 -0.117141 0
2.315000 -0.116248 0
2.320000 -0.115359 0
2.325000 -0.114474 0
2.330000 -0.113591 0
2.335000 -0.112710 0
2.340000 -0.111825 0
2.345000 -0.110931 0
2.350000 -0.110014 0
2.355000 -0.109048 0
2.360000 -0.107993 0
2.365000 -0.106777 0
2.370000 -0.105289 0
2.375000 -0.103357 0
2.380000 -0.100733 0
2.385000 -0.097071 0
2.390000 -0.091921 0
2.395000 -0.084728 0
2.400000 -0.074859 0
2.405000 -0.061659 0
2.410000 -0.044538 0
2.415000 -0.023090 0
2.420000 0.002767 0
2.425000 0.032667 0
2.430000 0.065694 0
2.435000 0.100356 0
2.440000 0.134648 0
2.445000 0.166215 0
2.450000 0.192608 0
2.455000 0.211592 0
2.460000 0.221460 1
2.465000 0.221281 0
2.470000 0.211048 0
2.475000 0.191682 0
2.480000 0.164890 0
2.485000 0.132910 0
2.490000 0.098145 0
2.495000 0.062652 0
2.500000 0.027342 0
2.505000 -0.009169 0
2.510000 -0.051315 0
2.515000 -0.104810 0
2.520000 -0.170356 0
2.525000 -0.235196 0
2.530000 -0.270042 2
2.535000 -0.236045 0
2.540000 -0.097255 0
2.545000 0.164738 0
2.550000 0.527467 0
2.555000 0.902606 0
2.560000 1.149638 0
2.565000 1.152732 3
2.570000 0.905363 0
2.575000 0.514957 0
2.580000 0.123995 0
2.585000 -0.168046 0
2.590000 -0.324233 0
2.595000 -0.353378 4
2.600000 -0.292856 0
2.605000 -0.192766 0
2.610000 -0.095387 0
2.615000 -0.020717 0
2.620000 0.031699 0
2.625000 0.070958 0
2.630000 0.105206 0
2.635000 0.138680 0
2.640000 0.172664 0
2.645000 0.207013 0
2.650000 0.241037 0
2.655000 0.273853 0
2.660000 0.304506 0
2.665000 0.332038 0
2.670000 0.355531 0
2.675000 0.374167 0
2.680000 0.387264 0
2.685000 0.394325 0
2.690000 0.395063 5
2.695000 0.389422 0
2.700000 0.377580 0
2.705000 0.359938 0
2.710000 0.337099 0
2.715000 0.309831 0
2.720000 0.279024 0
2.725000 0.245642 0
2.730000 0.210671 0
2.735000 0.175073 0
2.740000 0.139742 0
2.745000 0.105471 0
2.750000 0.072924 0
2.755000 0.042626 0
2.760000 0.014950 0
2.765000 -0.009870 0
2.770000 -0.031734 0
2.775000 -0.050655 0
2.780000 -0.066743 0
2.785000 -0.080178 0
2.790000 -0.091191 0
2.795000 -0.100045 0
2.800000 -0.107012 0
2.805000 -0.112365 0
2.810000 -0.116364 0
2.815000 -0.119245 0
2.820000 -0.118889 0
2.825000 -0.117987 0
2.830000 -0.117089 0
2.835000 -0.116194 0
2.840000 -0.115301 0
2.845000 -0.114407 0
2.850000 -0.113507 0
2.855000 -0.112589 0
2.860000 -0.111635 0
2.865000 -0.110610 0
2.870000 -0.109455 0
2.875000 -0.108077 0
2.880000 -0.106328 0
2.885000 -0.103992 0
2.890000 -0.100761 0
2.895000 -0.096225 0
2.900000 -0.089865 0
2.905000 -0.081073 0
2.910000 -0.069193 0
2.915000 -0.053596 0
2.920000 -0.033792 0
2.925000 -0.009559 0
2.930000 0.018916 0
2.935000 0.050932 0
2.940000 0.085206 0
2.945000 0.119907 0
2.950000 0.152781 0
2.955000 0.181378 0
2.960000 0.203341 0
2.965000 0.216732 0
2.970000 0.220307 1
2.975000 0.213713 0
2.980000 0.197540 0
2.985000 0.173232 0
2.990000 0.142875 0
2.995000 0.108864 0
3.000000 0.073459 0
3.005000 0.038105 0
3.010000 0.002390 0
3.015000 -0.037038 0
3.020000 -0.085914 0
3.025000 -0.147733 0
3.030000 -0.215371 0
3.035000 -0.265135 2
3.040000 -0.260227 0
3.045000 -0.162104 0
3.050000 0.055986 0
3.055000 0.389414 0
3.060000 0.774584 0
3.065000 1.083449 0
3.070000 1.179931 3
3.075000 1.013838 0
3.080000 0.658769 0
3.085000 0.252901 0
3.090000 -0.084940 0
3.095000 -0.296017 0
3.100000 -0.373627 4
3.105000 -0.344681 0
3.110000 -0.255312 0
3.115000 -0.152701 0
3.120000 -0.066785 0
3.125000 -0.004953 0
3.130000 0.039354 0
3.135000 0.075308 0
3.140000 0.108923 0
3.145000 0.142673 0
3.150000 0.176961 0
3.155000 0.211319 0
3.160000 0.244955 0
3.165000 0.276965 0
3.170000 0.306404 0
3.175000 0.332347 0
3.180000 0.353932 0
3.185000 0.370408 0
3.190000 0.381179 0
3.195000 0.385838 5
3.200000 0.384192 0
3.205000 0.376272 0
3.210000 0.362338 0
3.215000 0.342855 0
3.220000 0.318475 0
3.225000 0.289996 0
3.230000 0.258319 0
3.235000 0.224398 0
3.240000 0.189198 0
3.245000 0.153645 0
3.250000 0.118589 0
3.255000 0.084773 0
3.260000 0.052812 0
3.265000 0.023182 0
3.270000 -0.003783 0
3.275000 -0.027889 0
3.280000 -0.049062 0
3.285000 -0.067339 0
3.290000 -0.082841 0
3.295000 -0.095758 0
3.300000 -0.106321 0
3.305000 -0.114791 0
3.310000 -0.121436 0
3.315000 -0.126522 0
3.320000 -0.130299 0
3.325000 -0.132998 0
3.330000 -0.132557 0
3.335000 -0.131587 0
3.340000 -0.130621 0
3.345000 -0.129658 0
3.350000 -0.128698 0
3.355000 -0.127737 0
3.360000 -0.126770 0
3.365000 -0.125785 0
3.370000 -0.124764 0
3.375000 -0.123672 0
3.380000 -0.122453 0
3.385000 -0.121013 0
3.390000 -0.119211 0
3.395000 -0.116835 0
3.400000 -0.113588 0
3.405000 -0.109072 0
3.410000 -0.102787 0
3.415000 -0.094141 0
3.420000 -0.082493 0
3.425000 -0.067221 0
3.430000 -0.047827 0
3.435000 -0.024060 0
3.440000 0.003954 0
3.445000 0.035595 0
3.450000 0.069687 0
3.455000 0.104515 0
3.460000 0.137923 0
3.465000 0.167526 0
3.470000 0.190979 0
3.475000 0.206279 0
3.480000 0.212054 1
3.485000 0.207762 0
3.490000 0.193776 0
3.495000 0.171332 0
3.500000 0.142342 0
3.505000 0.109112 0
3.510000 0.073943 0
3.515000 0.038560 0
3.520000 0.003208 0
3.525000 -0.034470 0
3.530000 -0.079634 0
3.535000 -0.137210 0
3.540000 -0.204614 0
3.545000 -0.264339 0
3.550000 -0.283828 2
3.555000 -0.224470 0
3.560000 -0.054027 0
3.565000 0.237797 0
3.570000 0.614449 0
3.575000 0.973239 0
3.580000 1.173305 3
3.585000 1.120366 0
3.590000 0.835900 0
3.595000 0.436022 0
3.600000 0.054119 0
3.605000 -0.223279 0
3.610000 -0.367048 0
3.615000 -0.388689 4
3.620000 -0.325221 0
3.625000 -0.224610 0
3.630000 -0.126934 0
3.635000 -0.051375 0
3.640000 0.002146 0
3.645000 0.042201 0
3.650000 0.076816 0
3.655000 0.110391 0
3.660000 0.144403 0
3.665000 0.178842 0
3.670000 0.213105 0
3.675000 0.246371 0
3.680000 0.277742 0
3.685000 0.306299 0
3.690000 0.331153 0
3.695000 0.351492 0
3.700000 0.366621 0
3.705000 0.376004 0
3.710000 0.379291 5
3.715000 0.376345 0
3.720000 0.367244 0
3.725000 0.352280 0
3.730000 0.331945 0
3.735000 0.306899 0
3.740000 0.277939 0
3.745000 0.245953 0
3.750000 0.211874 0
3.755000 0.176639 0
3.760000 0.141142 0
3.765000 0.106205 0
3.770000 0.072540 0
3.775000 0.040740 0
3.780000 0.011258 0
3.785000 -0.015585 0
3.790000 -0.039602 0
3.795000 -0.060726 0
3.800000 -0.078989 0
3.805000 -0.094510 0
3.810000 -0.107471 0
3.815000 -0.118098 0
3.820000 -0.126643 0
3.825000 -0.133367 0
3.830000 -0.138529 0
3.835000 -0.142375 0
3.840000 -0.145133 0
3.845000 -0.144650 0
3.850000 -0.143620 0
3.855000 -0.142594 0
3.860000 -0.141572 0
3.865000 -0.140553 0
3.870000 -0.139534 0
3.875000 -0.138511 0
3.880000 -0.137475 0
3.885000 -0.136408 0
3.890000 -0.135282 0
3.895000 -0.134048 0
3.900000 -0.132627 0
3.905000 -0.130895 0
3.910000 -0.128670 0
3.915000 -0.125689 0
3.920000 -0.121598 0
3.925000 -0.115943 0
3.930000 -0.108175 0
3.935000 -0.097683 0
3.940000 -0.083844 0
3.945000 -0.066112 0
3.950000 -0.044129 0
3.955000 -0.017851 0
3.960000 0.012336 0
3.965000 0.045533 0
3.970000 0.080302 0
3.975000 0.114726 0
3.980000 0.146561 0
3.985000 0.173467 0
3.990000 0.193288 0
3.995000 0.204335 0
4.000000 0.205628 1
4.005000 0.197039 0
4.010000 0.179311 0
4.015000 0.153955 0
4.020000 0.123031 0
4.025000 0.088836 0
4.030000 0.053477 0
4.035000 0.018229 0
4.040000 -0.017451 0
4.045000 -0.056879 0
4.050000 -0.105559 0
4.055000 -0.166913 0
4.060000 -0.234621 0
4.065000 -0.286962 0
4.070000 -0.289453 2
4.075000 -0.204900 0
4.080000 -0.005487 0
4.085000 0.310640 0
4.090000 0.694320 0
4.095000 1.033266 0
4.100000 1.191358 3
4.105000 1.093126 0
4.110000 0.779013 0
4.115000 0.373539 0
4.120000 0.004459 0
4.125000 -0.252168 0
4.130000 -0.375182 0
4.135000 -0.380857 4
4.140000 -0.308713 0
4.145000 -0.206445 0
4.150000 -0.111313 0
4.155000 -0.039184 0
4.160000 0.011914 0
4.165000 0.050833 0
4.170000 0.085121 0
4.175000 0.118691 0
4.180000 0.152754 0
4.185000 0.187189 0
4.190000 0.221359 0
4.195000 0.254436 0
4.200000 0.285522 0
4.205000 0.313706 0
4.210000 0.338111 0
4.215000 0.357941 0
4.220000 0.372519 0
4.225000 0.381329 0
4.230000 0.384044 5
4.235000 0.380545 0
4.240000 0.370928 0
4.245000 0.355501 0
4.250000 0.334766 0
4.255000 0.309392 0
4.260000 0.280176 0
4.265000 0.248005 0
4.270000 0.213809 0
4.275000 0.178515 0
4.280000 0.143009 0
4.285000 0.108102 0
4.290000 0.074495 0
4.295000 0.042770 0
4.300000 0.013374 0
4.305000 -0.013384 0
4.310000 -0.037320 0
4.315000 -0.058371 0
4.320000 -0.076574 0
4.325000 -0.092048 0
4.330000 -0.104975 0
4.335000 -0.115580 0
4.340000 -0.124112 0
4.345000 -0.130833 0
4.350000 -0.136000 0
4.355000 -0.139856 0
4.360000 -0.142627 0
4.365000 -0.142157 0
4.370000 -0.141139 0
4.375000 -0.140126 0
4.380000 -0.139116 0
4.385000 -0.138109 0
4.390000 -0.137103 0
4.395000 -0.136092 0
4.400000 -0.135068 0
4.405000 -0.134015 0
4.410000 -0.132904 0
4.415000 -0.131688 0
4.420000 -0.130289 0
4.425000 -0.128587 0
4.430000 -0.126403 0
4.435000 -0.123482 0
4.440000 -0.119476 0
4.445000 -0.113941 0
4.450000 -0.106336 0
4.455000 -0.096057 0
4.460000 -0.082483 0
4.465000 -0.065063 0
4.470000 -0.043426 0
4.475000 -0.017497 0
4.480000 0.012378 0
4.485000 0.045349 0
4.490000 0.080034 0
4.495000 0.114568 0
4.500000 0.146743 0
4.505000 0.174234 0
4.510000 0.194866 0
4.515000 0.206902 0
4.520000 0.209285 1
4.525000 0.201788 0
4.530000 0.185056 0
4.535000 0.160508 0
4.540000 0.130140 0
4.545000 0.096222 0
4.550000 0.060902 0
4.555000 0.025606 0
4.560000 -0.009897 0
4.565000 -0.048493 0
4.570000 -0.095500 0
4.575000 -0.155050 0
4.580000 -0.222806 0
4.585000 -0.279597 0
4.590000 -0.292603 2
4.595000 -0.224520 0
4.600000 -0.045299 0
4.605000 0.252772 0
4.610000 0.631185 0
4.615000 0.988223 0
4.620000 1.187321 3
4.625000 1.135448 0
4.630000 0.850458 0
4.635000 0.450140 0
4.640000 0.069402 0
4.645000 -0.205043 0
4.650000 -0.344831 0
4.655000 -0.362592 4
4.660000 -0.296564 0
4.665000 -0.195409 0
4.670000 -0.098857 0
4.675000 -0.025022 0
4.680000 0.027088 0
4.685000 0.066353 0
4.690000 0.100653 0
4.695000 0.134136 0
4.700000 0.168105 0
4.705000 0.202460 0
4.710000 0.236553 0
4.715000 0.269540 0
4.720000 0.300503 0
4.725000 0.328513 0
4.730000 0.352675 0
4.735000 0.372180 0
4.740000 0.386346 0
4.745000 0.394656 0
4.750000 0.396790 5
4.755000 0.392646 0
4.760000 0.382341 0
4.765000 0.366212 0
4.770000 0.344792 0
4.775000 0.318781 0
4.780000 0.289009 0
4.785000 0.256391 0
4.790000 0.221878 0
4.795000 0.186413 0
4.800000 0.150889 0
4.805000 0.116114 0
4.810000 0.082783 0
4.815000 0.051460 0
4.820000 0.022570 0
4.825000 -0.003599 0
4.830000 -0.026892 0
4.835000 -0.047271 0
4.840000 -0.064797 0
4.845000 -0.079612 0
4.850000 -0.091915 0
4.855000 -0.101945 0
4.860000 -0.109963 0
4.865000 -0.116234 0
4.870000 -0.121017 0
4.875000 -0.124555 0
4.880000 -0.126569 0
4.885000 -0.125628 0
4.890000 -0.124693 0
4.895000 -0.123761 0
4.900000 -0.122832 0
4.905000 -0.121905 0
4.910000 -0.120976 0
4.915000 -0.120040 0
4.920000 -0.119083 0
4.925000 -0.118086 0
4.930000 -0.117010 0
4.935000 -0.115796 0
4.940000 -0.114345 0
4.945000 -0.112508 0
4.950000 -0.110065 0
4.955000 -0.106710 0
4.960000 -0.102038 0
4.965000 -0.095540 0
4.970000 -0.086626 0
4.975000 -0.074660 0
4.980000 -0.059037 0
4.985000 -0.039282 0
4.990000 -0.015176 0
4.995000 0.013119 0
5.000000 0.044948 0
5.005000 0.079112 0
5.010000 0.113883 0
5.015000 0.147115 0
5.020000 0.176446 0
5.025000 0.199569 0
5.030000 0.214529 0
5.035000 0.219995 1
5.040000 0.215455 0
5.045000 0.201299 0
5.050000 0.178755 0
5.055000 0.149720 0
5.060000 0.116467 0
5.065000 0.081273 0
5.070000 0.045852 0
5.075000 0.010484 0
5.080000 -0.027085 0
5.085000 -0.071890 0
5.090000 -0.128922 0
5.095000 -0.196143 0
5.100000 -0.257094 0
5.105000 -0.280290 2
5.110000 -0.227618 0
5.115000 -0.066377 0
5.120000 0.216012 0
5.125000 0.588338 0
5.130000 0.954811 0
5.135000 1.176841 3
5.140000 1.150140 0
5.145000 0.880605 0
5.150000 0.483625 0
5.155000 0.099233 0
5.160000 -0.180100 0
5.165000 -0.323121 0
5.170000 -0.341986 4
5.175000 -0.275799 0
5.180000 -0.174553 0
5.185000 -0.078717 0
5.190000 -0.006145 0
5.195000 0.044812 0
5.200000 0.083397 0
5.205000 0.117439 0
5.210000 0.150882 0
5.215000 0.184855 0
5.220000 0.219158 0
5.225000 0.253084 0
5.230000 0.285748 0
5.235000 0.316200 0
5.240000 0.343487 0
5.245000 0.366702 0
5.250000 0.385035 0
5.255000 0.397818 0
5.260000 0.404565 0
5.265000 0.405001 5
5.270000 0.399078 0
5.275000 0.386983 0
5.280000 0.369121 0
5.285000 0.346098 0
5.290000 0.318681 0
5.295000 0.287758 0
5.300000 0.254288 0
5.305000 0.219253 0
5.310000 0.183607 0
5.315000 0.148239 0
5.320000 0.113936 0
5.325000 0.081357 0
5.330000 0.051021 0
5.335000 0.023302 0
5.340000 -0.001569 0
5.345000 -0.023491 0
5.350000 -0.042479 0
5.355000 -0.058639 0
5.360000 -0.072151 0
5.365000 -0.083244 0
5.370000 -0.092177 0
5.375000 -0.099224 0
5.380000 -0.104654 0
5.385000 -0.108726 0
5.390000 -0.111676 0
5.395000 -0.111363 0
5.400000 -0.110498 0
5.405000 -0.109638 0
5.410000 -0.108780 0
5.415000 -0.107924 0
5.420000 -0.107068 0
5.425000 -0.106205 0
5.430000 -0.105325 0
5.435000 -0.104410 0
5.440000 -0.103427 0
5.445000 -0.102319 0
5.450000 -0.100995 0
5.455000 -0.099314 0
5.460000 -0.097065 0
5.465000 -0.093949 0
5.470000 -0.089567 0
5.475000 -0.083411 0
5.480000 -0.074882 0
5.485000 -0.063328 0
5.490000 -0.048120 0
5.495000 -0.028751 0
5.500000 -0.004972 0
5.505000 0.023077 0
5.510000 0.054749 0
5.515000 0.088830 0
5.520000 0.123551 0
5.525000 0.156706 0
5.530000 0.185866 0
5.535000 0.208661 0
5.540000 0.223101 0
5.545000 0.227857 1
5.550000 0.222465 0
5.555000 0.207398 0
5.560000 0.183995 0
5.565000 0.154264 0
5.570000 0.120569 0
5.575000 0.085207 0
5.580000 0.049781 0
5.585000 0.014215 0
5.590000 -0.024375 0
5.595000 -0.071516 0
5.600000 -0.131499 0
5.605000 -0.199388 0
5.610000 -0.254217 0
5.615000 -0.260809 2
5.620000 -0.180238 0
5.625000 0.017069 0
5.630000 0.333543 0
5.635000 0.717461 0
5.640000 1.050403 0
5.645000 1.191737 3
5.650000 1.069759 0
5.655000 0.736916 0
5.660000 0.329897 0
5.665000 -0.022269 0
5.670000 -0.250547 0
5.675000 -0.342433 4
5.680000 -0.322373 0
5.685000 -0.236416 0
5.690000 -0.133642 0
5.695000 -0.046442 0
5.700000 0.016330 0
5.705000 0.060973 0
5.710000 0.096922 0
5.715000 0.130436 0
5.720000 0.164082 0
5.725000 0.198273 0
5.730000 0.232519 0
5.735000 0.266005 0
5.740000 0.297798 0
5.745000 0.326930 0
5.750000 0.352454 0
5.755000 0.373492 0
5.760000 0.389288 0
5.765000 0.399250 0
5.770000 0.402985 5
5.775000 0.400324 0
5.780000 0.391335 0
5.785000 0.376317 0
5.790000 0.355784 0
5.795000 0.330436 0
5.800000 0.301115 0
5.805000 0.268760 0
5.810000 0.234358 0
5.815000 0.198893 0
5.820000 0.163298 0
5.825000 0.128419 0
5.830000 0.094985 0
5.835000 0.063586 0
5.840000 0.034666 0
5.845000 0.008522 0
5.850000 -0.014689 0
5.855000 -0.034932 0
5.860000 -0.052278 0
5.865000 -0.066878 0
5.870000 -0.078946 0
5.875000 -0.088734 0
5.880000 -0.096513 0
5.885000 -0.102559 0
5.890000 -0.107139 0
5.895000 -0.110502 0
5.900000 -0.112402 0
5.905000 -0.111533 0
5.910000 -0.110667 0
5.915000 -0.109805 0
5.920000 -0.108945 0
5.925000 -0.108086 0
5.930000 -0.107222 0
5.935000 -0.106347 0
5.940000 -0.105443 0
5.945000 -0.104484 0
5.950000 -0.103423 0
5.955000 -0.102179 0
5.960000 -0.100630 0
5.965000 -0.098586 0
5.970000 -0.095777 0
5.975000 -0.091831 0
5.980000 -0.086270 0
5.985000 -0.078512 0
5.990000 -0.067911 0
5.995000 -0.053813 0
6.000000 -0.035658 0
6.005000 -0.013108 0
6.010000 0.013820 0
6.015000 0.044622 0
6.020000 0.078225 0
6.025000 0.112985 0
6.030000 0.146770 0
6.035000 0.177158 0
6.040000 0.201712 0
6.045000 0.218300 0
6.050000 0.225398 1
6.055000 0.222320 0
6.060000 0.209331 0
6.065000 0.187601 0
6.070000 0.159035 0
6.075000 0.125974 0
6.080000 0.090794 0
6.085000 0.055324 0
6.090000 0.019915 0
6.095000 -0.017741 0
6.100000 -0.062878 0
6.105000 -0.120563 0
6.110000 -0.188093 0
6.115000 -0.247245 0
6.120000 -0.264317 2
6.125000 -0.199739 0
6.130000 -0.021217 0
6.135000 0.279421 0
6.140000 0.659568 0
6.145000 1.008078 0
6.150000 1.181016 3
6.155000 1.092886 0
6.160000 0.781594 0
6.165000 0.376191 0
6.170000 0.009832 0
6.175000 -0.239762 0
6.180000 -0.352902 4
6.185000 -0.348893 0
6.190000 -0.270687 0
6.195000 -0.167778 0
6.200000 -0.076186 0
6.205000 -0.008748 0
6.210000 0.038844 0
6.215000 0.076025 0
6.220000 0.109808 0
6.225000 0.143402 0
6.230000 0.177556 0
6.235000 0.211919 0
6.240000 0.245735 0
6.245000 0.278103 0
6.250000 0.308071 0
6.255000 0.334694 0
6.260000 0.357083 0
6.265000 0.374457 0
6.270000 0.386180 0
6.275000 0.391807 5
6.280000 0.391106 0
6.285000 0.384075 0
6.290000 0.370940 0
6.295000 0.352145 0
6.300000 0.328327 0
6.305000 0.300276 0
6.310000 0.268892 0
6.315000 0.235139 0
6.320000 0.199994 0
6.325000 0.164401 0
6.330000 0.129228 0
6.335000 0.095240 0
6.340000 0.063072 0
6.345000 0.033216 0
6.350000 0.006020 0
6.355000 -0.018308 0
6.360000 -0.039687 0
6.365000 -0.058148 0
6.370000 -0.073811 0
6.375000 -0.086863 0
6.380000 -0.097539 0
6.385000 -0.106102 0
6.390000 -0.112822 0
6.395000 -0.117969 0
6.400000 -0.121797 0
6.405000 -0.124539 0
6.410000 -0.124140 0
6.415000 -0.123212 0
6.420000 -0.122288 0
6.425000 -0.121367 0
6.430000 -0.120448 0
6.435000 -0.119528 0
6.440000 -0.118601 0
6.445000 -0.117655 0
6.450000 -0.116672 0
6.455000 -0.115614 0
6.460000 -0.114423 0
6.465000 -0.113002 0
6.470000 -0.111202 0
6.475000 -0.108804 0
6.480000 -0.105498 0
6.485000 -0.100872 0
6.490000 -0.094409 0
6.495000 -0.085502 0
6.500000 -0.073501 0
6.505000 -0.057786 0
6.510000 -0.037874 0
6.515000 -0.013554 0
6.520000 0.014984 0
6.525000 0.047038 0
6.530000 0.081334 0
6.535000 0.116057 0
6.540000 0.148974 0
6.545000 0.177656 0
6.550000 0.199765 0
6.555000 0.213371 0
6.560000 0.217226 1
6.565000 0.210952 0
6.570000 0.195108 0
6.575000 0.171101 0
6.580000 0.140977 0
6.585000 0.107104 0
6.590000 0.071742 0
6.595000 0.036392 0
6.600000 0.000784 0
6.605000 -0.038209 0
6.610000 -0.086205 0
6.615000 -0.147087 0
6.620000 -0.214889 0
6.625000 -0.267464 0
6.630000 -0.269058 2
6.635000 -0.181092 0
6.640000 0.024717 0
6.645000 0.348054 0
6.650000 0.732941 0
6.655000 1.057823 0
6.660000 1.184026 3
6.665000 1.048119 0
6.670000 0.709693 0
6.675000 0.302579 0
6.680000 -0.049183 0
6.685000 -0.279128 0
6.690000 -0.374680 4
6.695000 -0.358697 0
6.700000 -0.275149 0
6.705000 -0.172014 0
6.710000 -0.082409 0
6.715000 -0.016880 0
6.720000 0.029684 0
6.725000 0.066538 0
6.730000 0.100314 0
6.735000 0.133983 0
6.740000 0.168205 0
6.745000 0.202616 0
6.750000 0.236469 0
6.755000 0.268880 0
6.760000 0.298916 0
6.765000 0.325651 0
6.770000 0.348213 0
6.775000 0.365831 0
6.780000 0.377879 0
6.785000 0.383911 5
6.790000 0.383685 0
6.795000 0.377185 0
6.800000 0.364616 0
6.805000 0.346395 0
6.810000 0.323129 0
6.815000 0.295577 0
6.820000 0.264613 0
6.825000 0.231175 0
6.830000 0.196222 0
6.835000 0.160686 0
6.840000 0.125432 0
6.845000 0.091230 0
6.850000 0.058724 0
6.855000 0.028425 0
6.860000 0.000702 0
6.865000 -0.024215 0
6.870000 -0.046219 0
6.875000 -0.065318 0
6.880000 -0.081610 0
6.885000 -0.095265 0
6.890000 -0.106502 0
6.895000 -0.115573 0
6.900000 -0.122744 0
6.905000 -0.128279 0
6.910000 -0.132433 0
6.915000 -0.135442 0
6.920000 -0.135038 0
6.925000 -0.134055 0
6.930000 -0.133077 0
6.935000 -0.132103 0
6.940000 -0.131132 0
6.945000 -0.130161 0
6.950000 -0.129186 0
6.955000 -0.128199 0
6.960000 -0.127184 0
6.965000 -0.126113 0
6.970000 -0.124939 0
6.975000 -0.123586 0
6.980000 -0.121931 0
6.985000 -0.119794 0
6.990000 -0.116915 0
6.995000 -0.112938 0
7.000000 -0.107406 0
7.005000 -0.099765 0
7.010000 -0.089392 0
7.015000 -0.075651 0
7.020000 -0.057986 0
7.025000 -0.036030 0
7.030000 -0.009738 0
7.035000 0.020489 0
7.040000 0.053724 0
7.045000 0.088483 0
7.050000 0.122798 0
7.055000 0.154372 0
7.060000 0.180823 0
7.065000 0.199978 0
7.070000 0.210167 0
7.075000 0.210461 1
7.080000 0.200818 0
7.085000 0.182086 0
7.090000 0.155882 0
7.095000 0.124354 0
7.100000 0.089842 0
7.105000 0.054418 0
7.110000 0.019167 0
7.115000 -0.016878 0
7.120000 -0.057603 0
7.125000 -0.108674 0
7.130000 -0.172302 0
7.135000 -0.239136 0
7.140000 -0.283759 2
7.145000 -0.269433 0
7.150000 -0.159350 0
7.155000 0.070366 0
7.160000 0.411149 0
7.165000 0.795979 0
7.170000 1.097489 0
7.175000 1.185168 3
7.180000 1.013716 0
7.185000 0.656875 0
7.190000 0.251015 0
7.195000 -0.087174 0
7.200000 -0.299775 0
7.205000 -0.379770 4
7.210000 -0.353152 0
7.215000 -0.265023 0
7.220000 -0.162145 0
7.225000 -0.074963 0
7.230000 -0.011760 0
7.235000 0.033455 0
7.240000 0.069798 0
7.245000 0.103487 0
7.250000 0.137197 0
7.255000 0.171454 0
7.260000 0.205848 0
7.265000 0.239624 0
7.270000 0.271899 0
7.275000 0.301746 0
7.280000 0.328249 0
7.285000 0.350550 0
7.290000 0.367890 0
7.295000 0.379657 0
7.300000 0.385416 5
7.305000 0.384941 0
7.310000 0.378220 0
7.315000 0.365467 0
7.320000 0.347100 0
7.325000 0.323726 0
7.330000 0.296101 0
7.335000 0.265093 0
7.340000 0.231633 0
7.345000 0.196672 0
7.350000 0.161133 0
7.355000 0.125875 0
7.360000 0.091661 0
7.365000 0.059131 0
7.370000 0.028793 0
7.375000 0.001014 0
7.380000 -0.023972 0
7.385000 -0.046059 0
7.390000 -0.065251 0
7.395000 -0.081643 0
7.400000 -0.095400 0
7.405000 -0.106740 0
7.410000 -0.115910 0
7.415000 -0.123173 0
7.420000 -0.128793 0
7.425000 -0.133022 0
7.430000 -0.136097 0
7.435000 -0.137775 0
7.440000 -0.136778 0
7.445000 -0.135787 0
7.450000 -0.134799 0
7.455000 -0.133815 0
7.460000 -0.132831 0
7.465000 -0.131844 0
7.470000 -0.130846 0
7.475000 -0.129823 0
7.480000 -0.128747 0
7.485000 -0.127576 0
7.490000 -0.126236 0
7.495000 -0.124614 0
7.500000 -0.122539 0
7.505000 -0.119762 0
7.510000 -0.115946 0
7.515000 -0.110650 0
7.520000 -0.103337 0
7.525000 -0.093396 0
7.530000 -0.080195 0
7.535000 -0.063162 0
7.540000 -0.041896 0
7.545000 -0.016294 0
7.550000 0.013329 0
7.555000 0.046143 0
7.560000 0.080772 0
7.565000 0.115339 0
7.570000 0.147610 0
7.575000 0.175218 0
7.580000 0.195945 0
7.585000 0.208017 0
7.590000 0.210353 1
7.595000 0.202728 0
7.600000 0.185807 0
7.605000 0.161048 0
7.610000 0.130493 0
7.615000 0.096456 0
7.620000 0.061101 0
7.625000 0.025809 0
7.630000 -0.009801 0
7.635000 -0.048886 0
7.640000 -0.096944 0
7.645000 -0.157725 0
7.650000 -0.225515 0
7.655000 -0.279089 0
7.660000 -0.283968 2
7.665000 -0.202483 0
7.670000 -0.006071 0
7.675000 0.308030 0
7.680000 0.691343 0
7.685000 1.031245 0
7.690000 1.190189 3
7.695000 1.091127 0
7.700000 0.774775 0
7.705000 0.368880 0
7.710000 0.003022 0
7.715000 -0.247297 0
7.720000 -0.362654 4
7.725000 -0.361427 0
7.730000 -0.285154 0
7.735000 -0.182375 0
7.740000 -0.089370 0
7.745000 -0.020072 0
7.750000 0.028909 0
7.755000 0.066767 0
7.760000 0.100732 0
7.765000 0.134299 0
7.770000 0.168406 0
7.775000 0.202801 0
7.780000 0.236781 0
7.785000 0.269480 0
7.790000 0.299971 0
7.795000 0.327327 0
7.800000 0.350666 0
7.805000 0.369199 0
7.810000 0.382272 0
7.815000 0.389405 0
7.820000 0.390319 5
7.825000 0.384956 0
7.830000 0.373478 0
7.835000 0.356263 0
7.840000 0.333883 0
7.845000 0.307067 0
7.850000 0.276669 0
7.855000 0.243615 0
7.860000 0.208859 0
7.865000 0.173340 0
7.870000 0.137937 0
7.875000 0.103436 0
7.880000 0.070509 0
7.885000 0.039692 0
7.890000 0.011382 0
7.895000 -0.014163 0
7.900000 -0.036813 0
7.905000 -0.056552 0
7.910000 -0.073461 0
7.915000 -0.087695 0
7.920000 -0.099464 0
7.925000 -0.109013 0
7.930000 -0.116605 0
7.935000 -0.122507 0
7.940000 -0.126974 0
7.945000 -0.130246 0
7.950000 -0.132067 0
7.955000 -0.131099 0
7.960000 -0.130136 0
7.965000 -0.129177 0
7.970000 -0.128221 0
7.975000 -0.127266 0
7.980000 -0.126308 0
7.985000 -0.125341 0
7.990000 -0.124350 0
7.995000 -0.123311 0
8.000000 -0.122184 0
8.005000 -0.120899 0
8.010000 -0.119349 0
8.015000 -0.117368 0
8.020000 -0.114720 0
8.025000 -0.111075 0
8.030000 -0.106004 0
8.035000 -0.098976 0
8.040000 -0.089384 0
8.045000 -0.076591 0
8.050000 -0.060012 0
8.055000 -0.039219 0
8.060000 -0.014071 0
8.065000 0.015162 0
8.070000 0.047698 0
8.075000 0.082207 0
8.080000 0.116844 0
8.085000 0.149388 0
8.090000 0.177459 0
8.095000 0.198805 0
8.100000 0.211596 0
8.105000 0.214681 1
8.110000 0.207765 0
8.115000 0.191451 0
8.120000 0.167154 0
8.125000 0.136894 0
8.130000 0.102990 0
8.135000 0.067642 0
8.140000 0.032313 0
8.145000 -0.003248 0
8.150000 -0.042042 0
8.155000 -0.089533 0
8.160000 -0.149743 0
8.165000 -0.217570 0
8.170000 -0.272424 0
8.175000 -0.280053 2
8.180000 -0.202494 0
8.185000 -0.010445 0
8.190000 0.300178 0
8.195000 0.682717 0
8.200000 1.025688 0
8.205000 1.190511 3
8.210000 1.097196 0
8.215000 0.783968 0
8.220000 0.378404 0
8.225000 0.011417 0
8.230000 -0.240213 0
8.235000 -0.356460 4
8.240000 -0.355613 0
8.245000 -0.279397 0
8.250000 -0.176641 0
8.255000 -0.083787 0
8.260000 -0.014731 0
8.265000 0.034037 0
8.270000 0.071771 0
8.275000 0.105686 0
8.280000 0.139240 0
8.285000 0.173340 0
8.290000 0.207714 0
8.295000 0.241648 0
8.300000 0.274268 0
8.305000 0.304640 0
8.310000 0.331833 0
8.315000 0.354962 0
8.320000 0.373236 0
8.325000 0.386007 0
8.330000 0.392800 0
8.335000 0.393346 5
8.340000 0.387598 0
8.345000 0.375734 0
8.350000 0.358146 0
8.355000 0.335420 0
8.360000 0.308302 0
8.365000 0.277656 0
8.370000 0.244417 0
8.375000 0.209548 0
8.380000 0.173988 0
8.385000 0.138615 0
8.390000 0.104212 0
8.395000 0.071443 0
8.400000 0.040833 0
8.405000 0.012769 0
8.410000 -0.012502 0
8.415000 -0.034863 0
8.420000 -0.054309 0
8.425000 -0.070929 0
8.430000 -0.084888 0
8.435000 -0.096402 0
8.440000 -0.105721 0
8.445000 -0.113109 0
8.450000 -0.118835 0
8.455000 -0.123154 0
8.460000 -0.126304 0
8.465000 -0.128045 0
8.470000 -0.127097 0
8.475000 -0.126154 0
8.480000 -0.125214 0
8.485000 -0.124278 0
8.490000 -0.123342 0
8.495000 -0.122402 0
8.500000 -0.121451 0
8.505000 -0.120473 0
8.510000 -0.119441 0
8.515000 -0.118311 0
8.520000 -0.117008 0
8.525000 -0.115414 0
8.530000 -0.113353 0
8.535000 -0.110569 0
8.540000 -0.106714 0
8.545000 -0.101337 0
8.550000 -0.093886 0
8.555000 -0.083740 0
8.560000 -0.070262 0
8.565000 -0.052883 0
8.570000 -0.031221 0
8.575000 -0.005208 0
8.580000 0.024784 0
8.585000 0.057854 0
8.590000 0.092548 0
8.595000 0.126912 0
8.600000 0.158655 0
8.605000 0.185386 0
8.610000 0.204907 0
8.615000 0.215514 0
8.620000 0.216236 1
8.625000 0.206988 0
8.630000 0.188585 0
8.635000 0.162619 0
8.640000 0.131228 0
8.645000 0.096760 0
8.650000 0.061314 0
8.655000 0.026029 0
8.660000 -0.009973 0
8.665000 -0.050490 0
8.670000 -0.101206 0
8.675000 -0.164556 0
8.680000 -0.231596 0
8.685000 -0.277258 2
8.690000 -0.264863 0
8.695000 -0.157352 0
8.700000 0.069690 0
8.705000 0.408644 0
8.710000 0.793639 0
8.715000 1.097746 0
8.720000 1.189391 3
8.725000 1.021041 0
8.730000 0.665143 0
8.735000 0.259262 0
8.740000 -0.078605 0
8.745000 -0.290093 0
8.750000 -0.368436 4
8.755000 -0.340247 0
8.760000 -0.251307 0
8.765000 -0.148636 0
8.770000 -0.062331 0
8.775000 -0.000077 0
8.780000 0.044498 0
8.785000 0.080545 0
8.790000 0.114148 0
8.795000 0.147848 0
8.800000 0.182091 0
8.805000 0.216427 0
8.810000 0.250079 0
8.815000 0.282147 0
8.820000 0.311696 0
8.825000 0.337802 0
8.830000 0.359605 0
8.835000 0.376350 0
8.840000 0.387438 0
8.845000 0.392450 5
8.850000 0.391180 0
8.855000 0.383648 0
8.860000 0.370093 0
8.865000 0.350966 0
8.870000 0.326903 0
8.875000 0.298687 0
8.880000 0.267207 0
8.885000 0.233410 0
8.890000 0.198256 0
8.895000 0.162669 0
8.900000 0.127503 0
8.905000 0.093509 0
8.910000 0.061311 0
8.915000 0.031397 0
8.920000 0.004110 0
8.925000 -0.020339 0
8.930000 -0.041866 0
8.935000 -0.060496 0
8.940000 -0.076342 0
8.945000 -0.089583 0
8.950000 -0.100448 0
8.955000 -0.109192 0
8.960000 -0.116082 0
8.965000 -0.121383 0
8.970000 -0.125346 0
8.975000 -0.128204 0
8.980000 -0.127808 0
8.985000 -0.126861 0
8.990000 -0.125919 0
8.995000 -0.124980 0
9.000000 -0.124044 0
9.005000 -0.123107 0
9.010000 -0.122165 0
9.015000 -0.121208 0
9.020000 -0.120218 0
9.025000 -0.119165 0
9.030000 -0.117997 0
9.035000 -0.116628 0
9.040000 -0.114926 0
9.045000 -0.112696 0
9.050000 -0.109658 0
9.055000 -0.105437 0
9.060000 -0.099553 0
9.065000 -0.091432 0
9.070000 -0.080443 0
9.075000 -0.065957 0
9.080000 -0.047445 0
9.085000 -0.024596 0
9.090000 0.002549 0
9.095000 0.033484 0
9.100000 0.067157 0
9.105000 0.101971 0
9.110000 0.135865 0
9.115000 0.166496 0
9.120000 0.191495 0
9.125000 0.208772 0
9.130000 0.216797 1
9.135000 0.214830 0
9.140000 0.203029 0
9.145000 0.182430 0
9.150000 0.154799 0
9.155000 0.122363 0
9.160000 0.087455 0
9.165000 0.052003 0
9.170000 0.016724 0
9.175000 -0.019977 0
9.180000 -0.062633 0
9.185000 -0.116751 0
9.190000 -0.182572 0
9.195000 -0.247064 0
9.200000 -0.281308 2
9.205000 -0.247363 0
9.210000 -0.110145 0
9.215000 0.148711 0
9.220000 0.508804 0
9.225000 0.886675 0
9.230000 1.146376 0
9.235000 1.170250 3
9.240000 0.942323 0
9.245000 0.559855 0
9.250000 0.162369 0
9.255000 -0.146263 0
9.260000 -0.322764 0
9.265000 -0.370415 4
9.270000 -0.322034 0
9.275000 -0.225575 0
9.280000 -0.125117 0
9.285000 -0.044911 0
9.290000 0.012028 0
9.295000 0.053681 0
9.300000 0.088705 0
9.305000 0.122205 0
9.310000 0.156049 0
9.315000 0.190377 0
9.320000 0.224624 0
9.325000 0.257972 0
9.330000 0.289510 0
9.335000 0.318301 0
9.340000 0.343433 0
9.345000 0.364070 0
9.350000 0.379492 0
9.355000 0.389140 0
9.360000 0.392647 5
9.365000 0.389862 0
9.370000 0.380856 0
9.375000 0.365921 0
9.380000 0.345554 0
9.385000 0.320429 0
9.390000 0.291357 0
9.395000 0.259244 0
9.400000 0.225042 0
9.405000 0.189706 0
9.410000 0.154145 0
9.415000 0.119192 0
9.420000 0.085566 0
9.425000 0.053861 0
9.430000 0.024530 0
9.435000 -0.002115 0
9.440000 -0.025894 0
9.445000 -0.046750 0
9.450000 -0.064730 0
9.455000 -0.079963 0
9.460000 -0.092642 0
9.465000 -0.103002 0
9.470000 -0.111303 0
9.475000 -0.117811 0
9.480000 -0.122789 0
9.485000 -0.126484 0
9.490000 -0.129123 0
9.495000 -0.128690 0
9.500000 -0.127739 0
9.505000 -0.126792 0
9.510000 -0.125849 0
9.515000 -0.124907 0
9.520000 -0.123965 0
9.525000 -0.123015 0
9.530000 -0.122048 0
9.535000 -0.121042 0
9.540000 -0.119964 0
9.545000 -0.118756 0
9.550000 -0.117324 0
9.555000 -0.115523 0
9.560000 -0.113143 0
9.565000 -0.109884 0
9.570000 -0.105351 0
9.575000 -0.099041 0
9.580000 -0.090368 0
9.585000 -0.078693 0
9.590000 -0.063402 0
9.595000 -0.044001 0
9.600000 -0.020243 0
9.605000 0.007746 0
9.610000 0.039352 0
9.615000 0.073410 0
9.620000 0.108221 0
9.625000 0.141650 0
9.630000 0.171331 0
9.635000 0.194930 0
9.640000 0.210451 0
9.645000 0.216509 1
9.650000 0.212541 0
9.655000 0.198884 0
9.660000 0.176737 0
9.665000 0.147975 0
9.670000 0.114876 0
9.675000 0.079737 0
9.680000 0.044322 0
9.685000 0.008987 0
9.690000 -0.028428 0
9.695000 -0.072913 0
9.700000 -0.129568 0
9.705000 -0.196650 0
9.710000 -0.258020 0
9.715000 -0.282294 2
9.720000 -0.231171 0
9.725000 -0.071582 0
9.730000 0.209529 0
9.735000 0.581402 0
9.740000 0.948272 0
9.745000 1.170899 3
9.750000 1.144824 0
9.755000 0.877224 0
9.760000 0.481171 0
9.765000 0.095044 0
9.770000 -0.188502 0
9.775000 -0.336980 0
9.780000 -0.361010 4
9.785000 -0.298165 0
9.790000 -0.197637 0
9.795000 -0.100443 0
9.800000 -0.025830 0
9.805000 0.026733 0
9.810000 0.066158 0
9.815000 0.100487 0
9.820000 0.133969 0
9.825000 0.167940 0
9.830000 0.202297 0
9.835000 0.236384 0
9.840000 0.269343 0
9.845000 0.300243 0
9.850000 0.328143 0
9.855000 0.352140 0
9.860000 0.371417 0
9.865000 0.385291 0
9.870000 0.393247 0
9.875000 0.394974 5
9.880000 0.390382 0
9.885000 0.379609 0
9.890000 0.363009 0
9.895000 0.341140 0
9.900000 0.314724 0
9.905000 0.284614 0
9.910000 0.251740 0
9.915000 0.217069 0
9.920000 0.181552 0
9.925000 0.146084 0
9.930000 0.111470 0
9.935000 0.078397 0
9.940000 0.047416 0
9.945000 0.018938 0
9.950000 -0.006770 0
9.955000 -0.029569 0
9.960000 -0.049440 0
9.965000 -0.066460 0
9.970000 -0.080786 0
9.975000 -0.092628 0
9.980000 -0.102234 0
9.985000 -0.109870 0
9.990000 -0.115804 0
9.995000 -0.120297 0
10.000000 -0.123590 0
10.005000 -0.125431 0
10.010000 -0.124496 0
10.015000 -0.123566 0
10.020000 -0.122640 0
10.025000 -0.121716 0
10.030000 -0.120793 0
10.035000 -0.119868 0
10.040000 -0.118931 0
10.045000 -0.117970 0
10.050000 -0.116958 0
10.055000 -0.115852 0
10.060000 -0.114582 0
10.065000 -0.113032 0
10.070000 -0.111031 0
10.075000 -0.108331 0
10.080000 -0.104588 0
10.085000 -0.099358 0
10.090000 -0.092093 0
10.095000 -0.082172 0
10.100000 -0.068954 0
10.105000 -0.051858 0
10.110000 -0.030484 0
10.115000 -0.004741 0
10.120000 0.025029 0
10.125000 0.057953 0
10.130000 0.092596 0
10.135000 0.127019 0
10.140000 0.158931 0
10.145000 0.185927 0
10.150000 0.205782 0
10.155000 0.216754 0
10.160000 0.217838 1
10.165000 0.208914 0
10.170000 0.190770 0
10.175000 0.164985 0
10.180000 0.133698 0
10.185000 0.099267 0
10.190000 0.063817 0
10.195000 0.028520 0
10.200000 -0.007461 0
10.205000 -0.047898 0
10.210000 -0.098499 0
10.215000 -0.161780 0
10.220000 -0.228855 0
10.225000 -0.274599 2
10.230000 -0.262159 0
10.235000 -0.154289 0
10.240000 0.073478 0
10.245000 0.413190 0
10.250000 0.798035 0
10.255000 1.099958 0
10.260000 1.187330 3
10.265000 1.013273 0
10.270000 0.653437 0
10.275000 0.248516 0
10.280000 -0.083507 0
10.285000 -0.286356 0
10.290000 -0.355740 4
10.295000 -0.320691 0
10.300000 -0.228735 0
10.305000 -0.126838 0
10.310000 -0.043295 0
10.315000 0.016248 0
10.320000 0.059159 0
10.325000 0.094537 0
10.330000 0.128019 0
10.335000 0.161769 0
10.340000 0.196033 0
10.345000 0.230269 0
10.350000 0.263651 0
10.355000 0.295250 0
10.360000 0.324111 0
10.365000 0.349301 0
10.370000 0.369962 0
10.375000 0.385359 0
10.380000 0.394920 0
10.385000 0.398272 5
10.390000 0.395263 0
10.395000 0.385975 0
10.400000 0.370713 0
10.405000 0.349997 0
10.410000 0.324523 0
10.415000 0.295128 0
10.420000 0.262743 0
10.425000 0.228343 0
10.430000 0.192900 0
10.435000 0.157335 0
10.440000 0.122484 0
10.445000 0.089067 0
10.450000 0.057669 0
10.455000 0.028729 0
10.460000 0.002545 0
10.465000 -0.020726 0
10.470000 -0.041045 0
10.475000 -0.058479 0
10.480000 -0.073175 0
10.485000 -0.085342 0
10.490000 -0.095227 0
10.495000 -0.103097 0
10.500000 -0.109225 0
10.505000 -0.113876 0
10.510000 -0.117298 0
10.515000 -0.119232 0
10.520000 -0.118329 0
10.525000 -0.117429 0
10.530000 -0.116533 0
10.535000 -0.115640 0
10.540000 -0.114748 0
10.545000 -0.113853 0
10.550000 -0.112947 0
10.555000 -0.112017 0
10.560000 -0.111036 0
10.565000 -0.109962 0
10.570000 -0.108722 0
10.575000 -0.107202 0
10.580000 -0.105227 0
10.585000 -0.102544 0
10.590000 -0.098805 0
10.595000 -0.093556 0
10.600000 -0.086241 0
10.605000 -0.076227 0
10.610000 -0.062865 0
10.615000 -0.045573 0
10.620000 -0.023958 0
10.625000 0.002049 0
10.630000 0.032066 0
10.635000 0.065166 0
10.640000 0.099852 0
10.645000 0.134119 0
10.650000 0.165621 0
10.655000 0.191924 0
10.660000 0.210814 0
10.665000 0.220599 1
10.670000 0.220364 0
10.675000 0.210106 0
10.680000 0.190744 0
10.685000 0.163976 0
10.690000 0.132025 0
10.695000 0.097280 0
10.700000 0.061794 0
10.705000 0.026491 0
10.710000 -0.009960 0
10.715000 -0.051917 0
10.720000 -0.105087 0
10.725000 -0.170394 0
10.730000 -0.235601 0
10.735000 -0.272027 2
10.740000 -0.241171 0
10.745000 -0.106957 0
10.750000 0.149963 0
10.755000 0.509558 0
10.760000 0.887128 0
10.765000 1.144101 0
10.770000 1.161650 3
10.775000 0.926141 0
10.780000 0.539926 0
10.785000 0.145593 0
10.790000 -0.154059 0
10.795000 -0.318802 0
10.800000 -0.355162 4
10.805000 -0.299005 0
10.810000 -0.200043 0
10.815000 -0.101551 0
10.820000 -0.025117 0
10.825000 0.028629 0
10.830000 0.068535 0
10.835000 0.102964 0
10.840000 0.136422 0
10.845000 0.170358 0
10.850000 0.204697 0
10.855000 0.238777 0
10.860000 0.271727 0
10.865000 0.302600 0
10.870000 0.330438 0
10.875000 0.354321 0
10.880000 0.373422 0
10.885000 0.387049 0
10.890000 0.394687 0
10.895000 0.396031 5
10.900000 0.391000 0
10.905000 0.379751 0
10.910000 0.362663 0
10.915000 0.340318 0
10.920000 0.313466 0
10.925000 0.282984 0
10.930000 0.249827 0
10.935000 0.214979 0
10.940000 0.179403 0
10.945000 0.143999 0
10.950000 0.109570 0
10.955000 0.076794 0
10.960000 0.046209 0
10.965000 0.018207 0
10.970000 -0.006964 0
10.975000 -0.029190 0
10.980000 -0.048470 0
10.985000 -0.064904 0
10.990000 -0.078663 0
10.995000 -0.089973 0
11.000000 -0.099092 0
11.005000 -0.106291 0
11.010000 -0.111844 0
11.015000 -0.116010 0
11.020000 -0.119031 0
11.025000 -0.118696 0
11.030000 -0.117795 0
11.035000 -0.116898 0
11.040000 -0.116004 0
11.045000 -0.115113 0
11.050000 -0.114221 0
11.055000 -0.113324 0
11.060000 -0.112412 0
11.065000 -0.111466 0
11.070000 -0.110456 0
11.075000 -0.109329 0
11.080000 -0.107995 0
11.085000 -0.106319 0
11.090000 -0.104097 0
11.095000 -0.101037 0
11.100000 -0.096748 0
11.105000 -0.090731 0
11.110000 -0.082391 0
11.115000 -0.071078 0
11.120000 -0.056155 0
11.125000 -0.037099 0
11.130000 -0.013636 0
11.135000 0.014130 0
11.140000 0.045595 0
11.145000 0.079583 0
11.150000 0.114361 0
11.155000 0.147744 0
11.160000 0.177304 0
11.165000 0.200652 0
11.170000 0.215756 0
11.175000 0.221230 1
11.180000 0.216545 0
11.185000 0.202114 0
11.190000 0.179226 0
11.195000 0.149860 0
11.200000 0.116373 0
11.205000 0.081087 0
11.210000 0.045677 0
11.215000 0.010197 0
11.220000 -0.028057 0
11.225000 -0.074533 0
11.230000 -0.133785 0
11.235000 -0.201596 0
11.240000 -0.257865 0
11.245000 -0.267868 2
11.250000 -0.192471 0
11.255000 -0.001218 0
11.260000 0.310233 0
11.265000 0.693202 0
11.270000 1.031660 0
11.275000 1.183810 3
11.280000 1.074573 0
11.285000 0.750862 0
11.290000 0.344255 0
11.295000 -0.015901 0
11.300000 -0.256877 0
11.305000 -0.362201 4
11.310000 -0.352803 0
11.315000 -0.272143 0
11.320000 -0.169089 0
11.325000 -0.078379 0
11.330000 -0.011811 0
11.335000 0.035304 0
11.340000 0.072328 0
11.345000 0.106103 0
11.350000 0.139729 0
11.355000 0.173911 0
11.360000 0.208293 0
11.365000 0.242122 0
11.370000 0.274502 0
11.375000 0.304492 0
11.380000 0.331153 0
11.385000 0.353605 0
11.390000 0.371070 0
11.395000 0.382918 0
11.400000 0.388703 5
11.405000 0.388190 0
11.410000 0.381370 0
11.415000 0.368462 0
11.420000 0.349898 0
11.425000 0.326303 0
11.430000 0.298453 0
11.435000 0.267239 0
11.440000 0.233613 0
11.445000 0.198544 0
11.450000 0.162970 0
11.455000 0.127761 0
11.460000 0.093681 0
11.465000 0.061370 0
11.470000 0.031328 0
11.475000 0.003911 0
11.480000 -0.020663 0
11.485000 -0.042303 0
11.490000 -0.061030 0
11.495000 -0.076955 0
11.500000 -0.090258 0
11.505000 -0.101167 0
11.510000 -0.109940 0
11.515000 -0.116847 0
11.520000 -0.122155 0
11.525000 -0.126117 0
11.530000 -0.128970 0
11.535000 -0.128568 0
11.540000 -0.127618 0
11.545000 -0.126672 0
11.550000 -0.125729 0
11.555000 -0.124789 0
11.560000 -0.123849 0
11.565000 -0.122903 0
11.570000 -0.121941 0
11.575000 -0.120945 0
11.580000 -0.119884 0
11.585000 -0.118703 0
11.590000 -0.117314 0
11.595000 -0.115582 0
11.600000 -0.113302 0
11.605000 -0.110187 0
11.610000 -0.105849 0
11.615000 -0.099797 0
11.620000 -0.091446 0
11.625000 -0.080153 0
11.630000 -0.065289 0
11.635000 -0.046337 0
11.640000 -0.023014 0
11.645000 0.004596 0
11.650000 0.035922 0
11.655000 0.069836 0
11.660000 0.104664 0
11.665000 0.138275 0
11.670000 0.168286 0
11.675000 0.192326 0
11.680000 0.208347 0
11.685000 0.214910 1
11.690000 0.211398 0
11.695000 0.198113 0
11.700000 0.176232 0
11.705000 0.147635 0
11.710000 0.114615 0
11.715000 0.079499 0
11.720000 0.044085 0
11.725000 0.008754 0
11.730000 -0.028658 0
11.735000 -0.073192 0
11.740000 -0.129981 0
11.745000 -0.197138 0
11.750000 -0.258083 0
11.755000 -0.280839 2
11.760000 -0.226676 0
11.765000 -0.062565 0
11.770000 0.223498 0
11.775000 0.597848 0
11.780000 0.960539 0
11.785000 1.170444 3
11.790000 1.129864 0
11.795000 0.853550 0
11.800000 0.455595 0
11.805000 0.071135 0
11.810000 -0.210485 0
11.815000 -0.358237 0
11.820000 -0.382724 4
11.825000 -0.320705 0
11.830000 -0.220417 0
11.835000 -0.122523 0
11.840000 -0.046694 0
11.845000 0.006961 0
11.850000 0.047040 0
11.855000 0.081636 0
11.860000 0.115187 0
11.865000 0.149180 0
11.870000 0.183598 0
11.875000 0.217832 0
11.880000 0.251054 0
11.885000 0.282359 0
11.890000 0.310821 0
11.895000 0.335547 0
11.900000 0.355721 0
11.905000 0.370648 0
11.910000 0.379794 0
11.915000 0.382814 5
11.920000 0.379578 0
11.925000 0.370173 0
11.930000 0.354906 0
11.935000 0.334279 0
11.940000 0.308967 0
11.945000 0.279777 0
11.950000 0.247608 0
11.955000 0.213401 0
11.960000 0.178098 0
11.965000 0.142596 0
11.970000 0.107713 0
11.975000 0.074160 0
11.980000 0.042520 0
11.985000 0.013241 0
11.990000 -0.013369 0
11.995000 -0.037133 0
12.000000 -0.057991 0
12.005000 -0.075988 0
12.010000 -0.091251 0
12.015000 -0.103967 0
12.020000 -0.114369 0
12.025000 -0.122711 0
12.030000 -0.129257 0
12.035000 -0.134267 0
12.040000 -0.137986 0
12.045000 -0.140641 0
12.050000 -0.140162 0
12.055000 -0.139153 0
12.060000 -0.138150 0
12.065000 -0.137150 0
12.070000 -0.136152 0
12.075000 -0.135155 0
12.080000 -0.134151 0
12.085000 -0.133132 0
12.090000 -0.132079 0
12.095000 -0.130959 0
12.100000 -0.129721 0
12.105000 -0.128277 0
12.110000 -0.126494 0
12.115000 -0.124174 0
12.120000 -0.121039 0
12.125000 -0.116712 0
12.130000 -0.110719 0
12.135000 -0.102492 0
12.140000 -0.091406 0
12.145000 -0.076842 0
12.150000 -0.058280 0
12.155000 -0.035413 0
12.160000 -0.008278 0
12.165000 0.022634 0
12.170000 0.056299 0
12.175000 0.091154 0
12.180000 0.125183 0
12.185000 0.156079 0
12.190000 0.181504 0
12.195000 0.199370 0
12.200000 0.208128 1
12.205000 0.206985 0
12.210000 0.196030 0
12.215000 0.176216 0
12.220000 0.149226 0
12.225000 0.117228 0
12.230000 0.082533 0
12.235000 0.047119 0
12.240000 0.011895 0
12.245000 -0.024365 0
12.250000 -0.065774 0
12.255000 -0.117913 0
12.260000 -0.182322 0
12.265000 -0.248568 0
12.270000 -0.290426 2
12.275000 -0.271186 0
12.280000 -0.154853 0
12.285000 0.081014 0
12.290000 0.425698 0
12.295000 0.810031 0
12.300000 1.106505 0
12.305000 1.187401 3
12.310000 1.011544 0
12.315000 0.653317 0
12.320000 0.247458 0
12.325000 -0.091153 0
12.330000 -0.305246 0
12.335000 -0.387492 4
12.340000 -0.363050 0
12.345000 -0.276101 0
12.350000 -0.173023 0
12.355000 -0.084700 0
12.360000 -0.020227 0
12.365000 0.025856 0
12.370000 0.062592 0
12.375000 0.096374 0
12.380000 0.130062 0
12.385000 0.164298 0
12.390000 0.198728 0
12.395000 0.232629 0
12.400000 0.265137 0
12.405000 0.295344 0
12.410000 0.322343 0
12.415000 0.345277 0
12.420000 0.363383 0
12.425000 0.376034 0
12.430000 0.382776 0
12.435000 0.383350 5
12.440000 0.377712 0
12.445000 0.366032 0
12.450000 0.348689 0
12.455000 0.326247 0
12.460000 0.299428 0
12.465000 0.269067 0
12.470000 0.236074 0
12.475000 0.201383 0
12.480000 0.165915 0
12.485000 0.130535 0
12.490000 0.096018 0
12.495000 0.063027 0
12.500000 0.032097 0
12.505000 0.003626 0
12.510000 -0.022123 0
12.515000 -0.045011 0
12.520000 -0.065013 0
12.525000 -0.082199 0
12.530000 -0.096713 0
12.535000 -0.108756 0
12.540000 -0.118565 0
12.545000 -0.126396 0
12.550000 -0.132509 0
12.555000 -0.137160 0
12.560000 -0.140586 0
12.565000 -0.142503 0
12.570000 -0.141483 0
12.575000 -0.140468 0
12.580000 -0.139458 0
12.585000 -0.138451 0
12.590000 -0.137446 0
12.595000 -0.136440 0
12.600000 -0.135427 0
12.605000 -0.134396 0
12.610000 -0.133326 0
12.615000 -0.132182 0
12.620000 -0.130907 0
12.625000 -0.129408 0
12.630000 -0.127544 0
12.635000 -0.125106 0
12.640000 -0.121804 0
12.645000 -0.117253 0
12.650000 -0.110966 0
12.655000 -0.102371 0
12.660000 -0.090848 0
12.665000 -0.075792 0
12.670000 -0.056708 0
12.675000 -0.033328 0
12.680000 -0.005735 0
12.685000 0.025529 0
12.690000 0.059393 0
12.695000 0.094265 0
12.700000 0.128113 0
12.705000 0.158644 0
12.710000 0.183555 0
12.715000 0.200813 0
12.720000 0.208933 1
12.725000 0.207189 0
12.730000 0.195718 0
12.735000 0.175509 0
12.740000 0.148256 0
12.745000 0.116116 0
12.750000 0.081370 0
12.755000 0.045957 0
12.760000 0.010736 0
12.765000 -0.025556 0
12.770000 -0.067027 0
12.775000 -0.119197 0
12.780000 -0.183575 0
12.785000 -0.249898 0
12.790000 -0.292355 2
12.795000 -0.274714 0
12.800000 -0.161242 0
12.805000 0.070808 0
12.810000 0.412302 0
12.815000 0.797296 0
12.820000 1.101364 0
12.825000 1.196081 3
12.830000 1.032652 0
12.835000 0.679990 0
12.840000 0.273515 0
12.845000 -0.068579 0
12.850000 -0.286314 0
12.855000 -0.371139 4
12.860000 -0.347989 0
12.865000 -0.261422 0
12.870000 -0.158431 0
12.875000 -0.070309 0
12.880000 -0.006168 0
12.885000 0.039604 0
12.890000 0.076146 0
12.895000 0.109836 0
12.900000 0.143482 0
12.905000 0.177678 0
12.910000 0.212042 0
12.915000 0.245831 0
12.920000 0.278165 0
12.925000 0.308124 0
12.930000 0.334789 0
12.935000 0.357300 0
12.940000 0.374893 0
12.945000 0.386949 0
12.950000 0.393023 5
12.955000 0.392875 0
12.960000 0.386483 0
12.965000 0.374046 0
12.970000 0.355970 0
12.975000 0.332850 0
12.980000 0.305433 0
12.985000 0.274578 0
12.990000 0.241212 0
12.995000 0.206285 0
13.000000 0.170721 0
13.005000 0.135383 0
13.010000 0.101038 0
13.015000 0.068336 0
13.020000 0.037793 0
13.025000 0.009786 0
13.030000 -0.015444 0
13.035000 -0.037782 0
13.040000 -0.057223 0
13.045000 -0.073857 0
13.050000 -0.087844 0
13.055000 -0.099397 0
13.060000 -0.108762 0
13.065000 -0.116201 0
13.070000 -0.121977 0
13.075000 -0.126344 0
13.080000 -0.129538 0
13.085000 -0.131309 0
13.090000 -0.130345 0
13.095000 -0.129385 0
13.100000 -0.128430 0
13.105000 -0.127477 0
13.110000 -0.126526 0
13.115000 -0.125571 0
13.120000 -0.124607 0
13.125000 -0.123618 0
13.130000 -0.122580 0
13.135000 -0.121451 0
13.140000 -0.120163 0
13.145000 -0.118606 0
13.150000 -0.116615 0
13.155000 -0.113951 0
13.160000 -0.110287 0
13.165000 -0.105193 0
13.170000 -0.098141 0
13.175000 -0.088528 0
13.180000 -0.075722 0
13.185000 -0.059141 0
13.190000 -0.038362 0
13.195000 -0.013244 0
13.200000 0.015949 0
13.205000 0.048444 0
13.210000 0.082928 0
13.215000 0.117577 0
13.220000 0.150191 0
13.225000 0.178408 0
13.230000 0.199984 0
13.235000 0.213083 0
13.240000 0.216540 1
13.245000 0.210025 0
13.250000 0.194102 0
13.255000 0.170143 0
13.260000 0.140130 0
13.265000 0.106360 0
13.270000 0.071040 0
13.275000 0.035687 0
13.280000 0.000196 0
13.285000 -0.038212 0
13.290000 -0.084868 0
13.295000 -0.144109 0
13.300000 -0.211869 0
13.305000 -0.269019 0
13.310000 -0.282385 2
13.315000 -0.214107 0
13.320000 -0.033730 0
13.325000 0.266197 0
13.330000 0.645488 0
13.335000 0.999417 0
13.340000 1.189529 3
13.345000 1.123806 0
13.350000 0.827575 0
13.355000 0.424556 0
13.360000 0.050234 0
13.365000 -0.212148 0
13.370000 -0.338312 0
13.375000 -0.344427 4
13.380000 -0.271543 0
13.385000 -0.169205 0
13.390000 -0.075411 0
13.395000 -0.005360 0
13.400000 0.043952 0
13.405000 0.081849 0
13.410000 0.115751 0
13.415000 0.149245 0
13.420000 0.183286 0
13.425000 0.217609 0
13.430000 0.251494 0
13.435000 0.284055 0
13.440000 0.314347 0
13.445000 0.341428 0
13.450000 0.364402 0
13.455000 0.382473 0
13.460000 0.394988 0
13.465000 0.401475 0
13.470000 0.401669 5
13.475000 0.395535 0
13.480000 0.383263 0
13.485000 0.365266 0
13.490000 0.342146 0
13.495000 0.314670 0
13.500000 0.283719 0
13.505000 0.250245 0
13.510000 0.215221 0
13.515000 0.179595 0
13.520000 0.144245 0
13.525000 0.109954 0
13.530000 0.077376 0
13.535000 0.047027 0
13.540000 0.019280 0
13.545000 -0.005635 0
13.550000 -0.027614 0
13.555000 -0.046668 0
13.560000 -0.062902 0
13.565000 -0.076491 0
13.570000 -0.087660 0
13.575000 -0.096666 0
13.580000 -0.103780 0
13.585000 -0.109270 0
13.590000 -0.113393 0
13.595000 -0.116385 0
13.600000 -0.116058 0
13.605000 -0.115170 0
13.610000 -0.114286 0
13.615000 -0.113406 0
13.620000 -0.112527 0
13.625000 -0.111648 0
13.630000 -0.110764 0
13.635000 -0.109864 0
13.640000 -0.108932 0
13.645000 -0.107936 0
13.650000 -0.106824 0
13.655000 -0.105510 0
13.660000 -0.103859 0
13.665000 -0.101673 0
13.670000 -0.098667 0
13.675000 -0.094459 0
13.680000 -0.088557 0
13.685000 -0.080381 0
13.690000 -0.069286 0
13.695000 -0.054639 0
13.700000 -0.035914 0
13.705000 -0.012813 0
13.710000 0.014593 0
13.715000 0.045750 0
13.720000 0.079549 0
13.725000 0.114324 0
13.730000 0.147951 0
13.735000 0.178039 0
13.740000 0.202207 0
13.745000 0.218386 0
13.750000 0.225114 1
13.755000 0.221754 0
13.760000 0.208590 0
13.765000 0.186788 0
13.770000 0.158223 0
13.775000 0.125195 0
13.780000 0.090041 0
13.785000 0.054573 0
13.790000 0.019195 0
13.795000 -0.018244 0
13.800000 -0.062789 0
13.805000 -0.119598 0
13.810000 -0.186802 0
13.815000 -0.247768 0
13.820000 -0.270395 2
13.825000 -0.215817 0
13.830000 -0.050952 0
13.835000 0.236026 0
13.840000 0.610815 0
13.845000 0.972463 0
13.850000 1.179307 3
13.855000 1.131041 0
13.860000 0.845356 0
13.865000 0.444262 0
13.870000 0.066735 0
13.875000 -0.199970 0
13.880000 -0.329445 0
13.885000 -0.337294 4
13.890000 -0.264914 0
13.895000 -0.162635 0
13.900000 -0.069049 0
13.905000 0.000575 0
13.910000 0.049471 0
13.915000 0.087123 0
13.920000 0.120944 0
13.925000 0.154440 0
13.930000 0.188495 0
13.935000 0.222799 0
13.940000 0.256603 0
13.945000 0.289000 0
13.950000 0.319029 0
13.955000 0.345732 0
13.960000 0.368209 0
13.965000 0.385662 0
13.970000 0.397447 0
13.975000 0.403108 5
13.980000 0.402408 0
13.985000 0.395340 0
13.990000 0.382135 0
13.995000 0.363240 0
14.000000 0.339302 0
14.005000 0.311120 0
14.010000 0.279607 0
14.015000 0.245739 0
14.020000 0.210503 0
14.025000 0.174851 0
14.030000 0.139658 0
14.035000 0.105692 0
14.040000 0.073586 0
14.045000 0.043831 0
14.050000 0.016769 0
14.055000 -0.007399 0
14.060000 -0.028601 0
14.065000 -0.046876 0
14.070000 -0.062351 0
14.075000 -0.075222 0
14.080000 -0.085730 0
14.085000 -0.094141 0
14.090000 -0.100730 0
14.095000 -0.105768 0
14.100000 -0.109509 0
14.105000 -0.111672 0
14.110000 -0.110806 0
14.115000 -0.109944 0
14.120000 -0.109086 0
14.125000 -0.108231 0
14.130000 -0.107377 0
14.135000 -0.106520 0
14.140000 -0.105655 0
14.145000 -0.104768 0
14.150000 -0.103838 0
14.155000 -0.102824 0
14.160000 -0.101659 0
14.165000 -0.100239 0
14.170000 -0.098398 0
14.175000 -0.095898 0
14.180000 -0.092404 0
14.185000 -0.087477 0
14.190000 -0.080571 0
14.195000 -0.071057 0
14.200000 -0.058276 0
14.205000 -0.041624 0
14.210000 -0.020668 0
14.215000 0.004717 0
14.220000 0.034214 0
14.225000 0.066963 0
14.230000 0.101523 0
14.235000 0.135926 0
14.240000 0.167832 0
14.245000 0.194779 0
14.250000 0.214491 0
14.255000 0.225193 0
14.260000 0.225876 1
14.265000 0.216450 0
14.270000 0.197763 0
14.275000 0.171473 0
14.280000 0.139794 0
14.285000 0.105141 0
14.290000 0.069629 0
14.295000 0.034296 0
14.300000 -0.002040 0
14.305000 -0.043625 0
14.310000 -0.096250 0
14.315000 -0.161233 0
14.320000 -0.226852 0
14.325000 -0.264662 2
14.330000 -0.235923 0
14.335000 -0.104004 0
14.340000 0.151113 0
14.345000 0.509955 0
14.350000 0.887673 0
14.355000 1.144560 0
14.360000 1.160749 3
14.365000 0.923740 0
14.370000 0.536961 0
14.375000 0.143052 0
14.380000 -0.155581 0
14.385000 -0.319142 0
14.390000 -0.354477 4
14.395000 -0.297681 0
14.400000 -0.198545 0
14.405000 -0.100215 0
14.410000 -0.024050 0
14.415000 0.029487 0
14.420000 0.069287 0
14.425000 0.103684 0
14.430000 0.137143 0
14.435000 0.171085 0
14.440000 0.205424 0
14.445000 0.239493 0
14.450000 0.272420 0
14.455000 0.303255 0
14.460000 0.331039 0
14.465000 0.354854 0
14.470000 0.373874 0
14.475000 0.387407 0
14.480000 0.394942 0
14.485000 0.396177 5
14.490000 0.391036 0
14.495000 0.379679 0
14.500000 0.362489 0
14.505000 0.340052 0
14.510000 0.313121 0
14.515000 0.282577 0
14.520000 0.249377 0
14.525000 0.214503 0
14.530000 0.178920 0
14.535000 0.143527 0
14.540000 0.109126 0
14.545000 0.076391 0
14.550000 0.045859 0
14.555000 0.017917 0
14.560000 -0.007188 0
14.565000 -0.029346 0
14.570000 -0.048558 0
14.575000 -0.064926 0
14.580000 -0.078624 0
14.585000 -0.089877 0
14.590000 -0.098945 0
14.595000 -0.106100 0
14.600000 -0.111615 0
14.605000 -0.115749 0
14.610000 -0.118743 0
14.615000 -0.118406 0
14.620000 -0.117506 0
14.625000 -0.116611 0
14.630000 -0.115718 0
14.635000 -0.114828 0
14.640000 -0.113938 0
14.645000 -0.113041 0
14.650000 -0.112130 0
14.655000 -0.111184 0
14.660000 -0.110173 0
14.665000 -0.109041 0
14.670000 -0.107700 0
14.675000 -0.106011 0
14.680000 -0.103768 0
14.685000 -0.100675 0
14.690000 -0.096337 0
14.695000 -0.090252 0
14.700000 -0.081821 0
14.705000 -0.070393 0
14.710000 -0.055332 0
14.715000 -0.036122 0
14.720000 -0.012498 0
14.725000 0.015417 0
14.730000 0.046999 0
14.735000 0.081051 0
14.740000 0.115817 0
14.745000 0.149098 0
14.750000 0.178459 0
14.755000 0.201518 0
14.760000 0.216261 0
14.765000 0.221331 1
14.770000 0.216236 0
14.775000 0.201427 0
14.780000 0.178229 0
14.785000 0.148642 0
14.790000 0.115033 0
14.795000 0.079715 0
14.800000 0.044315 0
14.805000 0.008793 0
14.810000 -0.029694 0
14.815000 -0.076672 0
14.820000 -0.136497 0
14.825000 -0.204352 0
14.830000 -0.259350 0
14.835000 -0.266273 2
14.840000 -0.186061 0
14.845000 0.011010 0
14.850000 0.327454 0
14.855000 0.711409 0
14.860000 1.044025 0
14.865000 1.184318 3
14.870000 1.062751 0
14.875000 0.731912 0
14.880000 0.324926 0
14.885000 -0.031040 0
14.890000 -0.266222 0
14.895000 -0.366169 4
14.900000 -0.352964 0
14.905000 -0.270545 0
14.910000 -0.167450 0
14.915000 -0.077527 0
14.920000 -0.011763 0
14.925000 0.034873 0
14.930000 0.071716 0
14.935000 0.105465 0
14.940000 0.139112 0
14.945000 0.173316 0
14.950000 0.207702 0
14.955000 0.241512 0
14.960000 0.273853 0
14.965000 0.303784 0
14.970000 0.330370 0
14.975000 0.352735 0
14.980000 0.370106 0
14.985000 0.381857 0
14.990000 0.387547 5
14.995000 0.386946 0
15.000000 0.380048 0
15.005000 0.367073 0
15.010000 0.348457 0
15.015000 0.324823 0
15.020000 0.296948 0
15.025000 0.265720 0
15.030000 0.232089 0
15.035000 0.197023 0
15.040000 0.161457 0
15.045000 0.126256 0
15.050000 0.092184 0
15.055000 0.059878 0
15.060000 0.029838 0
15.065000 0.002419 0
15.070000 -0.022162 0
15.075000 -0.043812 0
15.080000 -0.062553 0
15.085000 -0.078494 0
15.090000 -0.091814 0
15.095000 -0.102741 0
15.100000 -0.111532 0
15.105000 -0.118454 0
15.110000 -0.123776 0
15.115000 -0.127751 0
15.120000 -0.130613 0
15.125000 -0.130207 0
15.130000 -0.129248 0
15.135000 -0.128294 0
15.140000 -0.127344 0
15.145000 -0.126396 0
15.150000 -0.125447 0
15.155000 -0.124493 0
15.160000 -0.123524 0
15.165000 -0.122523 0
15.170000 -0.121456 0
15.175000 -0.120273 0
15.180000 -0.118886 0
15.185000 -0.117161 0
15.190000 -0.114898 0
15.195000 -0.111814 0
15.200000 -0.107526 0
15.205000 -0.101547 0
15.210000 -0.093298 0
15.215000 -0.082139 0
15.220000 -0.067441 0
15.225000 -0.048679 0
15.230000 -0.025557 0
15.235000 0.001860 0
15.240000 0.033028 0
15.245000 0.066852 0
15.250000 0.101687 0
15.255000 0.135430 0
15.260000 0.165709 0
15.265000 0.190152 0
15.270000 0.206689 0
15.275000 0.213844 1
15.280000 0.210948 0
15.285000 0.198247 0
15.290000 0.176865 0
15.295000 0.148640 0
15.300000 0.115843 0
15.305000 0.080807 0
15.310000 0.045384 0
15.315000 0.010089 0
15.320000 -0.027031 0
15.325000 -0.070838 0
15.330000 -0.126641 0
15.335000 -0.193376 0
15.340000 -0.255761 0
15.345000 -0.282864 2
15.350000 -0.236147 0
15.355000 -0.081734 0
15.360000 0.194815 0
15.365000 0.564718 0
15.370000 0.933729 0
15.375000 1.161916 3
15.380000 1.143876 0
15.385000 0.883648 0
15.390000 0.490173 0
15.395000 0.100730 0
15.400000 -0.190197 0
15.405000 -0.347519 0
15.410000 -0.379499 4
15.415000 -0.321722 0
15.420000 -0.222493 0
15.425000 -0.123700 0
15.430000 -0.046495 0
15.435000 0.008146 0
15.440000 0.048678 0
15.445000 0.083392 0
15.450000 0.116926 0
15.455000 0.150877 0
15.460000 0.185273 0
15.465000 0.219512 0
15.470000 0.252769 0
15.475000 0.284133 0
15.480000 0.312674 0
15.485000 0.337492 0
15.490000 0.357764 0
15.495000 0.372787 0
15.500000 0.382020 0
15.505000 0.385114 5
15.510000 0.381934 0
15.515000 0.372567 0
15.520000 0.357317 0
15.525000 0.336690 0
15.530000 0.311364 0
15.535000 0.282150 0
15.540000 0.249952 0
15.545000 0.215718 0
15.550000 0.180394 0
15.555000 0.144882 0
15.560000 0.110002 0
15.565000 0.076468 0
15.570000 0.044864 0
15.575000 0.015636 0
15.580000 -0.010909 0
15.585000 -0.034595 0
15.590000 -0.055369 0
15.595000 -0.073277 0
15.600000 -0.088449 0
15.605000 -0.101077 0
15.610000 -0.111394 0
15.615000 -0.119659 0
15.620000 -0.126136 0
15.625000 -0.131085 0
15.630000 -0.134755 0
15.635000 -0.137368 0
15.640000 -0.136897 0
15.645000 -0.135905 0
15.650000 -0.134917 0
15.655000 -0.133933 0
15.660000 -0.132952 0
15.665000 -0.131969 0
15.670000 -0.130980 0
15.675000 -0.129974 0
15.680000 -0.128932 0
15.685000 -0.127820 0
15.690000 -0.126582 0
15.695000 -0.125127 0
15.700000 -0.123317 0
15.705000 -0.120944 0
15.710000 -0.117718 0
15.715000 -0.113254 0
15.720000 -0.107059 0
15.725000 -0.098557 0
15.730000 -0.087115 0
15.735000 -0.072117 0
15.740000 -0.053059 0
15.745000 -0.029667 0
15.750000 -0.002029 0
15.755000 0.029296 0
15.760000 0.063207 0
15.765000 0.098066 0
15.770000 0.131791 0
15.775000 0.162046 0
15.780000 0.186492 0
15.785000 0.203095 0
15.790000 0.210393 1
15.795000 0.207719 0
15.800000 0.195296 0
15.805000 0.174211 0
15.810000 0.146252 0
15.815000 0.113647 0
15.820000 0.078702 0
15.825000 0.043290 0
15.830000 0.008040 0
15.835000 -0.028758 0
15.840000 -0.071703 0
15.845000 -0.126208 0
15.850000 -0.192212 0
15.855000 -0.256345 0
15.860000 -0.289591 2
15.865000 -0.254247 0
15.870000 -0.115651 0
15.875000 0.144134 0
15.880000 0.504515 0
15.885000 0.882495 0
15.890000 1.143192 0
15.895000 1.169505 3
15.900000 0.944603 0
15.905000 0.563728 0
15.910000 0.165116 0
15.915000 -0.147016 0
15.920000 -0.328210 0
15.925000 -0.380459 4
15.930000 -0.335354 0
15.935000 -0.240076 0
15.940000 -0.138932 0
15.945000 -0.057195 0
15.950000 0.001119 0
15.955000 0.043572 0
15.960000 0.078906 0
15.965000 0.112461 0
15.970000 0.146288 0
15.975000 0.180622 0
15.980000 0.214943 0
15.985000 0.248455 0
15.990000 0.280262 0
15.995000 0.309437 0
16.000000 0.335073 0
16.005000 0.356331 0
16.010000 0.372482 0
16.015000 0.382951 0
16.020000 0.387347 5
16.025000 0.385491 0
16.030000 0.377421 0
16.035000 0.363396 0
16.040000 0.343878 0
16.045000 0.319508 0
16.050000 0.291070 0
16.055000 0.259446 0
16.060000 0.225577 0
16.065000 0.190410 0
16.070000 0.154855 0
16.075000 0.119753 0
16.080000 0.085841 0
16.085000 0.053731 0
16.090000 0.023902 0
16.095000 -0.003308 0
16.100000 -0.027696 0
16.105000 -0.049178 0
16.110000 -0.067780 0
16.115000 -0.083612 0
16.120000 -0.096853 0
16.125000 -0.107727 0
16.130000 -0.116486 0
16.135000 -0.123394 0
16.140000 -0.128713 0
16.145000 -0.132693 0
16.150000 -0.135564 0
16.155000 -0.135138 0
16.160000 -0.134155 0
16.165000 -0.133176 0
16.170000 -0.132202 0
16.175000 -0.131229 0
16.180000 -0.130257 0
16.185000 -0.129281 0
16.190000 -0.128291 0
16.195000 -0.127271 0
16.200000 -0.126193 0
16.205000 -0.125006 0
16.210000 -0.123633 0
16.215000 -0.121949 0
16.220000 -0.119770 0
16.225000 -0.116831 0
16.230000 -0.112774 0
16.235000 -0.107142 0
16.240000 -0.099379 0
16.245000 -0.088866 0
16.250000 -0.074977 0
16.255000 -0.057163 0
16.260000 -0.035073 0
16.265000 -0.008672 0
16.270000 0.021630 0
16.275000 0.054901 0
16.280000 0.089664 0
16.285000 0.123964 0
16.290000 0.155525 0
16.295000 0.181987 0
16.300000 0.201197 0
16.305000 0.211495 0
16.310000 0.211954 1
16.315000 0.202514 0
16.320000 0.183998 0
16.325000 0.157991 0
16.330000 0.126608 0
16.335000 0.092168 0
16.340000 0.056748 0
16.345000 0.021487 0
16.350000 -0.014441 0
16.355000 -0.054724 0
16.360000 -0.104977 0
16.365000 -0.167857 0
16.370000 -0.235141 0
16.375000 -0.282793 2
16.380000 -0.274935 0
16.385000 -0.174636 0
16.390000 0.043536 0
16.395000 0.375251 0
16.400000 0.760679 0
16.405000 1.078231 0
16.410000 1.194559 3
16.415000 1.051165 0
16.420000 0.708858 0
16.425000 0.301739 0
16.430000 -0.047820 0
16.435000 -0.275062 0
16.440000 -0.368371 4
16.445000 -0.350997 0
16.450000 -0.266922 0
16.455000 -0.163825 0
16.460000 -0.074441 0
16.465000 -0.009088 0
16.470000 0.037386 0
16.475000 0.074193 0
16.480000 0.107932 0
16.485000 0.141560 0
16.490000 0.175741 0
16.495000 0.210114 0
16.500000 0.243939 0
16.505000 0.276335 0
16.510000 0.306375 0
16.515000 0.333137 0
16.520000 0.355752 0
16.525000 0.373450 0
16.530000 0.385604 0
16.535000 0.391764 5
16.540000 0.391686 0
16.545000 0.385346 0
16.550000 0.372942 0
16.555000 0.354881 0
16.560000 0.331760 0
16.565000 0.304332 0
16.570000 0.273461 0
16.575000 0.240080 0
16.580000 0.205143 0
16.585000 0.169579 0
16.590000 0.134255 0
16.595000 0.099941 0
16.600000 0.067288 0
16.605000 0.036810 0
16.610000 0.008883 0
16.615000 -0.016254 0
16.620000 -0.038488 0
16.625000 -0.057821 0
16.630000 -0.074342 0
16.635000 -0.088218 0
16.640000 -0.099664 0
16.645000 -0.108928 0
16.650000 -0.116274 0
16.655000 -0.121967 0
16.660000 -0.126261 0
16.665000 -0.129392 0
16.670000 -0.131117 0
16.675000 -0.130154 0
16.680000 -0.129196 0
16.685000 -0.128241 0
16.690000 -0.127289 0
16.695000 -0.126338 0
16.700000 -0.125384 0
16.705000 -0.124418 0
16.710000 -0.123427 0
16.715000 -0.122383 0
16.720000 -0.121244 0
16.725000 -0.119936 0
16.730000 -0.118345 0
16.735000 -0.116298 0
16.740000 -0.113548 0
16.745000 -0.109753 0
16.750000 -0.104471 0
16.755000 -0.097162 0
16.760000 -0.087213 0
16.765000 -0.073988 0
16.770000 -0.056915 0
16.775000 -0.035597 0
16.780000 -0.009936 0
16.785000 0.019742 0
16.790000 0.052590 0
16.795000 0.087215 0
16.800000 0.121722 0
16.805000 0.153860 0
16.810000 0.181255 0
16.815000 0.201690 0
16.820000 0.213404 0
16.825000 0.215340 1
16.830000 0.207307 0
16.835000 0.190004 0
16.840000 0.164926 0
16.845000 0.134140 0
16.850000 0.099970 0
16.855000 0.064571 0
16.860000 0.029266 0
16.865000 -0.006449 0
16.870000 -0.045895 0
16.875000 -0.094644 0
16.880000 -0.156145 0
16.885000 -0.223868 0
16.890000 -0.275554 0
16.895000 -0.276063 2
16.900000 -0.187795 0
16.905000 0.016830 0
16.910000 0.337976 0
16.915000 0.722555 0
16.920000 1.053701 0
16.925000 1.194732 3
16.930000 1.075831 0
16.935000 0.747093 0
16.940000 0.340143 0
16.945000 -0.018028 0
16.950000 -0.256810 0
16.955000 -0.360687 4
16.960000 -0.350716 0
16.965000 -0.270013 0
16.970000 -0.166963 0
16.975000 -0.076049 0
16.980000 -0.009147 0
16.985000 0.038245 0
16.990000 0.075401 0
16.995000 0.109191 0
17.000000 0.142779 0
17.005000 0.176919 0
17.010000 0.211284 0
17.015000 0.245139 0
17.020000 0.277603 0
17.025000 0.307744 0
17.030000 0.334633 0
17.035000 0.357392 0
17.040000 0.375243 0
17.045000 0.387551 0
17.050000 0.393857 0
17.055000 0.393909 5
17.060000 0.387679 0
17.065000 0.375361 0
17.070000 0.357361 0
17.075000 0.334279 0
17.080000 0.306869 0
17.085000 0.275999 0
17.090000 0.242609 0
17.095000 0.207658 0
17.100000 0.172080 0
17.105000 0.136747 0
17.110000 0.102434 0
17.115000 0.069792 0
17.120000 0.039338 0
17.125000 0.011448 0
17.130000 -0.013639 0
17.135000 -0.035815 0
17.140000 -0.055082 0
17.145000 -0.071534 0
17.150000 -0.085339 0
17.155000 -0.096715 0
17.160000 -0.105913 0
17.165000 -0.113198 0
17.170000 -0.118837 0
17.175000 -0.123085 0
17.180000 -0.126178 0
17.185000 -0.125825 0
17.190000 -0.124889 0
17.195000 -0.123956 0
17.200000 -0.123028 0
17.205000 -0.122102 0
17.210000 -0.121176 0
17.215000 -0.120247 0
17.220000 -0.119305 0
17.225000 -0.118336 0
17.230000 -0.117311 0
17.235000 -0.116186 0
17.240000 -0.114883 0
17.245000 -0.113283 0
17.250000 -0.111206 0
17.255000 -0.108394 0
17.260000 -0.104496 0
17.265000 -0.099054 0
17.270000 -0.091518 0
17.275000 -0.081263 0
17.280000 -0.067655 0
17.285000 -0.050130 0
17.290000 -0.028318 0
17.295000 -0.002163 0
17.300000 0.027945 0
17.305000 0.061087 0
17.310000 0.095793 0
17.315000 0.130099 0
17.320000 0.161710 0
17.325000 0.188241 0
17.330000 0.207508 0
17.335000 0.217828 0
17.340000 0.218256 1
17.345000 0.208735 0
17.350000 0.190099 0
17.355000 0.163956 0
17.360000 0.132451 0
17.365000 0.097928 0
17.370000 0.062468 0
17.375000 0.027177 0
17.380000 -0.008879 0
17.385000 -0.049554 0
17.390000 -0.100523 0
17.395000 -0.164079 0
17.400000 -0.231015 0
17.405000 -0.276037 2
17.410000 -0.262420 0
17.415000 -0.153259 0
17.420000 0.075513 0
17.425000 0.415654 0
17.430000 0.800515 0
17.435000 1.102845 0
17.440000 1.191753 3
17.445000 1.020601 0
17.450000 0.663054 0
17.455000 0.257468 0
17.460000 -0.078485 0
17.465000 -0.287269 0
17.470000 -0.362911 4
17.475000 -0.332707 0
17.480000 -0.242883 0
17.485000 -0.140403 0
17.490000 -0.054846 0
17.495000 0.006667 0
17.500000 0.050779 0
17.505000 0.086630 0
17.510000 0.120185 0
17.515000 0.153884 0
17.520000 0.188121 0
17.525000 0.222422 0
17.530000 0.255998 0
17.535000 0.287943 0
17.540000 0.317316 0
17.545000 0.343192 0
17.550000 0.364712 0
17.555000 0.381126 0
17.560000 0.391840 0
17.565000 0.396448 5
17.570000 0.394756 0
17.575000 0.386797 0
17.580000 0.372827 0
17.585000 0.353312 0
17.590000 0.328901 0
17.595000 0.300391 0
17.600000 0.268680 0
17.605000 0.234722 0
17.610000 0.199478 0
17.615000 0.163875 0
17.620000 0.128760 0
17.625000 0.094878 0
17.630000 0.062844 0
17.635000 0.033135 0
17.640000 0.006085 0
17.645000 -0.018110 0
17.650000 -0.039374 0
17.655000 -0.057743 0
17.660000 -0.073338 0
17.665000 -0.086344 0
17.670000 -0.096994 0
17.675000 -0.105548 0
17.680000 -0.112273 0
17.685000 -0.117434 0
17.690000 -0.121282 0
17.695000 -0.124048 0
17.700000 -0.123655 0
17.705000 -0.122729 0
17.710000 -0.121807 0
17.715000 -0.120889 0
17.720000 -0.119973 0
17.725000 -0.119055 0
17.730000 -0.118132 0
17.735000 -0.117191 0
17.740000 -0.116214 0
17.745000 -0.115169 0
17.750000 -0.113997 0
17.755000 -0.112609 0
17.760000 -0.110865 0
17.765000 -0.108555 0
17.770000 -0.105388 0
17.775000 -0.100969 0
17.780000 -0.094802 0
17.785000 -0.086300 0
17.790000 -0.074824 0
17.795000 -0.059750 0
17.800000 -0.040574 0
17.805000 -0.017032 0
17.810000 0.010768 0
17.815000 0.042229 0
17.820000 0.076205 0
17.825000 0.111003 0
17.830000 0.144489 0
17.835000 0.174287 0
17.840000 0.198045 0
17.845000 0.213743 0
17.850000 0.219974 1
17.855000 0.216153 0
17.860000 0.202605 0
17.865000 0.180523 0
17.870000 0.151787 0
17.875000 0.118688 0
17.880000 0.083533 0
17.885000 0.048099 0
17.890000 0.012742 0
17.895000 -0.024719 0
17.900000 -0.069315 0
17.905000 -0.126145 0
17.910000 -0.193318 0
17.915000 -0.254364 0
17.920000 -0.277514 2
17.925000 -0.224244 0
17.930000 -0.061579 0
17.935000 0.222804 0
17.940000 0.596289 0
17.945000 0.960552 0
17.950000 1.175301 3
17.955000 1.138762 0
17.960000 0.863118 0
17.965000 0.464785 0
17.970000 0.081822 0
17.975000 -0.195574 0
17.980000 -0.337299 0
17.985000 -0.355701 4
17.990000 -0.289546 0
17.995000 -0.188305 0
18.000000 -0.092159 0
18.005000 -0.019068 0
18.010000 0.032363 0
18.015000 0.071235 0
18.020000 0.105401 0
18.025000 0.138886 0
18.030000 0.172885 0
18.035000 0.207237 0
18.040000 0.241257 0
18.045000 0.274077 0
18.050000 0.304759 0
18.055000 0.332359 0
18.060000 0.355974 0
18.065000 0.374796 0
18.070000 0.388148 0
18.075000 0.395534 0
18.080000 0.396660 5
18.085000 0.391457 0
18.090000 0.380083 0
18.095000 0.362917 0
18.100000 0.340537 0
18.105000 0.313684 0
18.110000 0.283222 0
18.115000 0.250096 0
18.120000 0.215273 0
18.125000 0.179707 0
18.130000 0.144288 0
18.135000 0.109810 0
18.140000 0.076950 0
18.145000 0.046244 0
18.150000 0.018085 0
18.155000 -0.007272 0
18.160000 -0.029706 0
18.165000 -0.049211 0
18.170000 -0.065876 0
18.175000 -0.079866 0
18.180000 -0.091399 0
18.185000 -0.100727 0
18.190000 -0.108120 0
18.195000 -0.113844 0
18.200000 -0.118161 0
18.205000 -0.121309 0
18.210000 -0.120984 0
18.215000 -0.120072 0
18.220000 -0.119163 0
18.225000 -0.118259 0
18.230000 -0.117356 0
18.235000 -0.116454 0
18.240000 -0.115548 0
18.245000 -0.114630 0
18.250000 -0.113683 0
18.255000 -0.112679 0
18.260000 -0.111572 0
18.265000 -0.110282 0
18.270000 -0.108688 0
18.275000 -0.106603 0
18.280000 -0.103762 0
18.285000 -0.099803 0
18.290000 -0.094259 0
18.295000 -0.086564 0
18.300000 -0.076086 0
18.305000 -0.062184 0
18.310000 -0.044300 0
18.315000 -0.022083 0
18.320000 0.004485 0
18.325000 0.034957 0
18.330000 0.068345 0
18.335000 0.103098 0
18.340000 0.137181 0
18.345000 0.168245 0
18.350000 0.193888 0
18.355000 0.211954 0
18.360000 0.220834 1
18.365000 0.219699 0
18.370000 0.208631 0
18.375000 0.188613 0
18.380000 0.161378 0
18.385000 0.129156 0
18.390000 0.094310 0
18.395000 0.058828 0
18.400000 0.023529 0
18.405000 -0.013067 0
18.410000 -0.055420 0
18.415000 -0.109140 0
18.420000 -0.174765 0
18.425000 -0.239563 0
18.430000 -0.274634 2
18.435000 -0.241708 0
18.440000 -0.105244 0
18.445000 0.153452 0
18.450000 0.513788 0
18.455000 0.891155 0
18.460000 1.148035 0
18.465000 1.166633 3
18.470000 0.932779 0
18.475000 0.547404 0
18.480000 0.152241 0
18.485000 -0.149711 0
18.490000 -0.317477 0
18.495000 -0.356745 4
18.500000 -0.302575 0
18.505000 -0.204219 0
18.510000 -0.105177 0
18.515000 -0.027750 0
18.520000 0.026813 0
18.525000 0.067149 0
18.530000 0.101709 0
18.535000 0.135160 0
18.540000 0.169058 0
18.545000 0.203385 0
18.550000 0.237502 0
18.555000 0.270554 0
18.560000 0.301602 0
18.565000 0.329693 0
18.570000 0.353912 0
18.575000 0.373427 0
18.580000 0.387538 0
18.585000 0.395718 0
18.590000 0.397643 5
18.595000 0.393215 0
18.600000 0.382566 0
18.605000 0.366049 0
18.610000 0.344225 0
18.615000 0.317822 0
18.620000 0.287701 0
18.625000 0.254802 0
18.630000 0.220101 0
18.635000 0.184561 0
18.640000 0.149084 0
18.645000 0.114483 0
18.650000 0.081447 0
18.655000 0.050531 0
18.660000 0.022143 0
18.665000 -0.003450 0
18.670000 -0.026117 0
18.675000 -0.045842 0
18.680000 -0.062710 0
18.685000 -0.076880 0
18.690000 -0.088572 0
18.695000 -0.098035 0
18.700000 -0.105540 0
18.705000 -0.111358 0
18.710000 -0.115750 0
18.715000 -0.118959 0
18.720000 -0.120746 0
18.725000 -0.119834 0
18.730000 -0.118927 0
18.735000 -0.118024 0
18.740000 -0.117123 0
18.745000 -0.116222 0
18.750000 -0.115318 0
18.755000 -0.114401 0
18.760000 -0.113455 0
18.765000 -0.112454 0
18.770000 -0.111350 0
18.775000 -0.110063 0
18.780000 -0.108471 0
18.785000 -0.106389 0
18.790000 -0.103547 0
18.795000 -0.099583 0
18.800000 -0.094025 0
18.805000 -0.086304 0
18.810000 -0.075782 0
18.815000 -0.061815 0
18.820000 -0.043844 0
18.825000 -0.021521 0
18.830000 0.005161 0
18.835000 0.035740 0
18.840000 0.069203 0
18.845000 0.103972 0
18.850000 0.137982 0
18.855000 0.168864 0
18.860000 0.194203 0
18.865000 0.211849 0
18.870000 0.220216 1
18.875000 0.218518 0
18.880000 0.206889 0
18.885000 0.186366 0
18.890000 0.158736 0
18.895000 0.126262 0
18.900000 0.091314 0
18.905000 0.055841 0
18.910000 0.020532 0
18.915000 -0.016329 0
18.920000 -0.059449 0
18.925000 -0.114337 0
18.930000 -0.180665 0
18.935000 -0.244109 0
18.940000 -0.274266 2
18.945000 -0.232336 0
18.950000 -0.083557 0
18.955000 0.188004 0
18.960000 0.555648 0
18.965000 0.926685 0
18.970000 1.160366 3
18.975000 1.146768 0
18.980000 0.887405 0
18.985000 0.493484 0
18.990000 0.105476 0
18.995000 -0.181073 0
19.000000 -0.331994 0
19.005000 -0.357385 4
19.010000 -0.294982 0
19.015000 -0.194500 0
19.020000 -0.097416 0
19.025000 -0.023081 0
19.030000 0.029179 0
19.035000 0.068411 0
19.040000 0.102672 0
19.045000 0.136156 0
19.050000 0.170145 0
19.055000 0.204503 0
19.060000 0.238551 0
19.065000 0.271416 0
19.070000 0.302155 0
19.075000 0.329816 0
19.080000 0.353490 0
19.085000 0.372360 0
19.090000 0.385746 0
19.095000 0.393145 0
19.100000 0.394261 5
19.105000 0.389025 0
19.110000 0.377599 0
19.115000 0.360367 0
19.120000 0.337912 0
19.125000 0.310983 0
19.130000 0.280454 0
19.135000 0.247275 0
19.140000 0.212424 0
19.145000 0.176856 0
19.150000 0.141467 0
19.155000 0.107052 0
19.160000 0.074287 0
19.165000 0.043705 0
19.170000 0.015696 0
19.175000 -0.009493 0
19.180000 -0.031745 0
19.185000 -0.051061 0
19.190000 -0.067536 0
19.195000 -0.081340 0
19.200000 -0.092697 0
19.205000 -0.101862 0
19.210000 -0.109105 0
19.215000 -0.114697 0
19.220000 -0.118898 0
19.225000 -0.121947 0
19.230000 -0.121605 0
19.235000 -0.120689 0
19.240000 -0.119778 0
19.245000 -0.118870 0
19.250000 -0.117965 0
19.255000 -0.117059 0
19.260000 -0.116148 0
19.265000 -0.115224 0
19.270000 -0.114268 0
19.275000 -0.113251 0
19.280000 -0.112121 0
19.285000 -0.110795 0
19.290000 -0.109141 0
19.295000 -0.106963 0
19.300000 -0.103981 0
19.305000 -0.099813 0
19.310000 -0.093974 0
19.315000 -0.085882 0
19.320000 -0.074893 0
19.325000 -0.060368 0
19.330000 -0.041771 0
19.335000 -0.018795 0
19.340000 0.008506 0
19.345000 0.039592 0
19.350000 0.073365 0
19.355000 0.108166 0
19.360000 0.141871 0
19.365000 0.172083 0
19.370000 0.196405 0
19.375000 0.212752 0
19.380000 0.219645 1
19.385000 0.216428 0
19.390000 0.203378 0
19.395000 0.181658 0
19.400000 0.153147 0
19.405000 0.120154 0
19.410000 0.085025 0
19.415000 0.049583 0
19.420000 0.014226 0
19.425000 -0.023217 0
19.430000 -0.067828 0
19.435000 -0.124758 0
19.440000 -0.192000 0
19.445000 -0.252626 0
19.450000 -0.274205 2
19.455000 -0.217696 0
19.460000 -0.050125 0
19.465000 0.239658 0
19.470000 0.615707 0
19.475000 0.974913 0
19.480000 1.174914 3
19.485000 1.120049 0
19.490000 0.831620 0
19.495000 0.430298 0
19.500000 0.052293 0
19.505000 -0.216526 0
19.510000 -0.349501 0
19.515000 -0.361093 4
19.520000 -0.291216 0
19.525000 -0.189275 0
19.530000 -0.094232 0
19.535000 -0.022595 0
19.540000 0.027847 0
19.545000 0.066295 0
19.550000 0.100382 0
19.555000 0.133917 0
19.560000 0.167982 0
19.565000 0.202370 0
19.570000 0.236382 0
19.575000 0.269144 0
19.580000 0.299719 0
19.585000 0.327165 0
19.590000 0.350586 0
19.595000 0.369177 0
19.600000 0.382276 0
19.605000 0.389392 0
19.610000 0.390246 5
19.615000 0.384777 0
19.620000 0.373155 0
19.625000 0.355770 0
19.630000 0.333203 0
19.635000 0.306204 0
19.640000 0.275639 0
19.645000 0.242452 0
19.650000 0.207612 0
19.655000 0.172065 0
19.660000 0.136700 0
19.665000 0.102305 0
19.670000 0.069548 0
19.675000 0.038962 0
19.680000 0.010933 0
19.685000 -0.014291 0
19.690000 -0.036592 0
19.695000 -0.055968 0
19.700000 -0.072511 0
19.705000 -0.086387 0
19.710000 -0.097816 0
19.715000 -0.107051 0
19.720000 -0.114360 0
19.725000 -0.120010 0
19.730000 -0.124260 0
19.735000 -0.127350 0
19.740000 -0.126991 0
19.745000 -0.126048 0
19.750000 -0.125110 0
19.755000 -0.124176 0
19.760000 -0.123244 0
19.765000 -0.122313 0
19.770000 -0.121377 0
19.775000 -0.120429 0
19.780000 -0.119452 0
19.785000 -0.118418 0
19.790000 -0.117280 0
19.795000 -0.115958 0
19.800000 -0.114328 0
19.805000 -0.112205 0
19.810000 -0.109323 0
19.815000 -0.105318 0
19.820000 -0.099722 0
19.825000 -0.091969 0
19.830000 -0.081428 0
19.835000 -0.067459 0
19.840000 -0.049508 0
19.845000 -0.027224 0
19.850000 -0.000596 0
19.855000 0.029928 0
19.860000 0.063356 0
19.865000 0.098138 0
19.870000 0.132237 0
19.875000 0.163311 0
19.880000 0.188959 0
19.885000 0.207031 0
19.890000 0.215922 1
19.895000 0.214806 0
19.900000 0.203765 0
19.905000 0.183780 0
19.910000 0.156581 0
19.915000 0.124394 0
19.920000 0.089578 0
19.925000 0.054120 0
19.930000 0.018846 0
19.935000 -0.017706 0
19.940000 -0.059974 0
19.945000 -0.113566 0
19.950000 -0.179096 0
19.955000 -0.243991 0
19.960000 -0.279534 2
19.965000 -0.247554 0
19.970000 -0.112467 0
19.975000 0.144706 0
19.980000 0.504094 0
19.985000 0.882157 0
19.990000 1.141969 0
19.995000 1.164887 3
20.000000 0.936145 0
20.005000 0.553535 0
20.010000 0.156049 0
20.015000 -0.152838 0
20.020000 -0.329903 0
20.025000 -0.378261 4
20.030000 -0.330457 0
20.035000 -0.234205 0
20.040000 -0.133556 0
20.045000 -0.052953 0
20.050000 0.004355 0
20.055000 0.046238 0
20.060000 0.081367 0
20.065000 0.114904 0
20.070000 0.148765 0
20.075000 0.183118 0
20.080000 0.217409 0
20.085000 0.250830 0
20.090000 0.282473 0
20.095000 0.311406 0
20.100000 0.336719 0
20.105000 0.357576 0
20.110000 0.373254 0
20.115000 0.383190 0
20.120000 0.387009 5
20.125000 0.384550 0
20.130000 0.375874 0
20.135000 0.361261 0
20.140000 0.341198 0
20.145000 0.316345 0
20.150000 0.287505 0
20.155000 0.255574 0
20.160000 0.221502 0
20.165000 0.186239 0
20.170000 0.150696 0
20.175000 0.115706 0
20.180000 0.081996 0
20.185000 0.050165 0
20.190000 0.020675 0
20.195000 -0.006151 0
20.200000 -0.030128 0
20.205000 -0.051188 0
20.210000 -0.069370 0
20.215000 -0.084798 0
20.220000 -0.097658 0
20.225000 -0.108183 0
20.230000 -0.116628 0
20.235000 -0.123261 0
20.240000 -0.128342 0
20.245000 -0.132121 0
20.250000 -0.134826 0
20.255000 -0.134378 0
20.260000 -0.133399 0
20.265000 -0.132424 0
20.270000 -0.131452 0
20.275000 -0.130483 0
20.280000 -0.129514 0
20.285000 -0.128538 0
20.290000 -0.127547 0
20.295000 -0.126521 0
20.300000 -0.125427 0
20.305000 -0.124212 0
20.310000 -0.122788 0
20.315000 -0.121017 0
20.320000 -0.118699 0
20.325000 -0.115548 0
20.330000 -0.111183 0
20.335000 -0.105117 0
20.340000 -0.096775 0
20.345000 -0.085526 0
20.350000 -0.070748 0
20.355000 -0.051927 0
20.360000 -0.028772 0
20.365000 -0.001349 0
20.370000 0.029806 0
20.375000 0.063616 0
20.380000 0.098463 0
20.385000 0.132279 0
20.390000 0.162724 0
20.395000 0.187451 0
20.400000 0.204397 0
20.405000 0.212071 1
20.410000 0.209769 0
20.415000 0.197681 0
20.420000 0.176865 0
20.425000 0.149096 0
20.430000 0.116596 0
20.435000 0.081683 0
20.440000 0.046257 0
20.445000 0.011002 0
20.450000 -0.025716 0
20.455000 -0.068440 0
20.460000 -0.122637 0
20.465000 -0.188474 0
20.470000 -0.252911 0
20.475000 -0.287148 2
20.480000 -0.253446 0
20.485000 -0.116880 0
20.490000 0.140975 0
20.495000 0.500298 0
20.500000 0.878844 0
20.505000 1.141734 0
20.510000 1.170817 3
20.515000 0.948350 0
20.520000 0.568583 0
20.525000 0.169329 0
20.530000 -0.144718 0
20.535000 -0.328345 0
20.540000 -0.382884 4
20.545000 -0.339372 0
20.550000 -0.244685 0
20.555000 -0.143270 0
20.560000 -0.060881 0
20.565000 -0.001978 0
20.570000 0.040817 0
20.575000 0.076280 0
20.580000 0.109853 0
20.585000 0.143668 0
20.590000 0.177997 0
20.595000 0.212338 0
20.600000 0.245906 0
20.605000 0.277809 0
20.610000 0.307123 0
20.615000 0.332942 0
20.620000 0.354427 0
20.625000 0.370845 0
20.630000 0.381614 0
20.635000 0.386337 5
20.640000 0.384821 0
20.645000 0.377094 0
20.650000 0.363402 0
20.655000 0.344194 0
20.660000 0.320101 0
20.665000 0.291894 0
20.670000 0.260452 0
20.675000 0.226706 0
20.680000 0.191602 0
20.685000 0.156052 0
20.690000 0.120899 0
20.695000 0.086885 0
20.700000 0.054632 0
20.705000 0.024624 0
20.710000 -0.002790 0
20.715000 -0.027397 0
20.720000 -0.049106 0
20.725000 -0.067934 0
20.730000 -0.083985 0
20.735000 -0.097431 0
20.740000 -0.108494 0
20.745000 -0.117422 0
20.750000 -0.124479 0
20.755000 -0.129926 0
20.760000 -0.134013 0
20.765000 -0.136973 0
20.770000 -0.136555 0
20.775000 -0.135565 0
20.780000 -0.134579 0
20.785000 -0.133597 0
20.790000 -0.132619 0
20.795000 -0.131640 0
20.800000 -0.130658 0
20.805000 -0.129664 0
20.810000 -0.128643 0
20.815000 -0.127566 0
20.820000 -0.126390 0
20.825000 -0.125037 0
20.830000 -0.123392 0
20.835000 -0.121278 0
20.840000 -0.118442 0
20.845000 -0.114540 0
20.850000 -0.109126 0
20.855000 -0.101660 0
20.860000 -0.091529 0
20.865000 -0.078106 0
20.870000 -0.060828 0
20.875000 -0.039311 0
20.880000 -0.013474 0
20.885000 0.016343 0
20.890000 0.049285 0
20.895000 0.083952 0
20.900000 0.118455 0
20.905000 0.150558 0
20.910000 0.177904 0
20.915000 0.198299 0
20.920000 0.210000 0
20.925000 0.211963 1
20.930000 0.203995 0
20.935000 0.186788 0
20.940000 0.161817 0
20.945000 0.131127 0
20.950000 0.097024 0
20.955000 0.061653 0
20.960000 0.026360 0
20.965000 -0.009282 0
20.970000 -0.048469 0
20.975000 -0.096695 0
20.980000 -0.157622 0
20.985000 -0.225410 0
20.990000 -0.278780 0
20.995000 -0.283338 2
21.000000 -0.201593 0
21.005000 -0.005144 0
21.010000 0.308758 0
21.015000 0.691987 0
21.020000 1.032635 0
21.025000 1.193632 3
21.030000 1.097412 0
21.035000 0.783435 0
21.040000 0.377862 0
21.045000 0.009989 0
21.050000 -0.243864 0
21.055000 -0.363196 0
21.060000 -0.365355 4
21.065000 -0.291012 0
21.070000 -0.188454 0
21.075000 -0.094511 0
21.080000 -0.024012 0
21.085000 0.025834 0
21.090000 0.064101 0
21.095000 0.098171 0
21.100000 0.131717 0
21.105000 0.165788 0
21.110000 0.200184 0
21.115000 0.234226 0
21.120000 0.267061 0
21.125000 0.297774 0
21.130000 0.325442 0
21.135000 0.349185 0
21.140000 0.368209 0
21.145000 0.381850 0
21.150000 0.389614 0
21.155000 0.391203 5
21.160000 0.386533 0
21.165000 0.375743 0
21.170000 0.359184 0
21.175000 0.337401 0
21.180000 0.311102 0
21.185000 0.281120 0
21.190000 0.248367 0
21.195000 0.213791 0
21.200000 0.178325 0
21.205000 0.142854 0
21.210000 0.108173 0
21.215000 0.074968 0
21.220000 0.043790 0
21.225000 0.015056 0
21.230000 -0.010956 0
21.235000 -0.034097 0
21.240000 -0.054333 0
21.245000 -0.071729 0
21.250000 -0.086428 0
21.255000 -0.098629 0
21.260000 -0.108572 0
21.265000 -0.116515 0
21.270000 -0.122723 0
21.275000 -0.127451 0
21.280000 -0.130943 0
21.285000 -0.132916 0
21.290000 -0.131944 0
21.295000 -0.130977 0
21.300000 -0.130014 0
21.305000 -0.129054 0
21.310000 -0.128096 0
21.315000 -0.127137 0
21.320000 -0.126170 0
21.325000 -0.125183 0
21.330000 -0.124156 0
21.335000 -0.123053 0
21.340000 -0.121813 0
21.345000 -0.120341 0
21.350000 -0.118488 0
21.355000 -0.116041 0
21.360000 -0.112697 0
21.365000 -0.108057 0
21.370000 -0.101621 0
21.375000 -0.092803 0
21.380000 -0.080974 0
21.385000 -0.065528 0
21.390000 -0.045984 0
21.395000 -0.022105 0
21.400000 0.005971 0
21.405000 0.037627 0
21.410000 0.071708 0
21.415000 0.106527 0
21.420000 0.139978 0
21.425000 0.169720 0
21.430000 0.193445 0
21.435000 0.209171 0
21.440000 0.215516 1
21.445000 0.211895 0
21.450000 0.198615 0
21.455000 0.176826 0
21.460000 0.148359 0
21.465000 0.115452 0
21.470000 0.080389 0
21.475000 0.044967 0
21.480000 0.009675 0
21.485000 -0.027403 0
21.490000 -0.071017 0
21.495000 -0.126430 0
21.500000 -0.192917 0
21.505000 -0.256136 0
21.510000 -0.286382 2
21.515000 -0.245969 0
21.520000 -0.100950 0
21.525000 0.165089 0
21.530000 0.528896 0
21.535000 0.904559 0
21.540000 1.156680 0
21.545000 1.171665 3
21.550000 0.937374 0
21.555000 0.552472 0
21.560000 0.156398 0
21.565000 -0.148673 0
21.570000 -0.321121 0
21.575000 -0.365325 4
21.580000 -0.314788 0
21.585000 -0.217657 0
21.590000 -0.117602 0
21.595000 -0.038172 0
21.600000 0.018132 0
21.605000 0.059442 0
21.610000 0.094340 0
21.615000 0.127812 0
21.620000 0.161652 0
21.625000 0.195965 0
21.630000 0.230175 0
21.635000 0.263458 0
21.640000 0.294901 0
21.645000 0.323566 0
21.650000 0.348545 0
21.655000 0.369003 0
21.660000 0.384225 0
21.665000 0.393657 0
21.670000 0.396940 5
21.675000 0.393927 0
21.680000 0.384699 0
21.685000 0.369555 0
21.690000 0.348998 0
21.695000 0.323708 0
21.700000 0.294498 0
21.705000 0.262279 0
21.710000 0.228003 0
21.715000 0.192624 0
21.720000 0.157050 0
21.725000 0.122110 0
21.730000 0.088521 0
21.735000 0.056870 0
21.740000 0.027607 0
21.745000 0.001039 0
21.750000 -0.022659 0
21.755000 -0.043434 0
21.760000 -0.061335 0
21.765000 -0.076495 0
21.770000 -0.089108 0
21.775000 -0.099410 0
21.780000 -0.107662 0
21.785000 -0.114131 0
21.790000 -0.119078 0
21.795000 -0.122751 0
21.800000 -0.124857 0
21.805000 -0.123926 0
21.810000 -0.122998 0
21.815000 -0.122075 0
21.820000 -0.121155 0
21.825000 -0.120237 0
21.830000 -0.119317 0
21.835000 -0.118390 0
21.840000 -0.117445 0
21.845000 -0.116460 0
21.850000 -0.115401 0
21.855000 -0.114209 0
21.860000 -0.112788 0
21.865000 -0.110993 0
21.870000 -0.108607 0
21.875000 -0.105330 0
21.880000 -0.100760 0
21.885000 -0.094394 0
21.890000 -0.085638 0
21.895000 -0.073857 0
21.900000 -0.058437 0
21.905000 -0.038890 0
21.910000 -0.014983 0
21.915000 0.013142 0
21.920000 0.044848 0
21.925000 0.078950 0
21.930000 0.113728 0
21.935000 0.147034 0
21.940000 0.176496 0
21.945000 0.199787 0
21.950000 0.214930 0
21.955000 0.220571 1
21.960000 0.216179 0
21.965000 0.202130 0
21.970000 0.179654 0
21.975000 0.150649 0
21.980000 0.117404 0
21.985000 0.082206 0
21.990000 0.046781 0
21.995000 0.011404 0
22.000000 -0.026208 0
22.005000 -0.071135 0
22.010000 -0.128357 0
22.015000 -0.195660 0
22.020000 -0.256211 0
22.025000 -0.278109 2
22.030000 -0.223015 0
22.035000 -0.058354 0
22.040000 0.227631 0
22.045000 0.601699 0
22.050000 0.965317 0
22.055000 1.178818 3
22.060000 1.141363 0
22.065000 0.864840 0
22.070000 0.466221 0
22.075000 0.083735 0
22.080000 -0.192645 0
22.085000 -0.333161 0
22.090000 -0.350489 4
22.095000 -0.283679 0
22.100000 -0.182320 0
22.105000 -0.086448 0
22.110000 -0.013746 0
22.115000 0.037385 0
22.120000 0.076100 0
22.125000 0.110209 0
22.130000 0.143677 0
22.135000 0.177668 0
22.140000 0.212000 0
22.145000 0.245984 0
22.150000 0.278744 0
22.155000 0.309340 0
22.160000 0.336826 0
22.165000 0.360301 0
22.170000 0.378956 0
22.175000 0.392118 0
22.180000 0.399295 0
22.185000 0.400200 5
22.190000 0.394769 0
22.195000 0.383170 0
22.200000 0.365790 0
22.205000 0.343213 0
22.210000 0.316189 0
22.215000 0.285587 0
22.220000 0.252356 0
22.225000 0.217466 0
22.230000 0.181870 0
22.235000 0.146457 0
22.240000 0.112021 0
22.245000 0.079230 0
22.250000 0.048617 0
22.255000 0.020570 0
22.260000 -0.004664 0
22.265000 -0.026968 0
22.270000 -0.046342 0
22.275000 -0.062880 0
22.280000 -0.076750 0
22.285000 -0.088174 0
22.290000 -0.097406 0
22.295000 -0.104714 0
22.300000 -0.110368 0
22.305000 -0.114627 0
22.310000 -0.117729 0
22.315000 -0.117413 0
22.320000 -0.116519 0
22.325000 -0.115628 0
22.330000 -0.114741 0
22.335000 -0.113856 0
22.340000 -0.112971 0
22.345000 -0.112082 0
22.350000 -0.111179 0
22.355000 -0.110245 0
22.360000 -0.109253 0
22.365000 -0.108152 0
22.370000 -0.106861 0
22.375000 -0.105253 0
22.380000 -0.103137 0
22.385000 -0.100240 0
22.390000 -0.096190 0
22.395000 -0.090511 0
22.400000 -0.082629 0
22.405000 -0.071908 0
22.410000 -0.057706 0
22.415000 -0.039480 0
22.420000 -0.016897 0
22.425000 0.010021 0
22.430000 0.040785 0
22.435000 0.074352 0
22.440000 0.109120 0
22.445000 0.143011 0
22.450000 0.173657 0
22.455000 0.198658 0
22.460000 0.215892 0
22.465000 0.223814 1
22.470000 0.221677 0
22.475000 0.209654 0
22.480000 0.188812 0
22.485000 0.160953 0
22.490000 0.128343 0
22.495000 0.093337 0
22.500000 0.057853 0
22.505000 0.022523 0
22.510000 -0.014440 0
22.515000 -0.057788 0
22.520000 -0.112969 0
22.525000 -0.179444 0
22.530000 -0.242635 0
22.535000 -0.272031 2
22.540000 -0.228951 0
22.545000 -0.078905 0
22.550000 0.193676 0
22.555000 0.561722 0
22.560000 0.932471 0
22.565000 1.165633 3
22.570000 1.151572 0
22.575000 0.891481 0
22.580000 0.497222 0
22.585000 0.109672 0
22.590000 -0.175727 0
22.595000 -0.325170 0
22.600000 -0.349173 4
22.605000 -0.285877 0
22.610000 -0.185204 0
22.615000 -0.088483 0
22.620000 -0.014697 0
22.625000 0.037127 0
22.630000 0.076124 0
22.635000 0.110293 0
22.640000 0.143750 0
22.645000 0.177724 0
22.650000 0.212052 0
22.655000 0.246043 0
22.660000 0.278817 0
22.665000 0.309425 0
22.670000 0.336915 0
22.675000 0.360375 0
22.680000 0.378990 0
22.685000 0.392084 0
22.690000 0.399161 0
22.695000 0.399936 5
22.700000 0.394349 0
22.705000 0.382576 0
22.710000 0.365011 0
22.715000 0.342252 0
22.720000 0.315058 0
22.725000 0.284313 0
22.730000 0.250972 0
22.735000 0.216016 0
22.740000 0.180404 0
22.745000 0.145028 0
22.750000 0.110679 0
22.755000 0.078024 0
22.760000 0.047590 0
22.765000 0.019758 0
22.770000 -0.005236 0
22.775000 -0.027284 0
22.780000 -0.046394 0
22.785000 -0.062670 0
22.790000 -0.076287 0
22.795000 -0.087473 0
22.800000 -0.096486 0
22.805000 -0.103599 0
22.810000 -0.109082 0
22.815000 -0.113194 0
22.820000 -0.116174 0
22.825000 -0.115845 0
22.830000 -0.114958 0
22.835000 -0.114075 0
22.840000 -0.113196 0
22.845000 -0.112318 0
22.850000 -0.111440 0
22.855000 -0.110556 0
22.860000 -0.109656 0
22.865000 -0.108723 0
22.870000 -0.107723 0
22.875000 -0.106602 0
22.880000 -0.105272 0
22.885000 -0.103593 0
22.890000 -0.101359 0
22.895000 -0.098277 0
22.900000 -0.093953 0
22.905000 -0.087884 0
22.910000 -0.079476 0
22.915000 -0.068078 0
22.920000 -0.053058 0
22.925000 -0.033899 0
22.930000 -0.010336 0
22.935000 0.017517 0
22.940000 0.049042 0
22.945000 0.083054 0
22.950000 0.117813 0
22.955000 0.151132 0
22.960000 0.180587 0
22.965000 0.203800 0
22.970000 0.218750 0
22.975000 0.224068 1
22.980000 0.219240 0
22.985000 0.204688 0
22.990000 0.181710 0
22.995000 0.152282 0
23.000000 0.118759 0
23.005000 0.083455 0
23.010000 0.048033 0
23.015000 0.012538 0
23.020000 -0.025740 0
23.025000 -0.072241 0
23.030000 -0.131505 0
23.035000 -0.199327 0
23.040000 -0.255681 0
23.045000 -0.265955 2
23.050000 -0.191105 0
23.055000 -0.000667 0
23.060000 0.309947 0
23.065000 0.692695 0
23.070000 1.032361 0
23.075000 1.187311 3
23.080000 1.080183 0
23.085000 0.756861 0
23.090000 0.350243 0
23.095000 -0.009023 0
23.100000 -0.247947 0
23.105000 -0.350557 4
23.110000 -0.338645 0
23.115000 -0.256567 0
23.120000 -0.153562 0
23.125000 -0.063913 0
23.130000 0.001413 0
23.135000 0.047659 0
23.140000 0.084273 0
23.145000 0.117929 0
23.150000 0.151545 0
23.155000 0.185720 0
23.160000 0.220042 0
23.165000 0.253732 0
23.170000 0.285877 0
23.175000 0.315522 0
23.180000 0.341720 0
23.185000 0.363591 0
23.190000 0.380362 0
23.195000 0.391417 0
23.200000 0.396330 5
23.205000 0.394893 0
23.210000 0.387130 0
23.215000 0.373294 0
23.220000 0.353855 0
23.225000 0.329470 0
23.230000 0.300947 0
23.235000 0.269201 0
23.240000 0.235203 0
23.245000 0.199930 0
23.250000 0.164321 0
23.255000 0.129238 0
23.260000 0.095431 0
23.265000 0.063518 0
23.270000 0.033976 0
23.275000 0.007134 0
23.280000 -0.016818 0
23.285000 -0.037815 0
23.290000 -0.055901 0
23.295000 -0.071207 0
23.300000 -0.083929 0
23.305000 -0.094308 0
23.310000 -0.102608 0
23.315000 -0.109104 0
23.320000 -0.114062 0
23.325000 -0.117736 0
23.330000 -0.119842 0
23.335000 -0.118935 0
23.340000 -0.118033 0
23.345000 -0.117134 0
23.350000 -0.116239 0
23.355000 -0.115345 0
23.360000 -0.114449 0
23.365000 -0.113544 0
23.370000 -0.112619 0
23.375000 -0.111650 0
23.380000 -0.110599 0
23.385000 -0.109402 0
23.390000 -0.107952 0
23.395000 -0.106091 0
23.400000 -0.103583 0
23.405000 -0.100102 0
23.410000 -0.095214 0
23.415000 -0.088384 0
23.420000 -0.078992 0
23.425000 -0.066382 0
23.430000 -0.049949 0
23.435000 -0.029251 0
23.440000 -0.004137 0
23.445000 0.025111 0
23.450000 0.057684 0
23.455000 0.092196 0
23.460000 0.126733 0
23.465000 0.158998 0
23.470000 0.186547 0
23.475000 0.207091 0
23.480000 0.218809 0
23.485000 0.220611 1
23.490000 0.212308 0
23.495000 0.194642 0
23.500000 0.169176 0
23.505000 0.138058 0
23.510000 0.103682 0
23.515000 0.068220 0
23.520000 0.032901 0
23.525000 -0.003079 0
23.530000 -0.043516 0
23.535000 -0.094194 0
23.540000 -0.157622 0
23.545000 -0.224584 0
23.550000 -0.269272 2
23.555000 -0.254111 0
23.560000 -0.141520 0
23.565000 0.092398 0
23.570000 0.437147 0
23.575000 0.820884 0
23.580000 1.110987 0
23.585000 1.177408 3
23.590000 0.983835 0
23.595000 0.615191 0
23.600000 0.212344 0
23.605000 -0.111560 0
23.610000 -0.304969 0
23.615000 -0.366412 4
23.620000 -0.326366 0
23.625000 -0.232614 0
23.630000 -0.131149 0
23.635000 -0.048800 0
23.640000 0.009785 0
23.645000 0.052234 0
23.650000 0.087496 0
23.655000 0.121006 0
23.660000 0.154817 0
23.665000 0.189130 0
23.670000 0.223393 0
23.675000 0.256783 0
23.680000 0.288377 0
23.685000 0.317223 0
23.690000 0.342398 0
23.695000 0.363050 0
23.700000 0.378451 0
23.705000 0.388034 0
23.710000 0.391429 5
23.715000 0.388486 0
23.720000 0.379282 0
23.725000 0.364123 0
23.730000 0.343519 0
23.735000 0.318161 0
23.740000 0.288877 0
23.745000 0.256592 0
23.750000 0.222272 0
23.755000 0.186883 0
23.760000 0.151343 0
23.765000 0.116486 0
23.770000 0.083032 0
23.775000 0.051567 0
23.780000 0.022534 0
23.785000 -0.003764 0
23.790000 -0.027164 0
23.795000 -0.047621 0
23.800000 -0.065197 0
23.805000 -0.080032 0
23.810000 -0.092331 0
23.815000 -0.102336 0
23.820000 -0.110314 0
23.825000 -0.116535 0
23.830000 -0.121262 0
23.835000 -0.124744 0
23.840000 -0.126711 0
23.845000 -0.125770 0
23.850000 -0.124833 0
23.855000 -0.123900 0
23.860000 -0.122971 0
23.865000 -0.122043 0
23.870000 -0.121112 0
23.875000 -0.120173 0
23.880000 -0.119210 0
23.885000 -0.118203 0
23.890000 -0.117109 0
23.895000 -0.115861 0
23.900000 -0.114352 0
23.905000 -0.112417 0
23.910000 -0.109818 0
23.915000 -0.106222 0
23.920000 -0.101194 0
23.925000 -0.094194 0
23.930000 -0.084605 0
23.935000 -0.071779 0
23.940000 -0.055119 0
23.945000 -0.034197 0
23.950000 -0.008882 0
23.955000 0.020530 0
23.960000 0.053215 0
23.965000 0.087782 0
23.970000 0.122321 0
23.975000 0.154548 0
23.980000 0.182039 0
23.985000 0.202530 0
23.990000 0.214220 0
23.995000 0.216033 1
24.000000 0.207784 0
24.005000 0.190204 0
24.010000 0.164840 0
24.015000 0.133817 0
24.020000 0.099508 0
24.025000 0.064077 0
24.030000 0.028778 0
24.035000 -0.007109 0
24.040000 -0.047249 0
24.045000 -0.097373 0
24.050000 -0.160271 0
24.055000 -0.227513 0
24.060000 -0.274302 2
24.065000 -0.263735 0
24.070000 -0.158186 0
24.075000 0.067397 0
24.080000 0.405800 0
24.085000 0.790740 0
24.090000 1.093837 0
24.095000 1.182334 3
24.100000 1.010135 0
24.105000 0.652414 0
24.110000 0.246830 0
24.115000 -0.089523 0
24.120000 -0.299198 0
24.125000 -0.375985 4
24.130000 -0.346779 0
24.135000 -0.257420 0
24.140000 -0.154765 0
24.145000 -0.068641 0
24.150000 -0.006538 0
24.155000 0.037971 0
24.160000 0.074019 0
24.165000 0.107652 0
24.170000 0.141388 0
24.175000 0.175666 0
24.180000 0.210034 0
24.185000 0.243714 0
24.190000 0.275810 0
24.195000 0.305386 0
24.200000 0.331521 0
24.205000 0.353355 0
24.210000 0.370136 0
24.215000 0.381263 0
24.220000 0.386320 5
24.225000 0.385101 0
24.230000 0.377622 0
24.235000 0.364124 0
24.240000 0.345056 0
24.245000 0.321051 0
24.250000 0.292891 0
24.255000 0.261462 0
24.260000 0.227711 0
24.265000 0.192594 0
24.270000 0.157037 0
24.275000 0.121893 0
24.280000 0.087911 0
24.285000 0.055718 0
24.290000 0.025801 0
24.295000 -0.001493 0
24.300000 -0.025954 0
24.305000 -0.047497 0
24.310000 -0.066143 0
24.315000 -0.082004 0
24.320000 -0.095260 0
24.325000 -0.106137 0
24.330000 -0.114889 0
24.335000 -0.121785 0
24.340000 -0.127086 0
24.345000 -0.131047 0
24.350000 -0.133898 0
24.355000 -0.133477 0
24.360000 -0.132502 0
24.365000 -0.131531 0
24.370000 -0.130565 0
24.375000 -0.129601 0
24.380000 -0.128636 0
24.385000 -0.127667 0
24.390000 -0.126684 0
24.395000 -0.125668 0
24.400000 -0.124591 0
24.405000 -0.123400 0
24.410000 -0.122012 0
24.415000 -0.120297 0
24.420000 -0.118062 0
24.425000 -0.115030 0
24.430000 -0.110831 0
24.435000 -0.104988 0
24.440000 -0.096933 0
24.445000 -0.086035 0
24.450000 -0.071665 0
24.455000 -0.053288 0
24.460000 -0.030586 0
24.465000 -0.003580 0
24.470000 0.027242 0
24.475000 0.060855 0
24.480000 0.095685 0
24.485000 0.129689 0
24.490000 0.160535 0
24.495000 0.185856 0
24.500000 0.203542 0
24.505000 0.212038 1
24.510000 0.210563 0
24.515000 0.199233 0
24.520000 0.179046 0
24.525000 0.151732 0
24.530000 0.119502 0
24.535000 0.084689 0
24.540000 0.049255 0
24.545000 0.014005 0
24.550000 -0.022510 0
24.555000 -0.064673 0
24.560000 -0.118055 0
24.565000 -0.183399 0
24.570000 -0.248572 0
24.575000 -0.285486 2
24.580000 -0.256460 0
24.585000 -0.125963 0
24.590000 0.125808 0
24.595000 0.481542 0
24.600000 0.861931 0
24.605000 1.132922 0
24.610000 1.173193 3
24.615000 0.959504 0
24.620000 0.583366 0
24.625000 0.182507 0
24.630000 -0.136188 0
24.635000 -0.325261 0
24.640000 -0.384541 4
24.645000 -0.344121 0
24.650000 -0.250550 0
24.655000 -0.148742 0
24.660000 -0.065361 0
24.665000 -0.005598 0
24.670000 0.037676 0
24.675000 0.073314 0
24.680000 0.106913 0
24.685000 0.140711 0
24.690000 0.175034 0
24.695000 0.209397 0
24.700000 0.243022 0
24.705000 0.275020 0
24.710000 0.304467 0
24.715000 0.330458 0
24.720000 0.352147 0
24.725000 0.368798 0
24.730000 0.379822 0
24.735000 0.384813 5
24.740000 0.383569 0
24.745000 0.376110 0
24.750000 0.362671 0
24.755000 0.343694 0
24.760000 0.319801 0
24.765000 0.291761 0
24.770000 0.260446 0
24.775000 0.226787 0
24.780000 0.191729 0
24.785000 0.156187 0
24.790000 0.121008 0
24.795000 0.086938 0
24.800000 0.054604 0
24.805000 0.024497 0
24.810000 -0.003030 0
24.815000 -0.027756 0
24.820000 -0.049586 0
24.825000 -0.068533 0
24.830000 -0.084696 0
24.835000 -0.098247 0
24.840000 -0.109403 0
24.845000 -0.118415 0
24.850000 -0.125543 0
24.855000 -0.131050 0
24.860000 -0.135186 0
24.865000 -0.138185 0
24.870000 -0.137768 0
24.875000 -0.136772 0
24.880000 -0.135780 0
24.885000 -0.134793 0
24.890000 -0.133808 0
24.895000 -0.132824 0
24.900000 -0.131837 0
24.905000 -0.130838 0
24.910000 -0.129812 0
24.915000 -0.128734 0
24.920000 -0.127557 0
24.925000 -0.126210 0
24.930000 -0.124576 0
24.935000 -0.122483 0
24.940000 -0.119682 0
24.945000 -0.115834 0
24.950000 -0.110497 0
24.955000 -0.103134 0
24.960000 -0.093138 0
24.965000 -0.079877 0
24.970000 -0.062787 0
24.975000 -0.041470 0
24.980000 -0.015828 0
24.985000 0.013820 0
24.990000 0.046645 0
24.995000 0.081274 0
25.000000 0.115839 0
25.005000 0.148116 0
25.010000 0.175748 0
25.015000 0.196527 0
25.020000 0.208683 0
25.025000 0.211133 1
25.030000 0.203643 0
25.035000 0.186861 0
25.040000 0.162229 0
25.045000 0.131770 0
25.050000 0.097785 0
25.055000 0.062439 0
25.060000 0.027138 0
25.065000 -0.008432 0
25.070000 -0.047321 0
25.075000 -0.094967 0
25.080000 -0.155287 0
25.085000 -0.223097 0
25.090000 -0.277916 0
25.095000 -0.285812 2
25.100000 -0.209172 0
25.105000 -0.018829 0
25.110000 0.289804 0
25.115000 0.671739 0
25.120000 1.017915 0
25.125000 1.190692 3
25.130000 1.107898 0
25.135000 0.803089 0
25.140000 0.398947 0
25.145000 0.025855 0
25.150000 -0.236598 0
25.155000 -0.364961 0
25.160000 -0.374398 4
25.165000 -0.304098 0
25.170000 -0.202136 0
25.175000 -0.106580 0
25.180000 -0.033975 0
25.185000 0.017386 0
25.190000 0.056380 0
25.195000 0.090660 0
25.200000 0.124202 0
25.205000 0.158235 0
25.210000 0.192644 0
25.215000 0.226783 0
25.220000 0.259819 0
25.225000 0.290845 0
25.230000 0.318944 0
25.235000 0.343234 0
25.240000 0.362912 0
25.245000 0.377303 0
25.250000 0.385890 0
25.255000 0.388350 5
25.260000 0.384571 0
25.265000 0.374661 0
25.270000 0.358937 0
25.275000 0.337915 0
25.280000 0.312277 0
25.285000 0.282832 0
25.290000 0.250478 0
25.295000 0.216153 0
25.300000 0.180790 0
25.305000 0.145278 0
25.310000 0.110426 0
25.315000 0.076932 0
25.320000 0.045370 0
25.325000 0.016180 0
25.330000 -0.010340 0
25.335000 -0.034016 0
25.340000 -0.054795 0
25.345000 -0.072725 0
25.350000 -0.087932 0
25.355000 -0.100606 0
25.360000 -0.110978 0
25.365000 -0.119302 0
25.370000 -0.125839 0
25.375000 -0.130848 0
25.380000 -0.134574 0
25.385000 -0.137239 0
25.390000 -0.136776 0
25.395000 -0.135785 0
25.400000 -0.134798 0
25.405000 -0.133814 0
25.410000 -0.132834 0
25.415000 -0.131852 0
25.420000 -0.130866 0
25.425000 -0.129863 0
25.430000 -0.128827 0
25.435000 -0.127727 0
25.440000 -0.126509 0
25.445000 -0.125089 0
25.450000 -0.123335 0
25.455000 -0.121055 0
25.460000 -0.117974 0
25.465000 -0.113722 0
25.470000 -0.107831 0
25.475000 -0.099741 0
25.480000 -0.088832 0
25.485000 -0.074487 0
25.490000 -0.056179 0
25.495000 -0.033590 0
25.500000 -0.006730 0
25.505000 0.023941 0
25.510000 0.057443 0
25.515000 0.092258 0
25.520000 0.126408 0
25.525000 0.157616 0
25.530000 0.183549 0
25.535000 0.202100 0
25.540000 0.211675 1
25.545000 0.211416 0
25.550000 0.201327 0
25.555000 0.182282 0
25.560000 0.155894 0
25.565000 0.124283 0
25.570000 0.089750 0
25.575000 0.054325 0
25.580000 0.019076 0
25.585000 -0.016927 0
25.590000 -0.057452 0
25.595000 -0.108078 0
25.600000 -0.171241 0
25.605000 -0.238406 0
25.610000 -0.285390 2
25.615000 -0.276471 0
25.620000 -0.175084 0
25.625000 0.043822 0
25.630000 0.375730 0
25.635000 0.761191 0
25.640000 1.079672 0
25.645000 1.198626 3
25.650000 1.058831 0
25.655000 0.718707 0
25.660000 0.311503 0
25.665000 -0.039985 0
25.670000 -0.270035 0
25.675000 -0.366174 4
25.680000 -0.350975 0
25.685000 -0.267972 0
25.690000 -0.164864 0
25.695000 -0.074857 0
25.700000 -0.008823 0
25.705000 0.038089 0
25.710000 0.075077 0
25.715000 0.108843 0
25.720000 0.142444 0
25.725000 0.176596 0
25.730000 0.210964 0
25.735000 0.244816 0
25.740000 0.277280 0
25.745000 0.307431 0
25.750000 0.334349 0
25.755000 0.357164 0
25.760000 0.375103 0
25.765000 0.387533 0
25.770000 0.393997 0
25.775000 0.394239 5
25.780000 0.388225 0
25.785000 0.376138 0
25.790000 0.358376 0
25.795000 0.335523 0
25.800000 0.308321 0
25.805000 0.277626 0
25.810000 0.244365 0
25.815000 0.209490 0
25.820000 0.173930 0
25.825000 0.138555 0
25.830000 0.104139 0
25.835000 0.071339 0
25.840000 0.040679 0
25.845000 0.012545 0
25.850000 -0.012817 0
25.855000 -0.035286 0
25.860000 -0.054852 0
25.865000 -0.071602 0
25.870000 -0.085695 0
25.875000 -0.097341 0
25.880000 -0.106788 0
25.885000 -0.114296 0
25.890000 -0.120131 0
25.895000 -0.124547 0
25.900000 -0.127782 0
25.905000 -0.129582 0
25.910000 -0.128627 0
25.915000 -0.127676 0
25.920000 -0.126729 0
25.925000 -0.125785 0
25.930000 -0.124842 0
25.935000 -0.123897 0
25.940000 -0.122941 0
25.945000 -0.121961 0
25.950000 -0.120932 0
25.955000 -0.119814 0
25.960000 -0.118537 0
25.965000 -0.116992 0
25.970000 -0.115016 0
25.975000 -0.112369 0
25.980000 -0.108723 0
25.985000 -0.103649 0
25.990000 -0.096620 0
25.995000 -0.087029 0
26.000000 -0.074244 0
26.005000 -0.057680 0
26.010000 -0.036912 0
26.015000 -0.011800 0
26.020000 0.017392 0
26.025000 0.049888 0
26.030000 0.084370 0
26.035000 0.119008 0
26.040000 0.151593 0
26.045000 0.179758 0
26.050000 0.201255 0
26.055000 0.214249 0
26.060000 0.217579 1
26.065000 0.210926 0
26.070000 0.194867 0
26.075000 0.170787 0
26.080000 0.140683 0
26.085000 0.106859 0
26.090000 0.071521 0
26.095000 0.036168 0
26.100000 0.000647 0
26.105000 -0.037899 0
26.110000 -0.084846 0
26.115000 -0.144431 0
26.120000 -0.212237 0
26.125000 -0.268628 0
26.130000 -0.280046 2
26.135000 -0.208578 0
26.140000 -0.024149 0
26.145000 0.279552 0
26.150000 0.660104 0
26.155000 1.010374 0
26.160000 1.191726 3
26.165000 1.116942 0
26.170000 0.814921 0
26.175000 0.410905 0
26.180000 0.039030 0
26.185000 -0.219602 0
26.190000 -0.342201 0
26.195000 -0.345734 4
26.200000 -0.271572 0
26.205000 -0.169072 0
26.210000 -0.075681 0
26.215000 -0.006085 0
26.220000 0.042952 0
26.225000 0.080744 0
26.230000 0.114631 0
26.235000 0.148137 0
26.240000 0.182192 0
26.245000 0.216522 0
26.250000 0.250407 0
26.255000 0.282961 0
26.260000 0.313246 0
26.265000 0.340318 0
26.270000 0.363288 0
26.275000 0.381361 0
26.280000 0.393886 0
26.285000 0.400391 0
26.290000 0.400615 5
26.295000 0.394519 0
26.300000 0.382294 0
26.305000 0.364347 0
26.310000 0.341280 0
26.315000 0.313854 0
26.320000 0.282948 0
26.325000 0.249509 0
26.330000 0.214509 0
26.335000 0.178891 0
26.340000 0.143536 0
26.345000 0.109223 0
26.350000 0.076608 0
26.355000 0.046210 0
26.360000 0.018401 0
26.365000 -0.006582 0
26.370000 -0.028636 0
26.375000 -0.047768 0
26.380000 -0.064079 0
26.385000 -0.077742 0
26.390000 -0.088982 0
26.395000 -0.098053 0
26.400000 -0.105224 0
26.405000 -0.110763 0
26.410000 -0.114928 0
26.415000 -0.117955 0
26.420000 -0.117626 0
26.425000 -0.116730 0
26.430000 -0.115839 0
26.435000 -0.114950 0
26.440000 -0.114064 0
26.445000 -0.113178 0
26.450000 -0.112287 0
26.455000 -0.111381 0
26.460000 -0.110444 0
26.465000 -0.109446 0
26.470000 -0.108335 0
26.475000 -0.107029 0
26.480000 -0.105397 0
26.485000 -0.103245 0
26.490000 -0.100296 0
26.495000 -0.096174 0
26.500000 -0.090398 0
26.505000 -0.082392 0
26.510000 -0.071518 0
26.515000 -0.057141 0
26.520000 -0.038724 0
26.525000 -0.015950 0
26.530000 0.011145 0
26.535000 0.042047 0
26.540000 0.075695 0
26.545000 0.110470 0
26.550000 0.144286 0
26.555000 0.174772 0
26.560000 0.199541 0
26.565000 0.216492 0
26.570000 0.224105 1
26.575000 0.221664 0
26.580000 0.209369 0
26.585000 0.188309 0
26.590000 0.160296 0
26.595000 0.127599 0
26.600000 0.092563 0
26.605000 0.057082 0
26.610000 0.021747 0
26.615000 -0.015284 0
26.620000 -0.058798 0
26.625000 -0.114197 0
26.630000 -0.180774 0
26.635000 -0.243740 0
26.640000 -0.272481 2
26.645000 -0.228392 0
26.650000 -0.077188 0
26.655000 0.196383 0
26.660000 0.564860 0
26.665000 0.935255 0
26.670000 1.167538 3
26.675000 1.152321 0
26.680000 0.890828 0
26.685000 0.496006 0
26.690000 0.109277 0
26.695000 -0.174193 0
26.700000 -0.321228 0
26.705000 -0.343015 4
26.710000 -0.278312 0
26.715000 -0.177334 0
26.720000 -0.081152 0
26.725000 -0.008170 0
26.730000 0.043033 0
26.735000 0.081713 0
26.740000 0.115780 0
26.745000 0.149229 0
26.750000 0.183208 0
26.755000 0.217518 0
26.760000 0.251451 0
26.765000 0.284116 0
26.770000 0.314557 0
26.775000 0.341817 0
26.780000 0.364986 0
26.785000 0.383249 0
26.790000 0.395939 0
26.795000 0.402569 0
26.800000 0.402868 5
26.805000 0.396793 0
26.810000 0.384538 0
26.815000 0.366516 0
26.820000 0.343342 0
26.825000 0.315791 0
26.830000 0.284760 0
26.835000 0.251215 0
26.840000 0.216141 0
26.845000 0.180496 0
26.850000 0.145170 0
26.855000 0.110947 0
26.860000 0.078485 0
26.865000 0.048296 0
26.870000 0.020747 0
26.875000 -0.003936 0
26.880000 -0.025662 0
26.885000 -0.044450 0
26.890000 -0.060413 0
26.895000 -0.073737 0
26.900000 -0.084654 0
26.905000 -0.093426 0
26.910000 -0.100329 0
26.915000 -0.105633 0
26.920000 -0.109596 0
26.925000 -0.112456 0
26.930000 -0.112125 0
26.935000 -0.111257 0
26.940000 -0.110392 0
26.945000 -0.109531 0
26.950000 -0.108671 0
26.955000 -0.107810 0
26.960000 -0.106941 0
26.965000 -0.106055 0
26.970000 -0.105130 0
26.975000 -0.104132 0
26.980000 -0.103000 0
26.985000 -0.101638 0
26.990000 -0.099895 0
26.995000 -0.097551 0
27.000000 -0.094294 0
27.005000 -0.089706 0
27.010000 -0.083265 0
27.015000 -0.074358 0
27.020000 -0.062329 0
27.025000 -0.046554 0
27.030000 -0.026553 0
27.035000 -0.002124 0
27.040000 0.026526 0
27.045000 0.058663 0
27.050000 0.092977 0
27.055000 0.127612 0
27.060000 0.160300 0
27.065000 0.188588 0
27.070000 0.210134 0
27.075000 0.223029 0
27.080000 0.226072 1
27.085000 0.218955 0
27.090000 0.202313 0
27.095000 0.177629 0
27.100000 0.147009 0
27.105000 0.112853 0
27.110000 0.077399 0
27.115000 0.042030 0
27.120000 0.006211 0
27.125000 -0.033556 0
27.130000 -0.083040 0
27.135000 -0.145437 0
27.140000 -0.212927 0
27.145000 -0.261054 2
27.150000 -0.252670 0
27.155000 -0.149483 0
27.160000 0.074316 0
27.165000 0.412005 0
27.170000 0.796835 0
27.175000 1.098713 0
27.180000 1.183494 3
27.185000 1.005627 0
27.190000 0.643473 0
27.195000 0.239208 0
27.200000 -0.089519 0
27.205000 -0.287722 0
27.210000 -0.352456 4
27.215000 -0.313980 0
27.220000 -0.220630 0
27.225000 -0.119219 0
27.230000 -0.037060 0
27.235000 0.021201 0
27.240000 0.063369 0
27.245000 0.098475 0
27.250000 0.131929 0
27.255000 0.165719 0
27.260000 0.200002 0
27.265000 0.234193 0
27.270000 0.267447 0
27.275000 0.298821 0
27.280000 0.327352 0
27.285000 0.352105 0
27.290000 0.372223 0
27.295000 0.386981 0
27.300000 0.395824 0
27.305000 0.398400 5
27.310000 0.394585 0
27.315000 0.384489 0
27.320000 0.368452 0
27.325000 0.347023 0
27.330000 0.320925 0
27.335000 0.291022 0
27.340000 0.258261 0
27.345000 0.223628 0
27.350000 0.188100 0
27.355000 0.152593 0
27.360000 0.117934 0
27.365000 0.084826 0
27.370000 0.053835 0
27.375000 0.025377 0
27.380000 -0.000274 0
27.385000 -0.022983 0
27.390000 -0.042734 0
27.395000 -0.059610 0
27.400000 -0.073776 0
27.405000 -0.085450 0
27.410000 -0.094889 0
27.415000 -0.102364 0
27.420000 -0.108149 0
27.425000 -0.112510 0
27.430000 -0.115689 0
27.435000 -0.115392 0
27.440000 -0.114508 0
27.445000 -0.113627 0
27.450000 -0.112750 0
27.455000 -0.111875 0
27.460000 -0.111000 0
27.465000 -0.110121 0
27.470000 -0.109228 0
27.475000 -0.108304 0
27.480000 -0.107320 0
27.485000 -0.106225 0
27.490000 -0.104936 0
27.495000 -0.103321 0
27.500000 -0.101184 0
27.505000 -0.098242 0
27.510000 -0.094113 0
27.515000 -0.088306 0
27.520000 -0.080232 0
27.525000 -0.069240 0
27.530000 -0.054685 0
27.535000 -0.036027 0
27.540000 -0.012962 0
27.545000 0.014443 0
27.550000 0.045627 0
27.555000 0.079457 0
27.560000 0.114234 0
27.565000 0.147792 0
27.570000 0.177700 0
27.575000 0.201546 0
27.580000 0.217252 0
27.585000 0.223374 1
27.590000 0.219320 0
27.595000 0.205444 0
27.600000 0.182994 0
27.605000 0.153922 0
27.610000 0.120584 0
27.615000 0.085330 0
27.620000 0.049894 0
27.625000 0.014440 0
27.630000 -0.023601 0
27.635000 -0.069620 0
27.640000 -0.128364 0
27.645000 -0.196118 0
27.650000 -0.253339 0
27.655000 -0.265530 2
27.660000 -0.193324 0
27.665000 -0.005645 0
27.670000 0.302950 0
27.675000 0.685287 0
27.680000 1.026241 0
27.685000 1.183073 3
27.690000 1.077623 0
27.695000 0.755795 0
27.700000 0.349319 0
27.705000 -0.011414 0
27.710000 -0.252867 0
27.715000 -0.358297 4
27.720000 -0.348723 0
27.725000 -0.267866 0
27.730000 -0.164828 0
27.735000 -0.074369 0
27.740000 -0.008128 0
27.745000 0.038739 0
27.750000 0.075638 0
27.755000 0.109377 0
27.760000 0.143002 0
27.765000 0.177186 0
27.770000 0.211552 0
27.775000 0.245336 0
27.780000 0.277638 0
27.785000 0.307506 0
27.790000 0.334001 0
27.795000 0.356239 0
27.800000 0.373444 0
27.805000 0.384991 0
27.810000 0.390441 5
27.815000 0.389568 0
27.820000 0.382378 0
27.825000 0.369103 0
27.830000 0.350190 0
27.835000 0.326277 0
27.840000 0.298155 0
27.845000 0.266725 0
27.850000 0.232948 0
27.855000 0.197797 0
27.860000 0.162212 0
27.865000 0.127059 0
27.870000 0.093097 0
27.875000 0.060958 0
27.880000 0.031131 0
27.885000 0.003964 0
27.890000 -0.020339 0
27.895000 -0.041699 0
27.900000 -0.060144 0
27.905000 -0.075795 0
27.910000 -0.088840 0
27.915000 -0.099512 0
27.920000 -0.108072 0
27.925000 -0.114792 0
27.930000 -0.119939 0
27.935000 -0.123768 0
27.940000 -0.126510 0
27.945000 -0.126103 0
27.950000 -0.125164 0
27.955000 -0.124230 0
27.960000 -0.123300 0
27.965000 -0.122371 0
27.970000 -0.121442 0
27.975000 -0.120505 0
27.980000 -0.119551 0
27.985000 -0.118560 0
27.990000 -0.117495 0
27.995000 -0.116300 0
28.000000 -0.114878 0
28.005000 -0.113083 0
28.010000 -0.110699 0
28.015000 -0.107420 0
28.020000 -0.102839 0
28.025000 -0.096443 0
28.030000 -0.087632 0
28.035000 -0.075756 0
28.040000 -0.060194 0
28.045000 -0.040458 0
28.050000 -0.016323 0
28.055000 0.012044 0
28.060000 0.043964 0
28.065000 0.078197 0
28.070000 0.112956 0
28.075000 0.146032 0
28.080000 0.175005 0
28.085000 0.197534 0
28.090000 0.211663 0
28.095000 0.216103 1
28.100000 0.210428 0
28.105000 0.195137 0
28.110000 0.171589 0
28.115000 0.141791 0
28.120000 0.108095 0
28.125000 0.072780 0
28.130000 0.037418 0
28.135000 0.001900 0
28.140000 -0.036675 0
28.145000 -0.083813 0
28.150000 -0.143761 0
28.155000 -0.211594 0
28.160000 -0.266499 0
28.165000 -0.273559 2
28.170000 -0.194069 0
28.175000 0.001545 0
28.180000 0.316273 0
28.185000 0.699878 0
28.190000 1.035812 0
28.195000 1.183796 3
28.200000 1.070742 0
28.205000 0.745672 0
28.210000 0.338995 0
28.215000 -0.021570 0
28.220000 -0.263952 0
28.225000 -0.371431 4
28.230000 -0.364204 0
28.235000 -0.284857 0
28.240000 -0.181811 0
28.245000 -0.090133 0
28.250000 -0.022375 0
28.255000 0.025598 0
28.260000 0.063035 0
28.265000 0.096929 0
28.270000 0.130554 0
28.275000 0.164729 0
28.280000 0.199152 0
28.285000 0.233099 0
28.290000 0.265694 0
28.295000 0.296009 0
28.300000 0.323116 0
28.305000 0.346135 0
28.310000 0.364286 0
28.315000 0.376924 0
28.320000 0.383586 0
28.325000 0.384008 5
28.330000 0.378150 0
28.335000 0.366194 0
28.340000 0.348538 0
28.345000 0.325767 0
28.350000 0.298626 0
28.355000 0.267980 0
28.360000 0.234760 0
28.365000 0.199923 0
28.370000 0.164407 0
28.375000 0.129085 0
28.380000 0.094736 0
28.385000 0.062019 0
28.390000 0.031459 0
28.395000 0.003440 0
