0.000000 1.160109 3
0.005000 1.024460 0
0.010000 0.689363 0
0.015000 0.286127 0
0.020000 -0.063338 0
0.025000 -0.293263 0
0.030000 -0.390693 4
0.035000 -0.377511 0
0.040000 -0.296514 0
0.045000 -0.194922 0
0.050000 -0.105908 0
0.055000 -0.040581 0
0.060000 0.005690 0
0.065000 0.042024 0
0.070000 0.075152 0
0.075000 0.108193 0
0.080000 0.141919 0
0.085000 0.176037 0
0.090000 0.209854 0
0.095000 0.242520 0
0.100000 0.273129 0
0.105000 0.300765 0
0.110000 0.324552 0
0.115000 0.343697 0
0.120000 0.357537 0
0.125000 0.365573 0
0.130000 0.367499 5
0.135000 0.363225 0
0.140000 0.352878 0
0.145000 0.336798 0
0.150000 0.315517 0
0.155000 0.289732 0
0.160000 0.260263 0
0.165000 0.228014 0
0.170000 0.193923 0
0.175000 0.158917 0
0.180000 0.123874 0
0.185000 0.089589 0
0.190000 0.056742 0
0.195000 0.025887 0
0.200000 -0.002558 0
0.205000 -0.028315 0
0.210000 -0.051231 0
0.215000 -0.071269 0
0.220000 -0.088492 0
0.225000 -0.103039 0
0.230000 -0.115106 0
0.235000 -0.124929 0
0.240000 -0.132765 0
0.245000 -0.138875 0
0.250000 -0.143514 0
0.255000 -0.146924 0
0.260000 -0.149322 0
0.265000 -0.148782 0
0.270000 -0.147748 0
0.275000 -0.146718 0
0.280000 -0.145693 0
0.285000 -0.144671 0
0.290000 -0.143650 0
0.295000 -0.142626 0
0.300000 -0.141591 0
0.305000 -0.140530 0
0.310000 -0.139418 0
0.315000 -0.138209 0
0.320000 -0.136833 0
0.325000 -0.135174 0
0.330000 -0.133063 0
0.335000 -0.130253 0
0.340000 -0.126406 0
0.345000 -0.121087 0
0.350000 -0.113761 0
0.355000 -0.103824 0
0.360000 -0.090651 0
0.365000 -0.073679 0
0.370000 -0.052515 0
0.375000 -0.027063 0
0.380000 0.002358 0
0.385000 0.034918 0
0.390000 0.069249 0
0.395000 0.103489 0
0.400000 0.135425 0
0.405000 0.162715 0
0.410000 0.183172 0
0.415000 0.195047 0
0.420000 0.197283 1
0.425000 0.189667 0
0.430000 0.172865 0
0.435000 0.148329 0
0.440000 0.118082 0
0.445000 0.084419 0
0.450000 0.049500 0
0.455000 0.014753 0
0.460000 -0.020065 0
0.465000 -0.057887 0
0.470000 -0.104100 0
0.475000 -0.162848 0
0.480000 -0.229568 0
0.485000 -0.284599 0
0.490000 -0.294623 2
0.495000 -0.222203 0
0.500000 -0.037825 0
0.505000 0.264273 0
0.510000 0.641384 0
0.515000 0.986927 0
0.520000 1.163965 3
0.525000 1.088845 0
0.530000 0.791566 0
0.535000 0.392150 0
0.540000 0.020441 0
0.545000 -0.243155 0
0.550000 -0.374135 0
0.555000 -0.386680 4
0.560000 -0.319099 0
0.565000 -0.218973 0
0.570000 -0.124448 0
0.575000 -0.052480 0
0.580000 -0.001710 0
0.585000 0.036618 0
0.590000 0.070195 0
0.595000 0.103080 0
0.600000 0.136574 0
0.605000 0.170610 0
0.610000 0.204581 0
0.615000 0.237680 0
0.620000 0.269019 0
0.625000 0.297688 0
0.630000 0.322801 0
0.635000 0.343540 0
0.640000 0.359199 0
0.645000 0.369226 0
0.650000 0.373250 5
0.655000 0.371107 0
0.660000 0.362847 0
0.665000 0.348735 0
0.670000 0.329233 0
0.675000 0.304978 0
0.680000 0.276743 0
0.685000 0.245399 0
0.690000 0.211869 0
0.695000 0.177081 0
0.700000 0.141930 0
0.705000 0.107239 0
0.710000 0.073729 0
0.715000 0.042001 0
0.720000 0.012522 0
0.725000 -0.014375 0
0.730000 -0.038490 0
0.735000 -0.059741 0
0.740000 -0.078151 0
0.745000 -0.093829 0
0.750000 -0.106948 0
0.755000 -0.117728 0
0.760000 -0.126416 0
0.765000 -0.133271 0
0.770000 -0.138550 0
0.775000 -0.142499 0
0.780000 -0.145345 0
0.785000 -0.146861 0
0.790000 -0.145836 0
0.795000 -0.144817 0
0.800000 -0.143801 0
0.805000 -0.142790 0
0.810000 -0.141781 0
0.815000 -0.140771 0
0.820000 -0.139754 0
0.825000 -0.138720 0
0.830000 -0.137649 0
0.835000 -0.136507 0
0.840000 -0.135238 0
0.845000 -0.133752 0
0.850000 -0.131910 0
0.855000 -0.129509 0
0.860000 -0.126262 0
0.865000 -0.121789 0
0.870000 -0.115609 0
0.875000 -0.107156 0
0.880000 -0.095812 0
0.885000 -0.080975 0
0.890000 -0.062147 0
0.895000 -0.039058 0
0.900000 -0.011784 0
0.905000 0.019143 0
0.910000 0.052662 0
0.915000 0.087193 0
0.920000 0.120715 0
0.925000 0.150948 0
0.930000 0.175600 0
0.935000 0.192649 0
0.940000 0.200623 1
0.945000 0.198803 0
0.950000 0.187338 0
0.955000 0.167221 0
0.960000 0.140149 0
0.965000 0.108276 0
0.970000 0.073880 0
0.975000 0.038911 0
0.980000 0.004279 0
0.985000 -0.031166 0
0.990000 -0.071410 0
0.995000 -0.122008 0
1.000000 -0.184882 0
1.005000 -0.250544 0
1.010000 -0.293985 2
1.015000 -0.279399 0
1.020000 -0.170990 0
1.025000 0.054621 0
1.030000 0.389850 0
1.035000 0.771136 0
1.040000 1.075919 0
1.045000 1.175461 3
1.050000 1.018756 0
1.055000 0.671341 0
1.060000 0.268714 0
1.065000 -0.070176 0
1.070000 -0.285094 0
1.075000 -0.367727 4
1.080000 -0.343472 0
1.085000 -0.257293 0
1.090000 -0.156103 0
1.095000 -0.070497 0
1.100000 -0.008747 0
1.105000 0.035220 0
1.110000 0.070544 0
1.115000 0.103408 0
1.120000 0.136448 0
1.125000 0.170178 0
1.130000 0.204191 0
1.135000 0.237740 0
1.140000 0.269950 0
1.145000 0.299895 0
1.150000 0.326651 0
1.155000 0.349345 0
1.160000 0.367201 0
1.165000 0.379580 0
1.170000 0.386024 0
1.175000 0.386274 5
1.180000 0.380294 0
1.185000 0.368272 0
1.190000 0.350604 0
1.195000 0.327882 0
1.200000 0.300849 0
1.205000 0.270367 0
1.210000 0.237365 0
1.215000 0.202795 0
1.220000 0.167588 0
1.225000 0.132608 0
1.230000 0.098627 0
1.235000 0.066293 0
1.240000 0.036122 0
1.245000 0.008489 0
1.250000 -0.016370 0
1.255000 -0.038344 0
1.260000 -0.057433 0
1.265000 -0.073732 0
1.270000 -0.087406 0
1.275000 -0.098672 0
1.280000 -0.107779 0
1.285000 -0.114990 0
1.290000 -0.120570 0
1.295000 -0.124770 0
1.300000 -0.127828 0
1.305000 -0.129508 0
1.310000 -0.128570 0
1.315000 -0.127637 0
1.320000 -0.126707 0
1.325000 -0.125781 0
1.330000 -0.124857 0
1.335000 -0.123932 0
1.340000 -0.123000 0
1.345000 -0.122050 0
1.350000 -0.121063 0
1.355000 -0.120004 0
1.360000 -0.118816 0
1.365000 -0.117406 0
1.370000 -0.115631 0
1.375000 -0.113281 0
1.380000 -0.110060 0
1.385000 -0.105573 0
1.390000 -0.099322 0
1.395000 -0.090723 0
1.400000 -0.079143 0
1.405000 -0.063972 0
1.410000 -0.044722 0
1.415000 -0.021150 0
1.420000 0.006610 0
1.425000 0.037941 0
1.430000 0.071677 0
1.435000 0.106121 0
1.440000 0.139146 0
1.445000 0.168400 0
1.450000 0.191571 0
1.455000 0.206688 0
1.460000 0.212397 1
1.465000 0.208163 0
1.470000 0.194349 0
1.475000 0.172169 0
1.480000 0.143506 0
1.485000 0.110632 0
1.490000 0.075835 0
1.495000 0.040883 0
1.500000 0.006179 0
1.505000 -0.030336 0
1.510000 -0.073569 0
1.515000 -0.128732 0
1.520000 -0.194569 0
1.525000 -0.255714 0
1.530000 -0.281483 2
1.535000 -0.233894 0
1.540000 -0.079725 0
1.545000 0.194958 0
1.550000 0.561378 0
1.555000 0.926366 0
1.560000 1.152031 3
1.565000 1.134446 0
1.570000 0.878703 0
1.575000 0.490114 0
1.580000 0.102568 0
1.585000 -0.190386 0
1.590000 -0.352727 0
1.595000 -0.390954 4
1.600000 -0.338549 0
1.605000 -0.242239 0
1.610000 -0.143846 0
1.615000 -0.065761 0
1.620000 -0.010315 0
1.625000 0.030350 0
1.630000 0.064617 0
1.635000 0.097457 0
1.640000 0.130741 0
1.645000 0.164660 0
1.650000 0.198707 0
1.655000 0.232118 0
1.660000 0.264026 0
1.665000 0.293527 0
1.670000 0.319729 0
1.675000 0.341796 0
1.680000 0.358991 0
1.685000 0.370715 0
1.690000 0.376544 5
1.695000 0.376252 0
1.700000 0.369824 0
1.705000 0.357459 0
1.710000 0.339558 0
1.715000 0.316704 0
1.720000 0.289626 0
1.725000 0.259164 0
1.730000 0.226224 0
1.735000 0.191730 0
1.740000 0.156589 0
1.745000 0.121644 0
1.750000 0.087648 0
1.755000 0.055242 0
1.760000 0.024935 0
1.765000 -0.002897 0
1.770000 -0.028010 0
1.775000 -0.050283 0
1.780000 -0.069706 0
1.785000 -0.086357 0
1.790000 -0.100388 0
1.795000 -0.112003 0
1.800000 -0.121441 0
1.805000 -0.128955 0
1.810000 -0.134803 0
1.815000 -0.139235 0
1.820000 -0.142485 0
1.825000 -0.144285 0
1.830000 -0.143273 0
1.835000 -0.142266 0
1.840000 -0.141264 0
1.845000 -0.140266 0
1.850000 -0.139270 0
1.855000 -0.138276 0
1.860000 -0.137277 0
1.865000 -0.136267 0
1.870000 -0.135228 0
1.875000 -0.134135 0
1.880000 -0.132943 0
1.885000 -0.131576 0
1.890000 -0.129920 0
1.895000 -0.127801 0
1.900000 -0.124973 0
1.905000 -0.121098 0
1.910000 -0.115741 0
1.915000 -0.108375 0
1.920000 -0.098400 0
1.925000 -0.085203 0
1.930000 -0.068229 0
1.935000 -0.047093 0
1.940000 -0.021700 0
1.945000 0.007639 0
1.950000 0.040114 0
1.955000 0.074388 0
1.960000 0.108638 0
1.965000 0.140692 0
1.970000 0.168244 0
1.975000 0.189120 0
1.980000 0.201567 0
1.985000 0.204491 1
1.990000 0.197618 0
1.995000 0.181539 0
2.000000 0.157623 0
2.005000 0.127823 0
2.010000 0.094389 0
2.015000 0.059492 0
2.020000 0.024664 0
2.025000 -0.010068 0
2.030000 -0.047210 0
2.035000 -0.091860 0
2.040000 -0.148691 0
2.045000 -0.215057 0
2.050000 -0.274132 0
2.055000 -0.294824 2
2.060000 -0.240091 0
2.065000 -0.078453 0
2.070000 0.201888 0
2.075000 0.570334 0
2.080000 0.934054 0
2.085000 1.158446 3
2.090000 1.140155 0
2.095000 0.880835 0
2.100000 0.490239 0
2.105000 0.105768 0
2.110000 -0.179089 0
2.115000 -0.330599 0
2.120000 -0.358233 4
2.125000 -0.298537 0
2.130000 -0.200092 0
2.135000 -0.103988 0
2.140000 -0.029977 0
2.145000 0.022021 0
2.150000 0.060760 0
2.155000 0.094327 0
2.160000 0.127076 0
2.165000 0.160428 0
2.170000 0.194338 0
2.175000 0.228190 0
2.180000 0.261156 0
2.185000 0.292324 0
2.190000 0.320760 0
2.195000 0.345558 0
2.200000 0.365882 0
2.205000 0.381019 0
2.210000 0.390413 0
2.215000 0.393703 5
2.220000 0.390742 0
2.225000 0.381607 0
2.230000 0.366597 0
2.235000 0.346213 0
2.240000 0.321131 0
2.245000 0.292166 0
2.250000 0.260221 0
2.255000 0.226250 0
2.260000 0.191199 0
2.265000 0.155975 0
2.270000 0.121399 0
2.275000 0.088182 0
2.280000 0.056907 0
2.285000 0.028015 0
2.290000 0.001809 0
2.295000 -0.021543 0
2.300000 -0.041992 0
2.305000 -0.059592 0
2.310000 -0.074478 0
2.315000 -0.086848 0
2.320000 -0.096938 0
2.325000 -0.105009 0
2.330000 -0.111325 0
2.335000 -0.116148 0
2.340000 -0.119723 0
2.345000 -0.122272 0
2.350000 -0.121870 0
2.355000 -0.120970 0
2.360000 -0.120074 0
2.365000 -0.119181 0
2.370000 -0.118291 0
2.375000 -0.117402 0
2.380000 -0.116508 0
2.385000 -0.115602 0
2.390000 -0.114669 0
2.395000 -0.113680 0
2.400000 -0.112589 0
2.405000 -0.111321 0
2.410000 -0.109754 0
2.415000 -0.107709 0
2.420000 -0.104926 0
2.425000 -0.101051 0
2.430000 -0.095628 0
2.435000 -0.088101 0
2.440000 -0.077851 0
2.445000 -0.064243 0
2.450000 -0.046724 0
2.455000 -0.024936 0
2.460000 0.001156 0
2.465000 0.031137 0
2.470000 0.064061 0
2.475000 0.098428 0
2.480000 0.132257 0
2.485000 0.163246 0
2.490000 0.189024 0
2.495000 0.207442 0
2.500000 0.216874 1
2.505000 0.216446 0
2.510000 0.206174 0
2.515000 0.186965 0
2.520000 0.160480 0
2.525000 0.128890 0
2.530000 0.094538 0
2.535000 0.059473 0
2.540000 0.024734 0
2.545000 -0.010706 0
2.550000 -0.050801 0
2.555000 -0.101243 0
2.560000 -0.164132 0
2.565000 -0.229834 0
2.570000 -0.272628 2
2.575000 -0.255709 0
2.580000 -0.142582 0
2.585000 0.089770 0
2.590000 0.430890 0
2.595000 0.810909 0
2.600000 1.100872 0
2.605000 1.173042 3
2.610000 0.990057 0
2.615000 0.631475 0
2.620000 0.229968 0
2.625000 -0.103152 0
2.630000 -0.313062 0
2.635000 -0.393308 4
2.640000 -0.368889 0
2.645000 -0.283218 0
2.650000 -0.181739 0
2.655000 -0.094753 0
2.660000 -0.031267 0
2.665000 0.014010 0
2.670000 0.049986 0
2.675000 0.083032 0
2.680000 0.116057 0
2.685000 0.149761 0
2.690000 0.183843 0
2.695000 0.217623 0
2.700000 0.250272 0
2.705000 0.280904 0
2.710000 0.308624 0
2.715000 0.332574 0
2.720000 0.351977 0
2.725000 0.366174 0
2.730000 0.374666 0
2.735000 0.377139 5
2.740000 0.373483 0
2.745000 0.363800 0
2.750000 0.348398 0
2.755000 0.327775 0
2.760000 0.302591 0
2.765000 0.273631 0
2.770000 0.241769 0
2.775000 0.207916 0
2.780000 0.172985 0
2.785000 0.137847 0
2.790000 0.103297 0
2.795000 0.070026 0
2.800000 0.038606 0
2.805000 0.009477 0
2.810000 -0.017053 0
2.815000 -0.040802 0
2.820000 -0.061707 0
2.825000 -0.079799 0
2.830000 -0.095196 0
2.835000 -0.108073 0
2.840000 -0.118650 0
2.845000 -0.127173 0
2.850000 -0.133897 0
2.855000 -0.139076 0
2.860000 -0.142949 0
2.865000 -0.145741 0
2.870000 -0.147223 0
2.875000 -0.146196 0
2.880000 -0.145175 0
2.885000 -0.144158 0
2.890000 -0.143144 0
2.895000 -0.142133 0
2.900000 -0.141121 0
2.905000 -0.140103 0
2.910000 -0.139068 0
2.915000 -0.137996 0
2.920000 -0.136856 0
2.925000 -0.135591 0
2.930000 -0.134116 0
2.935000 -0.132295 0
2.940000 -0.129933 0
2.945000 -0.126752 0
2.950000 -0.122384 0
2.955000 -0.116363 0
2.960000 -0.108136 0
2.965000 -0.097098 0
2.970000 -0.082650 0
2.975000 -0.064288 0
2.980000 -0.041711 0
2.985000 -0.014950 0
2.990000 0.015534 0
2.995000 0.048767 0
3.000000 0.083261 0
3.005000 0.117081 0
3.010000 0.148008 0
3.015000 0.173765 0
3.020000 0.192295 0
3.025000 0.202032 0
3.030000 0.202120 1
3.035000 0.192536 0
3.040000 0.174099 0
3.045000 0.148353 0
3.050000 0.117347 0
3.055000 0.083333 0
3.060000 0.048358 0
3.065000 0.013648 0
3.070000 -0.021329 0
3.075000 -0.059783 0
3.080000 -0.107112 0
3.085000 -0.166915 0
3.090000 -0.233668 0
3.095000 -0.287014 0
3.100000 -0.293811 2
3.105000 -0.217563 0
3.110000 -0.029963 0
3.115000 0.273762 0
3.120000 0.651046 0
3.125000 0.997496 0
3.130000 1.179057 3
3.135000 1.110073 0
3.140000 0.815657 0
3.145000 0.416528 0
3.150000 0.044590 0
3.155000 -0.218444 0
3.160000 -0.347925 0
3.165000 -0.358602 4
3.170000 -0.289668 0
3.175000 -0.189359 0
3.180000 -0.095732 0
3.185000 -0.025066 0
3.190000 0.024634 0
3.195000 0.062353 0
3.200000 0.095673 0
3.205000 0.128471 0
3.210000 0.161913 0
3.215000 0.195862 0
3.220000 0.229674 0
3.225000 0.262520 0
3.230000 0.293492 0
3.235000 0.321668 0
3.240000 0.346154 0
3.245000 0.366133 0
3.250000 0.380909 0
3.255000 0.389945 0
3.260000 0.392895 5
3.265000 0.389627 0
3.270000 0.380228 0
3.275000 0.365003 0
3.280000 0.344455 0
3.285000 0.319258 0
3.290000 0.290222 0
3.295000 0.258242 0
3.300000 0.224260 0
3.305000 0.189215 0
3.310000 0.154000 0
3.315000 0.119429 0
3.320000 0.086206 0
3.325000 0.054908 0
3.330000 0.025974 0
3.335000 -0.000293 0
3.340000 -0.023725 0
3.345000 -0.044269 0
3.350000 -0.061975 0
3.355000 -0.076974 0
3.360000 -0.089459 0
3.365000 -0.099662 0
3.370000 -0.107840 0
3.375000 -0.114256 0
3.380000 -0.119167 0
3.385000 -0.122819 0
3.390000 -0.125433 0
3.395000 -0.125026 0
3.400000 -0.124111 0
3.405000 -0.123199 0
3.410000 -0.122291 0
3.415000 -0.121386 0
3.420000 -0.120482 0
3.425000 -0.119574 0
3.430000 -0.118656 0
3.435000 -0.117713 0
3.440000 -0.116719 0
3.445000 -0.115634 0
3.450000 -0.114385 0
3.455000 -0.112862 0
3.460000 -0.110897 0
3.465000 -0.108248 0
3.470000 -0.104581 0
3.475000 -0.099462 0
3.480000 -0.092360 0
3.485000 -0.082669 0
3.490000 -0.069758 0
3.495000 -0.053058 0
3.500000 -0.032162 0
3.505000 -0.006961 0
3.510000 0.022239 0
3.515000 0.054623 0
3.520000 0.088827 0
3.525000 0.122990 0
3.530000 0.154891 0
3.535000 0.182174 0
3.540000 0.202633 0
3.545000 0.214502 0
3.550000 0.216708 1
3.555000 0.209031 0
3.560000 0.192139 0
3.565000 0.167490 0
3.570000 0.137122 0
3.575000 0.103343 0
3.580000 0.068325 0
3.585000 0.033487 0
3.590000 -0.001447 0
3.595000 -0.039482 0
3.600000 -0.086065 0
3.605000 -0.145245 0
3.610000 -0.212075 0
3.615000 -0.266285 0
3.620000 -0.274039 2
3.625000 -0.197747 0
3.630000 -0.008314 0
3.635000 0.298517 0
3.640000 0.676934 0
3.645000 1.016924 0
3.650000 1.181255 3
3.655000 1.091779 0
3.660000 0.786554 0
3.665000 0.385895 0
3.670000 0.016300 0
3.675000 -0.244950 0
3.680000 -0.374723 0
3.685000 -0.387248 4
3.690000 -0.320160 0
3.695000 -0.220210 0
3.700000 -0.125187 0
3.705000 -0.052332 0
3.710000 -0.000776 0
3.715000 0.037990 0
3.720000 0.071693 0
3.725000 0.104539 0
3.730000 0.137952 0
3.735000 0.171936 0
3.740000 0.205925 0
3.745000 0.239140 0
3.750000 0.270714 0
3.755000 0.299755 0
3.760000 0.325386 0
3.765000 0.346793 0
3.770000 0.363266 0
3.775000 0.374235 0
3.780000 0.379306 5
3.785000 0.378280 0
3.790000 0.371168 0
3.795000 0.358190 0
3.800000 0.339762 0
3.805000 0.316475 0
3.810000 0.289062 0
3.815000 0.258359 0
3.820000 0.225265 0
3.825000 0.190693 0
3.830000 0.155534 0
3.835000 0.120617 0
3.840000 0.086682 0
3.845000 0.054353 0
3.850000 0.024129 0
3.855000 -0.003625 0
3.860000 -0.028670 0
3.865000 -0.050891 0
3.870000 -0.070279 0
3.875000 -0.086913 0
3.880000 -0.100944 0
3.885000 -0.112572 0
3.890000 -0.122033 0
3.895000 -0.129578 0
3.900000 -0.135462 0
3.905000 -0.139932 0
3.910000 -0.143218 0
3.915000 -0.145531 0
3.920000 -0.144996 0
3.925000 -0.143980 0
3.930000 -0.142970 0
3.935000 -0.141963 0
3.940000 -0.140960 0
3.945000 -0.139957 0
3.950000 -0.138951 0
3.955000 -0.137934 0
3.960000 -0.136892 0
3.965000 -0.135799 0
3.970000 -0.134613 0
3.975000 -0.133264 0
3.980000 -0.131645 0
3.985000 -0.129592 0
3.990000 -0.126872 0
3.995000 -0.123164 0
4.000000 -0.118054 0
4.005000 -0.111033 0
4.010000 -0.101517 0
4.015000 -0.088899 0
4.020000 -0.072612 0
4.025000 -0.052241 0
4.030000 -0.027629 0
4.035000 0.000998 0
4.040000 0.032941 0
4.045000 0.066982 0
4.050000 0.101411 0
4.055000 0.134140 0
4.060000 0.162899 0
4.065000 0.185487 0
4.070000 0.200052 0
4.075000 0.205343 1
4.080000 0.200884 0
4.085000 0.187049 0
4.090000 0.165009 0
4.095000 0.136566 0
4.100000 0.103899 0
4.105000 0.069216 0
4.110000 0.034281 0
4.115000 -0.000347 0
4.120000 -0.036324 0
4.125000 -0.078059 0
4.130000 -0.130872 0
4.135000 -0.195269 0
4.140000 -0.259523 0
4.145000 -0.296907 2
4.150000 -0.271539 0
4.155000 -0.149158 0
4.160000 0.090591 0
4.165000 0.435094 0
4.170000 0.815047 0
4.175000 1.106143 0
4.180000 1.185433 3
4.185000 1.011696 0
4.190000 0.656586 0
4.195000 0.254678 0
4.200000 -0.079637 0
4.205000 -0.289812 0
4.210000 -0.369171 4
4.215000 -0.343376 0
4.220000 -0.256842 0
4.225000 -0.155630 0
4.230000 -0.069817 0
4.235000 -0.007684 0
4.240000 0.036615 0
4.245000 0.072098 0
4.250000 0.104976 0
4.255000 0.137965 0
4.260000 0.171640 0
4.265000 0.205637 0
4.270000 0.239234 0
4.275000 0.271578 0
4.280000 0.301762 0
4.285000 0.328876 0
4.290000 0.352054 0
4.295000 0.370521 0
4.300000 0.383632 0
4.305000 0.390909 0
4.310000 0.392071 5
4.315000 0.387050 0
4.320000 0.375994 0
4.325000 0.359261 0
4.330000 0.337400 0
4.335000 0.311117 0
4.340000 0.281240 0
4.345000 0.248672 0
4.350000 0.214347 0
4.355000 0.179189 0
4.360000 0.144064 0
4.365000 0.109756 0
4.370000 0.076932 0
4.375000 0.046133 0
4.380000 0.017765 0
4.385000 -0.007904 0
4.390000 -0.030731 0
4.395000 -0.050688 0
4.400000 -0.067841 0
4.405000 -0.082334 0
4.410000 -0.094366 0
4.415000 -0.104173 0
4.420000 -0.112011 0
4.425000 -0.118141 0
4.430000 -0.122815 0
4.435000 -0.126274 0
4.440000 -0.128732 0
4.445000 -0.128289 0
4.450000 -0.127357 0
4.455000 -0.126429 0
4.460000 -0.125505 0
4.465000 -0.124584 0
4.470000 -0.123663 0
4.475000 -0.122738 0
4.480000 -0.121801 0
4.485000 -0.120838 0
4.490000 -0.119822 0
4.495000 -0.118708 0
4.500000 -0.117424 0
4.505000 -0.115855 0
4.510000 -0.113830 0
4.515000 -0.111103 0
4.520000 -0.107335 0
4.525000 -0.102092 0
4.530000 -0.094840 0
4.535000 -0.084978 0
4.540000 -0.071882 0
4.545000 -0.054994 0
4.550000 -0.033922 0
4.555000 -0.008570 0
4.560000 0.020743 0
4.565000 0.053196 0
4.570000 0.087427 0
4.575000 0.121586 0
4.580000 0.153473 0
4.585000 0.180757 0
4.590000 0.201254 0
4.595000 0.213214 0
4.600000 0.215568 1
4.605000 0.208086 0
4.610000 0.191413 0
4.615000 0.166975 0
4.620000 0.136776 0
4.625000 0.103098 0
4.630000 0.068105 0
4.635000 0.033256 0
4.640000 -0.001610 0
4.645000 -0.039299 0
4.650000 -0.085122 0
4.655000 -0.143394 0
4.660000 -0.210137 0
4.665000 -0.266524 0
4.670000 -0.279867 2
4.675000 -0.212805 0
4.680000 -0.035196 0
4.685000 0.260604 0
4.690000 0.635553 0
4.695000 0.987016 0
4.700000 1.178341 3
4.705000 1.119904 0
4.710000 0.834229 0
4.715000 0.437226 0
4.720000 0.060122 0
4.725000 -0.212757 0
4.730000 -0.353506 0
4.735000 -0.373975 4
4.740000 -0.310976 0
4.745000 -0.211875 0
4.750000 -0.116035 0
4.755000 -0.042141 0
4.760000 0.010034 0
4.765000 0.049007 0
4.770000 0.082710 0
4.775000 0.115497 0
4.780000 0.148848 0
4.785000 0.182777 0
4.790000 0.216710 0
4.795000 0.249855 0
4.800000 0.281332 0
4.805000 0.310235 0
4.810000 0.335674 0
4.815000 0.356828 0
4.820000 0.372979 0
4.825000 0.383558 0
4.830000 0.388176 5
4.835000 0.386646 0
4.840000 0.378993 0
4.845000 0.365459 0
4.850000 0.346482 0
4.855000 0.322679 0
4.860000 0.294805 0
4.865000 0.263720 0
4.870000 0.230338 0
4.875000 0.195587 0
4.880000 0.160365 0
4.885000 0.125502 0
4.890000 0.091731 0
4.895000 0.059669 0
4.900000 0.029798 0
4.905000 0.002468 0
4.910000 -0.022105 0
4.915000 -0.043823 0
4.920000 -0.062695 0
4.925000 -0.078820 0
4.930000 -0.092363 0
4.935000 -0.103535 0
4.940000 -0.112581 0
4.945000 -0.119758 0
4.950000 -0.125324 0
4.955000 -0.129525 0
4.960000 -0.132591 0
4.965000 -0.134278 0
4.970000 -0.133317 0
4.975000 -0.132359 0
4.980000 -0.131406 0
4.985000 -0.130457 0
4.990000 -0.129510 0
4.995000 -0.128562 0
5.000000 -0.127609 0
5.005000 -0.126641 0
5.010000 -0.125639 0
5.015000 -0.124574 0
5.020000 -0.123394 0
5.025000 -0.122015 0
5.030000 -0.120311 0
5.035000 -0.118090 0
5.040000 -0.115084 0
5.045000 -0.110932 0
5.050000 -0.105173 0
5.055000 -0.097256 0
5.060000 -0.086572 0
5.065000 -0.072511 0
5.070000 -0.054550 0
5.075000 -0.032364 0
5.080000 -0.005952 0
5.085000 0.024252 0
5.090000 0.057302 0
5.095000 0.091720 0
5.100000 0.125573 0
5.105000 0.156623 0
5.110000 0.182565 0
5.115000 0.201306 0
5.120000 0.211241 0
5.125000 0.211483 1
5.130000 0.201991 0
5.135000 0.183580 0
5.140000 0.157808 0
5.145000 0.126745 0
5.150000 0.092667 0
5.155000 0.057642 0
5.160000 0.022889 0
5.165000 -0.012176 0
5.170000 -0.050878 0
5.175000 -0.098695 0
5.180000 -0.159057 0
5.185000 -0.225801 0
5.190000 -0.277576 0
5.195000 -0.280395 2
5.200000 -0.197517 0
5.205000 -0.001337 0
5.210000 0.310366 0
5.215000 0.689781 0
5.220000 1.026743 0
5.225000 1.186650 3
5.230000 1.092783 0
5.235000 0.782790 0
5.240000 0.381181 0
5.245000 0.016095 0
5.250000 -0.236547 0
5.255000 -0.356124 0
5.260000 -0.359569 4
5.265000 -0.286985 0
5.270000 -0.186143 0
5.275000 -0.093623 0
5.280000 -0.024266 0
5.285000 0.024606 0
5.290000 0.061986 0
5.295000 0.095238 0
5.300000 0.128059 0
5.305000 0.161533 0
5.310000 0.195496 0
5.315000 0.229301 0
5.320000 0.262121 0
5.325000 0.293057 0
5.330000 0.321193 0
5.335000 0.345645 0
5.340000 0.365602 0
5.345000 0.380375 0
5.350000 0.389432 0
5.355000 0.392429 5
5.360000 0.389233 0
5.365000 0.379930 0
5.370000 0.364817 0
5.375000 0.344392 0
5.380000 0.319318 0
5.385000 0.290394 0
5.390000 0.258509 0
5.395000 0.224595 0
5.400000 0.189583 0
5.405000 0.154363 0
5.410000 0.119747 0
5.415000 0.086438 0
5.420000 0.055017 0
5.425000 0.025928 0
5.430000 -0.000521 0
5.435000 -0.024154 0
5.440000 -0.044911 0
5.445000 -0.062834 0
5.450000 -0.078048 0
5.455000 -0.090738 0
5.460000 -0.101134 0
5.465000 -0.109487 0
5.470000 -0.116059 0
5.475000 -0.121107 0
5.480000 -0.124874 0
5.485000 -0.127585 0
5.490000 -0.127184 0
5.495000 -0.126257 0
5.500000 -0.125335 0
5.505000 -0.124417 0
5.510000 -0.123502 0
5.515000 -0.122587 0
5.520000 -0.121671 0
5.525000 -0.120745 0
5.530000 -0.119797 0
5.535000 -0.118804 0
5.540000 -0.117728 0
5.545000 -0.116502 0
5.550000 -0.115026 0
5.555000 -0.113144 0
5.560000 -0.110628 0
5.565000 -0.107165 0
5.570000 -0.102344 0
5.575000 -0.095654 0
5.580000 -0.086504 0
5.585000 -0.074271 0
5.590000 -0.058367 0
5.595000 -0.038348 0
5.600000 -0.014035 0
5.605000 0.014366 0
5.610000 0.046158 0
5.615000 0.080108 0
5.620000 0.114470 0
5.625000 0.147106 0
5.630000 0.175687 0
5.635000 0.197962 0
5.640000 0.212052 0
5.645000 0.216705 1
5.650000 0.211487 0
5.655000 0.196842 0
5.660000 0.174033 0
5.665000 0.144957 0
5.670000 0.111868 0
5.675000 0.077004 0
5.680000 0.042056 0
5.685000 0.007327 0
5.690000 -0.029336 0
5.695000 -0.072844 0
5.700000 -0.128274 0
5.705000 -0.194195 0
5.710000 -0.255288 0
5.715000 -0.281276 2
5.720000 -0.234749 0
5.725000 -0.082851 0
5.730000 0.188721 0
5.735000 0.553169 0
5.740000 0.920954 0
5.745000 1.156789 3
5.750000 1.153204 0
5.755000 0.906427 0
5.760000 0.519774 0
5.765000 0.131562 0
5.770000 -0.160948 0
5.775000 -0.320703 0
5.780000 -0.355066 4
5.785000 -0.299334 0
5.790000 -0.201916 0
5.795000 -0.104898 0
5.800000 -0.029438 0
5.805000 0.023635 0
5.810000 0.062882 0
5.815000 0.096576 0
5.820000 0.129293 0
5.825000 0.162580 0
5.830000 0.196451 0
5.835000 0.230308 0
5.840000 0.263329 0
5.845000 0.294606 0
5.850000 0.323204 0
5.855000 0.348213 0
5.860000 0.368793 0
5.865000 0.384221 0
5.870000 0.393931 0
5.875000 0.397551 5
5.880000 0.394920 0
5.885000 0.386104 0
5.890000 0.371390 0
5.895000 0.351267 0
5.900000 0.326405 0
5.905000 0.297610 0
5.910000 0.265785 0
5.915000 0.231880 0
5.920000 0.196845 0
5.925000 0.161590 0
5.930000 0.126941 0
5.935000 0.093617 0
5.940000 0.062208 0
5.945000 0.033164 0
5.950000 0.006793 0
5.955000 -0.016728 0
5.960000 -0.037346 0
5.965000 -0.055109 0
5.970000 -0.070150 0
5.975000 -0.082661 0
5.980000 -0.092879 0
5.985000 -0.101064 0
5.990000 -0.107481 0
5.995000 -0.112391 0
6.000000 -0.116040 0
6.005000 -0.118653 0
6.010000 -0.118275 0
6.015000 -0.117393 0
6.020000 -0.116515 0
6.025000 -0.115641 0
6.030000 -0.114769 0
6.035000 -0.113897 0
6.040000 -0.113021 0
6.045000 -0.112134 0
6.050000 -0.111219 0
6.055000 -0.110251 0
6.060000 -0.109184 0
6.065000 -0.107944 0
6.070000 -0.106412 0
6.075000 -0.104411 0
6.080000 -0.101686 0
6.085000 -0.097888 0
6.090000 -0.092563 0
6.095000 -0.085162 0
6.100000 -0.075064 0
6.105000 -0.061637 0
6.110000 -0.044319 0
6.115000 -0.022740 0
6.120000 0.003151 0
6.125000 0.032961 0
6.130000 0.065767 0
6.135000 0.100094 0
6.140000 0.133976 0
6.145000 0.165121 0
6.150000 0.191152 0
6.155000 0.209905 0
6.160000 0.219724 1
6.165000 0.219701 0
6.170000 0.209812 0
6.175000 0.190930 0
6.180000 0.164689 0
6.185000 0.133248 0
6.190000 0.098949 0
6.195000 0.063868 0
6.200000 0.029104 0
6.205000 -0.006267 0
6.210000 -0.046084 0
6.215000 -0.096043 0
6.220000 -0.158539 0
6.225000 -0.224526 0
6.230000 -0.268869 2
6.235000 -0.254982 0
6.240000 -0.146108 0
6.245000 0.081591 0
6.250000 0.419419 0
6.255000 0.800028 0
6.260000 1.095918 0
6.265000 1.177593 3
6.270000 1.002347 0
6.275000 0.646092 0
6.280000 0.244531 0
6.285000 -0.087805 0
6.290000 -0.294988 0
6.295000 -0.371167 4
6.300000 -0.342855 0
6.305000 -0.255125 0
6.310000 -0.154087 0
6.315000 -0.069222 0
6.320000 -0.008074 0
6.325000 0.035604 0
6.330000 0.070844 0
6.335000 0.103699 0
6.340000 0.136744 0
6.345000 0.170474 0
6.350000 0.204485 0
6.355000 0.238039 0
6.360000 0.270268 0
6.365000 0.300256 0
6.370000 0.327089 0
6.375000 0.349901 0
6.380000 0.367918 0
6.385000 0.380506 0
6.390000 0.387201 0
6.395000 0.387740 5
6.400000 0.382077 0
6.405000 0.370385 0
6.410000 0.353048 0
6.415000 0.330638 0
6.420000 0.303884 0
6.425000 0.273631 0
6.430000 0.240796 0
6.435000 0.206323 0
6.440000 0.171135 0
6.445000 0.136097 0
6.450000 0.101981 0
6.455000 0.069445 0
6.460000 0.039012 0
6.465000 0.011070 0
6.470000 -0.014133 0
6.475000 -0.036471 0
6.480000 -0.055933 0
6.485000 -0.072601 0
6.490000 -0.086630 0
6.495000 -0.098229 0
6.500000 -0.107641 0
6.505000 -0.115126 0
6.510000 -0.120946 0
6.515000 -0.125354 0
6.520000 -0.128585 0
6.525000 -0.130388 0
6.530000 -0.129445 0
6.535000 -0.128507 0
6.540000 -0.127574 0
6.545000 -0.126644 0
6.550000 -0.125716 0
6.555000 -0.124788 0
6.560000 -0.123855 0
6.565000 -0.122907 0
6.570000 -0.121927 0
6.575000 -0.120885 0
6.580000 -0.119731 0
6.585000 -0.118381 0
6.590000 -0.116708 0
6.595000 -0.114521 0
6.600000 -0.111549 0
6.605000 -0.107427 0
6.610000 -0.101687 0
6.615000 -0.093772 0
6.620000 -0.083062 0
6.625000 -0.068937 0
6.630000 -0.050870 0
6.635000 -0.028539 0
6.640000 -0.001957 0
6.645000 0.028413 0
6.650000 0.061580 0
6.655000 0.096015 0
6.660000 0.129726 0
6.665000 0.160427 0
6.670000 0.185784 0
6.675000 0.203705 0
6.680000 0.212626 1
6.685000 0.211730 0
6.690000 0.201080 0
6.695000 0.181604 0
6.700000 0.154965 0
6.705000 0.123314 0
6.710000 0.088962 0
6.715000 0.053923 0
6.720000 0.019213 0
6.725000 -0.016184 0
6.730000 -0.056152 0
6.735000 -0.106316 0
6.740000 -0.168905 0
6.745000 -0.234819 0
6.750000 -0.279178 2
6.755000 -0.265898 0
6.760000 -0.158675 0
6.765000 0.066336 0
6.770000 0.401615 0
6.775000 0.782731 0
6.780000 1.085418 0
6.785000 1.180045 3
6.790000 1.016882 0
6.795000 0.664828 0
6.800000 0.263021 0
6.805000 -0.069493 0
6.810000 -0.274796 0
6.815000 -0.347364 4
6.820000 -0.315328 0
6.825000 -0.225659 0
6.830000 -0.125275 0
6.835000 -0.042776 0
6.840000 0.015881 0
6.845000 0.057926 0
6.850000 0.092461 0
6.855000 0.125167 0
6.860000 0.158257 0
6.865000 0.192012 0
6.870000 0.225922 0
6.875000 0.259185 0
6.880000 0.290888 0
6.885000 0.320082 0
6.890000 0.345830 0
6.895000 0.367260 0
6.900000 0.383610 0
6.905000 0.394275 0
6.910000 0.398840 5
6.915000 0.397108 0
6.920000 0.389113 0
6.925000 0.375114 0
6.930000 0.355587 0
6.935000 0.331193 0
6.940000 0.302739 0
6.945000 0.271138 0
6.950000 0.237353 0
6.955000 0.202355 0
6.960000 0.167072 0
6.965000 0.132354 0
6.970000 0.098938 0
6.975000 0.067432 0
6.980000 0.038298 0
6.985000 0.011855 0
6.990000 -0.011715 0
6.995000 -0.032356 0
7.000000 -0.050118 0
7.005000 -0.065135 0
7.010000 -0.077607 0
7.015000 -0.087773 0
7.020000 -0.095898 0
7.025000 -0.102253 0
7.030000 -0.107103 0
7.035000 -0.110697 0
7.040000 -0.113262 0
7.045000 -0.112899 0
7.050000 -0.112044 0
7.055000 -0.111192 0
7.060000 -0.110344 0
7.065000 -0.109498 0
7.070000 -0.108652 0
7.075000 -0.107801 0
7.080000 -0.106935 0
7.085000 -0.106040 0
7.090000 -0.105083 0
7.095000 -0.104016 0
7.100000 -0.102755 0
7.105000 -0.101170 0
7.110000 -0.099066 0
7.115000 -0.096163 0
7.120000 -0.092084 0
7.125000 -0.086343 0
7.130000 -0.078361 0
7.135000 -0.067496 0
7.140000 -0.053111 0
7.145000 -0.034675 0
7.150000 -0.011888 0
7.155000 0.015188 0
7.160000 0.046003 0
7.165000 0.079445 0
7.170000 0.113848 0
7.175000 0.147081 0
7.180000 0.176752 0
7.185000 0.200481 0
7.190000 0.216209 0
7.195000 0.222496 1
7.200000 0.218738 0
7.205000 0.205257 0
7.210000 0.183258 0
7.215000 0.154648 0
7.220000 0.121747 0
7.225000 0.086893 0
7.230000 0.051889 0
7.235000 0.017117 0
7.240000 -0.019610 0
7.245000 -0.063383 0
7.250000 -0.119384 0
7.255000 -0.185642 0
7.260000 -0.245262 0
7.265000 -0.265876 2
7.270000 -0.208598 0
7.275000 -0.040746 0
7.280000 0.248245 0
7.285000 0.621368 0
7.290000 0.974481 0
7.295000 1.165790 3
7.300000 1.103741 0
7.305000 0.815053 0
7.310000 0.417317 0
7.315000 0.042043 0
7.320000 -0.227333 0
7.325000 -0.364045 0
7.330000 -0.380964 4
7.335000 -0.315750 0
7.340000 -0.216102 0
7.345000 -0.120954 0
7.350000 -0.048145 0
7.355000 0.003194 0
7.360000 0.041763 0
7.365000 0.075379 0
7.370000 0.108225 0
7.375000 0.141668 0
7.380000 0.175665 0
7.385000 0.209618 0
7.390000 0.242720 0
7.395000 0.274080 0
7.400000 0.302788 0
7.405000 0.327952 0
7.410000 0.348751 0
7.415000 0.364474 0
7.420000 0.374565 0
7.425000 0.378649 5
7.430000 0.376557 0
7.435000 0.368338 0
7.440000 0.354254 0
7.445000 0.334767 0
7.450000 0.310515 0
7.455000 0.282273 0
7.460000 0.250912 0
7.465000 0.217359 0
7.470000 0.182545 0
7.475000 0.147367 0
7.480000 0.112650 0
7.485000 0.079118 0
7.490000 0.047372 0
7.495000 0.017881 0
7.500000 -0.009022 0
7.505000 -0.033138 0
7.510000 -0.054386 0
7.515000 -0.072790 0
7.520000 -0.088460 0
7.525000 -0.101569 0
7.530000 -0.112340 0
7.535000 -0.121020 0
7.540000 -0.127869 0
7.545000 -0.133146 0
7.550000 -0.137095 0
7.555000 -0.139945 0
7.560000 -0.141470 0
7.565000 -0.140473 0
7.570000 -0.139480 0
7.575000 -0.138491 0
7.580000 -0.137506 0
7.585000 -0.136523 0
7.590000 -0.135539 0
7.595000 -0.134548 0
7.600000 -0.133539 0
7.605000 -0.132491 0
7.610000 -0.131371 0
7.615000 -0.130121 0
7.620000 -0.128648 0
7.625000 -0.126811 0
7.630000 -0.124402 0
7.635000 -0.121132 0
7.640000 -0.116611 0
7.645000 -0.110356 0
7.650000 -0.101792 0
7.655000 -0.090300 0
7.660000 -0.075279 0
7.665000 -0.056240 0
7.670000 -0.032927 0
7.675000 -0.005439 0
7.680000 0.025657 0
7.685000 0.059269 0
7.690000 0.093777 0
7.695000 0.127134 0
7.700000 0.157043 0
7.705000 0.181216 0
7.710000 0.197653 0
7.715000 0.204925 1
7.720000 0.202370 0
7.725000 0.190202 0
7.730000 0.169474 0
7.735000 0.141932 0
7.740000 0.109759 0
7.745000 0.075234 0
7.750000 0.040258 0
7.755000 0.005618 0
7.760000 -0.030060 0
7.765000 -0.070999 0
7.770000 -0.122723 0
7.775000 -0.186468 0
7.780000 -0.251395 0
7.785000 -0.291116 2
7.790000 -0.269238 0
7.795000 -0.150466 0
7.800000 0.086671 0
7.805000 0.430224 0
7.810000 0.810085 0
7.815000 1.099404 0
7.820000 1.173276 3
7.825000 0.992030 0
7.830000 0.631966 0
7.835000 0.231470 0
7.840000 -0.095249 0
7.845000 -0.294344 0
7.850000 -0.362257 4
7.855000 -0.327679 0
7.860000 -0.237207 0
7.865000 -0.136853 0
7.870000 -0.054458 0
7.875000 0.004264 0
7.880000 0.046455 0
7.885000 0.081104 0
7.890000 0.113868 0
7.895000 0.146987 0
7.900000 0.180774 0
7.905000 0.214741 0
7.910000 0.248109 0
7.915000 0.279980 0
7.920000 0.309422 0
7.925000 0.335508 0
7.930000 0.357372 0
7.935000 0.374256 0
7.940000 0.385545 0
7.945000 0.390813 5
7.950000 0.389841 0
7.955000 0.382637 0
7.960000 0.369431 0
7.965000 0.350665 0
7.970000 0.326966 0
7.975000 0.299113 0
7.980000 0.267991 0
7.985000 0.234546 0
7.990000 0.199734 0
7.995000 0.164482 0
8.000000 0.129641 0
8.005000 0.095963 0
8.010000 0.064071 0
8.015000 0.034450 0
8.020000 0.007445 0
8.025000 -0.016737 0
8.030000 -0.038015 0
8.035000 -0.056415 0
8.040000 -0.072050 0
8.045000 -0.085104 0
8.050000 -0.095804 0
8.055000 -0.104406 0
8.060000 -0.111178 0
8.065000 -0.116382 0
8.070000 -0.120270 0
8.075000 -0.123072 0
8.080000 -0.122703 0
8.085000 -0.121799 0
8.090000 -0.120899 0
8.095000 -0.120003 0
8.100000 -0.119110 0
8.105000 -0.118218 0
8.110000 -0.117323 0
8.115000 -0.116418 0
8.120000 -0.115491 0
8.125000 -0.114517 0
8.130000 -0.113455 0
8.135000 -0.112238 0
8.140000 -0.110758 0
8.145000 -0.108851 0
8.150000 -0.106277 0
8.155000 -0.102707 0
8.160000 -0.097707 0
8.165000 -0.090744 0
8.170000 -0.081207 0
8.175000 -0.068456 0
8.180000 -0.051907 0
8.185000 -0.031141 0
8.190000 -0.006037 0
8.195000 0.023106 0
8.200000 0.055466 0
8.205000 0.089666 0
8.210000 0.123816 0
8.215000 0.155661 0
8.220000 0.182813 0
8.225000 0.203040 0
8.230000 0.214568 0
8.235000 0.216339 1
8.240000 0.208168 0
8.245000 0.190777 0
8.250000 0.165686 0
8.255000 0.134991 0
8.260000 0.101037 0
8.265000 0.065992 0
8.270000 0.031188 0
8.275000 -0.003881 0
8.280000 -0.042570 0
8.285000 -0.090515 0
8.290000 -0.151186 0
8.295000 -0.217870 0
8.300000 -0.267889 2
8.305000 -0.265707 0
8.310000 -0.173671 0
8.315000 0.035163 0
8.320000 0.358823 0
8.325000 0.740012 0
8.330000 1.057843 0
8.335000 1.176983 3
8.340000 1.038745 0
8.345000 0.703935 0
8.350000 0.300532 0
8.355000 -0.051949 0
8.360000 -0.287729 0
8.365000 -0.392397 4
8.370000 -0.385746 0
8.375000 -0.308500 0
8.380000 -0.207067 0
8.385000 -0.115694 0
8.390000 -0.047460 0
8.395000 0.000885 0
8.400000 0.038183 0
8.405000 0.071527 0
8.410000 0.104467 0
8.415000 0.138051 0
8.420000 0.172123 0
8.425000 0.206058 0
8.430000 0.239052 0
8.435000 0.270231 0
8.440000 0.298701 0
8.445000 0.323596 0
8.450000 0.344117 0
8.455000 0.359580 0
8.460000 0.369446 0
8.465000 0.373359 5
8.470000 0.371160 0
8.475000 0.362902 0
8.480000 0.348845 0
8.485000 0.329441 0
8.490000 0.305311 0
8.495000 0.277213 0
8.500000 0.245999 0
8.505000 0.212572 0
8.510000 0.177846 0
8.515000 0.142701 0
8.520000 0.107952 0
8.525000 0.074316 0
8.530000 0.042395 0
8.535000 0.012661 0
8.540000 -0.014546 0
8.545000 -0.039013 0
8.550000 -0.060646 0
8.555000 -0.079455 0
8.560000 -0.095535 0
8.565000 -0.109048 0
8.570000 -0.120203 0
8.575000 -0.129239 0
8.580000 -0.136410 0
8.585000 -0.141969 0
8.590000 -0.146161 0
8.595000 -0.149212 0
8.600000 -0.150869 0
8.605000 -0.149825 0
8.610000 -0.148785 0
8.615000 -0.147750 0
8.620000 -0.146720 0
8.625000 -0.145692 0
8.630000 -0.144664 0
8.635000 -0.143633 0
8.640000 -0.142588 0
8.645000 -0.141514 0
8.650000 -0.140382 0
8.655000 -0.139147 0
8.660000 -0.137731 0
8.665000 -0.136018 0
8.670000 -0.133831 0
8.675000 -0.130921 0
8.680000 -0.126951 0
8.685000 -0.121485 0
8.690000 -0.113997 0
8.695000 -0.103896 0
8.700000 -0.090575 0
8.705000 -0.073489 0
8.710000 -0.052262 0
8.715000 -0.026807 0
8.720000 0.002566 0
8.725000 0.035057 0
8.730000 0.069345 0
8.735000 0.103636 0
8.740000 0.135787 0
8.745000 0.163521 0
8.750000 0.184684 0
8.755000 0.197523 0
8.760000 0.200929 1
8.765000 0.194592 0
8.770000 0.179049 0
8.775000 0.155612 0
8.780000 0.126181 0
8.785000 0.092970 0
8.790000 0.058144 0
8.795000 0.023301 0
8.800000 -0.011353 0
8.805000 -0.048017 0
8.810000 -0.091536 0
8.815000 -0.146855 0
8.820000 -0.212616 0
8.825000 -0.274098 0
8.830000 -0.302063 2
8.835000 -0.260053 0
8.840000 -0.115474 0
8.845000 0.147380 0
8.850000 0.506413 0
8.855000 0.879833 0
8.860000 1.137456 0
8.865000 1.166680 3
8.870000 0.949072 0
8.875000 0.574377 0
8.880000 0.177949 0
8.885000 -0.136252 0
8.890000 -0.322448 0
8.895000 -0.380874 4
8.900000 -0.341225 0
8.905000 -0.249233 0
8.910000 -0.149018 0
8.915000 -0.066878 0
8.920000 -0.008054 0
8.925000 0.034400 0
8.930000 0.069238 0
8.935000 0.102069 0
8.940000 0.135188 0
8.945000 0.168977 0
8.950000 0.203002 0
8.955000 0.236523 0
8.960000 0.268682 0
8.965000 0.298575 0
8.970000 0.325303 0
8.975000 0.348015 0
8.980000 0.365954 0
8.985000 0.378497 0
8.990000 0.385189 0
8.995000 0.385772 5
9.000000 0.380199 0
9.005000 0.368639 0
9.010000 0.351466 0
9.015000 0.329238 0
9.020000 0.302668 0
9.025000 0.272585 0
9.030000 0.239891 0
9.035000 0.205513 0
9.040000 0.170364 0
9.045000 0.135301 0
9.050000 0.101093 0
9.055000 0.068398 0
9.060000 0.037746 0
9.065000 0.009531 0
9.070000 -0.015987 0
9.075000 -0.038669 0
9.080000 -0.058493 0
9.085000 -0.075527 0
9.090000 -0.089915 0
9.095000 -0.101857 0
9.100000 -0.111588 0
9.105000 -0.119362 0
9.110000 -0.125437 0
9.115000 -0.130066 0
9.120000 -0.133484 0
9.125000 -0.135906 0
9.130000 -0.135427 0
9.135000 -0.134460 0
9.140000 -0.133496 0
9.145000 -0.132537 0
9.150000 -0.131581 0
9.155000 -0.130625 0
9.160000 -0.129666 0
9.165000 -0.128695 0
9.170000 -0.127699 0
9.175000 -0.126651 0
9.180000 -0.125509 0
9.185000 -0.124201 0
9.190000 -0.122617 0
9.195000 -0.120588 0
9.200000 -0.117876 0
9.205000 -0.114150 0
9.210000 -0.108984 0
9.215000 -0.101856 0
9.220000 -0.092170 0
9.225000 -0.079310 0
9.230000 -0.062709 0
9.235000 -0.041964 0
9.240000 -0.016949 0
9.245000 0.012060 0
9.250000 0.044295 0
9.255000 0.078454 0
9.260000 0.112745 0
9.265000 0.145011 0
9.270000 0.172939 0
9.275000 0.194331 0
9.280000 0.207388 0
9.285000 0.210961 1
9.290000 0.204715 0
9.295000 0.189185 0
9.300000 0.165695 0
9.305000 0.136174 0
9.310000 0.102870 0
9.315000 0.067977 0
9.320000 0.033092 0
9.325000 -0.001638 0
9.330000 -0.038555 0
9.335000 -0.082668 0
9.340000 -0.138834 0
9.345000 -0.205005 0
9.350000 -0.265148 0
9.355000 -0.288679 2
9.360000 -0.238484 0
9.365000 -0.082448 0
9.370000 0.192632 0
9.375000 0.558603 0
9.380000 0.925180 0
9.385000 1.157977 3
9.390000 1.153752 0
9.395000 0.910426 0
9.400000 0.526715 0
9.405000 0.134537 0
9.410000 -0.169856 0
9.415000 -0.346352 0
9.420000 -0.397767 4
9.425000 -0.354426 0
9.430000 -0.261348 0
9.435000 -0.161237 0
9.440000 -0.079267 0
9.445000 -0.020344 0
9.450000 0.022328 0
9.455000 0.057330 0
9.460000 0.090230 0
9.465000 0.123365 0
9.470000 0.157168 0
9.475000 0.191245 0
9.480000 0.224889 0
9.485000 0.257268 0
9.490000 0.287503 0
9.495000 0.314715 0
9.500000 0.338066 0
9.505000 0.356800 0
9.510000 0.370290 0
9.515000 0.378062 0
9.520000 0.379832 5
9.525000 0.375513 0
9.530000 0.365230 0
9.535000 0.349305 0
9.540000 0.328247 0
9.545000 0.302719 0
9.550000 0.273505 0
9.555000 0.241471 0
9.560000 0.207519 0
9.565000 0.172548 0
9.570000 0.137414 0
9.575000 0.102897 0
9.580000 0.069676 0
9.585000 0.038311 0
9.590000 0.009231 0
9.595000 -0.017261 0
9.600000 -0.040990 0
9.605000 -0.061891 0
9.610000 -0.079998 0
9.615000 -0.095424 0
9.620000 -0.108344 0
9.625000 -0.118974 0
9.630000 -0.127555 0
9.635000 -0.134340 0
9.640000 -0.139580 0
9.645000 -0.143511 0
9.650000 -0.146356 0
9.655000 -0.147878 0
9.660000 -0.146848 0
9.665000 -0.145823 0
9.670000 -0.144803 0
9.675000 -0.143787 0
9.680000 -0.142773 0
9.685000 -0.141759 0
9.690000 -0.140739 0
9.695000 -0.139704 0
9.700000 -0.138636 0
9.705000 -0.137504 0
9.710000 -0.136259 0
9.715000 -0.134818 0
9.720000 -0.133058 0
9.725000 -0.130795 0
9.730000 -0.127769 0
9.735000 -0.123631 0
9.740000 -0.117938 0
9.745000 -0.110159 0
9.750000 -0.099701 0
9.755000 -0.085967 0
9.760000 -0.068431 0
9.765000 -0.046749 0
9.770000 -0.020870 0
9.775000 0.008848 0
9.780000 0.041562 0
9.785000 0.075915 0
9.790000 0.110092 0
9.795000 0.141950 0
9.800000 0.169231 0
9.805000 0.189825 0
9.810000 0.202035 0
9.815000 0.204810 1
9.820000 0.197896 0
9.825000 0.181875 0
9.830000 0.158082 0
9.835000 0.128421 0
9.840000 0.095090 0
9.845000 0.060226 0
9.850000 0.025379 0
9.855000 -0.009300 0
9.860000 -0.046056 0
9.865000 -0.089728 0
9.870000 -0.145184 0
9.875000 -0.210989 0
9.880000 -0.272488 0
9.885000 -0.300713 2
9.890000 -0.259551 0
9.895000 -0.116619 0
9.900000 0.144019 0
9.905000 0.501462 0
9.910000 0.876183 0
9.915000 1.139860 0
9.920000 1.178891 3
9.925000 0.970241 0
9.930000 0.599853 0
9.935000 0.201371 0
9.940000 -0.119662 0
9.945000 -0.314761 0
9.950000 -0.381741 4
9.955000 -0.348262 0
9.960000 -0.258830 0
9.965000 -0.157916 0
9.970000 -0.073476 0
9.975000 -0.012441 0
9.980000 0.031347 0
9.985000 0.066702 0
9.990000 0.099593 0
9.995000 0.132617 0
10.000000 0.166321 0
10.005000 0.200343 0
10.010000 0.233979 0
10.015000 0.266395 0
10.020000 0.296700 0
10.025000 0.324004 0
10.030000 0.347456 0
10.035000 0.366288 0
10.040000 0.379858 0
10.045000 0.387685 0
10.050000 0.389476 5
10.055000 0.385141 0
10.060000 0.374805 0
10.065000 0.358796 0
10.070000 0.337626 0
10.075000 0.311971 0
10.080000 0.282626 0
10.085000 0.250468 0
10.090000 0.216411 0
10.095000 0.181364 0
10.100000 0.146190 0
10.105000 0.111676 0
10.110000 0.078501 0
10.115000 0.047225 0
10.120000 0.018273 0
10.125000 -0.008058 0
10.130000 -0.031600 0
10.135000 -0.052296 0
10.140000 -0.070190 0
10.145000 -0.085402 0
10.150000 -0.098114 0
10.155000 -0.108549 0
10.160000 -0.116953 0
10.165000 -0.123582 0
10.170000 -0.128688 0
10.175000 -0.132511 0
10.180000 -0.135270 0
10.185000 -0.134844 0
10.190000 -0.133880 0
10.195000 -0.132919 0
10.200000 -0.131964 0
10.205000 -0.131011 0
10.210000 -0.130060 0
10.215000 -0.129108 0
10.220000 -0.128148 0
10.225000 -0.127170 0
10.230000 -0.126153 0
10.235000 -0.125063 0
10.240000 -0.123843 0
10.245000 -0.122403 0
10.250000 -0.120605 0
10.255000 -0.118245 0
10.260000 -0.115040 0
10.265000 -0.110615 0
10.270000 -0.104496 0
10.275000 -0.096126 0
10.280000 -0.084898 0
10.285000 -0.070216 0
10.290000 -0.051589 0
10.295000 -0.028740 0
10.300000 -0.001726 0
10.305000 0.028953 0
10.310000 0.062285 0
10.315000 0.096746 0
10.320000 0.130375 0
10.325000 0.160941 0
10.330000 0.186177 0
10.335000 0.204056 0
10.340000 0.213058 1
10.345000 0.212385 0
10.350000 0.202077 0
10.355000 0.183008 0
10.360000 0.156767 0
10.365000 0.125424 0
10.370000 0.091230 0
10.375000 0.056197 0
10.380000 0.021460 0
10.385000 -0.013668 0
10.390000 -0.052593 0
10.395000 -0.100755 0
10.400000 -0.161388 0
10.405000 -0.228106 0
10.410000 -0.279557 0
10.415000 -0.282073 2
10.420000 -0.199367 0
10.425000 -0.004134 0
10.430000 0.306143 0
10.435000 0.685129 0
10.440000 1.025066 0
10.445000 1.192557 3
10.450000 1.108037 0
10.455000 0.804893 0
10.460000 0.404382 0
10.465000 0.034855 0
10.470000 -0.225401 0
10.475000 -0.353285 0
10.480000 -0.363666 4
10.485000 -0.295070 0
10.490000 -0.194871 0
10.495000 -0.100731 0
10.500000 -0.029190 0
10.505000 0.021281 0
10.510000 0.059427 0
10.515000 0.092878 0
10.520000 0.125651 0
10.525000 0.159034 0
10.530000 0.192957 0
10.535000 0.226818 0
10.540000 0.259812 0
10.545000 0.291057 0
10.550000 0.319646 0
10.555000 0.344697 0
10.560000 0.365394 0
10.565000 0.381034 0
10.570000 0.391063 0
10.575000 0.395109 5
10.580000 0.393004 0
10.585000 0.384793 0
10.590000 0.370733 0
10.595000 0.351281 0
10.600000 0.327065 0
10.605000 0.298850 0
10.610000 0.267502 0
10.615000 0.233937 0
10.620000 0.199081 0
10.625000 0.163826 0
10.630000 0.128995 0
10.635000 0.095312 0
10.640000 0.063380 0
10.645000 0.033673 0
10.650000 0.006527 0
10.655000 -0.017850 0
10.660000 -0.039372 0
10.665000 -0.058054 0
10.670000 -0.074000 0
10.675000 -0.087380 0
10.680000 -0.098409 0
10.685000 -0.107332 0
10.690000 -0.114407 0
10.695000 -0.119890 0
10.700000 -0.124027 0
10.705000 -0.127045 0
10.710000 -0.128709 0
10.715000 -0.127775 0
10.720000 -0.126846 0
10.725000 -0.125920 0
10.730000 -0.124998 0
10.735000 -0.124078 0
10.740000 -0.123157 0
10.745000 -0.122230 0
10.750000 -0.121286 0
10.755000 -0.120308 0
10.760000 -0.119263 0
10.765000 -0.118098 0
10.770000 -0.116728 0
10.775000 -0.115022 0
10.780000 -0.112784 0
10.785000 -0.109740 0
10.790000 -0.105523 0
10.795000 -0.099666 0
10.800000 -0.091615 0
10.805000 -0.080758 0
10.810000 -0.066489 0
10.815000 -0.048294 0
10.820000 -0.025865 0
10.825000 0.000775 0
10.830000 0.031162 0
10.835000 0.064317 0
10.840000 0.098736 0
10.845000 0.132461 0
10.850000 0.163247 0
10.855000 0.188796 0
10.860000 0.207038 0
10.865000 0.216406 1
10.870000 0.216059 0
10.875000 0.206008 0
10.880000 0.187113 0
10.885000 0.160965 0
10.890000 0.129652 0
10.895000 0.095451 0
10.900000 0.060397 0
10.905000 0.025640 0
10.910000 -0.009531 0
10.915000 -0.048589 0
10.920000 -0.097044 0
10.925000 -0.158023 0
10.930000 -0.224677 0
10.935000 -0.274894 2
10.940000 -0.274309 0
10.945000 -0.186387 0
10.950000 0.015653 0
10.955000 0.332205 0
10.960000 0.712522 0
10.965000 1.044025 0
10.970000 1.192997 3
10.975000 1.087273 0
10.980000 0.770186 0
10.985000 0.367743 0
10.990000 0.006104 0
10.995000 -0.241563 0
11.000000 -0.356492 0
11.005000 -0.356607 4
11.010000 -0.282398 0
11.015000 -0.181375 0
11.020000 -0.089406 0
11.025000 -0.020667 0
11.030000 0.027815 0
11.035000 0.065031 0
11.040000 0.098238 0
11.045000 0.131054 0
11.050000 0.164526 0
11.055000 0.198478 0
11.060000 0.232265 0
11.065000 0.265059 0
11.070000 0.295966 0
11.075000 0.324074 0
11.080000 0.348501 0
11.085000 0.368443 0
11.090000 0.383211 0
11.095000 0.392276 0
11.100000 0.395295 5
11.105000 0.392135 0
11.110000 0.382878 0
11.115000 0.367819 0
11.120000 0.347451 0
11.125000 0.322434 0
11.130000 0.293561 0
11.135000 0.261715 0
11.140000 0.227824 0
11.145000 0.192816 0
11.150000 0.157579 0
11.155000 0.122923 0
11.160000 0.089554 0
11.165000 0.058052 0
11.170000 0.028865 0
11.175000 0.002304 0
11.180000 -0.021451 0
11.185000 -0.042336 0
11.190000 -0.060389 0
11.195000 -0.075732 0
11.200000 -0.088546 0
11.205000 -0.099058 0
11.210000 -0.107519 0
11.215000 -0.114189 0
11.220000 -0.119324 0
11.225000 -0.123167 0
11.230000 -0.125943 0
11.235000 -0.125559 0
11.240000 -0.124640 0
11.245000 -0.123726 0
11.250000 -0.122816 0
11.255000 -0.121909 0
11.260000 -0.121003 0
11.265000 -0.120095 0
11.270000 -0.119179 0
11.275000 -0.118241 0
11.280000 -0.117262 0
11.285000 -0.116202 0
11.290000 -0.115001 0
11.295000 -0.113560 0
11.300000 -0.111730 0
11.305000 -0.109292 0
11.310000 -0.105943 0
11.315000 -0.101281 0
11.320000 -0.094807 0
11.325000 -0.085941 0
11.330000 -0.074060 0
11.335000 -0.058572 0
11.340000 -0.039014 0
11.345000 -0.015174 0
11.350000 0.012790 0
11.355000 0.044243 0
11.360000 0.078016 0
11.365000 0.112425 0
11.370000 0.145377 0
11.375000 0.174564 0
11.380000 0.197718 0
11.385000 0.212908 0
11.390000 0.218797 1
11.395000 0.214841 0
11.400000 0.201371 0
11.405000 0.179545 0
11.410000 0.151183 0
11.415000 0.118499 0
11.420000 0.083753 0
11.425000 0.048746 0
11.430000 0.014042 0
11.435000 -0.022095 0
11.440000 -0.064219 0
11.445000 -0.117698 0
11.450000 -0.182612 0
11.455000 -0.246119 0
11.460000 -0.280052 2
11.465000 -0.247519 0
11.470000 -0.114267 0
11.475000 0.138176 0
11.480000 0.491665 0
11.485000 0.867744 0
11.490000 1.135445 0
11.495000 1.176606 3
11.500000 0.964885 0
11.505000 0.590854 0
11.510000 0.195126 0
11.515000 -0.114942 0
11.520000 -0.293623 0
11.525000 -0.343226 4
11.530000 -0.296467 0
11.535000 -0.201640 0
11.540000 -0.103115 0
11.545000 -0.025026 0
11.550000 0.029977 0
11.555000 0.070107 0
11.560000 0.104012 0
11.565000 0.136669 0
11.570000 0.169849 0
11.575000 0.203644 0
11.580000 0.237478 0
11.585000 0.270530 0
11.590000 0.301883 0
11.595000 0.330591 0
11.600000 0.355732 0
11.605000 0.376450 0
11.610000 0.392008 0
11.615000 0.401830 0
11.620000 0.405531 5
11.625000 0.402946 0
11.630000 0.394137 0
11.635000 0.379392 0
11.640000 0.359208 0
11.645000 0.334260 0
11.650000 0.305367 0
11.655000 0.273444 0
11.660000 0.239452 0
11.665000 0.204352 0
11.670000 0.169061 0
11.675000 0.134414 0
11.680000 0.101131 0
11.685000 0.069802 0
11.690000 0.040874 0
11.695000 0.014651 0
11.700000 -0.008699 0
11.705000 -0.029128 0
11.710000 -0.046694 0
11.715000 -0.061537 0
11.720000 -0.073858 0
11.725000 -0.083898 0
11.730000 -0.091921 0
11.735000 -0.098196 0
11.740000 -0.102987 0
11.745000 -0.106539 0
11.750000 -0.109077 0
11.755000 -0.108728 0
11.760000 -0.107893 0
11.765000 -0.107063 0
11.770000 -0.106235 0
11.775000 -0.105409 0
11.780000 -0.104583 0
11.785000 -0.103752 0
11.790000 -0.102906 0
11.795000 -0.102029 0
11.800000 -0.101091 0
11.805000 -0.100041 0
11.810000 -0.098796 0
11.815000 -0.097225 0
11.820000 -0.095134 0
11.825000 -0.092244 0
11.830000 -0.088179 0
11.835000 -0.082456 0
11.840000 -0.074499 0
11.845000 -0.063669 0
11.850000 -0.049336 0
11.855000 -0.030968 0
11.860000 -0.008264 0
11.865000 0.018720 0
11.870000 0.049447 0
11.875000 0.082824 0
11.880000 0.117206 0
11.885000 0.150487 0
11.890000 0.180292 0
11.895000 0.204250 0
11.900000 0.220299 0
11.905000 0.226980 1
11.910000 0.223652 0
11.915000 0.210595 0
11.920000 0.188968 0
11.925000 0.160639 0
11.930000 0.127897 0
11.935000 0.093080 0
11.940000 0.058033 0
11.945000 0.023261 0
11.950000 -0.013210 0
11.955000 -0.056280 0
11.960000 -0.111296 0
11.965000 -0.177152 0
11.970000 -0.238384 0
11.975000 -0.263844 2
11.980000 -0.214945 0
11.985000 -0.058115 0
11.990000 0.220067 0
11.995000 0.588502 0
12.000000 0.949966 0
12.005000 1.163955 3
12.010000 1.129677 0
12.015000 0.858790 0
12.020000 0.464973 0
12.025000 0.084249 0
12.030000 -0.193590 0
12.035000 -0.337816 0
12.040000 -0.359704 4
12.045000 -0.296768 0
12.050000 -0.197583 0
12.055000 -0.102285 0
12.060000 -0.029439 0
12.065000 0.021733 0
12.070000 0.060096 0
12.075000 0.093573 0
12.080000 0.126345 0
12.085000 0.159737 0
12.090000 0.193669 0
12.095000 0.227513 0
12.100000 0.260437 0
12.105000 0.291531 0
12.110000 0.319862 0
12.115000 0.344529 0
12.120000 0.364701 0
12.125000 0.379671 0
12.130000 0.388891 0
12.135000 0.392007 5
12.140000 0.388879 0
12.145000 0.379590 0
12.150000 0.364444 0
12.155000 0.343945 0
12.160000 0.318773 0
12.165000 0.289740 0
12.170000 0.257754 0
12.175000 0.223761 0
12.180000 0.188709 0
12.185000 0.153498 0
12.190000 0.118947 0
12.195000 0.085765 0
12.200000 0.054528 0
12.205000 0.025677 0
12.210000 -0.000489 0
12.215000 -0.023803 0
12.220000 -0.044218 0
12.225000 -0.061788 0
12.230000 -0.076650 0
12.235000 -0.088998 0
12.240000 -0.099071 0
12.245000 -0.107127 0
12.250000 -0.113432 0
12.255000 -0.118245 0
12.260000 -0.121811 0
12.265000 -0.124353 0
12.270000 -0.123940 0
12.275000 -0.123030 0
12.280000 -0.122124 0
12.285000 -0.121221 0
12.290000 -0.120321 0
12.295000 -0.119422 0
12.300000 -0.118518 0
12.305000 -0.117602 0
12.310000 -0.116659 0
12.315000 -0.115662 0
12.320000 -0.114564 0
12.325000 -0.113290 0
12.330000 -0.111721 0
12.335000 -0.109678 0
12.340000 -0.106905 0
12.345000 -0.103050 0
12.350000 -0.097661 0
12.355000 -0.090187 0
12.360000 -0.080008 0
12.365000 -0.066493 0
12.370000 -0.049086 0
12.375000 -0.027421 0
12.380000 -0.001453 0
12.385000 0.028420 0
12.390000 0.061273 0
12.395000 0.095629 0
12.400000 0.129524 0
12.405000 0.160673 0
12.410000 0.186705 0
12.415000 0.205464 0
12.420000 0.215300 0
12.425000 0.215308 1
12.430000 0.205465 0
12.435000 0.186637 0
12.440000 0.160453 0
12.445000 0.129061 0
12.450000 0.094799 0
12.455000 0.059740 0
12.460000 0.024995 0
12.465000 -0.010328 0
12.470000 -0.050017 0
12.475000 -0.099754 0
12.480000 -0.162043 0
12.485000 -0.228126 0
12.490000 -0.273232 2
12.495000 -0.261010 0
12.500000 -0.154681 0
12.505000 0.070010 0
12.510000 0.405530 0
12.515000 0.786501 0
12.520000 1.086954 0
12.525000 1.176507 3
12.530000 1.005953 0
12.535000 0.649616 0
12.540000 0.248751 0
12.545000 -0.078525 0
12.550000 -0.276564 0
12.555000 -0.341990 4
12.560000 -0.304765 0
12.565000 -0.212997 0
12.570000 -0.113307 0
12.575000 -0.032809 0
12.580000 0.024008 0
12.585000 0.064996 0
12.590000 0.099151 0
12.595000 0.131825 0
12.600000 0.164980 0
12.605000 0.198773 0
12.610000 0.232636 0
12.615000 0.265741 0
12.620000 0.297156 0
12.625000 0.325920 0
12.630000 0.351091 0
12.635000 0.371800 0
12.640000 0.387298 0
12.645000 0.397000 0
12.650000 0.400521 5
12.655000 0.397700 0
12.660000 0.388608 0
12.665000 0.373551 0
12.670000 0.353044 0
12.675000 0.327786 0
12.680000 0.298620 0
12.685000 0.266481 0
12.690000 0.232349 0
12.695000 0.197201 0
12.700000 0.161961 0
12.705000 0.127464 0
12.710000 0.094430 0
12.715000 0.063438 0
12.720000 0.034922 0
12.725000 0.009169 0
12.730000 -0.013671 0
12.735000 -0.033569 0
12.740000 -0.050601 0
12.745000 -0.064921 0
12.750000 -0.076745 0
12.755000 -0.086324 0
12.760000 -0.093929 0
12.765000 -0.099833 0
12.770000 -0.104300 0
12.775000 -0.107576 0
12.780000 -0.109427 0
12.785000 -0.108589 0
12.790000 -0.107755 0
12.795000 -0.106925 0
12.800000 -0.106098 0
12.805000 -0.105272 0
12.810000 -0.104444 0
12.815000 -0.103609 0
12.820000 -0.102754 0
12.825000 -0.101860 0
12.830000 -0.100890 0
12.835000 -0.099781 0
12.840000 -0.098434 0
12.845000 -0.096695 0
12.850000 -0.094335 0
12.855000 -0.091035 0
12.860000 -0.086370 0
12.865000 -0.079808 0
12.870000 -0.070730 0
12.875000 -0.058481 0
12.880000 -0.042447 0
12.885000 -0.022173 0
12.890000 0.002502 0
12.895000 0.031314 0
12.900000 0.063461 0
12.905000 0.097563 0
12.910000 0.131702 0
12.915000 0.163574 0
12.920000 0.190727 0
12.925000 0.210867 0
12.930000 0.222178 0
12.935000 0.223588 1
12.940000 0.214937 0
12.945000 0.197007 0
12.950000 0.171399 0
12.955000 0.140294 0
12.960000 0.106103 0
12.965000 0.070999 0
12.970000 0.036193 0
12.975000 0.000839 0
12.980000 -0.038931 0
12.985000 -0.088964 0
12.990000 -0.151672 0
12.995000 -0.217451 0
13.000000 -0.259929 2
13.005000 -0.241183 0
13.010000 -0.123814 0
13.015000 0.114954 0
13.020000 0.461621 0
13.025000 0.839448 0
13.030000 1.112713 0
13.035000 1.155455 3
13.040000 0.944652 0
13.045000 0.571965 0
13.050000 0.175272 0
13.055000 -0.138838 0
13.060000 -0.323615 0
13.065000 -0.379644 4
13.070000 -0.337680 0
13.075000 -0.244593 0
13.080000 -0.144881 0
13.085000 -0.064211 0
13.090000 -0.006855 0
13.095000 0.034689 0
13.100000 0.069184 0
13.105000 0.102003 0
13.110000 0.135219 0
13.115000 0.169090 0
13.120000 0.203116 0
13.125000 0.236518 0
13.130000 0.268411 0
13.135000 0.297871 0
13.140000 0.323983 0
13.145000 0.345894 0
13.150000 0.362853 0
13.155000 0.374254 0
13.160000 0.379673 5
13.165000 0.378891 0
13.170000 0.371911 0
13.175000 0.358954 0
13.180000 0.340452 0
13.185000 0.317017 0
13.190000 0.289412 0
13.195000 0.258509 0
13.200000 0.225240 0
13.205000 0.190550 0
13.210000 0.155359 0
13.215000 0.120515 0
13.220000 0.086768 0
13.225000 0.054748 0
13.230000 0.024945 0
13.235000 -0.002286 0
13.240000 -0.026726 0
13.245000 -0.048283 0
13.250000 -0.066969 0
13.255000 -0.082890 0
13.260000 -0.096217 0
13.265000 -0.107170 0
13.270000 -0.116002 0
13.275000 -0.122973 0
13.280000 -0.128346 0
13.285000 -0.132372 0
13.290000 -0.135281 0
13.295000 -0.136851 0
13.300000 -0.135876 0
13.305000 -0.134906 0
13.310000 -0.133940 0
13.315000 -0.132978 0
13.320000 -0.132017 0
13.325000 -0.131056 0
13.330000 -0.130087 0
13.335000 -0.129099 0
13.340000 -0.128072 0
13.345000 -0.126969 0
13.350000 -0.125732 0
13.355000 -0.124265 0
13.360000 -0.122421 0
13.365000 -0.119985 0
13.370000 -0.116655 0
13.375000 -0.112031 0
13.380000 -0.105613 0
13.385000 -0.096813 0
13.390000 -0.085001 0
13.395000 -0.069574 0
13.400000 -0.050057 0
13.405000 -0.026225 0
13.410000 0.001765 0
13.415000 0.033273 0
13.420000 0.067113 0
13.425000 0.101572 0
13.430000 0.134521 0
13.435000 0.163616 0
13.440000 0.186561 0
13.445000 0.201414 0
13.450000 0.206851 1
13.455000 0.202367 0
13.460000 0.188348 0
13.465000 0.166022 0
13.470000 0.137276 0
13.475000 0.104375 0
13.480000 0.069592 0
13.485000 0.034673 0
13.490000 -0.000004 0
13.495000 -0.036521 0
13.500000 -0.079780 0
13.505000 -0.134959 0
13.510000 -0.200775 0
13.515000 -0.261920 0
13.520000 -0.287876 2
13.525000 -0.240845 0
13.530000 -0.087690 0
13.535000 0.185721 0
13.540000 0.551401 0
13.545000 0.917517 0
13.550000 1.147027 3
13.555000 1.133016 0
13.560000 0.876915 0
13.565000 0.487322 0
13.570000 0.101926 0
13.575000 -0.184805 0
13.580000 -0.338306 0
13.585000 -0.367533 4
13.590000 -0.308738 0
13.595000 -0.210478 0
13.600000 -0.114098 0
13.605000 -0.039693 0
13.610000 0.012604 0
13.615000 0.051508 0
13.620000 0.085152 0
13.625000 0.117942 0
13.630000 0.151327 0
13.635000 0.185276 0
13.640000 0.219177 0
13.645000 0.252202 0
13.650000 0.283442 0
13.655000 0.311960 0
13.660000 0.336850 0
13.665000 0.357275 0
13.670000 0.372518 0
13.675000 0.382024 0
13.680000 0.385427 5
13.685000 0.382578 0
13.690000 0.373552 0
13.695000 0.358645 0
13.700000 0.338357 0
13.705000 0.313361 0
13.710000 0.284472 0
13.715000 0.252593 0
13.720000 0.218677 0
13.725000 0.183672 0
13.730000 0.148485 0
13.735000 0.113937 0
13.740000 0.080744 0
13.745000 0.049487 0
13.750000 0.020611 0
13.755000 -0.005581 0
13.760000 -0.028920 0
13.765000 -0.049356 0
13.770000 -0.066941 0
13.775000 -0.081812 0
13.780000 -0.094164 0
13.785000 -0.104233 0
13.790000 -0.112281 0
13.795000 -0.118573 0
13.800000 -0.123370 0
13.805000 -0.126916 0
13.810000 -0.129436 0
13.815000 -0.128998 0
13.820000 -0.128063 0
13.825000 -0.127131 0
13.830000 -0.126204 0
13.835000 -0.125279 0
13.840000 -0.124355 0
13.845000 -0.123427 0
13.850000 -0.122486 0
13.855000 -0.121518 0
13.860000 -0.120496 0
13.865000 -0.119372 0
13.870000 -0.118071 0
13.875000 -0.116472 0
13.880000 -0.114396 0
13.885000 -0.111583 0
13.890000 -0.107681 0
13.895000 -0.102231 0
13.900000 -0.094680 0
13.905000 -0.084407 0
13.910000 -0.070778 0
13.915000 -0.053239 0
13.920000 -0.031431 0
13.925000 -0.005318 0
13.930000 0.024686 0
13.935000 0.057637 0
13.940000 0.092034 0
13.945000 0.125898 0
13.950000 0.156925 0
13.955000 0.182744 0
13.960000 0.201205 0
13.965000 0.210679 1
13.970000 0.210291 0
13.975000 0.200058 0
13.980000 0.180885 0
13.985000 0.154433 0
13.990000 0.122874 0
13.995000 0.088552 0
14.000000 0.053517 0
14.005000 0.018808 0
14.010000 -0.016603 0
14.015000 -0.056674 0
14.020000 -0.107097 0
14.025000 -0.169967 0
14.030000 -0.235631 0
14.035000 -0.278341 2
14.040000 -0.261271 0
14.045000 -0.147922 0
14.050000 0.084691 0
14.055000 0.426017 0
14.060000 0.806020 0
14.065000 1.095611 0
14.070000 1.167128 3
14.075000 0.984955 0
14.080000 0.626651 0
14.085000 0.225161 0
14.090000 -0.107900 0
14.095000 -0.317594 0
14.100000 -0.397501 4
14.105000 -0.372739 0
14.110000 -0.286865 0
14.115000 -0.185387 0
14.120000 -0.098545 0
14.125000 -0.035227 0
14.130000 0.009940 0
14.135000 0.045879 0
14.140000 0.078936 0
14.145000 0.111991 0
14.150000 0.145726 0
14.155000 0.179833 0
14.160000 0.213623 0
14.165000 0.246266 0
14.170000 0.276873 0
14.175000 0.304548 0
14.180000 0.328430 0
14.185000 0.347744 0
14.190000 0.361832 0
14.195000 0.370198 0
14.200000 0.372531 5
14.205000 0.368729 0
14.210000 0.358899 0
14.215000 0.343355 0
14.220000 0.322601 0
14.225000 0.297303 0
14.230000 0.268253 0
14.235000 0.236327 0
14.240000 0.202441 0
14.245000 0.167509 0
14.250000 0.132400 0
14.255000 0.097908 0
14.260000 0.064722 0
14.265000 0.033410 0
14.270000 0.004408 0
14.275000 -0.021982 0
14.280000 -0.045584 0
14.285000 -0.066337 0
14.290000 -0.084279 0
14.295000 -0.099529 0
14.300000 -0.112267 0
14.305000 -0.122714 0
14.310000 -0.131118 0
14.315000 -0.137735 0
14.320000 -0.142818 0
14.325000 -0.146608 0
14.330000 -0.149326 0
14.335000 -0.148835 0
14.340000 -0.147800 0
14.345000 -0.146771 0
14.350000 -0.145746 0
14.355000 -0.144724 0
14.360000 -0.143705 0
14.365000 -0.142685 0
14.370000 -0.141658 0
14.375000 -0.140613 0
14.380000 -0.139529 0
14.385000 -0.138374 0
14.390000 -0.137090 0
14.395000 -0.135587 0
14.400000 -0.133726 0
14.405000 -0.131304 0
14.410000 -0.128039 0
14.415000 -0.123552 0
14.420000 -0.117370 0
14.425000 -0.108933 0
14.430000 -0.097632 0
14.435000 -0.082871 0
14.440000 -0.064155 0
14.445000 -0.041209 0
14.450000 -0.014094 0
14.455000 0.016684 0
14.460000 0.050104 0
14.465000 0.084631 0
14.470000 0.118291 0
14.475000 0.148845 0
14.480000 0.174018 0
14.485000 0.191785 0
14.490000 0.200633 1
14.495000 0.199782 0
14.500000 0.189290 0
14.505000 0.170059 0
14.510000 0.143696 0
14.515000 0.112290 0
14.520000 0.078100 0
14.525000 0.043125 0
14.530000 0.008459 0
14.535000 -0.026676 0
14.540000 -0.065802 0
14.545000 -0.114400 0
14.550000 -0.175468 0
14.555000 -0.242015 0
14.560000 -0.291939 2
14.565000 -0.291092 0
14.570000 -0.203231 0
14.575000 -0.001757 0
14.580000 0.313947 0
14.585000 0.694136 0
14.590000 1.027798 0
14.595000 1.181905 3
14.600000 1.083733 0
14.605000 0.772950 0
14.610000 0.371450 0
14.615000 0.004633 0
14.620000 -0.252245 0
14.625000 -0.377622 0
14.630000 -0.386726 4
14.635000 -0.317758 0
14.640000 -0.217453 0
14.645000 -0.123015 0
14.650000 -0.050959 0
14.655000 0.000022 0
14.660000 0.038516 0
14.665000 0.072146 0
14.670000 0.105002 0
14.675000 0.138442 0
14.680000 0.172440 0
14.685000 0.206420 0
14.690000 0.239598 0
14.695000 0.271107 0
14.700000 0.300053 0
14.705000 0.325562 0
14.710000 0.346823 0
14.715000 0.363130 0
14.720000 0.373917 0
14.725000 0.378798 5
14.730000 0.377579 0
14.735000 0.370279 0
14.740000 0.357123 0
14.745000 0.338535 0
14.750000 0.315109 0
14.755000 0.287582 0
14.760000 0.256794 0
14.765000 0.223642 0
14.770000 0.189041 0
14.775000 0.153881 0
14.780000 0.118987 0
14.785000 0.085095 0
14.790000 0.052827 0
14.795000 0.022676 0
14.800000 -0.004994 0
14.805000 -0.029952 0
14.810000 -0.052085 0
14.815000 -0.071385 0
14.820000 -0.087935 0
14.825000 -0.101888 0
14.830000 -0.113445 0
14.835000 -0.122843 0
14.840000 -0.130332 0
14.845000 -0.136168 0
14.850000 -0.140596 0
14.855000 -0.143848 0
14.860000 -0.145652 0
14.865000 -0.144633 0
14.870000 -0.143620 0
14.875000 -0.142611 0
14.880000 -0.141606 0
14.885000 -0.140604 0
14.890000 -0.139603 0
14.895000 -0.138599 0
14.900000 -0.137583 0
14.905000 -0.136541 0
14.910000 -0.135448 0
14.915000 -0.134260 0
14.920000 -0.132907 0
14.925000 -0.131280 0
14.930000 -0.129213 0
14.935000 -0.126472 0
14.940000 -0.122733 0
14.945000 -0.117580 0
14.950000 -0.110499 0
14.955000 -0.100908 0
14.960000 -0.088198 0
14.965000 -0.071807 0
14.970000 -0.051323 0
14.975000 -0.026600 0
14.980000 0.002126 0
14.985000 0.034142 0
14.990000 0.068216 0
14.995000 0.102626 0
15.000000 0.135278 0
15.005000 0.163900 0
15.010000 0.186298 0
15.015000 0.200632 0
15.020000 0.205670 1
15.025000 0.200958 0
15.030000 0.186892 0
15.035000 0.164660 0
15.040000 0.136080 0
15.045000 0.103332 0
15.050000 0.068623 0
15.055000 0.033694 0
15.060000 -0.000937 0
15.065000 -0.036996 0
15.070000 -0.078949 0
15.075000 -0.132082 0
15.080000 -0.196682 0
15.085000 -0.260652 0
15.090000 -0.296940 2
15.095000 -0.269576 0
15.100000 -0.144488 0
15.105000 0.098140 0
15.110000 0.444582 0
15.115000 0.824006 0
15.120000 1.111280 0
15.125000 1.184555 3
15.130000 1.006935 0
15.135000 0.651761 0
15.140000 0.249427 0
15.145000 -0.088531 0
15.150000 -0.305551 0
15.155000 -0.393222 4
15.160000 -0.374684 0
15.165000 -0.291944 0
15.170000 -0.190311 0
15.175000 -0.101330 0
15.180000 -0.035631 0
15.185000 0.011130 0
15.190000 0.047758 0
15.195000 0.080933 0
15.200000 0.113878 0
15.205000 0.147482 0
15.210000 0.181534 0
15.215000 0.215397 0
15.220000 0.248268 0
15.225000 0.279280 0
15.230000 0.307551 0
15.235000 0.332225 0
15.240000 0.352520 0
15.245000 0.367761 0
15.250000 0.377423 0
15.255000 0.381160 5
15.260000 0.378819 0
15.265000 0.370455 0
15.270000 0.356329 0
15.275000 0.336888 0
15.280000 0.312748 0
15.285000 0.284655 0
15.290000 0.253452 0
15.295000 0.220032 0
15.300000 0.185298 0
15.305000 0.150122 0
15.310000 0.115313 0
15.315000 0.081582 0
15.320000 0.049532 0
15.325000 0.019635 0
15.330000 -0.007765 0
15.335000 -0.032449 0
15.340000 -0.054319 0
15.345000 -0.073375 0
15.350000 -0.089707 0
15.355000 -0.103469 0
15.360000 -0.114865 0
15.365000 -0.124129 0
15.370000 -0.131511 0
15.375000 -0.137263 0
15.380000 -0.141627 0
15.385000 -0.144831 0
15.390000 -0.146603 0
15.395000 -0.145580 0
15.400000 -0.144561 0
15.405000 -0.143548 0
15.410000 -0.142538 0
15.415000 -0.141532 0
15.420000 -0.140526 0
15.425000 -0.139517 0
15.430000 -0.138497 0
15.435000 -0.137451 0
15.440000 -0.136355 0
15.445000 -0.135166 0
15.450000 -0.133815 0
15.455000 -0.132196 0
15.460000 -0.130149 0
15.465000 -0.127443 0
15.470000 -0.123764 0
15.475000 -0.118705 0
15.480000 -0.111764 0
15.485000 -0.102368 0
15.490000 -0.089915 0
15.495000 -0.073842 0
15.500000 -0.053726 0
15.505000 -0.029393 0
15.510000 -0.001038 0
15.515000 0.030683 0
15.520000 0.064605 0
15.525000 0.099077 0
15.530000 0.132061 0
15.535000 0.161318 0
15.540000 0.184654 0
15.545000 0.200188 0
15.550000 0.206605 1
15.555000 0.203341 0
15.560000 0.190660 0
15.565000 0.169626 0
15.570000 0.141951 0
15.575000 0.109755 0
15.580000 0.075243 0
15.585000 0.040265 0
15.590000 0.005628 0
15.595000 -0.029881 0
15.600000 -0.070196 0
15.605000 -0.120724 0
15.610000 -0.183401 0
15.615000 -0.249330 0
15.620000 -0.294737 2
15.625000 -0.285140 0
15.630000 -0.185421 0
15.635000 0.028664 0
15.640000 0.353763 0
15.645000 0.735133 0
15.650000 1.059261 0
15.655000 1.196772 3
15.660000 1.082549 0
15.665000 0.762617 0
15.670000 0.360017 0
15.675000 -0.002953 0
15.680000 -0.254609 0
15.685000 -0.375491 0
15.690000 -0.381678 4
15.695000 -0.311432 0
15.700000 -0.210963 0
15.705000 -0.116761 0
15.710000 -0.044887 0
15.715000 0.006050 0
15.720000 0.044551 0
15.725000 0.078171 0
15.730000 0.110991 0
15.735000 0.144381 0
15.740000 0.178335 0
15.745000 0.212294 0
15.750000 0.245484 0
15.755000 0.277051 0
15.760000 0.306113 0
15.765000 0.331803 0
15.770000 0.353314 0
15.775000 0.369941 0
15.780000 0.381114 0
15.785000 0.386437 5
15.790000 0.385704 0
15.795000 0.378915 0
15.800000 0.366274 0
15.805000 0.348182 0
15.810000 0.325211 0
15.815000 0.298076 0
15.820000 0.267597 0
15.825000 0.234659 0
15.830000 0.200164 0
15.835000 0.164998 0
15.840000 0.129988 0
15.845000 0.095875 0
15.850000 0.063292 0
15.855000 0.032746 0
15.860000 0.004618 0
15.865000 -0.020843 0
15.870000 -0.043505 0
15.875000 -0.063344 0
15.880000 -0.080428 0
15.885000 -0.094894 0
15.890000 -0.106936 0
15.895000 -0.116780 0
15.900000 -0.124674 0
15.905000 -0.130869 0
15.910000 -0.135613 0
15.915000 -0.139136 0
15.920000 -0.141650 0
15.925000 -0.141162 0
15.930000 -0.140166 0
15.935000 -0.139174 0
15.940000 -0.138187 0
15.945000 -0.137203 0
15.950000 -0.136220 0
15.955000 -0.135235 0
15.960000 -0.134242 0
15.965000 -0.133228 0
15.970000 -0.132171 0
15.975000 -0.131036 0
15.980000 -0.129760 0
15.985000 -0.128251 0
15.990000 -0.126363 0
15.995000 -0.123887 0
16.000000 -0.120534 0
16.005000 -0.115922 0
16.010000 -0.109574 0
16.015000 -0.100935 0
16.020000 -0.089404 0
16.025000 -0.074399 0
16.030000 -0.055447 0
16.035000 -0.032296 0
16.040000 -0.005027 0
16.045000 0.025839 0
16.050000 0.059279 0
16.055000 0.093768 0
16.060000 0.127362 0
16.065000 0.157854 0
16.070000 0.183013 0
16.075000 0.200846 0
16.080000 0.209858 1
16.085000 0.209264 0
16.090000 0.199097 0
16.095000 0.180212 0
16.100000 0.154159 0
16.105000 0.122974 0
16.110000 0.088874 0
16.115000 0.053864 0
16.120000 0.019129 0
16.125000 -0.015880 0
16.130000 -0.054341 0
16.135000 -0.101571 0
16.140000 -0.161184 0
16.145000 -0.227979 0
16.150000 -0.282294 0
16.155000 -0.291768 2
16.160000 -0.220356 0
16.165000 -0.039480 0
16.170000 0.257467 0
16.175000 0.632284 0
16.180000 0.986122 0
16.185000 1.186609 3
16.190000 1.140942 0
16.195000 0.864448 0
16.200000 0.469709 0
16.205000 0.088819 0
16.210000 -0.190950 0
16.215000 -0.339076 0
16.220000 -0.365622 4
16.225000 -0.306236 0
16.230000 -0.208058 0
16.235000 -0.111309 0
16.240000 -0.035971 0
16.245000 0.017298 0
16.250000 0.056796 0
16.255000 0.090620 0
16.260000 0.123348 0
16.265000 0.156599 0
16.270000 0.190453 0
16.275000 0.224360 0
16.280000 0.257540 0
16.285000 0.289119 0
16.290000 0.318193 0
16.295000 0.343872 0
16.300000 0.365330 0
16.305000 0.381842 0
16.310000 0.392827 0
16.315000 0.397882 5
16.320000 0.396804 0
16.325000 0.389601 0
16.330000 0.376496 0
16.335000 0.357911 0
16.340000 0.334447 0
16.345000 0.306848 0
16.350000 0.275963 0
16.355000 0.242703 0
16.360000 0.207993 0
16.365000 0.172732 0
16.370000 0.137757 0
16.375000 0.103810 0
16.380000 0.071517 0
16.385000 0.041371 0
16.390000 0.013736 0
16.395000 -0.011160 0
16.400000 -0.033209 0
16.405000 -0.052412 0
16.410000 -0.068856 0
16.415000 -0.082700 0
16.420000 -0.094153 0
16.425000 -0.103456 0
16.430000 -0.110863 0
16.435000 -0.116633 0
16.440000 -0.121014 0
16.445000 -0.124236 0
16.450000 -0.126045 0
16.455000 -0.125124 0
16.460000 -0.124208 0
16.465000 -0.123296 0
16.470000 -0.122387 0
16.475000 -0.121481 0
16.480000 -0.120574 0
16.485000 -0.119662 0
16.490000 -0.118737 0
16.495000 -0.117781 0
16.500000 -0.116766 0
16.505000 -0.115643 0
16.510000 -0.114336 0
16.515000 -0.112722 0
16.520000 -0.110620 0
16.525000 -0.107775 0
16.530000 -0.103837 0
16.535000 -0.098361 0
16.540000 -0.090809 0
16.545000 -0.080576 0
16.550000 -0.067051 0
16.555000 -0.049693 0
16.560000 -0.028144 0
16.565000 -0.002350 0
16.570000 0.027323 0
16.575000 0.060005 0
16.580000 0.094298 0
16.585000 0.128330 0
16.590000 0.159900 0
16.595000 0.186702 0
16.600000 0.206598 0
16.605000 0.217898 0
16.610000 0.219599 1
16.615000 0.211527 0
16.620000 0.194370 0
16.625000 0.169579 0
16.630000 0.139159 0
16.635000 0.105373 0
16.640000 0.070349 0
16.645000 0.035496 0
16.650000 0.000593 0
16.655000 -0.037206 0
16.660000 -0.083190 0
16.665000 -0.141582 0
16.670000 -0.208349 0
16.675000 -0.264797 0
16.680000 -0.278572 2
16.685000 -0.212668 0
16.690000 -0.037075 0
16.695000 0.256349 0
16.700000 0.630258 0
16.705000 0.984599 0
16.710000 1.183993 3
16.715000 1.135568 0
16.720000 0.856583 0
16.725000 0.461094 0
16.730000 0.081585 0
16.735000 -0.195323 0
16.740000 -0.340049 0
16.745000 -0.363533 4
16.750000 -0.302186 0
16.755000 -0.203488 0
16.760000 -0.107339 0
16.765000 -0.032996 0
16.770000 0.019470 0
16.775000 0.058544 0
16.780000 0.092237 0
16.785000 0.124971 0
16.790000 0.158265 0
16.795000 0.192142 0
16.800000 0.226030 0
16.805000 0.259135 0
16.810000 0.290575 0
16.815000 0.319438 0
16.820000 0.344835 0
16.825000 0.365939 0
16.830000 0.382030 0
16.835000 0.392538 0
16.840000 0.397073 5
16.845000 0.395448 0
16.850000 0.387691 0
16.855000 0.374046 0
16.860000 0.354956 0
16.865000 0.331039 0
16.870000 0.303059 0
16.875000 0.271878 0
16.880000 0.238414 0
16.885000 0.203599 0
16.890000 0.168332 0
16.895000 0.133444 0
16.900000 0.099670 0
16.905000 0.067622 0
16.910000 0.037782 0
16.915000 0.010497 0
16.920000 -0.014020 0
16.925000 -0.035677 0
16.930000 -0.054485 0
16.935000 -0.070546 0
16.940000 -0.084027 0
16.945000 -0.095145 0
16.950000 -0.104143 0
16.955000 -0.111281 0
16.960000 -0.116817 0
16.965000 -0.120998 0
16.970000 -0.124053 0
16.975000 -0.125745 0
16.980000 -0.124826 0
16.985000 -0.123911 0
16.990000 -0.123000 0
16.995000 -0.122092 0
17.000000 -0.121187 0
17.005000 -0.120280 0
17.010000 -0.119367 0
17.015000 -0.118438 0
17.020000 -0.117474 0
17.025000 -0.116443 0
17.030000 -0.115291 0
17.035000 -0.113933 0
17.040000 -0.112235 0
17.045000 -0.110002 0
17.050000 -0.106956 0
17.055000 -0.102726 0
17.060000 -0.096843 0
17.065000 -0.088748 0
17.070000 -0.077824 0
17.075000 -0.063465 0
17.080000 -0.045158 0
17.085000 -0.022602 0
17.090000 0.004166 0
17.095000 0.034665 0
17.100000 0.067890 0
17.105000 0.102311 0
17.110000 0.135944 0
17.115000 0.166527 0
17.120000 0.191755 0
17.125000 0.209566 0
17.130000 0.218420 1
17.135000 0.217515 0
17.140000 0.206909 0
17.145000 0.187516 0
17.150000 0.160970 0
17.155000 0.129391 0
17.160000 0.095064 0
17.165000 0.059999 0
17.170000 0.025254 0
17.175000 -0.010062 0
17.180000 -0.049650 0
17.185000 -0.099074 0
17.190000 -0.160971 0
17.195000 -0.227322 0
17.200000 -0.274633 2
17.205000 -0.267747 0
17.210000 -0.170330 0
17.215000 0.042936 0
17.220000 0.368752 0
17.225000 0.750093 0
17.230000 1.068991 0
17.235000 1.193439 3
17.240000 1.059045 0
17.245000 0.722577 0
17.250000 0.319333 0
17.255000 -0.026324 0
17.260000 -0.249058 0
17.265000 -0.337893 4
17.270000 -0.317306 0
17.275000 -0.232493 0
17.280000 -0.131375 0
17.285000 -0.045571 0
17.290000 0.016190 0
17.295000 0.060008 0
17.300000 0.095162 0
17.305000 0.127895 0
17.310000 0.160837 0
17.315000 0.194471 0
17.320000 0.228366 0
17.325000 0.261755 0
17.330000 0.293742 0
17.335000 0.323383 0
17.340000 0.349742 0
17.345000 0.371938 0
17.350000 0.389190 0
17.355000 0.400865 0
17.360000 0.406517 5
17.365000 0.405907 0
17.370000 0.399028 0
17.375000 0.386096 0
17.380000 0.367545 0
17.385000 0.344000 0
17.390000 0.316240 0
17.395000 0.285154 0
17.400000 0.251696 0
17.405000 0.216833 0
17.410000 0.181500 0
17.415000 0.146562 0
17.420000 0.112779 0
17.425000 0.080781 0
17.430000 0.051062 0
17.435000 0.023971 0
17.440000 -0.000285 0
17.445000 -0.021622 0
17.450000 -0.040067 0
17.455000 -0.055737 0
17.460000 -0.068817 0
17.465000 -0.079538 0
17.470000 -0.088159 0
17.475000 -0.094949 0
17.480000 -0.100175 0
17.485000 -0.104088 0
17.490000 -0.106921 0
17.495000 -0.106624 0
17.500000 -0.105801 0
17.505000 -0.104980 0
17.510000 -0.104164 0
17.515000 -0.103349 0
17.520000 -0.102535 0
17.525000 -0.101718 0
17.530000 -0.100889 0
17.535000 -0.100035 0
17.540000 -0.099131 0
17.545000 -0.098133 0
17.550000 -0.096969 0
17.555000 -0.095524 0
17.560000 -0.093625 0
17.565000 -0.091020 0
17.570000 -0.087363 0
17.575000 -0.082204 0
17.580000 -0.074989 0
17.585000 -0.065095 0
17.590000 -0.051878 0
17.595000 -0.034765 0
17.600000 -0.013372 0
17.605000 0.012365 0
17.610000 0.042060 0
17.615000 0.074790 0
17.620000 0.109067 0
17.625000 0.142902 0
17.630000 0.173974 0
17.635000 0.199877 0
17.640000 0.218425 0
17.645000 0.227953 1
17.650000 0.227563 0
17.655000 0.217263 0
17.660000 0.197968 0
17.665000 0.171363 0
17.670000 0.139651 0
17.675000 0.105204 0
17.680000 0.070083 0
17.685000 0.035293 0
17.690000 -0.000308 0
17.695000 -0.040851 0
17.700000 -0.092080 0
17.705000 -0.155654 0
17.710000 -0.220821 0
17.715000 -0.260461 2
17.720000 -0.236885 0
17.725000 -0.113722 0
17.730000 0.130269 0
17.735000 0.479716 0
17.740000 0.856761 0
17.745000 1.126897 0
17.750000 1.167091 3
17.755000 0.953579 0
17.760000 0.579048 0
17.765000 0.183485 0
17.770000 -0.126447 0
17.775000 -0.305301 0
17.780000 -0.355323 4
17.785000 -0.308980 0
17.790000 -0.214299 0
17.795000 -0.115570 0
17.800000 -0.037081 0
17.805000 0.018300 0
17.810000 0.058674 0
17.815000 0.092698 0
17.820000 0.125407 0
17.825000 0.158619 0
17.830000 0.192454 0
17.835000 0.226350 0
17.840000 0.259492 0
17.845000 0.290972 0
17.850000 0.319849 0
17.855000 0.345201 0
17.860000 0.366175 0
17.865000 0.382031 0
17.870000 0.392187 0
17.875000 0.396251 5
17.880000 0.394047 0
17.885000 0.385625 0
17.890000 0.371259 0
17.895000 0.351432 0
17.900000 0.326807 0
17.905000 0.298192 0
17.910000 0.266490 0
17.915000 0.232657 0
17.920000 0.197653 0
17.925000 0.162393 0
17.930000 0.127715 0
17.935000 0.094346 0
17.940000 0.062883 0
17.945000 0.033784 0
17.950000 0.007363 0
17.955000 -0.016201 0
17.960000 -0.036852 0
17.965000 -0.054637 0
17.970000 -0.069689 0
17.975000 -0.082204 0
17.980000 -0.092418 0
17.985000 -0.100592 0
17.990000 -0.106995 0
17.995000 -0.111889 0
18.000000 -0.115522 0
18.005000 -0.118118 0
18.010000 -0.117740 0
18.015000 -0.116861 0
18.020000 -0.115985 0
18.025000 -0.115113 0
18.030000 -0.114244 0
18.035000 -0.113374 0
18.040000 -0.112501 0
18.045000 -0.111615 0
18.050000 -0.110701 0
18.055000 -0.109731 0
18.060000 -0.108658 0
18.065000 -0.107406 0
18.070000 -0.105851 0
18.075000 -0.103811 0
18.080000 -0.101022 0
18.085000 -0.097125 0
18.090000 -0.091656 0
18.095000 -0.084055 0
18.100000 -0.073692 0
18.105000 -0.059932 0
18.110000 -0.042223 0
18.115000 -0.020218 0
18.120000 0.006097 0
18.125000 0.036275 0
18.130000 0.069329 0
18.135000 0.103712 0
18.140000 0.137400 0
18.145000 0.168059 0
18.150000 0.193308 0
18.155000 0.211013 0
18.160000 0.219590 1
18.165000 0.218235 0
18.170000 0.207049 0
18.175000 0.187023 0
18.180000 0.159896 0
18.185000 0.127889 0
18.190000 0.093355 0
18.195000 0.058290 0
18.200000 0.023559 0
18.205000 -0.012193 0
18.210000 -0.053294 0
18.215000 -0.105409 0
18.220000 -0.169582 0
18.225000 -0.234024 0
18.230000 -0.270788 2
18.235000 -0.242095 0
18.240000 -0.112262 0
18.245000 0.138434 0
18.250000 0.491914 0
18.255000 0.867186 0
18.260000 1.128950 0
18.265000 1.157661 3
18.270000 0.933339 0
18.275000 0.553771 0
18.280000 0.161490 0
18.285000 -0.138880 0
18.290000 -0.305548 0
18.295000 -0.344160 4
18.300000 -0.290113 0
18.305000 -0.192972 0
18.310000 -0.096080 0
18.315000 -0.021088 0
18.320000 0.031385 0
18.325000 0.070210 0
18.330000 0.103736 0
18.335000 0.136445 0
18.340000 0.169774 0
18.345000 0.203656 0
18.350000 0.237444 0
18.355000 0.270279 0
18.360000 0.301223 0
18.365000 0.329314 0
18.370000 0.353627 0
18.375000 0.373313 0
18.380000 0.387657 0
18.385000 0.396114 0
18.390000 0.398343 5
18.395000 0.394233 0
18.400000 0.383903 0
18.405000 0.367703 0
18.410000 0.346186 0
18.415000 0.320084 0
18.420000 0.290258 0
18.425000 0.257655 0
18.430000 0.223257 0
18.435000 0.188031 0
18.440000 0.152885 0
18.445000 0.118632 0
18.450000 0.085963 0
18.455000 0.055429 0
18.460000 0.027435 0
18.465000 0.002239 0
18.470000 -0.020032 0
18.475000 -0.039372 0
18.480000 -0.055871 0
18.485000 -0.069699 0
18.490000 -0.081077 0
18.495000 -0.090261 0
18.500000 -0.097523 0
18.505000 -0.103135 0
18.510000 -0.107358 0
18.515000 -0.110433 0
18.520000 -0.112143 0
18.525000 -0.111292 0
18.530000 -0.110444 0
18.535000 -0.109600 0
18.540000 -0.108759 0
18.545000 -0.107919 0
18.550000 -0.107077 0
18.555000 -0.106226 0
18.560000 -0.105353 0
18.565000 -0.104435 0
18.570000 -0.103433 0
18.575000 -0.102279 0
18.580000 -0.100866 0
18.585000 -0.099030 0
18.590000 -0.096528 0
18.595000 -0.093026 0
18.600000 -0.088081 0
18.605000 -0.081148 0
18.610000 -0.071598 0
18.615000 -0.058778 0
18.620000 -0.042092 0
18.625000 -0.021124 0
18.630000 0.004232 0
18.635000 0.033633 0
18.640000 0.066193 0
18.645000 0.100447 0
18.650000 0.134411 0
18.655000 0.165747 0
18.660000 0.192011 0
18.665000 0.210966 0
18.670000 0.220892 1
18.675000 0.220845 0
18.680000 0.210804 0
18.685000 0.191677 0
18.690000 0.165161 0
18.695000 0.133489 0
18.700000 0.099064 0
18.705000 0.063973 0
18.710000 0.029214 0
18.715000 -0.006431 0
18.720000 -0.047230 0
18.725000 -0.098979 0
18.730000 -0.162989 0
18.735000 -0.227546 0
18.740000 -0.264298 2
18.745000 -0.234728 0
18.750000 -0.102546 0
18.755000 0.151796 0
18.760000 0.508145 0
18.765000 0.881059 0
18.770000 1.131303 0
18.775000 1.141263 3
18.780000 0.902611 0
18.785000 0.518676 0
18.790000 0.128616 0
18.795000 -0.167863 0
18.800000 -0.331746 0
18.805000 -0.369312 4
18.810000 -0.315357 0
18.815000 -0.218349 0
18.820000 -0.120917 0
18.825000 -0.044853 0
18.830000 0.008663 0
18.835000 0.048148 0
18.840000 0.081956 0
18.845000 0.114741 0
18.850000 0.148091 0
18.855000 0.182028 0
18.860000 0.215959 0
18.865000 0.249058 0
18.870000 0.280416 0
18.875000 0.309094 0
18.880000 0.334177 0
18.885000 0.354823 0
18.890000 0.370305 0
18.895000 0.380058 0
18.900000 0.383706 5
18.905000 0.381093 0
18.910000 0.372283 0
18.915000 0.357568 0
18.920000 0.337442 0
18.925000 0.312577 0
18.930000 0.283787 0
18.935000 0.251978 0
18.940000 0.218104 0
18.945000 0.183119 0
18.950000 0.147933 0
18.955000 0.113375 0
18.960000 0.080162 0
18.965000 0.048883 0
18.970000 0.019983 0
18.975000 -0.006230 0
18.980000 -0.029585 0
18.985000 -0.050032 0
18.990000 -0.067623 0
18.995000 -0.082493 0
19.000000 -0.094839 0
19.005000 -0.104900 0
19.010000 -0.112936 0
19.015000 -0.119215 0
19.020000 -0.123997 0
19.025000 -0.127529 0
19.030000 -0.130034 0
19.035000 -0.129592 0
19.040000 -0.128653 0
19.045000 -0.127719 0
19.050000 -0.126788 0
19.055000 -0.125860 0
19.060000 -0.124933 0
19.065000 -0.124002 0
19.070000 -0.123058 0
19.075000 -0.122086 0
19.080000 -0.121058 0
19.085000 -0.119926 0
19.090000 -0.118614 0
19.095000 -0.116998 0
19.100000 -0.114895 0
19.105000 -0.112042 0
19.110000 -0.108079 0
19.115000 -0.102543 0
19.120000 -0.094875 0
19.125000 -0.084448 0
19.130000 -0.070627 0
19.135000 -0.052865 0
19.140000 -0.030813 0
19.145000 -0.004458 0
19.150000 0.025756 0
19.155000 0.058847 0
19.160000 0.093278 0
19.165000 0.127034 0
19.170000 0.157791 0
19.175000 0.183174 0
19.180000 0.201051 0
19.185000 0.209833 1
19.190000 0.208705 0
19.195000 0.197751 0
19.200000 0.177944 0
19.205000 0.151002 0
19.210000 0.119133 0
19.215000 0.084685 0
19.220000 0.049663 0
19.225000 0.014976 0
19.230000 -0.020646 0
19.235000 -0.061431 0
19.240000 -0.113055 0
19.245000 -0.176856 0
19.250000 -0.241652 0
19.255000 -0.280133 2
19.260000 -0.254810 0
19.265000 -0.129780 0
19.270000 0.115656 0
19.275000 0.465735 0
19.280000 0.842831 0
19.285000 1.113484 0
19.290000 1.155519 3
19.295000 0.944879 0
19.300000 0.572158 0
19.305000 0.175538 0
19.310000 -0.138241 0
19.315000 -0.322476 0
19.320000 -0.377899 4
19.325000 -0.335460 0
19.330000 -0.242182 0
19.335000 -0.142570 0
19.340000 -0.062150 0
19.345000 -0.005029 0
19.350000 0.036373 0
19.355000 0.070813 0
19.360000 0.103623 0
19.365000 0.136846 0
19.370000 0.170720 0
19.375000 0.204736 0
19.380000 0.238113 0
19.385000 0.269960 0
19.390000 0.299351 0
19.395000 0.325372 0
19.400000 0.347167 0
19.405000 0.363987 0
19.410000 0.375228 0
19.415000 0.380472 5
19.420000 0.379506 0
19.425000 0.372337 0
19.430000 0.359194 0
19.435000 0.340516 0
19.440000 0.316923 0
19.445000 0.289184 0
19.450000 0.258175 0
19.455000 0.224831 0
19.460000 0.190101 0
19.465000 0.154903 0
19.470000 0.120085 0
19.475000 0.086394 0
19.480000 0.054455 0
19.485000 0.024756 0
19.490000 -0.002357 0
19.495000 -0.026669 0
19.500000 -0.048092 0
19.505000 -0.066645 0
19.510000 -0.082435 0
19.515000 -0.095640 0
19.520000 -0.106481 0
19.525000 -0.115211 0
19.530000 -0.122093 0
19.535000 -0.127390 0
19.540000 -0.131351 0
19.545000 -0.134208 0
19.550000 -0.135742 0
19.555000 -0.134773 0
19.560000 -0.133808 0
19.565000 -0.132848 0
19.570000 -0.131891 0
19.575000 -0.130936 0
19.580000 -0.129979 0
19.585000 -0.129014 0
19.590000 -0.128029 0
19.595000 -0.127003 0
19.600000 -0.125898 0
19.605000 -0.124653 0
19.610000 -0.123169 0
19.615000 -0.121293 0
19.620000 -0.118805 0
19.625000 -0.115395 0
19.630000 -0.110653 0
19.635000 -0.104071 0
19.640000 -0.095054 0
19.645000 -0.082969 0
19.650000 -0.067219 0
19.655000 -0.047343 0
19.660000 -0.023144 0
19.665000 0.005183 0
19.670000 0.036949 0
19.675000 0.070918 0
19.680000 0.105330 0
19.685000 0.138020 0
19.690000 0.166630 0
19.695000 0.188883 0
19.700000 0.202876 0
19.705000 0.207357 1
19.710000 0.201902 0
19.715000 0.186988 0
19.720000 0.163920 0
19.725000 0.134641 0
19.730000 0.101443 0
19.735000 0.066577 0
19.740000 0.031696 0
19.745000 -0.003029 0
19.750000 -0.040001 0
19.755000 -0.084357 0
19.760000 -0.140973 0
19.765000 -0.207332 0
19.770000 -0.266277 0
19.775000 -0.285862 2
19.780000 -0.228118 0
19.785000 -0.061182 0
19.790000 0.225590 0
19.795000 0.597400 0
19.800000 0.954646 0
19.805000 1.158848 3
19.810000 1.115637 0
19.815000 0.840816 0
19.820000 0.446586 0
19.825000 0.065369 0
19.830000 -0.215042 0
19.835000 -0.363767 0
19.840000 -0.390702 4
19.845000 -0.331453 0
19.850000 -0.233208 0
19.855000 -0.136295 0
19.860000 -0.060784 0
19.865000 -0.007366 0
19.870000 0.032260 0
19.875000 0.066207 0
19.880000 0.099057 0
19.885000 0.132431 0
19.890000 0.166406 0
19.895000 0.200433 0
19.900000 0.233729 0
19.905000 0.265418 0
19.910000 0.294596 0
19.915000 0.320373 0
19.920000 0.341920 0
19.925000 0.358512 0
19.930000 0.369570 0
19.935000 0.374691 5
19.940000 0.373672 0
19.945000 0.366526 0
19.950000 0.353475 0
19.955000 0.334947 0
19.960000 0.311542 0
19.965000 0.284010 0
19.970000 0.253200 0
19.975000 0.220024 0
19.980000 0.185410 0
19.985000 0.150258 0
19.990000 0.115403 0
19.995000 0.081587 0
20.000000 0.049435 0
20.005000 0.019440 0
20.010000 -0.008039 0
20.015000 -0.032774 0
20.020000 -0.054661 0
20.025000 -0.073699 0
20.030000 -0.089981 0
20.035000 -0.103666 0
20.040000 -0.114964 0
20.045000 -0.124117 0
20.050000 -0.131379 0
20.055000 -0.137010 0
20.060000 -0.141257 0
20.065000 -0.144352 0
20.070000 -0.146041 0
20.075000 -0.145020 0
20.080000 -0.144005 0
20.085000 -0.142994 0
20.090000 -0.141987 0
20.095000 -0.140983 0
20.100000 -0.139979 0
20.105000 -0.138970 0
20.110000 -0.137947 0
20.115000 -0.136893 0
20.120000 -0.135780 0
20.125000 -0.134558 0
20.130000 -0.133147 0
20.135000 -0.131425 0
20.140000 -0.129208 0
20.145000 -0.126235 0
20.150000 -0.122155 0
20.155000 -0.116517 0
20.160000 -0.108778 0
20.165000 -0.098334 0
20.170000 -0.084570 0
20.175000 -0.066953 0
20.180000 -0.045133 0
20.185000 -0.019071 0
20.190000 0.010845 0
20.195000 0.043721 0
20.200000 0.078134 0
20.205000 0.112192 0
20.210000 0.143679 0
20.215000 0.170289 0
20.220000 0.189895 0
20.225000 0.200833 0
20.230000 0.202136 1
20.235000 0.193674 0
20.240000 0.176176 0
20.245000 0.151130 0
20.250000 0.120563 0
20.255000 0.086745 0
20.260000 0.051789 0
20.265000 0.017042 0
20.270000 -0.017836 0
20.275000 -0.055855 0
20.280000 -0.102382 0
20.285000 -0.161396 0
20.290000 -0.228148 0
20.295000 -0.283015 0
20.300000 -0.293027 2
20.305000 -0.221213 0
20.310000 -0.038341 0
20.315000 0.261739 0
20.320000 0.638037 0
20.325000 0.986757 0
20.330000 1.172425 3
20.335000 1.109934 0
20.340000 0.823368 0
20.345000 0.426580 0
20.350000 0.048218 0
20.355000 -0.228219 0
20.360000 -0.374110 0
20.365000 -0.399850 4
20.370000 -0.340526 0
20.375000 -0.242381 0
20.380000 -0.145094 0
20.385000 -0.068774 0
20.390000 -0.014539 0
20.395000 0.025609 0
20.400000 0.059761 0
20.405000 0.092627 0
20.410000 0.125958 0
20.415000 0.159910 0
20.420000 0.193981 0
20.425000 0.227420 0
20.430000 0.259377 0
20.435000 0.288966 0
20.440000 0.315313 0
20.445000 0.337594 0
20.450000 0.355082 0
20.455000 0.367182 0
20.460000 0.373468 0
20.465000 0.373701 5
20.470000 0.367852 0
20.475000 0.356095 0
20.480000 0.338807 0
20.485000 0.316537 0
20.490000 0.289989 0
20.495000 0.259972 0
20.500000 0.227367 0
20.505000 0.193084 0
20.510000 0.158014 0
20.515000 0.122998 0
20.520000 0.088793 0
20.525000 0.056049 0
20.530000 0.025292 0
20.535000 -0.003081 0
20.540000 -0.028805 0
20.545000 -0.051734 0
20.550000 -0.071832 0
20.555000 -0.089158 0
20.560000 -0.103843 0
20.565000 -0.116076 0
20.570000 -0.126083 0
20.575000 -0.134110 0
20.580000 -0.140410 0
20.585000 -0.145232 0
20.590000 -0.148810 0
20.595000 -0.151359 0
20.600000 -0.150834 0
20.605000 -0.149790 0
20.610000 -0.148750 0
20.615000 -0.147715 0
20.620000 -0.146684 0
20.625000 -0.145654 0
20.630000 -0.144623 0
20.635000 -0.143585 0
20.640000 -0.142526 0
20.645000 -0.141427 0
20.650000 -0.140253 0
20.655000 -0.138943 0
20.660000 -0.137407 0
20.665000 -0.135502 0
20.670000 -0.133022 0
20.675000 -0.129683 0
20.680000 -0.125106 0
20.685000 -0.118817 0
20.690000 -0.110261 0
20.695000 -0.098836 0
20.700000 -0.083955 0
20.705000 -0.065137 0
20.710000 -0.042114 0
20.715000 -0.014954 0
20.720000 0.015840 0
20.725000 0.049258 0
20.730000 0.083786 0
20.735000 0.117482 0
20.740000 0.148135 0
20.745000 0.173501 0
20.750000 0.191568 0
20.755000 0.200822 1
20.760000 0.200456 0
20.765000 0.190490 0
20.770000 0.171765 0
20.775000 0.145833 0
20.780000 0.114732 0
20.785000 0.080689 0
20.790000 0.045722 0
20.795000 0.011027 0
20.800000 -0.023940 0
20.805000 -0.062367 0
20.810000 -0.109594 0
20.815000 -0.169229 0
20.820000 -0.235982 0
20.825000 -0.289991 0
20.830000 -0.298672 2
20.835000 -0.225849 0
20.840000 -0.043017 0
20.845000 0.255919 0
20.850000 0.631529 0
20.855000 0.983372 0
20.860000 1.178542 3
20.865000 1.128225 0
20.870000 0.850374 0
20.875000 0.455779 0
20.880000 0.073907 0
20.885000 -0.209002 0
20.890000 -0.361876 0
20.895000 -0.393433 4
20.900000 -0.337663 0
20.905000 -0.240543 0
20.910000 -0.142488 0
20.915000 -0.064805 0
20.920000 -0.009482 0
20.925000 0.031222 0
20.930000 0.065531 0
20.935000 0.098363 0
20.940000 0.131610 0
20.945000 0.165494 0
20.950000 0.199540 0
20.955000 0.233008 0
20.960000 0.265055 0
20.965000 0.294797 0
20.970000 0.321360 0
20.975000 0.343918 0
20.980000 0.361735 0
20.985000 0.374209 0
20.990000 0.380899 0
20.995000 0.381555 5
21.000000 0.376130 0
21.005000 0.364784 0
21.010000 0.347875 0
21.015000 0.325942 0
21.020000 0.299673 0
21.025000 0.269871 0
21.030000 0.237410 0
21.035000 0.203197 0
21.040000 0.168124 0
21.045000 0.133037 0
21.050000 0.098700 0
21.055000 0.065769 0
21.060000 0.034782 0
21.065000 0.006146 0
21.070000 -0.019862 0
21.075000 -0.043086 0
21.080000 -0.063481 0
21.085000 -0.081098 0
21.090000 -0.096061 0
21.095000 -0.108555 0
21.100000 -0.118801 0
21.105000 -0.127045 0
21.110000 -0.133538 0
21.115000 -0.138530 0
21.120000 -0.142256 0
21.125000 -0.144933 0
21.130000 -0.144455 0
21.135000 -0.143442 0
21.140000 -0.142434 0
21.145000 -0.141431 0
21.150000 -0.140431 0
21.155000 -0.139433 0
21.160000 -0.138434 0
21.165000 -0.137428 0
21.170000 -0.136404 0
21.175000 -0.135342 0
21.180000 -0.134210 0
21.185000 -0.132951 0
21.190000 -0.131478 0
21.195000 -0.129656 0
21.200000 -0.127289 0
21.205000 -0.124102 0
21.210000 -0.119728 0
21.215000 -0.113708 0
21.220000 -0.105494 0
21.225000 -0.094490 0
21.230000 -0.080103 0
21.235000 -0.061834 0
21.240000 -0.039383 0
21.245000 -0.012767 0
21.250000 0.017571 0
21.255000 0.050691 0
21.260000 0.085147 0
21.265000 0.119048 0
21.270000 0.150212 0
21.275000 0.176390 0
21.280000 0.195525 0
21.285000 0.206026 0
21.290000 0.206982 1
21.295000 0.198293 0
21.300000 0.180692 0
21.305000 0.155637 0
21.310000 0.125109 0
21.315000 0.091327 0
21.320000 0.056364 0
21.325000 0.021582 0
21.330000 -0.013242 0
21.335000 -0.050874 0
21.340000 -0.096473 0
21.345000 -0.154302 0
21.350000 -0.220897 0
21.355000 -0.278746 0
21.360000 -0.296799 2
21.365000 -0.238789 0
21.370000 -0.074298 0
21.375000 0.207568 0
21.380000 0.576204 0
21.385000 0.940590 0
21.390000 1.168934 3
21.395000 1.160266 0
21.400000 0.913937 0
21.405000 0.529288 0
21.410000 0.137532 0
21.415000 -0.166071 0
21.420000 -0.341987 0
21.425000 -0.393183 4
21.430000 -0.349887 0
21.435000 -0.256902 0
21.440000 -0.156760 0
21.445000 -0.074630 0
21.450000 -0.015519 0
21.455000 0.027276 0
21.460000 0.062316 0
21.465000 0.095197 0
21.470000 0.128289 0
21.475000 0.162051 0
21.480000 0.196101 0
21.485000 0.229740 0
21.490000 0.262141 0
21.495000 0.292432 0
21.500000 0.319736 0
21.505000 0.343218 0
21.510000 0.362123 0
21.515000 0.375818 0
21.520000 0.383828 0
21.525000 0.385859 5
21.530000 0.381817 0
21.535000 0.371814 0
21.540000 0.356161 0
21.545000 0.335355 0
21.550000 0.310047 0
21.555000 0.281012 0
21.560000 0.249108 0
21.565000 0.215230 0
21.570000 0.180276 0
21.575000 0.145100 0
21.580000 0.110487 0
21.585000 0.077118 0
21.590000 0.045561 0
21.595000 0.016255 0
21.600000 -0.010490 0
21.605000 -0.034489 0
21.610000 -0.055668 0
21.615000 -0.074053 0
21.620000 -0.089750 0
21.625000 -0.102927 0
21.630000 -0.113798 0
21.635000 -0.122600 0
21.640000 -0.129583 0
21.645000 -0.134998 0
21.650000 -0.139083 0
21.655000 -0.142060 0
21.660000 -0.143682 0
21.665000 -0.142673 0
21.670000 -0.141669 0
21.675000 -0.140670 0
21.680000 -0.139674 0
21.685000 -0.138681 0
21.690000 -0.137688 0
21.695000 -0.136691 0
21.700000 -0.135679 0
21.705000 -0.134638 0
21.710000 -0.133539 0
21.715000 -0.132334 0
21.720000 -0.130949 0
21.725000 -0.129267 0
21.730000 -0.127114 0
21.735000 -0.124245 0
21.740000 -0.120328 0
21.745000 -0.114934 0
21.750000 -0.107549 0
21.755000 -0.097590 0
21.760000 -0.084458 0
21.765000 -0.067612 0
21.770000 -0.046670 0
21.775000 -0.021525 0
21.780000 0.007545 0
21.785000 0.039789 0
21.790000 0.073947 0
21.795000 0.108288 0
21.800000 0.140725 0
21.805000 0.169014 0
21.810000 0.191008 0
21.815000 0.204918 0
21.820000 0.209562 1
21.825000 0.204525 0
21.830000 0.190223 0
21.835000 0.167847 0
21.840000 0.139195 0
21.845000 0.106422 0
21.850000 0.071702 0
21.855000 0.036755 0
21.860000 0.002115 0
21.865000 -0.033869 0
21.870000 -0.075540 0
21.875000 -0.128163 0
21.880000 -0.192382 0
21.885000 -0.256982 0
21.890000 -0.296016 2
21.895000 -0.274262 0
21.900000 -0.157630 0
21.905000 0.075058 0
21.910000 0.414035 0
21.915000 0.795182 0
21.920000 1.098686 0
21.925000 1.200000 3
21.930000 1.048700 0
21.935000 0.705907 0
21.940000 0.302566 0
21.945000 -0.043314 0
21.950000 -0.269329 0
21.955000 -0.364070 4
21.960000 -0.349699 0
21.965000 -0.268544 0
21.970000 -0.167071 0
21.975000 -0.077974 0
21.980000 -0.012375 0
21.985000 0.034127 0
21.990000 0.070517 0
21.995000 0.103544 0
22.000000 0.136407 0
22.005000 0.169944 0
22.010000 0.203904 0
22.015000 0.237621 0
22.020000 0.270266 0
22.025000 0.300948 0
22.030000 0.328768 0
22.035000 0.352856 0
22.040000 0.372422 0
22.045000 0.386797 0
22.050000 0.395468 0
22.055000 0.398108 5
22.060000 0.394599 0
22.065000 0.385033 0
22.070000 0.369715 0
22.075000 0.349137 0
22.080000 0.323962 0
22.085000 0.294976 0
22.090000 0.263058 0
22.095000 0.229126 0
22.100000 0.194100 0
22.105000 0.158856 0
22.110000 0.124197 0
22.115000 0.090821 0
22.120000 0.059302 0
22.125000 0.030083 0
22.130000 0.003475 0
22.135000 -0.020341 0
22.140000 -0.041302 0
22.145000 -0.059442 0
22.150000 -0.074880 0
22.155000 -0.087794 0
22.160000 -0.098406 0
22.165000 -0.106965 0
22.170000 -0.113728 0
22.175000 -0.118948 0
22.180000 -0.122869 0
22.185000 -0.125714 0
22.190000 -0.125341 0
22.195000 -0.124424 0
22.200000 -0.123511 0
22.205000 -0.122602 0
22.210000 -0.121696 0
22.215000 -0.120792 0
22.220000 -0.119886 0
22.225000 -0.118972 0
22.230000 -0.118040 0
22.235000 -0.117068 0
22.240000 -0.116023 0
22.245000 -0.114847 0
22.250000 -0.113448 0
22.255000 -0.111685 0
22.260000 -0.109354 0
22.265000 -0.106166 0
22.270000 -0.101740 0
22.275000 -0.095596 0
22.280000 -0.087169 0
22.285000 -0.075847 0
22.290000 -0.061032 0
22.295000 -0.042234 0
22.300000 -0.019191 0
22.305000 0.008019 0
22.310000 0.038862 0
22.315000 0.072285 0
22.320000 0.106718 0
22.325000 0.140157 0
22.330000 0.170343 0
22.335000 0.194998 0
22.340000 0.212111 0
22.345000 0.220207 1
22.350000 0.218556 0
22.355000 0.207281 0
22.360000 0.187345 0
22.365000 0.160408 0
22.370000 0.128598 0
22.375000 0.094177 0
22.380000 0.059110 0
22.385000 0.024375 0
22.390000 -0.011030 0
22.395000 -0.050897 0
22.400000 -0.100753 0
22.405000 -0.162989 0
22.410000 -0.229210 0
22.415000 -0.275696 2
22.420000 -0.267398 0
22.425000 -0.168354 0
22.430000 0.046291 0
22.435000 0.372825 0
22.440000 0.754209 0
22.445000 1.073194 0
22.450000 1.198716 3
22.455000 1.069025 0
22.460000 0.737545 0
22.465000 0.334148 0
22.470000 -0.018563 0
22.475000 -0.253216 0
22.480000 -0.355438 4
22.485000 -0.346011 0
22.490000 -0.266999 0
22.495000 -0.165622 0
22.500000 -0.075792 0
22.505000 -0.009517 0
22.510000 0.037327 0
22.515000 0.073815 0
22.520000 0.106842 0
22.525000 0.139683 0
22.530000 0.173203 0
22.535000 0.207149 0
22.540000 0.240843 0
22.545000 0.273449 0
22.550000 0.304065 0
22.555000 0.331780 0
22.560000 0.355715 0
22.565000 0.375077 0
22.570000 0.389192 0
22.575000 0.397550 0
22.580000 0.399830 5
22.585000 0.395925 0
22.590000 0.385942 0
22.595000 0.370202 0
22.600000 0.349218 0
22.605000 0.323671 0
22.610000 0.294366 0
22.615000 0.262198 0
22.620000 0.228097 0
22.625000 0.192992 0
22.630000 0.157763 0
22.635000 0.123209 0
22.640000 0.090023 0
22.645000 0.058770 0
22.650000 0.029881 0
22.655000 0.003650 0
22.660000 -0.019758 0
22.665000 -0.040293 0
22.670000 -0.058006 0
22.675000 -0.073026 0
22.680000 -0.085545 0
22.685000 -0.095791 0
22.690000 -0.104019 0
22.695000 -0.110489 0
22.700000 -0.115456 0
22.705000 -0.119164 0
22.710000 -0.121831 0
22.715000 -0.121448 0
22.720000 -0.120550 0
22.725000 -0.119657 0
22.730000 -0.118767 0
22.735000 -0.117879 0
22.740000 -0.116993 0
22.745000 -0.116103 0
22.750000 -0.115204 0
22.755000 -0.114281 0
22.760000 -0.113312 0
22.765000 -0.112255 0
22.770000 -0.111045 0
22.775000 -0.109576 0
22.780000 -0.107690 0
22.785000 -0.105156 0
22.790000 -0.101655 0
22.795000 -0.096772 0
22.800000 -0.089991 0
22.805000 -0.080722 0
22.810000 -0.068340 0
22.815000 -0.052265 0
22.820000 -0.032066 0
22.825000 -0.007577 0
22.830000 0.020974 0
22.835000 0.052867 0
22.840000 0.086849 0
22.845000 0.121157 0
22.850000 0.153647 0
22.855000 0.181993 0
22.860000 0.203959 0
22.865000 0.217689 0
22.870000 0.221965 1
22.875000 0.216382 0
22.880000 0.201415 0
22.885000 0.178347 0
22.890000 0.149087 0
22.895000 0.115890 0
22.900000 0.080980 0
22.905000 0.046018 0
22.910000 0.011255 0
22.915000 -0.025531 0
22.920000 -0.069289 0
22.925000 -0.125025 0
22.930000 -0.191080 0
22.935000 -0.251850 0
22.940000 -0.276897 2
22.945000 -0.228880 0
22.950000 -0.075203 0
22.955000 0.197972 0
22.960000 0.563155 0
22.965000 0.930212 0
22.970000 1.163992 3
22.975000 1.156760 0
22.980000 0.905134 0
22.985000 0.516679 0
22.990000 0.130243 0
22.995000 -0.158115 0
23.000000 -0.312912 0
23.005000 -0.342850 4
23.010000 -0.284307 0
23.015000 -0.186154 0
23.020000 -0.089980 0
23.025000 -0.015902 0
23.030000 0.036065 0
23.035000 0.074723 0
23.040000 0.108210 0
23.045000 0.140894 0
23.050000 0.174188 0
23.055000 0.208037 0
23.060000 0.241814 0
23.065000 0.274684 0
23.070000 0.305727 0
23.075000 0.334003 0
23.080000 0.358598 0
23.085000 0.378677 0
23.090000 0.393524 0
23.095000 0.402588 0
23.100000 0.405515 5
23.105000 0.402167 0
23.110000 0.392634 0
23.115000 0.377228 0
23.120000 0.356466 0
23.125000 0.331038 0
23.130000 0.301773 0
23.135000 0.269586 0
23.140000 0.235437 0
23.145000 0.200280 0
23.150000 0.165020 0
23.155000 0.130477 0
23.160000 0.097356 0
23.165000 0.066232 0
23.170000 0.037536 0
23.175000 0.011558 0
23.180000 -0.011545 0
23.185000 -0.031736 0
23.190000 -0.049079 0
23.195000 -0.063720 0
23.200000 -0.075861 0
23.205000 -0.085745 0
23.210000 -0.093636 0
23.215000 -0.099802 0
23.220000 -0.104502 0
23.225000 -0.107982 0
23.230000 -0.109979 0
23.235000 -0.109139 0
23.240000 -0.108302 0
23.245000 -0.107469 0
23.250000 -0.106640 0
23.255000 -0.105812 0
23.260000 -0.104984 0
23.265000 -0.104150 0
23.270000 -0.103301 0
23.275000 -0.102421 0
23.280000 -0.101478 0
23.285000 -0.100422 0
23.290000 -0.099168 0
23.295000 -0.097585 0
23.300000 -0.095479 0
23.305000 -0.092569 0
23.310000 -0.088480 0
23.315000 -0.082731 0
23.320000 -0.074745 0
23.325000 -0.063889 0
23.330000 -0.049535 0
23.335000 -0.031154 0
23.340000 -0.008449 0
23.345000 0.018526 0
23.350000 0.049237 0
23.355000 0.082599 0
23.360000 0.116981 0
23.365000 0.150290 0
23.370000 0.180166 0
23.375000 0.204247 0
23.380000 0.220474 0
23.385000 0.227379 1
23.390000 0.224307 0
23.395000 0.211510 0
23.400000 0.190121 0
23.405000 0.161978 0
23.410000 0.129352 0
23.415000 0.094574 0
23.420000 0.059514 0
23.425000 0.024749 0
23.430000 -0.011552 0
23.435000 -0.054156 0
23.440000 -0.108489 0
23.445000 -0.174002 0
23.450000 -0.236207 0
23.455000 -0.264850 2
23.460000 -0.221638 0
23.465000 -0.072478 0
23.470000 0.197900 0
23.475000 0.562431 0
23.480000 0.928970 0
23.485000 1.158580 3
23.490000 1.143172 0
23.495000 0.884600 0
23.500000 0.493828 0
23.505000 0.110114 0
23.510000 -0.172381 0
23.515000 -0.320394 0
23.520000 -0.344421 4
23.525000 -0.282220 0
23.530000 -0.183158 0
23.535000 -0.088067 0
23.540000 -0.015678 0
23.545000 0.035004 0
23.550000 0.073040 0
23.555000 0.106374 0
23.560000 0.139107 0
23.565000 0.172489 0
23.570000 0.206386 0
23.575000 0.240139 0
23.580000 0.272892 0
23.585000 0.303715 0
23.590000 0.331662 0
23.595000 0.355817 0
23.600000 0.375349 0
23.605000 0.389556 0
23.610000 0.397903 0
23.615000 0.400060 5
23.620000 0.395916 0
23.625000 0.385592 0
23.630000 0.369432 0
23.635000 0.347983 0
23.640000 0.321963 0
23.645000 0.292222 0
23.650000 0.259692 0
23.655000 0.225344 0
23.660000 0.190133 0
23.665000 0.154960 0
23.670000 0.120633 0
23.675000 0.087842 0
23.680000 0.057142 0
23.685000 0.028940 0
23.690000 0.003505 0
23.695000 -0.019029 0
23.700000 -0.038646 0
23.705000 -0.055427 0
23.710000 -0.069531 0
23.715000 -0.081174 0
23.720000 -0.090605 0
23.725000 -0.098092 0
23.730000 -0.103904 0
23.735000 -0.108301 0
23.740000 -0.111524 0
23.745000 -0.113337 0
23.750000 -0.112480 0
23.755000 -0.111626 0
23.760000 -0.110777 0
23.765000 -0.109930 0
23.770000 -0.109085 0
23.775000 -0.108239 0
23.780000 -0.107385 0
23.785000 -0.106513 0
23.790000 -0.105603 0
23.795000 -0.104619 0
23.800000 -0.103502 0
23.805000 -0.102156 0
23.810000 -0.100434 0
23.815000 -0.098116 0
23.820000 -0.094895 0
23.825000 -0.090362 0
23.830000 -0.084003 0
23.835000 -0.075214 0
23.840000 -0.063350 0
23.845000 -0.047798 0
23.850000 -0.028081 0
23.855000 -0.003996 0
23.860000 0.024263 0
23.865000 0.055987 0
23.870000 0.089903 0
23.875000 0.124200 0
23.880000 0.156656 0
23.885000 0.184860 0
23.890000 0.206499 0
23.895000 0.219670 0
23.900000 0.223157 1
23.905000 0.216612 0
23.910000 0.200613 0
23.915000 0.176577 0
23.920000 0.146552 0
23.925000 0.112896 0
23.930000 0.077862 0
23.935000 0.042966 0
23.940000 0.008015 0
23.945000 -0.029988 0
23.950000 -0.076604 0
23.955000 -0.135969 0
23.960000 -0.202830 0
23.965000 -0.255989 0
23.970000 -0.260390 2
23.975000 -0.177627 0
23.980000 0.021085 0
23.985000 0.337082 0
23.990000 0.717471 0
23.995000 1.043723 0
24.000000 1.177349 3
24.005000 1.050473 0
24.010000 0.717919 0
24.015000 0.314729 0
24.020000 -0.033016 0
24.025000 -0.258269 0
24.030000 -0.349126 4
24.035000 -0.329724 0
24.040000 -0.245301 0
24.045000 -0.144103 0
24.050000 -0.058103 0
24.055000 0.003796 0
24.060000 0.047687 0
24.065000 0.082895 0
24.070000 0.115688 0
24.075000 0.148696 0
24.080000 0.182398 0
24.085000 0.216355 0
24.090000 0.249791 0
24.095000 0.281807 0
24.100000 0.311453 0
24.105000 0.337790 0
24.110000 0.359931 0
24.115000 0.377097 0
24.120000 0.388656 0
24.125000 0.394163 5
24.130000 0.393390 0
24.135000 0.386333 0
24.140000 0.373221 0
24.145000 0.354498 0
24.150000 0.330800 0
24.155000 0.302915 0
24.160000 0.271742 0
24.165000 0.238241 0
24.170000 0.203384 0
24.175000 0.168109 0
24.180000 0.133278 0
24.185000 0.099647 0
24.190000 0.067844 0
24.195000 0.038353 0
24.200000 0.011515 0
24.205000 -0.012471 0
24.210000 -0.033528 0
24.215000 -0.051694 0
24.220000 -0.067090 0
24.225000 -0.079908 0
24.230000 -0.090382 0
24.235000 -0.098776 0
24.240000 -0.105359 0
24.245000 -0.110399 0
24.250000 -0.114147 0
24.255000 -0.116834 0
24.260000 -0.116474 0
24.265000 -0.115600 0
24.270000 -0.114731 0
24.275000 -0.113866 0
24.280000 -0.113003 0
24.285000 -0.112140 0
24.290000 -0.111273 0
24.295000 -0.110394 0
24.300000 -0.109488 0
24.305000 -0.108527 0
24.310000 -0.107465 0
24.315000 -0.106223 0
24.320000 -0.104682 0
24.325000 -0.102655 0
24.330000 -0.099879 0
24.335000 -0.095991 0
24.340000 -0.090522 0
24.345000 -0.082904 0
24.350000 -0.072502 0
24.355000 -0.058674 0
24.360000 -0.040865 0
24.365000 -0.018730 0
24.370000 0.007731 0
24.375000 0.038049 0
24.380000 0.071201 0
24.385000 0.105601 0
24.390000 0.139178 0
24.395000 0.169565 0
24.400000 0.194360 0
24.405000 0.211436 0
24.410000 0.219243 1
24.415000 0.217037 0
24.420000 0.205000 0
24.425000 0.184210 0
24.430000 0.156483 0
24.435000 0.124097 0
24.440000 0.089418 0
24.445000 0.054378 0
24.450000 0.019650 0
24.455000 -0.016493 0
24.460000 -0.058771 0
24.465000 -0.112724 0
24.470000 -0.178057 0
24.475000 -0.240470 0
24.480000 -0.269589 2
24.485000 -0.226731 0
24.490000 -0.077392 0
24.495000 0.193806 0
24.500000 0.559066 0
24.505000 0.924402 0
24.510000 1.149169 3
24.515000 1.126767 0
24.520000 0.863401 0
24.525000 0.471390 0
24.530000 0.089041 0
24.535000 -0.191126 0
24.540000 -0.336962 0
24.545000 -0.359455 4
24.550000 -0.296479 0
24.555000 -0.197215 0
24.560000 -0.102166 0
24.565000 -0.029820 0
24.570000 0.020888 0
24.575000 0.058992 0
24.580000 0.092398 0
24.585000 0.125199 0
24.590000 0.158644 0
24.595000 0.192607 0
24.600000 0.226433 0
24.605000 0.259271 0
24.610000 0.290196 0
24.615000 0.318265 0
24.620000 0.342566 0
24.625000 0.362270 0
24.630000 0.376673 0
24.635000 0.385240 0
24.640000 0.387636 5
24.645000 0.383744 0
24.650000 0.373678 0
24.655000 0.357774 0
24.660000 0.336569 0
24.665000 0.310774 0
24.670000 0.281229 0
24.675000 0.248862 0
24.680000 0.214637 0
24.685000 0.179508 0
24.690000 0.144374 0
24.695000 0.110047 0
24.700000 0.077219 0
24.705000 0.046450 0
24.710000 0.018155 0
24.715000 -0.007391 0
24.720000 -0.030048 0
24.725000 -0.049792 0
24.730000 -0.066698 0
24.735000 -0.080920 0
24.740000 -0.092670 0
24.745000 -0.102195 0
24.750000 -0.109759 0
24.755000 -0.115632 0
24.760000 -0.120073 0
24.765000 -0.123324 0
24.770000 -0.125139 0
24.775000 -0.124223 0
24.780000 -0.123311 0
24.785000 -0.122403 0
24.790000 -0.121499 0
24.795000 -0.120597 0
24.800000 -0.119694 0
24.805000 -0.118784 0
24.810000 -0.117858 0
24.815000 -0.116897 0
24.820000 -0.115868 0
24.825000 -0.114713 0
24.830000 -0.113344 0
24.835000 -0.111619 0
24.840000 -0.109329 0
24.845000 -0.106180 0
24.850000 -0.101775 0
24.855000 -0.095615 0
24.860000 -0.087110 0
24.865000 -0.075617 0
24.870000 -0.060517 0
24.875000 -0.041311 0
24.880000 -0.017753 0
24.885000 0.010022 0
24.890000 0.041384 0
24.895000 0.075142 0
24.900000 0.109562 0
24.905000 0.142479 0
24.910000 0.171502 0
24.915000 0.194295 0
24.920000 0.208884 0
24.925000 0.213940 1
24.930000 0.208979 0
24.935000 0.194435 0
24.940000 0.171600 0
24.945000 0.142431 0
24.950000 0.109252 0
24.955000 0.074357 0
24.960000 0.039438 0
24.965000 0.004668 0
24.970000 -0.032413 0
24.975000 -0.077054 0
24.980000 -0.134119 0
24.985000 -0.200657 0
24.990000 -0.258553 0
24.995000 -0.274783 2
25.000000 -0.210773 0
25.005000 -0.035008 0
25.010000 0.260830 0
25.015000 0.636297 0
25.020000 0.984500 0
25.025000 1.164797 3
25.030000 1.090267 0
25.035000 0.792446 0
25.040000 0.392782 0
25.045000 0.022260 0
25.050000 -0.238696 0
25.055000 -0.366270 0
25.060000 -0.375599 4
25.065000 -0.305980 0
25.070000 -0.205497 0
25.075000 -0.111926 0
25.080000 -0.041326 0
25.085000 0.008380 0
25.090000 0.046156 0
25.095000 0.079554 0
25.100000 0.112432 0
25.105000 0.145953 0
25.110000 0.179980 0
25.115000 0.213874 0
25.120000 0.246805 0
25.125000 0.277873 0
25.130000 0.306156 0
25.135000 0.330763 0
25.140000 0.350878 0
25.145000 0.365806 0
25.150000 0.375008 0
25.155000 0.378138 5
25.160000 0.375059 0
25.165000 0.365854 0
25.170000 0.350824 0
25.175000 0.330465 0
25.180000 0.305447 0
25.185000 0.276573 0
25.190000 0.244734 0
25.195000 0.210870 0
25.200000 0.175916 0
25.205000 0.140765 0
25.210000 0.106232 0
25.215000 0.073022 0
25.220000 0.041715 0
25.225000 0.012755 0
25.230000 -0.013552 0
25.235000 -0.037032 0
25.240000 -0.057630 0
25.245000 -0.075390 0
25.250000 -0.090441 0
25.255000 -0.102971 0
25.260000 -0.113211 0
25.265000 -0.121415 0
25.270000 -0.127847 0
25.275000 -0.132765 0
25.280000 -0.136411 0
25.285000 -0.139010 0
25.290000 -0.138544 0
25.295000 -0.137561 0
25.300000 -0.136582 0
25.305000 -0.135608 0
25.310000 -0.134637 0
25.315000 -0.133667 0
25.320000 -0.132694 0
25.325000 -0.131712 0
25.330000 -0.130706 0
25.335000 -0.129653 0
25.340000 -0.128512 0
25.345000 -0.127215 0
25.350000 -0.125655 0
25.355000 -0.123670 0
25.360000 -0.121023 0
25.365000 -0.117392 0
25.370000 -0.112352 0
25.375000 -0.105380 0
25.380000 -0.095876 0
25.385000 -0.083213 0
25.390000 -0.066812 0
25.395000 -0.046249 0
25.400000 -0.021382 0
25.405000 0.007527 0
25.410000 0.039715 0
25.415000 0.073875 0
25.420000 0.108194 0
25.425000 0.140486 0
25.430000 0.168403 0
25.435000 0.189717 0
25.440000 0.202608 0
25.445000 0.205927 1
25.450000 0.199358 0
25.455000 0.183473 0
25.460000 0.159650 0
25.465000 0.129868 0
25.470000 0.096416 0
25.475000 0.061502 0
25.480000 0.026669 0
25.485000 -0.008102 0
25.490000 -0.045449 0
25.495000 -0.090627 0
25.500000 -0.148199 0
25.505000 -0.214788 0
25.510000 -0.272211 0
25.515000 -0.288017 2
25.520000 -0.224540 0
25.525000 -0.050920 0
25.530000 0.241634 0
25.535000 0.615563 0
25.540000 0.969076 0
25.545000 1.164582 3
25.550000 1.110405 0
25.555000 0.827576 0
25.560000 0.431261 0
25.565000 0.053233 0
25.570000 -0.221223 0
25.575000 -0.363514 0
25.580000 -0.385122 4
25.585000 -0.322705 0
25.590000 -0.223686 0
25.595000 -0.127648 0
25.600000 -0.053506 0
25.605000 -0.001146 0
25.610000 0.037938 0
25.615000 0.071709 0
25.620000 0.104549 0
25.625000 0.137951 0
25.630000 0.171933 0
25.635000 0.205921 0
25.640000 0.239122 0
25.645000 0.270654 0
25.650000 0.299609 0
25.655000 0.325098 0
25.660000 0.346296 0
25.665000 0.362485 0
25.670000 0.373097 0
25.675000 0.377742 5
25.680000 0.376232 0
25.685000 0.368596 0
25.690000 0.355075 0
25.695000 0.336111 0
25.700000 0.312321 0
25.705000 0.284464 0
25.710000 0.253401 0
25.715000 0.220049 0
25.720000 0.185338 0
25.725000 0.150164 0
25.730000 0.115359 0
25.735000 0.081657 0
25.740000 0.049672 0
25.745000 0.019886 0
25.750000 -0.007353 0
25.755000 -0.031829 0
25.760000 -0.053449 0
25.765000 -0.072222 0
25.770000 -0.088248 0
25.775000 -0.101694 0
25.780000 -0.112773 0
25.785000 -0.121730 0
25.790000 -0.128822 0
25.795000 -0.134308 0
25.800000 -0.138434 0
25.805000 -0.141430 0
25.810000 -0.143055 0
25.815000 -0.142049 0
25.820000 -0.141048 0
25.825000 -0.140052 0
25.830000 -0.139059 0
25.835000 -0.138069 0
25.840000 -0.137079 0
25.845000 -0.136083 0
25.850000 -0.135071 0
25.855000 -0.134026 0
25.860000 -0.132916 0
25.865000 -0.131688 0
25.870000 -0.130259 0
25.875000 -0.128498 0
25.880000 -0.126211 0
25.885000 -0.123128 0
25.890000 -0.118880 0
25.895000 -0.113005 0
25.900000 -0.104946 0
25.905000 -0.094092 0
25.910000 -0.079834 0
25.915000 -0.061653 0
25.920000 -0.039237 0
25.925000 -0.012601 0
25.930000 0.017799 0
25.935000 0.050989 0
25.940000 0.085467 0
25.945000 0.119277 0
25.950000 0.150168 0
25.955000 0.175835 0
25.960000 0.194200 0
25.965000 0.203687 1
25.970000 0.203449 0
25.975000 0.193491 0
25.980000 0.174674 0
25.985000 0.148592 0
25.990000 0.117338 0
25.995000 0.083194 0
26.000000 0.048200 0
26.005000 0.013505 0
26.010000 -0.021617 0
26.015000 -0.060666 0
26.020000 -0.109169 0
26.025000 -0.170206 0
26.030000 -0.236768 0
26.035000 -0.286504 2
26.040000 -0.284862 0
26.045000 -0.195264 0
26.050000 0.008878 0
26.055000 0.327298 0
26.060000 0.707964 0
26.065000 1.036993 0
26.070000 1.180742 3
26.075000 1.070703 0
26.080000 0.753182 0
26.085000 0.350897 0
26.090000 -0.013069 0
26.095000 -0.266109 0
26.100000 -0.388206 0
26.105000 -0.395189 4
26.110000 -0.325276 0
26.115000 -0.224801 0
26.120000 -0.130449 0
26.125000 -0.058425 0
26.130000 -0.007384 0
26.135000 0.031191 0
26.140000 0.064877 0
26.145000 0.097764 0
26.150000 0.131222 0
26.155000 0.165245 0
26.160000 0.199267 0
26.165000 0.232515 0
26.170000 0.264131 0
26.175000 0.293230 0
26.180000 0.318944 0
26.185000 0.340464 0
26.190000 0.357085 0
26.195000 0.368239 0
26.200000 0.373529 5
26.205000 0.372754 0
26.210000 0.365915 0
26.215000 0.353224 0
26.220000 0.335083 0
26.225000 0.312071 0
26.230000 0.284908 0
26.235000 0.254418 0
26.240000 0.221487 0
26.245000 0.187023 0
26.250000 0.151910 0
26.255000 0.116977 0
26.260000 0.082964 0
26.265000 0.050500 0
26.270000 0.020091 0
26.275000 -0.007887 0
26.280000 -0.033188 0
26.285000 -0.055683 0
26.290000 -0.075354 0
26.295000 -0.092271 0
26.300000 -0.106574 0
26.305000 -0.118459 0
26.310000 -0.128154 0
26.315000 -0.135909 0
26.320000 -0.141975 0
26.325000 -0.146599 0
26.330000 -0.150012 0
26.335000 -0.152426 0
26.340000 -0.151877 0
26.345000 -0.150828 0
26.350000 -0.149783 0
26.355000 -0.148743 0
26.360000 -0.147706 0
26.365000 -0.146670 0
26.370000 -0.145633 0
26.375000 -0.144587 0
26.380000 -0.143519 0
26.385000 -0.142407 0
26.390000 -0.141212 0
26.395000 -0.139874 0
26.400000 -0.138292 0
26.405000 -0.136320 0
26.410000 -0.133741 0
26.415000 -0.130260 0
26.420000 -0.125487 0
26.425000 -0.118937 0
26.430000 -0.110048 0
26.435000 -0.098216 0
26.440000 -0.082863 0
26.445000 -0.063529 0
26.450000 -0.039983 0
26.455000 -0.012338 0
26.460000 0.018841 0
26.465000 0.052487 0
26.470000 0.087029 0
26.475000 0.120488 0
26.480000 0.150639 0
26.485000 0.175255 0
26.490000 0.192372 0
26.495000 0.200551 1
26.500000 0.199079 0
26.505000 0.188070 0
26.510000 0.168453 0
26.515000 0.141842 0
26.520000 0.110310 0
26.525000 0.076081 0
26.530000 0.041112 0
26.535000 0.006459 0
26.540000 -0.028671 0
26.545000 -0.067755 0
26.550000 -0.116201 0
26.555000 -0.177042 0
26.560000 -0.243658 0
26.565000 -0.294668 0
26.570000 -0.296680 2
26.575000 -0.213836 0
26.580000 -0.019139 0
26.585000 0.290110 0
26.590000 0.668781 0
26.595000 1.011206 0
26.600000 1.185187 3
26.605000 1.110278 0
26.610000 0.815268 0
26.615000 0.416578 0
26.620000 0.041610 0
26.625000 -0.228935 0
26.630000 -0.368716 0
26.635000 -0.389567 4
26.640000 -0.327420 0
26.645000 -0.228600 0
26.650000 -0.132054 0
26.655000 -0.056883 0
26.660000 -0.003538 0
26.665000 0.036138 0
26.670000 0.070112 0
26.675000 0.102934 0
26.680000 0.136253 0
26.685000 0.170180 0
26.690000 0.204196 0
26.695000 0.237545 0
26.700000 0.269373 0
26.705000 0.298797 0
26.710000 0.324941 0
26.715000 0.346988 0
26.720000 0.364214 0
26.725000 0.376033 0
26.730000 0.382024 5
26.735000 0.381960 0
26.740000 0.375818 0
26.745000 0.363782 0
26.750000 0.346235 0
26.755000 0.323735 0
26.760000 0.296988 0
26.765000 0.266809 0
26.770000 0.234079 0
26.775000 0.199707 0
26.780000 0.164584 0
26.785000 0.129547 0
26.790000 0.095348 0
26.795000 0.062633 0
26.800000 0.031923 0
26.805000 0.003608 0
26.810000 -0.022050 0
26.815000 -0.044910 0
26.820000 -0.064941 0
26.825000 -0.082203 0
26.830000 -0.096832 0
26.835000 -0.109016 0
26.840000 -0.118984 0
26.845000 -0.126981 0
26.850000 -0.133260 0
26.855000 -0.138070 0
26.860000 -0.141644 0
26.865000 -0.144197 0
26.870000 -0.143703 0
26.875000 -0.142694 0
26.880000 -0.141690 0
26.885000 -0.140690 0
26.890000 -0.139694 0
26.895000 -0.138699 0
26.900000 -0.137702 0
26.905000 -0.136697 0
26.910000 -0.135672 0
26.915000 -0.134606 0
26.920000 -0.133462 0
26.925000 -0.132180 0
26.930000 -0.130668 0
26.935000 -0.128781 0
26.940000 -0.126313 0
26.945000 -0.122975 0
26.950000 -0.118385 0
26.955000 -0.112068 0
26.960000 -0.103466 0
26.965000 -0.091978 0
26.970000 -0.077019 0
26.975000 -0.058110 0
26.980000 -0.034995 0
26.985000 -0.007751 0
26.990000 0.023103 0
26.995000 0.056544 0
27.000000 0.091046 0
27.005000 0.124656 0
27.010000 0.155161 0
27.015000 0.180320 0
27.020000 0.198133 0
27.025000 0.207102 1
27.030000 0.206445 0
27.035000 0.196201 0
27.040000 0.177235 0
27.045000 0.151110 0
27.050000 0.119875 0
27.055000 0.085756 0
27.060000 0.050757 0
27.065000 0.016042 0
27.070000 -0.018990 0
27.075000 -0.057593 0
27.080000 -0.105127 0
27.085000 -0.165074 0
27.090000 -0.231845 0
27.095000 -0.285229 0
27.100000 -0.292451 2
27.105000 -0.217401 0
27.110000 -0.031910 0
27.115000 0.269368 0
27.120000 0.645730 0
27.125000 0.995538 0
27.130000 1.185992 3
27.135000 1.130049 0
27.140000 0.848201 0
27.145000 0.452547 0
27.150000 0.072113 0
27.155000 -0.208107 0
27.160000 -0.358114 0
27.165000 -0.387321 4
27.170000 -0.330146 0
27.175000 -0.232646 0
27.180000 -0.134925 0
27.185000 -0.057806 0
27.190000 -0.002939 0
27.195000 0.037513 0
27.200000 0.071720 0
27.205000 0.104522 0
27.210000 0.137758 0
27.215000 0.171626 0
27.220000 0.205640 0
27.225000 0.239059 0
27.230000 0.271036 0
27.235000 0.300690 0
27.240000 0.327143 0
27.245000 0.349574 0
27.250000 0.367248 0
27.255000 0.379566 0
27.260000 0.386093 0
27.265000 0.386581 5
27.270000 0.380990 0
27.275000 0.369483 0
27.280000 0.352425 0
27.285000 0.330356 0
27.290000 0.303970 0
27.295000 0.274070 0
27.300000 0.241533 0
27.305000 0.207264 0
27.310000 0.172158 0
27.315000 0.137056 0
27.320000 0.102720 0
27.325000 0.069806 0
27.330000 0.038847 0
27.335000 0.010247 0
27.340000 -0.015718 0
27.345000 -0.038898 0
27.350000 -0.059248 0
27.355000 -0.076822 0
27.360000 -0.091746 0
27.365000 -0.104206 0
27.370000 -0.114423 0
27.375000 -0.122644 0
27.380000 -0.129120 0
27.385000 -0.134101 0
27.390000 -0.137821 0
27.395000 -0.140497 0
27.400000 -0.140038 0
27.405000 -0.139047 0
27.410000 -0.138061 0
27.415000 -0.137080 0
27.420000 -0.136101 0
27.425000 -0.135125 0
27.430000 -0.134147 0
27.435000 -0.133162 0
27.440000 -0.132159 0
27.445000 -0.131117 0
27.450000 -0.130003 0
27.455000 -0.128761 0
27.460000 -0.127302 0
27.465000 -0.125489 0
27.470000 -0.123125 0
27.475000 -0.119933 0
27.480000 -0.115544 0
27.485000 -0.109494 0
27.490000 -0.101237 0
27.495000 -0.090173 0
27.500000 -0.075711 0
27.505000 -0.057356 0
27.510000 -0.034815 0
27.515000 -0.008114 0
27.520000 0.022291 0
27.525000 0.055447 0
27.530000 0.089895 0
27.535000 0.123733 0
27.540000 0.154776 0
27.545000 0.180775 0
27.550000 0.199681 0
27.555000 0.209920 0
27.560000 0.210598 1
27.565000 0.201642 0
27.570000 0.183802 0
27.575000 0.158555 0
27.580000 0.127893 0
27.585000 0.094036 0
27.590000 0.059047 0
27.595000 0.024258 0
27.600000 -0.010610 0
27.605000 -0.048401 0
27.610000 -0.094309 0
27.615000 -0.152491 0
27.620000 -0.219168 0
27.625000 -0.276411 0
27.630000 -0.292889 2
27.635000 -0.232341 0
27.640000 -0.064671 0
27.645000 0.220212 0
27.650000 0.590212 0
27.655000 0.952659 0
27.660000 1.175457 3
27.665000 1.158343 0
27.670000 0.903039 0
27.675000 0.514549 0
27.680000 0.126646 0
27.685000 -0.167005 0
27.690000 -0.330181 0
27.695000 -0.369195 4
27.700000 -0.317358 0
27.705000 -0.221309 0
27.710000 -0.122919 0
27.715000 -0.044732 0
27.720000 0.010789 0
27.725000 0.051449 0
27.730000 0.085644 0
27.735000 0.118378 0
27.740000 0.151547 0
27.745000 0.185354 0
27.750000 0.219299 0
27.755000 0.252620 0
27.760000 0.284451 0
27.765000 0.313892 0
27.770000 0.340050 0
27.775000 0.362089 0
27.780000 0.379270 0
27.785000 0.390994 0
27.790000 0.396833 5
27.795000 0.396558 0
27.800000 0.390150 0
27.805000 0.377803 0
27.810000 0.359914 0
27.815000 0.337061 0
27.820000 0.309971 0
27.825000 0.279479 0
27.830000 0.246489 0
27.835000 0.211926 0
27.840000 0.176694 0
27.845000 0.141638 0
27.850000 0.107513 0
27.855000 0.074962 0
27.860000 0.044497 0
27.865000 0.016497 0
27.870000 -0.008790 0
27.875000 -0.031241 0
27.880000 -0.050840 0
27.885000 -0.067667 0
27.890000 -0.081869 0
27.895000 -0.093649 0
27.900000 -0.103244 0
27.905000 -0.110908 0
27.910000 -0.116898 0
27.915000 -0.121464 0
27.920000 -0.124840 0
27.925000 -0.126754 0
27.930000 -0.125830 0
27.935000 -0.124910 0
27.940000 -0.123995 0
27.945000 -0.123083 0
27.950000 -0.122173 0
27.955000 -0.121264 0
27.960000 -0.120351 0
27.965000 -0.119425 0
27.970000 -0.118473 0
27.975000 -0.117467 0
27.980000 -0.116363 0
27.985000 -0.115089 0
27.990000 -0.113532 0
27.995000 -0.111521 0
28.000000 -0.108814 0
28.005000 -0.105078 0
28.010000 -0.099884 0
28.015000 -0.092708 0
28.020000 -0.082955 0
28.025000 -0.070011 0
28.030000 -0.053316 0
28.035000 -0.032476 0
28.040000 -0.007376 0
28.045000 0.021694 0
28.050000 0.053955 0
28.055000 0.088097 0
28.060000 0.122324 0
28.065000 0.154480 0
28.070000 0.182263 0
28.075000 0.203487 0
28.080000 0.216371 0
28.085000 0.219780 1
28.090000 0.213390 0
28.095000 0.197744 0
28.100000 0.174167 0
28.105000 0.144582 0
28.110000 0.111230 0
28.115000 0.076295 0
28.120000 0.041368 0
28.125000 0.006600 0
28.130000 -0.030331 0
28.135000 -0.074401 0
28.140000 -0.130476 0
28.145000 -0.196630 0
28.150000 -0.257086 0
28.155000 -0.281542 2
28.160000 -0.233049 0
28.165000 -0.079415 0
28.170000 0.193085 0
28.175000 0.557630 0
28.180000 0.925815 0
28.185000 1.164172 0
28.190000 1.165664 3
28.195000 0.924223 0
28.200000 0.539816 0
28.205000 0.149291 0
28.210000 -0.149056 0
28.215000 -0.316165 0
28.220000 -0.357418 4
28.225000 -0.306334 0
28.230000 -0.210370 0
28.235000 -0.112176 0
28.240000 -0.034513 0
28.245000 0.020400 0
28.250000 0.060632 0
28.255000 0.094635 0
28.260000 0.127332 0
28.265000 0.160517 0
28.270000 0.194326 0
28.275000 0.228218 0
28.280000 0.261403 0
28.285000 0.292993 0
28.290000 0.322068 0
28.295000 0.347722 0
28.300000 0.369113 0
28.305000 0.385505 0
28.310000 0.396309 0
28.315000 0.401120 5
28.320000 0.399739 0
28.325000 0.392185 0
28.330000 0.378696 0
28.335000 0.359713 0
28.340000 0.335860 0
28.345000 0.307906 0
28.350000 0.276721 0
28.355000 0.243236 0
28.360000 0.208392 0
28.365000 0.173099 0
28.370000 0.138198 0
28.375000 0.104429 0
28.380000 0.072411 0
28.385000 0.042626 0
