0.000000 1.159599 3
0.005000 1.040468 0
0.010000 0.742524 0
0.015000 0.369570 0
0.020000 0.025469 0
0.025000 -0.225496 0
0.030000 -0.361960 0
0.035000 -0.392853 4
0.040000 -0.346757 0
0.045000 -0.262007 0
0.050000 -0.173422 0
0.055000 -0.101247 0
0.060000 -0.049537 0
0.065000 -0.012727 0
0.070000 0.016655 0
0.075000 0.043902 0
0.080000 0.071602 0
0.085000 0.100583 0
0.090000 0.130826 0
0.095000 0.161954 0
0.100000 0.193427 0
0.105000 0.224614 0
0.110000 0.254819 0
0.115000 0.283312 0
0.120000 0.309358 0
0.125000 0.332243 0
0.130000 0.351312 0
0.135000 0.365994 0
0.140000 0.375835 0
0.145000 0.380519 5
0.150000 0.379882 0
0.155000 0.373924 0
0.160000 0.362808 0
0.165000 0.346855 0
0.170000 0.326522 0
0.175000 0.302388 0
0.180000 0.275119 0
0.185000 0.245443 0
0.190000 0.214113 0
0.195000 0.181879 0
0.200000 0.149457 0
0.205000 0.117504 0
0.210000 0.086601 0
0.215000 0.057233 0
0.220000 0.029786 0
0.225000 0.004542 0
0.230000 -0.018316 0
0.235000 -0.038701 0
0.240000 -0.056607 0
0.245000 -0.072098 0
0.250000 -0.085294 0
0.255000 -0.096357 0
0.260000 -0.105477 0
0.265000 -0.112860 0
0.270000 -0.118717 0
0.275000 -0.123255 0
0.280000 -0.126672 0
0.285000 -0.129150 0
0.290000 -0.130853 0
0.295000 -0.131926 0
0.300000 -0.131179 0
0.305000 -0.130126 0
0.310000 -0.129079 0
0.315000 -0.128037 0
0.320000 -0.126999 0
0.325000 -0.125967 0
0.330000 -0.124940 0
0.335000 -0.123916 0
0.340000 -0.122894 0
0.345000 -0.121872 0
0.350000 -0.120845 0
0.355000 -0.119805 0
0.360000 -0.118735 0
0.365000 -0.117610 0
0.370000 -0.116390 0
0.375000 -0.115009 0
0.380000 -0.113369 0
0.385000 -0.111327 0
0.390000 -0.108684 0
0.395000 -0.105169 0
0.400000 -0.100442 0
0.405000 -0.094084 0
0.410000 -0.085620 0
0.415000 -0.074548 0
0.420000 -0.060387 0
0.425000 -0.042750 0
0.430000 -0.021430 0
0.435000 0.003516 0
0.440000 0.031688 0
0.445000 0.062285 0
0.450000 0.094109 0
0.455000 0.125603 0
0.460000 0.154967 0
0.465000 0.180320 0
0.470000 0.199892 0
0.475000 0.212235 0
0.480000 0.216393 1
0.485000 0.212033 0
0.490000 0.199484 0
0.495000 0.179699 0
0.500000 0.154138 0
0.505000 0.124582 0
0.510000 0.092920 0
0.515000 0.060890 0
0.520000 0.029729 0
0.525000 -0.000357 0
0.530000 -0.030919 0
0.535000 -0.065685 0
0.540000 -0.109444 0
0.545000 -0.164200 0
0.550000 -0.223524 0
0.555000 -0.269056 0
0.560000 -0.272929 2
0.565000 -0.205044 0
0.570000 -0.041522 0
0.575000 0.224390 0
0.580000 0.565048 0
0.585000 0.904332 0
0.590000 1.132222 0
0.595000 1.157828 3
0.600000 0.964997 0
0.605000 0.625840 0
0.610000 0.253324 0
0.615000 -0.059303 0
0.620000 -0.264661 0
0.625000 -0.355007 4
0.630000 -0.348895 0
0.635000 -0.281219 0
0.640000 -0.191319 0
0.645000 -0.108994 0
0.650000 -0.046892 0
0.655000 -0.003465 0
0.660000 0.028707 0
0.665000 0.056408 0
0.670000 0.083576 0
0.675000 0.111793 0
0.680000 0.141362 0
0.685000 0.172030 0
0.690000 0.203305 0
0.695000 0.234580 0
0.700000 0.265166 0
0.705000 0.294330 0
0.710000 0.321317 0
0.715000 0.345385 0
0.720000 0.365838 0
0.725000 0.382056 0
0.730000 0.393530 0
0.735000 0.399882 0
0.740000 0.400892 5
0.745000 0.396504 0
0.750000 0.386833 0
0.755000 0.372157 0
0.760000 0.352906 0
0.765000 0.329639 0
0.770000 0.303014 0
0.775000 0.273764 0
0.780000 0.242654 0
0.785000 0.210454 0
0.790000 0.177907 0
0.795000 0.145701 0
0.800000 0.114445 0
0.805000 0.084655 0
0.810000 0.056746 0
0.815000 0.031023 0
0.820000 0.007689 0
0.825000 -0.013152 0
0.830000 -0.031483 0
0.835000 -0.047361 0
0.840000 -0.060904 0
0.845000 -0.072272 0
0.850000 -0.081658 0
0.855000 -0.089272 0
0.860000 -0.095328 0
0.865000 -0.100040 0
0.870000 -0.103610 0
0.875000 -0.106224 0
0.880000 -0.108051 0
0.885000 -0.109240 0
0.890000 -0.108605 0
0.895000 -0.107665 0
0.900000 -0.106729 0
0.905000 -0.105799 0
0.910000 -0.104873 0
0.915000 -0.103951 0
0.920000 -0.103033 0
0.925000 -0.102118 0
0.930000 -0.101205 0
0.935000 -0.100290 0
0.940000 -0.099369 0
0.945000 -0.098432 0
0.950000 -0.097462 0
0.955000 -0.096431 0
0.960000 -0.095295 0
0.965000 -0.093980 0
0.970000 -0.092381 0
0.975000 -0.090340 0
0.980000 -0.087640 0
0.985000 -0.083991 0
0.990000 -0.079025 0
0.995000 -0.072300 0
1.000000 -0.063319 0
1.005000 -0.051568 0
1.010000 -0.036574 0
1.015000 -0.017983 0
1.020000 0.004348 0
1.025000 0.030264 0
1.030000 0.059231 0
1.035000 0.090300 0
1.040000 0.122114 0
1.045000 0.152982 0
1.050000 0.181011 0
1.055000 0.204296 0
1.060000 0.221127 0
1.065000 0.230202 0
1.070000 0.230786 1
1.075000 0.222815 0
1.080000 0.206905 0
1.085000 0.184273 0
1.090000 0.156582 0
1.095000 0.125733 0
1.100000 0.093621 0
1.105000 0.061829 0
1.110000 0.031189 0
1.115000 0.001103 0
1.120000 -0.031160 0
1.125000 -0.070277 0
1.130000 -0.120279 0
1.135000 -0.179193 0
1.140000 -0.233755 0
1.145000 -0.258978 2
1.150000 -0.224026 0
1.155000 -0.100810 0
1.160000 0.126263 0
1.165000 0.444879 0
1.170000 0.796291 0
1.175000 1.076305 0
1.180000 1.177573 3
1.185000 1.053874 0
1.190000 0.751516 0
1.195000 0.377799 0
1.200000 0.037848 0
1.205000 -0.205214 0
1.210000 -0.332139 0
1.215000 -0.354144 4
1.220000 -0.302005 0
1.225000 -0.215317 0
1.230000 -0.128371 0
1.235000 -0.059510 0
1.240000 -0.010894 0
1.245000 0.023951 0
1.250000 0.052466 0
1.255000 0.079520 0
1.260000 0.107318 0
1.265000 0.136460 0
1.270000 0.166815 0
1.275000 0.197944 0
1.280000 0.229268 0
1.285000 0.260116 0
1.290000 0.289764 0
1.295000 0.317457 0
1.300000 0.342444 0
1.305000 0.364009 0
1.310000 0.381504 0
1.315000 0.394382 0
1.320000 0.402224 0
1.325000 0.404762 5
1.330000 0.401892 0
1.335000 0.393680 0
1.340000 0.380359 0
1.345000 0.362321 0
1.350000 0.340091 0
1.355000 0.314307 0
1.360000 0.285685 0
1.365000 0.254988 0
1.370000 0.222991 0
1.375000 0.190448 0
1.380000 0.158068 0
1.385000 0.126485 0
1.390000 0.096243 0
1.395000 0.067786 0
1.400000 0.041448 0
1.405000 0.017461 0
1.410000 -0.004048 0
1.415000 -0.023039 0
1.420000 -0.039552 0
1.425000 -0.053692 0
1.430000 -0.065609 0
1.435000 -0.075490 0
1.440000 -0.083543 0
1.445000 -0.089982 0
1.450000 -0.095023 0
1.455000 -0.098872 0
1.460000 -0.101720 0
1.465000 -0.103741 0
1.470000 -0.105088 0
1.475000 -0.105645 0
1.480000 -0.104719 0
1.485000 -0.103799 0
1.490000 -0.102883 0
1.495000 -0.101971 0
1.500000 -0.101064 0
1.505000 -0.100160 0
1.510000 -0.099260 0
1.515000 -0.098362 0
1.520000 -0.097464 0
1.525000 -0.096560 0
1.530000 -0.095642 0
1.535000 -0.094696 0
1.540000 -0.093696 0
1.545000 -0.092602 0
1.550000 -0.091347 0
1.555000 -0.089832 0
1.560000 -0.087913 0
1.565000 -0.085383 0
1.570000 -0.081969 0
1.575000 -0.077316 0
1.580000 -0.070994 0
1.585000 -0.062515 0
1.590000 -0.051361 0
1.595000 -0.037044 0
1.600000 -0.019179 0
1.605000 0.002426 0
1.610000 0.027679 0
1.615000 0.056120 0
1.620000 0.086877 0
1.625000 0.118660 0
1.630000 0.149825 0
1.635000 0.178500 0
1.640000 0.202757 0
1.645000 0.220833 0
1.650000 0.231331 0
1.655000 0.233406 1
1.660000 0.226873 0
1.665000 0.212236 0
1.670000 0.190622 0
1.675000 0.163637 0
1.680000 0.133166 0
1.685000 0.101128 0
1.690000 0.069190 0
1.695000 0.038347 0
1.700000 0.008283 0
1.705000 -0.023377 0
1.710000 -0.061112 0
1.715000 -0.109362 0
1.720000 -0.167471 0
1.725000 -0.224043 0
1.730000 -0.255527 2
1.735000 -0.231326 0
1.740000 -0.122303 0
1.745000 0.089772 0
1.750000 0.397766 0
1.755000 0.750047 0
1.760000 1.046897 0
1.765000 1.177199 3
1.770000 1.082868 0
1.775000 0.798283 0
1.780000 0.427168 0
1.785000 0.078807 0
1.790000 -0.177305 0
1.795000 -0.317228 0
1.800000 -0.349428 4
1.805000 -0.303253 0
1.810000 -0.218320 0
1.815000 -0.130351 0
1.820000 -0.059571 0
1.825000 -0.009406 0
1.830000 0.026256 0
1.835000 0.055032 0
1.840000 0.082069 0
1.845000 0.109760 0
1.850000 0.138791 0
1.855000 0.169060 0
1.860000 0.200139 0
1.865000 0.231449 0
1.870000 0.262319 0
1.875000 0.292019 0
1.880000 0.319790 0
1.885000 0.344873 0
1.890000 0.366544 0
1.895000 0.384147 0
1.900000 0.397127 0
1.905000 0.405059 0
1.910000 0.407667 5
1.915000 0.404845 0
1.920000 0.396657 0
1.925000 0.383338 0
1.930000 0.365280 0
1.935000 0.343016 0
1.940000 0.317186 0
1.945000 0.288514 0
1.950000 0.257771 0
1.955000 0.225736 0
1.960000 0.193172 0
1.965000 0.160789 0
1.970000 0.129224 0
1.975000 0.099025 0
1.980000 0.070632 0
1.985000 0.044381 0
1.990000 0.020498 0
1.995000 -0.000892 0
2.000000 -0.019755 0
2.005000 -0.036134 0
2.010000 -0.050139 0
2.015000 -0.061924 0
2.020000 -0.071681 0
2.025000 -0.079617 0
2.030000 -0.085952 0
2.035000 -0.090901 0
2.040000 -0.094671 0
2.045000 -0.097453 0
2.050000 -0.099421 0
2.055000 -0.100728 0
2.060000 -0.100146 0
2.065000 -0.099249 0
2.070000 -0.098355 0
2.075000 -0.097466 0
2.080000 -0.096582 0
2.085000 -0.095701 0
2.090000 -0.094824 0
2.095000 -0.093951 0
2.100000 -0.093079 0
2.105000 -0.092205 0
2.110000 -0.091325 0
2.115000 -0.090430 0
2.120000 -0.089503 0
2.125000 -0.088516 0
2.130000 -0.087424 0
2.135000 -0.086157 0
2.140000 -0.084608 0
2.145000 -0.082619 0
2.150000 -0.079972 0
2.155000 -0.076375 0
2.160000 -0.071457 0
2.165000 -0.064771 0
2.170000 -0.055814 0
2.175000 -0.044066 0
2.180000 -0.029049 0
2.185000 -0.010408 0
2.190000 0.011996 0
2.195000 0.037996 0
2.200000 0.067037 0
2.205000 0.098141 0
2.210000 0.129918 0
2.215000 0.160642 0
2.220000 0.188392 0
2.225000 0.211246 0
2.230000 0.227498 0
2.235000 0.235866 1
2.240000 0.235661 0
2.245000 0.226881 0
2.250000 0.210209 0
2.255000 0.186930 0
2.260000 0.158762 0
2.265000 0.127641 0
2.270000 0.095464 0
2.275000 0.063768 0
2.280000 0.033248 0
2.285000 0.003042 0
2.290000 -0.029944 0
2.295000 -0.070582 0
2.300000 -0.122412 0
2.305000 -0.181896 0
2.310000 -0.233497 0
2.315000 -0.250368 2
2.320000 -0.201166 0
2.325000 -0.058966 0
2.330000 0.188092 0
2.335000 0.519658 0
2.340000 0.865797 0
2.345000 1.115603 0
2.350000 1.168502 3
2.355000 0.997370 0
2.360000 0.667573 0
2.365000 0.293765 0
2.370000 -0.025191 0
2.375000 -0.237324 0
2.380000 -0.332696 4
2.385000 -0.329328 0
2.390000 -0.262596 0
2.395000 -0.172855 0
2.400000 -0.090741 0
2.405000 -0.029128 0
2.410000 0.013742 0
2.415000 0.045516 0
2.420000 0.073035 0
2.425000 0.100174 0
2.430000 0.128432 0
2.435000 0.158054 0
2.440000 0.188746 0
2.445000 0.219991 0
2.450000 0.251151 0
2.455000 0.281514 0
2.460000 0.310322 0
2.465000 0.336800 0
2.470000 0.360194 0
2.475000 0.379799 0
2.480000 0.395002 0
2.485000 0.405305 0
2.490000 0.410357 5
2.495000 0.409969 0
2.500000 0.404128 0
2.505000 0.392996 0
2.510000 0.376903 0
2.515000 0.356330 0
2.520000 0.331884 0
2.525000 0.304268 0
2.530000 0.274246 0
2.535000 0.242609 0
2.540000 0.210142 0
2.545000 0.177588 0
2.550000 0.145624 0
2.555000 0.114840 0
2.560000 0.085724 0
2.565000 0.058656 0
2.570000 0.033902 0
2.575000 0.011625 0
2.580000 -0.008110 0
2.585000 -0.025323 0
2.590000 -0.040104 0
2.595000 -0.052596 0
2.600000 -0.062984 0
2.605000 -0.071474 0
2.610000 -0.078286 0
2.615000 -0.083641 0
2.620000 -0.087751 0
2.625000 -0.090815 0
2.630000 -0.093014 0
2.635000 -0.094508 0
2.640000 -0.095177 0
2.645000 -0.094304 0
2.650000 -0.093435 0
2.655000 -0.092571 0
2.660000 -0.091711 0
2.665000 -0.090855 0
2.670000 -0.090002 0
2.675000 -0.089153 0
2.680000 -0.088305 0
2.685000 -0.087457 0
2.690000 -0.086604 0
2.695000 -0.085736 0
2.700000 -0.084840 0
2.705000 -0.083889 0
2.710000 -0.082842 0
2.715000 -0.081631 0
2.720000 -0.080154 0
2.725000 -0.078259 0
2.730000 -0.075736 0
2.735000 -0.072297 0
2.740000 -0.067576 0
2.745000 -0.061128 0
2.750000 -0.052448 0
2.755000 -0.041009 0
2.760000 -0.026319 0
2.765000 -0.008003 0
2.770000 0.014102 0
2.775000 0.039851 0
2.780000 0.068712 0
2.785000 0.099719 0
2.790000 0.131484 0
2.795000 0.162272 0
2.800000 0.190140 0
2.805000 0.213137 0
2.810000 0.229524 0
2.815000 0.237991 1
2.820000 0.237832 0
2.825000 0.229037 0
2.830000 0.212302 0
2.835000 0.188931 0
2.840000 0.160669 0
2.845000 0.129482 0
2.850000 0.097285 0
2.855000 0.065616 0
2.860000 0.035130 0
2.865000 0.004854 0
2.870000 -0.028477 0
2.875000 -0.069839 0
2.880000 -0.122519 0
2.885000 -0.182133 0
2.890000 -0.231862 0
2.895000 -0.243751 2
2.900000 -0.186075 0
2.905000 -0.032554 0
2.910000 0.226210 0
2.915000 0.564391 0
2.920000 0.904660 0
2.925000 1.132303 0
2.930000 1.152387 3
2.935000 0.952275 0
2.940000 0.609440 0
2.945000 0.237991 0
2.950000 -0.069933 0
2.955000 -0.268876 0
2.960000 -0.352791 4
2.965000 -0.341627 0
2.970000 -0.271260 0
2.975000 -0.181124 0
2.980000 -0.100147 0
2.985000 -0.039766 0
2.990000 0.002376 0
2.995000 0.033897 0
3.000000 0.061414 0
3.005000 0.088632 0
3.010000 0.116977 0
3.015000 0.146671 0
3.020000 0.177423 0
3.025000 0.208723 0
3.030000 0.239943 0
3.035000 0.270386 0
3.040000 0.299304 0
3.045000 0.325939 0
3.050000 0.349545 0
3.055000 0.369428 0
3.060000 0.384977 0
3.065000 0.395697 0
3.070000 0.401229 0
3.075000 0.401375 5
3.080000 0.396108 0
3.085000 0.385570 0
3.090000 0.370068 0
3.095000 0.350061 0
3.100000 0.326130 0
3.105000 0.298958 0
3.110000 0.269290 0
3.115000 0.237902 0
3.120000 0.205569 0
3.125000 0.173030 0
3.130000 0.140964 0
3.135000 0.109967 0
3.140000 0.080541 0
3.145000 0.053078 0
3.150000 0.027865 0
3.155000 0.005083 0
3.160000 -0.015185 0
3.165000 -0.032940 0
3.170000 -0.048255 0
3.175000 -0.061261 0
3.180000 -0.072128 0
3.185000 -0.081057 0
3.190000 -0.088261 0
3.195000 -0.093957 0
3.200000 -0.098359 0
3.205000 -0.101665 0
3.210000 -0.104060 0
3.215000 -0.105708 0
3.220000 -0.106753 0
3.225000 -0.106107 0
3.230000 -0.105179 0
3.235000 -0.104257 0
3.240000 -0.103338 0
3.245000 -0.102424 0
3.250000 -0.101514 0
3.255000 -0.100608 0
3.260000 -0.099705 0
3.265000 -0.098802 0
3.270000 -0.097897 0
3.275000 -0.096982 0
3.280000 -0.096046 0
3.285000 -0.095070 0
3.290000 -0.094019 0
3.295000 -0.092840 0
3.300000 -0.091449 0
3.305000 -0.089723 0
3.310000 -0.087482 0
3.315000 -0.084481 0
3.320000 -0.080400 0
3.325000 -0.074838 0
3.330000 -0.067326 0
3.335000 -0.057350 0
3.340000 -0.044400 0
3.345000 -0.028034 0
3.350000 -0.007969 0
3.355000 0.015833 0
3.360000 0.043067 0
3.365000 0.073028 0
3.370000 0.104586 0
3.375000 0.136219 0
3.380000 0.166117 0
3.385000 0.192341 0
3.390000 0.213027 0
3.395000 0.226604 0
3.400000 0.231990 1
3.405000 0.228734 0
3.410000 0.217082 0
3.415000 0.197940 0
3.420000 0.172765 0
3.425000 0.143369 0
3.430000 0.111702 0
3.435000 0.079572 0
3.440000 0.048287 0
3.445000 0.018098 0
3.450000 -0.012562 0
3.455000 -0.047537 0
3.460000 -0.091744 0
3.465000 -0.147041 0
3.470000 -0.206242 0
3.475000 -0.249665 2
3.480000 -0.248108 0
3.485000 -0.170787 0
3.490000 0.005604 0
3.495000 0.284618 0
3.500000 0.631162 0
3.505000 0.959263 0
3.510000 1.154379 3
3.515000 1.135284 0
3.520000 0.907314 0
3.525000 0.553947 0
3.530000 0.185946 0
3.535000 -0.112251 0
3.540000 -0.301134 0
3.545000 -0.377495 4
3.550000 -0.362054 0
3.555000 -0.290123 0
3.560000 -0.199798 0
3.565000 -0.118795 0
3.570000 -0.058092 0
3.575000 -0.015473 0
3.580000 0.016423 0
3.585000 0.044119 0
3.590000 0.071363 0
3.595000 0.099657 0
3.600000 0.129286 0
3.605000 0.160002 0
3.610000 0.191326 0
3.615000 0.222667 0
3.620000 0.253355 0
3.625000 0.282675 0
3.630000 0.309891 0
3.635000 0.334276 0
3.640000 0.355145 0
3.645000 0.371884 0
3.650000 0.383984 0
3.655000 0.391060 0
3.660000 0.392875 5
3.665000 0.389353 0
3.670000 0.380581 0
3.675000 0.366805 0
3.680000 0.348420 0
3.685000 0.325951 0
3.690000 0.300024 0
3.695000 0.271341 0
3.700000 0.240646 0
3.705000 0.208693 0
3.710000 0.176218 0
3.715000 0.143907 0
3.720000 0.112379 0
3.725000 0.082165 0
3.730000 0.053699 0
3.735000 0.027312 0
3.740000 0.003234 0
3.745000 -0.018403 0
3.750000 -0.037556 0
3.755000 -0.054257 0
3.760000 -0.068600 0
3.765000 -0.080728 0
3.770000 -0.090819 0
3.775000 -0.099073 0
3.780000 -0.105699 0
3.785000 -0.110906 0
3.790000 -0.114898 0
3.795000 -0.117865 0
3.800000 -0.119979 0
3.805000 -0.121395 0
3.810000 -0.121977 0
3.815000 -0.120970 0
3.820000 -0.119969 0
3.825000 -0.118972 0
3.830000 -0.117980 0
3.835000 -0.116993 0
3.840000 -0.116011 0
3.845000 -0.115032 0
3.850000 -0.114056 0
3.855000 -0.113082 0
3.860000 -0.112105 0
3.865000 -0.111118 0
3.870000 -0.110111 0
3.875000 -0.109064 0
3.880000 -0.107944 0
3.885000 -0.106699 0
3.890000 -0.105249 0
3.895000 -0.103475 0
3.900000 -0.101208 0
3.905000 -0.098216 0
3.910000 -0.094193 0
3.915000 -0.088760 0
3.920000 -0.081470 0
3.925000 -0.071828 0
3.930000 -0.059335 0
3.935000 -0.043550 0
3.940000 -0.024161 0
3.945000 -0.001081 0
3.950000 0.025474 0
3.955000 0.054913 0
3.960000 0.086240 0
3.965000 0.118073 0
3.970000 0.148723 0
3.975000 0.176330 0
3.980000 0.199044 0
3.985000 0.215228 0
3.990000 0.223654 0
3.995000 0.223659 1
4.000000 0.215228 0
4.005000 0.199000 0
4.010000 0.176191 0
4.015000 0.148437 0
4.020000 0.117598 0
4.025000 0.085524 0
4.030000 0.053763 0
4.035000 0.023140 0
4.040000 -0.006884 0
4.045000 -0.038900 0
4.050000 -0.077427 0
4.055000 -0.126577 0
4.060000 -0.185044 0
4.065000 -0.240885 0
4.070000 -0.270585 2
4.075000 -0.244223 0
4.080000 -0.133588 0
4.085000 0.078836 0
4.090000 0.386076 0
4.095000 0.738436 0
4.100000 1.039625 0
4.105000 1.180587 3
4.110000 1.101085 0
4.115000 0.829215 0
4.120000 0.461515 0
4.125000 0.105384 0
4.130000 -0.166573 0
4.135000 -0.325725 0
4.140000 -0.376011 4
4.145000 -0.342647 0
4.150000 -0.262765 0
4.155000 -0.172812 0
4.160000 -0.096431 0
4.165000 -0.040691 0
4.170000 -0.001395 0
4.175000 0.028976 0
4.180000 0.056298 0
4.185000 0.083684 0
4.190000 0.112260 0
4.195000 0.142142 0
4.200000 0.173012 0
4.205000 0.204365 0
4.210000 0.235591 0
4.215000 0.266010 0
4.220000 0.294905 0
4.225000 0.321541 0
4.230000 0.345201 0
4.235000 0.365217 0
4.240000 0.380996 0
4.245000 0.392056 0
4.250000 0.398042 0
4.255000 0.398752 5
4.260000 0.394141 0
4.265000 0.384329 0
4.270000 0.369590 0
4.275000 0.350346 0
4.280000 0.327139 0
4.285000 0.300611 0
4.290000 0.271469 0
4.295000 0.240460 0
4.300000 0.208332 0
4.305000 0.175810 0
4.310000 0.143568 0
4.315000 0.112207 0
4.320000 0.082239 0
4.325000 0.054079 0
4.330000 0.028039 0
4.335000 0.004332 0
4.340000 -0.016927 0
4.345000 -0.035708 0
4.350000 -0.052052 0
4.355000 -0.066063 0
4.360000 -0.077890 0
4.365000 -0.087714 0
4.370000 -0.095735 0
4.375000 -0.102163 0
4.380000 -0.107205 0
4.385000 -0.111063 0
4.390000 -0.113922 0
4.395000 -0.115954 0
4.400000 -0.117307 0
4.405000 -0.117855 0
4.410000 -0.116869 0
4.415000 -0.115887 0
4.420000 -0.114911 0
4.425000 -0.113939 0
4.430000 -0.112973 0
4.435000 -0.112010 0
4.440000 -0.111051 0
4.445000 -0.110095 0
4.450000 -0.109140 0
4.455000 -0.108181 0
4.460000 -0.107212 0
4.465000 -0.106221 0
4.470000 -0.105187 0
4.475000 -0.104076 0
4.480000 -0.102833 0
4.485000 -0.101377 0
4.490000 -0.099584 0
4.495000 -0.097281 0
4.500000 -0.094230 0
4.505000 -0.090120 0
4.510000 -0.084569 0
4.515000 -0.077124 0
4.520000 -0.067293 0
4.525000 -0.054582 0
4.530000 -0.038556 0
4.535000 -0.018920 0
4.540000 0.004395 0
4.545000 0.031149 0
4.550000 0.060726 0
4.555000 0.092110 0
4.560000 0.123903 0
4.565000 0.154408 0
4.570000 0.181770 0
4.575000 0.204153 0
4.580000 0.219945 0
4.585000 0.227950 1
4.590000 0.227537 0
4.595000 0.218723 0
4.600000 0.202171 0
4.605000 0.179113 0
4.610000 0.151190 0
4.615000 0.120258 0
4.620000 0.088154 0
4.625000 0.056402 0
4.630000 0.025795 0
4.635000 -0.004255 0
4.640000 -0.036383 0
4.645000 -0.075116 0
4.650000 -0.124495 0
4.655000 -0.183066 0
4.660000 -0.238743 0
4.665000 -0.267980 2
4.670000 -0.240959 0
4.675000 -0.129652 0
4.680000 0.083265 0
4.685000 0.390698 0
4.690000 0.743054 0
4.695000 1.044462 0
4.700000 1.186296 3
4.705000 1.107806 0
4.710000 0.836059 0
4.715000 0.468239 0
4.720000 0.112466 0
4.725000 -0.158411 0
4.730000 -0.315951 0
4.735000 -0.364491 4
4.740000 -0.329740 0
4.745000 -0.249237 0
4.750000 -0.159492 0
4.755000 -0.083830 0
4.760000 -0.028875 0
4.765000 0.009858 0
4.770000 0.039938 0
4.775000 0.067165 0
4.780000 0.094551 0
4.785000 0.123157 0
4.790000 0.153065 0
4.795000 0.183939 0
4.800000 0.215259 0
4.805000 0.246407 0
4.810000 0.276694 0
4.815000 0.305393 0
4.820000 0.331767 0
4.825000 0.355095 0
4.830000 0.374708 0
4.835000 0.390019 0
4.840000 0.400552 0
4.845000 0.405966 0
4.850000 0.406071 5
4.855000 0.400840 0
4.860000 0.390411 0
4.865000 0.375079 0
4.870000 0.355284 0
4.875000 0.331585 0
4.880000 0.304639 0
4.885000 0.275166 0
4.890000 0.243921 0
4.895000 0.211655 0
4.900000 0.179094 0
4.905000 0.146906 0
4.910000 0.115686 0
4.915000 0.085935 0
4.920000 0.058054 0
4.925000 0.032343 0
4.930000 0.008999 0
4.935000 -0.011878 0
4.940000 -0.030268 0
4.945000 -0.046228 0
4.950000 -0.059870 0
4.955000 -0.071351 0
4.960000 -0.080858 0
4.965000 -0.088595 0
4.970000 -0.094774 0
4.975000 -0.099604 0
4.980000 -0.103283 0
4.985000 -0.105998 0
4.990000 -0.107915 0
4.995000 -0.109181 0
5.000000 -0.108558 0
5.005000 -0.107619 0
5.010000 -0.106684 0
5.015000 -0.105753 0
5.020000 -0.104827 0
5.025000 -0.103906 0
5.030000 -0.102988 0
5.035000 -0.102074 0
5.040000 -0.101162 0
5.045000 -0.100249 0
5.050000 -0.099332 0
5.055000 -0.098402 0
5.060000 -0.097444 0
5.065000 -0.096436 0
5.070000 -0.095337 0
5.075000 -0.094087 0
5.080000 -0.092591 0
5.085000 -0.090714 0
5.090000 -0.088262 0
5.095000 -0.084976 0
5.100000 -0.080521 0
5.105000 -0.074489 0
5.110000 -0.066408 0
5.115000 -0.055777 0
5.120000 -0.042108 0
5.125000 -0.024999 0
5.130000 -0.004215 0
5.135000 0.020223 0
5.140000 0.047954 0
5.145000 0.078228 0
5.150000 0.109887 0
5.155000 0.141409 0
5.160000 0.171011 0
5.165000 0.196809 0
5.170000 0.217008 0
5.175000 0.230111 0
5.180000 0.235100 1
5.185000 0.231568 0
5.190000 0.219774 0
5.195000 0.200610 0
5.200000 0.175490 0
5.205000 0.146174 0
5.210000 0.114555 0
5.215000 0.082402 0
5.220000 0.051028 0
5.225000 0.020777 0
5.230000 -0.009692 0
5.235000 -0.043906 0
5.240000 -0.086678 0
5.245000 -0.140541 0
5.250000 -0.200120 0
5.255000 -0.248202 0
5.260000 -0.257528 2
5.265000 -0.197803 0
5.270000 -0.044120 0
5.275000 0.212557 0
5.280000 0.548600 0
5.285000 0.892314 0
5.290000 1.134900 0
5.295000 1.180844 3
5.300000 1.007221 0
5.305000 0.678663 0
5.310000 0.304250 0
5.315000 -0.020509 0
5.320000 -0.243286 0
5.325000 -0.351691 0
5.330000 -0.360359 4
5.335000 -0.301214 0
5.340000 -0.212874 0
5.345000 -0.127202 0
5.350000 -0.060201 0
5.355000 -0.012849 0
5.360000 0.021451 0
5.365000 0.049836 0
5.370000 0.076905 0
5.375000 0.104734 0
5.380000 0.133888 0
5.385000 0.164237 0
5.390000 0.195360 0
5.395000 0.226695 0
5.400000 0.257597 0
5.405000 0.287363 0
5.410000 0.315264 0
5.415000 0.340568 0
5.420000 0.362576 0
5.425000 0.380648 0
5.430000 0.394241 0
5.435000 0.402927 0
5.440000 0.406422 5
5.445000 0.404594 0
5.450000 0.397478 0
5.455000 0.385266 0
5.460000 0.368305 0
5.465000 0.347078 0
5.470000 0.322177 0
5.475000 0.294282 0
5.480000 0.264123 0
5.485000 0.232453 0
5.490000 0.200013 0
5.495000 0.167509 0
5.500000 0.135583 0
5.505000 0.104796 0
5.510000 0.075615 0
5.515000 0.048407 0
5.520000 0.023435 0
5.525000 0.000865 0
5.530000 -0.019229 0
5.535000 -0.036855 0
5.540000 -0.052087 0
5.545000 -0.065050 0
5.550000 -0.075912 0
5.555000 -0.084865 0
5.560000 -0.092116 0
5.565000 -0.097874 0
5.570000 -0.102346 0
5.575000 -0.105725 0
5.580000 -0.108191 0
5.585000 -0.109904 0
5.590000 -0.111007 0
5.595000 -0.110353 0
5.600000 -0.109404 0
5.605000 -0.108460 0
5.610000 -0.107521 0
5.615000 -0.106586 0
5.620000 -0.105656 0
5.625000 -0.104729 0
5.630000 -0.103806 0
5.635000 -0.102884 0
5.640000 -0.101961 0
5.645000 -0.101032 0
5.650000 -0.100087 0
5.655000 -0.099110 0
5.660000 -0.098076 0
5.665000 -0.096939 0
5.670000 -0.095633 0
5.675000 -0.094056 0
5.680000 -0.092061 0
5.685000 -0.089442 0
5.690000 -0.085925 0
5.695000 -0.081162 0
5.700000 -0.074731 0
5.705000 -0.066154 0
5.710000 -0.054932 0
5.715000 -0.040590 0
5.720000 -0.022755 0
5.725000 -0.001238 0
5.730000 0.023880 0
5.735000 0.052171 0
5.740000 0.082810 0
5.745000 0.114573 0
5.750000 0.145891 0
5.755000 0.174961 0
5.760000 0.199909 0
5.765000 0.218988 0
5.770000 0.230781 0
5.775000 0.234370 1
5.780000 0.229461 0
5.785000 0.216416 0
5.790000 0.196216 0
5.795000 0.170332 0
5.800000 0.140551 0
5.805000 0.108753 0
5.810000 0.076653 0
5.815000 0.045455 0
5.820000 0.015308 0
5.825000 -0.015409 0
5.830000 -0.050477 0
5.835000 -0.094653 0
5.840000 -0.149763 0
5.845000 -0.209094 0
5.850000 -0.254058 0
5.855000 -0.256751 2
5.860000 -0.187245 0
5.865000 -0.021976 0
5.870000 0.245350 0
5.875000 0.586534 0
5.880000 0.925135 0
5.885000 1.151443 0
5.890000 1.175396 3
5.895000 0.982519 0
5.900000 0.643851 0
5.905000 0.270956 0
5.910000 -0.043556 0
5.915000 -0.252035 0
5.920000 -0.346012 4
5.925000 -0.343131 0
5.930000 -0.277415 0
5.935000 -0.187829 0
5.940000 -0.104572 0
5.945000 -0.041130 0
5.950000 0.003363 0
5.955000 0.036086 0
5.960000 0.063921 0
5.965000 0.090994 0
5.970000 0.119031 0
5.975000 0.148415 0
5.980000 0.178930 0
5.985000 0.210112 0
5.990000 0.241369 0
5.995000 0.272032 0
6.000000 0.301381 0
6.005000 0.328671 0
6.010000 0.353167 0
6.015000 0.374172 0
6.020000 0.391061 0
6.025000 0.403311 0
6.030000 0.410527 0
6.035000 0.412463 5
6.040000 0.409033 0
6.045000 0.400320 0
6.050000 0.386569 0
6.055000 0.368173 0
6.060000 0.345662 0
6.065000 0.319666 0
6.070000 0.290895 0
6.075000 0.260100 0
6.080000 0.228044 0
6.085000 0.195469 0
6.090000 0.163068 0
6.095000 0.131465 0
6.100000 0.101195 0
6.105000 0.072695 0
6.110000 0.046294 0
6.115000 0.022221 0
6.120000 0.000605 0
6.125000 -0.018512 0
6.130000 -0.035168 0
6.135000 -0.049462 0
6.140000 -0.061540 0
6.145000 -0.071584 0
6.150000 -0.079797 0
6.155000 -0.086392 0
6.160000 -0.091578 0
6.165000 -0.095561 0
6.170000 -0.098531 0
6.175000 -0.100661 0
6.180000 -0.102104 0
6.185000 -0.102733 0
6.190000 -0.101822 0
6.195000 -0.100916 0
6.200000 -0.100014 0
6.205000 -0.099117 0
6.210000 -0.098224 0
6.215000 -0.097335 0
6.220000 -0.096449 0
6.225000 -0.095566 0
6.230000 -0.094682 0
6.235000 -0.093795 0
6.240000 -0.092897 0
6.245000 -0.091974 0
6.250000 -0.091005 0
6.255000 -0.089955 0
6.260000 -0.088765 0
6.265000 -0.087348 0
6.270000 -0.085575 0
6.275000 -0.083262 0
6.280000 -0.080158 0
6.285000 -0.075940 0
6.290000 -0.070207 0
6.295000 -0.062492 0
6.300000 -0.052292 0
6.305000 -0.039110 0
6.310000 -0.022523 0
6.315000 -0.002266 0
6.320000 0.021680 0
6.325000 0.049000 0
6.330000 0.078991 0
6.335000 0.110534 0
6.340000 0.142138 0
6.345000 0.172028 0
6.350000 0.198308 0
6.355000 0.219150 0
6.360000 0.233004 0
6.365000 0.238790 1
6.370000 0.236034 0
6.375000 0.224933 0
6.380000 0.206333 0
6.385000 0.181618 0
6.390000 0.152543 0
6.395000 0.121011 0
6.400000 0.088825 0
6.405000 0.057353 0
6.410000 0.027027 0
6.415000 -0.003376 0
6.420000 -0.037283 0
6.425000 -0.079536 0
6.430000 -0.132931 0
6.435000 -0.192551 0
6.440000 -0.241586 0
6.445000 -0.252868 2
6.450000 -0.195841 0
6.455000 -0.045102 0
6.460000 0.209103 0
6.465000 0.544002 0
6.470000 0.888405 0
6.475000 1.133047 0
6.480000 1.181129 3
6.485000 1.007384 0
6.490000 0.676333 0
6.495000 0.302588 0
6.500000 -0.015585 0
6.505000 -0.226774 0
6.510000 -0.321360 4
6.515000 -0.317499 0
6.520000 -0.250583 0
6.525000 -0.160874 0
6.530000 -0.078880 0
6.535000 -0.017383 0
6.540000 0.025401 0
6.545000 0.057112 0
6.550000 0.084573 0
6.555000 0.111653 0
6.560000 0.139851 0
6.565000 0.169411 0
6.570000 0.200043 0
6.575000 0.231229 0
6.580000 0.262335 0
6.585000 0.292650 0
6.590000 0.321416 0
6.595000 0.347862 0
6.600000 0.371233 0
6.605000 0.390828 0
6.610000 0.406030 0
6.615000 0.416343 0
6.620000 0.421413 5
6.625000 0.421051 0
6.630000 0.415240 0
6.635000 0.404140 0
6.640000 0.388077 0
6.645000 0.367528 0
6.650000 0.343098 0
6.655000 0.315486 0
6.660000 0.285455 0
6.665000 0.253794 0
6.670000 0.221285 0
6.675000 0.188673 0
6.680000 0.156635 0
6.685000 0.125762 0
6.690000 0.096545 0
6.695000 0.069364 0
6.700000 0.044489 0
6.705000 0.022087 0
6.710000 0.002223 0
6.715000 -0.015119 0
6.720000 -0.030027 0
6.725000 -0.042642 0
6.730000 -0.053148 0
6.735000 -0.061751 0
6.740000 -0.068669 0
6.745000 -0.074122 0
6.750000 -0.078323 0
6.755000 -0.081471 0
6.760000 -0.083749 0
6.765000 -0.085315 0
6.770000 -0.086048 0
6.775000 -0.085221 0
6.780000 -0.084397 0
6.785000 -0.083578 0
6.790000 -0.082763 0
6.795000 -0.081951 0
6.800000 -0.081143 0
6.805000 -0.080338 0
6.810000 -0.079535 0
6.815000 -0.078731 0
6.820000 -0.077921 0
6.825000 -0.077099 0
6.830000 -0.076248 0
6.835000 -0.075344 0
6.840000 -0.074347 0
6.845000 -0.073190 0
6.850000 -0.071774 0
6.855000 -0.069952 0
6.860000 -0.067516 0
6.865000 -0.064185 0
6.870000 -0.059598 0
6.875000 -0.053316 0
6.880000 -0.044837 0
6.885000 -0.033636 0
6.890000 -0.019215 0
6.895000 -0.001192 0
6.900000 0.020613 0
6.905000 0.046082 0
6.910000 0.074710 0
6.915000 0.105565 0
6.920000 0.137290 0
6.925000 0.168174 0
6.930000 0.196286 0
6.935000 0.219672 0
6.940000 0.236574 0
6.945000 0.245645 0
6.950000 0.246128 1
6.955000 0.237959 0
6.960000 0.221778 0
6.965000 0.198844 0
6.970000 0.170871 0
6.975000 0.139812 0
6.980000 0.107595 0
6.985000 0.075801 0
6.990000 0.045185 0
6.995000 0.014949 0
7.000000 -0.017963 0
7.005000 -0.058453 0
7.010000 -0.110176 0
7.015000 -0.169691 0
7.020000 -0.221397 0
7.025000 -0.238168 2
7.030000 -0.188302 0
7.035000 -0.044653 0
7.040000 0.204424 0
7.045000 0.537427 0
7.050000 0.882227 0
7.055000 1.126017 0
7.060000 1.168924 3
7.065000 0.987964 0
7.070000 0.653095 0
7.075000 0.280063 0
7.080000 -0.033944 0
7.085000 -0.239369 0
7.090000 -0.328184 4
7.095000 -0.319797 0
7.100000 -0.250457 0
7.105000 -0.160489 0
7.110000 -0.079609 0
7.115000 -0.019530 0
7.120000 0.022226 0
7.125000 0.053448 0
7.130000 0.080809 0
7.135000 0.107977 0
7.140000 0.136321 0
7.145000 0.166022 0
7.150000 0.196758 0
7.155000 0.227996 0
7.160000 0.259088 0
7.165000 0.289313 0
7.170000 0.317907 0
7.175000 0.344092 0
7.180000 0.367113 0
7.185000 0.386271 0
7.190000 0.400959 0
7.195000 0.410693 0
7.200000 0.415134 5
7.205000 0.414114 0
7.210000 0.407639 0
7.215000 0.395890 0
7.220000 0.379218 0
7.225000 0.358122 0
7.230000 0.333225 0
7.235000 0.305243 0
7.240000 0.274949 0
7.245000 0.243138 0
7.250000 0.210595 0
7.255000 0.178058 0
7.260000 0.146198 0
7.265000 0.115593 0
7.270000 0.086720 0
7.275000 0.059943 0
7.280000 0.035516 0
7.285000 0.013587 0
7.290000 -0.005793 0
7.295000 -0.022655 0
7.300000 -0.037098 0
7.305000 -0.049274 0
7.310000 -0.059372 0
7.315000 -0.067603 0
7.320000 -0.074188 0
7.325000 -0.079348 0
7.330000 -0.083294 0
7.335000 -0.086224 0
7.340000 -0.088316 0
7.345000 -0.089728 0
7.350000 -0.090347 0
7.355000 -0.089498 0
7.360000 -0.088654 0
7.365000 -0.087813 0
7.370000 -0.086977 0
7.375000 -0.086144 0
7.380000 -0.085315 0
7.385000 -0.084489 0
7.390000 -0.083664 0
7.395000 -0.082837 0
7.400000 -0.082004 0
7.405000 -0.081154 0
7.410000 -0.080272 0
7.415000 -0.079327 0
7.420000 -0.078274 0
7.425000 -0.077038 0
7.430000 -0.075508 0
7.435000 -0.073520 0
7.440000 -0.070846 0
7.445000 -0.067181 0
7.450000 -0.062139 0
7.455000 -0.055257 0
7.460000 -0.046020 0
7.465000 -0.033899 0
7.470000 -0.018420 0
7.475000 0.000754 0
7.480000 0.023722 0
7.485000 0.050255 0
7.490000 0.079716 0
7.495000 0.111030 0
7.500000 0.142710 0
7.505000 0.172945 0
7.510000 0.199762 0
7.515000 0.221233 0
7.520000 0.235701 0
7.525000 0.241989 1
7.530000 0.239561 0
7.535000 0.228593 0
7.540000 0.209954 0
7.545000 0.185091 0
7.550000 0.155838 0
7.555000 0.124183 0
7.560000 0.091987 0
7.565000 0.060613 0
7.570000 0.030353 0
7.575000 -0.000361 0
7.580000 -0.035441 0
7.585000 -0.079895 0
7.590000 -0.135504 0
7.595000 -0.194596 0
7.600000 -0.236607 2
7.605000 -0.231445 0
7.610000 -0.147869 0
7.615000 0.036972 0
7.620000 0.324257 0
7.625000 0.673556 0
7.630000 0.992310 0
7.635000 1.163851 3
7.640000 1.113633 0
7.645000 0.859590 0
7.650000 0.496230 0
7.655000 0.136201 0
7.660000 -0.141719 0
7.665000 -0.305401 0
7.670000 -0.357809 4
7.675000 -0.324700 0
7.680000 -0.244508 0
7.685000 -0.154843 0
7.690000 -0.079605 0
7.695000 -0.025331 0
7.700000 0.012802 0
7.705000 0.042560 0
7.710000 0.069723 0
7.715000 0.097200 0
7.720000 0.125956 0
7.725000 0.156008 0
7.730000 0.186982 0
7.735000 0.218326 0
7.740000 0.249389 0
7.745000 0.279456 0
7.750000 0.307773 0
7.755000 0.333581 0
7.760000 0.356148 0
7.765000 0.374802 0
7.770000 0.388961 0
7.775000 0.398169 0
7.780000 0.402115 5
7.785000 0.400650 0
7.790000 0.393796 0
7.795000 0.381747 0
7.800000 0.364855 0
7.805000 0.343619 0
7.810000 0.318654 0
7.815000 0.290663 0
7.820000 0.260403 0
7.825000 0.228655 0
7.830000 0.196185 0
7.835000 0.163717 0
7.840000 0.131908 0
7.845000 0.101326 0
7.850000 0.072442 0
7.855000 0.045616 0
7.860000 0.021104 0
7.865000 -0.000944 0
7.870000 -0.020470 0
7.875000 -0.037498 0
7.880000 -0.052119 0
7.885000 -0.064478 0
7.890000 -0.074756 0
7.895000 -0.083157 0
7.900000 -0.089897 0
7.905000 -0.095193 0
7.910000 -0.099254 0
7.915000 -0.102276 0
7.920000 -0.104437 0
7.925000 -0.105895 0
7.930000 -0.106524 0
7.935000 -0.105595 0
7.940000 -0.104670 0
7.945000 -0.103749 0
7.950000 -0.102833 0
7.955000 -0.101922 0
7.960000 -0.101014 0
7.965000 -0.100110 0
7.970000 -0.099208 0
7.975000 -0.098306 0
7.980000 -0.097400 0
7.985000 -0.096482 0
7.990000 -0.095539 0
7.995000 -0.094546 0
8.000000 -0.093465 0
8.005000 -0.092236 0
8.010000 -0.090764 0
8.015000 -0.088910 0
8.020000 -0.086478 0
8.025000 -0.083202 0
8.030000 -0.078738 0
8.035000 -0.072663 0
8.040000 -0.064492 0
8.045000 -0.053707 0
8.050000 -0.039810 0
8.055000 -0.022396 0
8.060000 -0.001242 0
8.065000 0.023598 0
8.070000 0.051710 0
8.075000 0.082265 0
8.080000 0.114015 0
8.085000 0.145342 0
8.090000 0.174379 0
8.095000 0.199189 0
8.100000 0.217970 0
8.105000 0.229273 0
8.110000 0.232187 1
8.115000 0.226461 0
8.120000 0.212535 0
8.125000 0.191490 0
8.130000 0.164906 0
8.135000 0.134659 0
8.140000 0.102686 0
8.145000 0.070697 0
8.150000 0.039764 0
8.155000 0.009699 0
8.160000 -0.021714 0
8.165000 -0.058859 0
8.170000 -0.106333 0
8.175000 -0.164010 0
8.180000 -0.221244 0
8.185000 -0.255038 2
8.190000 -0.234840 0
8.195000 -0.131052 0
8.200000 0.075538 0
8.205000 0.379558 0
8.210000 0.731673 0
8.215000 1.033495 0
8.220000 1.172571 3
8.225000 1.087632 0
8.230000 0.809898 0
8.235000 0.440338 0
8.240000 0.088414 0
8.245000 -0.174349 0
8.250000 -0.321842 0
8.255000 -0.360767 4
8.260000 -0.319068 0
8.265000 -0.235700 0
8.270000 -0.146892 0
8.275000 -0.074185 0
8.280000 -0.022227 0
8.285000 0.014543 0
8.290000 0.043778 0
8.295000 0.070887 0
8.300000 0.098488 0
8.305000 0.127397 0
8.310000 0.157573 0
8.315000 0.188618 0
8.320000 0.219971 0
8.325000 0.250979 0
8.330000 0.280925 0
8.335000 0.309059 0
8.340000 0.334627 0
8.345000 0.356904 0
8.350000 0.375229 0
8.355000 0.389033 0
8.360000 0.397873 0
8.365000 0.401450 5
8.370000 0.399628 0
8.375000 0.392440 0
8.380000 0.380090 0
8.385000 0.362939 0
8.390000 0.341487 0
8.395000 0.316352 0
8.400000 0.288238 0
8.405000 0.257899 0
8.410000 0.226111 0
8.415000 0.193634 0
8.420000 0.161185 0
8.425000 0.129415 0
8.430000 0.098887 0
8.435000 0.070063 0
8.440000 0.043300 0
8.445000 0.018848 0
8.450000 -0.003144 0
8.455000 -0.022621 0
8.460000 -0.039609 0
8.465000 -0.054198 0
8.470000 -0.066532 0
8.475000 -0.076792 0
8.480000 -0.085182 0
8.485000 -0.091915 0
8.490000 -0.097208 0
8.495000 -0.101268 0
8.500000 -0.104290 0
8.505000 -0.106452 0
8.510000 -0.107911 0
8.515000 -0.108539 0
8.520000 -0.107599 0
8.525000 -0.106664 0
8.530000 -0.105734 0
8.535000 -0.104808 0
8.540000 -0.103887 0
8.545000 -0.102969 0
8.550000 -0.102056 0
8.555000 -0.101144 0
8.560000 -0.100233 0
8.565000 -0.099318 0
8.570000 -0.098391 0
8.575000 -0.097440 0
8.580000 -0.096442 0
8.585000 -0.095360 0
8.590000 -0.094133 0
8.595000 -0.092673 0
8.600000 -0.090843 0
8.605000 -0.088453 0
8.610000 -0.085245 0
8.615000 -0.080881 0
8.620000 -0.074949 0
8.625000 -0.066971 0
8.630000 -0.056431 0
8.635000 -0.042831 0
8.640000 -0.025757 0
8.645000 -0.004964 0
8.650000 0.019523 0
8.655000 0.047332 0
8.660000 0.077686 0
8.665000 0.109383 0
8.670000 0.140853 0
8.675000 0.170261 0
8.680000 0.195678 0
8.685000 0.215284 0
8.690000 0.227587 0
8.695000 0.231606 1
8.700000 0.227003 0
8.705000 0.214128 0
8.710000 0.193977 0
8.715000 0.168062 0
8.720000 0.138222 0
8.725000 0.106391 0
8.730000 0.074320 0
8.735000 0.043204 0
8.740000 0.013098 0
8.745000 -0.017850 0
8.750000 -0.053717 0
8.755000 -0.099298 0
8.760000 -0.155666 0
8.765000 -0.214278 0
8.770000 -0.254190 2
8.775000 -0.245760 0
8.780000 -0.158755 0
8.785000 0.028594 0
8.790000 0.316805 0
8.795000 0.666131 0
8.800000 0.986644 0
8.805000 1.164534 3
8.810000 1.124236 0
8.815000 0.878397 0
8.820000 0.517937 0
8.825000 0.154934 0
8.830000 -0.129945 0
8.835000 -0.302135 0
8.840000 -0.362539 4
8.845000 -0.335205 0
8.850000 -0.257550 0
8.855000 -0.167440 0
8.860000 -0.090145 0
8.865000 -0.033707 0
8.870000 0.005872 0
8.875000 0.036278 0
8.880000 0.063566 0
8.885000 0.090930 0
8.890000 0.119508 0
8.895000 0.149404 0
8.900000 0.180283 0
8.905000 0.211620 0
8.910000 0.242784 0
8.915000 0.273075 0
8.920000 0.301754 0
8.925000 0.328069 0
8.930000 0.351289 0
8.935000 0.370735 0
8.940000 0.385815 0
8.945000 0.396052 0
8.950000 0.401107 5
8.955000 0.400799 0
8.960000 0.395115 0
8.965000 0.384208 0
8.970000 0.368395 0
8.975000 0.348137 0
8.980000 0.324016 0
8.985000 0.296710 0
8.990000 0.266958 0
8.995000 0.235529 0
9.000000 0.203185 0
9.005000 0.170657 0
9.010000 0.138614 0
9.015000 0.107644 0
9.020000 0.078240 0
9.025000 0.050789 0
9.030000 0.025575 0
9.035000 0.002777 0
9.040000 -0.017522 0
9.045000 -0.035321 0
9.050000 -0.050692 0
9.055000 -0.063762 0
9.060000 -0.074699 0
9.065000 -0.083699 0
9.070000 -0.090974 0
9.075000 -0.096738 0
9.080000 -0.101202 0
9.085000 -0.104564 0
9.090000 -0.107008 0
9.095000 -0.108696 0
9.100000 -0.109774 0
9.105000 -0.109121 0
9.110000 -0.108178 0
9.115000 -0.107240 0
9.120000 -0.106307 0
9.125000 -0.105378 0
9.130000 -0.104454 0
9.135000 -0.103533 0
9.140000 -0.102615 0
9.145000 -0.101699 0
9.150000 -0.100781 0
9.155000 -0.099854 0
9.160000 -0.098910 0
9.165000 -0.097928 0
9.170000 -0.096880 0
9.175000 -0.095716 0
9.180000 -0.094359 0
9.185000 -0.092695 0
9.190000 -0.090559 0
9.195000 -0.087724 0
9.200000 -0.083886 0
9.205000 -0.078667 0
9.210000 -0.071616 0
9.215000 -0.062231 0
9.220000 -0.050004 0
9.225000 -0.034475 0
9.230000 -0.015317 0
9.235000 0.007573 0
9.240000 0.033988 0
9.245000 0.063335 0
9.250000 0.094607 0
9.255000 0.126397 0
9.260000 0.156980 0
9.265000 0.184459 0
9.270000 0.206946 0
9.275000 0.222784 0
9.280000 0.230741 1
9.285000 0.230172 0
9.290000 0.221107 0
9.295000 0.204243 0
9.300000 0.180861 0
9.305000 0.152663 0
9.310000 0.121556 0
9.315000 0.089409 0
9.320000 0.057735 0
9.325000 0.027231 0
9.330000 -0.002921 0
9.335000 -0.035716 0
9.340000 -0.075936 0
9.345000 -0.127219 0
9.350000 -0.186541 0
9.355000 -0.239272 0
9.360000 -0.259489 2
9.365000 -0.216328 0
9.370000 -0.082606 0
9.375000 0.155161 0
9.380000 0.480695 0
9.385000 0.830193 0
9.390000 1.096882 0
9.395000 1.176981 3
9.400000 1.035216 0
9.405000 0.724544 0
9.410000 0.350200 0
9.415000 0.012190 0
9.420000 -0.229986 0
9.425000 -0.358149 0
9.430000 -0.382859 4
9.435000 -0.333331 0
9.440000 -0.247611 0
9.445000 -0.159524 0
9.450000 -0.088251 0
9.455000 -0.037232 0
9.460000 -0.000785 0
9.465000 0.028448 0
9.470000 0.055630 0
9.475000 0.083281 0
9.480000 0.112207 0
9.485000 0.142386 0
9.490000 0.173448 0
9.495000 0.204861 0
9.500000 0.236002 0
9.505000 0.266186 0
9.510000 0.294695 0
9.515000 0.320801 0
9.520000 0.343798 0
9.525000 0.363036 0
9.530000 0.377948 0
9.535000 0.388075 0
9.540000 0.393097 5
9.545000 0.392839 0
9.550000 0.387289 0
9.555000 0.376593 0
9.560000 0.361054 0
9.565000 0.341111 0
9.570000 0.317322 0
9.575000 0.290338 0
9.580000 0.260871 0
9.585000 0.229663 0
9.590000 0.197457 0
9.595000 0.164965 0
9.600000 0.132847 0
9.605000 0.101688 0
9.610000 0.071984 0
9.615000 0.044130 0
9.620000 0.018425 0
9.625000 -0.004936 0
9.630000 -0.025848 0
9.635000 -0.044291 0
9.640000 -0.060317 0
9.645000 -0.074033 0
9.650000 -0.085591 0
9.655000 -0.095175 0
9.660000 -0.102984 0
9.665000 -0.109228 0
9.670000 -0.114112 0
9.675000 -0.117834 0
9.680000 -0.120578 0
9.685000 -0.122512 0
9.690000 -0.123782 0
9.695000 -0.124264 0
9.700000 -0.123246 0
9.705000 -0.122233 0
9.710000 -0.121225 0
9.715000 -0.120222 0
9.720000 -0.119224 0
9.725000 -0.118230 0
9.730000 -0.117240 0
9.735000 -0.116253 0
9.740000 -0.115266 0
9.745000 -0.114276 0
9.750000 -0.113276 0
9.755000 -0.112254 0
9.760000 -0.111187 0
9.765000 -0.110043 0
9.770000 -0.108766 0
9.775000 -0.107273 0
9.780000 -0.105442 0
9.785000 -0.103098 0
9.790000 -0.100004 0
9.795000 -0.095852 0
9.800000 -0.090259 0
9.805000 -0.082777 0
9.810000 -0.072916 0
9.815000 -0.060186 0
9.820000 -0.044154 0
9.825000 -0.024528 0
9.830000 -0.001234 0
9.835000 0.025491 0
9.840000 0.055045 0
9.845000 0.086426 0
9.850000 0.118253 0
9.855000 0.148850 0
9.860000 0.176375 0
9.865000 0.199001 0
9.870000 0.215115 0
9.875000 0.223510 0
9.880000 0.223531 1
9.885000 0.215163 0
9.890000 0.199034 0
9.895000 0.176338 0
9.900000 0.148687 0
9.905000 0.117918 0
9.910000 0.085862 0
9.915000 0.054069 0
9.920000 0.023396 0
9.925000 -0.006607 0
9.930000 -0.038380 0
9.935000 -0.076316 0
9.940000 -0.124640 0
9.945000 -0.182647 0
9.950000 -0.239462 0
9.955000 -0.272664 2
9.960000 -0.252920 0
9.965000 -0.151821 0
9.970000 0.049521 0
9.975000 0.347684 0
9.980000 0.699002 0
9.985000 1.012781 0
9.990000 1.179593 3
9.995000 1.131109 0
10.000000 0.882744 0
10.005000 0.522534 0
10.010000 0.158081 0
10.015000 -0.132076 0
10.020000 -0.312811 0
10.025000 -0.383023 4
10.030000 -0.364048 0
10.035000 -0.290817 0
10.040000 -0.200416 0
10.045000 -0.119583 0
10.050000 -0.058853 0
10.055000 -0.016049 0
10.060000 0.016018 0
10.065000 0.043778 0
10.070000 0.070989 0
10.075000 0.099197 0
10.080000 0.128725 0
10.085000 0.159355 0
10.090000 0.190634 0
10.095000 0.221992 0
10.100000 0.252781 0
10.105000 0.282308 0
10.110000 0.309854 0
10.115000 0.334708 0
10.120000 0.356192 0
10.125000 0.373694 0
10.130000 0.386694 0
10.135000 0.394794 0
10.140000 0.397732 5
10.145000 0.395399 0
10.150000 0.387843 0
10.155000 0.375270 0
10.160000 0.358031 0
10.165000 0.336605 0
10.170000 0.311582 0
10.175000 0.283628 0
10.180000 0.253462 0
10.185000 0.221819 0
10.190000 0.189427 0
10.195000 0.156975 0
10.200000 0.125092 0
10.205000 0.094329 0
10.210000 0.065145 0
10.215000 0.037903 0
10.220000 0.012865 0
10.225000 -0.009802 0
10.230000 -0.030022 0
10.235000 -0.047795 0
10.240000 -0.063188 0
10.245000 -0.076322 0
10.250000 -0.087357 0
10.255000 -0.096478 0
10.260000 -0.103887 0
10.265000 -0.109789 0
10.270000 -0.114388 0
10.275000 -0.117875 0
10.280000 -0.120429 0
10.285000 -0.122211 0
10.290000 -0.123363 0
10.295000 -0.122664 0
10.300000 -0.121654 0
10.305000 -0.120649 0
10.310000 -0.119649 0
10.315000 -0.118654 0
10.320000 -0.117663 0
10.325000 -0.116677 0
10.330000 -0.115695 0
10.335000 -0.114715 0
10.340000 -0.113735 0
10.345000 -0.112751 0
10.350000 -0.111756 0
10.355000 -0.110736 0
10.360000 -0.109669 0
10.365000 -0.108519 0
10.370000 -0.107230 0
10.375000 -0.105715 0
10.380000 -0.103849 0
10.385000 -0.101454 0
10.390000 -0.098289 0
10.395000 -0.094043 0
10.400000 -0.088334 0
10.405000 -0.080713 0
10.410000 -0.070696 0
10.415000 -0.057800 0
10.420000 -0.041604 0
10.425000 -0.021826 0
10.430000 0.001593 0
10.435000 0.028409 0
10.440000 0.058012 0
10.445000 0.089404 0
10.450000 0.121215 0
10.455000 0.151785 0
10.460000 0.179293 0
10.465000 0.201936 0
10.470000 0.218118 0
10.475000 0.226641 0
10.480000 0.226848 1
10.485000 0.218710 0
10.490000 0.202827 0
10.495000 0.180362 0
10.500000 0.152895 0
10.505000 0.122233 0
10.510000 0.090194 0
10.515000 0.058335 0
10.520000 0.027566 0
10.525000 -0.002439 0
10.530000 -0.033917 0
10.535000 -0.071089 0
10.540000 -0.118314 0
10.545000 -0.175628 0
10.550000 -0.233491 0
10.555000 -0.270879 2
10.560000 -0.259220 0
10.565000 -0.169900 0
10.570000 0.017521 0
10.575000 0.303634 0
10.580000 0.651843 0
10.585000 0.978580 0
10.590000 1.175116 3
10.595000 1.160427 0
10.600000 0.935329 0
10.605000 0.582813 0
10.610000 0.214360 0
10.615000 -0.084626 0
10.620000 -0.274067 0
10.625000 -0.350614 4
10.630000 -0.335105 0
10.635000 -0.263096 0
10.640000 -0.172893 0
10.645000 -0.092243 0
10.650000 -0.031993 0
10.655000 0.010226 0
10.660000 0.041845 0
10.665000 0.069372 0
10.670000 0.096511 0
10.675000 0.124727 0
10.680000 0.154281 0
10.685000 0.184910 0
10.690000 0.216130 0
10.695000 0.247339 0
10.700000 0.277862 0
10.705000 0.306977 0
10.710000 0.333943 0
10.715000 0.358030 0
10.720000 0.378551 0
10.725000 0.394895 0
10.730000 0.406555 0
10.735000 0.413154 0
10.740000 0.414465 5
10.745000 0.410423 0
10.750000 0.401128 0
10.755000 0.386841 0
10.760000 0.367971 0
10.765000 0.345055 0
10.770000 0.318732 0
10.775000 0.289715 0
10.780000 0.258754 0
10.785000 0.226608 0
10.790000 0.194012 0
10.795000 0.161652 0
10.800000 0.130141 0
10.805000 0.100004 0
10.810000 0.071665 0
10.815000 0.045445 0
10.820000 0.021563 0
10.825000 0.000140 0
10.830000 -0.018790 0
10.835000 -0.035269 0
10.840000 -0.049400 0
10.845000 -0.061331 0
10.850000 -0.071247 0
10.855000 -0.079349 0
10.860000 -0.085850 0
10.865000 -0.090959 0
10.870000 -0.094880 0
10.875000 -0.097800 0
10.880000 -0.099891 0
10.885000 -0.101304 0
10.890000 -0.101916 0
10.895000 -0.101009 0
10.900000 -0.100107 0
10.905000 -0.099209 0
10.910000 -0.098316 0
10.915000 -0.097427 0
10.920000 -0.096542 0
10.925000 -0.095660 0
10.930000 -0.094780 0
10.935000 -0.093901 0
10.940000 -0.093017 0
10.945000 -0.092122 0
10.950000 -0.091202 0
10.955000 -0.090236 0
10.960000 -0.089186 0
10.965000 -0.087996 0
10.970000 -0.086578 0
10.975000 -0.084800 0
10.980000 -0.082481 0
10.985000 -0.079368 0
10.990000 -0.075139 0
10.995000 -0.069393 0
11.000000 -0.061666 0
11.005000 -0.051455 0
11.010000 -0.038266 0
11.015000 -0.021679 0
11.020000 -0.001429 0
11.025000 0.022501 0
11.030000 0.049802 0
11.035000 0.079772 0
11.040000 0.111303 0
11.045000 0.142909 0
11.050000 0.172829 0
11.055000 0.199173 0
11.060000 0.220117 0
11.065000 0.234113 0
11.070000 0.240073 1
11.075000 0.237511 0
11.080000 0.226610 0
11.085000 0.208194 0
11.090000 0.183631 0
11.095000 0.154659 0
11.100000 0.123174 0
11.105000 0.090978 0
11.110000 0.059458 0
11.115000 0.029093 0
11.120000 -0.001258 0
11.125000 -0.034913 0
11.130000 -0.076686 0
11.135000 -0.129575 0
11.140000 -0.189183 0
11.145000 -0.239386 0
11.150000 -0.253525 2
11.155000 -0.201131 0
11.160000 -0.056373 0
11.165000 0.191778 0
11.170000 0.523177 0
11.175000 0.870058 0
11.180000 1.124891 0
11.185000 1.188348 3
11.190000 1.028901 0
11.195000 0.706342 0
11.200000 0.331738 0
11.205000 0.004684 0
11.210000 -0.219695 0
11.215000 -0.328137 0
11.220000 -0.335674 4
11.225000 -0.275294 0
11.230000 -0.186654 0
11.235000 -0.101911 0
11.240000 -0.036525 0
11.245000 0.009316 0
11.250000 0.042651 0
11.255000 0.070624 0
11.260000 0.097633 0
11.265000 0.125556 0
11.270000 0.154834 0
11.275000 0.185271 0
11.280000 0.216401 0
11.285000 0.247629 0
11.290000 0.278277 0
11.295000 0.307614 0
11.300000 0.334886 0
11.305000 0.359346 0
11.310000 0.380287 0
11.315000 0.397076 0
11.320000 0.409184 0
11.325000 0.416212 0
11.330000 0.417917 5
11.335000 0.414217 0
11.340000 0.405203 0
11.345000 0.391132 0
11.350000 0.372414 0
11.355000 0.349590 0
11.360000 0.323310 0
11.365000 0.294297 0
11.370000 0.263316 0
11.375000 0.231139 0
11.380000 0.198517 0
11.385000 0.166146 0
11.390000 0.134649 0
11.395000 0.104556 0
11.400000 0.076296 0
11.405000 0.050190 0
11.410000 0.026454 0
11.415000 0.005205 0
11.420000 -0.013530 0
11.425000 -0.029798 0
11.430000 -0.043711 0
11.435000 -0.055425 0
11.440000 -0.065129 0
11.445000 -0.073032 0
11.450000 -0.079348 0
11.455000 -0.084293 0
11.460000 -0.088069 0
11.465000 -0.090867 0
11.470000 -0.092858 0
11.475000 -0.094191 0
11.480000 -0.093642 0
11.485000 -0.092777 0
11.490000 -0.091916 0
11.495000 -0.091059 0
11.500000 -0.090206 0
11.505000 -0.089357 0
11.510000 -0.088512 0
11.515000 -0.087670 0
11.520000 -0.086829 0
11.525000 -0.085988 0
11.530000 -0.085139 0
11.535000 -0.084276 0
11.540000 -0.083382 0
11.545000 -0.082431 0
11.550000 -0.081379 0
11.555000 -0.080158 0
11.560000 -0.078666 0
11.565000 -0.076751 0
11.570000 -0.074203 0
11.575000 -0.070739 0
11.580000 -0.065999 0
11.585000 -0.059548 0
11.590000 -0.050891 0
11.595000 -0.039514 0
11.600000 -0.024936 0
11.605000 -0.006785 0
11.610000 0.015107 0
11.615000 0.040618 0
11.620000 0.069255 0
11.625000 0.100107 0
11.630000 0.131854 0
11.635000 0.162829 0
11.640000 0.191149 0
11.645000 0.214898 0
11.650000 0.232336 0
11.655000 0.242111 0
11.660000 0.243429 1
11.665000 0.236164 0
11.670000 0.220871 0
11.675000 0.198720 0
11.680000 0.171344 0
11.685000 0.140635 0
11.690000 0.108502 0
11.695000 0.076574 0
11.700000 0.045773 0
11.705000 0.015653 0
11.710000 -0.016324 0
11.715000 -0.054735 0
11.720000 -0.103847 0
11.725000 -0.162413 0
11.730000 -0.218185 0
11.735000 -0.246940 2
11.740000 -0.217958 0
11.745000 -0.102563 0
11.750000 0.116303 0
11.755000 0.429203 0
11.760000 0.781295 0
11.765000 1.070762 0
11.770000 1.188056 3
11.775000 1.080580 0
11.780000 0.788270 0
11.785000 0.415858 0
11.790000 0.070385 0
11.795000 -0.181447 0
11.800000 -0.317470 0
11.805000 -0.346938 4
11.810000 -0.299370 0
11.815000 -0.214088 0
11.820000 -0.126265 0
11.825000 -0.055682 0
11.830000 -0.005602 0
11.835000 0.030054 0
11.840000 0.058832 0
11.845000 0.085850 0
11.850000 0.113500 0
11.855000 0.142479 0
11.860000 0.172698 0
11.865000 0.203737 0
11.870000 0.235026 0
11.875000 0.265905 0
11.880000 0.295652 0
11.885000 0.323516 0
11.890000 0.348746 0
11.895000 0.370622 0
11.900000 0.388489 0
11.905000 0.401791 0
11.910000 0.410096 0
11.915000 0.413120 5
11.920000 0.410744 0
11.925000 0.403015 0
11.930000 0.390153 0
11.935000 0.372531 0
11.940000 0.350662 0
11.945000 0.325173 0
11.950000 0.296771 0
11.955000 0.266215 0
11.960000 0.234280 0
11.965000 0.201722 0
11.970000 0.169254 0
11.975000 0.137518 0
11.980000 0.107068 0
11.985000 0.078358 0
11.990000 0.051734 0
11.995000 0.027439 0
12.000000 0.005611 0
12.005000 -0.013702 0
12.010000 -0.030531 0
12.015000 -0.044972 0
12.020000 -0.057174 0
12.025000 -0.067318 0
12.030000 -0.075610 0
12.035000 -0.082265 0
12.040000 -0.087497 0
12.045000 -0.091513 0
12.050000 -0.094507 0
12.055000 -0.096655 0
12.060000 -0.098112 0
12.065000 -0.098754 0
12.070000 -0.097863 0
12.075000 -0.096976 0
12.080000 -0.096094 0
12.085000 -0.095217 0
12.090000 -0.094343 0
12.095000 -0.093473 0
12.100000 -0.092607 0
12.105000 -0.091742 0
12.110000 -0.090877 0
12.115000 -0.090008 0
12.120000 -0.089126 0
12.125000 -0.088218 0
12.130000 -0.087261 0
12.135000 -0.086215 0
12.140000 -0.085019 0
12.145000 -0.083581 0
12.150000 -0.081760 0
12.155000 -0.079362 0
12.160000 -0.076123 0
12.165000 -0.071700 0
12.170000 -0.065674 0
12.175000 -0.057565 0
12.180000 -0.046856 0
12.185000 -0.033053 0
12.190000 -0.015750 0
12.195000 0.005277 0
12.200000 0.029984 0
12.205000 0.057969 0
12.210000 0.088423 0
12.215000 0.120119 0
12.220000 0.151462 0
12.225000 0.180605 0
12.230000 0.205621 0
12.235000 0.224709 0
12.240000 0.236407 0
12.245000 0.239778 1
12.250000 0.234532 0
12.255000 0.221067 0
12.260000 0.200419 0
12.265000 0.174129 0
12.270000 0.144050 0
12.275000 0.112110 0
12.280000 0.080035 0
12.285000 0.048965 0
12.290000 0.018846 0
12.295000 -0.012322 0
12.300000 -0.048740 0
12.305000 -0.095123 0
12.310000 -0.152079 0
12.315000 -0.210268 0
12.320000 -0.247999 2
12.325000 -0.235338 0
12.330000 -0.142340 0
12.335000 0.051831 0
12.340000 0.345692 0
12.345000 0.696326 0
12.350000 1.011045 0
12.355000 1.176491 3
12.360000 1.119821 0
12.365000 0.859887 0
12.370000 0.494420 0
12.375000 0.137095 0
12.380000 -0.134548 0
12.385000 -0.290390 0
12.390000 -0.335324 4
12.395000 -0.296849 0
12.400000 -0.214490 0
12.405000 -0.125605 0
12.410000 -0.052686 0
12.415000 -0.000740 0
12.420000 0.035862 0
12.425000 0.064925 0
12.430000 0.091924 0
12.435000 0.119470 0
12.440000 0.148350 0
12.445000 0.178497 0
12.450000 0.209490 0
12.455000 0.240749 0
12.460000 0.271598 0
12.465000 0.301302 0
12.470000 0.329092 0
12.475000 0.354198 0
12.480000 0.375887 0
12.485000 0.393492 0
12.490000 0.406452 0
12.495000 0.414332 0
12.500000 0.416857 5
12.505000 0.413918 0
12.510000 0.405582 0
12.515000 0.392090 0
12.520000 0.373844 0
12.525000 0.351385 0
12.530000 0.325368 0
12.535000 0.296526 0
12.540000 0.265640 0
12.545000 0.233502 0
12.550000 0.200878 0
12.555000 0.168485 0
12.560000 0.136962 0
12.565000 0.106853 0
12.570000 0.078596 0
12.575000 0.052520 0
12.580000 0.028843 0
12.585000 0.007683 0
12.590000 -0.010936 0
12.595000 -0.027067 0
12.600000 -0.040826 0
12.605000 -0.052377 0
12.610000 -0.061914 0
12.615000 -0.069652 0
12.620000 -0.075812 0
12.625000 -0.080612 0
12.630000 -0.084257 0
12.635000 -0.086941 0
12.640000 -0.088833 0
12.645000 -0.090086 0
12.650000 -0.089541 0
12.655000 -0.088696 0
12.660000 -0.087856 0
12.665000 -0.087019 0
12.670000 -0.086186 0
12.675000 -0.085358 0
12.680000 -0.084532 0
12.685000 -0.083709 0
12.690000 -0.082887 0
12.695000 -0.082063 0
12.700000 -0.081230 0
12.705000 -0.080377 0
12.710000 -0.079486 0
12.715000 -0.078524 0
12.720000 -0.077440 0
12.725000 -0.076154 0
12.730000 -0.074542 0
12.735000 -0.072430 0
12.740000 -0.069576 0
12.745000 -0.065659 0
12.750000 -0.060278 0
12.755000 -0.052960 0
12.760000 -0.043185 0
12.765000 -0.030434 0
12.770000 -0.014253 0
12.775000 0.005652 0
12.780000 0.029325 0
12.785000 0.056465 0
12.790000 0.086358 0
12.795000 0.117856 0
12.800000 0.149411 0
12.805000 0.179183 0
12.810000 0.205202 0
12.815000 0.225579 0
12.820000 0.238736 0
12.825000 0.243600 1
12.830000 0.239752 0
12.835000 0.227483 0
12.840000 0.207758 0
12.845000 0.182089 0
12.850000 0.152342 0
12.855000 0.120492 0
12.860000 0.088343 0
12.865000 0.057138 0
12.870000 0.026958 0
12.875000 -0.004073 0
12.880000 -0.040125 0
12.885000 -0.086073 0
12.890000 -0.142815 0
12.895000 -0.201164 0
12.900000 -0.239165 2
12.905000 -0.226262 0
12.910000 -0.131868 0
12.915000 0.065066 0
12.920000 0.362109 0
12.925000 0.713413 0
12.930000 1.022160 0
12.935000 1.173246 3
12.940000 1.098374 0
12.945000 0.824648 0
12.950000 0.455434 0
12.955000 0.104284 0
12.960000 -0.155157 0
12.965000 -0.296986 0
12.970000 -0.329447 4
12.975000 -0.282661 0
12.980000 -0.197363 0
12.985000 -0.109939 0
12.990000 -0.040422 0
12.995000 0.008415 0
13.000000 0.043167 0
13.005000 0.071531 0
13.010000 0.098500 0
13.015000 0.126281 0
13.020000 0.155440 0
13.025000 0.185806 0
13.030000 0.216910 0
13.035000 0.248136 0
13.040000 0.278780 0
13.045000 0.308086 0
13.050000 0.335267 0
13.055000 0.359550 0
13.060000 0.380202 0
13.065000 0.396573 0
13.070000 0.408124 0
13.075000 0.414458 0
13.080000 0.415344 5
13.085000 0.410725 0
13.090000 0.400724 0
13.095000 0.385639 0
13.100000 0.365927 0
13.105000 0.342179 0
13.110000 0.315092 0
13.115000 0.285431 0
13.120000 0.253997 0
13.125000 0.221590 0
13.130000 0.188971 0
13.135000 0.156842 0
13.140000 0.125816 0
13.145000 0.096404 0
13.150000 0.069006 0
13.155000 0.043910 0
13.160000 0.021294 0
13.165000 0.001234 0
13.170000 -0.016280 0
13.175000 -0.031332 0
13.180000 -0.044064 0
13.185000 -0.054659 0
13.190000 -0.063325 0
13.195000 -0.070285 0
13.200000 -0.075762 0
13.205000 -0.079973 0
13.210000 -0.083121 0
13.215000 -0.085389 0
13.220000 -0.086943 0
13.225000 -0.087660 0
13.230000 -0.086825 0
13.235000 -0.085993 0
13.240000 -0.085166 0
13.245000 -0.084343 0
13.250000 -0.083523 0
13.255000 -0.082708 0
13.260000 -0.081895 0
13.265000 -0.081083 0
13.270000 -0.080271 0
13.275000 -0.079452 0
13.280000 -0.078619 0
13.285000 -0.077756 0
13.290000 -0.076835 0
13.295000 -0.075813 0
13.300000 -0.074618 0
13.305000 -0.073144 0
13.310000 -0.071233 0
13.315000 -0.068661 0
13.320000 -0.065131 0
13.325000 -0.060261 0
13.330000 -0.053591 0
13.335000 -0.044603 0
13.340000 -0.032762 0
13.345000 -0.017582 0
13.350000 0.001292 0
13.355000 0.023983 0
13.360000 0.050285 0
13.365000 0.079583 0
13.370000 0.110821 0
13.375000 0.142516 0
13.380000 0.172853 0
13.385000 0.199844 0
13.390000 0.221534 0
13.395000 0.236235 0
13.400000 0.242742 1
13.405000 0.240494 0
13.410000 0.229654 0
13.415000 0.211089 0
13.420000 0.186253 0
13.425000 0.156999 0
13.430000 0.125333 0
13.435000 0.093132 0
13.440000 0.061767 0
13.445000 0.031511 0
13.450000 0.000736 0
13.455000 -0.034561 0
13.460000 -0.079416 0
13.465000 -0.135396 0
13.470000 -0.194265 0
13.475000 -0.234704 2
13.480000 -0.226053 0
13.485000 -0.136974 0
13.490000 0.054749 0
13.495000 0.348221 0
13.500000 0.698984 0
13.505000 1.010189 0
13.510000 1.164741 3
13.515000 1.095535 0
13.520000 0.828033 0
13.525000 0.460870 0
13.530000 0.105394 0
13.535000 -0.163552 0
13.540000 -0.317349 0
13.545000 -0.361286 4
13.550000 -0.322608 0
13.555000 -0.240264 0
13.560000 -0.151130 0
13.565000 -0.077618 0
13.570000 -0.024979 0
13.575000 0.012165 0
13.580000 0.041537 0
13.585000 0.068666 0
13.590000 0.096250 0
13.595000 0.125140 0
13.600000 0.155306 0
13.605000 0.186352 0
13.610000 0.217715 0
13.615000 0.248738 0
13.620000 0.278700 0
13.625000 0.306847 0
13.630000 0.332419 0
13.635000 0.354689 0
13.640000 0.372990 0
13.645000 0.386752 0
13.650000 0.395528 0
13.655000 0.399022 5
13.660000 0.397099 0
13.665000 0.389797 0
13.670000 0.377323 0
13.675000 0.360045 0
13.680000 0.338471 0
13.685000 0.313226 0
13.690000 0.285019 0
13.695000 0.254613 0
13.700000 0.222786 0
13.705000 0.190303 0
13.710000 0.157882 0
13.715000 0.126175 0
13.720000 0.095742 0
13.725000 0.067042 0
13.730000 0.040428 0
13.735000 0.016145 0
13.740000 -0.005664 0
13.745000 -0.024950 0
13.750000 -0.041744 0
13.755000 -0.056142 0
13.760000 -0.068292 0
13.765000 -0.078378 0
13.770000 -0.086606 0
13.775000 -0.093194 0
13.780000 -0.098356 0
13.785000 -0.102301 0
13.790000 -0.105224 0
13.795000 -0.107302 0
13.800000 -0.108690 0
13.805000 -0.109267 0
13.810000 -0.108324 0
13.815000 -0.107385 0
13.820000 -0.106451 0
13.825000 -0.105522 0
13.830000 -0.104597 0
13.835000 -0.103676 0
13.840000 -0.102759 0
13.845000 -0.101843 0
13.850000 -0.100928 0
13.855000 -0.100007 0
13.860000 -0.099074 0
13.865000 -0.098114 0
13.870000 -0.097102 0
13.875000 -0.095997 0
13.880000 -0.094737 0
13.885000 -0.093223 0
13.890000 -0.091311 0
13.895000 -0.088800 0
13.900000 -0.085416 0
13.905000 -0.080807 0
13.910000 -0.074545 0
13.915000 -0.066138 0
13.920000 -0.055069 0
13.925000 -0.040843 0
13.930000 -0.023070 0
13.935000 -0.001549 0
13.940000 0.023636 0
13.945000 0.052034 0
13.950000 0.082774 0
13.955000 0.114570 0
13.960000 0.145775 0
13.965000 0.174506 0
13.970000 0.198828 0
13.975000 0.216963 0
13.980000 0.227508 0
13.985000 0.229608 1
13.990000 0.223079 0
13.995000 0.208427 0
14.000000 0.186788 0
14.005000 0.159779 0
14.010000 0.129295 0
14.015000 0.097265 0
14.020000 0.065357 0
14.025000 0.034554 0
14.030000 0.004504 0
14.035000 -0.027233 0
14.040000 -0.065196 0
14.045000 -0.113784 0
14.050000 -0.172079 0
14.055000 -0.228208 0
14.060000 -0.258125 2
14.065000 -0.230973 0
14.070000 -0.117714 0
14.075000 0.099218 0
14.080000 0.410994 0
14.085000 0.763186 0
14.090000 1.053712 0
14.095000 1.172110 3
14.100000 1.067371 0
14.105000 0.778539 0
14.110000 0.407039 0
14.115000 0.058248 0
14.120000 -0.200467 0
14.125000 -0.345143 0
14.130000 -0.382941 4
14.135000 -0.341273 0
14.140000 -0.258117 0
14.145000 -0.168952 0
14.150000 -0.095266 0
14.155000 -0.042167 0
14.160000 -0.004534 0
14.165000 0.025149 0
14.170000 0.052386 0
14.175000 0.079949 0
14.180000 0.108767 0
14.185000 0.138864 0
14.190000 0.169885 0
14.195000 0.201300 0
14.200000 0.232484 0
14.205000 0.262749 0
14.210000 0.291368 0
14.215000 0.317606 0
14.220000 0.340746 0
14.225000 0.360129 0
14.230000 0.375177 0
14.235000 0.385425 0
14.240000 0.390543 5
14.245000 0.390353 0
14.250000 0.384840 0
14.255000 0.374153 0
14.260000 0.358595 0
14.265000 0.338613 0
14.270000 0.314773 0
14.275000 0.287732 0
14.280000 0.258213 0
14.285000 0.226967 0
14.290000 0.194743 0
14.295000 0.162261 0
14.300000 0.130184 0
14.305000 0.099101 0
14.310000 0.069505 0
14.315000 0.041793 0
14.320000 0.016258 0
14.325000 -0.006909 0
14.330000 -0.027610 0
14.335000 -0.045830 0
14.340000 -0.061627 0
14.345000 -0.075116 0
14.350000 -0.086453 0
14.355000 -0.095826 0
14.360000 -0.103440 0
14.365000 -0.109505 0
14.370000 -0.114229 0
14.375000 -0.117810 0
14.380000 -0.120432 0
14.385000 -0.122261 0
14.390000 -0.123445 0
14.395000 -0.122749 0
14.400000 -0.121739 0
14.405000 -0.120733 0
14.410000 -0.119733 0
14.415000 -0.118737 0
14.420000 -0.117746 0
14.425000 -0.116759 0
14.430000 -0.115777 0
14.435000 -0.114796 0
14.440000 -0.113816 0
14.445000 -0.112831 0
14.450000 -0.111833 0
14.455000 -0.110809 0
14.460000 -0.109734 0
14.465000 -0.108569 0
14.470000 -0.107255 0
14.475000 -0.105697 0
14.480000 -0.103759 0
14.485000 -0.101251 0
14.490000 -0.097915 0
14.495000 -0.093418 0
14.500000 -0.087354 0
14.505000 -0.079255 0
14.510000 -0.068621 0
14.515000 -0.054964 0
14.520000 -0.037882 0
14.525000 -0.017135 0
14.530000 0.007264 0
14.535000 0.034966 0
14.540000 0.065236 0
14.545000 0.096931 0
14.550000 0.128546 0
14.555000 0.158311 0
14.560000 0.184349 0
14.565000 0.204862 0
14.570000 0.218344 0
14.575000 0.223758 1
14.580000 0.220669 0
14.585000 0.209306 0
14.590000 0.190528 0
14.595000 0.165725 0
14.600000 0.136637 0
14.605000 0.105151 0
14.610000 0.073042 0
14.615000 0.041658 0
14.620000 0.011414 0
14.625000 -0.018908 0
14.630000 -0.052691 0
14.635000 -0.094728 0
14.640000 -0.147853 0
14.645000 -0.207396 0
14.650000 -0.257020 0
14.655000 -0.270068 2
14.660000 -0.216281 0
14.665000 -0.070149 0
14.670000 0.179019 0
14.675000 0.510849 0
14.680000 0.857744 0
14.685000 1.112818 0
14.690000 1.177331 3
14.695000 1.020625 0
14.700000 0.700797 0
14.705000 0.326115 0
14.710000 -0.004783 0
14.715000 -0.235838 0
14.720000 -0.352097 0
14.725000 -0.366695 4
14.730000 -0.310815 0
14.735000 -0.223227 0
14.740000 -0.136739 0
14.745000 -0.068482 0
14.750000 -0.020148 0
14.755000 0.014678 0
14.760000 0.043255 0
14.765000 0.070351 0
14.770000 0.098151 0
14.775000 0.127274 0
14.780000 0.157608 0
14.785000 0.188738 0
14.790000 0.220104 0
14.795000 0.251059 0
14.800000 0.280899 0
14.805000 0.308890 0
14.810000 0.334298 0
14.815000 0.356418 0
14.820000 0.374606 0
14.825000 0.388313 0
14.830000 0.397108 0
14.835000 0.400701 5
14.840000 0.398959 0
14.845000 0.391913 0
14.850000 0.379757 0
14.855000 0.362838 0
14.860000 0.341641 0
14.865000 0.316761 0
14.870000 0.288881 0
14.875000 0.258735 0
14.880000 0.227080 0
14.885000 0.194661 0
14.890000 0.162185 0
14.895000 0.130298 0
14.900000 0.099561 0
14.905000 0.070442 0
14.910000 0.043309 0
14.915000 0.018422 0
14.920000 -0.004054 0
14.925000 -0.024048 0
14.930000 -0.041569 0
14.935000 -0.056694 0
14.940000 -0.069551 0
14.945000 -0.080309 0
14.950000 -0.089162 0
14.955000 -0.096318 0
14.960000 -0.101989 0
14.965000 -0.106380 0
14.970000 -0.109686 0
14.975000 -0.112086 0
14.980000 -0.113740 0
14.985000 -0.114791 0
14.990000 -0.114113 0
14.995000 -0.113145 0
15.000000 -0.112182 0
15.005000 -0.111225 0
15.010000 -0.110271 0
15.015000 -0.109322 0
15.020000 -0.108378 0
15.025000 -0.107436 0
15.030000 -0.106496 0
15.035000 -0.105554 0
15.040000 -0.104606 0
15.045000 -0.103640 0
15.050000 -0.102641 0
15.055000 -0.101581 0
15.060000 -0.100413 0
15.065000 -0.099067 0
15.070000 -0.097436 0
15.075000 -0.095367 0
15.080000 -0.092647 0
15.085000 -0.088991 0
15.090000 -0.084041 0
15.095000 -0.077366 0
15.100000 -0.068482 0
15.105000 -0.056885 0
15.110000 -0.042107 0
15.115000 -0.023792 0
15.120000 -0.001778 0
15.125000 0.023811 0
15.130000 0.052493 0
15.135000 0.083385 0
15.140000 0.115206 0
15.145000 0.146337 0
15.150000 0.174945 0
15.155000 0.199152 0
15.160000 0.217240 0
15.165000 0.227848 0
15.170000 0.230146 1
15.175000 0.223936 0
15.180000 0.209688 0
15.185000 0.188474 0
15.190000 0.161840 0
15.195000 0.131610 0
15.200000 0.099667 0
15.205000 0.067676 0
15.210000 0.036708 0
15.215000 0.006657 0
15.220000 -0.024491 0
15.225000 -0.060867 0
15.230000 -0.107089 0
15.235000 -0.163827 0
15.240000 -0.222201 0
15.245000 -0.261361 2
15.250000 -0.252235 0
15.255000 -0.165323 0
15.260000 0.020674 0
15.265000 0.306695 0
15.270000 0.655160 0
15.275000 0.979815 0
15.280000 1.169250 3
15.285000 1.145795 0
15.290000 0.914828 0
15.295000 0.560417 0
15.300000 0.192752 0
15.305000 -0.104622 0
15.310000 -0.292789 0
15.315000 -0.368757 4
15.320000 -0.353231 0
15.325000 -0.281368 0
15.330000 -0.191089 0
15.335000 -0.110027 0
15.340000 -0.049198 0
15.345000 -0.006470 0
15.350000 0.025472 0
15.355000 0.053150 0
15.360000 0.080335 0
15.365000 0.108554 0
15.370000 0.138107 0
15.375000 0.168751 0
15.380000 0.200018 0
15.385000 0.231320 0
15.390000 0.261993 0
15.395000 0.291326 0
15.400000 0.318588 0
15.405000 0.343053 0
15.410000 0.364038 0
15.415000 0.380930 0
15.420000 0.393214 0
15.425000 0.400502 0
15.430000 0.402552 5
15.435000 0.399278 0
15.440000 0.390758 0
15.445000 0.377227 0
15.450000 0.359072 0
15.455000 0.336805 0
15.460000 0.311046 0
15.465000 0.282487 0
15.470000 0.251869 0
15.475000 0.219941 0
15.480000 0.187437 0
15.485000 0.155046 0
15.490000 0.123389 0
15.495000 0.093003 0
15.500000 0.064327 0
15.505000 0.037701 0
15.510000 0.013361 0
15.515000 -0.008552 0
15.520000 -0.027987 0
15.525000 -0.044969 0
15.530000 -0.059586 0
15.535000 -0.071977 0
15.540000 -0.082317 0
15.545000 -0.090800 0
15.550000 -0.097636 0
15.555000 -0.103033 0
15.560000 -0.107195 0
15.565000 -0.110312 0
15.570000 -0.112558 0
15.575000 -0.114089 0
15.580000 -0.114762 0
15.585000 -0.113792 0
15.590000 -0.112826 0
15.595000 -0.111865 0
15.600000 -0.110908 0
15.605000 -0.109957 0
15.610000 -0.109009 0
15.615000 -0.108066 0
15.620000 -0.107125 0
15.625000 -0.106186 0
15.630000 -0.105245 0
15.635000 -0.104295 0
15.640000 -0.103327 0
15.645000 -0.102323 0
15.650000 -0.101252 0
15.655000 -0.100067 0
15.660000 -0.098692 0
15.665000 -0.097018 0
15.670000 -0.094885 0
15.675000 -0.092073 0
15.680000 -0.088292 0
15.685000 -0.083178 0
15.690000 -0.076296 0
15.695000 -0.067160 0
15.700000 -0.055271 0
15.705000 -0.040174 0
15.710000 -0.021526 0
15.715000 0.000808 0
15.720000 0.026678 0
15.725000 0.055573 0
15.730000 0.086584 0
15.735000 0.118409 0
15.740000 0.149421 0
15.745000 0.177789 0
15.750000 0.201653 0
15.755000 0.219325 0
15.760000 0.229479 0
15.765000 0.231323 1
15.770000 0.224699 0
15.775000 0.210101 0
15.780000 0.188622 0
15.785000 0.161809 0
15.790000 0.131484 0
15.795000 0.099511 0
15.800000 0.067534 0
15.805000 0.036592 0
15.810000 0.006544 0
15.815000 -0.024653 0
15.820000 -0.061135 0
15.825000 -0.107471 0
15.830000 -0.164263 0
15.835000 -0.222621 0
15.840000 -0.261807 2
15.845000 -0.252949 0
15.850000 -0.166732 0
15.855000 0.018098 0
15.860000 0.302811 0
15.865000 0.650785 0
15.870000 0.977158 0
15.875000 1.171255 3
15.880000 1.155117 0
15.885000 0.931408 0
15.890000 0.580452 0
15.895000 0.210763 0
15.900000 -0.093145 0
15.905000 -0.290196 0
15.910000 -0.375239 4
15.915000 -0.366989 0
15.920000 -0.299084 0
15.925000 -0.209155 0
15.930000 -0.125999 0
15.935000 -0.062404 0
15.940000 -0.017522 0
15.945000 0.015576 0
15.950000 0.043628 0
15.955000 0.070766 0
15.960000 0.098782 0
15.965000 0.128118 0
15.970000 0.158604 0
15.975000 0.189809 0
15.980000 0.221175 0
15.985000 0.252064 0
15.990000 0.281784 0
15.995000 0.309620 0
16.000000 0.334856 0
16.005000 0.356807 0
16.010000 0.374849 0
16.015000 0.388451 0
16.020000 0.397195 0
16.025000 0.400800 5
16.030000 0.399137 0
16.035000 0.392233 0
16.040000 0.380275 0
16.045000 0.363595 0
16.050000 0.342659 0
16.055000 0.318043 0
16.060000 0.290407 0
16.065000 0.260464 0
16.070000 0.228951 0
16.075000 0.196599 0
16.080000 0.164103 0
16.085000 0.132102 0
16.090000 0.101158 0
16.095000 0.071742 0
16.100000 0.044230 0
16.105000 0.018895 0
16.110000 -0.004083 0
16.115000 -0.024616 0
16.120000 -0.042698 0
16.125000 -0.058388 0
16.130000 -0.071801 0
16.135000 -0.083092 0
16.140000 -0.092446 0
16.145000 -0.100062 0
16.150000 -0.106147 0
16.155000 -0.110904 0
16.160000 -0.114526 0
16.165000 -0.117196 0
16.170000 -0.119074 0
16.175000 -0.120307 0
16.180000 -0.120771 0
16.185000 -0.119770 0
16.190000 -0.118774 0
16.195000 -0.117784 0
16.200000 -0.116798 0
16.205000 -0.115817 0
16.210000 -0.114840 0
16.215000 -0.113867 0
16.220000 -0.112896 0
16.225000 -0.111926 0
16.230000 -0.110953 0
16.235000 -0.109969 0
16.240000 -0.108962 0
16.245000 -0.107911 0
16.250000 -0.106782 0
16.255000 -0.105520 0
16.260000 -0.104044 0
16.265000 -0.102232 0
16.270000 -0.099912 0
16.275000 -0.096851 0
16.280000 -0.092745 0
16.285000 -0.087217 0
16.290000 -0.079827 0
16.295000 -0.070090 0
16.300000 -0.057520 0
16.305000 -0.041686 0
16.310000 -0.022290 0
16.315000 0.000757 0
16.320000 0.027242 0
16.325000 0.056595 0
16.330000 0.087856 0
16.335000 0.119688 0
16.340000 0.150452 0
16.345000 0.178336 0
16.350000 0.201523 0
16.355000 0.218388 0
16.360000 0.227686 0
16.365000 0.228700 1
16.370000 0.221338 0
16.375000 0.206146 0
16.380000 0.184237 0
16.385000 0.157159 0
16.390000 0.126712 0
16.395000 0.094722 0
16.400000 0.062786 0
16.405000 0.031898 0
16.410000 0.001876 0
16.415000 -0.029324 0
16.420000 -0.065784 0
16.425000 -0.111999 0
16.430000 -0.168630 0
16.435000 -0.227150 0
16.440000 -0.267465 2
16.445000 -0.261366 0
16.450000 -0.179895 0
16.455000 -0.001493 0
16.460000 0.276815 0
16.465000 0.622302 0
16.470000 0.955108 0
16.475000 1.166709 0
16.480000 1.173338 3
16.485000 0.966462 0
16.490000 0.621656 0
16.495000 0.250190 0
16.500000 -0.058525 0
16.505000 -0.259994 0
16.510000 -0.347728 4
16.515000 -0.340449 0
16.520000 -0.272575 0
16.525000 -0.182718 0
16.530000 -0.100194 0
16.535000 -0.037642 0
16.540000 0.006238 0
16.545000 0.038674 0
16.550000 0.066426 0
16.555000 0.093503 0
16.560000 0.121565 0
16.565000 0.150969 0
16.570000 0.181493 0
16.575000 0.212672 0
16.580000 0.243915 0
16.585000 0.274557 0
16.590000 0.303882 0
16.595000 0.331150 0
16.600000 0.355630 0
16.605000 0.376630 0
16.610000 0.393529 0
16.615000 0.405806 0
16.620000 0.413068 0
16.625000 0.415068 5
16.630000 0.411720 0
16.635000 0.403101 0
16.640000 0.389453 0
16.645000 0.371164 0
16.650000 0.348756 0
16.655000 0.322853 0
16.660000 0.294159 0
16.665000 0.263419 0
16.670000 0.231391 0
16.675000 0.198814 0
16.680000 0.166381 0
16.685000 0.134714 0
16.690000 0.104351 0
16.695000 0.075730 0
16.700000 0.049186 0
16.705000 0.024952 0
16.710000 0.003162 0
16.715000 -0.016138 0
16.720000 -0.032978 0
16.725000 -0.047454 0
16.730000 -0.059708 0
16.735000 -0.069918 0
16.740000 -0.078286 0
16.745000 -0.085020 0
16.750000 -0.090332 0
16.755000 -0.094426 0
16.760000 -0.097492 0
16.765000 -0.099704 0
16.770000 -0.101216 0
16.775000 -0.101895 0
16.780000 -0.100988 0
16.785000 -0.100086 0
16.790000 -0.099189 0
16.795000 -0.098296 0
16.800000 -0.097407 0
16.805000 -0.096522 0
16.810000 -0.095640 0
16.815000 -0.094761 0
16.820000 -0.093883 0
16.825000 -0.093001 0
16.830000 -0.092109 0
16.835000 -0.091196 0
16.840000 -0.090241 0
16.845000 -0.089210 0
16.850000 -0.088052 0
16.855000 -0.086683 0
16.860000 -0.084983 0
16.865000 -0.082778 0
16.870000 -0.079832 0
16.875000 -0.075835 0
16.880000 -0.070402 0
16.885000 -0.063080 0
16.890000 -0.053370 0
16.895000 -0.040774 0
16.900000 -0.024853 0
16.905000 -0.005308 0
16.910000 0.017935 0
16.915000 0.044631 0
16.920000 0.074160 0
16.925000 0.105493 0
16.930000 0.137214 0
16.935000 0.167609 0
16.940000 0.194802 0
16.945000 0.216946 0
16.950000 0.232424 0
16.955000 0.240046 1
16.960000 0.239201 0
16.965000 0.229934 0
16.970000 0.212945 0
16.975000 0.189502 0
16.980000 0.161279 0
16.985000 0.130156 0
16.990000 0.097972 0
16.995000 0.066231 0
17.000000 0.035651 0
17.005000 0.005496 0
17.010000 -0.027080 0
17.015000 -0.066740 0
17.020000 -0.117283 0
17.025000 -0.176381 0
17.030000 -0.230586 0
17.035000 -0.255132 2
17.040000 -0.219731 0
17.045000 -0.096858 0
17.050000 0.128871 0
17.055000 0.445892 0
17.060000 0.797713 0
17.065000 1.083038 0
17.070000 1.195265 3
17.075000 1.081777 0
17.080000 0.784341 0
17.085000 0.411017 0
17.090000 0.069689 0
17.095000 -0.174406 0
17.100000 -0.301294 0
17.105000 -0.322422 4
17.110000 -0.269315 0
17.115000 -0.182347 0
17.120000 -0.096065 0
17.125000 -0.028430 0
17.130000 0.018998 0
17.135000 0.053048 0
17.140000 0.081179 0
17.145000 0.108112 0
17.150000 0.135904 0
17.155000 0.165066 0
17.160000 0.195415 0
17.165000 0.226481 0
17.170000 0.257659 0
17.175000 0.288257 0
17.180000 0.317529 0
17.185000 0.344704 0
17.190000 0.369021 0
17.195000 0.389758 0
17.200000 0.406271 0
17.205000 0.418028 0
17.210000 0.424630 0
17.215000 0.425839 5
17.220000 0.421588 0
17.225000 0.411984 0
17.230000 0.397308 0
17.235000 0.377994 0
17.240000 0.354612 0
17.245000 0.327835 0
17.250000 0.298413 0
17.255000 0.267129 0
17.260000 0.234771 0
17.265000 0.202096 0
17.270000 0.169804 0
17.275000 0.138513 0
17.280000 0.108743 0
17.285000 0.080908 0
17.290000 0.055311 0
17.295000 0.032146 0
17.300000 0.011510 0
17.305000 -0.006593 0
17.310000 -0.022229 0
17.315000 -0.035527 0
17.320000 -0.046659 0
17.325000 -0.055824 0
17.330000 -0.063239 0
17.335000 -0.069124 0
17.340000 -0.073696 0
17.345000 -0.077157 0
17.350000 -0.079695 0
17.355000 -0.081476 0
17.360000 -0.082648 0
17.365000 -0.082123 0
17.370000 -0.081315 0
17.375000 -0.080511 0
17.380000 -0.079711 0
17.385000 -0.078915 0
17.390000 -0.078122 0
17.395000 -0.077333 0
17.400000 -0.076545 0
17.405000 -0.075758 0
17.410000 -0.074967 0
17.415000 -0.074165 0
17.420000 -0.073341 0
17.425000 -0.072473 0
17.430000 -0.071525 0
17.435000 -0.070441 0
17.440000 -0.069133 0
17.445000 -0.067470 0
17.450000 -0.065263 0
17.455000 -0.062256 0
17.460000 -0.058113 0
17.465000 -0.052416 0
17.470000 -0.044683 0
17.475000 -0.034389 0
17.480000 -0.021022 0
17.485000 -0.004154 0
17.490000 0.016468 0
17.495000 0.040826 0
17.500000 0.068542 0
17.505000 0.098820 0
17.510000 0.130429 0
17.515000 0.161758 0
17.520000 0.190927 0
17.525000 0.215968 0
17.530000 0.235038 0
17.535000 0.246641 0
17.540000 0.249824 1
17.545000 0.244301 0
17.550000 0.230496 0
17.555000 0.209490 0
17.560000 0.182875 0
17.565000 0.152554 0
17.570000 0.120491 0
17.575000 0.088418 0
17.580000 0.057415 0
17.585000 0.027260 0
17.590000 -0.004352 0
17.595000 -0.041919 0
17.600000 -0.090021 0
17.605000 -0.148145 0
17.610000 -0.204807 0
17.615000 -0.236020 2
17.620000 -0.210581 0
17.625000 -0.098909 0
17.630000 0.117062 0
17.635000 0.428641 0
17.640000 0.780663 0
17.645000 1.069434 0
17.650000 1.183360 3
17.655000 1.070294 0
17.660000 0.773251 0
17.665000 0.400039 0
17.670000 0.058459 0
17.675000 -0.186153 0
17.680000 -0.313666 0
17.685000 -0.335360 4
17.690000 -0.282606 0
17.695000 -0.195697 0
17.700000 -0.109232 0
17.705000 -0.041313 0
17.710000 0.006370 0
17.715000 0.040593 0
17.720000 0.068823 0
17.725000 0.095813 0
17.730000 0.123646 0
17.735000 0.152846 0
17.740000 0.183237 0
17.745000 0.214354 0
17.750000 0.245593 0
17.755000 0.276266 0
17.760000 0.305629 0
17.765000 0.332912 0
17.770000 0.357354 0
17.775000 0.378234 0
17.780000 0.394907 0
17.785000 0.406838 0
17.790000 0.413627 0
17.795000 0.415031 5
17.800000 0.410979 0
17.805000 0.401574 0
17.810000 0.387090 0
17.815000 0.367957 0
17.820000 0.344741 0
17.825000 0.318112 0
17.830000 0.288815 0
17.835000 0.257632 0
17.840000 0.225350 0
17.845000 0.192726 0
17.850000 0.160462 0
17.855000 0.129177 0
17.860000 0.099395 0
17.865000 0.071533 0
17.870000 0.045897 0
17.875000 0.022685 0
17.880000 0.001997 0
17.885000 -0.016157 0
17.890000 -0.031844 0
17.895000 -0.045189 0
17.900000 -0.056360 0
17.905000 -0.065558 0
17.910000 -0.072997 0
17.915000 -0.078899 0
17.920000 -0.083478 0
17.925000 -0.086938 0
17.930000 -0.089467 0
17.935000 -0.091234 0
17.940000 -0.092384 0
17.945000 -0.091815 0
17.950000 -0.090959 0
17.955000 -0.090107 0
17.960000 -0.089259 0
17.965000 -0.088415 0
17.970000 -0.087575 0
17.975000 -0.086738 0
17.980000 -0.085904 0
17.985000 -0.085070 0
17.990000 -0.084233 0
17.995000 -0.083387 0
18.000000 -0.082519 0
18.005000 -0.081608 0
18.010000 -0.080622 0
18.015000 -0.079504 0
18.020000 -0.078169 0
18.025000 -0.076490 0
18.030000 -0.074282 0
18.035000 -0.071294 0
18.040000 -0.067196 0
18.045000 -0.061578 0
18.050000 -0.053960 0
18.055000 -0.043821 0
18.060000 -0.030646 0
18.065000 -0.014000 0
18.070000 0.006386 0
18.075000 0.030518 0
18.080000 0.058047 0
18.085000 0.088210 0
18.090000 0.119811 0
18.095000 0.151267 0
18.100000 0.180717 0
18.105000 0.206195 0
18.110000 0.225844 0
18.115000 0.238134 0
18.120000 0.242065 1
18.125000 0.237294 0
18.130000 0.224187 0
18.135000 0.203771 0
18.140000 0.177602 0
18.145000 0.147559 0
18.150000 0.115612 0
18.155000 0.083522 0
18.160000 0.052447 0
18.165000 0.022313 0
18.170000 -0.008971 0
18.175000 -0.045738 0
18.180000 -0.092728 0
18.185000 -0.150166 0
18.190000 -0.207775 0
18.195000 -0.242649 2
18.200000 -0.223960 0
18.205000 -0.121625 0
18.210000 0.084035 0
18.215000 0.387833 0
18.220000 0.739885 0
18.225000 1.040415 0
18.230000 1.175829 3
18.235000 1.085945 0
18.240000 0.804177 0
18.245000 0.433605 0
18.250000 0.084076 0
18.255000 -0.173960 0
18.260000 -0.315836 0
18.265000 -0.349591 4
18.270000 -0.304344 0
18.275000 -0.219702 0
18.280000 -0.131590 0
18.285000 -0.060517 0
18.290000 -0.010110 0
18.295000 0.025685 0
18.300000 0.054508 0
18.305000 0.081548 0
18.310000 0.109227 0
18.315000 0.138246 0
18.320000 0.168506 0
18.325000 0.199582 0
18.330000 0.230894 0
18.335000 0.261771 0
18.340000 0.291484 0
18.345000 0.319271 0
18.350000 0.344374 0
18.355000 0.366066 0
18.360000 0.383691 0
18.365000 0.396692 0
18.370000 0.404643 0
18.375000 0.407268 5
18.380000 0.404459 0
18.385000 0.396281 0
18.390000 0.382968 0
18.395000 0.364914 0
18.400000 0.342650 0
18.405000 0.316818 0
18.410000 0.288145 0
18.415000 0.257399 0
18.420000 0.225363 0
18.425000 0.192800 0
18.430000 0.160420 0
18.435000 0.128862 0
18.440000 0.098672 0
18.445000 0.070292 0
18.450000 0.044056 0
18.455000 0.020191 0
18.460000 -0.001179 0
18.465000 -0.020020 0
18.470000 -0.036377 0
18.475000 -0.050359 0
18.480000 -0.062123 0
18.485000 -0.071858 0
18.490000 -0.079775 0
18.495000 -0.086091 0
18.500000 -0.091024 0
18.505000 -0.094779 0
18.510000 -0.097549 0
18.515000 -0.099506 0
18.520000 -0.100803 0
18.525000 -0.100220 0
18.530000 -0.099322 0
18.535000 -0.098428 0
18.540000 -0.097539 0
18.545000 -0.096654 0
18.550000 -0.095773 0
18.555000 -0.094896 0
18.560000 -0.094022 0
18.565000 -0.093149 0
18.570000 -0.092276 0
18.575000 -0.091395 0
18.580000 -0.090499 0
18.585000 -0.089570 0
18.590000 -0.088581 0
18.595000 -0.087485 0
18.600000 -0.086212 0
18.605000 -0.084653 0
18.610000 -0.082650 0
18.615000 -0.079982 0
18.620000 -0.076354 0
18.625000 -0.071392 0
18.630000 -0.064648 0
18.635000 -0.055616 0
18.640000 -0.043777 0
18.645000 -0.028654 0
18.650000 -0.009897 0
18.655000 0.012626 0
18.660000 0.038735 0
18.665000 0.067863 0
18.670000 0.099015 0
18.675000 0.130787 0
18.680000 0.161441 0
18.685000 0.189052 0
18.690000 0.211698 0
18.695000 0.227683 0
18.700000 0.235743 1
18.705000 0.235212 0
18.710000 0.226114 0
18.715000 0.209159 0
18.720000 0.185653 0
18.725000 0.157330 0
18.730000 0.126132 0
18.735000 0.093949 0
18.740000 0.062297 0
18.745000 0.031823 0
18.750000 0.001578 0
18.755000 -0.031634 0
18.760000 -0.072723 0
18.765000 -0.125050 0
18.770000 -0.184611 0
18.775000 -0.235264 0
18.780000 -0.249737 2
18.785000 -0.196657 0
18.790000 -0.049508 0
18.795000 0.202485 0
18.800000 0.536845 0
18.805000 0.880989 0
18.810000 1.122865 0
18.815000 1.164154 3
18.820000 0.981949 0
18.825000 0.646531 0
18.830000 0.273614 0
18.835000 -0.039912 0
18.840000 -0.244775 0
18.845000 -0.333108 4
18.850000 -0.324395 0
18.855000 -0.254898 0
18.860000 -0.164897 0
18.865000 -0.084037 0
18.870000 -0.023978 0
18.875000 0.017776 0
18.880000 0.049013 0
18.885000 0.076394 0
18.890000 0.103585 0
18.895000 0.131950 0
18.900000 0.161672 0
18.905000 0.192429 0
18.910000 0.223688 0
18.915000 0.254802 0
18.920000 0.285051 0
18.925000 0.313671 0
18.930000 0.339885 0
18.935000 0.362939 0
18.940000 0.382134 0
18.945000 0.396863 0
18.950000 0.406641 0
18.955000 0.411130 5
18.960000 0.410160 0
18.965000 0.403737 0
18.970000 0.392041 0
18.975000 0.375420 0
18.980000 0.354374 0
18.985000 0.329523 0
18.990000 0.301582 0
18.995000 0.271324 0
19.000000 0.239543 0
19.005000 0.207022 0
19.010000 0.174501 0
19.015000 0.142650 0
19.020000 0.112049 0
19.025000 0.083174 0
19.030000 0.056391 0
19.035000 0.031954 0
19.040000 0.010013 0
19.045000 -0.009381 0
19.050000 -0.026256 0
19.055000 -0.040712 0
19.060000 -0.052899 0
19.065000 -0.063007 0
19.070000 -0.071245 0
19.075000 -0.077835 0
19.080000 -0.082997 0
19.085000 -0.086943 0
19.090000 -0.089869 0
19.095000 -0.091956 0
19.100000 -0.093360 0
19.105000 -0.093968 0
19.110000 -0.093101 0
19.115000 -0.092238 0
19.120000 -0.091380 0
19.125000 -0.090526 0
19.130000 -0.089675 0
19.135000 -0.088829 0
19.140000 -0.087985 0
19.145000 -0.087143 0
19.150000 -0.086299 0
19.155000 -0.085449 0
19.160000 -0.084583 0
19.165000 -0.083684 0
19.170000 -0.082724 0
19.175000 -0.081657 0
19.180000 -0.080411 0
19.185000 -0.078873 0
19.190000 -0.076882 0
19.195000 -0.074212 0
19.200000 -0.070561 0
19.205000 -0.065544 0
19.210000 -0.058702 0
19.215000 -0.049520 0
19.220000 -0.037469 0
19.225000 -0.022073 0
19.230000 -0.002991 0
19.235000 0.019886 0
19.240000 0.046337 0
19.245000 0.075740 0
19.250000 0.107034 0
19.255000 0.138743 0
19.260000 0.169067 0
19.265000 0.196036 0
19.270000 0.217719 0
19.275000 0.232447 0
19.280000 0.239028 1
19.285000 0.236903 0
19.290000 0.226224 0
19.295000 0.207838 0
19.300000 0.183173 0
19.305000 0.154053 0
19.310000 0.122464 0
19.315000 0.090273 0
19.320000 0.058870 0
19.325000 0.028598 0
19.330000 -0.002030 0
19.335000 -0.036841 0
19.340000 -0.080857 0
19.345000 -0.136091 0
19.350000 -0.195334 0
19.355000 -0.238518 2
19.360000 -0.235807 0
19.365000 -0.155855 0
19.370000 0.024710 0
19.375000 0.308295 0
19.380000 0.656559 0
19.385000 0.978933 0
19.390000 1.158679 3
19.395000 1.118512 0
19.400000 0.871292 0
19.405000 0.509933 0
19.410000 0.148241 0
19.415000 -0.132906 0
19.420000 -0.299836 0
19.425000 -0.354735 4
19.430000 -0.323077 0
19.435000 -0.243392 0
19.440000 -0.153669 0
19.445000 -0.078216 0
19.450000 -0.023793 0
19.455000 0.014391 0
19.460000 0.044150 0
19.465000 0.071305 0
19.470000 0.098780 0
19.475000 0.127540 0
19.480000 0.157600 0
19.485000 0.188578 0
19.490000 0.219917 0
19.495000 0.250962 0
19.500000 0.280990 0
19.505000 0.309244 0
19.510000 0.334959 0
19.515000 0.357399 0
19.520000 0.375890 0
19.525000 0.389853 0
19.530000 0.398832 0
19.535000 0.402521 5
19.540000 0.400779 0
19.545000 0.393636 0
19.550000 0.381297 0
19.555000 0.364125 0
19.560000 0.342629 0
19.565000 0.317436 0
19.570000 0.289257 0
19.575000 0.258858 0
19.580000 0.227024 0
19.585000 0.194523 0
19.590000 0.162081 0
19.595000 0.130351 0
19.600000 0.099898 0
19.605000 0.071185 0
19.610000 0.044566 0
19.615000 0.020287 0
19.620000 -0.001511 0
19.625000 -0.020777 0
19.630000 -0.037544 0
19.635000 -0.051912 0
19.640000 -0.064028 0
19.645000 -0.074080 0
19.650000 -0.082275 0
19.655000 -0.088830 0
19.660000 -0.093965 0
19.665000 -0.097887 0
19.670000 -0.100791 0
19.675000 -0.102854 0
19.680000 -0.104234 0
19.685000 -0.104811 0
19.690000 -0.103890 0
19.695000 -0.102973 0
19.700000 -0.102062 0
19.705000 -0.101154 0
19.710000 -0.100251 0
19.715000 -0.099351 0
19.720000 -0.098455 0
19.725000 -0.097561 0
19.730000 -0.096667 0
19.735000 -0.095766 0
19.740000 -0.094852 0
19.745000 -0.093909 0
19.750000 -0.092910 0
19.755000 -0.091814 0
19.760000 -0.090554 0
19.765000 -0.089026 0
19.770000 -0.087081 0
19.775000 -0.084508 0
19.780000 -0.081023 0
19.785000 -0.076263 0
19.790000 -0.069790 0
19.795000 -0.061102 0
19.800000 -0.049678 0
19.805000 -0.035031 0
19.810000 -0.016785 0
19.815000 0.005228 0
19.820000 0.030878 0
19.825000 0.059654 0
19.830000 0.090621 0
19.835000 0.122424 0
19.840000 0.153363 0
19.845000 0.181522 0
19.850000 0.204965 0
19.855000 0.221947 0
19.860000 0.231135 0
19.865000 0.231774 1
19.870000 0.223795 0
19.875000 0.207821 0
19.880000 0.185093 0
19.885000 0.157302 0
19.890000 0.126380 0
19.895000 0.094246 0
19.900000 0.062486 0
19.905000 0.031894 0
19.910000 0.001765 0
19.915000 -0.030818 0
19.920000 -0.070668 0
19.925000 -0.121623 0
19.930000 -0.180890 0
19.935000 -0.233850 0
19.940000 -0.254229 2
19.945000 -0.210620 0
19.950000 -0.075405 0
19.955000 0.164803 0
19.960000 0.492399 0
19.965000 0.840680 0
19.970000 1.099921 0
19.975000 1.166580 3
19.980000 1.011380 0
19.985000 0.693051 0
19.990000 0.318408 0
19.995000 -0.014431 0
20.000000 -0.248937 0
20.005000 -0.369284 0
20.010000 -0.387631 4
20.015000 -0.334217 0
20.020000 -0.247302 0
20.025000 -0.159970 0
20.030000 -0.090197 0
20.035000 -0.040484 0
20.040000 -0.004788 0
20.045000 0.024177 0
20.050000 0.051366 0
20.055000 0.079134 0
20.060000 0.108197 0
20.065000 0.138495 0
20.070000 0.169637 0
20.075000 0.201084 0
20.080000 0.232204 0
20.085000 0.262310 0
20.090000 0.290677 0
20.095000 0.316579 0
20.100000 0.339312 0
20.105000 0.358231 0
20.110000 0.372775 0
20.115000 0.382497 0
20.120000 0.387088 5
20.125000 0.386387 0
20.130000 0.380395 0
20.135000 0.369276 0
20.140000 0.353343 0
20.145000 0.333049 0
20.150000 0.308963 0
20.155000 0.281744 0
20.160000 0.252109 0
20.165000 0.220802 0
20.170000 0.188567 0
20.175000 0.156112 0
20.180000 0.124093 0
20.185000 0.093085 0
20.190000 0.063577 0
20.195000 0.035956 0
20.200000 0.010509 0
20.205000 -0.012577 0
20.210000 -0.033208 0
20.215000 -0.051369 0
20.220000 -0.067120 0
20.225000 -0.080574 0
20.230000 -0.091887 0
20.235000 -0.101244 0
20.240000 -0.108849 0
20.245000 -0.114908 0
20.250000 -0.119630 0
20.255000 -0.123210 0
20.260000 -0.125831 0
20.265000 -0.127658 0
20.270000 -0.128837 0
20.275000 -0.128118 0
20.280000 -0.127081 0
20.285000 -0.126049 0
20.290000 -0.125022 0
20.295000 -0.124000 0
20.300000 -0.122983 0
20.305000 -0.121970 0
20.310000 -0.120961 0
20.315000 -0.119955 0
20.320000 -0.118950 0
20.325000 -0.117940 0
20.330000 -0.116919 0
20.335000 -0.115874 0
20.340000 -0.114781 0
20.345000 -0.113605 0
20.350000 -0.112287 0
20.355000 -0.110741 0
20.360000 -0.108836 0
20.365000 -0.106392 0
20.370000 -0.103162 0
20.375000 -0.098827 0
20.380000 -0.092994 0
20.385000 -0.085209 0
20.390000 -0.074976 0
20.395000 -0.061809 0
20.400000 -0.045289 0
20.405000 -0.025146 0
20.410000 -0.001345 0
20.415000 0.025830 0
20.420000 0.055723 0
20.425000 0.087274 0
20.430000 0.119053 0
20.435000 0.149350 0
20.440000 0.176308 0
20.445000 0.198118 0
20.450000 0.213209 0
20.455000 0.220444 1
20.460000 0.219256 0
20.465000 0.209724 0
20.470000 0.192567 0
20.475000 0.169051 0
20.480000 0.140838 0
20.485000 0.109782 0
20.490000 0.077696 0
20.495000 0.046057 0
20.500000 0.015572 0
20.505000 -0.014471 0
20.510000 -0.046852 0
20.515000 -0.086150 0
20.520000 -0.136203 0
20.525000 -0.195029 0
20.530000 -0.249874 0
20.535000 -0.276765 2
20.540000 -0.245921 0
20.545000 -0.129784 0
20.550000 0.088060 0
20.555000 0.398966 0
20.560000 0.751429 0
20.565000 1.048574 0
20.570000 1.183010 3
20.575000 1.098036 0
20.580000 0.823524 0
20.585000 0.455396 0
20.590000 0.099367 0
20.595000 -0.173127 0
20.600000 -0.333706 0
20.605000 -0.385942 4
20.610000 -0.354358 0
20.615000 -0.275380 0
20.620000 -0.185195 0
20.625000 -0.107791 0
20.630000 -0.050870 0
20.635000 -0.010699 0
20.640000 0.020119 0
20.645000 0.047568 0
20.650000 0.074913 0
20.655000 0.103391 0
20.660000 0.133178 0
20.665000 0.163991 0
20.670000 0.195345 0
20.675000 0.226648 0
20.680000 0.257239 0
20.685000 0.286415 0
20.690000 0.313452 0
20.695000 0.337641 0
20.700000 0.358312 0
20.705000 0.374868 0
20.710000 0.386814 0
20.715000 0.393778 0
20.720000 0.395530 5
20.725000 0.391996 0
20.730000 0.383263 0
20.735000 0.369571 0
20.740000 0.351304 0
20.745000 0.328974 0
20.750000 0.303191 0
20.755000 0.274642 0
20.760000 0.244055 0
20.765000 0.212169 0
20.770000 0.179708 0
20.775000 0.147350 0
20.780000 0.115710 0
20.785000 0.085318 0
20.790000 0.056611 0
20.795000 0.029927 0
20.800000 0.005504 0
20.805000 -0.016515 0
20.810000 -0.036074 0
20.815000 -0.053193 0
20.820000 -0.067956 0
20.825000 -0.080495 0
20.830000 -0.090979 0
20.835000 -0.099601 0
20.840000 -0.106564 0
20.845000 -0.112075 0
20.850000 -0.116335 0
20.855000 -0.119534 0
20.860000 -0.121846 0
20.865000 -0.123427 0
20.870000 -0.124415 0
20.875000 -0.123687 0
20.880000 -0.122672 0
20.885000 -0.121662 0
20.890000 -0.120657 0
20.895000 -0.119656 0
20.900000 -0.118661 0
20.905000 -0.117669 0
20.910000 -0.116681 0
20.915000 -0.115695 0
20.920000 -0.114708 0
20.925000 -0.113716 0
20.930000 -0.112708 0
20.935000 -0.111669 0
20.940000 -0.110574 0
20.945000 -0.109380 0
20.950000 -0.108022 0
20.955000 -0.106402 0
20.960000 -0.104377 0
20.965000 -0.101749 0
20.970000 -0.098253 0
20.975000 -0.093554 0
20.980000 -0.087242 0
20.985000 -0.078852 0
20.990000 -0.067891 0
20.995000 -0.053888 0
21.000000 -0.036461 0
21.005000 -0.015393 0
21.010000 0.009275 0
21.015000 0.037177 0
21.020000 0.067561 0
21.025000 0.099286 0
21.030000 0.130859 0
21.035000 0.160539 0
21.040000 0.186480 0
21.045000 0.206925 0
21.050000 0.220399 0
21.055000 0.225883 1
21.060000 0.222947 0
21.065000 0.211802 0
21.070000 0.193275 0
21.075000 0.168713 0
21.080000 0.139813 0
21.085000 0.108422 0
21.090000 0.076301 0
21.095000 0.044817 0
21.100000 0.014484 0
21.105000 -0.015705 0
21.110000 -0.048848 0
21.115000 -0.089608 0
21.120000 -0.141289 0
21.125000 -0.200627 0
21.130000 -0.253313 0
21.135000 -0.274398 2
21.140000 -0.234205 0
21.145000 -0.106287 0
21.150000 0.123495 0
21.155000 0.442517 0
21.160000 0.794323 0
21.165000 1.079449 0
21.170000 1.193699 3
21.175000 1.086226 0
21.180000 0.795414 0
21.185000 0.423438 0
21.190000 0.075621 0
21.195000 -0.181233 0
21.200000 -0.323771 0
21.205000 -0.359663 4
21.210000 -0.316734 0
21.215000 -0.233170 0
21.220000 -0.144324 0
21.225000 -0.071309 0
21.230000 -0.018864 0
21.235000 0.018313 0
21.240000 0.047740 0
21.245000 0.074849 0
21.250000 0.102340 0
21.255000 0.131101 0
21.260000 0.161135 0
21.265000 0.192077 0
21.270000 0.223391 0
21.275000 0.254447 0
21.280000 0.284553 0
21.285000 0.312977 0
21.290000 0.338983 0
21.295000 0.361856 0
21.300000 0.380935 0
21.305000 0.395646 0
21.310000 0.405530 0
21.315000 0.410262 5
21.320000 0.409675 0
21.325000 0.403761 0
21.330000 0.392679 0
21.335000 0.376743 0
21.340000 0.356408 0
21.345000 0.332247 0
21.350000 0.304927 0
21.355000 0.275174 0
21.360000 0.243743 0
21.365000 0.211383 0
21.370000 0.178814 0
21.375000 0.146697 0
21.380000 0.115614 0
21.385000 0.086055 0
21.390000 0.058409 0
21.395000 0.032962 0
21.400000 0.009897 0
21.405000 -0.010692 0
21.410000 -0.028800 0
21.415000 -0.044488 0
21.420000 -0.057876 0
21.425000 -0.069124 0
21.430000 -0.078423 0
21.435000 -0.085977 0
21.440000 -0.092000 0
21.445000 -0.096697 0
21.450000 -0.100268 0
21.455000 -0.102895 0
21.460000 -0.104743 0
21.465000 -0.105958 0
21.470000 -0.105341 0
21.475000 -0.104418 0
21.480000 -0.103498 0
21.485000 -0.102584 0
21.490000 -0.101674 0
21.495000 -0.100768 0
21.500000 -0.099866 0
21.505000 -0.098967 0
21.510000 -0.098070 0
21.515000 -0.097172 0
21.520000 -0.096268 0
21.525000 -0.095351 0
21.530000 -0.094403 0
21.535000 -0.093401 0
21.540000 -0.092303 0
21.545000 -0.091044 0
21.550000 -0.089527 0
21.555000 -0.087608 0
21.560000 -0.085089 0
21.565000 -0.081700 0
21.570000 -0.077099 0
21.575000 -0.070870 0
21.580000 -0.062535 0
21.585000 -0.051593 0
21.590000 -0.037561 0
21.595000 -0.020053 0
21.600000 0.001142 0
21.605000 0.025966 0
21.610000 0.054019 0
21.615000 0.084503 0
21.620000 0.116215 0
21.625000 0.147599 0
21.630000 0.176852 0
21.635000 0.202091 0
21.640000 0.221544 0
21.645000 0.233762 0
21.650000 0.237789 1
21.655000 0.233293 0
21.660000 0.220607 0
21.665000 0.200687 0
21.670000 0.174994 0
21.675000 0.145316 0
21.680000 0.113542 0
21.685000 0.081410 0
21.690000 0.050155 0
21.695000 0.019971 0
21.700000 -0.010711 0
21.705000 -0.045643 0
21.710000 -0.089614 0
21.715000 -0.144574 0
21.720000 -0.203966 0
21.725000 -0.249280 0
21.730000 -0.252538 2
21.735000 -0.183632 0
21.740000 -0.018798 0
21.745000 0.248383 0
21.750000 0.589602 0
21.755000 0.927933 0
21.760000 1.153046 0
21.765000 1.174792 3
21.770000 0.980110 0
21.775000 0.641236 0
21.780000 0.268198 0
21.785000 -0.047504 0
21.790000 -0.258348 0
21.795000 -0.355359 4
21.800000 -0.355353 0
21.805000 -0.291457 0
21.810000 -0.202163 0
21.815000 -0.117945 0
21.820000 -0.053068 0
21.825000 -0.007369 0
21.830000 0.026052 0
21.835000 0.054144 0
21.840000 0.081220 0
21.845000 0.109160 0
21.850000 0.138432 0
21.855000 0.168867 0
21.860000 0.200027 0
21.865000 0.231341 0
21.870000 0.262159 0
21.875000 0.291776 0
21.880000 0.319461 0
21.885000 0.344486 0
21.890000 0.366156 0
21.895000 0.383841 0
21.900000 0.397007 0
21.905000 0.405239 0
21.910000 0.408266 5
21.915000 0.405970 0
21.920000 0.398400 0
21.925000 0.385762 0
21.930000 0.368415 0
21.935000 0.346850 0
21.940000 0.321668 0
21.945000 0.293551 0
21.950000 0.263234 0
21.955000 0.231467 0
21.960000 0.198989 0
21.965000 0.166501 0
21.970000 0.134637 0
21.975000 0.103950 0
21.980000 0.074902 0
21.985000 0.047848 0
21.990000 0.023045 0
21.995000 0.000650 0
22.000000 -0.019269 0
22.005000 -0.036724 0
22.010000 -0.051793 0
22.015000 -0.064607 0
22.020000 -0.075334 0
22.025000 -0.084168 0
22.030000 -0.091315 0
22.035000 -0.096985 0
22.040000 -0.101383 0
22.045000 -0.104702 0
22.050000 -0.107120 0
22.055000 -0.108795 0
22.060000 -0.109869 0
22.065000 -0.109215 0
22.070000 -0.108272 0
22.075000 -0.107334 0
22.080000 -0.106400 0
22.085000 -0.105471 0
22.090000 -0.104546 0
22.095000 -0.103625 0
22.100000 -0.102707 0
22.105000 -0.101790 0
22.110000 -0.100872 0
22.115000 -0.099948 0
22.120000 -0.099007 0
22.125000 -0.098033 0
22.130000 -0.096999 0
22.135000 -0.095860 0
22.140000 -0.094548 0
22.145000 -0.092959 0
22.150000 -0.090942 0
22.155000 -0.088290 0
22.160000 -0.084725 0
22.165000 -0.079895 0
22.170000 -0.073376 0
22.175000 -0.064690 0
22.180000 -0.053337 0
22.185000 -0.038846 0
22.190000 -0.020851 0
22.195000 0.000826 0
22.200000 0.026090 0
22.205000 0.054497 0
22.210000 0.085206 0
22.215000 0.116979 0
22.220000 0.148236 0
22.225000 0.177170 0
22.230000 0.201912 0
22.235000 0.220727 0
22.240000 0.232215 0
22.245000 0.235484 1
22.250000 0.230261 0
22.255000 0.216934 0
22.260000 0.196501 0
22.265000 0.170448 0
22.270000 0.140563 0
22.275000 0.108724 0
22.280000 0.076634 0
22.285000 0.045469 0
22.290000 0.015335 0
22.295000 -0.015451 0
22.300000 -0.050724 0
22.305000 -0.095217 0
22.310000 -0.150590 0
22.315000 -0.209836 0
22.320000 -0.254081 0
22.325000 -0.255304 2
22.330000 -0.183677 0
22.335000 -0.015941 0
22.340000 0.253589 0
22.345000 0.595738 0
22.350000 0.933109 0
22.355000 1.155903 0
22.360000 1.175284 3
22.365000 0.978967 0
22.370000 0.639215 0
22.375000 0.266383 0
22.380000 -0.048230 0
22.385000 -0.257528 0
22.390000 -0.352941 4
22.395000 -0.351629 0
22.400000 -0.286987 0
22.405000 -0.197571 0
22.410000 -0.113671 0
22.415000 -0.049253 0
22.420000 -0.003927 0
22.425000 0.029285 0
22.430000 0.057299 0
22.435000 0.084370 0
22.440000 0.112332 0
22.445000 0.141630 0
22.450000 0.172082 0
22.455000 0.203245 0
22.460000 0.234543 0
22.465000 0.265321 0
22.470000 0.294872 0
22.475000 0.322463 0
22.480000 0.347364 0
22.485000 0.368881 0
22.490000 0.386386 0
22.495000 0.399346 0
22.500000 0.407352 0
22.505000 0.410137 5
22.510000 0.407593 0
22.515000 0.399773 0
22.520000 0.386893 0
22.525000 0.369318 0
22.530000 0.347547 0
22.535000 0.322188 0
22.540000 0.293928 0
22.545000 0.263504 0
22.550000 0.231669 0
22.555000 0.199162 0
22.560000 0.166683 0
22.565000 0.134863 0
22.570000 0.104253 0
22.575000 0.075307 0
22.580000 0.048377 0
22.585000 0.023713 0
22.590000 0.001468 0
22.595000 -0.018297 0
22.600000 -0.035599 0
22.605000 -0.050520 0
22.610000 -0.063193 0
22.615000 -0.073789 0
22.620000 -0.082505 0
22.625000 -0.089547 0
22.630000 -0.095125 0
22.635000 -0.099445 0
22.640000 -0.102699 0
22.645000 -0.105063 0
22.650000 -0.106697 0
22.655000 -0.107738 0
22.660000 -0.107089 0
22.665000 -0.106156 0
22.670000 -0.105228 0
22.675000 -0.104305 0
22.680000 -0.103386 0
22.685000 -0.102472 0
22.690000 -0.101561 0
22.695000 -0.100653 0
22.700000 -0.099746 0
22.705000 -0.098838 0
22.710000 -0.097922 0
22.715000 -0.096988 0
22.720000 -0.096020 0
22.725000 -0.094987 0
22.730000 -0.093844 0
22.735000 -0.092519 0
22.740000 -0.090903 0
22.745000 -0.088840 0
22.750000 -0.086115 0
22.755000 -0.082442 0
22.760000 -0.077461 0
22.765000 -0.070739 0
22.770000 -0.061792 0
22.775000 -0.050119 0
22.780000 -0.035256 0
22.785000 -0.016855 0
22.790000 0.005239 0
22.795000 0.030892 0
22.800000 0.059613 0
22.805000 0.090514 0
22.810000 0.122306 0
22.815000 0.153373 0
22.820000 0.181884 0
22.825000 0.205972 0
22.830000 0.223929 0
22.835000 0.234406 0
22.840000 0.236583 1
22.845000 0.230271 0
22.850000 0.215942 0
22.855000 0.194669 0
22.860000 0.167992 0
22.865000 0.137730 0
22.870000 0.105758 0
22.875000 0.073734 0
22.880000 0.042730 0
22.885000 0.012648 0
22.890000 -0.018500 0
22.895000 -0.054816 0
22.900000 -0.100913 0
22.905000 -0.157554 0
22.910000 -0.216074 0
22.915000 -0.255898 2
22.920000 -0.248157 0
22.925000 -0.163384 0
22.930000 0.019942 0
22.935000 0.303489 0
22.940000 0.651109 0
22.945000 0.978178 0
22.950000 1.173712 3
22.955000 1.155864 0
22.960000 0.924848 0
22.965000 0.568813 0
22.970000 0.203201 0
22.975000 -0.086513 0
22.980000 -0.262766 0
22.985000 -0.325456 4
22.990000 -0.298845 0
22.995000 -0.221230 0
23.000000 -0.131383 0
23.005000 -0.054895 0
23.010000 0.000481 0
23.015000 0.039165 0
23.020000 0.069034 0
23.025000 0.096094 0
23.030000 0.123401 0
23.035000 0.151985 0
23.040000 0.181882 0
23.045000 0.212716 0
23.050000 0.243930 0
23.055000 0.274864 0
23.060000 0.304792 0
23.065000 0.332950 0
23.070000 0.358568 0
23.075000 0.380903 0
23.080000 0.399276 0
23.085000 0.413103 0
23.090000 0.421925 0
23.095000 0.425436 5
23.100000 0.423493 0
23.105000 0.416133 0
23.110000 0.403561 0
23.115000 0.386150 0
23.120000 0.364416 0
23.125000 0.338992 0
23.130000 0.310599 0
23.135000 0.280010 0
23.140000 0.248015 0
23.145000 0.215388 0
23.150000 0.182855 0
23.155000 0.151073 0
23.160000 0.120604 0
23.165000 0.091907 0
23.170000 0.065333 0
23.175000 0.041121 0
23.180000 0.019408 0
23.185000 0.000236 0
23.190000 -0.016433 0
23.195000 -0.030703 0
23.200000 -0.042730 0
23.205000 -0.052703 0
23.210000 -0.060832 0
23.215000 -0.067339 0
23.220000 -0.072441 0
23.225000 -0.076348 0
23.230000 -0.079254 0
23.235000 -0.081336 0
23.240000 -0.082748 0
23.245000 -0.082259 0
23.250000 -0.081450 0
23.255000 -0.080646 0
23.260000 -0.079845 0
23.265000 -0.079048 0
23.270000 -0.078255 0
23.275000 -0.077465 0
23.280000 -0.076678 0
23.285000 -0.075892 0
23.290000 -0.075104 0
23.295000 -0.074309 0
23.300000 -0.073498 0
23.305000 -0.072653 0
23.310000 -0.071745 0
23.315000 -0.070730 0
23.320000 -0.069532 0
23.325000 -0.068041 0
23.330000 -0.066095 0
23.335000 -0.063468 0
23.340000 -0.059858 0
23.345000 -0.054884 0
23.350000 -0.048087 0
23.355000 -0.038956 0
23.360000 -0.026966 0
23.365000 -0.011643 0
23.370000 0.007352 0
23.375000 0.030130 0
23.380000 0.056477 0
23.385000 0.085781 0
23.390000 0.116995 0
23.395000 0.148661 0
23.400000 0.178997 0
23.405000 0.206049 0
23.410000 0.227891 0
23.415000 0.242855 0
23.420000 0.249733 1
23.425000 0.247941 0
23.430000 0.237601 0
23.435000 0.219523 0
23.440000 0.195100 0
23.445000 0.166130 0
23.450000 0.134582 0
23.455000 0.102331 0
23.460000 0.070799 0
23.465000 0.040422 0
23.470000 0.009876 0
23.475000 -0.024482 0
23.480000 -0.067659 0
23.485000 -0.122118 0
23.490000 -0.181672 0
23.495000 -0.227462 0
23.500000 -0.230410 2
23.505000 -0.159118 0
23.510000 0.010858 0
23.515000 0.284781 0
23.520000 0.629605 0
23.525000 0.960409 0
23.530000 1.161289 3
23.535000 1.145824 0
23.540000 0.914799 0
23.545000 0.558142 0
23.550000 0.193567 0
23.555000 -0.092685 0
23.560000 -0.263712 0
23.565000 -0.320714 4
23.570000 -0.289528 0
23.575000 -0.209750 0
23.580000 -0.120354 0
23.585000 -0.045890 0
23.590000 0.007306 0
23.595000 0.044518 0
23.600000 0.073742 0
23.605000 0.100709 0
23.610000 0.128178 0
23.615000 0.156989 0
23.620000 0.187084 0
23.625000 0.218036 0
23.630000 0.249253 0
23.635000 0.280045 0
23.640000 0.309659 0
23.645000 0.337310 0
23.650000 0.362215 0
23.655000 0.383628 0
23.660000 0.400874 0
23.665000 0.413388 0
23.670000 0.420741 0
23.675000 0.422666 5
23.680000 0.419071 0
23.685000 0.410045 0
23.690000 0.395856 0
23.695000 0.376931 0
23.700000 0.353844 0
23.705000 0.327274 0
23.710000 0.297984 0
23.715000 0.266771 0
23.720000 0.234443 0
23.725000 0.201773 0
23.730000 0.169478 0
23.735000 0.138189 0
23.740000 0.108440 0
23.745000 0.080651 0
23.750000 0.055129 0
23.755000 0.032070 0
23.760000 0.011567 0
23.765000 -0.006378 0
23.770000 -0.021838 0
23.775000 -0.034949 0
23.780000 -0.045888 0
23.785000 -0.054861 0
23.790000 -0.062092 0
23.795000 -0.067805 0
23.800000 -0.072218 0
23.805000 -0.075538 0
23.810000 -0.077953 0
23.815000 -0.079629 0
23.820000 -0.080441 0
23.825000 -0.079642 0
23.830000 -0.078846 0
23.835000 -0.078055 0
23.840000 -0.077267 0
23.845000 -0.076483 0
23.850000 -0.075702 0
23.855000 -0.074924 0
23.860000 -0.074148 0
23.865000 -0.073371 0
23.870000 -0.072588 0
23.875000 -0.071792 0
23.880000 -0.070968 0
23.885000 -0.070089 0
23.890000 -0.069114 0
23.895000 -0.067974 0
23.900000 -0.066568 0
23.905000 -0.064740 0
23.910000 -0.062275 0
23.915000 -0.058880 0
23.920000 -0.054179 0
23.925000 -0.047718 0
23.930000 -0.038980 0
23.935000 -0.027426 0
23.940000 -0.012562 0
23.945000 0.005983 0
23.950000 0.028355 0
23.955000 0.054375 0
23.960000 0.083458 0
23.965000 0.114575 0
23.970000 0.146263 0
23.975000 0.176719 0
23.980000 0.203951 0
23.985000 0.225988 0
23.990000 0.241110 0
23.995000 0.248074 1
24.000000 0.246277 0
24.005000 0.235842 0
24.010000 0.217606 0
24.015000 0.193003 0
24.020000 0.163880 0
24.025000 0.132250 0
24.030000 0.100012 0
24.035000 0.068572 0
24.040000 0.038261 0
24.045000 0.007529 0
24.050000 -0.027568 0
24.055000 -0.072105 0
24.060000 -0.127852 0
24.065000 -0.186887 0
24.070000 -0.228128 2
24.075000 -0.220920 0
24.080000 -0.133706 0
24.085000 0.056112 0
24.090000 0.348195 0
24.095000 0.698692 0
24.100000 1.010942 0
24.105000 1.167261 3
24.110000 1.098307 0
24.115000 0.830539 0
24.120000 0.463192 0
24.125000 0.108150 0
24.130000 -0.159675 0
24.135000 -0.311922 0
24.140000 -0.354268 4
24.145000 -0.314395 0
24.150000 -0.231574 0
24.155000 -0.142673 0
24.160000 -0.069782 0
24.165000 -0.017768 0
24.170000 0.018961 0
24.175000 0.048143 0
24.180000 0.075228 0
24.185000 0.102833 0
24.190000 0.131761 0
24.195000 0.161955 0
24.200000 0.193006 0
24.205000 0.224344 0
24.210000 0.255301 0
24.215000 0.285151 0
24.220000 0.313133 0
24.225000 0.338485 0
24.230000 0.360478 0
24.235000 0.378445 0
24.240000 0.391823 0
24.245000 0.400173 0
24.250000 0.403208 5
24.255000 0.400807 0
24.260000 0.393022 0
24.265000 0.380076 0
24.270000 0.362354 0
24.275000 0.340377 0
24.280000 0.314785 0
24.285000 0.286297 0
24.290000 0.255683 0
24.295000 0.223727 0
24.300000 0.191194 0
24.305000 0.158801 0
24.310000 0.127192 0
24.315000 0.096921 0
24.320000 0.068436 0
24.325000 0.042080 0
24.330000 0.018084 0
24.335000 -0.003419 0
24.340000 -0.022391 0
24.345000 -0.038873 0
24.350000 -0.052971 0
24.355000 -0.064838 0
24.360000 -0.074665 0
24.365000 -0.082660 0
24.370000 -0.089041 0
24.375000 -0.094027 0
24.380000 -0.097823 0
24.385000 -0.100624 0
24.390000 -0.102603 0
24.395000 -0.103915 0
24.400000 -0.103320 0
24.405000 -0.102407 0
24.410000 -0.101498 0
24.415000 -0.100593 0
24.420000 -0.099693 0
24.425000 -0.098797 0
24.430000 -0.097905 0
24.435000 -0.097016 0
24.440000 -0.096128 0
24.445000 -0.095240 0
24.450000 -0.094345 0
24.455000 -0.093435 0
24.460000 -0.092494 0
24.465000 -0.091493 0
24.470000 -0.090389 0
24.475000 -0.089111 0
24.480000 -0.087551 0
24.485000 -0.085554 0
24.490000 -0.082900 0
24.495000 -0.079299 0
24.500000 -0.074378 0
24.505000 -0.067689 0
24.510000 -0.058730 0
24.515000 -0.046977 0
24.520000 -0.031953 0
24.525000 -0.013300 0
24.530000 0.009121 0
24.535000 0.035142 0
24.540000 0.064207 0
24.545000 0.095333 0
24.550000 0.127123 0
24.555000 0.157847 0
24.560000 0.185577 0
24.565000 0.208388 0
24.570000 0.224571 0
24.575000 0.232847 1
24.580000 0.232535 0
24.585000 0.223641 0
24.590000 0.206861 0
24.595000 0.183491 0
24.600000 0.155262 0
24.605000 0.124115 0
24.610000 0.091948 0
24.615000 0.060289 0
24.620000 0.029809 0
24.625000 -0.000407 0
24.630000 -0.033522 0
24.635000 -0.074441 0
24.640000 -0.126595 0
24.645000 -0.186123 0
24.650000 -0.237039 0
24.655000 -0.252145 2
24.660000 -0.200018 0
24.665000 -0.053993 0
24.670000 0.196972 0
24.675000 0.530813 0
24.680000 0.875337 0
24.685000 1.118508 0
24.690000 1.161483 3
24.695000 0.981986 0
24.700000 0.649075 0
24.705000 0.275484 0
24.710000 -0.042714 0
24.715000 -0.255085 0
24.720000 -0.351859 4
24.725000 -0.350402 0
24.730000 -0.285072 0
24.735000 -0.195475 0
24.740000 -0.112307 0
24.745000 -0.049155 0
24.750000 -0.004990 0
24.755000 0.027531 0
24.760000 0.055325 0
24.765000 0.082471 0
24.770000 0.110634 0
24.775000 0.140154 0
24.780000 0.170789 0
24.785000 0.202053 0
24.790000 0.233339 0
24.795000 0.263959 0
24.800000 0.293178 0
24.805000 0.320238 0
24.810000 0.344395 0
24.815000 0.364946 0
24.820000 0.381269 0
24.825000 0.392848 0
24.830000 0.399304 0
24.835000 0.400410 5
24.840000 0.396108 0
24.845000 0.386510 0
24.850000 0.371895 0
24.855000 0.352690 0
24.860000 0.329456 0
24.865000 0.302853 0
24.870000 0.273615 0
24.875000 0.242511 0
24.880000 0.210313 0
24.885000 0.177767 0
24.890000 0.145563 0
24.895000 0.114312 0
24.900000 0.084532 0
24.905000 0.056638 0
24.910000 0.030936 0
24.915000 0.007629 0
24.920000 -0.013180 0
24.925000 -0.031475 0
24.930000 -0.047315 0
24.935000 -0.060818 0
24.940000 -0.072146 0
24.945000 -0.081492 0
24.950000 -0.089068 0
24.955000 -0.095089 0
24.960000 -0.099769 0
24.965000 -0.103311 0
24.970000 -0.105900 0
24.975000 -0.107706 0
24.980000 -0.108877 0
24.985000 -0.108241 0
24.990000 -0.107303 0
24.995000 -0.106369 0
25.000000 -0.105440 0
25.005000 -0.104516 0
25.010000 -0.103596 0
25.015000 -0.102680 0
25.020000 -0.101766 0
25.025000 -0.100855 0
25.030000 -0.099942 0
25.035000 -0.099022 0
25.040000 -0.098085 0
25.045000 -0.097113 0
25.050000 -0.096079 0
25.055000 -0.094935 0
25.060000 -0.093608 0
25.065000 -0.091987 0
25.070000 -0.089911 0
25.075000 -0.087157 0
25.080000 -0.083430 0
25.085000 -0.078354 0
25.090000 -0.071481 0
25.095000 -0.062309 0
25.100000 -0.050324 0
25.105000 -0.035056 0
25.110000 -0.016165 0
25.115000 0.006474 0
25.120000 0.032674 0
25.125000 0.061866 0
25.130000 0.093061 0
25.135000 0.124863 0
25.140000 0.155551 0
25.145000 0.183216 0
25.150000 0.205955 0
25.155000 0.222084 0
25.160000 0.230342 1
25.165000 0.230058 0
25.170000 0.221235 0
25.175000 0.204560 0
25.180000 0.181308 0
25.185000 0.153184 0
25.190000 0.122107 0
25.195000 0.089962 0
25.200000 0.058279 0
25.205000 0.027767 0
25.210000 -0.002387 0
25.215000 -0.035196 0
25.220000 -0.075473 0
25.225000 -0.126858 0
25.230000 -0.186215 0
25.235000 -0.238658 0
25.240000 -0.257947 2
25.245000 -0.213003 0
25.250000 -0.076647 0
25.255000 0.164142 0
25.260000 0.491763 0
25.265000 0.840260 0
25.270000 1.101217 0
25.275000 1.171704 3
25.280000 1.017715 0
25.285000 0.697580 0
25.290000 0.323045 0
25.295000 -0.004766 0
25.300000 -0.229659 0
25.305000 -0.338036 0
25.310000 -0.345075 4
25.315000 -0.284159 0
25.320000 -0.195332 0
25.325000 -0.110852 0
25.330000 -0.045969 0
25.335000 -0.000582 0
25.340000 0.032505 0
25.345000 0.060430 0
25.350000 0.087512 0
25.355000 0.115560 0
25.360000 0.144972 0
25.365000 0.175525 0
25.370000 0.206741 0
25.375000 0.238010 0
25.380000 0.268642 0
25.385000 0.297896 0
25.390000 0.325010 0
25.395000 0.349232 0
25.400000 0.369852 0
25.405000 0.386239 0
25.410000 0.397871 0
25.415000 0.404363 0
25.420000 0.405485 5
25.425000 0.401176 0
25.430000 0.391550 0
25.435000 0.376885 0
25.440000 0.357616 0
25.445000 0.334307 0
25.450000 0.307626 0
25.455000 0.278312 0
25.460000 0.247143 0
25.465000 0.214897 0
25.470000 0.182323 0
25.475000 0.150116 0
25.480000 0.118888 0
25.485000 0.089158 0
25.490000 0.061339 0
25.495000 0.035734 0
25.500000 0.012542 0
25.505000 -0.008139 0
25.510000 -0.026297 0
25.515000 -0.041997 0
25.520000 -0.055360 0
25.525000 -0.066554 0
25.530000 -0.075776 0
25.535000 -0.083238 0
25.540000 -0.089158 0
25.545000 -0.093751 0
25.550000 -0.097220 0
25.555000 -0.099752 0
25.560000 -0.101513 0
25.565000 -0.102652 0
25.570000 -0.102038 0
25.575000 -0.101131 0
25.580000 -0.100228 0
25.585000 -0.099330 0
25.590000 -0.098436 0
25.595000 -0.097546 0
25.600000 -0.096660 0
25.605000 -0.095776 0
25.610000 -0.094894 0
25.615000 -0.094009 0
25.620000 -0.093116 0
25.625000 -0.092203 0
25.630000 -0.091253 0
25.635000 -0.090232 0
25.640000 -0.089090 0
25.645000 -0.087747 0
25.650000 -0.086084 0
25.655000 -0.083927 0
25.660000 -0.081038 0
25.665000 -0.077105 0
25.670000 -0.071732 0
25.675000 -0.064455 0
25.680000 -0.054762 0
25.685000 -0.042138 0
25.690000 -0.026129 0
25.695000 -0.006432 0
25.700000 0.017017 0
25.705000 0.043948 0
25.710000 0.073691 0
25.715000 0.105149 0
25.720000 0.136826 0
25.725000 0.166926 0
25.730000 0.193507 0
25.735000 0.214683 0
25.740000 0.228848 0
25.745000 0.234871 1
25.750000 0.232250 0
25.755000 0.221176 0
25.760000 0.202515 0
25.765000 0.177692 0
25.770000 0.148509 0
25.775000 0.116919 0
25.780000 0.084755 0
25.785000 0.053378 0
25.790000 0.023129 0
25.795000 -0.007432 0
25.800000 -0.042033 0
25.805000 -0.085624 0
25.810000 -0.140402 0
25.815000 -0.199797 0
25.820000 -0.244724 0
25.825000 -0.246214 2
25.830000 -0.173249 0
25.835000 -0.001852 0
25.840000 0.272860 0
25.845000 0.617857 0
25.850000 0.949007 0
25.855000 1.151571 3
25.860000 1.141541 0
25.865000 0.920643 0
25.870000 0.570065 0
25.875000 0.200781 0
25.880000 -0.101078 0
25.885000 -0.294317 0
25.890000 -0.374607 4
25.895000 -0.361970 0
25.900000 -0.291400 0
25.905000 -0.201172 0
25.910000 -0.119568 0
25.915000 -0.058155 0
25.920000 -0.015042 0
25.925000 0.017087 0
25.930000 0.044838 0
25.935000 0.072056 0
25.940000 0.100300 0
25.945000 0.129882 0
25.950000 0.160562 0
25.955000 0.191868 0
25.960000 0.223210 0
25.965000 0.253921 0
25.970000 0.283284 0
25.975000 0.310563 0
25.980000 0.335030 0
25.985000 0.355997 0
25.990000 0.372849 0
25.995000 0.385070 0
26.000000 0.392274 0
26.005000 0.394219 5
26.010000 0.390824 0
26.015000 0.382171 0
26.020000 0.368505 0
26.025000 0.350216 0
26.030000 0.327828 0
26.035000 0.301964 0
26.040000 0.273328 0
26.045000 0.242661 0
26.050000 0.210721 0
26.055000 0.178243 0
26.060000 0.145916 0
26.065000 0.114360 0
26.070000 0.084109 0
26.075000 0.055601 0
26.080000 0.029167 0
26.085000 0.005040 0
26.090000 -0.016647 0
26.095000 -0.035848 0
26.100000 -0.052594 0
26.105000 -0.066980 0
26.110000 -0.079147 0
26.115000 -0.089273 0
26.120000 -0.097558 0
26.125000 -0.104212 0
26.130000 -0.109444 0
26.135000 -0.113457 0
26.140000 -0.116442 0
26.145000 -0.118572 0
26.150000 -0.120002 0
26.155000 -0.120595 0
26.160000 -0.119595 0
26.165000 -0.118601 0
26.170000 -0.117611 0
26.175000 -0.116626 0
26.180000 -0.115645 0
26.185000 -0.114670 0
26.190000 -0.113698 0
26.195000 -0.112729 0
26.200000 -0.111761 0
26.205000 -0.110790 0
26.210000 -0.109811 0
26.215000 -0.108810 0
26.220000 -0.107770 0
26.225000 -0.106656 0
26.230000 -0.105418 0
26.235000 -0.103975 0
26.240000 -0.102209 0
26.245000 -0.099949 0
26.250000 -0.096964 0
26.255000 -0.092948 0
26.260000 -0.087521 0
26.265000 -0.080236 0
26.270000 -0.070597 0
26.275000 -0.058106 0
26.280000 -0.042320 0
26.285000 -0.022928 0
26.290000 0.000158 0
26.295000 0.026718 0
26.300000 0.056161 0
26.305000 0.087488 0
26.310000 0.119314 0
26.315000 0.149948 0
26.320000 0.177526 0
26.325000 0.200196 0
26.330000 0.216324 0
26.335000 0.224684 1
26.340000 0.224615 0
26.345000 0.216109 0
26.350000 0.199811 0
26.355000 0.176942 0
26.360000 0.149142 0
26.365000 0.118276 0
26.370000 0.086193 0
26.375000 0.054437 0
26.380000 0.023823 0
26.385000 -0.006211 0
26.390000 -0.038285 0
26.395000 -0.076940 0
26.400000 -0.126254 0
26.405000 -0.184804 0
26.410000 -0.240455 0
26.415000 -0.269525 2
26.420000 -0.242024 0
26.425000 -0.129809 0
26.430000 0.084377 0
26.435000 0.392978 0
26.440000 0.745374 0
26.445000 1.044527 0
26.450000 1.181600 3
26.455000 1.098938 0
26.460000 0.827247 0
26.465000 0.460160 0
26.470000 0.102150 0
26.475000 -0.174980 0
26.480000 -0.341640 0
26.485000 -0.400000 4
26.490000 -0.373145 0
26.495000 -0.296427 0
26.500000 -0.205945 0
26.505000 -0.126653 0
26.510000 -0.067560 0
26.515000 -0.025795 0
26.520000 0.005845 0
26.525000 0.033544 0
26.530000 0.060844 0
26.535000 0.089175 0
26.540000 0.118817 0
26.545000 0.149536 0
26.550000 0.180881 0
26.555000 0.212285 0
26.560000 0.243109 0
26.565000 0.272666 0
26.570000 0.300249 0
26.575000 0.325154 0
26.580000 0.346712 0
26.585000 0.364319 0
26.590000 0.377461 0
26.595000 0.385741 0
26.600000 0.388898 5
26.605000 0.386818 0
26.610000 0.379545 0
26.615000 0.367273 0
26.620000 0.350341 0
26.625000 0.329218 0
26.630000 0.304478 0
26.635000 0.276775 0
26.640000 0.246814 0
26.645000 0.215323 0
26.650000 0.183021 0
26.655000 0.150593 0
26.660000 0.118668 0
26.665000 0.087798 0
26.670000 0.058447 0
26.675000 0.030987 0
26.680000 0.005687 0
26.685000 -0.017275 0
26.690000 -0.037810 0
26.695000 -0.055909 0
26.700000 -0.071629 0
26.705000 -0.085081 0
26.710000 -0.096417 0
26.715000 -0.105818 0
26.720000 -0.113480 0
26.725000 -0.119607 0
26.730000 -0.124398 0
26.735000 -0.128047 0
26.740000 -0.130734 0
26.745000 -0.132620 0
26.750000 -0.133850 0
26.755000 -0.134293 0
26.760000 -0.133225 0
26.765000 -0.132162 0
26.770000 -0.131105 0
26.775000 -0.130052 0
26.780000 -0.129005 0
26.785000 -0.127963 0
26.790000 -0.126924 0
26.795000 -0.125889 0
26.800000 -0.124855 0
26.805000 -0.123820 0
26.810000 -0.122775 0
26.815000 -0.121711 0
26.820000 -0.120609 0
26.825000 -0.119439 0
26.830000 -0.118151 0
26.835000 -0.116672 0
26.840000 -0.114893 0
26.845000 -0.112656 0
26.850000 -0.109747 0
26.855000 -0.105884 0
26.860000 -0.100716 0
26.865000 -0.093822 0
26.870000 -0.084733 0
26.875000 -0.072966 0
26.880000 -0.058073 0
26.885000 -0.039712 0
26.890000 -0.017726 0
26.895000 0.007775 0
26.900000 0.036345 0
26.905000 0.067161 0
26.910000 0.099022 0
26.915000 0.130401 0
26.920000 0.159550 0
26.925000 0.184660 0
26.930000 0.204038 0
26.935000 0.216298 0
26.940000 0.220529 1
26.945000 0.216401 0
26.950000 0.204213 0
26.955000 0.184859 0
26.960000 0.159713 0
26.965000 0.130474 0
26.970000 0.098962 0
26.975000 0.066883 0
26.980000 0.035526 0
26.985000 0.005299 0
26.990000 -0.024929 0
26.995000 -0.058345 0
27.000000 -0.099565 0
27.005000 -0.151658 0
27.010000 -0.211040 0
27.015000 -0.263260 0
27.020000 -0.283584 2
27.025000 -0.242821 0
27.030000 -0.115012 0
27.035000 0.113791 0
27.040000 0.431571 0
27.045000 0.783736 0
27.050000 1.073277 0
27.055000 1.196805 3
27.060000 1.101451 0
27.065000 0.819333 0
27.070000 0.449217 0
27.075000 0.096658 0
27.080000 -0.168987 0
27.085000 -0.321600 0
27.090000 -0.366575 4
27.095000 -0.329893 0
27.100000 -0.248780 0
27.105000 -0.159105 0
27.110000 -0.083621 0
27.115000 -0.028718 0
27.120000 0.010059 0
27.125000 0.040192 0
27.130000 0.067429 0
27.135000 0.094788 0
27.140000 0.123347 0
27.145000 0.153204 0
27.150000 0.184038 0
27.155000 0.215342 0
27.160000 0.246509 0
27.165000 0.276862 0
27.170000 0.305688 0
27.175000 0.332257 0
27.180000 0.355856 0
27.185000 0.375819 0
27.190000 0.391560 0
27.195000 0.402596 0
27.200000 0.408575 0
27.205000 0.409295 5
27.210000 0.404709 0
27.215000 0.394934 0
27.220000 0.380240 0
27.225000 0.361043 0
27.230000 0.337881 0
27.235000 0.311389 0
27.240000 0.282270 0
27.245000 0.251264 0
27.250000 0.219117 0
27.255000 0.186550 0
27.260000 0.154237 0
27.265000 0.122776 0
27.270000 0.092684 0
27.275000 0.064377 0
27.280000 0.038171 0
27.285000 0.014281 0
27.290000 -0.007171 0
27.295000 -0.026150 0
27.300000 -0.042696 0
27.305000 -0.056906 0
27.310000 -0.068925 0
27.315000 -0.078933 0
27.320000 -0.087127 0
27.325000 -0.093716 0
27.330000 -0.098906 0
27.335000 -0.102898 0
27.340000 -0.105879 0
27.345000 -0.108019 0
27.350000 -0.109470 0
27.355000 -0.110097 0
27.360000 -0.109149 0
27.365000 -0.108207 0
27.370000 -0.107269 0
27.375000 -0.106335 0
27.380000 -0.105406 0
27.385000 -0.104481 0
27.390000 -0.103560 0
27.395000 -0.102642 0
27.400000 -0.101724 0
27.405000 -0.100804 0
27.410000 -0.099874 0
27.415000 -0.098924 0
27.420000 -0.097935 0
27.425000 -0.096874 0
27.430000 -0.095691 0
27.435000 -0.094309 0
27.440000 -0.092612 0
27.445000 -0.090434 0
27.450000 -0.087552 0
27.455000 -0.083666 0
27.460000 -0.078408 0
27.465000 -0.071337 0
27.470000 -0.061968 0
27.475000 -0.049806 0
27.480000 -0.034405 0
27.485000 -0.015441 0
27.490000 0.007199 0
27.495000 0.033336 0
27.500000 0.062429 0
27.505000 0.093538 0
27.510000 0.125340 0
27.515000 0.156194 0
27.520000 0.184272 0
27.525000 0.207729 0
27.530000 0.224904 0
27.535000 0.234512 0
27.540000 0.235803 1
27.545000 0.228659 0
27.550000 0.213611 0
27.555000 0.191776 0
27.560000 0.164714 0
27.565000 0.134243 0
27.570000 0.102216 0
27.575000 0.070247 0
27.580000 0.039336 0
27.585000 0.009276 0
27.590000 -0.022045 0
27.595000 -0.058800 0
27.600000 -0.105493 0
27.605000 -0.162518 0
27.610000 -0.220721 0
27.615000 -0.259204 2
27.620000 -0.249149 0
27.625000 -0.161467 0
27.630000 0.024775 0
27.635000 0.310461 0
27.640000 0.658665 0
27.645000 0.984601 0
27.650000 1.178147 3
27.655000 1.159373 0
27.660000 0.929747 0
27.665000 0.574976 0
27.670000 0.208011 0
27.675000 -0.086236 0
27.680000 -0.269180 0
27.685000 -0.339072 4
27.690000 -0.318297 0
27.695000 -0.243590 0
27.700000 -0.153423 0
27.705000 -0.074564 0
27.710000 -0.016475 0
27.715000 0.024146 0
27.720000 0.054950 0
27.725000 0.082237 0
27.730000 0.109426 0
27.735000 0.137786 0
27.740000 0.167480 0
27.745000 0.198195 0
27.750000 0.229415 0
27.755000 0.260517 0
27.760000 0.290803 0
27.765000 0.319535 0
27.770000 0.345960 0
27.775000 0.369344 0
27.780000 0.389001 0
27.785000 0.404330 0
27.790000 0.414844 0
27.795000 0.420193 5
27.800000 0.420183 0
27.805000 0.414789 0
27.810000 0.404152 0
27.815000 0.388579 0
27.820000 0.368520 0
27.825000 0.344552 0
27.830000 0.317347 0
27.835000 0.287644 0
27.840000 0.256210 0
27.845000 0.223811 0
27.850000 0.191182 0
27.855000 0.158997 0
27.860000 0.127851 0
27.865000 0.098243 0
27.870000 0.070570 0
27.875000 0.045121 0
27.880000 0.022082 0
27.885000 0.001542 0
27.890000 -0.016494 0
27.895000 -0.032094 0
27.900000 -0.045382 0
27.905000 -0.056525 0
27.910000 -0.065717 0
27.915000 -0.073170 0
27.920000 -0.079099 0
27.925000 -0.083715 0
27.930000 -0.087218 0
27.935000 -0.089791 0
27.940000 -0.091601 0
27.945000 -0.092792 0
27.950000 -0.092227 0
27.955000 -0.091369 0
27.960000 -0.090515 0
27.965000 -0.089665 0
27.970000 -0.088819 0
27.975000 -0.087977 0
27.980000 -0.087139 0
27.985000 -0.086303 0
27.990000 -0.085468 0
27.995000 -0.084631 0
28.000000 -0.083786 0
28.005000 -0.082923 0
28.010000 -0.082024 0
28.015000 -0.081058 0
28.020000 -0.079979 0
28.025000 -0.078711 0
28.030000 -0.077140 0
28.035000 -0.075104 0
28.040000 -0.072376 0
28.045000 -0.068658 0
28.050000 -0.063573 0
28.055000 -0.056670 0
28.060000 -0.047450 0
28.065000 -0.035401 0
28.070000 -0.020061 0
28.075000 -0.001097 0
28.080000 0.021603 0
28.085000 0.047843 0
28.090000 0.077042 0
28.095000 0.108203 0
28.100000 0.139928 0
28.105000 0.170498 0
28.110000 0.198013 0
28.115000 0.220582 0
28.120000 0.236535 0
28.125000 0.244625 1
28.130000 0.244193 0
28.135000 0.235248 0
28.140000 0.218477 0
28.145000 0.195151 0
28.150000 0.166965 0
28.155000 0.135829 0
28.160000 0.103618 0
28.165000 0.071858 0
28.170000 0.041267 0
28.175000 0.011060 0
28.180000 -0.021725 0
28.185000 -0.061858 0
28.190000 -0.113042 0
28.195000 -0.172388 0
28.200000 -0.225423 0
28.205000 -0.246304 2
28.210000 -0.204133 0
28.215000 -0.071593 0
28.220000 0.165045 0
28.225000 0.489888 0
28.230000 0.839532 0
28.235000 1.107294 0
28.240000 1.188957 3
28.245000 1.046607 0
28.250000 0.734069 0
28.255000 0.359532 0
28.260000 0.024649 0
28.265000 -0.211457 0
28.270000 -0.332057 0
28.275000 -0.349564 4
28.280000 -0.295103 0
28.285000 -0.207875 0
28.290000 -0.121320 0
28.295000 -0.053007 0
28.300000 -0.004745 0
28.305000 0.029952 0
28.310000 0.058415 0
28.315000 0.085438 0
28.320000 0.113197 0
28.325000 0.142291 0
28.330000 0.172595 0
28.335000 0.203679 0
28.340000 0.234973 0
28.345000 0.265818 0
28.350000 0.295500 0
28.355000 0.323273 0
28.360000 0.348396 0
28.365000 0.370157 0
28.370000 0.387912 0
28.375000 0.401114 0
28.380000 0.409338 0
28.385000 0.412308 5
28.390000 0.409904 0
28.395000 0.402179 0
28.400000 0.389346 0
