0.000000 1.155644 3
0.005000 1.051864 0
0.010000 0.789741 0
0.015000 0.449298 0
0.020000 0.116488 0
0.025000 -0.148550 0
0.030000 -0.318935 0
0.035000 -0.393546 4
0.040000 -0.388633 0
0.045000 -0.331595 0
0.050000 -0.253195 0
0.055000 -0.178193 0
0.060000 -0.119366 0
0.065000 -0.078088 0
0.070000 -0.049418 0
0.075000 -0.027291 0
0.080000 -0.007248 0
0.085000 0.013147 0
0.090000 0.034927 0
0.095000 0.058387 0
0.100000 0.083490 0
0.105000 0.110041 0
0.110000 0.137753 0
0.115000 0.166257 0
0.120000 0.195120 0
0.125000 0.223848 0
0.130000 0.251902 0
0.135000 0.278711 0
0.140000 0.303693 0
0.145000 0.326273 0
0.150000 0.345905 0
0.155000 0.362096 0
0.160000 0.374424 0
0.165000 0.382553 0
0.170000 0.386256 5
0.175000 0.385416 0
0.180000 0.380038 0
0.185000 0.370248 0
0.190000 0.356282 0
0.195000 0.338487 0
0.200000 0.317297 0
0.205000 0.293217 0
0.210000 0.266809 0
0.215000 0.238661 0
0.220000 0.209371 0
0.225000 0.179526 0
0.230000 0.149681 0
0.235000 0.120342 0
0.240000 0.091959 0
0.245000 0.064908 0
0.250000 0.039496 0
0.255000 0.015949 0
0.260000 -0.005577 0
0.265000 -0.024998 0
0.270000 -0.042292 0
0.275000 -0.057492 0
0.280000 -0.070675 0
0.285000 -0.081956 0
0.290000 -0.091472 0
0.295000 -0.099381 0
0.300000 -0.105847 0
0.305000 -0.111038 0
0.310000 -0.115118 0
0.315000 -0.118243 0
0.320000 -0.120557 0
0.325000 -0.122192 0
0.330000 -0.123266 0
0.335000 -0.123881 0
0.340000 -0.124125 0
0.345000 -0.124074 0
0.350000 -0.123196 0
0.355000 -0.122182 0
0.360000 -0.121173 0
0.365000 -0.120169 0
0.370000 -0.119170 0
0.375000 -0.118177 0
0.380000 -0.117188 0
0.385000 -0.116203 0
0.390000 -0.115224 0
0.395000 -0.114250 0
0.400000 -0.113280 0
0.405000 -0.112314 0
0.410000 -0.111352 0
0.415000 -0.110392 0
0.420000 -0.109432 0
0.425000 -0.108468 0
0.430000 -0.107495 0
0.435000 -0.106500 0
0.440000 -0.105466 0
0.445000 -0.104366 0
0.450000 -0.103154 0
0.455000 -0.101768 0
0.460000 -0.100114 0
0.465000 -0.098062 0
0.470000 -0.095438 0
0.475000 -0.092015 0
0.480000 -0.087510 0
0.485000 -0.081590 0
0.490000 -0.073877 0
0.495000 -0.063973 0
0.500000 -0.051494 0
0.505000 -0.036118 0
0.510000 -0.017637 0
0.515000 0.003982 0
0.520000 0.028535 0
0.525000 0.055544 0
0.530000 0.084230 0
0.535000 0.113530 0
0.540000 0.142143 0
0.545000 0.168615 0
0.550000 0.191462 0
0.555000 0.209300 0
0.560000 0.220987 0
0.565000 0.225744 1
0.570000 0.223238 0
0.575000 0.213627 0
0.580000 0.197538 0
0.585000 0.176000 0
0.590000 0.150339 0
0.595000 0.122040 0
0.600000 0.092601 0
0.605000 0.063386 0
0.610000 0.035457 0
0.615000 0.009340 0
0.620000 -0.015350 0
0.625000 -0.040372 0
0.630000 -0.069061 0
0.635000 -0.105460 0
0.640000 -0.151685 0
0.645000 -0.204026 0
0.650000 -0.250079 0
0.655000 -0.269434 2
0.660000 -0.238051 0
0.665000 -0.133912 0
0.670000 0.056814 0
0.675000 0.330335 0
0.680000 0.652394 0
0.685000 0.952759 0
0.690000 1.142597 0
0.695000 1.154701 3
0.700000 0.980697 0
0.705000 0.676345 0
0.710000 0.329559 0
0.715000 0.018792 0
0.720000 -0.209344 0
0.725000 -0.339552 0
0.730000 -0.378696 4
0.735000 -0.348503 0
0.740000 -0.279040 0
0.745000 -0.199785 0
0.750000 -0.130923 0
0.755000 -0.080015 0
0.760000 -0.045012 0
0.765000 -0.019945 0
0.770000 0.000760 0
0.775000 0.020662 0
0.780000 0.041501 0
0.785000 0.063920 0
0.790000 0.088034 0
0.795000 0.113724 0
0.800000 0.140747 0
0.805000 0.168777 0
0.810000 0.197412 0
0.815000 0.226188 0
0.820000 0.254586 0
0.825000 0.282045 0
0.830000 0.307986 0
0.835000 0.331823 0
0.840000 0.352990 0
0.845000 0.370959 0
0.850000 0.385267 0
0.855000 0.395527 0
0.860000 0.401455 0
0.865000 0.402874 5
0.870000 0.399725 0
0.875000 0.392073 0
0.880000 0.380100 0
0.885000 0.364101 0
0.890000 0.344468 0
0.895000 0.321678 0
0.900000 0.296269 0
0.905000 0.268821 0
0.910000 0.239935 0
0.915000 0.210208 0
0.920000 0.180215 0
0.925000 0.150492 0
0.930000 0.121519 0
0.935000 0.093711 0
0.940000 0.067410 0
0.945000 0.042882 0
0.950000 0.020316 0
0.955000 -0.000170 0
0.960000 -0.018527 0
0.965000 -0.034762 0
0.970000 -0.048934 0
0.975000 -0.061142 0
0.980000 -0.071515 0
0.985000 -0.080204 0
0.990000 -0.087372 0
0.995000 -0.093186 0
1.000000 -0.097814 0
1.005000 -0.101417 0
1.010000 -0.104144 0
1.015000 -0.106135 0
1.020000 -0.107513 0
1.025000 -0.108389 0
1.030000 -0.108857 0
1.035000 -0.108998 0
1.040000 -0.108761 0
1.045000 -0.107819 0
1.050000 -0.106882 0
1.055000 -0.105949 0
1.060000 -0.105021 0
1.065000 -0.104098 0
1.070000 -0.103179 0
1.075000 -0.102265 0
1.080000 -0.101355 0
1.085000 -0.100450 0
1.090000 -0.099549 0
1.095000 -0.098652 0
1.100000 -0.097758 0
1.105000 -0.096867 0
1.110000 -0.095977 0
1.115000 -0.095084 0
1.120000 -0.094184 0
1.125000 -0.093267 0
1.130000 -0.092318 0
1.135000 -0.091314 0
1.140000 -0.090216 0
1.145000 -0.088969 0
1.150000 -0.087490 0
1.155000 -0.085664 0
1.160000 -0.083330 0
1.165000 -0.080282 0
1.170000 -0.076254 0
1.175000 -0.070928 0
1.180000 -0.063937 0
1.185000 -0.054885 0
1.190000 -0.043378 0
1.195000 -0.029064 0
1.200000 -0.011688 0
1.205000 0.008847 0
1.210000 0.032421 0
1.215000 0.058645 0
1.220000 0.086836 0
1.225000 0.116012 0
1.230000 0.144935 0
1.235000 0.172179 0
1.240000 0.196247 0
1.245000 0.215702 0
1.250000 0.229307 0
1.255000 0.236155 1
1.260000 0.235772 0
1.265000 0.228166 0
1.270000 0.213833 0
1.275000 0.193699 0
1.280000 0.169023 0
1.285000 0.141268 0
1.290000 0.111949 0
1.295000 0.082493 0
1.300000 0.054071 0
1.305000 0.027393 0
1.310000 0.002368 0
1.315000 -0.022355 0
1.320000 -0.049727 0
1.325000 -0.083801 0
1.330000 -0.127569 0
1.335000 -0.179202 0
1.340000 -0.228590 0
1.345000 -0.256969 2
1.350000 -0.240564 0
1.355000 -0.156199 0
1.360000 0.012761 0
1.365000 0.267976 0
1.370000 0.583480 0
1.375000 0.896782 0
1.380000 1.119964 0
1.385000 1.176340 3
1.390000 1.042926 0
1.395000 0.763147 0
1.400000 0.418827 0
1.405000 0.091845 0
1.410000 -0.163222 0
1.415000 -0.323511 0
1.420000 -0.390026 4
1.425000 -0.379892 0
1.430000 -0.320469 0
1.435000 -0.241714 0
1.440000 -0.167276 0
1.445000 -0.109080 0
1.450000 -0.068168 0
1.455000 -0.039632 0
1.460000 -0.017545 0
1.465000 0.002455 0
1.470000 0.022770 0
1.475000 0.044436 0
1.480000 0.067757 0
1.485000 0.092707 0
1.490000 0.119105 0
1.495000 0.146674 0
1.500000 0.175061 0
1.505000 0.203849 0
1.510000 0.232561 0
1.515000 0.260675 0
1.520000 0.287637 0
1.525000 0.312879 0
1.530000 0.335837 0
1.535000 0.355972 0
1.540000 0.372792 0
1.545000 0.385868 0
1.550000 0.394857 0
1.555000 0.399512 0
1.560000 0.399694 5
1.565000 0.395379 0
1.570000 0.386661 0
1.575000 0.373745 0
1.580000 0.356939 0
1.585000 0.336646 0
1.590000 0.313341 0
1.595000 0.287557 0
1.600000 0.259864 0
1.605000 0.230844 0
1.610000 0.201076 0
1.615000 0.171116 0
1.620000 0.141478 0
1.625000 0.112622 0
1.630000 0.084945 0
1.635000 0.058774 0
1.640000 0.034363 0
1.645000 0.011893 0
1.650000 -0.008524 0
1.655000 -0.026840 0
1.660000 -0.043064 0
1.665000 -0.057253 0
1.670000 -0.069501 0
1.675000 -0.079932 0
1.680000 -0.088694 0
1.685000 -0.095942 0
1.690000 -0.101840 0
1.695000 -0.106552 0
1.700000 -0.110233 0
1.705000 -0.113032 0
1.710000 -0.115086 0
1.715000 -0.116516 0
1.720000 -0.117433 0
1.725000 -0.117931 0
1.730000 -0.118091 0
1.735000 -0.117855 0
1.740000 -0.116868 0
1.745000 -0.115885 0
1.750000 -0.114908 0
1.755000 -0.113935 0
1.760000 -0.112967 0
1.765000 -0.112004 0
1.770000 -0.111046 0
1.775000 -0.110093 0
1.780000 -0.109144 0
1.785000 -0.108200 0
1.790000 -0.107260 0
1.795000 -0.106324 0
1.800000 -0.105391 0
1.805000 -0.104460 0
1.810000 -0.103529 0
1.815000 -0.102593 0
1.820000 -0.101646 0
1.825000 -0.100675 0
1.830000 -0.099664 0
1.835000 -0.098581 0
1.840000 -0.097384 0
1.845000 -0.096006 0
1.850000 -0.094355 0
1.855000 -0.092299 0
1.860000 -0.089667 0
1.865000 -0.086232 0
1.870000 -0.081719 0
1.875000 -0.075797 0
1.880000 -0.068099 0
1.885000 -0.058237 0
1.890000 -0.045834 0
1.895000 -0.030575 0
1.900000 -0.012251 0
1.905000 0.009175 0
1.910000 0.033519 0
1.915000 0.060331 0
1.920000 0.088874 0
1.925000 0.118132 0
1.930000 0.146853 0
1.935000 0.173630 0
1.940000 0.197009 0
1.945000 0.215616 0
1.950000 0.228296 0
1.955000 0.234222 1
1.960000 0.232995 0
1.965000 0.224680 0
1.970000 0.209805 0
1.975000 0.189302 0
1.980000 0.164416 0
1.985000 0.136574 0
1.990000 0.107248 0
1.995000 0.077820 0
2.000000 0.049422 0
2.005000 0.022744 0
2.010000 -0.002287 0
2.015000 -0.026942 0
2.020000 -0.054025 0
2.025000 -0.087457 0
2.030000 -0.130338 0
2.035000 -0.181459 0
2.040000 -0.231891 0
2.045000 -0.264244 2
2.050000 -0.255741 0
2.055000 -0.183430 0
2.060000 -0.029694 0
2.065000 0.210413 0
2.070000 0.517687 0
2.075000 0.838521 0
2.080000 1.090447 0
2.085000 1.192377 3
2.090000 1.105601 0
2.095000 0.855957 0
2.100000 0.519364 0
2.105000 0.181753 0
2.110000 -0.093918 0
2.115000 -0.277417 0
2.120000 -0.364864 0
2.125000 -0.370258 4
2.130000 -0.319377 0
2.135000 -0.242613 0
2.140000 -0.165872 0
2.145000 -0.103888 0
2.150000 -0.059719 0
2.155000 -0.029216 0
2.160000 -0.006320 0
2.165000 0.013770 0
2.170000 0.033836 0
2.175000 0.055131 0
2.180000 0.078064 0
2.185000 0.102654 0
2.190000 0.128739 0
2.195000 0.156055 0
2.200000 0.184259 0
2.205000 0.212942 0
2.210000 0.241632 0
2.215000 0.269809 0
2.220000 0.296921 0
2.225000 0.322393 0
2.230000 0.345657 0
2.235000 0.366165 0
2.240000 0.383412 0
2.245000 0.396956 0
2.250000 0.406438 0
2.255000 0.411595 0
2.260000 0.412274 5
2.265000 0.408437 0
2.270000 0.400162 0
2.275000 0.387643 0
2.280000 0.371181 0
2.285000 0.351171 0
2.290000 0.328085 0
2.295000 0.302456 0
2.300000 0.274853 0
2.305000 0.245866 0
2.310000 0.216078 0
2.315000 0.186051 0
2.320000 0.156308 0
2.325000 0.127317 0
2.330000 0.099483 0
2.335000 0.073141 0
2.340000 0.048551 0
2.345000 0.025901 0
2.350000 0.005307 0
2.355000 -0.013179 0
2.360000 -0.029563 0
2.365000 -0.043901 0
2.370000 -0.056285 0
2.375000 -0.066842 0
2.380000 -0.075716 0
2.385000 -0.083066 0
2.390000 -0.089058 0
2.395000 -0.093853 0
2.400000 -0.097612 0
2.405000 -0.100484 0
2.410000 -0.102605 0
2.415000 -0.104100 0
2.420000 -0.105078 0
2.425000 -0.105636 0
2.430000 -0.105855 0
2.435000 -0.105678 0
2.440000 -0.104751 0
2.445000 -0.103829 0
2.450000 -0.102912 0
2.455000 -0.101999 0
2.460000 -0.101091 0
2.465000 -0.100187 0
2.470000 -0.099287 0
2.475000 -0.098393 0
2.480000 -0.097502 0
2.485000 -0.096616 0
2.490000 -0.095734 0
2.495000 -0.094855 0
2.500000 -0.093980 0
2.505000 -0.093105 0
2.510000 -0.092230 0
2.515000 -0.091350 0
2.520000 -0.090457 0
2.525000 -0.089539 0
2.530000 -0.088578 0
2.535000 -0.087542 0
2.540000 -0.086386 0
2.545000 -0.085040 0
2.550000 -0.083408 0
2.555000 -0.081354 0
2.560000 -0.078699 0
2.565000 -0.075210 0
2.570000 -0.070602 0
2.575000 -0.064538 0
2.580000 -0.056642 0
2.585000 -0.046524 0
2.590000 -0.033810 0
2.595000 -0.018191 0
2.600000 0.000521 0
2.605000 0.022337 0
2.610000 0.047034 0
2.615000 0.074117 0
2.620000 0.102798 0
2.625000 0.132012 0
2.630000 0.160468 0
2.635000 0.186730 0
2.640000 0.209338 0
2.645000 0.226937 0
2.650000 0.238410 0
2.655000 0.242999 1
2.660000 0.240383 0
2.665000 0.230717 0
2.670000 0.214618 0
2.675000 0.193094 0
2.680000 0.167447 0
2.685000 0.139136 0
2.690000 0.109637 0
2.695000 0.080303 0
2.700000 0.052199 0
2.705000 0.025884 0
2.710000 0.001056 0
2.715000 -0.023900 0
2.720000 -0.052149 0
2.725000 -0.087690 0
2.730000 -0.132967 0
2.735000 -0.185132 0
2.740000 -0.233010 0
2.745000 -0.257303 2
2.750000 -0.234494 0
2.755000 -0.142294 0
2.760000 0.034579 0
2.765000 0.295914 0
2.770000 0.613672 0
2.775000 0.924315 0
2.780000 1.141153 0
2.785000 1.190618 3
2.790000 1.050909 0
2.795000 0.765302 0
2.800000 0.419686 0
2.805000 0.097569 0
2.810000 -0.147555 0
2.815000 -0.295166 0
2.820000 -0.348870 4
2.825000 -0.328439 0
2.830000 -0.263362 0
2.835000 -0.184144 0
2.840000 -0.113037 0
2.845000 -0.059557 0
2.850000 -0.022732 0
2.855000 0.003217 0
2.860000 0.024125 0
2.865000 0.043873 0
2.870000 0.064415 0
2.875000 0.086503 0
2.880000 0.110297 0
2.885000 0.135697 0
2.890000 0.162468 0
2.895000 0.190289 0
2.900000 0.218764 0
2.905000 0.247427 0
2.910000 0.275762 0
2.915000 0.303205 0
2.920000 0.329171 0
2.925000 0.353070 0
2.930000 0.374328 0
2.935000 0.392409 0
2.940000 0.406839 0
2.945000 0.417226 0
2.950000 0.423273 0
2.955000 0.424796 5
2.960000 0.421733 0
2.965000 0.414140 0
2.970000 0.402199 0
2.975000 0.386202 0
2.980000 0.366544 0
2.985000 0.343703 0
2.990000 0.318221 0
2.995000 0.290683 0
3.000000 0.261695 0
3.005000 0.231861 0
3.010000 0.201760 0
3.015000 0.171933 0
3.020000 0.142864 0
3.025000 0.114970 0
3.030000 0.088597 0
3.035000 0.064009 0
3.040000 0.041397 0
3.045000 0.020878 0
3.050000 0.002498 0
3.055000 -0.013751 0
3.060000 -0.027932 0
3.065000 -0.040146 0
3.070000 -0.050524 0
3.075000 -0.059219 0
3.080000 -0.066397 0
3.085000 -0.072227 0
3.090000 -0.076877 0
3.095000 -0.080508 0
3.100000 -0.083273 0
3.105000 -0.085308 0
3.110000 -0.086738 0
3.115000 -0.087673 0
3.120000 -0.088207 0
3.125000 -0.088420 0
3.130000 -0.088264 0
3.135000 -0.087424 0
3.140000 -0.086589 0
3.145000 -0.085757 0
3.150000 -0.084930 0
3.155000 -0.084107 0
3.160000 -0.083288 0
3.165000 -0.082473 0
3.170000 -0.081662 0
3.175000 -0.080855 0
3.180000 -0.080051 0
3.185000 -0.079251 0
3.190000 -0.078454 0
3.195000 -0.077659 0
3.200000 -0.076864 0
3.205000 -0.076065 0
3.210000 -0.075256 0
3.215000 -0.074428 0
3.220000 -0.073564 0
3.225000 -0.072636 0
3.230000 -0.071605 0
3.235000 -0.070409 0
3.240000 -0.068957 0
3.245000 -0.067125 0
3.250000 -0.064742 0
3.255000 -0.061583 0
3.260000 -0.057372 0
3.265000 -0.051772 0
3.270000 -0.044406 0
3.275000 -0.034870 0
3.280000 -0.022772 0
3.285000 -0.007776 0
3.290000 0.010338 0
3.295000 0.031619 0
3.300000 0.055876 0
3.305000 0.082640 0
3.310000 0.111136 0
3.315000 0.140295 0
3.320000 0.168805 0
3.325000 0.195194 0
3.330000 0.217954 0
3.335000 0.235679 0
3.340000 0.247210 0
3.345000 0.251757 1
3.350000 0.248989 0
3.355000 0.239073 0
3.360000 0.222657 0
3.365000 0.200797 0
3.370000 0.174847 0
3.375000 0.146318 0
3.380000 0.116726 0
3.385000 0.087441 0
3.390000 0.059511 0
3.395000 0.033414 0
3.400000 0.008659 0
3.405000 -0.016688 0
3.410000 -0.046145 0
3.415000 -0.083761 0
3.420000 -0.131211 0
3.425000 -0.183759 0
3.430000 -0.227646 0
3.435000 -0.241354 2
3.440000 -0.200436 0
3.445000 -0.083372 0
3.450000 0.121804 0
3.455000 0.407017 0
3.460000 0.731136 0
3.465000 1.017416 0
3.470000 1.176401 3
3.475000 1.149607 0
3.480000 0.943160 0
3.485000 0.622874 0
3.490000 0.277841 0
3.495000 -0.018916 0
3.500000 -0.227651 0
3.505000 -0.338303 0
3.510000 -0.361261 4
3.515000 -0.320562 0
3.520000 -0.246975 0
3.525000 -0.168696 0
3.530000 -0.103377 0
3.535000 -0.056202 0
3.540000 -0.023848 0
3.545000 -0.000158 0
3.550000 0.020082 0
3.555000 0.040007 0
3.560000 0.061071 0
3.565000 0.083769 0
3.570000 0.108153 0
3.575000 0.134071 0
3.580000 0.161262 0
3.585000 0.189381 0
3.590000 0.218014 0
3.595000 0.246682 0
3.600000 0.274857 0
3.605000 0.301972 0
3.610000 0.327443 0
3.615000 0.350687 0
3.620000 0.371144 0
3.625000 0.388297 0
3.630000 0.401697 0
3.635000 0.410979 0
3.640000 0.415879 0
3.645000 0.416245 5
3.650000 0.412046 0
3.655000 0.403371 0
3.660000 0.390429 0
3.665000 0.373536 0
3.670000 0.353106 0
3.675000 0.329630 0
3.680000 0.303658 0
3.685000 0.275778 0
3.690000 0.246591 0
3.695000 0.216691 0
3.700000 0.186649 0
3.705000 0.156987 0
3.710000 0.128174 0
3.715000 0.100609 0
3.720000 0.074617 0
3.725000 0.050448 0
3.730000 0.028274 0
3.735000 0.008198 0
3.740000 -0.009744 0
3.745000 -0.025572 0
3.750000 -0.039356 0
3.755000 -0.051201 0
3.760000 -0.061242 0
3.765000 -0.069635 0
3.770000 -0.076542 0
3.775000 -0.082134 0
3.780000 -0.086576 0
3.785000 -0.090027 0
3.790000 -0.092635 0
3.795000 -0.094535 0
3.800000 -0.095849 0
3.805000 -0.096682 0
3.810000 -0.097127 0
3.815000 -0.097262 0
3.820000 -0.096525 0
3.825000 -0.095644 0
3.830000 -0.094767 0
3.835000 -0.093895 0
3.840000 -0.093027 0
3.845000 -0.092164 0
3.850000 -0.091304 0
3.855000 -0.090449 0
3.860000 -0.089599 0
3.865000 -0.088752 0
3.870000 -0.087909 0
3.875000 -0.087070 0
3.880000 -0.086234 0
3.885000 -0.085400 0
3.890000 -0.084565 0
3.895000 -0.083728 0
3.900000 -0.082880 0
3.905000 -0.082012 0
3.910000 -0.081108 0
3.915000 -0.080140 0
3.920000 -0.079067 0
3.925000 -0.077827 0
3.930000 -0.076330 0
3.935000 -0.074452 0
3.940000 -0.072020 0
3.945000 -0.068814 0
3.950000 -0.064556 0
3.955000 -0.058913 0
3.960000 -0.051511 0
3.965000 -0.041948 0
3.970000 -0.029838 0
3.975000 -0.014845 0
3.980000 0.003252 0
3.985000 0.024503 0
3.990000 0.048724 0
3.995000 0.075458 0
4.000000 0.103944 0
4.005000 0.133132 0
4.010000 0.161727 0
4.015000 0.188274 0
4.020000 0.211277 0
4.025000 0.229332 0
4.030000 0.241274 0
4.035000 0.246294 1
4.040000 0.244036 0
4.045000 0.234632 0
4.050000 0.218693 0
4.055000 0.197241 0
4.060000 0.171601 0
4.065000 0.143262 0
4.070000 0.113735 0
4.075000 0.084397 0
4.080000 0.056329 0
4.085000 0.030075 0
4.090000 0.005270 0
4.095000 -0.019831 0
4.100000 -0.048564 0
4.105000 -0.084998 0
4.110000 -0.131287 0
4.115000 -0.183726 0
4.120000 -0.229838 0
4.125000 -0.249074 2
4.130000 -0.217240 0
4.135000 -0.112227 0
4.140000 0.079734 0
4.145000 0.354452 0
4.150000 0.676792 0
4.155000 0.975408 0
4.160000 1.160932 0
4.165000 1.166993 3
4.170000 0.986949 0
4.175000 0.678366 0
4.180000 0.331777 0
4.185000 0.025984 0
4.190000 -0.193821 0
4.195000 -0.314305 0
4.200000 -0.344332 4
4.205000 -0.307539 0
4.210000 -0.235234 0
4.215000 -0.156759 0
4.220000 -0.090863 0
4.225000 -0.043315 0
4.230000 -0.010874 0
4.235000 0.012755 0
4.240000 0.032916 0
4.245000 0.052797 0
4.250000 0.073859 0
4.255000 0.096586 0
4.260000 0.121017 0
4.265000 0.146988 0
4.270000 0.174224 0
4.275000 0.202364 0
4.280000 0.230978 0
4.285000 0.259566 0
4.290000 0.287582 0
4.295000 0.314442 0
4.300000 0.339544 0
4.305000 0.362292 0
4.310000 0.382119 0
4.315000 0.398507 0
4.320000 0.411009 0
4.325000 0.419274 0
4.330000 0.423055 5
4.335000 0.422227 0
4.340000 0.416787 0
4.345000 0.406860 0
4.350000 0.392693 0
4.355000 0.374639 0
4.360000 0.353150 0
4.365000 0.328750 0
4.370000 0.302018 0
4.375000 0.273564 0
4.380000 0.244005 0
4.385000 0.213943 0
4.390000 0.183946 0
4.395000 0.154530 0
4.400000 0.126147 0
4.405000 0.099176 0
4.410000 0.073917 0
4.415000 0.050590 0
4.420000 0.029339 0
4.425000 0.010237 0
4.430000 -0.006708 0
4.435000 -0.021543 0
4.440000 -0.034359 0
4.445000 -0.045282 0
4.450000 -0.054461 0
4.455000 -0.062062 0
4.460000 -0.068255 0
4.465000 -0.073214 0
4.470000 -0.077105 0
4.475000 -0.080083 0
4.480000 -0.082294 0
4.485000 -0.083867 0
4.490000 -0.084916 0
4.495000 -0.085541 0
4.500000 -0.085827 0
4.505000 -0.085723 0
4.510000 -0.084896 0
4.515000 -0.084073 0
4.520000 -0.083254 0
4.525000 -0.082439 0
4.530000 -0.081628 0
4.535000 -0.080822 0
4.540000 -0.080019 0
4.545000 -0.079220 0
4.550000 -0.078425 0
4.555000 -0.077634 0
4.560000 -0.076846 0
4.565000 -0.076061 0
4.570000 -0.075278 0
4.575000 -0.074495 0
4.580000 -0.073709 0
4.585000 -0.072913 0
4.590000 -0.072098 0
4.595000 -0.071248 0
4.600000 -0.070335 0
4.605000 -0.069319 0
4.610000 -0.068137 0
4.615000 -0.066700 0
4.620000 -0.064880 0
4.625000 -0.062503 0
4.630000 -0.059341 0
4.635000 -0.055110 0
4.640000 -0.049469 0
4.645000 -0.042031 0
4.650000 -0.032387 0
4.655000 -0.020138 0
4.660000 -0.004949 0
4.665000 0.013397 0
4.670000 0.034930 0
4.675000 0.059436 0
4.680000 0.086409 0
4.685000 0.115030 0
4.690000 0.144182 0
4.695000 0.172505 0
4.700000 0.198492 0
4.705000 0.220613 0
4.710000 0.237468 0
4.715000 0.247925 0
4.720000 0.251251 1
4.725000 0.247194 0
4.730000 0.236013 0
4.735000 0.218449 0
4.740000 0.195646 0
4.745000 0.169025 0
4.750000 0.140135 0
4.755000 0.110500 0
4.760000 0.081453 0
4.765000 0.053953 0
4.770000 0.028285 0
4.775000 0.003621 0
4.780000 -0.022447 0
4.785000 -0.053817 0
4.790000 -0.094305 0
4.795000 -0.144148 0
4.800000 -0.195942 0
4.805000 -0.232952 2
4.810000 -0.231744 0
4.815000 -0.167776 0
4.820000 -0.021509 0
4.825000 0.213761 0
4.830000 0.519481 0
4.835000 0.840129 0
4.840000 1.088808 0
4.845000 1.180798 3
4.850000 1.078203 0
4.855000 0.813248 0
4.860000 0.471178 0
4.865000 0.142129 0
4.870000 -0.113099 0
4.875000 -0.269533 0
4.880000 -0.329046 4
4.885000 -0.311367 0
4.890000 -0.247015 0
4.895000 -0.167918 0
4.900000 -0.097288 0
4.905000 -0.044761 0
4.910000 -0.008971 0
4.915000 0.016236 0
4.920000 0.036806 0
4.925000 0.056537 0
4.930000 0.077254 0
4.935000 0.099613 0
4.940000 0.123713 0
4.945000 0.149414 0
4.950000 0.176449 0
4.955000 0.204461 0
4.960000 0.233014 0
4.965000 0.261604 0
4.970000 0.289674 0
4.975000 0.316624 0
4.980000 0.341837 0
4.985000 0.364700 0
4.990000 0.384625 0
4.995000 0.401078 0
5.000000 0.413599 0
5.005000 0.421823 0
5.010000 0.425498 5
5.015000 0.424497 0
5.020000 0.418822 0
5.025000 0.408608 0
5.030000 0.394113 0
5.035000 0.375712 0
5.040000 0.353874 0
5.045000 0.329147 0
5.050000 0.302131 0
5.055000 0.273454 0
5.060000 0.243751 0
5.065000 0.213636 0
5.070000 0.183685 0
5.075000 0.154418 0
5.080000 0.126284 0
5.085000 0.099655 0
5.090000 0.074822 0
5.095000 0.051991 0
5.100000 0.031290 0
5.105000 0.012776 0
5.110000 -0.003560 0
5.115000 -0.017783 0
5.120000 -0.029996 0
5.125000 -0.040339 0
5.130000 -0.048972 0
5.135000 -0.056068 0
5.140000 -0.061804 0
5.145000 -0.066356 0
5.150000 -0.069891 0
5.155000 -0.072565 0
5.160000 -0.074520 0
5.165000 -0.075881 0
5.170000 -0.076761 0
5.175000 -0.077253 0
5.180000 -0.077439 0
5.185000 -0.076793 0
5.190000 -0.076010 0
5.195000 -0.075232 0
5.200000 -0.074457 0
5.205000 -0.073686 0
5.210000 -0.072919 0
5.215000 -0.072156 0
5.220000 -0.071396 0
5.225000 -0.070640 0
5.230000 -0.069888 0
5.235000 -0.069139 0
5.240000 -0.068393 0
5.245000 -0.067649 0
5.250000 -0.066906 0
5.255000 -0.066160 0
5.260000 -0.065406 0
5.265000 -0.064636 0
5.270000 -0.063834 0
5.275000 -0.062976 0
5.280000 -0.062024 0
5.285000 -0.060920 0
5.290000 -0.059576 0
5.295000 -0.057869 0
5.300000 -0.055630 0
5.305000 -0.052633 0
5.310000 -0.048595 0
5.315000 -0.043171 0
5.320000 -0.035968 0
5.325000 -0.026566 0
5.330000 -0.014553 0
5.335000 0.000424 0
5.340000 0.018595 0
5.345000 0.040003 0
5.350000 0.064435 0
5.355000 0.091377 0
5.360000 0.119986 0
5.365000 0.149112 0
5.370000 0.177351 0
5.375000 0.203148 0
5.380000 0.224935 0
5.385000 0.241284 0
5.390000 0.251063 0
5.395000 0.253562 1
5.400000 0.248577 0
5.405000 0.236441 0
5.410000 0.217979 0
5.415000 0.194418 0
5.420000 0.167254 0
5.425000 0.138084 0
5.430000 0.108452 0
5.435000 0.079665 0
5.440000 0.052584 0
5.445000 0.027276 0
5.450000 0.002513 0
5.455000 -0.024642 0
5.460000 -0.058420 0
5.465000 -0.102092 0
5.470000 -0.153855 0
5.475000 -0.202977 0
5.480000 -0.229421 2
5.485000 -0.207987 0
5.490000 -0.114588 0
5.495000 0.067001 0
5.500000 0.335153 0
5.505000 0.656123 0
5.510000 0.956883 0
5.515000 1.143493 0
5.520000 1.145859 3
5.525000 0.959848 0
5.530000 0.648488 0
5.535000 0.302221 0
5.540000 -0.001344 0
5.545000 -0.218271 0
5.550000 -0.336050 0
5.555000 -0.363991 4
5.560000 -0.325925 0
5.565000 -0.253115 0
5.570000 -0.174646 0
5.575000 -0.108950 0
5.580000 -0.061573 0
5.585000 -0.029196 0
5.590000 -0.005539 0
5.595000 0.014699 0
5.600000 0.034677 0
5.605000 0.055838 0
5.610000 0.078661 0
5.615000 0.103184 0
5.620000 0.129243 0
5.625000 0.156564 0
5.630000 0.184789 0
5.635000 0.213488 0
5.640000 0.242165 0
5.645000 0.270275 0
5.650000 0.297237 0
5.655000 0.322452 0
5.660000 0.345326 0
5.665000 0.365293 0
5.670000 0.381836 0
5.675000 0.394510 0
5.680000 0.402960 0
5.685000 0.406940 5
5.690000 0.406319 0
5.695000 0.401095 0
5.700000 0.391386 0
5.705000 0.377435 0
5.710000 0.359591 0
5.715000 0.338300 0
5.720000 0.314082 0
5.725000 0.287513 0
5.730000 0.259199 0
5.735000 0.229754 0
5.740000 0.199781 0
5.745000 0.169846 0
5.750000 0.140467 0
5.755000 0.112097 0
5.760000 0.085118 0
5.765000 0.059832 0
5.770000 0.036464 0
5.775000 0.015162 0
5.780000 -0.003998 0
5.785000 -0.021005 0
5.790000 -0.035902 0
5.795000 -0.048776 0
5.800000 -0.059751 0
5.805000 -0.068975 0
5.810000 -0.076612 0
5.815000 -0.082832 0
5.820000 -0.087806 0
5.825000 -0.091701 0
5.830000 -0.094675 0
5.835000 -0.096871 0
5.840000 -0.098421 0
5.845000 -0.099439 0
5.850000 -0.100025 0
5.855000 -0.100267 0
5.860000 -0.100109 0
5.865000 -0.099210 0
5.870000 -0.098316 0
5.875000 -0.097426 0
5.880000 -0.096541 0
5.885000 -0.095659 0
5.890000 -0.094783 0
5.895000 -0.093910 0
5.900000 -0.093042 0
5.905000 -0.092179 0
5.910000 -0.091319 0
5.915000 -0.090463 0
5.920000 -0.089610 0
5.925000 -0.088760 0
5.930000 -0.087910 0
5.935000 -0.087058 0
5.940000 -0.086198 0
5.945000 -0.085320 0
5.950000 -0.084410 0
5.955000 -0.083442 0
5.960000 -0.082378 0
5.965000 -0.081159 0
5.970000 -0.079700 0
5.975000 -0.077878 0
5.980000 -0.075528 0
5.985000 -0.072431 0
5.990000 -0.068311 0
5.995000 -0.062837 0
6.000000 -0.055629 0
6.005000 -0.046280 0
6.010000 -0.034390 0
6.015000 -0.019610 0
6.020000 -0.001703 0
6.025000 0.019394 0
6.030000 0.043511 0
6.035000 0.070191 0
6.040000 0.098669 0
6.045000 0.127880 0
6.050000 0.156502 0
6.055000 0.183050 0
6.060000 0.205995 0
6.065000 0.223908 0
6.070000 0.235607 0
6.075000 0.240284 1
6.080000 0.237600 0
6.085000 0.227721 0
6.090000 0.211304 0
6.095000 0.189423 0
6.100000 0.163453 0
6.105000 0.134926 0
6.110000 0.105375 0
6.115000 0.076180 0
6.120000 0.048383 0
6.125000 0.022432 0
6.130000 -0.002240 0
6.135000 -0.027697 0
6.140000 -0.057589 0
6.145000 -0.095960 0
6.150000 -0.144125 0
6.155000 -0.196540 0
6.160000 -0.238400 0
6.165000 -0.247355 2
6.170000 -0.198679 0
6.175000 -0.071301 0
6.180000 0.145106 0
6.185000 0.438770 0
6.190000 0.762897 0
6.195000 1.035909 0
6.200000 1.168881 3
6.205000 1.111112 0
6.210000 0.879939 0
6.215000 0.549077 0
6.220000 0.208367 0
6.225000 -0.073778 0
6.230000 -0.263377 0
6.235000 -0.354936 0
6.240000 -0.362258 4
6.245000 -0.311788 0
6.250000 -0.234981 0
6.255000 -0.158566 0
6.260000 -0.097446 0
6.265000 -0.054342 0
6.270000 -0.024698 0
6.275000 -0.002272 0
6.280000 0.017701 0
6.285000 0.037883 0
6.290000 0.059416 0
6.295000 0.082640 0
6.300000 0.107533 0
6.305000 0.133903 0
6.310000 0.161458 0
6.315000 0.189828 0
6.320000 0.218570 0
6.325000 0.247181 0
6.330000 0.275111 0
6.335000 0.301779 0
6.340000 0.326589 0
6.345000 0.348955 0
6.350000 0.368324 0
6.355000 0.384193 0
6.360000 0.396137 0
6.365000 0.403821 0
6.370000 0.407020 5
6.375000 0.405627 0
6.380000 0.399659 0
6.385000 0.389255 0
6.390000 0.374672 0
6.395000 0.356274 0
6.400000 0.334516 0
6.405000 0.309924 0
6.410000 0.283074 0
6.415000 0.254572 0
6.420000 0.225027 0
6.425000 0.195032 0
6.430000 0.165144 0
6.435000 0.135870 0
6.440000 0.107652 0
6.445000 0.080859 0
6.450000 0.055782 0
6.455000 0.032636 0
6.460000 0.011560 0
6.465000 -0.007379 0
6.470000 -0.024174 0
6.475000 -0.038872 0
6.480000 -0.051566 0
6.485000 -0.062379 0
6.490000 -0.071461 0
6.495000 -0.078974 0
6.500000 -0.085088 0
6.505000 -0.089974 0
6.510000 -0.093795 0
6.515000 -0.096708 0
6.520000 -0.098854 0
6.525000 -0.100362 0
6.530000 -0.101347 0
6.535000 -0.101907 0
6.540000 -0.102126 0
6.545000 -0.101951 0
6.550000 -0.101043 0
6.555000 -0.100140 0
6.560000 -0.099241 0
6.565000 -0.098346 0
6.570000 -0.097456 0
6.575000 -0.096570 0
6.580000 -0.095689 0
6.585000 -0.094812 0
6.590000 -0.093940 0
6.595000 -0.093071 0
6.600000 -0.092207 0
6.605000 -0.091345 0
6.610000 -0.090486 0
6.615000 -0.089628 0
6.620000 -0.088767 0
6.625000 -0.087899 0
6.630000 -0.087014 0
6.635000 -0.086097 0
6.640000 -0.085123 0
6.645000 -0.084055 0
6.650000 -0.082836 0
6.655000 -0.081381 0
6.660000 -0.079573 0
6.665000 -0.077247 0
6.670000 -0.074191 0
6.675000 -0.070134 0
6.680000 -0.064750 0
6.685000 -0.057665 0
6.690000 -0.048475 0
6.695000 -0.036781 0
6.700000 -0.022233 0
6.705000 -0.004584 0
6.710000 0.016247 0
6.715000 0.040110 0
6.720000 0.066582 0
6.725000 0.094932 0
6.730000 0.124129 0
6.735000 0.152885 0
6.740000 0.179738 0
6.745000 0.203167 0
6.750000 0.221737 0
6.755000 0.234239 0
6.760000 0.239819 1
6.765000 0.238081 0
6.770000 0.229125 0
6.775000 0.213542 0
6.780000 0.192348 0
6.785000 0.166874 0
6.790000 0.138628 0
6.795000 0.109140 0
6.800000 0.079815 0
6.805000 0.051752 0
6.810000 0.025512 0
6.815000 0.000731 0
6.820000 -0.024366 0
6.825000 -0.053172 0
6.830000 -0.089804 0
6.835000 -0.136347 0
6.840000 -0.188808 0
6.845000 -0.234198 0
6.850000 -0.251419 2
6.855000 -0.215916 0
6.860000 -0.105583 0
6.865000 0.092706 0
6.870000 0.372886 0
6.875000 0.696436 0
6.880000 0.988384 0
6.885000 1.158405 3
6.890000 1.144001 0
6.895000 0.946482 0
6.900000 0.629855 0
6.905000 0.284256 0
6.910000 -0.015067 0
6.915000 -0.226582 0
6.920000 -0.339333 0
6.925000 -0.363466 4
6.930000 -0.323174 0
6.935000 -0.249614 0
6.940000 -0.171366 0
6.945000 -0.106250 0
6.950000 -0.059389 0
6.955000 -0.027319 0
6.960000 -0.003792 0
6.965000 0.016413 0
6.970000 0.036393 0
6.975000 0.057561 0
6.980000 0.080388 0
6.985000 0.104906 0
6.990000 0.130955 0
6.995000 0.158261 0
7.000000 0.186470 0
7.005000 0.215156 0
7.010000 0.243827 0
7.015000 0.271944 0
7.020000 0.298929 0
7.025000 0.324188 0
7.030000 0.347133 0
7.035000 0.367200 0
7.040000 0.383872 0
7.045000 0.396707 0
7.050000 0.405348 0
7.055000 0.409543 5
7.060000 0.409161 0
7.065000 0.404188 0
7.070000 0.394738 0
7.075000 0.381042 0
7.080000 0.363443 0
7.085000 0.342375 0
7.090000 0.318351 0
7.095000 0.291938 0
7.100000 0.263737 0
7.105000 0.234358 0
7.110000 0.204400 0
7.115000 0.174429 0
7.120000 0.144965 0
7.125000 0.116464 0
7.130000 0.089312 0
7.135000 0.063819 0
7.140000 0.040216 0
7.145000 0.018659 0
7.150000 -0.000771 0
7.155000 -0.018053 0
7.160000 -0.033224 0
7.165000 -0.046367 0
7.170000 -0.057599 0
7.175000 -0.067064 0
7.180000 -0.074924 0
7.185000 -0.081347 0
7.190000 -0.086503 0
7.195000 -0.090560 0
7.200000 -0.093674 0
7.205000 -0.095991 0
7.210000 -0.097644 0
7.215000 -0.098748 0
7.220000 -0.099407 0
7.225000 -0.099707 0
7.230000 -0.099723 0
7.235000 -0.098958 0
7.240000 -0.098065 0
7.245000 -0.097176 0
7.250000 -0.096292 0
7.255000 -0.095412 0
7.260000 -0.094536 0
7.265000 -0.093665 0
7.270000 -0.092799 0
7.275000 -0.091936 0
7.280000 -0.091078 0
7.285000 -0.090223 0
7.290000 -0.089372 0
7.295000 -0.088523 0
7.300000 -0.087676 0
7.305000 -0.086827 0
7.310000 -0.085971 0
7.315000 -0.085102 0
7.320000 -0.084204 0
7.325000 -0.083256 0
7.330000 -0.082224 0
7.335000 -0.081055 0
7.340000 -0.079672 0
7.345000 -0.077964 0
7.350000 -0.075780 0
7.355000 -0.072918 0
7.360000 -0.069120 0
7.365000 -0.064072 0
7.370000 -0.057409 0
7.375000 -0.048733 0
7.380000 -0.037639 0
7.385000 -0.023761 0
7.390000 -0.006825 0
7.395000 0.013293 0
7.400000 0.036499 0
7.405000 0.062433 0
7.410000 0.090435 0
7.415000 0.119537 0
7.420000 0.148503 0
7.425000 0.175901 0
7.430000 0.200212 0
7.435000 0.219968 0
7.440000 0.233897 0
7.445000 0.241059 1
7.450000 0.240948 0
7.455000 0.233552 0
7.460000 0.219359 0
7.465000 0.199298 0
7.470000 0.174640 0
7.475000 0.146867 0
7.480000 0.117518 0
7.485000 0.088039 0
7.490000 0.059614 0
7.495000 0.032952 0
7.500000 0.007934 0
7.505000 -0.016862 0
7.510000 -0.044493 0
7.515000 -0.079082 0
7.520000 -0.123498 0
7.525000 -0.175440 0
7.530000 -0.224001 0
7.535000 -0.249586 2
7.540000 -0.227902 0
7.545000 -0.135787 0
7.550000 0.042582 0
7.555000 0.306547 0
7.560000 0.625766 0
7.565000 0.932585 0
7.570000 1.136823 0
7.575000 1.165840 3
7.580000 1.006631 0
7.585000 0.711965 0
7.590000 0.365569 0
7.595000 0.046033 0
7.600000 -0.196979 0
7.605000 -0.344501 0
7.610000 -0.400000 4
7.615000 -0.382106 0
7.620000 -0.318780 0
7.625000 -0.239468 0
7.630000 -0.166461 0
7.635000 -0.110229 0
7.640000 -0.070880 0
7.645000 -0.043231 0
7.650000 -0.021481 0
7.655000 -0.001499 0
7.660000 0.018941 0
7.665000 0.040774 0
7.670000 0.064264 0
7.675000 0.089367 0
7.680000 0.115893 0
7.685000 0.143561 0
7.690000 0.172016 0
7.695000 0.200839 0
7.700000 0.229553 0
7.705000 0.257638 0
7.710000 0.284542 0
7.715000 0.309702 0
7.720000 0.332556 0
7.725000 0.352574 0
7.730000 0.369268 0
7.735000 0.382216 0
7.740000 0.391080 0
7.745000 0.395619 0
7.750000 0.395699 5
7.755000 0.391299 0
7.760000 0.382514 0
7.765000 0.369551 0
7.770000 0.352719 0
7.775000 0.332416 0
7.780000 0.309116 0
7.785000 0.283348 0
7.790000 0.255678 0
7.795000 0.226684 0
7.800000 0.196943 0
7.805000 0.167004 0
7.810000 0.137380 0
7.815000 0.108527 0
7.820000 0.080843 0
7.825000 0.054653 0
7.830000 0.030210 0
7.835000 0.007697 0
7.840000 -0.012773 0
7.845000 -0.031150 0
7.850000 -0.047441 0
7.855000 -0.061700 0
7.860000 -0.074019 0
7.865000 -0.084522 0
7.870000 -0.093351 0
7.875000 -0.100663 0
7.880000 -0.106620 0
7.885000 -0.111383 0
7.890000 -0.115109 0
7.895000 -0.117945 0
7.900000 -0.120028 0
7.905000 -0.121481 0
7.910000 -0.122413 0
7.915000 -0.122920 0
7.920000 -0.123084 0
7.925000 -0.122975 0
7.930000 -0.122093 0
7.935000 -0.121085 0
7.940000 -0.120081 0
7.945000 -0.119083 0
7.950000 -0.118089 0
7.955000 -0.117101 0
7.960000 -0.116117 0
7.965000 -0.115138 0
7.970000 -0.114164 0
7.975000 -0.113195 0
7.980000 -0.112230 0
7.985000 -0.111270 0
7.990000 -0.110313 0
7.995000 -0.109358 0
8.000000 -0.108403 0
8.005000 -0.107445 0
8.010000 -0.106476 0
8.015000 -0.105487 0
8.020000 -0.104461 0
8.025000 -0.103370 0
8.030000 -0.102174 0
8.035000 -0.100811 0
8.040000 -0.099195 0
8.045000 -0.097203 0
8.050000 -0.094672 0
8.055000 -0.091388 0
8.060000 -0.087087 0
8.065000 -0.081451 0
8.070000 -0.074122 0
8.075000 -0.064714 0
8.080000 -0.052850 0
8.085000 -0.038199 0
8.090000 -0.020528 0
8.095000 0.000244 0
8.100000 0.023985 0
8.105000 0.050311 0
8.110000 0.078554 0
8.115000 0.107767 0
8.120000 0.136756 0
8.125000 0.164152 0
8.130000 0.188511 0
8.135000 0.208438 0
8.140000 0.222718 0
8.145000 0.230441 0
8.150000 0.231094 1
8.155000 0.224622 0
8.160000 0.211432 0
8.165000 0.192350 0
8.170000 0.168541 0
8.175000 0.141384 0
8.180000 0.112344 0
8.185000 0.082832 0
8.190000 0.054060 0
8.195000 0.026864 0
8.200000 0.001435 0
8.205000 -0.023092 0
8.210000 -0.049039 0
8.215000 -0.080086 0
8.220000 -0.119877 0
8.225000 -0.168951 0
8.230000 -0.221091 0
8.235000 -0.261527 0
8.240000 -0.268836 2
8.245000 -0.219689 0
8.250000 -0.094216 0
8.255000 0.117720 0
8.260000 0.406505 0
8.265000 0.730952 0
8.270000 1.016776 0
8.275000 1.178316 3
8.280000 1.158610 0
8.285000 0.960876 0
8.290000 0.646028 0
8.295000 0.299652 0
8.300000 -0.005399 0
8.305000 -0.227178 0
8.310000 -0.352735 0
8.315000 -0.389519 4
8.320000 -0.358770 0
8.325000 -0.289477 0
8.330000 -0.210086 0
8.335000 -0.140376 0
8.340000 -0.088181 0
8.345000 -0.051971 0
8.350000 -0.026116 0
8.355000 -0.005085 0
8.360000 0.014801 0
8.365000 0.035430 0
8.370000 0.057545 0
8.375000 0.081322 0
8.380000 0.106680 0
8.385000 0.133408 0
8.390000 0.161209 0
8.395000 0.189715 0
8.400000 0.218497 0
8.405000 0.247069 0
8.410000 0.274905 0
8.415000 0.301451 0
8.420000 0.326143 0
8.425000 0.348429 0
8.430000 0.367783 0
8.435000 0.383733 0
8.440000 0.395871 0
8.445000 0.403879 0
8.450000 0.407534 5
8.455000 0.406725 0
8.460000 0.401452 0
8.465000 0.391831 0
8.470000 0.378087 0
8.475000 0.360545 0
8.480000 0.339617 0
8.485000 0.315788 0
8.490000 0.289592 0
8.495000 0.261597 0
8.500000 0.232381 0
8.505000 0.202514 0
8.510000 0.172541 0
8.515000 0.142962 0
8.520000 0.114226 0
8.525000 0.086715 0
8.530000 0.060742 0
8.535000 0.036549 0
8.540000 0.014305 0
8.545000 -0.005886 0
8.550000 -0.023985 0
8.555000 -0.040005 0
8.560000 -0.054009 0
8.565000 -0.066092 0
8.570000 -0.076382 0
8.575000 -0.085023 0
8.580000 -0.092172 0
8.585000 -0.097992 0
8.590000 -0.102643 0
8.595000 -0.106280 0
8.600000 -0.109048 0
8.605000 -0.111082 0
8.610000 -0.112502 0
8.615000 -0.113417 0
8.620000 -0.113918 0
8.625000 -0.114087 0
8.630000 -0.113864 0
8.635000 -0.112897 0
8.640000 -0.111934 0
8.645000 -0.110976 0
8.650000 -0.110023 0
8.655000 -0.109075 0
8.660000 -0.108131 0
8.665000 -0.107192 0
8.670000 -0.106258 0
8.675000 -0.105328 0
8.680000 -0.104403 0
8.685000 -0.103482 0
8.690000 -0.102565 0
8.695000 -0.101651 0
8.700000 -0.100739 0
8.705000 -0.099827 0
8.710000 -0.098910 0
8.715000 -0.097982 0
8.720000 -0.097032 0
8.725000 -0.096042 0
8.730000 -0.094984 0
8.735000 -0.093816 0
8.740000 -0.092473 0
8.745000 -0.090867 0
8.750000 -0.088873 0
8.755000 -0.086321 0
8.760000 -0.082995 0
8.765000 -0.078626 0
8.770000 -0.072894 0
8.775000 -0.065436 0
8.780000 -0.055870 0
8.785000 -0.043820 0
8.790000 -0.028963 0
8.795000 -0.011077 0
8.800000 0.009903 0
8.805000 0.033827 0
8.810000 0.060289 0
8.815000 0.088604 0
8.820000 0.117805 0
8.825000 0.146686 0
8.830000 0.173874 0
8.835000 0.197927 0
8.840000 0.217464 0
8.845000 0.231290 0
8.850000 0.238522 0
8.855000 0.238678 1
8.860000 0.231731 0
8.865000 0.218115 0
8.870000 0.198679 0
8.875000 0.174598 0
8.880000 0.147259 0
8.885000 0.118120 0
8.890000 0.088583 0
8.895000 0.059839 0
8.900000 0.032699 0
8.905000 0.007309 0
8.910000 -0.017255 0
8.915000 -0.043381 0
8.920000 -0.074782 0
8.925000 -0.115029 0
8.930000 -0.164443 0
8.935000 -0.216490 0
8.940000 -0.256119 0
8.945000 -0.261798 2
8.950000 -0.210302 0
8.955000 -0.082040 0
8.960000 0.132623 0
8.965000 0.423266 0
8.970000 0.747743 0
8.975000 1.031224 0
8.980000 1.188510 3
8.985000 1.162378 0
8.990000 0.957573 0
8.995000 0.638504 0
9.000000 0.292975 0
9.005000 -0.006302 0
9.010000 -0.219064 0
9.015000 -0.334400 0
9.020000 -0.361751 4
9.025000 -0.324210 0
9.030000 -0.251937 0
9.035000 -0.173212 0
9.040000 -0.106410 0
9.045000 -0.057595 0
9.050000 -0.024026 0
9.055000 0.000303 0
9.060000 0.020727 0
9.065000 0.040569 0
9.070000 0.061423 0
9.075000 0.083868 0
9.080000 0.107993 0
9.085000 0.133671 0
9.090000 0.160658 0
9.095000 0.188627 0
9.100000 0.217181 0
9.105000 0.245860 0
9.110000 0.274149 0
9.115000 0.301498 0
9.120000 0.327333 0
9.125000 0.351077 0
9.130000 0.372173 0
9.135000 0.390099 0
9.140000 0.404398 0
9.145000 0.414687 0
9.150000 0.420682 0
9.155000 0.422205 5
9.160000 0.419193 0
9.165000 0.411704 0
9.170000 0.399911 0
9.175000 0.384098 0
9.180000 0.364644 0
9.185000 0.342015 0
9.190000 0.316737 0
9.195000 0.289378 0
9.200000 0.260531 0
9.205000 0.230784 0
9.210000 0.200710 0
9.215000 0.170841 0
9.220000 0.141658 0
9.225000 0.113580 0
9.230000 0.086955 0
9.235000 0.062055 0
9.240000 0.039080 0
9.245000 0.018156 0
9.250000 -0.000656 0
9.255000 -0.017355 0
9.260000 -0.031991 0
9.265000 -0.044654 0
9.270000 -0.055466 0
9.275000 -0.064572 0
9.280000 -0.072130 0
9.285000 -0.078307 0
9.290000 -0.083268 0
9.295000 -0.087172 0
9.300000 -0.090172 0
9.305000 -0.092405 0
9.310000 -0.094000 0
9.315000 -0.095068 0
9.320000 -0.095706 0
9.325000 -0.095998 0
9.330000 -0.096014 0
9.335000 -0.095265 0
9.340000 -0.094391 0
9.345000 -0.093520 0
9.350000 -0.092654 0
9.355000 -0.091793 0
9.360000 -0.090935 0
9.365000 -0.090082 0
9.370000 -0.089233 0
9.375000 -0.088388 0
9.380000 -0.087548 0
9.385000 -0.086711 0
9.390000 -0.085877 0
9.395000 -0.085046 0
9.400000 -0.084217 0
9.405000 -0.083386 0
9.410000 -0.082550 0
9.415000 -0.081701 0
9.420000 -0.080828 0
9.425000 -0.079910 0
9.430000 -0.078918 0
9.435000 -0.077804 0
9.440000 -0.076499 0
9.445000 -0.074907 0
9.450000 -0.072889 0
9.455000 -0.070263 0
9.460000 -0.066796 0
9.465000 -0.062199 0
9.470000 -0.056131 0
9.475000 -0.048213 0
9.480000 -0.038052 0
9.485000 -0.025271 0
9.490000 -0.009566 0
9.495000 0.009249 0
9.500000 0.031174 0
9.505000 0.055973 0
9.510000 0.083131 0
9.515000 0.111839 0
9.520000 0.141009 0
9.525000 0.169328 0
9.530000 0.195346 0
9.535000 0.217595 0
9.540000 0.234721 0
9.545000 0.245626 0
9.550000 0.249579 1
9.555000 0.246296 0
9.560000 0.235976 0
9.565000 0.219278 0
9.570000 0.197253 0
9.575000 0.171232 0
9.580000 0.142693 0
9.585000 0.113116 0
9.590000 0.083841 0
9.595000 0.055895 0
9.600000 0.029762 0
9.605000 0.005002 0
9.610000 -0.020203 0
9.615000 -0.049218 0
9.620000 -0.086040 0
9.625000 -0.132640 0
9.630000 -0.185120 0
9.635000 -0.230957 0
9.640000 -0.249790 2
9.645000 -0.217770 0
9.650000 -0.113127 0
9.655000 0.077770 0
9.660000 0.351101 0
9.665000 0.672965 0
9.670000 0.973905 0
9.675000 1.165835 0
9.680000 1.181468 3
9.685000 1.012338 0
9.690000 0.711811 0
9.695000 0.364926 0
9.700000 0.049338 0
9.705000 -0.187224 0
9.710000 -0.327590 0
9.715000 -0.376609 4
9.720000 -0.353989 0
9.725000 -0.288326 0
9.730000 -0.208955 0
9.735000 -0.137357 0
9.740000 -0.082968 0
9.745000 -0.045154 0
9.750000 -0.018463 0
9.755000 0.002832 0
9.760000 0.022675 0
9.765000 0.043132 0
9.770000 0.065043 0
9.775000 0.088622 0
9.780000 0.113804 0
9.785000 0.140384 0
9.790000 0.168069 0
9.795000 0.196495 0
9.800000 0.225229 0
9.805000 0.253786 0
9.810000 0.281637 0
9.815000 0.308223 0
9.820000 0.332976 0
9.825000 0.355336 0
9.830000 0.374772 0
9.835000 0.390802 0
9.840000 0.403015 0
9.845000 0.411084 0
9.850000 0.414785 5
9.855000 0.414000 0
9.860000 0.408730 0
9.865000 0.399089 0
9.870000 0.385305 0
9.875000 0.367706 0
9.880000 0.346708 0
9.885000 0.322801 0
9.890000 0.296525 0
9.895000 0.268454 0
9.900000 0.239172 0
9.905000 0.209254 0
9.910000 0.179248 0
9.915000 0.149658 0
9.920000 0.120933 0
9.925000 0.093457 0
9.930000 0.067542 0
9.935000 0.043427 0
9.940000 0.021280 0
9.945000 0.001200 0
9.950000 -0.016778 0
9.955000 -0.032671 0
9.960000 -0.046543 0
9.965000 -0.058498 0
9.970000 -0.068663 0
9.975000 -0.077187 0
9.980000 -0.084229 0
9.985000 -0.089953 0
9.990000 -0.094520 0
9.995000 -0.098086 0
10.000000 -0.100797 0
10.005000 -0.102786 0
10.010000 -0.104174 0
10.015000 -0.105067 0
10.020000 -0.105558 0
10.025000 -0.105724 0
10.030000 -0.105512 0
10.035000 -0.104587 0
10.040000 -0.103665 0
10.045000 -0.102749 0
10.050000 -0.101837 0
10.055000 -0.100929 0
10.060000 -0.100026 0
10.065000 -0.099128 0
10.070000 -0.098234 0
10.075000 -0.097344 0
10.080000 -0.096459 0
10.085000 -0.095577 0
10.090000 -0.094699 0
10.095000 -0.093824 0
10.100000 -0.092950 0
10.105000 -0.092075 0
10.110000 -0.091194 0
10.115000 -0.090300 0
10.120000 -0.089379 0
10.125000 -0.088412 0
10.130000 -0.087368 0
10.135000 -0.086198 0
10.140000 -0.084833 0
10.145000 -0.083173 0
10.150000 -0.081081 0
10.155000 -0.078374 0
10.160000 -0.074820 0
10.165000 -0.070130 0
10.170000 -0.063968 0
10.175000 -0.055960 0
10.180000 -0.045718 0
10.185000 -0.032874 0
10.190000 -0.017126 0
10.195000 0.001707 0
10.200000 0.023626 0
10.205000 0.048402 0
10.210000 0.075536 0
10.215000 0.104238 0
10.220000 0.133446 0
10.225000 0.161877 0
10.230000 0.188105 0
10.235000 0.210681 0
10.240000 0.228264 0
10.245000 0.239747 0
10.250000 0.244376 1
10.255000 0.241830 0
10.260000 0.232259 0
10.265000 0.216266 0
10.270000 0.194848 0
10.275000 0.169289 0
10.280000 0.141033 0
10.285000 0.111548 0
10.290000 0.082180 0
10.295000 0.054002 0
10.300000 0.027597 0
10.305000 0.002717 0
10.310000 -0.022162 0
10.315000 -0.050097 0
10.320000 -0.085058 0
10.325000 -0.129675 0
10.330000 -0.181608 0
10.335000 -0.230419 0
10.340000 -0.257487 2
10.345000 -0.239628 0
10.350000 -0.154416 0
10.355000 0.014210 0
10.360000 0.267978 0
10.365000 0.582315 0
10.370000 0.897666 0
10.375000 1.129083 0
10.380000 1.199985 3
10.385000 1.080015 0
10.390000 0.806525 0
10.395000 0.463013 0
10.400000 0.135017 0
10.405000 -0.120173 0
10.410000 -0.278781 0
10.415000 -0.342196 4
10.420000 -0.328693 0
10.425000 -0.267039 0
10.430000 -0.188105 0
10.435000 -0.115401 0
10.440000 -0.059862 0
10.445000 -0.021434 0
10.450000 0.005401 0
10.455000 0.026620 0
10.460000 0.046348 0
10.465000 0.066722 0
10.470000 0.088594 0
10.475000 0.112171 0
10.480000 0.137373 0
10.485000 0.163977 0
10.490000 0.191673 0
10.495000 0.220071 0
10.500000 0.248716 0
10.505000 0.277094 0
10.510000 0.304648 0
10.515000 0.330795 0
10.520000 0.354943 0
10.525000 0.376518 0
10.530000 0.394976 0
10.535000 0.409838 0
10.540000 0.420698 0
10.545000 0.427250 0
10.550000 0.429296 5
10.555000 0.426757 0
10.560000 0.419677 0
10.565000 0.408222 0
10.570000 0.392672 0
10.575000 0.373410 0
10.580000 0.350904 0
10.585000 0.325690 0
10.590000 0.298348 0
10.595000 0.269484 0
10.600000 0.239700 0
10.605000 0.209581 0
10.610000 0.179672 0
10.615000 0.150466 0
10.620000 0.122387 0
10.625000 0.095789 0
10.630000 0.070949 0
10.635000 0.048064 0
10.640000 0.027260 0
10.645000 0.008594 0
10.650000 -0.007939 0
10.655000 -0.022394 0
10.660000 -0.034867 0
10.665000 -0.045488 0
10.670000 -0.054406 0
10.675000 -0.061785 0
10.680000 -0.067796 0
10.685000 -0.072605 0
10.690000 -0.076376 0
10.695000 -0.079262 0
10.700000 -0.081402 0
10.705000 -0.082922 0
10.710000 -0.083933 0
10.715000 -0.084532 0
10.720000 -0.084800 0
10.725000 -0.084687 0
10.730000 -0.083865 0
10.735000 -0.083048 0
10.740000 -0.082234 0
10.745000 -0.081424 0
10.750000 -0.080618 0
10.755000 -0.079817 0
10.760000 -0.079019 0
10.765000 -0.078225 0
10.770000 -0.077435 0
10.775000 -0.076649 0
10.780000 -0.075866 0
10.785000 -0.075086 0
10.790000 -0.074308 0
10.795000 -0.073530 0
10.800000 -0.072749 0
10.805000 -0.071960 0
10.810000 -0.071152 0
10.815000 -0.070311 0
10.820000 -0.069411 0
10.825000 -0.068413 0
10.830000 -0.067261 0
10.835000 -0.065867 0
10.840000 -0.064112 0
10.845000 -0.061832 0
10.850000 -0.058812 0
10.855000 -0.054780 0
10.860000 -0.049409 0
10.865000 -0.042326 0
10.870000 -0.033130 0
10.875000 -0.021425 0
10.880000 -0.006864 0
10.885000 0.010794 0
10.890000 0.031622 0
10.895000 0.055470 0
10.900000 0.081906 0
10.905000 0.110201 0
10.910000 0.139327 0
10.915000 0.167999 0
10.920000 0.194764 0
10.925000 0.218111 0
10.930000 0.236613 0
10.935000 0.249066 0
10.940000 0.254624 1
10.945000 0.252885 0
10.950000 0.243947 0
10.955000 0.228391 0
10.960000 0.207220 0
10.965000 0.181753 0
10.970000 0.153486 0
10.975000 0.123943 0
10.980000 0.094524 0
10.985000 0.066336 0
10.990000 0.039960 0
10.995000 0.015077 0
11.000000 -0.010012 0
11.005000 -0.038619 0
11.010000 -0.074848 0
11.015000 -0.120967 0
11.020000 -0.173419 0
11.025000 -0.219805 0
11.030000 -0.239521 2
11.035000 -0.208198 0
11.040000 -0.103525 0
11.045000 0.088412 0
11.050000 0.363372 0
11.055000 0.685793 0
11.060000 0.983539 0
11.065000 1.166597 0
11.070000 1.168842 3
11.075000 0.983225 0
11.080000 0.670806 0
11.085000 0.324763 0
11.090000 0.024224 0
11.095000 -0.187069 0
11.100000 -0.297781 0
11.105000 -0.318831 4
11.110000 -0.275797 0
11.115000 -0.201142 0
11.120000 -0.123862 0
11.125000 -0.061100 0
11.130000 -0.016821 0
11.135000 0.013293 0
11.140000 0.035731 0
11.145000 0.055537 0
11.150000 0.075527 0
11.155000 0.096898 0
11.160000 0.119997 0
11.165000 0.144795 0
11.170000 0.171086 0
11.175000 0.198559 0
11.180000 0.226824 0
11.185000 0.255411 0
11.190000 0.283793 0
11.195000 0.311391 0
11.200000 0.337596 0
11.205000 0.361791 0
11.210000 0.383370 0
11.215000 0.401769 0
11.220000 0.416484 0
11.225000 0.427094 0
11.230000 0.433284 0
11.235000 0.434856 5
11.240000 0.431739 0
11.245000 0.423995 0
11.250000 0.411813 0
11.255000 0.395505 0
11.260000 0.375488 0
11.265000 0.352269 0
11.270000 0.326419 0
11.275000 0.298555 0
11.280000 0.269309 0
11.285000 0.239309 0
11.290000 0.209155 0
11.295000 0.179398 0
11.300000 0.150529 0
11.305000 0.122965 0
11.310000 0.097041 0
11.315000 0.073011 0
11.320000 0.051048 0
11.325000 0.031246 0
11.330000 0.013634 0
11.335000 -0.001824 0
11.340000 -0.015208 0
11.345000 -0.026641 0
11.350000 -0.036270 0
11.355000 -0.044264 0
11.360000 -0.050796 0
11.365000 -0.056046 0
11.370000 -0.060183 0
11.375000 -0.063372 0
11.380000 -0.065762 0
11.385000 -0.067489 0
11.390000 -0.068672 0
11.395000 -0.069415 0
11.400000 -0.069807 0
11.405000 -0.069797 0
11.410000 -0.069049 0
11.415000 -0.068305 0
11.420000 -0.067565 0
11.425000 -0.066828 0
11.430000 -0.066096 0
11.435000 -0.065366 0
11.440000 -0.064641 0
11.445000 -0.063919 0
11.450000 -0.063200 0
11.455000 -0.062485 0
11.460000 -0.061773 0
11.465000 -0.061063 0
11.470000 -0.060354 0
11.475000 -0.059645 0
11.480000 -0.058931 0
11.485000 -0.058206 0
11.490000 -0.057460 0
11.495000 -0.056673 0
11.500000 -0.055816 0
11.505000 -0.054844 0
11.510000 -0.053687 0
11.515000 -0.052246 0
11.520000 -0.050378 0
11.525000 -0.047893 0
11.530000 -0.044542 0
11.535000 -0.040017 0
11.540000 -0.033952 0
11.545000 -0.025939 0
11.550000 -0.015558 0
11.555000 -0.002414 0
11.560000 0.013804 0
11.565000 0.033258 0
11.570000 0.055896 0
11.575000 0.081387 0
11.580000 0.109087 0
11.585000 0.138026 0
11.590000 0.166945 0
11.595000 0.194365 0
11.600000 0.218711 0
11.605000 0.238453 0
11.610000 0.252266 0
11.615000 0.259172 1
11.620000 0.258659 0
11.625000 0.250736 0
11.630000 0.235937 0
11.635000 0.215261 0
11.640000 0.190057 0
11.645000 0.161879 0
11.650000 0.132323 0
11.655000 0.102856 0
11.660000 0.074643 0
11.665000 0.048280 0
11.670000 0.023392 0
11.675000 -0.001889 0
11.680000 -0.031136 0
11.685000 -0.068590 0
11.690000 -0.116086 0
11.695000 -0.168681 0
11.700000 -0.211817 0
11.705000 -0.222790 2
11.710000 -0.176101 0
11.715000 -0.049850 0
11.720000 0.166764 0
11.725000 0.461439 0
11.730000 0.785143 0
11.735000 1.052951 0
11.740000 1.174163 3
11.745000 1.101805 0
11.750000 0.858924 0
11.755000 0.523535 0
11.760000 0.186179 0
11.765000 -0.086971 0
11.770000 -0.264972 0
11.775000 -0.344951 4
11.780000 -0.342886 0
11.785000 -0.286845 0
11.790000 -0.208715 0
11.795000 -0.134159 0
11.800000 -0.076205 0
11.805000 -0.035965 0
11.810000 -0.008156 0
11.815000 0.013439 0
11.820000 0.033245 0
11.825000 0.053594 0
11.830000 0.075428 0
11.835000 0.098984 0
11.840000 0.124191 0
11.845000 0.150826 0
11.850000 0.178573 0
11.855000 0.207035 0
11.860000 0.235746 0
11.865000 0.264179 0
11.870000 0.291765 0
11.875000 0.317907 0
11.880000 0.342000 0
11.885000 0.363455 0
11.890000 0.381724 0
11.895000 0.396317 0
11.900000 0.406830 0
11.905000 0.412959 0
11.910000 0.414515 5
11.915000 0.411433 0
11.920000 0.403774 0
11.925000 0.391725 0
11.930000 0.375590 0
11.935000 0.355776 0
11.940000 0.332776 0
11.945000 0.307148 0
11.950000 0.279494 0
11.955000 0.250432 0
11.960000 0.220578 0
11.965000 0.190520 0
11.970000 0.160806 0
11.975000 0.131921 0
11.980000 0.104281 0
11.985000 0.078225 0
11.990000 0.054014 0
11.995000 0.031826 0
12.000000 0.011766 0
12.005000 -0.006128 0
12.010000 -0.021879 0
12.015000 -0.035561 0
12.020000 -0.047284 0
12.025000 -0.057189 0
12.030000 -0.065437 0
12.035000 -0.072198 0
12.040000 -0.077646 0
12.045000 -0.081951 0
12.050000 -0.085275 0
12.055000 -0.087769 0
12.060000 -0.089569 0
12.065000 -0.090797 0
12.070000 -0.091559 0
12.075000 -0.091947 0
12.080000 -0.092038 0
12.085000 -0.091317 0
12.090000 -0.090462 0
12.095000 -0.089611 0
12.100000 -0.088765 0
12.105000 -0.087922 0
12.110000 -0.087084 0
12.115000 -0.086250 0
12.120000 -0.085421 0
12.125000 -0.084595 0
12.130000 -0.083773 0
12.135000 -0.082955 0
12.140000 -0.082140 0
12.145000 -0.081328 0
12.150000 -0.080516 0
12.155000 -0.079703 0
12.160000 -0.078883 0
12.165000 -0.078049 0
12.170000 -0.077186 0
12.175000 -0.076272 0
12.180000 -0.075272 0
12.185000 -0.074132 0
12.190000 -0.072772 0
12.195000 -0.071079 0
12.200000 -0.068896 0
12.205000 -0.066015 0
12.210000 -0.062169 0
12.215000 -0.057035 0
12.220000 -0.050238 0
12.225000 -0.041372 0
12.230000 -0.030027 0
12.235000 -0.015838 0
12.240000 0.001460 0
12.245000 0.021967 0
12.250000 0.045557 0
12.255000 0.071822 0
12.260000 0.100042 0
12.265000 0.129189 0
12.270000 0.157965 0
12.275000 0.184891 0
12.280000 0.208421 0
12.285000 0.227090 0
12.290000 0.239661 0
12.295000 0.245262 1
12.300000 0.243484 0
12.305000 0.234431 0
12.310000 0.218707 0
12.315000 0.197353 0
12.320000 0.171728 0
12.325000 0.143367 0
12.330000 0.113825 0
12.335000 0.084517 0
12.340000 0.056537 0
12.345000 0.030402 0
12.350000 0.005650 0
12.355000 -0.019666 0
12.360000 -0.049126 0
12.365000 -0.086861 0
12.370000 -0.134510 0
12.375000 -0.187021 0
12.380000 -0.230000 0
12.385000 -0.241197 2
12.390000 -0.195643 0
12.395000 -0.071783 0
12.400000 0.141419 0
12.405000 0.433121 0
12.410000 0.757328 0
12.415000 1.032470 0
12.420000 1.168546 3
12.425000 1.112494 0
12.430000 0.880734 0
12.435000 0.548992 0
12.440000 0.209279 0
12.445000 -0.069234 0
12.450000 -0.253136 0
12.455000 -0.338133 0
12.460000 -0.339512 4
12.465000 -0.285189 0
12.470000 -0.207399 0
12.475000 -0.132461 0
12.480000 -0.073990 0
12.485000 -0.033396 0
12.490000 -0.005431 0
12.495000 0.016201 0
12.500000 0.035996 0
12.505000 0.056327 0
12.510000 0.078150 0
12.515000 0.101705 0
12.520000 0.126918 0
12.525000 0.153563 0
12.530000 0.181319 0
12.535000 0.209783 0
12.540000 0.238484 0
12.545000 0.266888 0
12.550000 0.294418 0
12.555000 0.320471 0
12.560000 0.344435 0
12.565000 0.365717 0
12.570000 0.383767 0
12.575000 0.398094 0
12.580000 0.408297 0
12.585000 0.414076 0
12.590000 0.415249 5
12.595000 0.411761 0
12.600000 0.403685 0
12.605000 0.391221 0
12.610000 0.374686 0
12.615000 0.354502 0
12.620000 0.331173 0
12.625000 0.305271 0
12.630000 0.277405 0
12.635000 0.248201 0
12.640000 0.218279 0
12.645000 0.188229 0
12.650000 0.158595 0
12.655000 0.129858 0
12.660000 0.102428 0
12.665000 0.076635 0
12.670000 0.052729 0
12.675000 0.030879 0
12.680000 0.011178 0
12.685000 -0.006347 0
12.690000 -0.021729 0
12.695000 -0.035049 0
12.700000 -0.046425 0
12.705000 -0.056006 0
12.710000 -0.063954 0
12.715000 -0.070444 0
12.720000 -0.075650 0
12.725000 -0.079744 0
12.730000 -0.082886 0
12.735000 -0.085225 0
12.740000 -0.086897 0
12.745000 -0.088021 0
12.750000 -0.088700 0
12.755000 -0.089023 0
12.760000 -0.088936 0
12.765000 -0.088093 0
12.770000 -0.087254 0
12.775000 -0.086419 0
12.780000 -0.085589 0
12.785000 -0.084762 0
12.790000 -0.083940 0
12.795000 -0.083122 0
12.800000 -0.082308 0
12.805000 -0.081497 0
12.810000 -0.080691 0
12.815000 -0.079888 0
12.820000 -0.079088 0
12.825000 -0.078290 0
12.830000 -0.077492 0
12.835000 -0.076691 0
12.840000 -0.075882 0
12.845000 -0.075053 0
12.850000 -0.074189 0
12.855000 -0.073263 0
12.860000 -0.072234 0
12.865000 -0.071040 0
12.870000 -0.069588 0
12.875000 -0.067748 0
12.880000 -0.065345 0
12.885000 -0.062146 0
12.890000 -0.057861 0
12.895000 -0.052141 0
12.900000 -0.044593 0
12.905000 -0.034800 0
12.910000 -0.022361 0
12.915000 -0.006939 0
12.920000 0.011672 0
12.925000 0.033488 0
12.930000 0.058267 0
12.935000 0.085466 0
12.940000 0.114222 0
12.945000 0.143372 0
12.950000 0.171511 0
12.955000 0.197099 0
12.960000 0.218593 0
12.965000 0.234598 0
12.970000 0.244019 0
12.975000 0.246182 1
12.980000 0.240914 0
12.985000 0.228564 0
12.990000 0.209963 0
12.995000 0.186335 0
13.000000 0.159159 0
13.005000 0.130015 0
13.010000 0.100422 0
13.015000 0.071673 0
13.020000 0.044617 0
13.025000 0.019329 0
13.030000 -0.005377 0
13.035000 -0.032366 0
13.040000 -0.065801 0
13.045000 -0.109011 0
13.050000 -0.160514 0
13.055000 -0.210179 0
13.060000 -0.238643 2
13.065000 -0.221160 0
13.070000 -0.133676 0
13.075000 0.040676 0
13.080000 0.302204 0
13.085000 0.620850 0
13.090000 0.927815 0
13.095000 1.130654 0
13.100000 1.155299 3
13.105000 0.988212 0
13.110000 0.685394 0
13.115000 0.338729 0
13.120000 0.030235 0
13.125000 -0.192343 0
13.130000 -0.314517 0
13.135000 -0.345013 4
13.140000 -0.307931 0
13.145000 -0.235304 0
13.150000 -0.157003 0
13.155000 -0.091818 0
13.160000 -0.045176 0
13.165000 -0.013469 0
13.170000 0.009762 0
13.175000 0.029827 0
13.180000 0.049809 0
13.185000 0.071070 0
13.190000 0.094037 0
13.195000 0.118717 0
13.200000 0.144921 0
13.205000 0.172357 0
13.210000 0.200642 0
13.215000 0.229323 0
13.220000 0.257881 0
13.225000 0.285746 0
13.230000 0.312314 0
13.235000 0.336971 0
13.240000 0.359110 0
13.245000 0.378160 0
13.250000 0.393609 0
13.255000 0.405022 0
13.260000 0.412066 0
13.265000 0.414525 5
13.270000 0.412306 0
13.275000 0.405448 0
13.280000 0.394119 0
13.285000 0.378609 0
13.290000 0.359315 0
13.295000 0.336729 0
13.300000 0.311411 0
13.305000 0.283968 0
13.310000 0.255029 0
13.315000 0.225222 0
13.320000 0.195151 0
13.325000 0.165377 0
13.330000 0.136401 0
13.335000 0.108652 0
13.340000 0.082481 0
13.345000 0.058157 0
13.350000 0.035868 0
13.355000 0.015723 0
13.360000 -0.002238 0
13.365000 -0.018037 0
13.370000 -0.031747 0
13.375000 -0.043481 0
13.380000 -0.053383 0
13.385000 -0.061616 0
13.390000 -0.068353 0
13.395000 -0.073772 0
13.400000 -0.078045 0
13.405000 -0.081337 0
13.410000 -0.083800 0
13.415000 -0.085572 0
13.420000 -0.086777 0
13.425000 -0.087520 0
13.430000 -0.087895 0
13.435000 -0.087977 0
13.440000 -0.087271 0
13.445000 -0.086436 0
13.450000 -0.085606 0
13.455000 -0.084779 0
13.460000 -0.083957 0
13.465000 -0.083138 0
13.470000 -0.082324 0
13.475000 -0.081514 0
13.480000 -0.080708 0
13.485000 -0.079905 0
13.490000 -0.079106 0
13.495000 -0.078310 0
13.500000 -0.077516 0
13.505000 -0.076723 0
13.510000 -0.075927 0
13.515000 -0.075122 0
13.520000 -0.074299 0
13.525000 -0.073442 0
13.530000 -0.072525 0
13.535000 -0.071508 0
13.540000 -0.070328 0
13.545000 -0.068895 0
13.550000 -0.067080 0
13.555000 -0.064708 0
13.560000 -0.061548 0
13.565000 -0.057307 0
13.570000 -0.051638 0
13.575000 -0.044145 0
13.580000 -0.034406 0
13.585000 -0.022018 0
13.590000 -0.006639 0
13.595000 0.011941 0
13.600000 0.033739 0
13.605000 0.058514 0
13.610000 0.085718 0
13.615000 0.114481 0
13.620000 0.143627 0
13.625000 0.171740 0
13.630000 0.197264 0
13.635000 0.218646 0
13.640000 0.234486 0
13.645000 0.243689 0
13.650000 0.245591 1
13.655000 0.240036 0
13.660000 0.227395 0
13.665000 0.208528 0
13.670000 0.184681 0
13.675000 0.157355 0
13.680000 0.128144 0
13.685000 0.098570 0
13.690000 0.069915 0
13.695000 0.042994 0
13.700000 0.017810 0
13.705000 -0.006954 0
13.710000 -0.034319 0
13.715000 -0.068525 0
13.720000 -0.112672 0
13.725000 -0.164597 0
13.730000 -0.213142 0
13.735000 -0.238011 2
13.740000 -0.214041 0
13.745000 -0.117440 0
13.750000 0.067480 0
13.755000 0.338211 0
13.760000 0.659888 0
13.765000 0.958743 0
13.770000 1.141244 3
13.775000 1.138899 0
13.780000 0.951679 0
13.785000 0.640997 0
13.790000 0.294507 0
13.795000 -0.011919 0
13.800000 -0.234357 0
13.805000 -0.359242 0
13.810000 -0.394328 4
13.815000 -0.361687 0
13.820000 -0.291258 0
13.825000 -0.212009 0
13.830000 -0.143521 0
13.835000 -0.092946 0
13.840000 -0.058099 0
13.845000 -0.033048 0
13.850000 -0.012292 0
13.855000 0.007675 0
13.860000 0.028572 0
13.865000 0.051038 0
13.870000 0.075191 0
13.875000 0.100913 0
13.880000 0.127967 0
13.885000 0.156031 0
13.890000 0.184711 0
13.895000 0.213549 0
13.900000 0.242033 0
13.905000 0.269611 0
13.910000 0.295708 0
13.915000 0.319747 0
13.920000 0.341163 0
13.925000 0.359434 0
13.930000 0.374093 0
13.935000 0.384754 0
13.940000 0.391124 0
13.945000 0.393020 5
13.950000 0.390372 0
13.955000 0.383233 0
13.960000 0.371771 0
13.965000 0.356265 0
13.970000 0.337095 0
13.975000 0.314722 0
13.980000 0.289673 0
13.985000 0.262518 0
13.990000 0.233850 0
13.995000 0.204261 0
14.000000 0.174325 0
14.005000 0.144579 0
14.010000 0.115508 0
14.015000 0.087532 0
14.020000 0.061004 0
14.025000 0.036198 0
14.030000 0.013316 0
14.035000 -0.007514 0
14.040000 -0.026229 0
14.045000 -0.042828 0
14.050000 -0.057359 0
14.055000 -0.069913 0
14.060000 -0.080613 0
14.065000 -0.089604 0
14.070000 -0.097044 0
14.075000 -0.103100 0
14.080000 -0.107938 0
14.085000 -0.111718 0
14.090000 -0.114593 0
14.095000 -0.116702 0
14.100000 -0.118171 0
14.105000 -0.119115 0
14.110000 -0.119629 0
14.115000 -0.119798 0
14.120000 -0.119692 0
14.125000 -0.118825 0
14.130000 -0.117832 0
14.135000 -0.116845 0
14.140000 -0.115863 0
14.145000 -0.114885 0
14.150000 -0.113913 0
14.155000 -0.112945 0
14.160000 -0.111982 0
14.165000 -0.111024 0
14.170000 -0.110070 0
14.175000 -0.109121 0
14.180000 -0.108176 0
14.185000 -0.107233 0
14.190000 -0.106293 0
14.195000 -0.105352 0
14.200000 -0.104406 0
14.205000 -0.103447 0
14.210000 -0.102463 0
14.215000 -0.101435 0
14.220000 -0.100330 0
14.225000 -0.099101 0
14.230000 -0.097677 0
14.235000 -0.095959 0
14.240000 -0.093805 0
14.245000 -0.091032 0
14.250000 -0.087400 0
14.255000 -0.082616 0
14.260000 -0.076336 0
14.265000 -0.068178 0
14.270000 -0.057745 0
14.275000 -0.044666 0
14.280000 -0.028638 0
14.285000 -0.009489 0
14.290000 0.012767 0
14.295000 0.037873 0
14.300000 0.065288 0
14.305000 0.094178 0
14.310000 0.123430 0
14.315000 0.151711 0
14.320000 0.177559 0
14.325000 0.199504 0
14.330000 0.216206 0
14.335000 0.226592 0
14.340000 0.229966 1
14.345000 0.226089 0
14.350000 0.215206 0
14.355000 0.198021 0
14.360000 0.175623 0
14.365000 0.149367 0
14.370000 0.120745 0
14.375000 0.091235 0
14.380000 0.062155 0
14.385000 0.034492 0
14.390000 0.008648 0
14.395000 -0.015950 0
14.400000 -0.041309 0
14.405000 -0.070956 0
14.410000 -0.108834 0
14.415000 -0.156426 0
14.420000 -0.208858 0
14.425000 -0.252463 0
14.430000 -0.266079 2
14.435000 -0.225727 0
14.440000 -0.110237 0
14.445000 0.092414 0
14.450000 0.375117 0
14.455000 0.699011 0
14.460000 0.990232 0
14.465000 1.160616 3
14.470000 1.149980 0
14.475000 0.958647 0
14.480000 0.646457 0
14.485000 0.299946 0
14.490000 -0.006369 0
14.495000 -0.229309 0
14.500000 -0.355405 0
14.505000 -0.392100 4
14.510000 -0.360926 0
14.515000 -0.291288 0
14.520000 -0.211933 0
14.525000 -0.142656 0
14.530000 -0.091073 0
14.535000 -0.055402 0
14.540000 -0.029875 0
14.545000 -0.008961 0
14.550000 0.010959 0
14.555000 0.031703 0
14.560000 0.053972 0
14.565000 0.077915 0
14.570000 0.103435 0
14.575000 0.130311 0
14.580000 0.158233 0
14.585000 0.186823 0
14.590000 0.215637 0
14.595000 0.244179 0
14.600000 0.271909 0
14.605000 0.298264 0
14.610000 0.322674 0
14.615000 0.344579 0
14.620000 0.363455 0
14.625000 0.378831 0
14.630000 0.390309 0
14.635000 0.397580 0
14.640000 0.400441 5
14.645000 0.398797 0
14.650000 0.392673 0
14.655000 0.382208 0
14.660000 0.367651 0
14.665000 0.349354 0
14.670000 0.327751 0
14.675000 0.303347 0
14.680000 0.276693 0
14.685000 0.248370 0
14.690000 0.218963 0
14.695000 0.189045 0
14.700000 0.159158 0
14.705000 0.129797 0
14.710000 0.101397 0
14.715000 0.074328 0
14.720000 0.048885 0
14.725000 0.025293 0
14.730000 0.003701 0
14.735000 -0.015805 0
14.740000 -0.033205 0
14.745000 -0.048528 0
14.750000 -0.061850 0
14.755000 -0.073280 0
14.760000 -0.082954 0
14.765000 -0.091024 0
14.770000 -0.097651 0
14.775000 -0.102999 0
14.780000 -0.107231 0
14.785000 -0.110499 0
14.790000 -0.112948 0
14.795000 -0.114707 0
14.800000 -0.115894 0
14.805000 -0.116611 0
14.810000 -0.116949 0
14.815000 -0.116982 0
14.820000 -0.116146 0
14.825000 -0.115168 0
14.830000 -0.114194 0
14.835000 -0.113225 0
14.840000 -0.112260 0
14.845000 -0.111301 0
14.850000 -0.110346 0
14.855000 -0.109396 0
14.860000 -0.108451 0
14.865000 -0.107510 0
14.870000 -0.106574 0
14.875000 -0.105642 0
14.880000 -0.104713 0
14.885000 -0.103787 0
14.890000 -0.102863 0
14.895000 -0.101935 0
14.900000 -0.101001 0
14.905000 -0.100049 0
14.910000 -0.099067 0
14.915000 -0.098029 0
14.920000 -0.096902 0
14.925000 -0.095629 0
14.930000 -0.094131 0
14.935000 -0.092299 0
14.940000 -0.089979 0
14.945000 -0.086973 0
14.950000 -0.083028 0
14.955000 -0.077838 0
14.960000 -0.071051 0
14.965000 -0.062284 0
14.970000 -0.051149 0
14.975000 -0.037293 0
14.980000 -0.020449 0
14.985000 -0.000491 0
14.990000 0.022510 0
14.995000 0.048231 0
15.000000 0.076068 0
15.005000 0.105132 0
15.010000 0.134267 0
15.015000 0.162123 0
15.020000 0.187246 0
15.025000 0.208206 0
15.030000 0.223724 0
15.035000 0.232808 0
15.040000 0.234852 1
15.045000 0.229706 0
15.050000 0.217695 0
15.055000 0.199581 0
15.060000 0.176486 0
15.065000 0.149776 0
15.070000 0.120928 0
15.075000 0.091384 0
15.080000 0.062412 0
15.085000 0.034931 0
15.090000 0.009251 0
15.095000 -0.015320 0
15.100000 -0.040916 0
15.105000 -0.071118 0
15.110000 -0.109748 0
15.115000 -0.157932 0
15.120000 -0.210326 0
15.125000 -0.252933 0
15.130000 -0.264615 2
15.135000 -0.221747 0
15.140000 -0.103685 0
15.145000 0.101020 0
15.150000 0.384790 0
15.155000 0.708773 0
15.160000 0.999920 0
15.165000 1.171305 3
15.170000 1.162328 0
15.175000 0.971787 0
15.180000 0.659535 0
15.185000 0.313031 0
15.190000 0.007447 0
15.195000 -0.213933 0
15.200000 -0.337919 0
15.205000 -0.372418 4
15.210000 -0.339523 0
15.215000 -0.269091 0
15.220000 -0.189957 0
15.225000 -0.121596 0
15.230000 -0.071117 0
15.235000 -0.036347 0
15.240000 -0.011375 0
15.245000 0.009285 0
15.250000 0.029140 0
15.255000 0.049916 0
15.260000 0.072254 0
15.265000 0.096276 0
15.270000 0.121868 0
15.275000 0.148795 0
15.280000 0.176737 0
15.285000 0.205302 0
15.290000 0.234036 0
15.295000 0.262429 0
15.300000 0.289933 0
15.305000 0.315977 0
15.310000 0.339982 0
15.315000 0.361387 0
15.320000 0.379670 0
15.325000 0.394363 0
15.330000 0.405079 0
15.335000 0.411522 0
15.340000 0.413504 5
15.345000 0.410953 0
15.350000 0.403914 0
15.355000 0.392550 0
15.360000 0.377136 0
15.365000 0.358043 0
15.370000 0.335728 0
15.375000 0.310713 0
15.380000 0.283564 0
15.385000 0.254871 0
15.390000 0.225225 0
15.395000 0.195199 0
15.400000 0.165331 0
15.405000 0.136108 0
15.410000 0.107953 0
15.415000 0.081221 0
15.420000 0.056192 0
15.425000 0.033073 0
15.430000 0.011995 0
15.435000 -0.006974 0
15.440000 -0.023828 0
15.445000 -0.038613 0
15.450000 -0.051414 0
15.455000 -0.062353 0
15.460000 -0.071573 0
15.465000 -0.079230 0
15.470000 -0.085490 0
15.475000 -0.090518 0
15.480000 -0.094476 0
15.485000 -0.097516 0
15.490000 -0.099778 0
15.495000 -0.101390 0
15.500000 -0.102465 0
15.505000 -0.103102 0
15.510000 -0.103386 0
15.515000 -0.103388 0
15.520000 -0.102606 0
15.525000 -0.101695 0
15.530000 -0.100788 0
15.535000 -0.099886 0
15.540000 -0.098988 0
15.545000 -0.098095 0
15.550000 -0.097206 0
15.555000 -0.096321 0
15.560000 -0.095441 0
15.565000 -0.094565 0
15.570000 -0.093694 0
15.575000 -0.092825 0
15.580000 -0.091960 0
15.585000 -0.091096 0
15.590000 -0.090232 0
15.595000 -0.089363 0
15.600000 -0.088482 0
15.605000 -0.087578 0
15.610000 -0.086633 0
15.615000 -0.085616 0
15.620000 -0.084483 0
15.625000 -0.083168 0
15.630000 -0.081575 0
15.635000 -0.079572 0
15.640000 -0.076981 0
15.645000 -0.073573 0
15.650000 -0.069065 0
15.655000 -0.063120 0
15.660000 -0.055363 0
15.665000 -0.045399 0
15.670000 -0.032851 0
15.675000 -0.017402 0
15.680000 0.001145 0
15.685000 0.022811 0
15.690000 0.047385 0
15.695000 0.074379 0
15.700000 0.103013 0
15.705000 0.132223 0
15.710000 0.160714 0
15.715000 0.187046 0
15.720000 0.209744 0
15.725000 0.227441 0
15.730000 0.239008 0
15.735000 0.243673 1
15.740000 0.241110 0
15.745000 0.231469 0
15.750000 0.215370 0
15.755000 0.193829 0
15.760000 0.168157 0
15.765000 0.139822 0
15.770000 0.110312 0
15.775000 0.080985 0
15.780000 0.052908 0
15.785000 0.026630 0
15.790000 0.001820 0
15.795000 -0.023192 0
15.800000 -0.051636 0
15.805000 -0.087534 0
15.810000 -0.133214 0
15.815000 -0.185501 0
15.820000 -0.232736 0
15.825000 -0.255167 2
15.830000 -0.229042 0
15.835000 -0.132149 0
15.840000 0.050253 0
15.845000 0.316567 0
15.850000 0.636274 0
15.855000 0.943056 0
15.860000 1.149154 0
15.865000 1.183355 3
15.870000 1.031942 0
15.875000 0.742459 0
15.880000 0.396658 0
15.885000 0.073206 0
15.890000 -0.176753 0
15.895000 -0.332493 0
15.900000 -0.395896 4
15.905000 -0.384175 0
15.910000 -0.324266 0
15.915000 -0.245460 0
15.920000 -0.170877 0
15.925000 -0.112291 0
15.930000 -0.070882 0
15.935000 -0.041938 0
15.940000 -0.019630 0
15.945000 0.000414 0
15.950000 0.020658 0
15.955000 0.042186 0
15.960000 0.065341 0
15.965000 0.090117 0
15.970000 0.116350 0
15.975000 0.143778 0
15.980000 0.172066 0
15.985000 0.200815 0
15.990000 0.229566 0
15.995000 0.257816 0
16.000000 0.285028 0
16.005000 0.310647 0
16.010000 0.334120 0
16.015000 0.354912 0
16.020000 0.372532 0
16.025000 0.386543 0
16.030000 0.396589 0
16.035000 0.402403 0
16.040000 0.403819 5
16.045000 0.400785 0
16.050000 0.393358 0
16.055000 0.381706 0
16.060000 0.366102 0
16.065000 0.346910 0
16.070000 0.324574 0
16.075000 0.299598 0
16.080000 0.272528 0
16.085000 0.243933 0
16.090000 0.214381 0
16.095000 0.184427 0
16.100000 0.154591 0
16.105000 0.125347 0
16.110000 0.097111 0
16.115000 0.070231 0
16.120000 0.044989 0
16.125000 0.021593 0
16.130000 0.000184 0
16.135000 -0.019162 0
16.140000 -0.036427 0
16.145000 -0.051645 0
16.150000 -0.064890 0
16.155000 -0.076271 0
16.160000 -0.085919 0
16.165000 -0.093983 0
16.170000 -0.100620 0
16.175000 -0.105992 0
16.180000 -0.110254 0
16.185000 -0.113558 0
16.190000 -0.116044 0
16.195000 -0.117840 0
16.200000 -0.119062 0
16.205000 -0.119810 0
16.210000 -0.120174 0
16.215000 -0.120228 0
16.220000 -0.119919 0
16.225000 -0.118921 0
16.230000 -0.117928 0
16.235000 -0.116941 0
16.240000 -0.115958 0
16.245000 -0.114980 0
16.250000 -0.114007 0
16.255000 -0.113039 0
16.260000 -0.112075 0
16.265000 -0.111117 0
16.270000 -0.110162 0
16.275000 -0.109213 0
16.280000 -0.108267 0
16.285000 -0.107324 0
16.290000 -0.106383 0
16.295000 -0.105441 0
16.300000 -0.104494 0
16.305000 -0.103534 0
16.310000 -0.102550 0
16.315000 -0.101523 0
16.320000 -0.100422 0
16.325000 -0.099203 0
16.330000 -0.097800 0
16.335000 -0.096119 0
16.340000 -0.094031 0
16.345000 -0.091364 0
16.350000 -0.087896 0
16.355000 -0.083355 0
16.360000 -0.077420 0
16.365000 -0.069729 0
16.370000 -0.059902 0
16.375000 -0.047574 0
16.380000 -0.032431 0
16.385000 -0.014265 0
16.390000 0.006972 0
16.395000 0.031114 0
16.400000 0.057741 0
16.405000 0.086157 0
16.410000 0.115393 0
16.415000 0.144247 0
16.420000 0.171357 0
16.425000 0.195299 0
16.430000 0.214711 0
16.435000 0.228423 0
16.440000 0.235567 0
16.445000 0.235675 1
16.450000 0.228724 0
16.455000 0.215146 0
16.460000 0.195776 0
16.465000 0.171775 0
16.470000 0.144507 0
16.475000 0.115417 0
16.480000 0.085889 0
16.485000 0.057114 0
16.490000 0.029909 0
16.495000 0.004460 0
16.500000 -0.020079 0
16.505000 -0.045978 0
16.510000 -0.076844 0
16.515000 -0.116304 0
16.520000 -0.165065 0
16.525000 -0.217348 0
16.530000 -0.259013 0
16.535000 -0.269219 2
16.540000 -0.224947 0
16.545000 -0.106192 0
16.550000 0.098119 0
16.555000 0.380755 0
16.560000 0.704490 0
16.565000 0.998957 0
16.570000 1.179184 0
16.575000 1.183489 3
16.580000 1.005349 0
16.585000 0.699792 0
16.590000 0.352808 0
16.595000 0.041014 0
16.600000 -0.189678 0
16.605000 -0.323698 0
16.610000 -0.367088 4
16.615000 -0.340465 0
16.620000 -0.272905 0
16.625000 -0.193565 0
16.630000 -0.123175 0
16.635000 -0.070288 0
16.640000 -0.033673 0
16.645000 -0.007689 0
16.650000 0.013309 0
16.655000 0.033103 0
16.660000 0.053630 0
16.665000 0.075653 0
16.670000 0.099351 0
16.675000 0.124641 0
16.680000 0.151308 0
16.685000 0.179048 0
16.690000 0.207487 0
16.695000 0.236187 0
16.700000 0.264654 0
16.705000 0.292352 0
16.710000 0.318717 0
16.715000 0.343179 0
16.720000 0.365176 0
16.725000 0.384182 0
16.730000 0.399719 0
16.735000 0.411384 0
16.740000 0.418861 0
16.745000 0.421937 5
16.750000 0.420510 0
16.755000 0.414597 0
16.760000 0.404328 0
16.765000 0.389947 0
16.770000 0.371795 0
16.775000 0.350305 0
16.780000 0.325975 0
16.785000 0.299356 0
16.790000 0.271026 0
16.795000 0.241572 0
16.800000 0.211569 0
16.805000 0.181562 0
16.810000 0.152048 0
16.815000 0.123470 0
16.820000 0.096199 0
16.825000 0.070539 0
16.830000 0.046717 0
16.835000 0.024890 0
16.840000 0.005145 0
16.845000 -0.012492 0
16.850000 -0.028048 0
16.855000 -0.041596 0
16.860000 -0.053242 0
16.865000 -0.063122 0
16.870000 -0.071386 0
16.875000 -0.078197 0
16.880000 -0.083718 0
16.885000 -0.088110 0
16.890000 -0.091529 0
16.895000 -0.094119 0
16.900000 -0.096011 0
16.905000 -0.097323 0
16.910000 -0.098160 0
16.915000 -0.098610 0
16.920000 -0.098752 0
16.925000 -0.098534 0
16.930000 -0.097643 0
16.935000 -0.096756 0
16.940000 -0.095874 0
16.945000 -0.094996 0
16.950000 -0.094123 0
16.955000 -0.093254 0
16.960000 -0.092389 0
16.965000 -0.091529 0
16.970000 -0.090672 0
16.975000 -0.089820 0
16.980000 -0.088972 0
16.985000 -0.088126 0
16.990000 -0.087283 0
16.995000 -0.086441 0
17.000000 -0.085596 0
17.005000 -0.084744 0
17.010000 -0.083875 0
17.015000 -0.082976 0
17.020000 -0.082023 0
17.025000 -0.080981 0
17.030000 -0.079798 0
17.035000 -0.078395 0
17.040000 -0.076663 0
17.045000 -0.074452 0
17.050000 -0.071567 0
17.055000 -0.067756 0
17.060000 -0.062718 0
17.065000 -0.056101 0
17.070000 -0.047524 0
17.075000 -0.036596 0
17.080000 -0.022964 0
17.085000 -0.006353 0
17.090000 0.013372 0
17.095000 0.036149 0
17.100000 0.061671 0
17.105000 0.089348 0
17.110000 0.118302 0
17.115000 0.147392 0
17.120000 0.175271 0
17.125000 0.200490 0
17.130000 0.221610 0
17.135000 0.237345 0
17.140000 0.246682 0
17.145000 0.248997 1
17.150000 0.244117 0
17.155000 0.232343 0
17.160000 0.214421 0
17.165000 0.191459 0
17.170000 0.164814 0
17.175000 0.135962 0
17.180000 0.106352 0
17.185000 0.077264 0
17.190000 0.049636 0
17.195000 0.023815 0
17.200000 -0.000840 0
17.205000 -0.026391 0
17.210000 -0.056374 0
17.215000 -0.094651 0
17.220000 -0.142544 0
17.225000 -0.195046 0
17.230000 -0.238522 0
17.235000 -0.252040 2
17.240000 -0.211956 0
17.245000 -0.097378 0
17.250000 0.103691 0
17.255000 0.384694 0
17.260000 0.708205 0
17.265000 1.002298 0
17.270000 1.179848 3
17.275000 1.178379 0
17.280000 0.992187 0
17.285000 0.680663 0
17.290000 0.334235 0
17.295000 0.030494 0
17.300000 -0.186626 0
17.305000 -0.304609 0
17.310000 -0.332754 4
17.315000 -0.294880 0
17.320000 -0.222240 0
17.325000 -0.143920 0
17.330000 -0.078358 0
17.335000 -0.031113 0
17.340000 0.001127 0
17.345000 0.024641 0
17.350000 0.044731 0
17.355000 0.064558 0
17.360000 0.085566 0
17.365000 0.108238 0
17.370000 0.132610 0
17.375000 0.158519 0
17.380000 0.185691 0
17.385000 0.213769 0
17.390000 0.242322 0
17.395000 0.270856 0
17.400000 0.298825 0
17.405000 0.325648 0
17.410000 0.350727 0
17.415000 0.373468 0
17.420000 0.393305 0
17.425000 0.409721 0
17.430000 0.422269 0
17.435000 0.430597 0
17.440000 0.434456 5
17.445000 0.433716 0
17.450000 0.428373 0
17.455000 0.418547 0
17.460000 0.404478 0
17.465000 0.386516 0
17.470000 0.365106 0
17.475000 0.340767 0
17.480000 0.314075 0
17.485000 0.285636 0
17.490000 0.256065 0
17.495000 0.225963 0
17.500000 0.195896 0
17.505000 0.166384 0
17.510000 0.137879 0
17.515000 0.110763 0
17.520000 0.085339 0
17.525000 0.061833 0
17.530000 0.040393 0
17.535000 0.021094 0
17.540000 0.003949 0
17.545000 -0.011085 0
17.550000 -0.024095 0
17.555000 -0.035205 0
17.560000 -0.044563 0
17.565000 -0.052331 0
17.570000 -0.058681 0
17.575000 -0.063784 0
17.580000 -0.067806 0
17.585000 -0.070905 0
17.590000 -0.073225 0
17.595000 -0.074897 0
17.600000 -0.076036 0
17.605000 -0.076742 0
17.610000 -0.077102 0
17.615000 -0.077062 0
17.620000 -0.076278 0
17.625000 -0.075498 0
17.630000 -0.074722 0
17.635000 -0.073950 0
17.640000 -0.073181 0
17.645000 -0.072417 0
17.650000 -0.071656 0
17.655000 -0.070899 0
17.660000 -0.070145 0
17.665000 -0.069396 0
17.670000 -0.068649 0
17.675000 -0.067905 0
17.680000 -0.067163 0
17.685000 -0.066421 0
17.690000 -0.065676 0
17.695000 -0.064923 0
17.700000 -0.064152 0
17.705000 -0.063348 0
17.710000 -0.062486 0
17.715000 -0.061528 0
17.720000 -0.060415 0
17.725000 -0.059062 0
17.730000 -0.057348 0
17.735000 -0.055107 0
17.740000 -0.052122 0
17.745000 -0.048117 0
17.750000 -0.042762 0
17.755000 -0.035676 0
17.760000 -0.026455 0
17.765000 -0.014696 0
17.770000 -0.000051 0
17.775000 0.017719 0
17.780000 0.038680 0
17.785000 0.062664 0
17.790000 0.089219 0
17.795000 0.117584 0
17.800000 0.146697 0
17.805000 0.175240 0
17.810000 0.201729 0
17.815000 0.224636 0
17.820000 0.242529 0
17.825000 0.254223 0
17.830000 0.258904 1
17.835000 0.256227 0
17.840000 0.246350 0
17.845000 0.229924 0
17.850000 0.208019 0
17.855000 0.182005 0
17.860000 0.153412 0
17.865000 0.123776 0
17.870000 0.094477 0
17.875000 0.066566 0
17.880000 0.040500 0
17.885000 0.015731 0
17.890000 -0.009777 0
17.895000 -0.039659 0
17.900000 -0.077967 0
17.905000 -0.126088 0
17.910000 -0.178612 0
17.915000 -0.220878 0
17.920000 -0.230623 2
17.925000 -0.183119 0
17.930000 -0.057194 0
17.935000 0.157722 0
17.940000 0.450324 0
17.945000 0.774452 0
17.950000 1.048971 0
17.955000 1.184742 3
17.960000 1.131006 0
17.965000 0.903525 0
17.970000 0.574291 0
17.975000 0.232440 0
17.980000 -0.053136 0
17.985000 -0.247433 0
17.990000 -0.343929 0
17.995000 -0.355477 4
18.000000 -0.307722 0
18.005000 -0.231779 0
18.010000 -0.154710 0
18.015000 -0.092214 0
18.020000 -0.047781 0
18.025000 -0.017261 0
18.030000 0.005552 0
18.035000 0.025567 0
18.040000 0.045604 0
18.045000 0.066915 0
18.050000 0.089894 0
18.055000 0.114545 0
18.060000 0.140696 0
18.065000 0.168067 0
18.070000 0.196300 0
18.075000 0.224967 0
18.080000 0.253577 0
18.085000 0.281593 0
18.090000 0.308441 0
18.095000 0.333535 0
18.100000 0.356290 0
18.105000 0.376151 0
18.110000 0.392612 0
18.115000 0.405237 0
18.120000 0.413677 0
18.125000 0.417689 5
18.130000 0.417143 0
18.135000 0.412033 0
18.140000 0.402472 0
18.145000 0.388691 0
18.150000 0.371031 0
18.155000 0.349922 0
18.160000 0.325871 0
18.165000 0.299442 0
18.170000 0.271227 0
18.175000 0.241830 0
18.180000 0.211845 0
18.185000 0.181834 0
18.190000 0.152312 0
18.195000 0.123734 0
18.200000 0.096484 0
18.205000 0.070872 0
18.210000 0.047131 0
18.215000 0.025418 0
18.220000 0.005820 0
18.225000 -0.011640 0
18.230000 -0.026996 0
18.235000 -0.040324 0
18.240000 -0.051741 0
18.245000 -0.061386 0
18.250000 -0.069418 0
18.255000 -0.076003 0
18.260000 -0.081310 0
18.265000 -0.085505 0
18.270000 -0.088745 0
18.275000 -0.091175 0
18.280000 -0.092928 0
18.285000 -0.094122 0
18.290000 -0.094859 0
18.295000 -0.095228 0
18.300000 -0.095304 0
18.305000 -0.094566 0
18.310000 -0.093695 0
18.315000 -0.092828 0
18.320000 -0.091965 0
18.325000 -0.091107 0
18.330000 -0.090253 0
18.335000 -0.089404 0
18.340000 -0.088558 0
18.345000 -0.087717 0
18.350000 -0.086879 0
18.355000 -0.086046 0
18.360000 -0.085216 0
18.365000 -0.084388 0
18.370000 -0.083562 0
18.375000 -0.082736 0
18.380000 -0.081904 0
18.385000 -0.081059 0
18.390000 -0.080191 0
18.395000 -0.079279 0
18.400000 -0.078293 0
18.405000 -0.077187 0
18.410000 -0.075890 0
18.415000 -0.074302 0
18.420000 -0.072286 0
18.425000 -0.069656 0
18.430000 -0.066172 0
18.435000 -0.061538 0
18.440000 -0.055407 0
18.445000 -0.047392 0
18.450000 -0.037091 0
18.455000 -0.024124 0
18.460000 -0.008186 0
18.465000 0.010898 0
18.470000 0.033111 0
18.475000 0.058187 0
18.480000 0.085570 0
18.485000 0.114403 0
18.490000 0.143546 0
18.495000 0.171636 0
18.500000 0.197186 0
18.505000 0.218709 0
18.510000 0.234860 0
18.515000 0.244575 0
18.520000 0.247186 1
18.525000 0.242494 0
18.530000 0.230799 0
18.535000 0.212861 0
18.540000 0.189822 0
18.545000 0.163084 0
18.550000 0.134166 0
18.555000 0.104555 0
18.560000 0.075551 0
18.565000 0.048085 0
18.570000 0.022434 0
18.575000 -0.002199 0
18.580000 -0.028137 0
18.585000 -0.059170 0
18.590000 -0.099098 0
18.595000 -0.148447 0
18.600000 -0.200531 0
18.605000 -0.239600 0
18.610000 -0.243073 2
18.615000 -0.186768 0
18.620000 -0.050736 0
18.625000 0.173610 0
18.630000 0.472071 0
18.635000 0.795559 0
18.640000 1.062097 0
18.645000 1.185254 3
18.650000 1.116324 0
18.655000 0.875731 0
18.660000 0.541022 0
18.665000 0.203071 0
18.670000 -0.071305 0
18.675000 -0.250641 0
18.680000 -0.331760 4
18.685000 -0.330495 0
18.690000 -0.274880 0
18.695000 -0.196878 0
18.700000 -0.122295 0
18.705000 -0.064284 0
18.710000 -0.024023 0
18.715000 0.003764 0
18.720000 0.025311 0
18.725000 0.045058 0
18.730000 0.065347 0
18.735000 0.087123 0
18.740000 0.110623 0
18.745000 0.135775 0
18.750000 0.162358 0
18.755000 0.190052 0
18.760000 0.218460 0
18.765000 0.247114 0
18.770000 0.275488 0
18.775000 0.303009 0
18.780000 0.329079 0
18.785000 0.353092 0
18.790000 0.374459 0
18.795000 0.392629 0
18.800000 0.407115 0
18.805000 0.417512 0
18.810000 0.423516 0
18.815000 0.424941 5
18.820000 0.421722 0
18.825000 0.413925 0
18.830000 0.401738 0
18.835000 0.385469 0
18.840000 0.365526 0
18.845000 0.342407 0
18.850000 0.316671 0
18.855000 0.288922 0
18.860000 0.259781 0
18.865000 0.229862 0
18.870000 0.199757 0
18.875000 0.170010 0
18.880000 0.141107 0
18.885000 0.113463 0
18.890000 0.087414 0
18.895000 0.063219 0
18.900000 0.041054 0
18.905000 0.021023 0
18.910000 0.003160 0
18.915000 -0.012560 0
18.920000 -0.026211 0
18.925000 -0.037907 0
18.930000 -0.047789 0
18.935000 -0.056019 0
18.940000 -0.062768 0
18.945000 -0.068210 0
18.950000 -0.072514 0
18.955000 -0.075844 0
18.960000 -0.078349 0
18.965000 -0.080166 0
18.970000 -0.081416 0
18.975000 -0.082204 0
18.980000 -0.082622 0
18.985000 -0.082746 0
18.990000 -0.082068 0
18.995000 -0.081259 0
19.000000 -0.080454 0
19.005000 -0.079654 0
19.010000 -0.078857 0
19.015000 -0.078064 0
19.020000 -0.077275 0
19.025000 -0.076490 0
19.030000 -0.075709 0
19.035000 -0.074931 0
19.040000 -0.074157 0
19.045000 -0.073386 0
19.050000 -0.072617 0
19.055000 -0.071849 0
19.060000 -0.071078 0
19.065000 -0.070301 0
19.070000 -0.069507 0
19.075000 -0.068684 0
19.080000 -0.067807 0
19.085000 -0.066840 0
19.090000 -0.065729 0
19.095000 -0.064389 0
19.100000 -0.062706 0
19.105000 -0.060517 0
19.110000 -0.057610 0
19.115000 -0.053713 0
19.120000 -0.048498 0
19.125000 -0.041586 0
19.130000 -0.032566 0
19.135000 -0.021032 0
19.140000 -0.006624 0
19.145000 0.010914 0
19.150000 0.031664 0
19.155000 0.055475 0
19.160000 0.081913 0
19.165000 0.110227 0
19.170000 0.139360 0
19.175000 0.167991 0
19.180000 0.194624 0
19.185000 0.217714 0
19.190000 0.235805 0
19.195000 0.247690 0
19.200000 0.252536 1
19.205000 0.249982 0
19.210000 0.240184 0
19.215000 0.223796 0
19.220000 0.201900 0
19.225000 0.175881 0
19.230000 0.147289 0
19.235000 0.117674 0
19.240000 0.088428 0
19.245000 0.060601 0
19.250000 0.034628 0
19.255000 0.009905 0
19.260000 -0.015705 0
19.265000 -0.045938 0
19.270000 -0.084842 0
19.275000 -0.133506 0
19.280000 -0.185864 0
19.285000 -0.226415 0
19.290000 -0.232236 2
19.295000 -0.178390 0
19.300000 -0.044108 0
19.305000 0.179741 0
19.310000 0.478653 0
19.315000 0.801731 0
19.320000 1.064129 0
19.325000 1.177770 3
19.330000 1.095907 0
19.335000 0.844310 0
19.340000 0.505609 0
19.345000 0.172154 0
19.350000 -0.091256 0
19.355000 -0.256443 0
19.360000 -0.323362 4
19.365000 -0.310693 0
19.370000 -0.248658 0
19.375000 -0.169715 0
19.380000 -0.098120 0
19.385000 -0.044472 0
19.390000 -0.007901 0
19.395000 0.017683 0
19.400000 0.038357 0
19.405000 0.058064 0
19.410000 0.078714 0
19.415000 0.101001 0
19.420000 0.125039 0
19.425000 0.150691 0
19.430000 0.177691 0
19.435000 0.205681 0
19.440000 0.234221 0
19.445000 0.262807 0
19.450000 0.290873 0
19.455000 0.317817 0
19.460000 0.343017 0
19.465000 0.365853 0
19.470000 0.385734 0
19.475000 0.402121 0
19.480000 0.414552 0
19.485000 0.422660 0
19.490000 0.426195 5
19.495000 0.425032 0
19.500000 0.419178 0
19.505000 0.408773 0
19.510000 0.394084 0
19.515000 0.375492 0
19.520000 0.353476 0
19.525000 0.328590 0
19.530000 0.301444 0
19.535000 0.272672 0
19.540000 0.242912 0
19.545000 0.212783 0
19.550000 0.182861 0
19.555000 0.153665 0
19.560000 0.125643 0
19.565000 0.099162 0
19.570000 0.074507 0
19.575000 0.051879 0
19.580000 0.031399 0
19.585000 0.013116 0
19.590000 -0.002985 0
19.595000 -0.016973 0
19.600000 -0.028959 0
19.605000 -0.039087 0
19.610000 -0.047519 0
19.615000 -0.054432 0
19.620000 -0.060004 0
19.625000 -0.064411 0
19.630000 -0.067820 0
19.635000 -0.070387 0
19.640000 -0.072253 0
19.645000 -0.073542 0
19.650000 -0.074364 0
19.655000 -0.074811 0
19.660000 -0.074962 0
19.665000 -0.074322 0
19.670000 -0.073552 0
19.675000 -0.072785 0
19.680000 -0.072023 0
19.685000 -0.071264 0
19.690000 -0.070509 0
19.695000 -0.069758 0
19.700000 -0.069010 0
19.705000 -0.068266 0
19.710000 -0.067526 0
19.715000 -0.066788 0
19.720000 -0.066054 0
19.725000 -0.065321 0
19.730000 -0.064588 0
19.735000 -0.063851 0
19.740000 -0.063105 0
19.745000 -0.062339 0
19.750000 -0.061537 0
19.755000 -0.060670 0
19.760000 -0.059695 0
19.765000 -0.058547 0
19.770000 -0.057129 0
19.775000 -0.055306 0
19.780000 -0.052892 0
19.785000 -0.049643 0
19.790000 -0.045255 0
19.795000 -0.039366 0
19.800000 -0.031568 0
19.805000 -0.021436 0
19.810000 -0.008566 0
19.815000 0.007368 0
19.820000 0.026547 0
19.825000 0.048939 0
19.830000 0.074240 0
19.835000 0.101824 0
19.840000 0.130738 0
19.845000 0.159729 0
19.850000 0.187316 0
19.855000 0.211910 0
19.860000 0.231961 0
19.865000 0.246115 0
19.870000 0.253365 1
19.875000 0.253171 0
19.880000 0.245521 0
19.885000 0.230937 0
19.890000 0.210416 0
19.895000 0.185313 0
19.900000 0.157193 0
19.905000 0.127667 0
19.910000 0.098222 0
19.915000 0.070032 0
19.920000 0.043700 0
19.925000 0.018841 0
19.930000 -0.006449 0
19.935000 -0.035798 0
19.940000 -0.073475 0
19.945000 -0.121213 0
19.950000 -0.173759 0
19.955000 -0.216081 0
19.960000 -0.225036 2
19.965000 -0.174905 0
19.970000 -0.043932 0
19.975000 0.177889 0
19.980000 0.476289 0
19.985000 0.799182 0
19.990000 1.059147 0
19.995000 1.166124 3
20.000000 1.079482 0
20.005000 0.827783 0
20.010000 0.489977 0
20.015000 0.154487 0
20.020000 -0.115279 0
20.025000 -0.290203 0
20.030000 -0.368147 4
20.035000 -0.365134 0
20.040000 -0.308853 0
20.045000 -0.230641 0
20.050000 -0.155788 0
20.055000 -0.097283 0
20.060000 -0.056433 0
20.065000 -0.028145 0
20.070000 -0.006270 0
20.075000 0.013650 0
20.080000 0.034010 0
20.085000 0.055804 0
20.090000 0.079299 0
20.095000 0.104443 0
20.100000 0.131028 0
20.105000 0.158751 0
20.110000 0.187232 0
20.115000 0.216018 0
20.120000 0.244603 0
20.125000 0.272430 0
20.130000 0.298916 0
20.135000 0.323467 0
20.140000 0.345500 0
20.145000 0.364467 0
20.150000 0.379877 0
20.155000 0.391314 0
20.160000 0.398459 0
20.165000 0.401101 5
20.170000 0.399149 0
20.175000 0.392635 0
20.180000 0.381715 0
20.185000 0.366659 0
20.190000 0.347844 0
20.195000 0.325732 0
20.200000 0.300857 0
20.205000 0.273800 0
20.210000 0.245167 0
20.215000 0.215564 0
20.220000 0.185582 0
20.225000 0.155772 0
20.230000 0.126632 0
20.235000 0.098595 0
20.240000 0.072020 0
20.245000 0.047190 0
20.250000 0.024310 0
20.255000 0.003510 0
20.260000 -0.015151 0
20.265000 -0.031672 0
20.270000 -0.046107 0
20.275000 -0.058551 0
20.280000 -0.069132 0
20.285000 -0.078000 0
20.290000 -0.085320 0
20.295000 -0.091261 0
20.300000 -0.095993 0
20.305000 -0.099679 0
20.310000 -0.102474 0
20.315000 -0.104517 0
20.320000 -0.105937 0
20.325000 -0.106845 0
20.330000 -0.107337 0
20.335000 -0.107498 0
20.340000 -0.107275 0
20.345000 -0.106340 0
20.350000 -0.105410 0
20.355000 -0.104485 0
20.360000 -0.103564 0
20.365000 -0.102648 0
20.370000 -0.101737 0
20.375000 -0.100830 0
20.380000 -0.099927 0
20.385000 -0.099029 0
20.390000 -0.098135 0
20.395000 -0.097245 0
20.400000 -0.096359 0
20.405000 -0.095474 0
20.410000 -0.094591 0
20.415000 -0.093705 0
20.420000 -0.092810 0
20.425000 -0.091898 0
20.430000 -0.090952 0
20.435000 -0.089946 0
20.440000 -0.088843 0
20.445000 -0.087582 0
20.450000 -0.086076 0
20.455000 -0.084204 0
20.460000 -0.081799 0
20.465000 -0.078642 0
20.470000 -0.074458 0
20.475000 -0.068917 0
20.480000 -0.061642 0
20.485000 -0.052229 0
20.490000 -0.040281 0
20.495000 -0.025454 0
20.500000 -0.007515 0
20.505000 0.013601 0
20.510000 0.037723 0
20.515000 0.064403 0
20.520000 0.092887 0
20.525000 0.122121 0
20.530000 0.150801 0
20.535000 0.177459 0
20.540000 0.200577 0
20.545000 0.218734 0
20.550000 0.230745 0
20.555000 0.235793 1
20.560000 0.233516 0
20.565000 0.224054 0
20.570000 0.208031 0
20.575000 0.186492 0
20.580000 0.160782 0
20.585000 0.132415 0
20.590000 0.102915 0
20.595000 0.073668 0
20.600000 0.045745 0
20.605000 0.019654 0
20.610000 -0.005053 0
20.615000 -0.030259 0
20.620000 -0.059450 0
20.625000 -0.096710 0
20.630000 -0.143844 0
20.635000 -0.196322 0
20.640000 -0.240561 0
20.645000 -0.255093 2
20.650000 -0.215374 0
20.655000 -0.099686 0
20.660000 0.104221 0
20.665000 0.388637 0
20.670000 0.712752 0
20.675000 0.999836 0
20.680000 1.160025 3
20.685000 1.134356 0
20.690000 0.928318 0
20.695000 0.608038 0
20.700000 0.263170 0
20.705000 -0.032923 0
20.710000 -0.240496 0
20.715000 -0.349693 0
20.720000 -0.371214 4
20.725000 -0.329439 0
20.730000 -0.255383 0
20.735000 -0.177239 0
20.740000 -0.112417 0
20.745000 -0.065788 0
20.750000 -0.033823 0
20.755000 -0.010309 0
20.760000 0.009921 0
20.765000 0.029934 0
20.770000 0.051130 0
20.775000 0.073978 0
20.780000 0.098512 0
20.785000 0.124573 0
20.790000 0.151891 0
20.795000 0.180115 0
20.800000 0.208823 0
20.805000 0.237530 0
20.810000 0.265699 0
20.815000 0.292759 0
20.820000 0.318120 0
20.825000 0.341197 0
20.830000 0.361429 0
20.835000 0.378301 0
20.840000 0.391368 0
20.845000 0.400272 0
20.850000 0.404758 5
20.855000 0.404686 0
20.860000 0.400037 0
20.865000 0.390915 0
20.870000 0.377543 0
20.875000 0.360251 0
20.880000 0.339466 0
20.885000 0.315692 0
20.890000 0.289488 0
20.895000 0.261448 0
20.900000 0.232179 0
20.905000 0.202277 0
20.910000 0.172308 0
20.915000 0.142794 0
20.920000 0.114195 0
20.925000 0.086903 0
20.930000 0.061233 0
20.935000 0.037423 0
20.940000 0.015637 0
20.945000 -0.004035 0
20.950000 -0.021566 0
20.955000 -0.036986 0
20.960000 -0.050371 0
20.965000 -0.061834 0
20.970000 -0.071515 0
20.975000 -0.079571 0
20.980000 -0.086171 0
20.985000 -0.091484 0
20.990000 -0.095675 0
20.995000 -0.098902 0
21.000000 -0.101313 0
21.005000 -0.103040 0
21.010000 -0.104203 0
21.015000 -0.104905 0
21.020000 -0.105235 0
21.025000 -0.105271 0
21.030000 -0.104485 0
21.035000 -0.103564 0
21.040000 -0.102648 0
21.045000 -0.101736 0
21.050000 -0.100829 0
21.055000 -0.099927 0
21.060000 -0.099029 0
21.065000 -0.098135 0
21.070000 -0.097246 0
21.075000 -0.096361 0
21.080000 -0.095481 0
21.085000 -0.094604 0
21.090000 -0.093729 0
21.095000 -0.092857 0
21.100000 -0.091984 0
21.105000 -0.091106 0
21.110000 -0.090216 0
21.115000 -0.089302 0
21.120000 -0.088345 0
21.125000 -0.087314 0
21.130000 -0.086163 0
21.135000 -0.084820 0
21.140000 -0.083188 0
21.145000 -0.081125 0
21.150000 -0.078447 0
21.155000 -0.074911 0
21.160000 -0.070222 0
21.165000 -0.064030 0
21.170000 -0.055946 0
21.175000 -0.045567 0
21.180000 -0.032513 0
21.185000 -0.016480 0
21.190000 0.002706 0
21.195000 0.025024 0
21.200000 0.050199 0
21.205000 0.077670 0
21.210000 0.106569 0
21.215000 0.135745 0
21.220000 0.163827 0
21.225000 0.189320 0
21.230000 0.210736 0
21.235000 0.226733 0
21.240000 0.236252 0
21.245000 0.238640 1
21.250000 0.233717 0
21.255000 0.221800 0
21.260000 0.203669 0
21.265000 0.180484 0
21.270000 0.153658 0
21.275000 0.124717 0
21.280000 0.095148 0
21.285000 0.066241 0
21.290000 0.038907 0
21.295000 0.013380 0
21.300000 -0.011211 0
21.305000 -0.037285 0
21.310000 -0.068701 0
21.315000 -0.109185 0
21.320000 -0.158942 0
21.325000 -0.210728 0
21.330000 -0.248211 0
21.335000 -0.248462 2
21.340000 -0.187322 0
21.345000 -0.045286 0
21.350000 0.185110 0
21.355000 0.487494 0
21.360000 0.809908 0
21.365000 1.068493 0
21.370000 1.177997 3
21.375000 1.095224 0
21.380000 0.845733 0
21.385000 0.508433 0
21.390000 0.172493 0
21.395000 -0.097898 0
21.400000 -0.273196 0
21.405000 -0.351175 4
21.410000 -0.347972 0
21.415000 -0.291498 0
21.420000 -0.213293 0
21.425000 -0.138704 0
21.430000 -0.080618 0
21.435000 -0.040185 0
21.440000 -0.012207 0
21.445000 0.009486 0
21.450000 0.029317 0
21.455000 0.049644 0
21.460000 0.071428 0
21.465000 0.094924 0
21.470000 0.120068 0
21.475000 0.146647 0
21.480000 0.174350 0
21.485000 0.202791 0
21.490000 0.231512 0
21.495000 0.259996 0
21.500000 0.287684 0
21.505000 0.313985 0
21.510000 0.338301 0
21.515000 0.360048 0
21.520000 0.378677 0
21.525000 0.393698 0
21.530000 0.404702 0
21.535000 0.411375 0
21.540000 0.413515 5
21.545000 0.411044 0
21.550000 0.404005 0
21.555000 0.392567 0
21.560000 0.377016 0
21.565000 0.357739 0
21.570000 0.335213 0
21.575000 0.309982 0
21.580000 0.282634 0
21.585000 0.253781 0
21.590000 0.224034 0
21.595000 0.193982 0
21.600000 0.164174 0
21.605000 0.135103 0
21.610000 0.107195 0
21.615000 0.080801 0
21.620000 0.056195 0
21.625000 0.033569 0
21.630000 0.013045 0
21.635000 -0.005329 0
21.640000 -0.021560 0
21.645000 -0.035712 0
21.650000 -0.047886 0
21.655000 -0.058215 0
21.660000 -0.066853 0
21.665000 -0.073969 0
21.670000 -0.079733 0
21.675000 -0.084315 0
21.680000 -0.087878 0
21.685000 -0.090574 0
21.690000 -0.092544 0
21.695000 -0.093911 0
21.700000 -0.094785 0
21.705000 -0.095261 0
21.710000 -0.095420 0
21.715000 -0.095215 0
21.720000 -0.094341 0
21.725000 -0.093471 0
21.730000 -0.092605 0
21.735000 -0.091744 0
21.740000 -0.090887 0
21.745000 -0.090034 0
21.750000 -0.089185 0
21.755000 -0.088341 0
21.760000 -0.087500 0
21.765000 -0.086664 0
21.770000 -0.085831 0
21.775000 -0.085001 0
21.780000 -0.084172 0
21.785000 -0.083344 0
21.790000 -0.082511 0
21.795000 -0.081667 0
21.800000 -0.080801 0
21.805000 -0.079896 0
21.810000 -0.078921 0
21.815000 -0.077832 0
21.820000 -0.076563 0
21.825000 -0.075016 0
21.830000 -0.073055 0
21.835000 -0.070499 0
21.840000 -0.067109 0
21.845000 -0.062592 0
21.850000 -0.056598 0
21.855000 -0.048736 0
21.860000 -0.038598 0
21.865000 -0.025796 0
21.870000 -0.010013 0
21.875000 0.008939 0
21.880000 0.031049 0
21.885000 0.056059 0
21.890000 0.083412 0
21.895000 0.112243 0
21.900000 0.141396 0
21.905000 0.169488 0
21.910000 0.195008 0
21.915000 0.216445 0
21.920000 0.232437 0
21.925000 0.241914 0
21.930000 0.244211 1
21.935000 0.239152 0
21.940000 0.227065 0
21.945000 0.208749 0
21.950000 0.185386 0
21.955000 0.158416 0
21.960000 0.129383 0
21.965000 0.099789 0
21.970000 0.070925 0
21.975000 0.043680 0
21.980000 0.018233 0
21.985000 -0.006400 0
21.990000 -0.032804 0
21.995000 -0.064959 0
22.000000 -0.106477 0
22.005000 -0.156976 0
22.010000 -0.208166 0
22.015000 -0.242563 2
22.020000 -0.236497 0
22.025000 -0.165765 0
22.030000 -0.011713 0
22.035000 0.230706 0
22.040000 0.540290 0
22.045000 0.858727 0
22.050000 1.098220 0
22.055000 1.176574 3
22.060000 1.063281 0
22.065000 0.796500 0
22.070000 0.455154 0
22.075000 0.122626 0
22.080000 -0.142882 0
22.085000 -0.315121 0
22.090000 -0.392654 4
22.095000 -0.390855 0
22.100000 -0.336041 0
22.105000 -0.258225 0
22.110000 -0.182216 0
22.115000 -0.121530 0
22.120000 -0.078430 0
22.125000 -0.048510 0
22.130000 -0.025796 0
22.135000 -0.005660 0
22.140000 0.014546 0
22.145000 0.036006 0
22.150000 0.059100 0
22.155000 0.083836 0
22.160000 0.110051 0
22.165000 0.137482 0
22.170000 0.165789 0
22.175000 0.194566 0
22.180000 0.223348 0
22.185000 0.251621 0
22.190000 0.278837 0
22.195000 0.304432 0
22.200000 0.327843 0
22.205000 0.348526 0
22.210000 0.365982 0
22.215000 0.379772 0
22.220000 0.389539 0
22.225000 0.395016 0
22.230000 0.396047 5
22.235000 0.392586 0
22.240000 0.384706 0
22.245000 0.372588 0
22.250000 0.356523 0
22.255000 0.336894 0
22.260000 0.314162 0
22.265000 0.288847 0
22.270000 0.261511 0
22.275000 0.232733 0
22.280000 0.203094 0
22.285000 0.173150 0
22.290000 0.143426 0
22.295000 0.114390 0
22.300000 0.086452 0
22.305000 0.059954 0
22.310000 0.035163 0
22.315000 0.012276 0
22.320000 -0.008582 0
22.325000 -0.027349 0
22.330000 -0.044021 0
22.335000 -0.058646 0
22.340000 -0.071309 0
22.345000 -0.082129 0
22.350000 -0.091247 0
22.355000 -0.098817 0
22.360000 -0.105001 0
22.365000 -0.109962 0
22.370000 -0.113858 0
22.375000 -0.116839 0
22.380000 -0.119043 0
22.385000 -0.120596 0
22.390000 -0.121611 0
22.395000 -0.122185 0
22.400000 -0.122403 0
22.405000 -0.122337 0
22.410000 -0.121464 0
22.415000 -0.120459 0
22.420000 -0.119458 0
22.425000 -0.118463 0
22.430000 -0.117473 0
22.435000 -0.116487 0
22.440000 -0.115506 0
22.445000 -0.114531 0
22.450000 -0.113560 0
22.455000 -0.112594 0
22.460000 -0.111632 0
22.465000 -0.110674 0
22.470000 -0.109720 0
22.475000 -0.108769 0
22.480000 -0.107818 0
22.485000 -0.106864 0
22.490000 -0.105901 0
22.495000 -0.104919 0
22.500000 -0.103903 0
22.505000 -0.102826 0
22.510000 -0.101650 0
22.515000 -0.100316 0
22.520000 -0.098742 0
22.525000 -0.096808 0
22.530000 -0.094358 0
22.535000 -0.091183 0
22.540000 -0.087025 0
22.545000 -0.081570 0
22.550000 -0.074464 0
22.555000 -0.065322 0
22.560000 -0.053763 0
22.565000 -0.039447 0
22.570000 -0.022125 0
22.575000 -0.001698 0
22.580000 0.021729 0
22.585000 0.047800 0
22.590000 0.075877 0
22.595000 0.105038 0
22.600000 0.134110 0
22.605000 0.161733 0
22.610000 0.186462 0
22.615000 0.206886 0
22.620000 0.221765 0
22.625000 0.230148 0
22.630000 0.231482 1
22.635000 0.225666 0
22.640000 0.213064 0
22.645000 0.194472 0
22.650000 0.171029 0
22.655000 0.144106 0
22.660000 0.115170 0
22.665000 0.085646 0
22.670000 0.056772 0
22.675000 0.029427 0
22.680000 0.003869 0
22.685000 -0.020668 0
22.690000 -0.046390 0
22.695000 -0.076910 0
22.700000 -0.115973 0
22.705000 -0.164482 0
22.710000 -0.216796 0
22.715000 -0.258697 0
22.720000 -0.269035 2
22.725000 -0.224371 0
22.730000 -0.104376 0
22.735000 0.102015 0
22.740000 0.386807 0
22.745000 0.710915 0
22.750000 1.001516 0
22.755000 1.172354 3
22.760000 1.163261 0
22.765000 0.973373 0
22.770000 0.661957 0
22.775000 0.315299 0
22.780000 0.008054 0
22.785000 -0.216272 0
22.790000 -0.343889 0
22.795000 -0.381960 4
22.800000 -0.351787 0
22.805000 -0.282639 0
22.810000 -0.203293 0
22.815000 -0.133734 0
22.820000 -0.081803 0
22.825000 -0.045872 0
22.830000 -0.020219 0
22.835000 0.000708 0
22.840000 0.020573 0
22.845000 0.041230 0
22.850000 0.063399 0
22.855000 0.087241 0
22.860000 0.112665 0
22.865000 0.139450 0
22.870000 0.167293 0
22.875000 0.195817 0
22.880000 0.224581 0
22.885000 0.253092 0
22.890000 0.280814 0
22.895000 0.307185 0
22.900000 0.331635 0
22.905000 0.353607 0
22.910000 0.372574 0
22.915000 0.388065 0
22.920000 0.399678 0
22.925000 0.407102 0
22.930000 0.410127 5
22.935000 0.408656 0
22.940000 0.402705 0
22.945000 0.392409 0
22.950000 0.378012 0
22.955000 0.359857 0
22.960000 0.338376 0
22.965000 0.314067 0
22.970000 0.287480 0
22.975000 0.259191 0
22.980000 0.229787 0
22.985000 0.199839 0
22.990000 0.169891 0
22.995000 0.140439 0
23.000000 0.111922 0
23.005000 0.084712 0
23.010000 0.059111 0
23.015000 0.035346 0
23.020000 0.013572 0
23.025000 -0.006124 0
23.030000 -0.023714 0
23.035000 -0.039227 0
23.040000 -0.052733 0
23.045000 -0.064340 0
23.050000 -0.074182 0
23.055000 -0.082409 0
23.060000 -0.089183 0
23.065000 -0.094667 0
23.070000 -0.099022 0
23.075000 -0.102402 0
23.080000 -0.104952 0
23.085000 -0.106803 0
23.090000 -0.108073 0
23.095000 -0.108866 0
23.100000 -0.109272 0
23.105000 -0.109368 0
23.110000 -0.109102 0
23.115000 -0.108158 0
23.120000 -0.107219 0
23.125000 -0.106285 0
23.130000 -0.105355 0
23.135000 -0.104430 0
23.140000 -0.103510 0
23.145000 -0.102594 0
23.150000 -0.101683 0
23.155000 -0.100776 0
23.160000 -0.099873 0
23.165000 -0.098974 0
23.170000 -0.098079 0
23.175000 -0.097187 0
23.180000 -0.096295 0
23.185000 -0.095402 0
23.190000 -0.094501 0
23.195000 -0.093585 0
23.200000 -0.092640 0
23.205000 -0.091643 0
23.210000 -0.090560 0
23.215000 -0.089339 0
23.220000 -0.087905 0
23.225000 -0.086150 0
23.230000 -0.083929 0
23.235000 -0.081048 0
23.240000 -0.077262 0
23.245000 -0.072272 0
23.250000 -0.065731 0
23.255000 -0.057260 0
23.260000 -0.046470 0
23.265000 -0.033003 0
23.270000 -0.016579 0
23.275000 0.002951 0
23.280000 0.025541 0
23.285000 0.050905 0
23.290000 0.078479 0
23.295000 0.107410 0
23.300000 0.136580 0
23.305000 0.164661 0
23.310000 0.190211 0
23.315000 0.211790 0
23.320000 0.228096 0
23.325000 0.238091 0
23.330000 0.241112 1
23.335000 0.236946 0
23.340000 0.225847 0
23.345000 0.208519 0
23.350000 0.186036 0
23.355000 0.159734 0
23.360000 0.131079 0
23.365000 0.101523 0
23.370000 0.072367 0
23.375000 0.044595 0
23.380000 0.018628 0
23.385000 -0.006042 0
23.390000 -0.031304 0
23.395000 -0.060546 0
23.400000 -0.097695 0
23.405000 -0.144547 0
23.410000 -0.197007 0
23.415000 -0.242489 0
23.420000 -0.260785 2
23.425000 -0.228354 0
23.430000 -0.123740 0
23.435000 0.066524 0
23.440000 0.338870 0
23.445000 0.660375 0
23.450000 0.963168 0
23.455000 1.160345 0
23.460000 1.184020 3
23.465000 1.021346 0
23.470000 0.722734 0
23.475000 0.375924 0
23.480000 0.061363 0
23.485000 -0.172025 0
23.490000 -0.307348 0
23.495000 -0.350576 4
23.500000 -0.322999 0
23.505000 -0.254675 0
23.510000 -0.175487 0
23.515000 -0.106211 0
23.520000 -0.054873 0
23.525000 -0.019634 0
23.530000 0.005473 0
23.535000 0.026097 0
23.540000 0.045867 0
23.545000 0.066559 0
23.550000 0.088833 0
23.555000 0.112809 0
23.560000 0.138368 0
23.565000 0.165267 0
23.570000 0.193176 0
23.575000 0.221693 0
23.580000 0.250348 0
23.585000 0.278618 0
23.590000 0.305941 0
23.595000 0.331731 0
23.600000 0.355399 0
23.605000 0.376375 0
23.610000 0.394132 0
23.615000 0.408201 0
23.620000 0.418201 0
23.625000 0.423845 0
23.630000 0.424960 5
23.635000 0.421494 0
23.640000 0.413517 0
23.645000 0.401217 0
23.650000 0.384896 0
23.655000 0.364955 0
23.660000 0.341878 0
23.665000 0.316209 0
23.670000 0.288534 0
23.675000 0.259460 0
23.680000 0.229585 0
23.685000 0.199486 0
23.690000 0.169699 0
23.695000 0.140703 0
23.700000 0.112907 0
23.705000 0.086651 0
23.710000 0.062195 0
23.715000 0.039722 0
23.720000 0.019343 0
23.725000 0.001104 0
23.730000 -0.015011 0
23.735000 -0.029064 0
23.740000 -0.041161 0
23.745000 -0.051433 0
23.750000 -0.060033 0
23.755000 -0.067128 0
23.760000 -0.072886 0
23.765000 -0.077474 0
23.770000 -0.081054 0
23.775000 -0.083775 0
23.780000 -0.085775 0
23.785000 -0.087177 0
23.790000 -0.088088 0
23.795000 -0.088604 0
23.800000 -0.088802 0
23.805000 -0.088635 0
23.810000 -0.087794 0
23.815000 -0.086956 0
23.820000 -0.086123 0
23.825000 -0.085294 0
23.830000 -0.084469 0
23.835000 -0.083648 0
23.840000 -0.082831 0
23.845000 -0.082019 0
23.850000 -0.081210 0
23.855000 -0.080405 0
23.860000 -0.079603 0
23.865000 -0.078804 0
23.870000 -0.078007 0
23.875000 -0.077210 0
23.880000 -0.076409 0
23.885000 -0.075598 0
23.890000 -0.074768 0
23.895000 -0.073900 0
23.900000 -0.072970 0
23.905000 -0.071935 0
23.910000 -0.070733 0
23.915000 -0.069275 0
23.920000 -0.067434 0
23.925000 -0.065040 0
23.930000 -0.061869 0
23.935000 -0.057642 0
23.940000 -0.052025 0
23.945000 -0.044641 0
23.950000 -0.035086 0
23.955000 -0.022970 0
23.960000 -0.007960 0
23.965000 0.010167 0
23.970000 0.031456 0
23.975000 0.055716 0
23.980000 0.082480 0
23.985000 0.110974 0
23.990000 0.140134 0
23.995000 0.168650 0
24.000000 0.195055 0
24.005000 0.217845 0
24.010000 0.235615 0
24.015000 0.247208 0
24.020000 0.251831 1
24.025000 0.249150 0
24.030000 0.239324 0
24.035000 0.222995 0
24.040000 0.201210 0
24.045000 0.175318 0
24.050000 0.146822 0
24.055000 0.117237 0
24.060000 0.087934 0
24.065000 0.059967 0
24.070000 0.033828 0
24.075000 0.009058 0
24.080000 -0.016234 0
24.085000 -0.045521 0
24.090000 -0.082860 0
24.095000 -0.130043 0
24.100000 -0.182591 0
24.105000 -0.227062 0
24.110000 -0.242179 2
24.115000 -0.203559 0
24.120000 -0.089535 0
24.125000 0.112329 0
24.130000 0.394970 0
24.135000 0.718811 0
24.140000 1.008468 0
24.145000 1.174431 3
24.150000 1.156935 0
24.155000 0.959977 0
24.160000 0.645020 0
24.165000 0.298763 0
24.170000 -0.005206 0
24.175000 -0.224874 0
24.180000 -0.347658 0
24.185000 -0.381595 4
24.190000 -0.348605 0
24.195000 -0.278226 0
24.200000 -0.199009 0
24.205000 -0.130341 0
24.210000 -0.079432 0
24.215000 -0.044269 0
24.220000 -0.019037 0
24.225000 0.001744 0
24.230000 0.021621 0
24.235000 0.042361 0
24.240000 0.064637 0
24.245000 0.088588 0
24.250000 0.114110 0
24.255000 0.140979 0
24.260000 0.168882 0
24.265000 0.197439 0
24.270000 0.226205 0
24.275000 0.254679 0
24.280000 0.282324 0
24.285000 0.308575 0
24.290000 0.332861 0
24.295000 0.354625 0
24.300000 0.373343 0
24.305000 0.388546 0
24.310000 0.399839 0
24.315000 0.406918 0
24.320000 0.409581 5
24.325000 0.407740 0
24.330000 0.401421 0
24.335000 0.390768 0
24.340000 0.376035 0
24.345000 0.357575 0
24.350000 0.335825 0
24.355000 0.311292 0
24.360000 0.284529 0
24.365000 0.256116 0
24.370000 0.226640 0
24.375000 0.196671 0
24.380000 0.166751 0
24.385000 0.137372 0
24.390000 0.108968 0
24.395000 0.081906 0
24.400000 0.056480 0
24.405000 0.032909 0
24.410000 0.011344 0
24.415000 -0.008135 0
24.420000 -0.025506 0
24.425000 -0.040804 0
24.430000 -0.054102 0
24.435000 -0.065513 0
24.440000 -0.075173 0
24.445000 -0.083233 0
24.450000 -0.089855 0
24.455000 -0.095205 0
24.460000 -0.099443 0
24.465000 -0.102721 0
24.470000 -0.105185 0
24.475000 -0.106962 0
24.480000 -0.108172 0
24.485000 -0.108914 0
24.490000 -0.109279 0
24.495000 -0.109342 0
24.500000 -0.108543 0
24.505000 -0.107602 0
24.510000 -0.106666 0
24.515000 -0.105735 0
24.520000 -0.104808 0
24.525000 -0.103885 0
24.530000 -0.102968 0
24.535000 -0.102055 0
24.540000 -0.101146 0
24.545000 -0.100242 0
24.550000 -0.099342 0
24.555000 -0.098446 0
24.560000 -0.097553 0
24.565000 -0.096663 0
24.570000 -0.095773 0
24.575000 -0.094881 0
24.580000 -0.093981 0
24.585000 -0.093064 0
24.590000 -0.092115 0
24.595000 -0.091110 0
24.600000 -0.090012 0
24.605000 -0.088768 0
24.610000 -0.087296 0
24.615000 -0.085485 0
24.620000 -0.083181 0
24.625000 -0.080183 0
24.630000 -0.076238 0
24.635000 -0.071037 0
24.640000 -0.064228 0
24.645000 -0.055426 0
24.650000 -0.044245 0
24.655000 -0.030333 0
24.660000 -0.013427 0
24.665000 0.006595 0
24.670000 0.029653 0
24.675000 0.055417 0
24.680000 0.083275 0
24.685000 0.112327 0
24.690000 0.141413 0
24.695000 0.169176 0
24.700000 0.194163 0
24.705000 0.214944 0
24.710000 0.230250 0
24.715000 0.239096 0
24.720000 0.240893 1
24.725000 0.235503 0
24.730000 0.223265 0
24.735000 0.204953 0
24.740000 0.181699 0
24.745000 0.154874 0
24.750000 0.125954 0
24.755000 0.096381 0
24.760000 0.067414 0
24.765000 0.039956 0
24.770000 0.014297 0
24.775000 -0.010295 0
24.780000 -0.035999 0
24.785000 -0.066429 0
24.790000 -0.105376 0
24.795000 -0.153829 0
24.800000 -0.206205 0
24.805000 -0.248258 0
24.810000 -0.258702 2
24.815000 -0.213924 0
24.820000 -0.093453 0
24.825000 0.113765 0
24.830000 0.399407 0
24.835000 0.723582 0
24.840000 1.012425 0
24.845000 1.179169 3
24.850000 1.163821 0
24.855000 0.966733 0
24.860000 0.650823 0
24.865000 0.304851 0
24.870000 0.003467 0
24.875000 -0.211534 0
24.880000 -0.328494 0
24.885000 -0.356683 4
24.890000 -0.319369 0
24.895000 -0.247080 0
24.900000 -0.168432 0
24.905000 -0.101918 0
24.910000 -0.053510 0
24.915000 -0.020306 0
24.920000 0.003794 0
24.925000 0.024131 0
24.930000 0.043984 0
24.935000 0.064906 0
24.940000 0.087443 0
24.945000 0.111669 0
24.950000 0.137445 0
24.955000 0.164516 0
24.960000 0.192546 0
24.965000 0.221126 0
24.970000 0.249783 0
24.975000 0.277994 0
24.980000 0.305197 0
24.985000 0.330809 0
24.990000 0.354246 0
24.995000 0.374948 0
25.000000 0.392395 0
25.005000 0.406130 0
25.010000 0.415782 0
25.015000 0.421076 0
25.020000 0.421851 5
25.025000 0.418063 0
25.030000 0.409791 0
25.035000 0.397230 0
25.040000 0.380688 0
25.045000 0.360567 0
25.050000 0.337350 0
25.055000 0.311583 0
25.060000 0.283847 0
25.065000 0.254744 0
25.070000 0.224868 0
25.075000 0.194790 0
25.080000 0.165039 0
25.085000 0.136088 0
25.090000 0.108344 0
25.095000 0.082139 0
25.100000 0.057731 0
25.105000 0.035301 0
25.110000 0.014959 0
25.115000 -0.003253 0
25.120000 -0.019348 0
25.125000 -0.033390 0
25.130000 -0.045481 0
25.135000 -0.055754 0
25.140000 -0.064359 0
25.145000 -0.071460 0
25.150000 -0.077227 0
25.155000 -0.081824 0
25.160000 -0.085412 0
25.165000 -0.088140 0
25.170000 -0.090144 0
25.175000 -0.091548 0
25.180000 -0.092459 0
25.185000 -0.092971 0
25.190000 -0.093163 0
25.195000 -0.092986 0
25.200000 -0.092123 0
25.205000 -0.091264 0
25.210000 -0.090409 0
25.215000 -0.089559 0
25.220000 -0.088712 0
25.225000 -0.087870 0
25.230000 -0.087032 0
25.235000 -0.086199 0
25.240000 -0.085369 0
25.245000 -0.084543 0
25.250000 -0.083721 0
25.255000 -0.082902 0
25.260000 -0.082085 0
25.265000 -0.081268 0
25.270000 -0.080448 0
25.275000 -0.079619 0
25.280000 -0.078772 0
25.285000 -0.077892 0
25.290000 -0.076952 0
25.295000 -0.075916 0
25.300000 -0.074723 0
25.305000 -0.073291 0
25.310000 -0.071499 0
25.315000 -0.069185 0
25.320000 -0.066136 0
25.325000 -0.062084 0
25.330000 -0.056706 0
25.335000 -0.049633 0
25.340000 -0.040469 0
25.345000 -0.028820 0
25.350000 -0.014341 0
25.355000 0.003212 0
25.360000 0.023922 0
25.365000 0.047648 0
25.370000 0.073983 0
25.375000 0.102219 0
25.380000 0.131357 0
25.385000 0.160140 0
25.390000 0.187137 0
25.395000 0.210852 0
25.400000 0.229859 0
25.405000 0.242942 0
25.410000 0.249225 1
25.415000 0.248265 0
25.420000 0.240107 0
25.425000 0.225277 0
25.430000 0.204727 0
25.435000 0.179733 0
25.440000 0.151764 0
25.445000 0.122332 0
25.450000 0.092850 0
25.455000 0.064465 0
25.460000 0.037846 0
25.465000 0.012837 0
25.470000 -0.012009 0
25.475000 -0.039736 0
25.480000 -0.074411 0
25.485000 -0.118843 0
25.490000 -0.170780 0
25.495000 -0.219570 0
25.500000 -0.246037 2
25.505000 -0.226308 0
25.510000 -0.137449 0
25.515000 0.036560 0
25.520000 0.296164 0
25.525000 0.613485 0
25.530000 0.924134 0
25.535000 1.139774 0
25.540000 1.185746 3
25.545000 1.040829 0
25.550000 0.750711 0
25.555000 0.404455 0
25.560000 0.086639 0
25.565000 -0.150313 0
25.570000 -0.287836 0
25.575000 -0.331643 4
25.580000 -0.303606 0
25.585000 -0.234762 0
25.590000 -0.155771 0
25.595000 -0.087528 0
25.600000 -0.037606 0
25.605000 -0.003606 0
25.610000 0.020729 0
25.615000 0.041038 0
25.620000 0.060804 0
25.625000 0.081657 0
25.630000 0.104165 0
25.635000 0.128395 0
25.640000 0.154195 0
25.645000 0.181294 0
25.650000 0.209336 0
25.655000 0.237888 0
25.660000 0.266450 0
25.665000 0.294470 0
25.670000 0.321359 0
25.675000 0.346509 0
25.680000 0.369316 0
25.685000 0.389203 0
25.690000 0.405643 0
25.695000 0.418185 0
25.700000 0.426468 0
25.705000 0.430242 5
25.710000 0.429378 0
25.715000 0.423875 0
25.720000 0.413860 0
25.725000 0.399583 0
25.730000 0.381404 0
25.735000 0.359781 0
25.740000 0.335248 0
25.745000 0.308392 0
25.750000 0.279832 0
25.755000 0.250191 0
25.760000 0.220077 0
25.765000 0.190063 0
25.770000 0.160668 0
25.775000 0.132342 0
25.780000 0.105465 0
25.785000 0.080332 0
25.790000 0.057160 0
25.795000 0.036087 0
25.800000 0.017179 0
25.805000 0.000437 0
25.810000 -0.014190 0
25.815000 -0.026800 0
25.820000 -0.037524 0
25.825000 -0.046516 0
25.830000 -0.053945 0
25.835000 -0.059984 0
25.840000 -0.064807 0
25.845000 -0.068582 0
25.850000 -0.071464 0
25.855000 -0.073597 0
25.860000 -0.075111 0
25.865000 -0.076117 0
25.870000 -0.076714 0
25.875000 -0.076985 0
25.880000 -0.076884 0
25.885000 -0.076101 0
25.890000 -0.075322 0
25.895000 -0.074546 0
25.900000 -0.073775 0
25.905000 -0.073008 0
25.910000 -0.072244 0
25.915000 -0.071484 0
25.920000 -0.070728 0
25.925000 -0.069975 0
25.930000 -0.069226 0
25.935000 -0.068480 0
25.940000 -0.067736 0
25.945000 -0.066994 0
25.950000 -0.066250 0
25.955000 -0.065502 0
25.960000 -0.064741 0
25.965000 -0.063957 0
25.970000 -0.063129 0
25.975000 -0.062227 0
25.980000 -0.061203 0
25.985000 -0.059986 0
25.990000 -0.058472 0
25.995000 -0.056517 0
26.000000 -0.053927 0
26.005000 -0.050452 0
26.010000 -0.045782 0
26.015000 -0.039552 0
26.020000 -0.031359 0
26.025000 -0.020788 0
26.030000 -0.007455 0
26.035000 0.008942 0
26.040000 0.028554 0
26.045000 0.051317 0
26.050000 0.076899 0
26.055000 0.104656 0
26.060000 0.133627 0
26.065000 0.162566 0
26.070000 0.190018 0
26.075000 0.214430 0
26.080000 0.234293 0
26.085000 0.248295 0
26.090000 0.255463 1
26.095000 0.255275 0
26.100000 0.247719 0
26.105000 0.233298 0
26.110000 0.212973 0
26.115000 0.188057 0
26.120000 0.160072 0
26.125000 0.130593 0
26.130000 0.101085 0
26.135000 0.072731 0
26.140000 0.046190 0
26.145000 0.021222 0
26.150000 -0.003824 0
26.155000 -0.032284 0
26.160000 -0.068383 0
26.165000 -0.114508 0
26.170000 -0.166999 0
26.175000 -0.212968 0
26.180000 -0.231023 2
26.185000 -0.196046 0
26.190000 -0.085376 0
26.195000 0.114333 0
26.200000 0.396378 0
26.205000 0.720189 0
26.210000 1.007796 0
26.215000 1.167143 3
26.220000 1.138943 0
26.225000 0.931392 0
26.230000 0.610636 0
26.235000 0.265779 0
26.240000 -0.030369 0
26.245000 -0.238316 0
26.250000 -0.348189 0
26.255000 -0.370505 4
26.260000 -0.329385 0
26.265000 -0.255617 0
26.270000 -0.177341 0
26.275000 -0.112112 0
26.280000 -0.065028 0
26.285000 -0.032721 0
26.290000 -0.009031 0
26.295000 0.011242 0
26.300000 0.031217 0
26.305000 0.052337 0
26.310000 0.075093 0
26.315000 0.099535 0
26.320000 0.125508 0
26.325000 0.152752 0
26.330000 0.180921 0
26.335000 0.209599 0
26.340000 0.238309 0
26.345000 0.266520 0
26.350000 0.293666 0
26.355000 0.319164 0
26.360000 0.342429 0
26.365000 0.362902 0
26.370000 0.380067 0
26.375000 0.393475 0
26.380000 0.402762 0
26.385000 0.407665 0
26.390000 0.408033 5
26.395000 0.403836 0
26.400000 0.395164 0
26.405000 0.382226 0
26.410000 0.365341 0
26.415000 0.344922 0
26.420000 0.321461 0
26.425000 0.295509 0
26.430000 0.267654 0
26.435000 0.238497 0
26.440000 0.208633 0
26.445000 0.178631 0
26.450000 0.149013 0
26.455000 0.120248 0
26.460000 0.092734 0
26.465000 0.066796 0
26.470000 0.042682 0
26.475000 0.020565 0
26.480000 0.000546 0
26.485000 -0.017339 0
26.490000 -0.033111 0
26.495000 -0.046839 0
26.500000 -0.058629 0
26.505000 -0.068618 0
26.510000 -0.076959 0
26.515000 -0.083818 0
26.520000 -0.089362 0
26.525000 -0.093758 0
26.530000 -0.097164 0
26.535000 -0.099729 0
26.540000 -0.101588 0
26.545000 -0.102861 0
26.550000 -0.103656 0
26.555000 -0.104063 0
26.560000 -0.104160 0
26.565000 -0.103388 0
26.570000 -0.102473 0
26.575000 -0.101562 0
26.580000 -0.100656 0
26.585000 -0.099755 0
26.590000 -0.098858 0
26.595000 -0.097965 0
26.600000 -0.097077 0
26.605000 -0.096193 0
26.610000 -0.095313 0
26.615000 -0.094438 0
26.620000 -0.093566 0
26.625000 -0.092698 0
26.630000 -0.091831 0
26.635000 -0.090965 0
26.640000 -0.090095 0
26.645000 -0.089215 0
26.650000 -0.088316 0
26.655000 -0.087379 0
26.660000 -0.086379 0
26.665000 -0.085273 0
26.670000 -0.084000 0
26.675000 -0.082470 0
26.680000 -0.080555 0
26.685000 -0.078086 0
26.690000 -0.074840 0
26.695000 -0.070539 0
26.700000 -0.064849 0
26.705000 -0.057396 0
26.710000 -0.047778 0
26.715000 -0.035609 0
26.720000 -0.020553 0
26.725000 -0.002392 0
26.730000 0.018921 0
26.735000 0.043202 0
26.740000 0.069988 0
26.745000 0.098517 0
26.750000 0.127735 0
26.755000 0.156344 0
26.760000 0.182889 0
26.765000 0.205872 0
26.770000 0.223893 0
26.775000 0.235788 0
26.780000 0.240756 1
26.785000 0.238443 0
26.790000 0.228989 0
26.795000 0.213008 0
26.800000 0.191528 0
26.805000 0.165875 0
26.810000 0.137541 0
26.815000 0.108035 0
26.820000 0.078734 0
26.825000 0.050711 0
26.830000 0.024505 0
26.835000 -0.000264 0
26.840000 -0.025359 0
26.845000 -0.054133 0
26.850000 -0.090652 0
26.855000 -0.137024 0
26.860000 -0.189454 0
26.865000 -0.235355 0
26.870000 -0.254103 2
26.875000 -0.221494 0
26.880000 -0.115476 0
26.885000 0.077573 0
26.890000 0.353169 0
26.895000 0.675739 0
26.900000 0.973548 0
26.905000 1.157229 0
26.910000 1.160958 3
26.915000 0.979267 0
26.920000 0.670396 0
26.925000 0.323788 0
26.930000 0.017338 0
26.935000 -0.204014 0
26.940000 -0.326689 0
26.945000 -0.359036 4
26.950000 -0.324052 0
26.955000 -0.252531 0
26.960000 -0.173734 0
26.965000 -0.106801 0
26.970000 -0.058077 0
26.975000 -0.024730 0
26.980000 -0.000590 0
26.985000 0.019763 0
26.990000 0.039646 0
26.995000 0.060619 0
27.000000 0.083225 0
27.005000 0.107530 0
27.010000 0.133389 0
27.015000 0.160539 0
27.020000 0.188637 0
27.025000 0.217264 0
27.030000 0.245937 0
27.035000 0.274121 0
27.040000 0.301245 0
27.045000 0.326717 0
27.050000 0.349945 0
27.055000 0.370364 0
27.060000 0.387453 0
27.065000 0.400756 0
27.070000 0.409908 0
27.075000 0.414645 0
27.080000 0.414817 5
27.085000 0.410398 0
27.090000 0.401484 0
27.095000 0.388293 0
27.100000 0.371152 0
27.105000 0.350483 0
27.110000 0.326791 0
27.115000 0.300635 0
27.120000 0.272612 0
27.125000 0.243331 0
27.130000 0.213392 0
27.135000 0.183367 0
27.140000 0.153781 0
27.145000 0.125098 0
27.150000 0.097716 0
27.155000 0.071953 0
27.160000 0.048050 0
27.165000 0.026174 0
27.170000 0.006417 0
27.175000 -0.011194 0
27.180000 -0.026687 0
27.185000 -0.040138 0
27.190000 -0.051662 0
27.195000 -0.061399 0
27.200000 -0.069506 0
27.205000 -0.076153 0
27.210000 -0.081509 0
27.215000 -0.085742 0
27.220000 -0.089009 0
27.225000 -0.091460 0
27.230000 -0.093227 0
27.235000 -0.094429 0
27.240000 -0.095171 0
27.245000 -0.095542 0
27.250000 -0.095619 0
27.255000 -0.094880 0
27.260000 -0.094007 0
27.265000 -0.093139 0
27.270000 -0.092275 0
27.275000 -0.091415 0
27.280000 -0.090560 0
27.285000 -0.089708 0
27.290000 -0.088861 0
27.295000 -0.088018 0
27.300000 -0.087180 0
27.305000 -0.086345 0
27.310000 -0.085513 0
27.315000 -0.084684 0
27.320000 -0.083856 0
27.325000 -0.083028 0
27.330000 -0.082193 0
27.335000 -0.081346 0
27.340000 -0.080474 0
27.345000 -0.079556 0
27.350000 -0.078561 0
27.355000 -0.077440 0
27.360000 -0.076121 0
27.365000 -0.074499 0
27.370000 -0.072432 0
27.375000 -0.069726 0
27.380000 -0.066136 0
27.385000 -0.061356 0
27.390000 -0.055032 0
27.395000 -0.046769 0
27.400000 -0.036163 0
27.405000 -0.022837 0
27.410000 -0.006496 0
27.415000 0.013015 0
27.420000 0.035648 0
27.425000 0.061096 0
27.430000 0.088757 0
27.435000 0.117721 0
27.440000 0.146799 0
27.445000 0.174593 0
27.450000 0.199591 0
27.455000 0.220308 0
27.460000 0.235426 0
27.465000 0.243932 0
27.470000 0.245232 1
27.475000 0.239217 0
27.480000 0.226278 0
27.485000 0.207262 0
27.490000 0.183382 0
27.495000 0.156087 0
27.500000 0.126915 0
27.505000 0.097338 0
27.510000 0.068608 0
27.515000 0.041549 0
27.520000 0.016246 0
27.525000 -0.008417 0
27.530000 -0.035162 0
27.535000 -0.068009 0
27.540000 -0.110367 0
27.545000 -0.161346 0
27.550000 -0.211991 0
27.555000 -0.244334 2
27.560000 -0.234638 0
27.565000 -0.159057 0
27.570000 0.000353 0
27.575000 0.247438 0
27.580000 0.559290 0
27.585000 0.876057 0
27.590000 1.109824 0
27.595000 1.180325 3
27.600000 1.057694 0
27.605000 0.780826 0
27.610000 0.436438 0
27.615000 0.111802 0
27.620000 -0.136221 0
27.625000 -0.285468 0
27.630000 -0.339290 4
27.635000 -0.318044 0
27.640000 -0.252188 0
27.645000 -0.173013 0
27.650000 -0.102891 0
27.655000 -0.050854 0
27.660000 -0.015324 0
27.665000 0.009812 0
27.670000 0.030396 0
27.675000 0.050157 0
27.680000 0.070895 0
27.685000 0.093259 0
27.690000 0.117352 0
27.695000 0.143039 0
27.700000 0.170059 0
27.705000 0.198064 0
27.710000 0.226627 0
27.715000 0.255254 0
27.720000 0.283397 0
27.725000 0.310468 0
27.730000 0.335860 0
27.735000 0.358966 0
27.740000 0.379204 0
27.745000 0.396042 0
27.750000 0.409017 0
27.755000 0.417760 0
27.760000 0.422009 5
27.765000 0.421622 0
27.770000 0.416587 0
27.775000 0.407019 0
27.780000 0.393156 0
27.785000 0.375352 0
27.790000 0.354056 0
27.795000 0.329797 0
27.800000 0.303159 0
27.805000 0.274760 0
27.810000 0.245226 0
27.815000 0.215167 0
27.820000 0.185161 0
27.825000 0.155732 0
27.830000 0.127340 0
27.835000 0.100367 0
27.840000 0.075120 0
27.845000 0.051820 0
27.850000 0.030613 0
27.855000 0.011569 0
27.860000 -0.005305 0
27.865000 -0.020057 0
27.870000 -0.032782 0
27.875000 -0.043608 0
27.880000 -0.052689 0
27.885000 -0.060193 0
27.890000 -0.066293 0
27.895000 -0.071165 0
27.900000 -0.074975 0
27.905000 -0.077882 0
27.910000 -0.080030 0
27.915000 -0.081550 0
27.920000 -0.082554 0
27.925000 -0.083144 0
27.930000 -0.083401 0
27.935000 -0.083281 0
27.940000 -0.082466 0
27.945000 -0.081655 0
27.950000 -0.080848 0
27.955000 -0.080045 0
27.960000 -0.079247 0
27.965000 -0.078452 0
27.970000 -0.077661 0
27.975000 -0.076874 0
27.980000 -0.076091 0
27.985000 -0.075311 0
27.990000 -0.074535 0
27.995000 -0.073761 0
28.000000 -0.072989 0
28.005000 -0.072216 0
28.010000 -0.071438 0
28.015000 -0.070649 0
28.020000 -0.069837 0
28.025000 -0.068983 0
28.030000 -0.068056 0
28.035000 -0.067011 0
28.040000 -0.065776 0
28.045000 -0.064250 0
28.050000 -0.062290 0
28.055000 -0.059706 0
28.060000 -0.056247 0
28.065000 -0.051607 0
28.070000 -0.045423 0
28.075000 -0.037292 0
28.080000 -0.026797 0
28.085000 -0.013552 0
28.090000 0.002750 0
28.095000 0.022267 0
28.100000 0.044946 0
28.105000 0.070462 0
28.110000 0.098184 0
28.115000 0.127159 0
28.120000 0.156150 0
28.125000 0.183702 0
28.130000 0.208262 0
28.135000 0.228315 0
28.140000 0.242538 0
28.145000 0.249944 0
28.150000 0.249996 1
28.155000 0.242667 0
28.160000 0.228446 0
28.165000 0.208286 0
28.170000 0.183494 0
28.175000 0.155591 0
28.180000 0.126155 0
28.185000 0.096659 0
28.190000 0.068296 0
28.195000 0.041741 0
28.200000 0.016776 0
28.205000 -0.008218 0
28.210000 -0.036553 0
28.215000 -0.072462 0
28.220000 -0.118403 0
28.225000 -0.170844 0
28.230000 -0.217027 0
28.235000 -0.235627 2
28.240000 -0.201493 0
28.245000 -0.091854 0
28.250000 0.106827 0
28.255000 0.388151 0
28.260000 0.711898 0
28.265000 1.000278 0
28.270000 1.161029 3
28.275000 1.134608 0
28.280000 0.929018 0
28.285000 0.609398 0
28.290000 0.264229 0
28.295000 -0.033615 0
28.300000 -0.244148 0
28.305000 -0.356905 0
28.310000 -0.381828 4
28.315000 -0.342506 0
28.320000 -0.269421 0
28.325000 -0.190817 0
28.330000 -0.124691 0
28.335000 -0.076643 0
28.340000 -0.043623 0
28.345000 -0.019539 0
28.350000 0.000881 0
28.355000 0.020861 0
28.360000 0.041921 0
28.365000 0.064595 0
28.370000 0.088952 0
28.375000 0.114852 0
