0.000000 1.104732 3
0.005000 1.036898 0
0.010000 0.862673 0
0.015000 0.618103 0
0.020000 0.348318 0
0.025000 0.093869 0
0.030000 -0.117238 0
0.035000 -0.270730 0
0.040000 -0.363393 0
0.045000 -0.400000 4
0.050000 -0.391163 0
0.055000 -0.351384 0
0.060000 -0.296365 0
0.065000 -0.239823 0
0.070000 -0.191020 0
0.075000 -0.153999 0
0.080000 -0.128574 0
0.085000 -0.112192 0
0.090000 -0.101694 0
0.095000 -0.094392 0
0.100000 -0.088437 0
0.105000 -0.082733 0
0.110000 -0.076693 0
0.115000 -0.070018 0
0.120000 -0.062542 0
0.125000 -0.054160 0
0.130000 -0.044793 0
0.135000 -0.034372 0
0.140000 -0.022842 0
0.145000 -0.010160 0
0.150000 0.003704 0
0.155000 0.018760 0
0.160000 0.034998 0
0.165000 0.052383 0
0.170000 0.070856 0
0.175000 0.090330 0
0.180000 0.110688 0
0.185000 0.131784 0
0.190000 0.153444 0
0.195000 0.175465 0
0.200000 0.197619 0
0.205000 0.219655 0
0.210000 0.241305 0
0.215000 0.262287 0
0.220000 0.282311 0
0.225000 0.301087 0
0.230000 0.318330 0
0.235000 0.333768 0
0.240000 0.347149 0
0.245000 0.358248 0
0.250000 0.366870 0
0.255000 0.372860 0
0.260000 0.376107 0
0.265000 0.376543 5
0.270000 0.374150 0
0.275000 0.368957 0
0.280000 0.361042 0
0.285000 0.350529 0
0.290000 0.337583 0
0.295000 0.322408 0
0.300000 0.305243 0
0.305000 0.286348 0
0.310000 0.266007 0
0.315000 0.244516 0
0.320000 0.222173 0
0.325000 0.199278 0
0.330000 0.176121 0
0.335000 0.152979 0
0.340000 0.130109 0
0.345000 0.107744 0
0.350000 0.086091 0
0.355000 0.065330 0
0.360000 0.045606 0
0.365000 0.027037 0
0.370000 0.009709 0
0.375000 -0.006319 0
0.380000 -0.021018 0
0.385000 -0.034382 0
0.390000 -0.046426 0
0.395000 -0.057186 0
0.400000 -0.066712 0
0.405000 -0.075067 0
0.410000 -0.082323 0
0.415000 -0.088560 0
0.420000 -0.093861 0
0.425000 -0.098310 0
0.430000 -0.101991 0
0.435000 -0.104987 0
0.440000 -0.107376 0
0.445000 -0.109233 0
0.450000 -0.110627 0
0.455000 -0.111621 0
0.460000 -0.112274 0
0.465000 -0.112636 0
0.470000 -0.112754 0
0.475000 -0.112667 0
0.480000 -0.112412 0
0.485000 -0.112018 0
0.490000 -0.111510 0
0.495000 -0.110912 0
0.500000 -0.110241 0
0.505000 -0.109512 0
0.510000 -0.108738 0
0.515000 -0.107929 0
0.520000 -0.107094 0
0.525000 -0.106240 0
0.530000 -0.105371 0
0.535000 -0.104458 0
0.540000 -0.103541 0
0.545000 -0.102628 0
0.550000 -0.101720 0
0.555000 -0.100816 0
0.560000 -0.099917 0
0.565000 -0.099023 0
0.570000 -0.098132 0
0.575000 -0.097247 0
0.580000 -0.096366 0
0.585000 -0.095489 0
0.590000 -0.094616 0
0.595000 -0.093748 0
0.600000 -0.092884 0
0.605000 -0.092025 0
0.610000 -0.091169 0
0.615000 -0.090318 0
0.620000 -0.089472 0
0.625000 -0.088629 0
0.630000 -0.087791 0
0.635000 -0.086957 0
0.640000 -0.086127 0
0.645000 -0.085301 0
0.650000 -0.084479 0
0.655000 -0.083662 0
0.660000 -0.082848 0
0.665000 -0.082039 0
0.670000 -0.081233 0
0.675000 -0.080432 0
0.680000 -0.079634 0
0.685000 -0.078840 0
0.690000 -0.078049 0
0.695000 -0.077261 0
0.700000 -0.076476 0
0.705000 -0.075691 0
0.710000 -0.074907 0
0.715000 -0.074119 0
0.720000 -0.073324 0
0.725000 -0.072517 0
0.730000 -0.071687 0
0.735000 -0.070822 0
0.740000 -0.069904 0
0.745000 -0.068907 0
0.750000 -0.067797 0
0.755000 -0.066525 0
0.760000 -0.065031 0
0.765000 -0.063236 0
0.770000 -0.061041 0
0.775000 -0.058327 0
0.780000 -0.054951 0
0.785000 -0.050749 0
0.790000 -0.045539 0
0.795000 -0.039126 0
0.800000 -0.031312 0
0.805000 -0.021906 0
0.810000 -0.010744 0
0.815000 0.002298 0
0.820000 0.017283 0
0.825000 0.034192 0
0.830000 0.052907 0
0.835000 0.073199 0
0.840000 0.094717 0
0.845000 0.116994 0
0.850000 0.139451 0
0.855000 0.161422 0
0.860000 0.182182 0
0.865000 0.200983 0
0.870000 0.217103 0
0.875000 0.229886 0
0.880000 0.238789 0
0.885000 0.243418 0
0.890000 0.243559 1
0.895000 0.239193 0
0.900000 0.230497 0
0.905000 0.217833 0
0.910000 0.201722 0
0.915000 0.182810 0
0.920000 0.161821 0
0.925000 0.139516 0
0.930000 0.116645 0
0.935000 0.093906 0
0.940000 0.071915 0
0.945000 0.051177 0
0.950000 0.032069 0
0.955000 0.014828 0
0.960000 -0.000479 0
0.965000 -0.014002 0
0.970000 -0.026210 0
0.975000 -0.038022 0
0.980000 -0.050939 0
0.985000 -0.067001 0
0.990000 -0.088404 0
0.995000 -0.116604 0
1.000000 -0.151037 0
1.005000 -0.187914 0
1.010000 -0.219716 0
1.015000 -0.235835 2
1.020000 -0.224133 0
1.025000 -0.172817 0
1.030000 -0.072276 0
1.035000 0.082637 0
1.040000 0.289061 0
1.045000 0.531686 0
1.050000 0.780084 0
1.055000 0.991659 0
1.060000 1.122030 0
1.065000 1.139823 3
1.070000 1.038236 0
1.075000 0.837983 0
1.080000 0.580382 0
1.085000 0.311462 0
1.090000 0.069073 0
1.095000 -0.123014 0
1.100000 -0.254542 0
1.105000 -0.325501 0
1.110000 -0.343239 4
1.115000 -0.320436 0
1.120000 -0.272808 0
1.125000 -0.215976 0
1.130000 -0.162272 0
1.135000 -0.118824 0
1.140000 -0.087632 0
1.145000 -0.067140 0
1.150000 -0.054256 0
1.155000 -0.045892 0
1.160000 -0.039713 0
1.165000 -0.034243 0
1.170000 -0.028665 0
1.175000 -0.022557 0
1.180000 -0.015701 0
1.185000 -0.007969 0
1.190000 0.000730 0
1.195000 0.010470 0
1.200000 0.021314 0
1.205000 0.033311 0
1.210000 0.046496 0
1.215000 0.060889 0
1.220000 0.076486 0
1.225000 0.093261 0
1.230000 0.111163 0
1.235000 0.130110 0
1.240000 0.149992 0
1.245000 0.170671 0
1.250000 0.191974 0
1.255000 0.213702 0
1.260000 0.235627 0
1.265000 0.257499 0
1.270000 0.279046 0
1.275000 0.299981 0
1.280000 0.320009 0
1.285000 0.338832 0
1.290000 0.356157 0
1.295000 0.371702 0
1.300000 0.385206 0
1.305000 0.396431 0
1.310000 0.405175 0
1.315000 0.411274 0
1.320000 0.414607 0
1.325000 0.415101 5
1.330000 0.412731 0
1.335000 0.407525 0
1.340000 0.399559 0
1.345000 0.388956 0
1.350000 0.375885 0
1.355000 0.360554 0
1.360000 0.343205 0
1.365000 0.324107 0
1.370000 0.303549 0
1.375000 0.281834 0
1.380000 0.259269 0
1.385000 0.236160 0
1.390000 0.212804 0
1.395000 0.189483 0
1.400000 0.166458 0
1.405000 0.143966 0
1.410000 0.122217 0
1.415000 0.101389 0
1.420000 0.081629 0
1.425000 0.063053 0
1.430000 0.045744 0
1.435000 0.029758 0
1.440000 0.015120 0
1.445000 0.001832 0
1.450000 -0.010126 0
1.455000 -0.020794 0
1.460000 -0.030226 0
1.465000 -0.038490 0
1.470000 -0.045662 0
1.475000 -0.051824 0
1.480000 -0.057061 0
1.485000 -0.061461 0
1.490000 -0.065110 0
1.495000 -0.068089 0
1.500000 -0.070479 0
1.505000 -0.072355 0
1.510000 -0.073784 0
1.515000 -0.074830 0
1.520000 -0.075550 0
1.525000 -0.075993 0
1.530000 -0.076206 0
1.535000 -0.076227 0
1.540000 -0.076089 0
1.545000 -0.075821 0
1.550000 -0.075449 0
1.555000 -0.074993 0
1.560000 -0.074470 0
1.565000 -0.073894 0
1.570000 -0.073277 0
1.575000 -0.072628 0
1.580000 -0.071956 0
1.585000 -0.071267 0
1.590000 -0.070557 0
1.595000 -0.069809 0
1.600000 -0.069064 0
1.605000 -0.068324 0
1.610000 -0.067587 0
1.615000 -0.066853 0
1.620000 -0.066124 0
1.625000 -0.065398 0
1.630000 -0.064675 0
1.635000 -0.063956 0
1.640000 -0.063241 0
1.645000 -0.062529 0
1.650000 -0.061821 0
1.655000 -0.061117 0
1.660000 -0.060416 0
1.665000 -0.059718 0
1.670000 -0.059024 0
1.675000 -0.058333 0
1.680000 -0.057646 0
1.685000 -0.056962 0
1.690000 -0.056282 0
1.695000 -0.055605 0
1.700000 -0.054931 0
1.705000 -0.054261 0
1.710000 -0.053594 0
1.715000 -0.052931 0
1.720000 -0.052270 0
1.725000 -0.051613 0
1.730000 -0.050959 0
1.735000 -0.050309 0
1.740000 -0.049661 0
1.745000 -0.049016 0
1.750000 -0.048373 0
1.755000 -0.047731 0
1.760000 -0.047091 0
1.765000 -0.046449 0
1.770000 -0.045803 0
1.775000 -0.045150 0
1.780000 -0.044482 0
1.785000 -0.043791 0
1.790000 -0.043063 0
1.795000 -0.042280 0
1.800000 -0.041414 0
1.805000 -0.040429 0
1.810000 -0.039276 0
1.815000 -0.037890 0
1.820000 -0.036188 0
1.825000 -0.034068 0
1.830000 -0.031403 0
1.835000 -0.028044 0
1.840000 -0.023820 0
1.845000 -0.018542 0
1.850000 -0.012009 0
1.855000 -0.004018 0
1.860000 0.005622 0
1.865000 0.017073 0
1.870000 0.030449 0
1.875000 0.045797 0
1.880000 0.063073 0
1.885000 0.082128 0
1.890000 0.102693 0
1.895000 0.124376 0
1.900000 0.146660 0
1.905000 0.168925 0
1.910000 0.190463 0
1.915000 0.210519 0
1.920000 0.228332 0
1.925000 0.243179 0
1.930000 0.254428 0
1.935000 0.261575 0
1.940000 0.264289 1
1.945000 0.262428 0
1.950000 0.256059 0
1.955000 0.245446 0
1.960000 0.231036 0
1.965000 0.213425 0
1.970000 0.193319 0
1.975000 0.171485 0
1.980000 0.148699 0
1.985000 0.125710 0
1.990000 0.103192 0
1.995000 0.081719 0
2.000000 0.061738 0
2.005000 0.043559 0
2.010000 0.027332 0
2.015000 0.013005 0
2.020000 0.000246 0
2.025000 -0.011685 0
2.030000 -0.024087 0
2.035000 -0.038865 0
2.040000 -0.058288 0
2.045000 -0.084242 0
2.050000 -0.116999 0
2.055000 -0.153853 0
2.060000 -0.188284 0
2.065000 -0.210243 2
2.070000 -0.207556 0
2.075000 -0.167860 0
2.080000 -0.080529 0
2.085000 0.061135 0
2.090000 0.256564 0
2.095000 0.493335 0
2.100000 0.743614 0
2.105000 0.965698 0
2.110000 1.113398 0
2.115000 1.151129 3
2.120000 1.067036 0
2.125000 0.878103 0
2.130000 0.624947 0
2.135000 0.355187 0
2.140000 0.109131 0
2.145000 -0.087347 0
2.150000 -0.222717 0
2.155000 -0.296412 0
2.160000 -0.315708 4
2.165000 -0.293527 0
2.170000 -0.246032 0
2.175000 -0.189310 0
2.180000 -0.135984 0
2.185000 -0.093226 0
2.190000 -0.062886 0
2.195000 -0.043213 0
2.200000 -0.030979 0
2.205000 -0.023056 0
2.210000 -0.017136 0
2.215000 -0.011796 0
2.220000 -0.006264 0
2.225000 -0.000148 0
2.230000 0.006755 0
2.235000 0.014570 0
2.240000 0.023384 0
2.245000 0.033271 0
2.250000 0.044293 0
2.255000 0.056498 0
2.260000 0.069918 0
2.265000 0.084567 0
2.270000 0.100435 0
2.275000 0.117486 0
2.280000 0.135660 0
2.285000 0.154861 0
2.290000 0.174967 0
2.295000 0.195821 0
2.300000 0.217236 0
2.305000 0.238993 0
2.310000 0.260848 0
2.315000 0.282532 0
2.320000 0.303758 0
2.325000 0.324226 0
2.330000 0.343629 0
2.335000 0.361661 0
2.340000 0.378024 0
2.345000 0.392439 0
2.350000 0.404648 0
2.355000 0.414426 0
2.360000 0.421585 0
2.365000 0.425981 0
2.370000 0.427519 5
2.375000 0.426153 0
2.380000 0.421892 0
2.385000 0.414796 0
2.390000 0.404975 0
2.395000 0.392590 0
2.400000 0.377841 0
2.405000 0.360968 0
2.410000 0.342242 0
2.415000 0.321955 0
2.420000 0.300417 0
2.425000 0.277944 0
2.430000 0.254852 0
2.435000 0.231450 0
2.440000 0.208030 0
2.445000 0.184868 0
2.450000 0.162211 0
2.455000 0.140280 0
2.460000 0.119263 0
2.465000 0.099315 0
2.470000 0.080558 0
2.475000 0.063082 0
2.480000 0.046945 0
2.485000 0.032176 0
2.490000 0.018777 0
2.495000 0.006727 0
2.500000 -0.004013 0
2.505000 -0.013500 0
2.510000 -0.021803 0
2.515000 -0.029002 0
2.520000 -0.035181 0
2.525000 -0.040428 0
2.530000 -0.044833 0
2.535000 -0.048484 0
2.540000 -0.051467 0
2.545000 -0.053861 0
2.550000 -0.055744 0
2.555000 -0.057185 0
2.560000 -0.058248 0
2.565000 -0.058990 0
2.570000 -0.059461 0
2.575000 -0.059707 0
2.580000 -0.059767 0
2.585000 -0.059673 0
2.590000 -0.059456 0
2.595000 -0.059137 0
2.600000 -0.058739 0
2.605000 -0.058277 0
2.610000 -0.057765 0
2.615000 -0.057215 0
2.620000 -0.056636 0
2.625000 -0.056035 0
2.630000 -0.055417 0
2.635000 -0.054753 0
2.640000 -0.054084 0
2.645000 -0.053418 0
2.650000 -0.052755 0
2.655000 -0.052096 0
2.660000 -0.051440 0
2.665000 -0.050787 0
2.670000 -0.050137 0
2.675000 -0.049491 0
2.680000 -0.048848 0
2.685000 -0.048208 0
2.690000 -0.047571 0
2.695000 -0.046938 0
2.700000 -0.046307 0
2.705000 -0.045680 0
2.710000 -0.045056 0
2.715000 -0.044435 0
2.720000 -0.043817 0
2.725000 -0.043203 0
2.730000 -0.042591 0
2.735000 -0.041982 0
2.740000 -0.041376 0
2.745000 -0.040774 0
2.750000 -0.040174 0
2.755000 -0.039578 0
2.760000 -0.038984 0
2.765000 -0.038393 0
2.770000 -0.037805 0
2.775000 -0.037220 0
2.780000 -0.036637 0
2.785000 -0.036057 0
2.790000 -0.035479 0
2.795000 -0.034902 0
2.800000 -0.034326 0
2.805000 -0.033748 0
2.810000 -0.033166 0
2.815000 -0.032576 0
2.820000 -0.031971 0
2.825000 -0.031343 0
2.830000 -0.030676 0
2.835000 -0.029952 0
2.840000 -0.029142 0
2.845000 -0.028209 0
2.850000 -0.027100 0
2.855000 -0.025748 0
2.860000 -0.024065 0
2.865000 -0.021943 0
2.870000 -0.019248 0
2.875000 -0.015824 0
2.880000 -0.011491 0
2.885000 -0.006050 0
2.890000 0.000706 0
2.895000 0.008984 0
2.900000 0.018978 0
2.905000 0.030845 0
2.910000 0.044687 0
2.915000 0.060530 0
2.920000 0.078299 0
2.925000 0.097808 0
2.930000 0.118739 0
2.935000 0.140645 0
2.940000 0.162956 0
2.945000 0.184996 0
2.950000 0.206014 0
2.955000 0.225224 0
2.960000 0.241851 0
2.965000 0.255183 0
2.970000 0.264620 0
2.975000 0.269717 0
2.980000 0.270221 1
2.985000 0.266088 0
2.990000 0.257487 0
2.995000 0.244790 0
3.000000 0.228543 0
3.005000 0.209425 0
3.010000 0.188205 0
3.015000 0.165685 0
3.020000 0.142654 0
3.025000 0.119841 0
3.030000 0.097880 0
3.035000 0.077284 0
3.040000 0.058425 0
3.045000 0.041514 0
3.050000 0.026573 0
3.055000 0.013361 0
3.060000 0.001254 0
3.065000 -0.010914 0
3.070000 -0.024951 0
3.075000 -0.043149 0
3.080000 -0.067637 0
3.085000 -0.099177 0
3.090000 -0.135692 0
3.095000 -0.171212 0
3.100000 -0.195931 0
3.105000 -0.197521 2
3.110000 -0.163148 0
3.115000 -0.081532 0
3.120000 0.054812 0
3.125000 0.246185 0
3.130000 0.480912 0
3.135000 0.731359 0
3.140000 0.955117 0
3.145000 1.104552 0
3.150000 1.142686 3
3.155000 1.057476 0
3.160000 0.866994 0
3.165000 0.612817 0
3.170000 0.343328 0
3.175000 0.099076 0
3.180000 -0.094309 0
3.185000 -0.225774 0
3.190000 -0.295312 0
3.195000 -0.310795 4
3.200000 -0.285730 0
3.205000 -0.236695 0
3.210000 -0.179847 0
3.215000 -0.127499 0
3.220000 -0.086281 0
3.225000 -0.057515 0
3.230000 -0.039104 0
3.235000 -0.027706 0
3.240000 -0.020237 0
3.245000 -0.014500 0
3.250000 -0.009176 0
3.255000 -0.003566 0
3.260000 0.002682 0
3.265000 0.009754 0
3.270000 0.017765 0
3.275000 0.026803 0
3.280000 0.036938 0
3.285000 0.048231 0
3.290000 0.060727 0
3.295000 0.074455 0
3.300000 0.089423 0
3.305000 0.105614 0
3.310000 0.122986 0
3.315000 0.141466 0
3.320000 0.160951 0
3.325000 0.181305 0
3.330000 0.202358 0
3.335000 0.223910 0
3.340000 0.245731 0
3.345000 0.267562 0
3.350000 0.289124 0
3.355000 0.310118 0
3.360000 0.330235 0
3.365000 0.349164 0
3.370000 0.366595 0
3.375000 0.382231 0
3.380000 0.395794 0
3.385000 0.407036 0
3.390000 0.415743 0
3.395000 0.421740 0
3.400000 0.424903 0
3.405000 0.425156 5
3.410000 0.422478 0
3.415000 0.416900 0
3.420000 0.408507 0
3.425000 0.397438 0
3.430000 0.383874 0
3.435000 0.368041 0
3.440000 0.350198 0
3.445000 0.330634 0
3.450000 0.309657 0
3.455000 0.287584 0
3.460000 0.264740 0
3.465000 0.241442 0
3.470000 0.217997 0
3.475000 0.194693 0
3.480000 0.171794 0
3.485000 0.149537 0
3.490000 0.128127 0
3.495000 0.107736 0
3.500000 0.088502 0
3.505000 0.070528 0
3.510000 0.053886 0
3.515000 0.038615 0
3.520000 0.024728 0
3.525000 0.012211 0
3.530000 0.001031 0
3.535000 -0.008866 0
3.540000 -0.017545 0
3.545000 -0.025085 0
3.550000 -0.031569 0
3.555000 -0.037088 0
3.560000 -0.041731 0
3.565000 -0.045590 0
3.570000 -0.048751 0
3.575000 -0.051299 0
3.580000 -0.053311 0
3.585000 -0.054862 0
3.590000 -0.056016 0
3.595000 -0.056834 0
3.600000 -0.057369 0
3.605000 -0.057668 0
3.610000 -0.057771 0
3.615000 -0.057714 0
3.620000 -0.057526 0
3.625000 -0.057233 0
3.630000 -0.056856 0
3.635000 -0.056413 0
3.640000 -0.055917 0
3.645000 -0.055381 0
3.650000 -0.054815 0
3.655000 -0.054225 0
3.660000 -0.053618 0
3.665000 -0.052963 0
3.670000 -0.052303 0
3.675000 -0.051646 0
3.680000 -0.050992 0
3.685000 -0.050341 0
3.690000 -0.049694 0
3.695000 -0.049050 0
3.700000 -0.048409 0
3.705000 -0.047771 0
3.710000 -0.047137 0
3.715000 -0.046506 0
3.720000 -0.045877 0
3.725000 -0.045252 0
3.730000 -0.044630 0
3.735000 -0.044012 0
3.740000 -0.043396 0
3.745000 -0.042783 0
3.750000 -0.042173 0
3.755000 -0.041567 0
3.760000 -0.040963 0
3.765000 -0.040363 0
3.770000 -0.039765 0
3.775000 -0.039171 0
3.780000 -0.038579 0
3.785000 -0.037990 0
3.790000 -0.037404 0
3.795000 -0.036822 0
3.800000 -0.036241 0
3.805000 -0.035664 0
3.810000 -0.035089 0
3.815000 -0.034517 0
3.820000 -0.033946 0
3.825000 -0.033377 0
3.830000 -0.032807 0
3.835000 -0.032236 0
3.840000 -0.031659 0
3.845000 -0.031073 0
3.850000 -0.030471 0
3.855000 -0.029842 0
3.860000 -0.029170 0
3.865000 -0.028434 0
3.870000 -0.027603 0
3.875000 -0.026635 0
3.880000 -0.025472 0
3.885000 -0.024042 0
3.890000 -0.022248 0
3.895000 -0.019973 0
3.900000 -0.017074 0
3.905000 -0.013384 0
3.910000 -0.008714 0
3.915000 -0.002857 0
3.920000 0.004400 0
3.925000 0.013265 0
3.930000 0.023922 0
3.935000 0.036515 0
3.940000 0.051120 0
3.945000 0.067729 0
3.950000 0.086221 0
3.955000 0.106356 0
3.960000 0.127755 0
3.965000 0.149911 0
3.970000 0.172194 0
3.975000 0.193879 0
3.980000 0.214181 0
3.985000 0.232298 0
3.990000 0.247465 0
3.995000 0.259005 0
4.000000 0.266378 0
4.005000 0.269223 1
4.010000 0.267386 0
4.015000 0.260931 0
4.020000 0.250139 0
4.025000 0.235486 0
4.030000 0.217603 0
4.035000 0.197239 0
4.040000 0.175199 0
4.045000 0.152298 0
4.050000 0.129310 0
4.055000 0.106924 0
4.060000 0.085717 0
4.065000 0.066128 0
4.070000 0.048440 0
4.075000 0.032755 0
4.080000 0.018943 0
4.085000 0.006531 0
4.090000 -0.005448 0
4.095000 -0.018601 0
4.100000 -0.035134 0
4.105000 -0.057379 0
4.110000 -0.086728 0
4.115000 -0.122145 0
4.120000 -0.158846 0
4.125000 -0.187950 0
4.130000 -0.197474 2
4.135000 -0.174292 0
4.140000 -0.106282 0
4.145000 0.015472 0
4.150000 0.193590 0
4.155000 0.419718 0
4.160000 0.669829 0
4.165000 0.903751 0
4.170000 1.072971 0
4.175000 1.136107 3
4.180000 1.075285 0
4.185000 0.903585 0
4.190000 0.658760 0
4.195000 0.388744 0
4.200000 0.136285 0
4.205000 -0.069808 0
4.210000 -0.215630 0
4.215000 -0.299007 0
4.220000 -0.326148 4
4.225000 -0.309320 0
4.230000 -0.264512 0
4.235000 -0.208188 0
4.240000 -0.153759 0
4.245000 -0.109278 0
4.250000 -0.077272 0
4.255000 -0.056335 0
4.260000 -0.043299 0
4.265000 -0.034941 0
4.270000 -0.028821 0
4.275000 -0.023408 0
4.280000 -0.017866 0
4.285000 -0.011767 0
4.290000 -0.004893 0
4.295000 0.002885 0
4.300000 0.011660 0
4.305000 0.021506 0
4.310000 0.032487 0
4.315000 0.044653 0
4.320000 0.058037 0
4.325000 0.072654 0
4.330000 0.088498 0
4.335000 0.105533 0
4.340000 0.123699 0
4.345000 0.142904 0
4.350000 0.163024 0
4.355000 0.183904 0
4.360000 0.205355 0
4.365000 0.227159 0
4.370000 0.249071 0
4.375000 0.270819 0
4.380000 0.292115 0
4.385000 0.312656 0
4.390000 0.332132 0
4.395000 0.350236 0
4.400000 0.366667 0
4.405000 0.381142 0
4.410000 0.393402 0
4.415000 0.403219 0
4.420000 0.410405 0
4.425000 0.414814 0
4.430000 0.416352 5
4.435000 0.414973 0
4.440000 0.410687 0
4.445000 0.403557 0
4.450000 0.393694 0
4.455000 0.381262 0
4.460000 0.366466 0
4.465000 0.349549 0
4.470000 0.330784 0
4.475000 0.310469 0
4.480000 0.288915 0
4.485000 0.266441 0
4.490000 0.243367 0
4.495000 0.220002 0
4.500000 0.196641 0
4.505000 0.173559 0
4.510000 0.151004 0
4.515000 0.129195 0
4.520000 0.108319 0
4.525000 0.088529 0
4.530000 0.069946 0
4.535000 0.052657 0
4.540000 0.036715 0
4.545000 0.022148 0
4.550000 0.008956 0
4.555000 -0.002885 0
4.560000 -0.013419 0
4.565000 -0.022703 0
4.570000 -0.030809 0
4.575000 -0.037818 0
4.580000 -0.043815 0
4.585000 -0.048891 0
4.590000 -0.053135 0
4.595000 -0.056635 0
4.600000 -0.059478 0
4.605000 -0.061744 0
4.610000 -0.063509 0
4.615000 -0.064841 0
4.620000 -0.065805 0
4.625000 -0.066456 0
4.630000 -0.066845 0
4.635000 -0.067016 0
4.640000 -0.067006 0
4.645000 -0.066849 0
4.650000 -0.066573 0
4.655000 -0.066201 0
4.660000 -0.065752 0
4.665000 -0.065242 0
4.670000 -0.064686 0
4.675000 -0.064094 0
4.680000 -0.063474 0
4.685000 -0.062833 0
4.690000 -0.062178 0
4.695000 -0.061480 0
4.700000 -0.060777 0
4.705000 -0.060077 0
4.710000 -0.059381 0
4.715000 -0.058689 0
4.720000 -0.058000 0
4.725000 -0.057314 0
4.730000 -0.056632 0
4.735000 -0.055954 0
4.740000 -0.055278 0
4.745000 -0.054606 0
4.750000 -0.053938 0
4.755000 -0.053272 0
4.760000 -0.052611 0
4.765000 -0.051952 0
4.770000 -0.051297 0
4.775000 -0.050644 0
4.780000 -0.049996 0
4.785000 -0.049350 0
4.790000 -0.048708 0
4.795000 -0.048068 0
4.800000 -0.047432 0
4.805000 -0.046800 0
4.810000 -0.046170 0
4.815000 -0.045543 0
4.820000 -0.044920 0
4.825000 -0.044299 0
4.830000 -0.043682 0
4.835000 -0.043067 0
4.840000 -0.042456 0
4.845000 -0.041846 0
4.850000 -0.041239 0
4.855000 -0.040632 0
4.860000 -0.040026 0
4.865000 -0.039417 0
4.870000 -0.038803 0
4.875000 -0.038179 0
4.880000 -0.037537 0
4.885000 -0.036866 0
4.890000 -0.036150 0
4.895000 -0.035365 0
4.900000 -0.034481 0
4.905000 -0.033452 0
4.910000 -0.032220 0
4.915000 -0.030709 0
4.920000 -0.028822 0
4.925000 -0.026438 0
4.930000 -0.023412 0
4.935000 -0.019576 0
4.940000 -0.014740 0
4.945000 -0.008697 0
4.950000 -0.001237 0
4.955000 0.007844 0
4.960000 0.018728 0
4.965000 0.031549 0
4.970000 0.046377 0
4.975000 0.063192 0
4.980000 0.081866 0
4.985000 0.102149 0
4.990000 0.123655 0
4.995000 0.145870 0
5.000000 0.168165 0
5.005000 0.189814 0
5.010000 0.210036 0
5.015000 0.228038 0
5.020000 0.243066 0
5.025000 0.254453 0
5.030000 0.261671 0
5.035000 0.264372 1
5.040000 0.262409 0
5.045000 0.255855 0
5.050000 0.244992 0
5.055000 0.230297 0
5.060000 0.212399 0
5.065000 0.192039 0
5.070000 0.170017 0
5.075000 0.147142 0
5.080000 0.124178 0
5.085000 0.101812 0
5.090000 0.080614 0
5.095000 0.061021 0
5.100000 0.043317 0
5.105000 0.027609 0
5.110000 0.013772 0
5.115000 0.001353 0
5.120000 -0.010589 0
5.125000 -0.023619 0
5.130000 -0.039903 0
5.135000 -0.061767 0
5.140000 -0.090678 0
5.145000 -0.125788 0
5.150000 -0.162609 0
5.155000 -0.192590 0
5.160000 -0.204014 2
5.165000 -0.183879 0
5.170000 -0.120016 0
5.175000 -0.003220 0
5.180000 0.169828 0
5.185000 0.392084 0
5.190000 0.641378 0
5.195000 0.879319 0
5.200000 1.058054 0
5.205000 1.134910 3
5.210000 1.089354 0
5.215000 0.931334 0
5.220000 0.694802 0
5.225000 0.425764 0
5.230000 0.167339 0
5.235000 -0.049765 0
5.240000 -0.209337 0
5.245000 -0.307097 0
5.250000 -0.347381 4
5.255000 -0.340780 0
5.260000 -0.302088 0
5.265000 -0.247491 0
5.270000 -0.191191 0
5.275000 -0.142752 0
5.280000 -0.106293 0
5.285000 -0.081537 0
5.290000 -0.065802 0
5.295000 -0.055841 0
5.300000 -0.048942 0
5.305000 -0.043276 0
5.310000 -0.037776 0
5.315000 -0.031884 0
5.320000 -0.025316 0
5.325000 -0.017914 0
5.330000 -0.009575 0
5.335000 -0.000220 0
5.340000 0.010219 0
5.345000 0.021796 0
5.350000 0.034555 0
5.355000 0.048520 0
5.360000 0.063696 0
5.365000 0.080067 0
5.370000 0.097591 0
5.375000 0.116197 0
5.380000 0.135786 0
5.385000 0.156228 0
5.390000 0.177363 0
5.395000 0.198999 0
5.400000 0.220917 0
5.405000 0.242872 0
5.410000 0.264598 0
5.415000 0.285812 0
5.420000 0.306218 0
5.425000 0.325517 0
5.430000 0.343411 0
5.435000 0.359611 0
5.440000 0.373848 0
5.445000 0.385873 0
5.450000 0.395471 0
5.455000 0.402463 0
5.460000 0.406715 0
5.465000 0.408135 5
5.470000 0.406686 0
5.475000 0.402377 0
5.480000 0.395270 0
5.485000 0.385476 0
5.490000 0.373151 0
5.495000 0.358493 0
5.500000 0.341736 0
5.505000 0.323144 0
5.510000 0.303002 0
5.515000 0.281613 0
5.520000 0.259285 0
5.525000 0.236326 0
5.530000 0.213039 0
5.535000 0.189712 0
5.540000 0.166614 0
5.545000 0.143990 0
5.550000 0.122060 0
5.555000 0.101009 0
5.560000 0.080996 0
5.565000 0.062144 0
5.570000 0.044544 0
5.575000 0.028260 0
5.580000 0.013324 0
5.585000 -0.000255 0
5.590000 -0.012495 0
5.595000 -0.023430 0
5.600000 -0.033113 0
5.605000 -0.041607 0
5.610000 -0.048988 0
5.615000 -0.055338 0
5.620000 -0.060743 0
5.625000 -0.065288 0
5.630000 -0.069062 0
5.635000 -0.072149 0
5.640000 -0.074629 0
5.645000 -0.076578 0
5.650000 -0.078066 0
5.655000 -0.079158 0
5.660000 -0.079913 0
5.665000 -0.080382 0
5.670000 -0.080612 0
5.675000 -0.080642 0
5.680000 -0.080508 0
5.685000 -0.080239 0
5.690000 -0.079861 0
5.695000 -0.079396 0
5.700000 -0.078861 0
5.705000 -0.078271 0
5.710000 -0.077639 0
5.715000 -0.076973 0
5.720000 -0.076283 0
5.725000 -0.075575 0
5.730000 -0.074845 0
5.735000 -0.074076 0
5.740000 -0.073310 0
5.745000 -0.072548 0
5.750000 -0.071790 0
5.755000 -0.071036 0
5.760000 -0.070285 0
5.765000 -0.069538 0
5.770000 -0.068795 0
5.775000 -0.068056 0
5.780000 -0.067320 0
5.785000 -0.066588 0
5.790000 -0.065860 0
5.795000 -0.065135 0
5.800000 -0.064414 0
5.805000 -0.063696 0
5.810000 -0.062983 0
5.815000 -0.062272 0
5.820000 -0.061565 0
5.825000 -0.060862 0
5.830000 -0.060162 0
5.835000 -0.059466 0
5.840000 -0.058773 0
5.845000 -0.058084 0
5.850000 -0.057398 0
5.855000 -0.056715 0
5.860000 -0.056036 0
5.865000 -0.055360 0
5.870000 -0.054688 0
5.875000 -0.054018 0
5.880000 -0.053352 0
5.885000 -0.052688 0
5.890000 -0.052027 0
5.895000 -0.051368 0
5.900000 -0.050709 0
5.905000 -0.050049 0
5.910000 -0.049386 0
5.915000 -0.048715 0
5.920000 -0.048030 0
5.925000 -0.047322 0
5.930000 -0.046577 0
5.935000 -0.045778 0
5.940000 -0.044895 0
5.945000 -0.043894 0
5.950000 -0.042725 0
5.955000 -0.041322 0
5.960000 -0.039603 0
5.965000 -0.037463 0
5.970000 -0.034776 0
5.975000 -0.031391 0
5.980000 -0.027137 0
5.985000 -0.021821 0
5.990000 -0.015243 0
5.995000 -0.007198 0
6.000000 0.002506 0
6.005000 0.014031 0
6.010000 0.027489 0
6.015000 0.042926 0
6.020000 0.060293 0
6.025000 0.079437 0
6.030000 0.100081 0
6.035000 0.121824 0
6.040000 0.144143 0
6.045000 0.166404 0
6.050000 0.187895 0
6.055000 0.207854 0
6.060000 0.225514 0
6.065000 0.240155 0
6.070000 0.251146 0
6.075000 0.257992 0
6.080000 0.260372 1
6.085000 0.258162 0
6.090000 0.251443 0
6.095000 0.240497 0
6.100000 0.225791 0
6.105000 0.207935 0
6.110000 0.187646 0
6.115000 0.165700 0
6.120000 0.142878 0
6.125000 0.119925 0
6.130000 0.097512 0
6.135000 0.076202 0
6.140000 0.056433 0
6.145000 0.038497 0
6.150000 0.022524 0
6.155000 0.008432 0
6.160000 -0.004154 0
6.165000 -0.016046 0
6.170000 -0.028631 0
6.175000 -0.043901 0
6.180000 -0.064140 0
6.185000 -0.091101 0
6.190000 -0.124707 0
6.195000 -0.161695 0
6.200000 -0.194922 0
6.205000 -0.213834 2
6.210000 -0.206019 0
6.215000 -0.159187 0
6.220000 -0.063121 0
6.225000 0.087977 0
6.230000 0.291849 0
6.235000 0.533480 0
6.240000 0.782086 0
6.245000 0.993977 0
6.250000 1.123421 0
6.255000 1.138294 3
6.260000 1.033406 0
6.265000 0.832060 0
6.270000 0.574512 0
6.275000 0.305427 0
6.280000 0.061722 0
6.285000 -0.133100 0
6.290000 -0.268541 0
6.295000 -0.344059 0
6.300000 -0.366294 4
6.305000 -0.347132 0
6.310000 -0.301626 0
6.315000 -0.245126 0
6.320000 -0.190197 0
6.325000 -0.144594 0
6.330000 -0.111028 0
6.335000 -0.088485 0
6.340000 -0.074121 0
6.345000 -0.064850 0
6.350000 -0.058208 0
6.355000 -0.052568 0
6.360000 -0.046993 0
6.365000 -0.040990 0
6.370000 -0.034304 0
6.375000 -0.026791 0
6.380000 -0.018355 0
6.385000 -0.008920 0
6.390000 0.001580 0
6.395000 0.013196 0
6.400000 0.025969 0
6.405000 0.039923 0
6.410000 0.055066 0
6.415000 0.071381 0
6.420000 0.088830 0
6.425000 0.107349 0
6.430000 0.126844 0
6.435000 0.147194 0
6.440000 0.168250 0
6.445000 0.189831 0
6.450000 0.211733 0
6.455000 0.233724 0
6.460000 0.255551 0
6.465000 0.276947 0
6.470000 0.297628 0
6.475000 0.317307 0
6.480000 0.335696 0
6.485000 0.352514 0
6.490000 0.367494 0
6.495000 0.380388 0
6.500000 0.390978 0
6.505000 0.399076 0
6.510000 0.404534 0
6.515000 0.407248 5
6.520000 0.407156 0
6.525000 0.404247 0
6.530000 0.398556 0
6.535000 0.390167 0
6.540000 0.379207 0
6.545000 0.365846 0
6.550000 0.350291 0
6.555000 0.332779 0
6.560000 0.313576 0
6.565000 0.292961 0
6.570000 0.271230 0
6.575000 0.248681 0
6.580000 0.225609 0
6.585000 0.202301 0
6.590000 0.179032 0
6.595000 0.156054 0
6.600000 0.133597 0
6.605000 0.111866 0
6.610000 0.091033 0
6.615000 0.071245 0
6.620000 0.052615 0
6.625000 0.035226 0
6.630000 0.019135 0
6.635000 0.004371 0
6.640000 -0.009062 0
6.645000 -0.021181 0
6.650000 -0.032021 0
6.655000 -0.041633 0
6.660000 -0.050079 0
6.665000 -0.057432 0
6.670000 -0.063771 0
6.675000 -0.069178 0
6.680000 -0.073737 0
6.685000 -0.077532 0
6.690000 -0.080644 0
6.695000 -0.083151 0
6.700000 -0.085128 0
6.705000 -0.086643 0
6.710000 -0.087759 0
6.715000 -0.088533 0
6.720000 -0.089017 0
6.725000 -0.089256 0
6.730000 -0.089291 0
6.735000 -0.089156 0
6.740000 -0.088881 0
6.745000 -0.088492 0
6.750000 -0.088011 0
6.755000 -0.087457 0
6.760000 -0.086844 0
6.765000 -0.086185 0
6.770000 -0.085491 0
6.775000 -0.084769 0
6.780000 -0.084027 0
6.785000 -0.083270 0
6.790000 -0.082467 0
6.795000 -0.081660 0
6.800000 -0.080856 0
6.805000 -0.080057 0
6.810000 -0.079261 0
6.815000 -0.078469 0
6.820000 -0.077682 0
6.825000 -0.076898 0
6.830000 -0.076118 0
6.835000 -0.075342 0
6.840000 -0.074570 0
6.845000 -0.073802 0
6.850000 -0.073038 0
6.855000 -0.072277 0
6.860000 -0.071521 0
6.865000 -0.070768 0
6.870000 -0.070018 0
6.875000 -0.069273 0
6.880000 -0.068531 0
6.885000 -0.067793 0
6.890000 -0.067059 0
6.895000 -0.066328 0
6.900000 -0.065601 0
6.905000 -0.064878 0
6.910000 -0.064158 0
6.915000 -0.063441 0
6.920000 -0.062729 0
6.925000 -0.062019 0
6.930000 -0.061314 0
6.935000 -0.060611 0
6.940000 -0.059912 0
6.945000 -0.059216 0
6.950000 -0.058522 0
6.955000 -0.057831 0
6.960000 -0.057140 0
6.965000 -0.056449 0
6.970000 -0.055755 0
6.975000 -0.055054 0
6.980000 -0.054342 0
6.985000 -0.053609 0
6.990000 -0.052844 0
6.995000 -0.052030 0
7.000000 -0.051142 0
7.005000 -0.050150 0
7.010000 -0.049008 0
7.015000 -0.047659 0
7.020000 -0.046030 0
7.025000 -0.044027 0
7.030000 -0.041535 0
7.035000 -0.038420 0
7.040000 -0.034522 0
7.045000 -0.029666 0
7.050000 -0.023660 0
7.055000 -0.016308 0
7.060000 -0.007417 0
7.065000 0.003185 0
7.070000 0.015634 0
7.075000 0.030009 0
7.080000 0.046315 0
7.085000 0.064464 0
7.090000 0.084259 0
7.095000 0.105388 0
7.100000 0.127417 0
7.105000 0.149802 0
7.110000 0.171906 0
7.115000 0.193021 0
7.120000 0.212407 0
7.125000 0.229336 0
7.130000 0.243130 0
7.135000 0.253212 0
7.140000 0.259142 0
7.145000 0.260647 1
7.150000 0.257647 0
7.155000 0.250254 0
7.160000 0.238770 0
7.165000 0.223664 0
7.170000 0.205539 0
7.175000 0.185095 0
7.180000 0.163079 0
7.185000 0.140244 0
7.190000 0.117307 0
7.195000 0.094909 0
7.200000 0.073593 0
7.205000 0.053782 0
7.210000 0.035764 0
7.215000 0.019671 0
7.220000 0.005443 0
7.225000 -0.007253 0
7.230000 -0.019144 0
7.235000 -0.031491 0
7.240000 -0.046134 0
7.245000 -0.065271 0
7.250000 -0.090773 0
7.255000 -0.123038 0
7.260000 -0.159695 0
7.265000 -0.194763 0
7.270000 -0.218811 0
7.275000 -0.220188 2
7.280000 -0.186820 0
7.285000 -0.108031 0
7.290000 0.023501 0
7.295000 0.208837 0
7.300000 0.438589 0
7.305000 0.689084 0
7.310000 0.922449 0
7.315000 1.093706 0
7.320000 1.164156 3
7.325000 1.115809 0
7.330000 0.958294 0
7.335000 0.723610 0
7.340000 0.455110 0
7.345000 0.194062 0
7.350000 -0.029280 0
7.355000 -0.198056 0
7.360000 -0.306774 0
7.365000 -0.358276 0
7.370000 -0.361490 4
7.375000 -0.329656 0
7.380000 -0.278023 0
7.385000 -0.220880 0
7.390000 -0.168855 0
7.395000 -0.127607 0
7.400000 -0.098245 0
7.405000 -0.078918 0
7.410000 -0.066613 0
7.415000 -0.058450 0
7.420000 -0.052284 0
7.425000 -0.046759 0
7.430000 -0.041116 0
7.435000 -0.034959 0
7.440000 -0.028080 0
7.445000 -0.020354 0
7.450000 -0.011693 0
7.455000 -0.002026 0
7.460000 0.008706 0
7.465000 0.020554 0
7.470000 0.033553 0
7.475000 0.047723 0
7.480000 0.063067 0
7.485000 0.079566 0
7.490000 0.097178 0
7.495000 0.115833 0
7.500000 0.135437 0
7.505000 0.155868 0
7.510000 0.176972 0
7.515000 0.198573 0
7.520000 0.220464 0
7.525000 0.242418 0
7.530000 0.264185 0
7.535000 0.285501 0
7.540000 0.306088 0
7.545000 0.325664 0
7.550000 0.343948 0
7.555000 0.360665 0
7.560000 0.375554 0
7.565000 0.388373 0
7.570000 0.398909 0
7.575000 0.406978 0
7.580000 0.412436 0
7.585000 0.415179 5
7.590000 0.415147 0
7.595000 0.412326 0
7.600000 0.406749 0
7.605000 0.398496 0
7.610000 0.387689 0
7.615000 0.374492 0
7.620000 0.359103 0
7.625000 0.341754 0
7.630000 0.322701 0
7.635000 0.302218 0
7.640000 0.280592 0
7.645000 0.258115 0
7.650000 0.235077 0
7.655000 0.211762 0
7.660000 0.188440 0
7.665000 0.165363 0
7.670000 0.142761 0
7.675000 0.120839 0
7.680000 0.099773 0
7.685000 0.079712 0
7.690000 0.060774 0
7.695000 0.043049 0
7.700000 0.026597 0
7.705000 0.011454 0
7.710000 -0.002370 0
7.715000 -0.014885 0
7.720000 -0.026122 0
7.725000 -0.036126 0
7.730000 -0.044955 0
7.735000 -0.052677 0
7.740000 -0.059368 0
7.745000 -0.065107 0
7.750000 -0.069977 0
7.755000 -0.074060 0
7.760000 -0.077436 0
7.765000 -0.080184 0
7.770000 -0.082378 0
7.775000 -0.084088 0
7.780000 -0.085376 0
7.785000 -0.086303 0
7.790000 -0.086920 0
7.795000 -0.087276 0
7.800000 -0.087411 0
7.805000 -0.087362 0
7.810000 -0.087162 0
7.815000 -0.086836 0
7.820000 -0.086409 0
7.825000 -0.085900 0
7.830000 -0.085326 0
7.835000 -0.084699 0
7.840000 -0.084033 0
7.845000 -0.083335 0
7.850000 -0.082613 0
7.855000 -0.081873 0
7.860000 -0.081121 0
7.865000 -0.080327 0
7.870000 -0.079531 0
7.875000 -0.078738 0
7.880000 -0.077949 0
7.885000 -0.077164 0
7.890000 -0.076383 0
7.895000 -0.075605 0
7.900000 -0.074832 0
7.905000 -0.074063 0
7.910000 -0.073297 0
7.915000 -0.072535 0
7.920000 -0.071777 0
7.925000 -0.071023 0
7.930000 -0.070272 0
7.935000 -0.069526 0
7.940000 -0.068783 0
7.945000 -0.068043 0
7.950000 -0.067308 0
7.955000 -0.066576 0
7.960000 -0.065847 0
7.965000 -0.065123 0
7.970000 -0.064402 0
7.975000 -0.063684 0
7.980000 -0.062970 0
7.985000 -0.062260 0
7.990000 -0.061553 0
7.995000 -0.060850 0
8.000000 -0.060150 0
8.005000 -0.059454 0
8.010000 -0.058760 0
8.015000 -0.058070 0
8.020000 -0.057383 0
8.025000 -0.056699 0
8.030000 -0.056016 0
8.035000 -0.055334 0
8.040000 -0.054652 0
8.045000 -0.053967 0
8.050000 -0.053275 0
8.055000 -0.052571 0
8.060000 -0.051847 0
8.065000 -0.051092 0
8.070000 -0.050288 0
8.075000 -0.049413 0
8.080000 -0.048435 0
8.085000 -0.047312 0
8.090000 -0.045988 0
8.095000 -0.044392 0
8.100000 -0.042434 0
8.105000 -0.040005 0
8.110000 -0.036973 0
8.115000 -0.033187 0
8.120000 -0.028474 0
8.125000 -0.022649 0
8.130000 -0.015520 0
8.135000 -0.006896 0
8.140000 0.003394 0
8.145000 0.015491 0
8.150000 0.029484 0
8.155000 0.045394 0
8.160000 0.063154 0
8.165000 0.082594 0
8.170000 0.103433 0
8.175000 0.125274 0
8.180000 0.147610 0
8.185000 0.169836 0
8.190000 0.191274 0
8.195000 0.211205 0
8.200000 0.228908 0
8.205000 0.243700 0
8.210000 0.254980 0
8.215000 0.262273 0
8.220000 0.265255 1
8.225000 0.263783 0
8.230000 0.257903 0
8.235000 0.247846 0
8.240000 0.234016 0
8.245000 0.216957 0
8.250000 0.197325 0
8.255000 0.175838 0
8.260000 0.153237 0
8.265000 0.130243 0
8.270000 0.107521 0
8.275000 0.085646 0
8.280000 0.065089 0
8.285000 0.046193 0
8.290000 0.029162 0
8.295000 0.014034 0
8.300000 0.000627 0
8.305000 -0.011561 0
8.310000 -0.023482 0
8.315000 -0.036650 0
8.320000 -0.053085 0
8.325000 -0.074908 0
8.330000 -0.103464 0
8.335000 -0.138105 0
8.340000 -0.175047 0
8.345000 -0.206933 0
8.350000 -0.223445 2
8.355000 -0.212783 0
8.360000 -0.163442 0
8.365000 -0.065942 0
8.370000 0.085053 0
8.375000 0.287458 0
8.380000 0.527564 0
8.385000 0.777202 0
8.390000 0.995869 0
8.395000 1.139819 0
8.400000 1.175891 3
8.405000 1.093521 0
8.410000 0.908903 0
8.415000 0.659224 0
8.420000 0.388952 0
8.425000 0.137004 0
8.430000 -0.070304 0
8.435000 -0.219912 0
8.440000 -0.309299 0
8.445000 -0.343558 4
8.450000 -0.333367 0
8.455000 -0.293093 0
8.460000 -0.238158 0
8.465000 -0.181961 0
8.470000 -0.133520 0
8.475000 -0.096771 0
8.480000 -0.071529 0
8.485000 -0.055295 0
8.490000 -0.044962 0
8.495000 -0.037867 0
8.500000 -0.032164 0
8.505000 -0.026747 0
8.510000 -0.021021 0
8.515000 -0.014677 0
8.520000 -0.007549 0
8.525000 0.000471 0
8.530000 0.009462 0
8.535000 0.019492 0
8.540000 0.030617 0
8.545000 0.042881 0
8.550000 0.056314 0
8.555000 0.070929 0
8.560000 0.086719 0
8.565000 0.103654 0
8.570000 0.121680 0
8.575000 0.140715 0
8.580000 0.160650 0
8.585000 0.181347 0
8.590000 0.202640 0
8.595000 0.224334 0
8.600000 0.246212 0
8.605000 0.268031 0
8.610000 0.289531 0
8.615000 0.310437 0
8.620000 0.330467 0
8.625000 0.349334 0
8.630000 0.366757 0
8.635000 0.382465 0
8.640000 0.396203 0
8.645000 0.407742 0
8.650000 0.416881 0
8.655000 0.423457 0
8.660000 0.427345 0
8.665000 0.428464 5
8.670000 0.426781 0
8.675000 0.422309 0
8.680000 0.415107 0
8.685000 0.405280 0
8.690000 0.392979 0
8.695000 0.378389 0
8.700000 0.361731 0
8.705000 0.343255 0
8.710000 0.323232 0
8.715000 0.301947 0
8.720000 0.279693 0
8.725000 0.256766 0
8.730000 0.233456 0
8.735000 0.210041 0
8.740000 0.186782 0
8.745000 0.163921 0
8.750000 0.141674 0
8.755000 0.120230 0
8.760000 0.099748 0
8.765000 0.080358 0
8.770000 0.062160 0
8.775000 0.045225 0
8.780000 0.029598 0
8.785000 0.015295 0
8.790000 0.002313 0
8.795000 -0.009373 0
8.800000 -0.019803 0
8.805000 -0.029035 0
8.810000 -0.037133 0
8.815000 -0.044173 0
8.820000 -0.050233 0
8.825000 -0.055396 0
8.830000 -0.059746 0
8.835000 -0.063365 0
8.840000 -0.066332 0
8.845000 -0.068723 0
8.850000 -0.070610 0
8.855000 -0.072059 0
8.860000 -0.073131 0
8.865000 -0.073879 0
8.870000 -0.074354 0
8.875000 -0.074598 0
8.880000 -0.074649 0
8.885000 -0.074541 0
8.890000 -0.074302 0
8.895000 -0.073956 0
8.900000 -0.073524 0
8.905000 -0.073023 0
8.910000 -0.072467 0
8.915000 -0.071868 0
8.920000 -0.071236 0
8.925000 -0.070579 0
8.930000 -0.069903 0
8.935000 -0.069212 0
8.940000 -0.068478 0
8.945000 -0.067741 0
8.950000 -0.067007 0
8.955000 -0.066276 0
8.960000 -0.065549 0
8.965000 -0.064826 0
8.970000 -0.064107 0
8.975000 -0.063391 0
8.980000 -0.062678 0
8.985000 -0.061969 0
8.990000 -0.061264 0
8.995000 -0.060562 0
9.000000 -0.059864 0
9.005000 -0.059169 0
9.010000 -0.058478 0
9.015000 -0.057790 0
9.020000 -0.057105 0
9.025000 -0.056424 0
9.030000 -0.055747 0
9.035000 -0.055072 0
9.040000 -0.054401 0
9.045000 -0.053734 0
9.050000 -0.053069 0
9.055000 -0.052409 0
9.060000 -0.051751 0
9.065000 -0.051096 0
9.070000 -0.050445 0
9.075000 -0.049797 0
9.080000 -0.049153 0
9.085000 -0.048511 0
9.090000 -0.047872 0
9.095000 -0.047236 0
9.100000 -0.046602 0
9.105000 -0.045969 0
9.110000 -0.045338 0
9.115000 -0.044705 0
9.120000 -0.044069 0
9.125000 -0.043426 0
9.130000 -0.042771 0
9.135000 -0.042094 0
9.140000 -0.041384 0
9.145000 -0.040625 0
9.150000 -0.039792 0
9.155000 -0.038852 0
9.160000 -0.037763 0
9.165000 -0.036466 0
9.170000 -0.034888 0
9.175000 -0.032937 0
9.180000 -0.030500 0
9.185000 -0.027442 0
9.190000 -0.023607 0
9.195000 -0.018820 0
9.200000 -0.012893 0
9.205000 -0.005629 0
9.210000 0.003160 0
9.215000 0.013647 0
9.220000 0.025966 0
9.225000 0.040200 0
9.230000 0.056357 0
9.235000 0.074354 0
9.240000 0.094003 0
9.245000 0.115002 0
9.250000 0.136929 0
9.255000 0.159253 0
9.260000 0.181349 0
9.265000 0.202521 0
9.270000 0.222039 0
9.275000 0.239178 0
9.280000 0.253261 0
9.285000 0.263705 0
9.290000 0.270057 0
9.295000 0.272030 1
9.300000 0.269520 0
9.305000 0.262616 0
9.310000 0.251593 0
9.315000 0.236896 0
9.320000 0.219106 0
9.325000 0.198904 0
9.330000 0.177026 0
9.335000 0.154219 0
9.340000 0.131200 0
9.345000 0.108620 0
9.350000 0.087034 0
9.355000 0.066881 0
9.360000 0.048470 0
9.365000 0.031965 0
9.370000 0.017345 0
9.375000 0.004341 0
9.380000 -0.007676 0
9.385000 -0.019837 0
9.390000 -0.033851 0
9.395000 -0.051857 0
9.400000 -0.075862 0
9.405000 -0.106704 0
9.410000 -0.142770 0
9.415000 -0.179007 0
9.420000 -0.206826 0
9.425000 -0.215077 2
9.430000 -0.191741 0
9.435000 -0.125728 0
9.440000 -0.008699 0
9.445000 0.162410 0
9.450000 0.381558 0
9.455000 0.629456 0
9.460000 0.872188 0
9.465000 1.066090 0
9.470000 1.169480 3
9.475000 1.156998 0
9.480000 1.028094 0
9.485000 0.809569 0
9.490000 0.545053 0
9.495000 0.279316 0
9.500000 0.046926 0
9.505000 -0.131837 0
9.510000 -0.249431 0
9.515000 -0.307722 0
9.520000 -0.315371 4
9.525000 -0.285880 0
9.530000 -0.235142 0
9.535000 -0.178230 0
9.540000 -0.126397 0
9.545000 -0.085593 0
9.550000 -0.056914 0
9.555000 -0.038344 0
9.560000 -0.026710 0
9.565000 -0.019055 0
9.570000 -0.013229 0
9.575000 -0.007914 0
9.580000 -0.002387 0
9.585000 0.003719 0
9.590000 0.010600 0
9.595000 0.018372 0
9.600000 0.027123 0
9.605000 0.036925 0
9.610000 0.047836 0
9.615000 0.059905 0
9.620000 0.073163 0
9.625000 0.087627 0
9.630000 0.103289 0
9.635000 0.120119 0
9.640000 0.138063 0
9.645000 0.157035 0
9.650000 0.176922 0
9.655000 0.197580 0
9.660000 0.218835 0
9.665000 0.240485 0
9.670000 0.262299 0
9.675000 0.284025 0
9.680000 0.305392 0
9.685000 0.326113 0
9.690000 0.345893 0
9.695000 0.364437 0
9.700000 0.381454 0
9.705000 0.396666 0
9.710000 0.409815 0
9.715000 0.420669 0
9.720000 0.429031 0
9.725000 0.434742 0
9.730000 0.437687 0
9.735000 0.437796 5
9.740000 0.435052 0
9.745000 0.429485 0
9.750000 0.421175 0
9.755000 0.410249 0
9.760000 0.396880 0
9.765000 0.381275 0
9.770000 0.363678 0
9.775000 0.344358 0
9.780000 0.323604 0
9.785000 0.301717 0
9.790000 0.279004 0
9.795000 0.255767 0
9.800000 0.232301 0
9.805000 0.208886 0
9.810000 0.185779 0
9.815000 0.163216 0
9.820000 0.141403 0
9.825000 0.120517 0
9.830000 0.100701 0
9.835000 0.082070 0
9.840000 0.064706 0
9.845000 0.048662 0
9.850000 0.033963 0
9.855000 0.020612 0
9.860000 0.008585 0
9.865000 -0.002154 0
9.870000 -0.011663 0
9.875000 -0.020007 0
9.880000 -0.027262 0
9.885000 -0.033510 0
9.890000 -0.038836 0
9.895000 -0.043327 0
9.900000 -0.047068 0
9.905000 -0.050141 0
9.910000 -0.052626 0
9.915000 -0.054596 0
9.920000 -0.056119 0
9.925000 -0.057260 0
9.930000 -0.058073 0
9.935000 -0.058610 0
9.940000 -0.058915 0
9.945000 -0.059027 0
9.950000 -0.058979 0
9.955000 -0.058802 0
9.960000 -0.058518 0
9.965000 -0.058149 0
9.970000 -0.057713 0
9.975000 -0.057223 0
9.980000 -0.056691 0
9.985000 -0.056127 0
9.990000 -0.055539 0
9.995000 -0.054932 0
10.000000 -0.054304 0
10.005000 -0.053637 0
10.010000 -0.052973 0
10.015000 -0.052313 0
10.020000 -0.051656 0
10.025000 -0.051002 0
10.030000 -0.050351 0
10.035000 -0.049704 0
10.040000 -0.049060 0
10.045000 -0.048419 0
10.050000 -0.047781 0
10.055000 -0.047147 0
10.060000 -0.046515 0
10.065000 -0.045887 0
10.070000 -0.045262 0
10.075000 -0.044640 0
10.080000 -0.044021 0
10.085000 -0.043405 0
10.090000 -0.042792 0
10.095000 -0.042183 0
10.100000 -0.041576 0
10.105000 -0.040972 0
10.110000 -0.040372 0
10.115000 -0.039774 0
10.120000 -0.039180 0
10.125000 -0.038588 0
10.130000 -0.037999 0
10.135000 -0.037413 0
10.140000 -0.036830 0
10.145000 -0.036250 0
10.150000 -0.035672 0
10.155000 -0.035097 0
10.160000 -0.034524 0
10.165000 -0.033952 0
10.170000 -0.033380 0
10.175000 -0.032808 0
10.180000 -0.032231 0
10.185000 -0.031648 0
10.190000 -0.031051 0
10.195000 -0.030433 0
10.200000 -0.029780 0
10.205000 -0.029076 0
10.210000 -0.028294 0
10.215000 -0.027401 0
10.220000 -0.026351 0
10.225000 -0.025082 0
10.230000 -0.023516 0
10.235000 -0.021554 0
10.240000 -0.019076 0
10.245000 -0.015938 0
10.250000 -0.011975 0
10.255000 -0.007002 0
10.260000 -0.000820 0
10.265000 0.006772 0
10.270000 0.015968 0
10.275000 0.026937 0
10.280000 0.039806 0
10.285000 0.054636 0
10.290000 0.071409 0
10.295000 0.090000 0
10.300000 0.110173 0
10.305000 0.131565 0
10.310000 0.153693 0
10.315000 0.175963 0
10.320000 0.197691 0
10.325000 0.218133 0
10.330000 0.236531 0
10.335000 0.252152 0
10.340000 0.264339 0
10.345000 0.272554 0
10.350000 0.276419 1
10.355000 0.275742 0
10.360000 0.270531 0
10.365000 0.260997 0
10.370000 0.247537 0
10.375000 0.230705 0
10.380000 0.211178 0
10.385000 0.189704 0
10.390000 0.167059 0
10.395000 0.143998 0
10.400000 0.121217 0
10.405000 0.099319 0
10.410000 0.078789 0
10.415000 0.059978 0
10.420000 0.043085 0
10.425000 0.028129 0
10.430000 0.014879 0
10.435000 0.002742 0
10.440000 -0.009380 0
10.445000 -0.023198 0
10.450000 -0.040902 0
10.455000 -0.064608 0
10.460000 -0.095275 0
10.465000 -0.131333 0
10.470000 -0.167608 0
10.475000 -0.195192 0
10.480000 -0.202501 2
10.485000 -0.177087 0
10.490000 -0.107566 0
10.495000 0.014395 0
10.500000 0.191272 0
10.505000 0.415465 0
10.510000 0.665002 0
10.515000 0.902775 0
10.520000 1.082936 0
10.525000 1.164361 3
10.530000 1.124147 0
10.535000 0.969178 0
10.540000 0.733596 0
10.545000 0.464475 0
10.550000 0.206087 0
10.555000 -0.010166 0
10.560000 -0.167916 0
10.565000 -0.263100 0
10.570000 -0.300501 4
10.575000 -0.291297 0
10.580000 -0.250871 0
10.585000 -0.195782 0
10.590000 -0.140221 0
10.595000 -0.093382 0
10.600000 -0.058843 0
10.605000 -0.035862 0
10.610000 -0.021499 0
10.615000 -0.012460 0
10.620000 -0.006117 0
10.625000 -0.000756 0
10.630000 0.004588 0
10.635000 0.010411 0
10.640000 0.016966 0
10.645000 0.024397 0
10.650000 0.032801 0
10.655000 0.042256 0
10.660000 0.052827 0
10.665000 0.064569 0
10.670000 0.077518 0
10.675000 0.091696 0
10.680000 0.107099 0
10.685000 0.123703 0
10.690000 0.141454 0
10.695000 0.160269 0
10.700000 0.180034 0
10.705000 0.200603 0
10.710000 0.221798 0
10.715000 0.243411 0
10.720000 0.265205 0
10.725000 0.286918 0
10.730000 0.308268 0
10.735000 0.328957 0
10.740000 0.348680 0
10.745000 0.367129 0
10.750000 0.384002 0
10.755000 0.399013 0
10.760000 0.411894 0
10.765000 0.422410 0
10.770000 0.430360 0
10.775000 0.435585 0
10.780000 0.437974 5
10.785000 0.437465 0
10.790000 0.434051 0
10.795000 0.427774 0
10.800000 0.418731 0
10.805000 0.407067 0
10.810000 0.392971 0
10.815000 0.376671 0
10.820000 0.358431 0
10.825000 0.338537 0
10.830000 0.317295 0
10.835000 0.295021 0
10.840000 0.272033 0
10.845000 0.248641 0
10.850000 0.225147 0
10.855000 0.201830 0
10.860000 0.178947 0
10.865000 0.156729 0
10.870000 0.135373 0
10.875000 0.115045 0
10.880000 0.095876 0
10.885000 0.077967 0
10.890000 0.061384 0
10.895000 0.046165 0
10.900000 0.032319 0
10.905000 0.019833 0
10.910000 0.008671 0
10.915000 -0.001218 0
10.920000 -0.009902 0
10.925000 -0.017457 0
10.930000 -0.023965 0
10.935000 -0.029516 0
10.940000 -0.034198 0
10.945000 -0.038100 0
10.950000 -0.041310 0
10.955000 -0.043908 0
10.960000 -0.045973 0
10.965000 -0.047577 0
10.970000 -0.048784 0
10.975000 -0.049655 0
10.980000 -0.050242 0
10.985000 -0.050592 0
10.990000 -0.050744 0
10.995000 -0.050734 0
11.000000 -0.050593 0
11.005000 -0.050344 0
11.010000 -0.050010 0
11.015000 -0.049607 0
11.020000 -0.049152 0
11.025000 -0.048655 0
11.030000 -0.048126 0
11.035000 -0.047573 0
11.040000 -0.047003 0
11.045000 -0.046412 0
11.050000 -0.045784 0
11.055000 -0.045160 0
11.060000 -0.044538 0
11.065000 -0.043920 0
11.070000 -0.043305 0
11.075000 -0.042692 0
11.080000 -0.042083 0
11.085000 -0.041477 0
11.090000 -0.040874 0
11.095000 -0.040274 0
11.100000 -0.039677 0
11.105000 -0.039083 0
11.110000 -0.038491 0
11.115000 -0.037903 0
11.120000 -0.037318 0
11.125000 -0.036736 0
11.130000 -0.036156 0
11.135000 -0.035579 0
11.140000 -0.035006 0
11.145000 -0.034435 0
11.150000 -0.033867 0
11.155000 -0.033302 0
11.160000 -0.032739 0
11.165000 -0.032180 0
11.170000 -0.031623 0
11.175000 -0.031069 0
11.180000 -0.030518 0
11.185000 -0.029969 0
11.190000 -0.029423 0
11.195000 -0.028879 0
11.200000 -0.028336 0
11.205000 -0.027796 0
11.210000 -0.027255 0
11.215000 -0.026714 0
11.220000 -0.026169 0
11.225000 -0.025617 0
11.230000 -0.025051 0
11.235000 -0.024464 0
11.240000 -0.023843 0
11.245000 -0.023169 0
11.250000 -0.022416 0
11.255000 -0.021549 0
11.260000 -0.020518 0
11.265000 -0.019261 0
11.270000 -0.017693 0
11.275000 -0.015712 0
11.280000 -0.013188 0
11.285000 -0.009970 0
11.290000 -0.005882 0
11.295000 -0.000731 0
11.300000 0.005693 0
11.305000 0.013597 0
11.310000 0.023180 0
11.315000 0.034608 0
11.320000 0.047997 0
11.325000 0.063391 0
11.330000 0.080739 0
11.335000 0.099877 0
11.340000 0.120515 0
11.345000 0.142232 0
11.350000 0.164482 0
11.355000 0.186606 0
11.360000 0.207864 0
11.365000 0.227473 0
11.370000 0.244649 0
11.375000 0.258662 0
11.380000 0.268886 0
11.385000 0.274840 0
11.390000 0.276230 1
11.395000 0.272971 0
11.400000 0.265190 0
11.405000 0.253222 0
11.410000 0.237583 0
11.415000 0.218931 0
11.420000 0.198024 0
11.425000 0.175661 0
11.430000 0.152640 0
11.435000 0.129706 0
11.440000 0.107515 0
11.445000 0.086603 0
11.450000 0.067372 0
11.455000 0.050066 0
11.460000 0.034745 0
11.465000 0.021222 0
11.470000 0.008955 0
11.475000 -0.003115 0
11.480000 -0.016683 0
11.485000 -0.033990 0
11.490000 -0.057273 0
11.495000 -0.087645 0
11.500000 -0.123627 0
11.505000 -0.159958 0
11.510000 -0.187423 0
11.515000 -0.193973 2
11.520000 -0.166689 0
11.525000 -0.093855 0
11.530000 0.032875 0
11.535000 0.215336 0
11.540000 0.444215 0
11.545000 0.694630 0
11.550000 0.926142 0
11.555000 1.090895 0
11.560000 1.148917 3
11.565000 1.082969 0
11.570000 0.906826 0
11.575000 0.659457 0
11.580000 0.389341 0
11.585000 0.139004 0
11.590000 -0.063419 0
11.595000 -0.204788 0
11.600000 -0.283612 0
11.605000 -0.306706 4
11.610000 -0.286867 0
11.615000 -0.240428 0
11.620000 -0.183873 0
11.625000 -0.130289 0
11.630000 -0.087210 0
11.635000 -0.056663 0
11.640000 -0.036923 0
11.645000 -0.024711 0
11.650000 -0.016841 0
11.655000 -0.010971 0
11.660000 -0.005664 0
11.665000 -0.000145 0
11.670000 0.005974 0
11.675000 0.012897 0
11.680000 0.020744 0
11.685000 0.029607 0
11.690000 0.039560 0
11.695000 0.050663 0
11.700000 0.062965 0
11.705000 0.076496 0
11.710000 0.091268 0
11.715000 0.107268 0
11.720000 0.124458 0
11.725000 0.142769 0
11.730000 0.162102 0
11.735000 0.182325 0
11.740000 0.203273 0
11.745000 0.224751 0
11.750000 0.246531 0
11.755000 0.268358 0
11.760000 0.289954 0
11.765000 0.311024 0
11.770000 0.331259 0
11.775000 0.350347 0
11.780000 0.367976 0
11.785000 0.383848 0
11.790000 0.397682 0
11.795000 0.409225 0
11.800000 0.418256 0
11.805000 0.424596 0
11.810000 0.428114 0
11.815000 0.428727 5
11.820000 0.426407 0
11.825000 0.421178 0
11.830000 0.413120 0
11.835000 0.402362 0
11.840000 0.389084 0
11.845000 0.373504 0
11.850000 0.355880 0
11.855000 0.336496 0
11.860000 0.315659 0
11.865000 0.293687 0
11.870000 0.270903 0
11.875000 0.247627 0
11.880000 0.224167 0
11.885000 0.200815 0
11.890000 0.177837 0
11.895000 0.155476 0
11.900000 0.133940 0
11.905000 0.113404 0
11.910000 0.094012 0
11.915000 0.075870 0
11.920000 0.059054 0
11.925000 0.043607 0
11.930000 0.029545 0
11.935000 0.016857 0
11.940000 0.005511 0
11.945000 -0.004544 0
11.950000 -0.013373 0
11.955000 -0.021052 0
11.960000 -0.027666 0
11.965000 -0.033303 0
11.970000 -0.038054 0
11.975000 -0.042010 0
11.980000 -0.045259 0
11.985000 -0.047885 0
11.990000 -0.049967 0
11.995000 -0.051579 0
12.000000 -0.052789 0
12.005000 -0.053655 0
12.010000 -0.054233 0
12.015000 -0.054570 0
12.020000 -0.054707 0
12.025000 -0.054680 0
12.030000 -0.054520 0
12.035000 -0.054251 0
12.040000 -0.053897 0
12.045000 -0.053474 0
12.050000 -0.052998 0
12.055000 -0.052481 0
12.060000 -0.051932 0
12.065000 -0.051359 0
12.070000 -0.050768 0
12.075000 -0.050158 0
12.080000 -0.049512 0
12.085000 -0.048869 0
12.090000 -0.048229 0
12.095000 -0.047592 0
12.100000 -0.046958 0
12.105000 -0.046328 0
12.110000 -0.045701 0
12.115000 -0.045076 0
12.120000 -0.044455 0
12.125000 -0.043837 0
12.130000 -0.043222 0
12.135000 -0.042611 0
12.140000 -0.042002 0
12.145000 -0.041396 0
12.150000 -0.040793 0
12.155000 -0.040194 0
12.160000 -0.039597 0
12.165000 -0.039003 0
12.170000 -0.038412 0
12.175000 -0.037825 0
12.180000 -0.037240 0
12.185000 -0.036658 0
12.190000 -0.036079 0
12.195000 -0.035502 0
12.200000 -0.034929 0
12.205000 -0.034358 0
12.210000 -0.033791 0
12.215000 -0.033225 0
12.220000 -0.032663 0
12.225000 -0.032102 0
12.230000 -0.031544 0
12.235000 -0.030987 0
12.240000 -0.030429 0
12.245000 -0.029870 0
12.250000 -0.029306 0
12.255000 -0.028733 0
12.260000 -0.028144 0
12.265000 -0.027529 0
12.270000 -0.026873 0
12.275000 -0.026155 0
12.280000 -0.025343 0
12.285000 -0.024398 0
12.290000 -0.023263 0
12.295000 -0.021866 0
12.300000 -0.020112 0
12.305000 -0.017886 0
12.310000 -0.015046 0
12.315000 -0.011426 0
12.320000 -0.006839 0
12.325000 -0.001079 0
12.330000 0.006068 0
12.335000 0.014811 0
12.340000 0.025337 0
12.345000 0.037792 0
12.350000 0.052258 0
12.355000 0.068732 0
12.360000 0.087103 0
12.365000 0.107135 0
12.370000 0.128461 0
12.375000 0.150577 0
12.380000 0.172862 0
12.385000 0.194594 0
12.390000 0.214990 0
12.395000 0.233245 0
12.400000 0.248591 0
12.405000 0.260343 0
12.410000 0.267952 0
12.415000 0.271045 1
12.420000 0.269456 0
12.425000 0.263237 0
12.430000 0.252658 0
12.435000 0.238186 0
12.440000 0.220446 0
12.445000 0.200181 0
12.450000 0.178198 0
12.455000 0.155312 0
12.460000 0.132302 0
12.465000 0.109863 0
12.470000 0.088578 0
12.475000 0.068893 0
12.480000 0.051101 0
12.485000 0.035314 0
12.490000 0.021413 0
12.495000 0.008945 0
12.500000 -0.003034 0
12.505000 -0.016101 0
12.510000 -0.032444 0
12.515000 -0.054410 0
12.520000 -0.083465 0
12.525000 -0.118703 0
12.530000 -0.155510 0
12.535000 -0.185152 0
12.540000 -0.195725 2
12.545000 -0.174090 0
12.550000 -0.108032 0
12.555000 0.011550 0
12.560000 0.187597 0
12.565000 0.412255 0
12.570000 0.662101 0
12.575000 0.897426 0
12.580000 1.069720 0
12.585000 1.137006 3
12.590000 1.080852 0
12.595000 0.913087 0
12.600000 0.670479 0
12.605000 0.400597 0
12.610000 0.146440 0
12.615000 -0.062583 0
12.620000 -0.211927 0
12.625000 -0.298879 0
12.630000 -0.329193 4
12.635000 -0.314749 0
12.640000 -0.271290 0
12.645000 -0.215271 0
12.650000 -0.160336 0
12.655000 -0.114918 0
12.660000 -0.081913 0
12.665000 -0.060154 0
12.670000 -0.046560 0
12.675000 -0.037886 0
12.680000 -0.031626 0
12.685000 -0.026180 0
12.690000 -0.020662 0
12.695000 -0.014621 0
12.700000 -0.007824 0
12.705000 -0.000137 0
12.710000 0.008534 0
12.715000 0.018266 0
12.720000 0.029123 0
12.725000 0.041155 0
12.730000 0.054398 0
12.735000 0.068871 0
12.740000 0.084567 0
12.745000 0.101458 0
12.750000 0.119485 0
12.755000 0.138562 0
12.760000 0.158571 0
12.765000 0.179360 0
12.770000 0.200748 0
12.775000 0.222521 0
12.780000 0.244440 0
12.785000 0.266238 0
12.790000 0.287631 0
12.795000 0.308320 0
12.800000 0.327998 0
12.805000 0.346358 0
12.810000 0.363099 0
12.815000 0.377937 0
12.820000 0.390609 0
12.825000 0.400883 0
12.830000 0.408565 0
12.835000 0.413501 0
12.840000 0.415588 5
12.845000 0.414772 0
12.850000 0.411052 0
12.855000 0.404479 0
12.860000 0.395156 0
12.865000 0.383235 0
12.870000 0.368912 0
12.875000 0.352421 0
12.880000 0.334029 0
12.885000 0.314026 0
12.890000 0.292721 0
12.895000 0.270428 0
12.900000 0.247467 0
12.905000 0.224147 0
12.910000 0.200767 0
12.915000 0.177603 0
12.920000 0.154909 0
12.925000 0.132910 0
12.930000 0.111800 0
12.935000 0.091739 0
12.940000 0.072855 0
12.945000 0.055241 0
12.950000 0.038962 0
12.955000 0.024049 0
12.960000 0.010508 0
12.965000 -0.001677 0
12.970000 -0.012544 0
12.975000 -0.022149 0
12.980000 -0.030560 0
12.985000 -0.037853 0
12.990000 -0.044114 0
12.995000 -0.049430 0
13.000000 -0.053892 0
13.005000 -0.057588 0
13.010000 -0.060604 0
13.015000 -0.063022 0
13.020000 -0.064918 0
13.025000 -0.066364 0
13.030000 -0.067423 0
13.035000 -0.068155 0
13.040000 -0.068610 0
13.045000 -0.068835 0
13.050000 -0.068870 0
13.055000 -0.068747 0
13.060000 -0.068497 0
13.065000 -0.068144 0
13.070000 -0.067709 0
13.075000 -0.067209 0
13.080000 -0.066659 0
13.085000 -0.066068 0
13.090000 -0.065448 0
13.095000 -0.064805 0
13.100000 -0.064146 0
13.105000 -0.063438 0
13.110000 -0.062726 0
13.115000 -0.062016 0
13.120000 -0.061311 0
13.125000 -0.060609 0
13.130000 -0.059910 0
13.135000 -0.059215 0
13.140000 -0.058524 0
13.145000 -0.057836 0
13.150000 -0.057151 0
13.155000 -0.056470 0
13.160000 -0.055792 0
13.165000 -0.055117 0
13.170000 -0.054446 0
13.175000 -0.053778 0
13.180000 -0.053114 0
13.185000 -0.052453 0
13.190000 -0.051795 0
13.195000 -0.051140 0
13.200000 -0.050489 0
13.205000 -0.049841 0
13.210000 -0.049196 0
13.215000 -0.048554 0
13.220000 -0.047916 0
13.225000 -0.047281 0
13.230000 -0.046648 0
13.235000 -0.046019 0
13.240000 -0.045393 0
13.245000 -0.044770 0
13.250000 -0.044150 0
13.255000 -0.043533 0
13.260000 -0.042917 0
13.265000 -0.042304 0
13.270000 -0.041690 0
13.275000 -0.041076 0
13.280000 -0.040458 0
13.285000 -0.039833 0
13.290000 -0.039193 0
13.295000 -0.038530 0
13.300000 -0.037831 0
13.305000 -0.037075 0
13.310000 -0.036236 0
13.315000 -0.035275 0
13.320000 -0.034142 0
13.325000 -0.032769 0
13.330000 -0.031071 0
13.335000 -0.028938 0
13.340000 -0.026239 0
13.345000 -0.022818 0
13.350000 -0.018496 0
13.355000 -0.013074 0
13.360000 -0.006345 0
13.365000 0.001901 0
13.370000 0.011857 0
13.375000 0.023682 0
13.380000 0.037482 0
13.385000 0.053286 0
13.390000 0.071024 0
13.395000 0.090511 0
13.400000 0.111434 0
13.405000 0.133351 0
13.410000 0.155692 0
13.415000 0.177783 0
13.420000 0.198873 0
13.425000 0.218174 0
13.430000 0.234909 0
13.435000 0.248360 0
13.440000 0.257924 0
13.445000 0.263152 0
13.450000 0.263783 1
13.455000 0.259770 0
13.460000 0.251279 0
13.465000 0.238679 0
13.470000 0.222513 0
13.475000 0.203463 0
13.480000 0.182296 0
13.485000 0.159817 0
13.490000 0.136818 0
13.495000 0.114030 0
13.500000 0.092090 0
13.505000 0.071513 0
13.510000 0.052672 0
13.515000 0.035781 0
13.520000 0.020863 0
13.525000 0.007676 0
13.530000 -0.004403 0
13.535000 -0.016543 0
13.540000 -0.030557 0
13.545000 -0.048742 0
13.550000 -0.073232 0
13.555000 -0.104780 0
13.560000 -0.141285 0
13.565000 -0.176736 0
13.570000 -0.201276 0
13.575000 -0.202536 2
13.580000 -0.167656 0
13.585000 -0.085356 0
13.590000 0.051797 0
13.595000 0.243974 0
13.600000 0.479251 0
13.605000 0.729655 0
13.610000 0.952477 0
13.615000 1.100013 0
13.620000 1.135584 3
13.625000 1.049650 0
13.630000 0.861010 0
13.635000 0.608789 0
13.640000 0.338902 0
13.645000 0.090655 0
13.650000 -0.110172 0
13.655000 -0.251516 0
13.660000 -0.331970 0
13.665000 -0.357784 4
13.670000 -0.340789 0
13.675000 -0.296265 0
13.680000 -0.239973 0
13.685000 -0.184926 0
13.690000 -0.139197 0
13.695000 -0.105632 0
13.700000 -0.083207 0
13.705000 -0.069005 0
13.710000 -0.059877 0
13.715000 -0.053331 0
13.720000 -0.047735 0
13.725000 -0.042165 0
13.730000 -0.036136 0
13.735000 -0.029400 0
13.740000 -0.021816 0
13.745000 -0.013289 0
13.750000 -0.003740 0
13.755000 0.006893 0
13.760000 0.018663 0
13.765000 0.031610 0
13.770000 0.045755 0
13.775000 0.061102 0
13.780000 0.077632 0
13.785000 0.095298 0
13.790000 0.114029 0
13.795000 0.133725 0
13.800000 0.154253 0
13.805000 0.175453 0
13.810000 0.197135 0
13.815000 0.219079 0
13.820000 0.241045 0
13.825000 0.262767 0
13.830000 0.283965 0
13.835000 0.304349 0
13.840000 0.323622 0
13.845000 0.341493 0
13.850000 0.357676 0
13.855000 0.371905 0
13.860000 0.383938 0
13.865000 0.393560 0
13.870000 0.400597 0
13.875000 0.404914 0
13.880000 0.406422 5
13.885000 0.405080 0
13.890000 0.400898 0
13.895000 0.393935 0
13.900000 0.384296 0
13.905000 0.372135 0
13.910000 0.357644 0
13.915000 0.341051 0
13.920000 0.322614 0
13.925000 0.302613 0
13.930000 0.281346 0
13.935000 0.259115 0
13.940000 0.236226 0
13.945000 0.212977 0
13.950000 0.189655 0
13.955000 0.166527 0
13.960000 0.143839 0
13.965000 0.121809 0
13.970000 0.100628 0
13.975000 0.080455 0
13.980000 0.061416 0
13.985000 0.043609 0
13.990000 0.027099 0
13.995000 0.011924 0
14.000000 -0.001904 0
14.005000 -0.014396 0
14.010000 -0.025584 0
14.015000 -0.035515 0
14.020000 -0.044251 0
14.025000 -0.051864 0
14.030000 -0.058433 0
14.035000 -0.064042 0
14.040000 -0.068777 0
14.045000 -0.072723 0
14.050000 -0.075964 0
14.055000 -0.078581 0
14.060000 -0.080651 0
14.065000 -0.082244 0
14.070000 -0.083426 0
14.075000 -0.084255 0
14.080000 -0.084786 0
14.085000 -0.085065 0
14.090000 -0.085134 0
14.095000 -0.085029 0
14.100000 -0.084781 0
14.105000 -0.084416 0
14.110000 -0.083958 0
14.115000 -0.083425 0
14.120000 -0.082832 0
14.125000 -0.082193 0
14.130000 -0.081518 0
14.135000 -0.080815 0
14.140000 -0.080092 0
14.145000 -0.079354 0
14.150000 -0.078570 0
14.155000 -0.077782 0
14.160000 -0.076998 0
14.165000 -0.076217 0
14.170000 -0.075441 0
14.175000 -0.074668 0
14.180000 -0.073900 0
14.185000 -0.073135 0
14.190000 -0.072374 0
14.195000 -0.071617 0
14.200000 -0.070863 0
14.205000 -0.070113 0
14.210000 -0.069368 0
14.215000 -0.068625 0
14.220000 -0.067887 0
14.225000 -0.067152 0
14.230000 -0.066421 0
14.235000 -0.065693 0
14.240000 -0.064969 0
14.245000 -0.064249 0
14.250000 -0.063532 0
14.255000 -0.062819 0
14.260000 -0.062110 0
14.265000 -0.061404 0
14.270000 -0.060701 0
14.275000 -0.060002 0
14.280000 -0.059306 0
14.285000 -0.058614 0
14.290000 -0.057925 0
14.295000 -0.057240 0
14.300000 -0.056557 0
14.305000 -0.055877 0
14.310000 -0.055200 0
14.315000 -0.054524 0
14.320000 -0.053848 0
14.325000 -0.053171 0
14.330000 -0.052489 0
14.335000 -0.051798 0
14.340000 -0.051090 0
14.345000 -0.050356 0
14.350000 -0.049581 0
14.355000 -0.048744 0
14.360000 -0.047816 0
14.365000 -0.046758 0
14.370000 -0.045516 0
14.375000 -0.044023 0
14.380000 -0.042191 0
14.385000 -0.039912 0
14.390000 -0.037055 0
14.395000 -0.033466 0
14.400000 -0.028972 0
14.405000 -0.023380 0
14.410000 -0.016490 0
14.415000 -0.008102 0
14.420000 0.001968 0
14.425000 0.013872 0
14.430000 0.027710 0
14.435000 0.043510 0
14.440000 0.061208 0
14.445000 0.080631 0
14.450000 0.101488 0
14.455000 0.123363 0
14.460000 0.145723 0
14.465000 0.167931 0
14.470000 0.189275 0
14.475000 0.209001 0
14.480000 0.226356 0
14.485000 0.240639 0
14.490000 0.251238 0
14.495000 0.257684 0
14.500000 0.259676 1
14.505000 0.257109 0
14.510000 0.250080 0
14.515000 0.238881 0
14.520000 0.223981 0
14.525000 0.205990 0
14.530000 0.185619 0
14.535000 0.163634 0
14.540000 0.140805 0
14.545000 0.117864 0
14.550000 0.095472 0
14.555000 0.074181 0
14.560000 0.054421 0
14.565000 0.036482 0
14.570000 0.020492 0
14.575000 0.006374 0
14.580000 -0.006234 0
14.585000 -0.018117 0
14.590000 -0.030621 0
14.595000 -0.045687 0
14.600000 -0.065569 0
14.605000 -0.092058 0
14.610000 -0.125238 0
14.615000 -0.162155 0
14.620000 -0.196068 0
14.625000 -0.216809 2
14.630000 -0.212231 0
14.635000 -0.170118 0
14.640000 -0.080080 0
14.645000 0.064253 0
14.650000 0.261869 0
14.655000 0.499835 0
14.660000 0.749916 0
14.665000 0.970370 0
14.670000 1.115450 0
14.675000 1.150352 3
14.680000 1.066076 0
14.685000 0.880351 0
14.690000 0.630327 0
14.695000 0.360184 0
14.700000 0.108504 0
14.705000 -0.098629 0
14.710000 -0.248259 0
14.715000 -0.337859 0
14.720000 -0.372450 4
14.725000 -0.362598 0
14.730000 -0.322542 0
14.735000 -0.267609 0
14.740000 -0.211177 0
14.745000 -0.162319 0
14.750000 -0.125069 0
14.755000 -0.099342 0
14.760000 -0.082699 0
14.765000 -0.072052 0
14.770000 -0.064728 0
14.775000 -0.058857 0
14.780000 -0.053312 0
14.785000 -0.047481 0
14.790000 -0.041048 0
14.795000 -0.033840 0
14.800000 -0.025751 0
14.805000 -0.016700 0
14.810000 -0.006618 0
14.815000 0.004551 0
14.820000 0.016851 0
14.825000 0.030313 0
14.830000 0.044953 0
14.835000 0.060764 0
14.840000 0.077718 0
14.845000 0.095765 0
14.850000 0.114826 0
14.855000 0.134795 0
14.860000 0.155538 0
14.865000 0.176893 0
14.870000 0.198670 0
14.875000 0.220654 0
14.880000 0.242608 0
14.885000 0.264275 0
14.890000 0.285383 0
14.895000 0.305653 0
14.900000 0.324801 0
14.905000 0.342546 0
14.910000 0.358616 0
14.915000 0.372756 0
14.920000 0.384736 0
14.925000 0.394350 0
14.930000 0.401431 0
14.935000 0.405849 0
14.940000 0.407516 5
14.945000 0.406393 0
14.950000 0.402484 0
14.955000 0.395840 0
14.960000 0.386560 0
14.965000 0.374784 0
14.970000 0.360692 0
14.975000 0.344496 0
14.980000 0.326441 0
14.985000 0.306791 0
14.990000 0.285828 0
14.995000 0.263842 0
15.000000 0.241128 0
15.005000 0.217974 0
15.010000 0.194659 0
15.015000 0.171448 0
15.020000 0.148584 0
15.025000 0.126288 0
15.030000 0.104753 0
15.035000 0.084145 0
15.040000 0.064598 0
15.045000 0.046219 0
15.050000 0.029084 0
15.055000 0.013244 0
15.060000 -0.001277 0
15.065000 -0.014480 0
15.070000 -0.026384 0
15.075000 -0.037025 0
15.080000 -0.046457 0
15.085000 -0.054742 0
15.090000 -0.061952 0
15.095000 -0.068165 0
15.100000 -0.073463 0
15.105000 -0.077929 0
15.110000 -0.081643 0
15.115000 -0.084688 0
15.120000 -0.087138 0
15.125000 -0.089067 0
15.130000 -0.090541 0
15.135000 -0.091622 0
15.140000 -0.092367 0
15.145000 -0.092825 0
15.150000 -0.093041 0
15.155000 -0.093055 0
15.160000 -0.092902 0
15.165000 -0.092609 0
15.170000 -0.092204 0
15.175000 -0.091707 0
15.180000 -0.091136 0
15.185000 -0.090507 0
15.190000 -0.089832 0
15.195000 -0.089122 0
15.200000 -0.088384 0
15.205000 -0.087626 0
15.210000 -0.086852 0
15.215000 -0.086062 0
15.220000 -0.085236 0
15.225000 -0.084415 0
15.230000 -0.083598 0
15.235000 -0.082784 0
15.240000 -0.081975 0
15.245000 -0.081170 0
15.250000 -0.080369 0
15.255000 -0.079572 0
15.260000 -0.078779 0
15.265000 -0.077990 0
15.270000 -0.077204 0
15.275000 -0.076423 0
15.280000 -0.075646 0
15.285000 -0.074872 0
15.290000 -0.074103 0
15.295000 -0.073337 0
15.300000 -0.072575 0
15.305000 -0.071816 0
15.310000 -0.071062 0
15.315000 -0.070311 0
15.320000 -0.069564 0
15.325000 -0.068821 0
15.330000 -0.068082 0
15.335000 -0.067346 0
15.340000 -0.066614 0
15.345000 -0.065885 0
15.350000 -0.065160 0
15.355000 -0.064439 0
15.360000 -0.063721 0
15.365000 -0.063006 0
15.370000 -0.062295 0
15.375000 -0.061586 0
15.380000 -0.060880 0
15.385000 -0.060175 0
15.390000 -0.059471 0
15.395000 -0.058765 0
15.400000 -0.058054 0
15.405000 -0.057334 0
15.410000 -0.056597 0
15.415000 -0.055835 0
15.420000 -0.055031 0
15.425000 -0.054168 0
15.430000 -0.053216 0
15.435000 -0.052137 0
15.440000 -0.050883 0
15.445000 -0.049388 0
15.450000 -0.047570 0
15.455000 -0.045328 0
15.460000 -0.042539 0
15.465000 -0.039058 0
15.470000 -0.034721 0
15.475000 -0.029347 0
15.480000 -0.022744 0
15.485000 -0.014719 0
15.490000 -0.005091 0
15.495000 0.006297 0
15.500000 0.019557 0
15.505000 0.034738 0
15.510000 0.051809 0
15.515000 0.070644 0
15.520000 0.091003 0
15.525000 0.112533 0
15.530000 0.134767 0
15.535000 0.157133 0
15.540000 0.178975 0
15.545000 0.199584 0
15.550000 0.218230 0
15.555000 0.234210 0
15.560000 0.246884 0
15.565000 0.255725 0
15.570000 0.260347 0
15.575000 0.260538 1
15.580000 0.256274 0
15.585000 0.247720 0
15.590000 0.235221 0
15.595000 0.219276 0
15.600000 0.200507 0
15.605000 0.179617 0
15.610000 0.157347 0
15.615000 0.134432 0
15.620000 0.111563 0
15.625000 0.089352 0
15.630000 0.068310 0
15.635000 0.048828 0
15.640000 0.031160 0
15.645000 0.015406 0
15.650000 0.001469 0
15.655000 -0.011033 0
15.660000 -0.022887 0
15.665000 -0.035416 0
15.670000 -0.050502 0
15.675000 -0.070312 0
15.680000 -0.096580 0
15.685000 -0.129456 0
15.690000 -0.166268 0
15.695000 -0.200788 0
15.700000 -0.223493 2
15.705000 -0.222827 0
15.710000 -0.186960 0
15.715000 -0.105535 0
15.720000 0.028410 0
15.725000 0.215567 0
15.730000 0.446268 0
15.735000 0.696839 0
15.740000 0.929819 0
15.745000 1.100958 0
15.750000 1.172204 3
15.755000 1.125778 0
15.760000 0.970253 0
15.765000 0.736973 0
15.770000 0.468806 0
15.775000 0.206884 0
15.780000 -0.018356 0
15.785000 -0.189711 0
15.790000 -0.301317 0
15.795000 -0.355656 0
15.800000 -0.361304 4
15.805000 -0.331196 0
15.810000 -0.280405 0
15.815000 -0.223251 0
15.820000 -0.170589 0
15.825000 -0.128400 0
15.830000 -0.098093 0
15.835000 -0.078006 0
15.840000 -0.065189 0
15.845000 -0.056743 0
15.850000 -0.050460 0
15.855000 -0.044923 0
15.860000 -0.039331 0
15.865000 -0.033259 0
15.870000 -0.026486 0
15.875000 -0.018883 0
15.880000 -0.010360 0
15.885000 -0.000844 0
15.890000 0.009725 0
15.895000 0.021398 0
15.900000 0.034213 0
15.905000 0.048191 0
15.910000 0.063339 0
15.915000 0.079641 0
15.920000 0.097058 0
15.925000 0.115528 0
15.930000 0.134960 0
15.935000 0.155238 0
15.940000 0.176216 0
15.945000 0.197722 0
15.950000 0.219558 0
15.955000 0.241502 0
15.960000 0.263310 0
15.965000 0.284723 0
15.970000 0.305468 0
15.975000 0.325267 0
15.980000 0.343839 0
15.985000 0.360911 0
15.990000 0.376219 0
15.995000 0.389521 0
16.000000 0.400596 0
16.005000 0.409256 0
16.010000 0.415348 0
16.015000 0.418758 0
16.020000 0.419417 5
16.025000 0.417299 0
16.030000 0.412424 0
16.035000 0.404860 0
16.040000 0.394717 0
16.045000 0.382146 0
16.050000 0.367334 0
16.055000 0.350504 0
16.060000 0.331902 0
16.065000 0.311795 0
16.070000 0.290465 0
16.075000 0.268200 0
16.080000 0.245289 0
16.085000 0.222016 0
16.090000 0.198654 0
16.095000 0.175458 0
16.100000 0.152664 0
16.105000 0.130483 0
16.110000 0.109100 0
16.115000 0.088670 0
16.120000 0.069323 0
16.125000 0.051155 0
16.130000 0.034237 0
16.135000 0.018613 0
16.140000 0.004301 0
16.145000 -0.008702 0
16.150000 -0.020418 0
16.155000 -0.030888 0
16.160000 -0.040165 0
16.165000 -0.048313 0
16.170000 -0.055404 0
16.175000 -0.061516 0
16.180000 -0.066730 0
16.185000 -0.071127 0
16.190000 -0.074789 0
16.195000 -0.077794 0
16.200000 -0.080217 0
16.205000 -0.082129 0
16.210000 -0.083596 0
16.215000 -0.084678 0
16.220000 -0.085430 0
16.225000 -0.085901 0
16.230000 -0.086136 0
16.235000 -0.086171 0
16.240000 -0.086042 0
16.245000 -0.085777 0
16.250000 -0.085400 0
16.255000 -0.084933 0
16.260000 -0.084394 0
16.265000 -0.083797 0
16.270000 -0.083154 0
16.275000 -0.082476 0
16.280000 -0.081771 0
16.285000 -0.081046 0
16.290000 -0.080305 0
16.295000 -0.079547 0
16.300000 -0.078754 0
16.305000 -0.077965 0
16.310000 -0.077180 0
16.315000 -0.076399 0
16.320000 -0.075621 0
16.325000 -0.074848 0
16.330000 -0.074079 0
16.335000 -0.073313 0
16.340000 -0.072551 0
16.345000 -0.071793 0
16.350000 -0.071038 0
16.355000 -0.070288 0
16.360000 -0.069541 0
16.365000 -0.068798 0
16.370000 -0.068059 0
16.375000 -0.067323 0
16.380000 -0.066591 0
16.385000 -0.065863 0
16.390000 -0.065138 0
16.395000 -0.064417 0
16.400000 -0.063699 0
16.405000 -0.062985 0
16.410000 -0.062275 0
16.415000 -0.061568 0
16.420000 -0.060865 0
16.425000 -0.060165 0
16.430000 -0.059468 0
16.435000 -0.058775 0
16.440000 -0.058086 0
16.445000 -0.057399 0
16.450000 -0.056716 0
16.455000 -0.056035 0
16.460000 -0.055357 0
16.465000 -0.054680 0
16.470000 -0.054004 0
16.475000 -0.053327 0
16.480000 -0.052645 0
16.485000 -0.051956 0
16.490000 -0.051252 0
16.495000 -0.050525 0
16.500000 -0.049761 0
16.505000 -0.048944 0
16.510000 -0.048047 0
16.515000 -0.047036 0
16.520000 -0.045865 0
16.525000 -0.044476 0
16.530000 -0.042792 0
16.535000 -0.040719 0
16.540000 -0.038143 0
16.545000 -0.034927 0
16.550000 -0.030915 0
16.555000 -0.025933 0
16.560000 -0.019795 0
16.565000 -0.012309 0
16.570000 -0.003291 0
16.575000 0.007425 0
16.580000 0.019967 0
16.585000 0.034408 0
16.590000 0.050750 0
16.595000 0.068903 0
16.600000 0.088676 0
16.605000 0.109764 0
16.610000 0.131748 0
16.615000 0.154105 0
16.620000 0.176218 0
16.625000 0.197402 0
16.630000 0.216943 0
16.635000 0.234129 0
16.640000 0.248296 0
16.645000 0.258869 0
16.650000 0.265402 0
16.655000 0.267605 1
16.660000 0.265368 0
16.665000 0.258769 0
16.670000 0.248067 0
16.675000 0.233684 0
16.680000 0.216183 0
16.685000 0.196223 0
16.690000 0.174523 0
16.695000 0.151818 0
16.700000 0.128815 0
16.705000 0.106163 0
16.710000 0.084422 0
16.715000 0.064041 0
16.720000 0.045345 0
16.725000 0.028520 0
16.730000 0.013583 0
16.735000 0.000324 0
16.740000 -0.011792 0
16.745000 -0.023759 0
16.750000 -0.037132 0
16.755000 -0.053942 0
16.760000 -0.076267 0
16.765000 -0.105335 0
16.770000 -0.140305 0
16.775000 -0.177182 0
16.780000 -0.208455 0
16.785000 -0.223756 2
16.790000 -0.211360 0
16.795000 -0.159928 0
16.800000 -0.060203 0
16.805000 0.092866 0
16.810000 0.296851 0
16.815000 0.537710 0
16.820000 0.787102 0
16.825000 1.004658 0
16.830000 1.147081 0
16.835000 1.181776 3
16.840000 1.097775 0
16.845000 0.911637 0
16.850000 0.661047 0
16.855000 0.390772 0
16.860000 0.139739 0
16.865000 -0.065939 0
16.870000 -0.213491 0
16.875000 -0.300686 0
16.880000 -0.332896 4
16.885000 -0.321072 0
16.890000 -0.279789 0
16.895000 -0.224543 0
16.900000 -0.168643 0
16.905000 -0.120885 0
16.910000 -0.084946 0
16.915000 -0.060440 0
16.920000 -0.044765 0
16.925000 -0.034797 0
16.930000 -0.027910 0
16.935000 -0.022310 0
16.940000 -0.016931 0
16.945000 -0.011207 0
16.950000 -0.004844 0
16.955000 0.002319 0
16.960000 0.010384 0
16.965000 0.019433 0
16.970000 0.029530 0
16.975000 0.040731 0
16.980000 0.053080 0
16.985000 0.066606 0
16.990000 0.081318 0
16.995000 0.097207 0
17.000000 0.114240 0
17.005000 0.132359 0
17.010000 0.151479 0
17.015000 0.171486 0
17.020000 0.192237 0
17.025000 0.213560 0
17.030000 0.235257 0
17.035000 0.257103 0
17.040000 0.278853 0
17.045000 0.300241 0
17.050000 0.320990 0
17.055000 0.340813 0
17.060000 0.359423 0
17.065000 0.376537 0
17.070000 0.391885 0
17.075000 0.405214 0
17.080000 0.416299 0
17.085000 0.424943 0
17.090000 0.430988 0
17.095000 0.434318 0
17.100000 0.434860 5
17.105000 0.432588 0
17.110000 0.427526 0
17.115000 0.419742 0
17.120000 0.409353 0
17.125000 0.396516 0
17.130000 0.381428 0
17.135000 0.364317 0
17.140000 0.345439 0
17.145000 0.325072 0
17.150000 0.303505 0
17.155000 0.281035 0
17.160000 0.257958 0
17.165000 0.234564 0
17.170000 0.211130 0
17.175000 0.187914 0
17.180000 0.165153 0
17.185000 0.143059 0
17.190000 0.121813 0
17.195000 0.101570 0
17.200000 0.082452 0
17.205000 0.064551 0
17.210000 0.047933 0
17.215000 0.032633 0
17.220000 0.018664 0
17.225000 0.006015 0
17.230000 -0.005343 0
17.235000 -0.015457 0
17.240000 -0.024385 0
17.245000 -0.032198 0
17.250000 -0.038971 0
17.255000 -0.044787 0
17.260000 -0.049728 0
17.265000 -0.053878 0
17.270000 -0.057319 0
17.275000 -0.060131 0
17.280000 -0.062388 0
17.285000 -0.064162 0
17.290000 -0.065515 0
17.295000 -0.066509 0
17.300000 -0.067195 0
17.305000 -0.067621 0
17.310000 -0.067830 0
17.315000 -0.067857 0
17.320000 -0.067734 0
17.325000 -0.067488 0
17.330000 -0.067143 0
17.335000 -0.066718 0
17.340000 -0.066228 0
17.345000 -0.065689 0
17.350000 -0.065109 0
17.355000 -0.064499 0
17.360000 -0.063867 0
17.365000 -0.063217 0
17.370000 -0.062547 0
17.375000 -0.061839 0
17.380000 -0.061134 0
17.385000 -0.060433 0
17.390000 -0.059735 0
17.395000 -0.059041 0
17.400000 -0.058350 0
17.405000 -0.057663 0
17.410000 -0.056979 0
17.415000 -0.056299 0
17.420000 -0.055622 0
17.425000 -0.054948 0
17.430000 -0.054278 0
17.435000 -0.053611 0
17.440000 -0.052947 0
17.445000 -0.052287 0
17.450000 -0.051630 0
17.455000 -0.050976 0
17.460000 -0.050325 0
17.465000 -0.049678 0
17.470000 -0.049034 0
17.475000 -0.048393 0
17.480000 -0.047756 0
17.485000 -0.047121 0
17.490000 -0.046490 0
17.495000 -0.045862 0
17.500000 -0.045237 0
17.505000 -0.044615 0
17.510000 -0.043996 0
17.515000 -0.043380 0
17.520000 -0.042767 0
17.525000 -0.042156 0
17.530000 -0.041548 0
17.535000 -0.040942 0
17.540000 -0.040337 0
17.545000 -0.039731 0
17.550000 -0.039124 0
17.555000 -0.038511 0
17.560000 -0.037889 0
17.565000 -0.037249 0
17.570000 -0.036583 0
17.575000 -0.035875 0
17.580000 -0.035106 0
17.585000 -0.034246 0
17.590000 -0.033257 0
17.595000 -0.032089 0
17.600000 -0.030675 0
17.605000 -0.028931 0
17.610000 -0.026753 0
17.615000 -0.024014 0
17.620000 -0.020568 0
17.625000 -0.016246 0
17.630000 -0.010864 0
17.635000 -0.004226 0
17.640000 0.003863 0
17.645000 0.013585 0
17.650000 0.025094 0
17.655000 0.038498 0
17.660000 0.053839 0
17.665000 0.071073 0
17.670000 0.090057 0
17.675000 0.110532 0
17.680000 0.132124 0
17.685000 0.154340 0
17.690000 0.176586 0
17.695000 0.198186 0
17.700000 0.218413 0
17.705000 0.236531 0
17.710000 0.251833 0
17.715000 0.263692 0
17.720000 0.271598 0
17.725000 0.275197 1
17.730000 0.274312 0
17.735000 0.268964 0
17.740000 0.259362 0
17.745000 0.245896 0
17.750000 0.229106 0
17.755000 0.209647 0
17.760000 0.188246 0
17.765000 0.165656 0
17.770000 0.142614 0
17.775000 0.119802 0
17.780000 0.097812 0
17.785000 0.077129 0
17.790000 0.058108 0
17.795000 0.040964 0
17.800000 0.025740 0
17.805000 0.012256 0
17.810000 0.000007 0
17.815000 -0.011975 0
17.820000 -0.025234 0
17.825000 -0.041829 0
17.830000 -0.063910 0
17.835000 -0.092800 0
17.840000 -0.127728 0
17.845000 -0.164669 0
17.850000 -0.195937 0
17.855000 -0.210882 2
17.860000 -0.197461 0
17.865000 -0.144075 0
17.870000 -0.041367 0
17.875000 0.115497 0
17.880000 0.323303 0
17.885000 0.566437 0
17.890000 0.814385 0
17.895000 1.024810 0
17.900000 1.153875 0
17.905000 1.170755 3
17.910000 1.067553 0
17.915000 0.865608 0
17.920000 0.606996 0
17.925000 0.338258 0
17.930000 0.097324 0
17.935000 -0.092300 0
17.940000 -0.220765 0
17.945000 -0.288510 0
17.950000 -0.303351 4
17.955000 -0.278409 0
17.960000 -0.229713 0
17.965000 -0.172931 0
17.970000 -0.120151 0
17.975000 -0.078086 0
17.980000 -0.048321 0
17.985000 -0.029026 0
17.990000 -0.017008 0
17.995000 -0.009206 0
18.000000 -0.003365 0
18.005000 0.001905 0
18.010000 0.007365 0
18.015000 0.013400 0
18.020000 0.020213 0
18.025000 0.027926 0
18.030000 0.036627 0
18.035000 0.046389 0
18.040000 0.057272 0
18.045000 0.069326 0
18.050000 0.082583 0
18.055000 0.097057 0
18.060000 0.112742 0
18.065000 0.129604 0
18.070000 0.147587 0
18.075000 0.166600 0
18.080000 0.186527 0
18.085000 0.207218 0
18.090000 0.228491 0
18.095000 0.250138 0
18.100000 0.271922 0
18.105000 0.293581 0
18.110000 0.314838 0
18.115000 0.335397 0
18.120000 0.354958 0
18.125000 0.373221 0
18.130000 0.389890 0
18.135000 0.404685 0
18.140000 0.417348 0
18.145000 0.427650 0
18.150000 0.435397 0
18.155000 0.440436 0
18.160000 0.442662 5
18.165000 0.442016 0
18.170000 0.438492 0
18.175000 0.432136 0
18.180000 0.423042 0
18.185000 0.411353 0
18.190000 0.397254 0
18.195000 0.380971 0
18.200000 0.362761 0
18.205000 0.342904 0
18.210000 0.321701 0
18.215000 0.299460 0
18.220000 0.276493 0
18.225000 0.253107 0
18.230000 0.229597 0
18.235000 0.206241 0
18.240000 0.183293 0
18.245000 0.160980 0
18.250000 0.139501 0
18.255000 0.119022 0
18.260000 0.099677 0
18.265000 0.081568 0
18.270000 0.064766 0
18.275000 0.049311 0
18.280000 0.035217 0
18.285000 0.022474 0
18.290000 0.011053 0
18.295000 0.000903 0
18.300000 -0.008037 0
18.305000 -0.015840 0
18.310000 -0.022587 0
18.315000 -0.028364 0
18.320000 -0.033258 0
18.325000 -0.037357 0
18.330000 -0.040747 0
18.335000 -0.043508 0
18.340000 -0.045721 0
18.345000 -0.047455 0
18.350000 -0.048778 0
18.355000 -0.049749 0
18.360000 -0.050423 0
18.365000 -0.050847 0
18.370000 -0.051062 0
18.375000 -0.051105 0
18.380000 -0.051007 0
18.385000 -0.050794 0
18.390000 -0.050489 0
18.395000 -0.050110 0
18.400000 -0.049673 0
18.405000 -0.049191 0
18.410000 -0.048673 0
18.415000 -0.048128 0
18.420000 -0.047563 0
18.425000 -0.046983 0
18.430000 -0.046360 0
18.435000 -0.045733 0
18.440000 -0.045109 0
18.445000 -0.044487 0
18.450000 -0.043869 0
18.455000 -0.043254 0
18.460000 -0.042642 0
18.465000 -0.042033 0
18.470000 -0.041427 0
18.475000 -0.040824 0
18.480000 -0.040225 0
18.485000 -0.039628 0
18.490000 -0.039034 0
18.495000 -0.038443 0
18.500000 -0.037855 0
18.505000 -0.037270 0
18.510000 -0.036688 0
18.515000 -0.036108 0
18.520000 -0.035532 0
18.525000 -0.034959 0
18.530000 -0.034388 0
18.535000 -0.033820 0
18.540000 -0.033255 0
18.545000 -0.032693 0
18.550000 -0.032134 0
18.555000 -0.031577 0
18.560000 -0.031023 0
18.565000 -0.030472 0
18.570000 -0.029924 0
18.575000 -0.029377 0
18.580000 -0.028834 0
18.585000 -0.028291 0
18.590000 -0.027751 0
18.595000 -0.027210 0
18.600000 -0.026667 0
18.605000 -0.026121 0
18.610000 -0.025566 0
18.615000 -0.024998 0
18.620000 -0.024405 0
18.625000 -0.023776 0
18.630000 -0.023092 0
18.635000 -0.022324 0
18.640000 -0.021438 0
18.645000 -0.020382 0
18.650000 -0.019093 0
18.655000 -0.017486 0
18.660000 -0.015457 0
18.665000 -0.012877 0
18.670000 -0.009597 0
18.675000 -0.005441 0
18.680000 -0.000218 0
18.685000 0.006276 0
18.690000 0.014247 0
18.695000 0.023886 0
18.700000 0.035357 0
18.705000 0.048771 0
18.710000 0.064171 0
18.715000 0.081505 0
18.720000 0.100614 0
18.725000 0.121216 0
18.730000 0.142899 0
18.735000 0.165131 0
18.740000 0.187270 0
18.745000 0.208595 0
18.750000 0.228338 0
18.755000 0.245727 0
18.760000 0.260042 0
18.765000 0.270655 0
18.770000 0.277080 0
18.775000 0.279008 1
18.780000 0.276329 0
18.785000 0.269143 0
18.790000 0.257750 0
18.795000 0.242633 0
18.800000 0.224420 0
18.805000 0.203841 0
18.810000 0.181677 0
18.815000 0.158715 0
18.820000 0.135699 0
18.825000 0.113294 0
18.830000 0.092052 0
18.835000 0.072398 0
18.840000 0.054610 0
18.845000 0.038793 0
18.850000 0.024836 0
18.855000 0.012309 0
18.860000 0.000328 0
18.865000 -0.012593 0
18.870000 -0.028527 0
18.875000 -0.049763 0
18.880000 -0.077885 0
18.885000 -0.112407 0
18.890000 -0.149464 0
18.895000 -0.181258 0
18.900000 -0.196738 2
18.905000 -0.183289 0
18.910000 -0.128751 0
18.915000 -0.023407 0
18.920000 0.137472 0
18.925000 0.349670 0
18.930000 0.595295 0
18.935000 0.840497 0
18.940000 1.039846 0
18.945000 1.148684 3
18.950000 1.139084 0
18.955000 1.009807 0
18.960000 0.789209 0
18.965000 0.523539 0
18.970000 0.259623 0
18.975000 0.032686 0
18.980000 -0.137544 0
18.985000 -0.244709 0
18.990000 -0.292150 4
18.995000 -0.290181 0
19.000000 -0.253874 0
19.005000 -0.200108 0
19.010000 -0.143915 0
19.015000 -0.095507 0
19.020000 -0.059298 0
19.025000 -0.035008 0
19.030000 -0.019818 0
19.035000 -0.010353 0
19.040000 -0.003843 0
19.045000 0.001545 0
19.050000 0.006853 0
19.055000 0.012616 0
19.060000 0.019103 0
19.065000 0.026467 0
19.070000 0.034806 0
19.075000 0.044203 0
19.080000 0.054724 0
19.085000 0.066424 0
19.090000 0.079342 0
19.095000 0.093498 0
19.100000 0.108892 0
19.105000 0.125496 0
19.110000 0.143257 0
19.115000 0.162090 0
19.120000 0.181878 0
19.125000 0.202471 0
19.130000 0.223688 0
19.135000 0.245314 0
19.140000 0.267109 0
19.145000 0.288803 0
19.150000 0.310109 0
19.155000 0.330723 0
19.160000 0.350334 0
19.165000 0.368629 0
19.170000 0.385302 0
19.175000 0.400064 0
19.180000 0.412647 0
19.185000 0.422815 0
19.190000 0.430370 0
19.195000 0.435157 0
19.200000 0.437071 5
19.205000 0.436058 0
19.210000 0.432119 0
19.215000 0.425308 0
19.220000 0.415731 0
19.225000 0.403547 0
19.230000 0.388955 0
19.235000 0.372198 0
19.240000 0.353546 0
19.245000 0.333299 0
19.250000 0.311770 0
19.255000 0.289280 0
19.260000 0.266152 0
19.265000 0.242700 0
19.270000 0.219225 0
19.275000 0.196005 0
19.280000 0.173294 0
19.285000 0.151317 0
19.290000 0.130263 0
19.295000 0.110292 0
19.300000 0.091526 0
19.305000 0.074055 0
19.310000 0.057938 0
19.315000 0.043201 0
19.320000 0.029847 0
19.325000 0.017852 0
19.330000 0.007174 0
19.335000 -0.002247 0
19.340000 -0.010481 0
19.345000 -0.017610 0
19.350000 -0.023721 0
19.355000 -0.028904 0
19.360000 -0.033250 0
19.365000 -0.036849 0
19.370000 -0.039787 0
19.375000 -0.042145 0
19.380000 -0.043999 0
19.385000 -0.045420 0
19.390000 -0.046472 0
19.395000 -0.047211 0
19.400000 -0.047687 0
19.405000 -0.047945 0
19.410000 -0.048023 0
19.415000 -0.047954 0
19.420000 -0.047765 0
19.425000 -0.047481 0
19.430000 -0.047121 0
19.435000 -0.046701 0
19.440000 -0.046233 0
19.445000 -0.045730 0
19.450000 -0.045200 0
19.455000 -0.044649 0
19.460000 -0.044082 0
19.465000 -0.043474 0
19.470000 -0.042861 0
19.475000 -0.042251 0
19.480000 -0.041644 0
19.485000 -0.041040 0
19.490000 -0.040439 0
19.495000 -0.039841 0
19.500000 -0.039246 0
19.505000 -0.038654 0
19.510000 -0.038065 0
19.515000 -0.037479 0
19.520000 -0.036896 0
19.525000 -0.036315 0
19.530000 -0.035738 0
19.535000 -0.035163 0
19.540000 -0.034592 0
19.545000 -0.034023 0
19.550000 -0.033457 0
19.555000 -0.032894 0
19.560000 -0.032334 0
19.565000 -0.031776 0
19.570000 -0.031221 0
19.575000 -0.030669 0
19.580000 -0.030120 0
19.585000 -0.029574 0
19.590000 -0.029030 0
19.595000 -0.028489 0
19.600000 -0.027950 0
19.605000 -0.027414 0
19.610000 -0.026880 0
19.615000 -0.026348 0
19.620000 -0.025817 0
19.625000 -0.025287 0
19.630000 -0.024756 0
19.635000 -0.024222 0
19.640000 -0.023680 0
19.645000 -0.023126 0
19.650000 -0.022551 0
19.655000 -0.021943 0
19.660000 -0.021282 0
19.665000 -0.020544 0
19.670000 -0.019693 0
19.675000 -0.018679 0
19.680000 -0.017439 0
19.685000 -0.015888 0
19.690000 -0.013921 0
19.695000 -0.011409 0
19.700000 -0.008197 0
19.705000 -0.004106 0
19.710000 0.001061 0
19.715000 0.007517 0
19.720000 0.015473 0
19.725000 0.025129 0
19.730000 0.036654 0
19.735000 0.050161 0
19.740000 0.065691 0
19.745000 0.083183 0
19.750000 0.102461 0
19.755000 0.123220 0
19.760000 0.145017 0
19.765000 0.167286 0
19.770000 0.189344 0
19.775000 0.210434 0
19.780000 0.229754 0
19.785000 0.246513 0
19.790000 0.259981 0
19.795000 0.269540 0
19.800000 0.274731 0
19.805000 0.275290 1
19.810000 0.271168 0
19.815000 0.262536 0
19.820000 0.249772 0
19.825000 0.233434 0
19.830000 0.214217 0
19.835000 0.192904 0
19.840000 0.170313 0
19.845000 0.147247 0
19.850000 0.124442 0
19.855000 0.102538 0
19.860000 0.082046 0
19.865000 0.063331 0
19.870000 0.046595 0
19.875000 0.031834 0
19.880000 0.018765 0
19.885000 0.006694 0
19.890000 -0.005651 0
19.895000 -0.020200 0
19.900000 -0.039319 0
19.905000 -0.065046 0
19.910000 -0.097768 0
19.915000 -0.134712 0
19.920000 -0.169014 0
19.925000 -0.190041 2
19.930000 -0.184953 0
19.935000 -0.140849 0
19.940000 -0.046886 0
19.945000 0.103206 0
19.950000 0.307225 0
19.955000 0.549409 0
19.960000 0.797218 0
19.965000 1.004700 0
19.970000 1.124663 0
19.975000 1.125720 3
19.980000 1.005270 0
19.985000 0.790422 0
19.990000 0.526627 0
19.995000 0.261162 0
20.000000 0.030393 0
20.005000 -0.144750 0
20.010000 -0.256972 0
20.015000 -0.308936 0
20.020000 -0.310451 4
20.025000 -0.276276 0
20.030000 -0.223258 0
20.035000 -0.166702 0
20.040000 -0.117288 0
20.045000 -0.079899 0
20.050000 -0.054580 0
20.055000 -0.038646 0
20.060000 -0.028716 0
20.065000 -0.021944 0
20.070000 -0.016420 0
20.075000 -0.011045 0
20.080000 -0.005250 0
20.085000 0.001251 0
20.090000 0.008616 0
20.095000 0.016948 0
20.100000 0.026330 0
20.105000 0.036829 0
20.110000 0.048501 0
20.115000 0.061387 0
20.120000 0.075510 0
20.125000 0.090869 0
20.130000 0.107443 0
20.135000 0.125178 0
20.140000 0.143993 0
20.145000 0.163775 0
20.150000 0.184377 0
20.155000 0.205622 0
20.160000 0.227298 0
20.165000 0.249166 0
20.170000 0.270962 0
20.175000 0.292399 0
20.180000 0.313175 0
20.185000 0.332979 0
20.190000 0.351499 0
20.195000 0.368429 0
20.200000 0.383477 0
20.205000 0.396373 0
20.210000 0.406879 0
20.215000 0.414791 0
20.220000 0.419950 0
20.225000 0.422246 5
20.230000 0.421620 0
20.235000 0.418066 0
20.240000 0.411633 0
20.245000 0.402422 0
20.250000 0.390584 0
20.255000 0.376317 0
20.260000 0.359856 0
20.265000 0.341472 0
20.270000 0.321457 0
20.275000 0.300126 0
20.280000 0.277798 0
20.285000 0.254796 0
20.290000 0.231436 0
20.295000 0.208018 0
20.300000 0.184825 0
20.305000 0.162113 0
20.310000 0.140108 0
20.315000 0.119007 0
20.320000 0.098971 0
20.325000 0.080126 0
20.330000 0.062567 0
20.335000 0.046354 0
20.340000 0.031520 0
20.345000 0.018068 0
20.350000 0.005977 0
20.355000 -0.004791 0
20.360000 -0.014294 0
20.365000 -0.022603 0
20.370000 -0.029798 0
20.375000 -0.035964 0
20.380000 -0.041192 0
20.385000 -0.045573 0
20.390000 -0.049196 0
20.395000 -0.052148 0
20.400000 -0.054511 0
20.405000 -0.056363 0
20.410000 -0.057772 0
20.415000 -0.058805 0
20.420000 -0.059519 0
20.425000 -0.059965 0
20.430000 -0.060187 0
20.435000 -0.060225 0
20.440000 -0.060113 0
20.445000 -0.059878 0
20.450000 -0.059545 0
20.455000 -0.059134 0
20.460000 -0.058661 0
20.465000 -0.058140 0
20.470000 -0.057582 0
20.475000 -0.056996 0
20.480000 -0.056389 0
20.485000 -0.055766 0
20.490000 -0.055100 0
20.495000 -0.054428 0
20.500000 -0.053761 0
20.505000 -0.053096 0
20.510000 -0.052435 0
20.515000 -0.051778 0
20.520000 -0.051123 0
20.525000 -0.050472 0
20.530000 -0.049824 0
20.535000 -0.049179 0
20.540000 -0.048538 0
20.545000 -0.047899 0
20.550000 -0.047264 0
20.555000 -0.046632 0
20.560000 -0.046003 0
20.565000 -0.045378 0
20.570000 -0.044755 0
20.575000 -0.044136 0
20.580000 -0.043519 0
20.585000 -0.042906 0
20.590000 -0.042296 0
20.595000 -0.041688 0
20.600000 -0.041084 0
20.605000 -0.040483 0
20.610000 -0.039885 0
20.615000 -0.039290 0
20.620000 -0.038697 0
20.625000 -0.038108 0
20.630000 -0.037521 0
20.635000 -0.036937 0
20.640000 -0.036355 0
20.645000 -0.035774 0
20.650000 -0.035195 0
20.655000 -0.034615 0
20.660000 -0.034033 0
20.665000 -0.033444 0
20.670000 -0.032844 0
20.675000 -0.032225 0
20.680000 -0.031575 0
20.685000 -0.030877 0
20.690000 -0.030106 0
20.695000 -0.029228 0
20.700000 -0.028197 0
20.705000 -0.026952 0
20.710000 -0.025411 0
20.715000 -0.023473 0
20.720000 -0.021013 0
20.725000 -0.017881 0
20.730000 -0.013901 0
20.735000 -0.008878 0
20.740000 -0.002604 0
20.745000 0.005136 0
20.750000 0.014544 0
20.755000 0.025793 0
20.760000 0.039011 0
20.765000 0.054248 0
20.770000 0.071464 0
20.775000 0.090503 0
20.780000 0.111083 0
20.785000 0.132784 0
20.790000 0.155060 0
20.795000 0.177248 0
20.800000 0.198601 0
20.805000 0.218323 0
20.810000 0.235617 0
20.815000 0.249741 0
20.820000 0.260054 0
20.825000 0.266068 0
20.830000 0.267484 1
20.835000 0.264213 0
20.840000 0.256389 0
20.845000 0.244355 0
20.850000 0.228639 0
20.855000 0.209915 0
20.860000 0.188954 0
20.865000 0.166571 0
20.870000 0.143571 0
20.875000 0.120709 0
20.880000 0.098640 0
20.885000 0.077900 0
20.890000 0.058883 0
20.895000 0.041820 0
20.900000 0.026749 0
20.905000 0.013447 0
20.910000 0.001308 0
20.915000 -0.010823 0
20.920000 -0.024758 0
20.925000 -0.042816 0
20.930000 -0.067182 0
20.935000 -0.098665 0
20.940000 -0.135179 0
20.945000 -0.170648 0
20.950000 -0.195067 0
20.955000 -0.195867 2
20.960000 -0.160007 0
20.965000 -0.076103 0
20.970000 0.063219 0
20.975000 0.257742 0
20.980000 0.494670 0
20.985000 0.744700 0
20.990000 0.963811 0
20.995000 1.103821 0
21.000000 1.129069 3
21.005000 1.032291 0
21.010000 0.835060 0
21.015000 0.578616 0
21.020000 0.309514 0
21.025000 0.066308 0
21.030000 -0.126676 0
21.035000 -0.258872 0
21.040000 -0.330166 0
21.045000 -0.347940 4
21.050000 -0.324991 0
21.055000 -0.277196 0
21.060000 -0.220314 0
21.065000 -0.166731 0
21.070000 -0.123547 0
21.075000 -0.092670 0
21.080000 -0.072462 0
21.085000 -0.059779 0
21.090000 -0.051524 0
21.095000 -0.045377 0
21.100000 -0.039888 0
21.105000 -0.034258 0
21.110000 -0.028077 0
21.115000 -0.021134 0
21.120000 -0.013303 0
21.125000 -0.004494 0
21.130000 0.005368 0
21.135000 0.016343 0
21.140000 0.028482 0
21.145000 0.041818 0
21.150000 0.056368 0
21.155000 0.072127 0
21.160000 0.089065 0
21.165000 0.107128 0
21.170000 0.126230 0
21.175000 0.146257 0
21.180000 0.167063 0
21.185000 0.188471 0
21.190000 0.210275 0
21.195000 0.232242 0
21.200000 0.254116 0
21.205000 0.275618 0
21.210000 0.296458 0
21.215000 0.316337 0
21.220000 0.334953 0
21.225000 0.352013 0
21.230000 0.367234 0
21.235000 0.380356 0
21.240000 0.391147 0
21.245000 0.399408 0
21.250000 0.404983 0
21.255000 0.407758 5
21.260000 0.407670 0
21.265000 0.404706 0
21.270000 0.398904 0
21.275000 0.390351 0
21.280000 0.379184 0
21.285000 0.365582 0
21.290000 0.349765 0
21.295000 0.331983 0
21.300000 0.312515 0
21.305000 0.291658 0
21.310000 0.269717 0
21.315000 0.247005 0
21.320000 0.223829 0
21.325000 0.200483 0
21.330000 0.177249 0
21.335000 0.154384 0
21.340000 0.132118 0
21.345000 0.110656 0
21.350000 0.090166 0
21.355000 0.070789 0
21.360000 0.052631 0
21.365000 0.035767 0
21.370000 0.020242 0
21.375000 0.006076 0
21.380000 -0.006739 0
21.385000 -0.018229 0
21.390000 -0.028440 0
21.395000 -0.037432 0
21.400000 -0.045277 0
21.405000 -0.052053 0
21.410000 -0.057845 0
21.415000 -0.062741 0
21.420000 -0.066828 0
21.425000 -0.070192 0
21.430000 -0.072915 0
21.435000 -0.075075 0
21.440000 -0.076747 0
21.445000 -0.077996 0
21.450000 -0.078884 0
21.455000 -0.079465 0
21.460000 -0.079789 0
21.465000 -0.079898 0
21.470000 -0.079828 0
21.475000 -0.079613 0
21.480000 -0.079279 0
21.485000 -0.078849 0
21.490000 -0.078343 0
21.495000 -0.077776 0
21.500000 -0.077163 0
21.505000 -0.076512 0
21.510000 -0.075834 0
21.515000 -0.075136 0
21.520000 -0.074422 0
21.525000 -0.073663 0
21.530000 -0.072899 0
21.535000 -0.072139 0
21.540000 -0.071383 0
21.545000 -0.070631 0
21.550000 -0.069882 0
21.555000 -0.069137 0
21.560000 -0.068396 0
21.565000 -0.067659 0
21.570000 -0.066925 0
21.575000 -0.066195 0
21.580000 -0.065469 0
21.585000 -0.064746 0
21.590000 -0.064027 0
21.595000 -0.063311 0
21.600000 -0.062599 0
21.605000 -0.061891 0
21.610000 -0.061186 0
21.615000 -0.060484 0
21.620000 -0.059786 0
21.625000 -0.059092 0
21.630000 -0.058401 0
21.635000 -0.057714 0
21.640000 -0.057029 0
21.645000 -0.056349 0
21.650000 -0.055671 0
21.655000 -0.054997 0
21.660000 -0.054327 0
21.665000 -0.053659 0
21.670000 -0.052995 0
21.675000 -0.052333 0
21.680000 -0.051674 0
21.685000 -0.051017 0
21.690000 -0.050361 0
21.695000 -0.049705 0
21.700000 -0.049045 0
21.705000 -0.048380 0
21.710000 -0.047703 0
21.715000 -0.047006 0
21.720000 -0.046277 0
21.725000 -0.045498 0
21.730000 -0.044647 0
21.735000 -0.043688 0
21.740000 -0.042576 0
21.745000 -0.041252 0
21.750000 -0.039637 0
21.755000 -0.037633 0
21.760000 -0.035120 0
21.765000 -0.031953 0
21.770000 -0.027966 0
21.775000 -0.022971 0
21.780000 -0.016769 0
21.785000 -0.009153 0
21.790000 0.000074 0
21.795000 0.011085 0
21.800000 0.024008 0
21.805000 0.038909 0
21.810000 0.055768 0
21.815000 0.074459 0
21.820000 0.094739 0
21.825000 0.116239 0
21.830000 0.138463 0
21.835000 0.160805 0
21.840000 0.182564 0
21.845000 0.202987 0
21.850000 0.221300 0
21.855000 0.236763 0
21.860000 0.248717 0
21.865000 0.256626 0
21.870000 0.260124 1
21.875000 0.259034 0
21.880000 0.253387 0
21.885000 0.243421 0
21.890000 0.229560 0
21.895000 0.212387 0
21.900000 0.192601 0
21.905000 0.170970 0
21.910000 0.148281 0
21.915000 0.125295 0
21.920000 0.102705 0
21.925000 0.081103 0
21.930000 0.060958 0
21.935000 0.042597 0
21.940000 0.026190 0
21.945000 0.011707 0
21.950000 -0.001155 0
21.955000 -0.013102 0
21.960000 -0.025395 0
21.965000 -0.039915 0
21.970000 -0.058942 0
21.975000 -0.084442 0
21.980000 -0.116836 0
21.985000 -0.153591 0
21.990000 -0.188330 0
21.995000 -0.211050 2
22.000000 -0.209509 0
22.005000 -0.171191 0
22.010000 -0.085278 0
22.015000 0.055144 0
22.020000 0.249708 0
22.025000 0.486111 0
22.030000 0.736438 0
22.035000 0.958658 0
22.040000 1.106124 0
22.045000 1.142960 3
22.050000 1.059009 0
22.055000 0.873377 0
22.060000 0.623337 0
22.065000 0.353235 0
22.070000 0.101762 0
22.075000 -0.104968 0
22.080000 -0.254031 0
22.085000 -0.342969 0
22.090000 -0.376892 4
22.095000 -0.366464 0
22.100000 -0.326016 0
22.105000 -0.270923 0
22.110000 -0.214552 0
22.115000 -0.165906 0
22.120000 -0.128929 0
22.125000 -0.103454 0
22.130000 -0.086999 0
22.135000 -0.076464 0
22.140000 -0.069188 0
22.145000 -0.063319 0
22.150000 -0.057749 0
22.155000 -0.051876 0
22.160000 -0.045391 0
22.165000 -0.038126 0
22.170000 -0.029974 0
22.175000 -0.020853 0
22.180000 -0.010698 0
22.185000 0.000548 0
22.190000 0.012930 0
22.195000 0.026478 0
22.200000 0.041206 0
22.205000 0.057106 0
22.210000 0.074150 0
22.215000 0.092284 0
22.220000 0.111429 0
22.225000 0.131476 0
22.230000 0.152288 0
22.235000 0.173702 0
22.240000 0.195524 0
22.245000 0.217538 0
22.250000 0.239503 0
22.255000 0.261160 0
22.260000 0.282238 0
22.265000 0.302452 0
22.270000 0.321519 0
22.275000 0.339157 0
22.280000 0.355095 0
22.285000 0.369079 0
22.290000 0.380878 0
22.295000 0.390291 0
22.300000 0.397151 0
22.305000 0.401333 0
22.310000 0.402754 5
22.315000 0.401376 0
22.320000 0.397210 0
22.325000 0.390313 0
22.330000 0.380787 0
22.335000 0.368776 0
22.340000 0.354466 0
22.345000 0.338075 0
22.350000 0.319848 0
22.355000 0.300055 0
22.360000 0.278979 0
22.365000 0.256913 0
22.370000 0.234152 0
22.375000 0.210984 0
22.380000 0.187689 0
22.385000 0.164529 0
22.390000 0.141746 0
22.395000 0.119558 0
22.400000 0.098156 0
22.405000 0.077701 0
22.410000 0.058326 0
22.415000 0.040133 0
22.420000 0.023195 0
22.425000 0.007559 0
22.430000 -0.006756 0
22.435000 -0.019750 0
22.440000 -0.031448 0
22.445000 -0.041888 0
22.450000 -0.051125 0
22.455000 -0.059224 0
22.460000 -0.066258 0
22.465000 -0.072305 0
22.470000 -0.077449 0
22.475000 -0.081772 0
22.480000 -0.085357 0
22.485000 -0.088282 0
22.490000 -0.090625 0
22.495000 -0.092457 0
22.500000 -0.093844 0
22.505000 -0.094848 0
22.510000 -0.095524 0
22.515000 -0.095921 0
22.520000 -0.096084 0
22.525000 -0.096050 0
22.530000 -0.095854 0
22.535000 -0.095524 0
22.540000 -0.095085 0
22.545000 -0.094558 0
22.550000 -0.093961 0
22.555000 -0.093308 0
22.560000 -0.092610 0
22.565000 -0.091879 0
22.570000 -0.091123 0
22.575000 -0.090347 0
22.580000 -0.089556 0
22.585000 -0.088722 0
22.590000 -0.087883 0
22.595000 -0.087048 0
22.600000 -0.086218 0
22.605000 -0.085392 0
22.610000 -0.084569 0
22.615000 -0.083751 0
22.620000 -0.082937 0
22.625000 -0.082128 0
22.630000 -0.081322 0
22.635000 -0.080520 0
22.640000 -0.079722 0
22.645000 -0.078928 0
22.650000 -0.078138 0
22.655000 -0.077352 0
22.660000 -0.076570 0
22.665000 -0.075792 0
22.670000 -0.075018 0
22.675000 -0.074247 0
22.680000 -0.073481 0
22.685000 -0.072718 0
22.690000 -0.071959 0
22.695000 -0.071204 0
22.700000 -0.070453 0
22.705000 -0.069705 0
22.710000 -0.068961 0
22.715000 -0.068221 0
22.720000 -0.067484 0
22.725000 -0.066751 0
22.730000 -0.066022 0
22.735000 -0.065295 0
22.740000 -0.064572 0
22.745000 -0.063852 0
22.750000 -0.063134 0
22.755000 -0.062418 0
22.760000 -0.061701 0
22.765000 -0.060982 0
22.770000 -0.060257 0
22.775000 -0.059521 0
22.780000 -0.058766 0
22.785000 -0.057982 0
22.790000 -0.057152 0
22.795000 -0.056255 0
22.800000 -0.055259 0
22.805000 -0.054124 0
22.810000 -0.052796 0
22.815000 -0.051205 0
22.820000 -0.049263 0
22.825000 -0.046861 0
22.830000 -0.043870 0
22.835000 -0.040140 0
22.840000 -0.035498 0
22.845000 -0.029761 0
22.850000 -0.022733 0
22.855000 -0.014222 0
22.860000 -0.004054 0
22.865000 0.007918 0
22.870000 0.021789 0
22.875000 0.037584 0
22.880000 0.055245 0
22.885000 0.074608 0
22.890000 0.095399 0
22.895000 0.117224 0
22.900000 0.139581 0
22.905000 0.161863 0
22.910000 0.183393 0
22.915000 0.203447 0
22.920000 0.221296 0
22.925000 0.236251 0
22.930000 0.247703 0
22.935000 0.255166 0
22.940000 0.258310 1
22.945000 0.256985 0
22.950000 0.251231 0
22.955000 0.241279 0
22.960000 0.227532 0
22.965000 0.210537 0
22.970000 0.190952 0
22.975000 0.169501 0
22.980000 0.146931 0
22.985000 0.123968 0
22.990000 0.101281 0
22.995000 0.079450 0
23.000000 0.058946 0
23.005000 0.040114 0
23.010000 0.023156 0
23.015000 0.008106 0
23.020000 -0.005227 0
23.025000 -0.017360 0
23.030000 -0.029271 0
23.035000 -0.042508 0
23.040000 -0.059119 0
23.045000 -0.081230 0
23.050000 -0.110125 0
23.055000 -0.145006 0
23.060000 -0.181861 0
23.065000 -0.213067 0
23.070000 -0.228082 2
23.075000 -0.214984 0
23.080000 -0.162270 0
23.085000 -0.060622 0
23.090000 0.094879 0
23.095000 0.301323 0
23.100000 0.543695 0
23.105000 0.792306 0
23.110000 1.005554 0
23.115000 1.139776 0
23.120000 1.163441 3
23.125000 1.069708 0
23.130000 0.878569 0
23.135000 0.626642 0
23.140000 0.356456 0
23.145000 0.104899 0
23.150000 -0.103012 0
23.155000 -0.254667 0
23.160000 -0.347362 0
23.165000 -0.385602 4
23.170000 -0.379224 0
23.175000 -0.341697 0
23.180000 -0.287803 0
23.185000 -0.230818 0
23.190000 -0.180186 0
23.195000 -0.140584 0
23.200000 -0.112552 0
23.205000 -0.094062 0
23.210000 -0.082167 0
23.215000 -0.074135 0
23.220000 -0.067955 0
23.225000 -0.062358 0
23.230000 -0.056631 0
23.235000 -0.050395 0
23.240000 -0.043451 0
23.245000 -0.035679 0
23.250000 -0.026993 0
23.255000 -0.017324 0
23.260000 -0.006613 0
23.265000 0.005187 0
23.270000 0.018114 0
23.275000 0.032189 0
23.280000 0.047416 0
23.285000 0.063780 0
23.290000 0.081245 0
23.295000 0.099749 0
23.300000 0.119206 0
23.305000 0.139503 0
23.310000 0.160501 0
23.315000 0.182035 0
23.320000 0.203913 0
23.325000 0.225921 0
23.330000 0.247826 0
23.335000 0.269375 0
23.340000 0.290305 0
23.345000 0.310346 0
23.350000 0.329225 0
23.355000 0.346673 0
23.360000 0.362432 0
23.365000 0.376260 0
23.370000 0.387938 0
23.375000 0.397275 0
23.380000 0.404112 0
23.385000 0.408329 0
23.390000 0.409846 5
23.395000 0.408625 0
23.400000 0.404673 0
23.405000 0.398041 0
23.410000 0.388822 0
23.415000 0.377151 0
23.420000 0.363199 0
23.425000 0.347169 0
23.430000 0.329293 0
23.435000 0.309824 0
23.440000 0.289032 0
23.445000 0.267195 0
23.450000 0.244596 0
23.455000 0.221514 0
23.460000 0.198219 0
23.465000 0.174970 0
23.470000 0.152005 0
23.475000 0.129543 0
23.480000 0.107778 0
23.485000 0.086875 0
23.490000 0.066975 0
23.495000 0.048189 0
23.500000 0.030601 0
23.505000 0.014267 0
23.510000 -0.000779 0
23.515000 -0.014528 0
23.520000 -0.026991 0
23.525000 -0.038197 0
23.530000 -0.048189 0
23.535000 -0.057023 0
23.540000 -0.064765 0
23.545000 -0.071486 0
23.550000 -0.077265 0
23.555000 -0.082179 0
23.560000 -0.086309 0
23.565000 -0.089733 0
23.570000 -0.092527 0
23.575000 -0.094763 0
23.580000 -0.096509 0
23.585000 -0.097828 0
23.590000 -0.098777 0
23.595000 -0.099411 0
23.600000 -0.099774 0
23.605000 -0.099910 0
23.610000 -0.099855 0
23.615000 -0.099641 0
23.620000 -0.099296 0
23.625000 -0.098844 0
23.630000 -0.098304 0
23.635000 -0.097694 0
23.640000 -0.097028 0
23.645000 -0.096318 0
23.650000 -0.095574 0
23.655000 -0.094804 0
23.660000 -0.094013 0
23.665000 -0.093208 0
23.670000 -0.092386 0
23.675000 -0.091529 0
23.680000 -0.090677 0
23.685000 -0.089828 0
23.690000 -0.088984 0
23.695000 -0.088144 0
23.700000 -0.087308 0
23.705000 -0.086476 0
23.710000 -0.085649 0
23.715000 -0.084825 0
23.720000 -0.084006 0
23.725000 -0.083191 0
23.730000 -0.082379 0
23.735000 -0.081572 0
23.740000 -0.080769 0
23.745000 -0.079970 0
23.750000 -0.079175 0
23.755000 -0.078384 0
23.760000 -0.077597 0
23.765000 -0.076813 0
23.770000 -0.076034 0
23.775000 -0.075259 0
23.780000 -0.074487 0
23.785000 -0.073719 0
23.790000 -0.072955 0
23.795000 -0.072195 0
23.800000 -0.071439 0
23.805000 -0.070686 0
23.810000 -0.069937 0
23.815000 -0.069192 0
23.820000 -0.068450 0
23.825000 -0.067712 0
23.830000 -0.066977 0
23.835000 -0.066245 0
23.840000 -0.065515 0
23.845000 -0.064786 0
23.850000 -0.064057 0
23.855000 -0.063327 0
23.860000 -0.062591 0
23.865000 -0.061845 0
23.870000 -0.061081 0
23.875000 -0.060290 0
23.880000 -0.059457 0
23.885000 -0.058562 0
23.890000 -0.057576 0
23.895000 -0.056463 0
23.900000 -0.055174 0
23.905000 -0.053645 0
23.910000 -0.051797 0
23.915000 -0.049531 0
23.920000 -0.046730 0
23.925000 -0.043255 0
23.930000 -0.038948 0
23.935000 -0.033637 0
23.940000 -0.027137 0
23.945000 -0.019262 0
23.950000 -0.009837 0
23.955000 0.001293 0
23.960000 0.014244 0
23.965000 0.029074 0
23.970000 0.045769 0
23.975000 0.064228 0
23.980000 0.084246 0
23.985000 0.105511 0
23.990000 0.127602 0
23.995000 0.149996 0
24.000000 0.172085 0
24.005000 0.193200 0
24.010000 0.212643 0
24.015000 0.229722 0
24.020000 0.243794 0
24.025000 0.254305 0
24.030000 0.260822 0
24.035000 0.263065 1
24.040000 0.260927 0
24.045000 0.254481 0
24.050000 0.243972 0
24.055000 0.229809 0
24.060000 0.212531 0
24.065000 0.192774 0
24.070000 0.171237 0
24.075000 0.148634 0
24.080000 0.125661 0
24.085000 0.102957 0
24.090000 0.081080 0
24.095000 0.060485 0
24.100000 0.041509 0
24.105000 0.024359 0
24.110000 0.009084 0
24.115000 -0.004467 0
24.120000 -0.016737 0
24.125000 -0.028579 0
24.130000 -0.041372 0
24.135000 -0.056998 0
24.140000 -0.077540 0
24.145000 -0.104542 0
24.150000 -0.137909 0
24.155000 -0.174787 0
24.160000 -0.208941 0
24.165000 -0.231075 2
24.170000 -0.230037 0
24.175000 -0.194455 0
24.180000 -0.114349 0
24.185000 0.017099 0
24.190000 0.200929 0
24.195000 0.428645 0
24.200000 0.678703 0
24.205000 0.916254 0
24.210000 1.098914 0
24.215000 1.188311 3
24.220000 1.163044 0
24.225000 1.026680 0
24.230000 0.806222 0
24.235000 0.541986 0
24.240000 0.275175 0
24.245000 0.038222 0
24.250000 -0.148977 0
24.255000 -0.278041 0
24.260000 -0.349301 0
24.265000 -0.369435 4
24.270000 -0.349802 0
24.275000 -0.304593 0
24.280000 -0.248272 0
24.285000 -0.192849 0
24.290000 -0.145999 0
24.295000 -0.110747 0
24.300000 -0.086512 0
24.305000 -0.070783 0
24.310000 -0.060608 0
24.315000 -0.053498 0
24.320000 -0.047721 0
24.325000 -0.042230 0
24.330000 -0.036453 0
24.335000 -0.030088 0
24.340000 -0.022971 0
24.345000 -0.014997 0
24.350000 -0.006088 0
24.355000 0.003822 0
24.360000 0.014787 0
24.365000 0.026851 0
24.370000 0.040047 0
24.375000 0.054392 0
24.380000 0.069882 0
24.385000 0.086498 0
24.390000 0.104196 0
24.395000 0.122906 0
24.400000 0.142537 0
24.405000 0.162967 0
24.410000 0.184051 0
24.415000 0.205617 0
24.420000 0.227468 0
24.425000 0.249385 0
24.430000 0.271130 0
24.435000 0.292450 0
24.440000 0.313080 0
24.445000 0.332750 0
24.450000 0.351190 0
24.455000 0.368134 0
24.460000 0.383330 0
24.465000 0.396542 0
24.470000 0.407560 0
24.475000 0.416201 0
24.480000 0.422318 0
24.485000 0.425798 0
24.490000 0.426574 5
24.495000 0.424618 0
24.500000 0.419948 0
24.505000 0.412625 0
24.510000 0.402750 0
24.515000 0.390467 0
24.520000 0.375953 0
24.525000 0.359417 0
24.530000 0.341094 0
24.535000 0.321241 0
24.540000 0.300128 0
24.545000 0.278032 0
24.550000 0.255235 0
24.555000 0.232012 0
24.560000 0.208631 0
24.565000 0.185344 0
24.570000 0.162386 0
24.575000 0.139969 0
24.580000 0.118279 0
24.585000 0.097479 0
24.590000 0.077701 0
24.595000 0.059051 0
24.600000 0.041608 0
24.605000 0.025424 0
24.610000 0.010527 0
24.615000 -0.003077 0
24.620000 -0.015401 0
24.625000 -0.026478 0
24.630000 -0.036352 0
24.635000 -0.045081 0
24.640000 -0.052730 0
24.645000 -0.059374 0
24.650000 -0.065088 0
24.655000 -0.069952 0
24.660000 -0.074044 0
24.665000 -0.077442 0
24.670000 -0.080221 0
24.675000 -0.082453 0
24.680000 -0.084205 0
24.685000 -0.085538 0
24.690000 -0.086509 0
24.695000 -0.087170 0
24.700000 -0.087567 0
24.705000 -0.087741 0
24.710000 -0.087728 0
24.715000 -0.087560 0
24.720000 -0.087263 0
24.725000 -0.086861 0
24.730000 -0.086373 0
24.735000 -0.085817 0
24.740000 -0.085205 0
24.745000 -0.084551 0
24.750000 -0.083862 0
24.755000 -0.083148 0
24.760000 -0.082415 0
24.765000 -0.081666 0
24.770000 -0.080871 0
24.775000 -0.080072 0
24.780000 -0.079276 0
24.785000 -0.078484 0
24.790000 -0.077697 0
24.795000 -0.076913 0
24.800000 -0.076133 0
24.805000 -0.075357 0
24.810000 -0.074585 0
24.815000 -0.073817 0
24.820000 -0.073052 0
24.825000 -0.072292 0
24.830000 -0.071535 0
24.835000 -0.070782 0
24.840000 -0.070033 0
24.845000 -0.069287 0
24.850000 -0.068545 0
24.855000 -0.067807 0
24.860000 -0.067073 0
24.865000 -0.066342 0
24.870000 -0.065615 0
24.875000 -0.064891 0
24.880000 -0.064171 0
24.885000 -0.063455 0
24.890000 -0.062742 0
24.895000 -0.062033 0
24.900000 -0.061327 0
24.905000 -0.060625 0
24.910000 -0.059927 0
24.915000 -0.059231 0
24.920000 -0.058539 0
24.925000 -0.057850 0
24.930000 -0.057164 0
24.935000 -0.056481 0
24.940000 -0.055800 0
24.945000 -0.055120 0
24.950000 -0.054440 0
24.955000 -0.053757 0
24.960000 -0.053069 0
24.965000 -0.052372 0
24.970000 -0.051657 0
24.975000 -0.050915 0
24.980000 -0.050131 0
24.985000 -0.049287 0
24.990000 -0.048355 0
24.995000 -0.047298 0
25.000000 -0.046068 0
25.005000 -0.044605 0
25.010000 -0.042829 0
25.015000 -0.040645 0
25.020000 -0.037937 0
25.025000 -0.034568 0
25.030000 -0.030384 0
25.035000 -0.025214 0
25.040000 -0.018876 0
25.045000 -0.011185 0
25.050000 -0.001963 0
25.055000 0.008945 0
25.060000 0.021658 0
25.065000 0.036242 0
25.070000 0.052691 0
25.075000 0.070914 0
25.080000 0.090720 0
25.085000 0.111812 0
25.090000 0.133784 0
25.095000 0.156127 0
25.100000 0.178248 0
25.105000 0.199485 0
25.110000 0.219148 0
25.115000 0.236546 0
25.120000 0.251031 0
25.125000 0.262037 0
25.130000 0.269114 0
25.135000 0.271962 1
25.140000 0.270447 0
25.145000 0.264613 0
25.150000 0.254681 0
25.155000 0.241030 0
25.160000 0.224179 0
25.165000 0.204747 0
25.170000 0.183421 0
25.175000 0.160910 0
25.180000 0.137913 0
25.185000 0.115076 0
25.190000 0.092970 0
25.195000 0.072069 0
25.200000 0.052729 0
25.205000 0.035181 0
25.210000 0.019507 0
25.215000 0.005602 0
25.220000 -0.006909 0
25.225000 -0.018781 0
25.230000 -0.031273 0
25.235000 -0.046167 0
25.240000 -0.065536 0
25.245000 -0.091111 0
25.250000 -0.123254 0
25.255000 -0.159805 0
25.260000 -0.195323 0
25.265000 -0.221171 0
25.270000 -0.226548 2
25.275000 -0.200053 0
25.280000 -0.131302 0
25.285000 -0.012578 0
25.290000 0.158836 0
25.295000 0.377175 0
25.300000 0.624421 0
25.305000 0.868952 0
25.310000 1.069618 0
25.315000 1.185978 0
25.320000 1.191335 3
25.325000 1.081785 0
25.330000 0.878061 0
25.335000 0.619759 0
25.340000 0.350419 0
25.345000 0.106025 0
25.350000 -0.090360 0
25.355000 -0.228242 0
25.360000 -0.306801 0
25.365000 -0.332219 4
25.370000 -0.315823 0
25.375000 -0.272154 0
25.380000 -0.216284 0
25.385000 -0.160856 0
25.390000 -0.114007 0
25.395000 -0.078947 0
25.400000 -0.055077 0
25.405000 -0.039776 0
25.410000 -0.029991 0
25.415000 -0.023183 0
25.420000 -0.017616 0
25.425000 -0.012261 0
25.430000 -0.006564 0
25.435000 -0.000237 0
25.440000 0.006877 0
25.445000 0.014880 0
25.450000 0.023852 0
25.455000 0.033858 0
25.460000 0.044952 0
25.465000 0.057177 0
25.470000 0.070563 0
25.475000 0.085122 0
25.480000 0.100847 0
25.485000 0.117707 0
25.490000 0.135650 0
25.495000 0.154596 0
25.500000 0.174437 0
25.505000 0.195039 0
25.510000 0.216238 0
25.515000 0.237845 0
25.520000 0.259646 0
25.525000 0.281402 0
25.530000 0.302860 0
25.535000 0.323749 0
25.540000 0.343791 0
25.545000 0.362705 0
25.550000 0.380213 0
25.555000 0.396046 0
25.560000 0.409952 0
25.565000 0.421701 0
25.570000 0.431093 0
25.575000 0.437960 0
25.580000 0.442176 0
25.585000 0.443653 5
25.590000 0.442352 0
25.595000 0.438278 0
25.600000 0.431482 0
25.605000 0.422060 0
25.610000 0.410151 0
25.615000 0.395932 0
25.620000 0.379615 0
25.625000 0.361440 0
25.630000 0.341670 0
25.635000 0.320583 0
25.640000 0.298467 0
25.645000 0.275613 0
25.650000 0.252308 0
25.655000 0.228831 0
25.660000 0.205443 0
25.665000 0.182388 0
25.670000 0.159885 0
25.675000 0.138129 0
25.680000 0.117285 0
25.685000 0.097490 0
25.690000 0.078852 0
25.695000 0.061448 0
25.700000 0.045332 0
25.705000 0.030527 0
25.710000 0.017038 0
25.715000 0.004847 0
25.720000 -0.006082 0
25.725000 -0.015798 0
25.730000 -0.024364 0
25.735000 -0.031850 0
25.740000 -0.038332 0
25.745000 -0.043891 0
25.750000 -0.048610 0
25.755000 -0.052568 0
25.760000 -0.055848 0
25.765000 -0.058524 0
25.770000 -0.060669 0
25.775000 -0.062350 0
25.780000 -0.063631 0
25.785000 -0.064567 0
25.790000 -0.065208 0
25.795000 -0.065602 0
25.800000 -0.065786 0
25.805000 -0.065796 0
25.810000 -0.065663 0
25.815000 -0.065413 0
25.820000 -0.065066 0
25.825000 -0.064642 0
25.830000 -0.064157 0
25.835000 -0.063623 0
25.840000 -0.063051 0
25.845000 -0.062449 0
25.850000 -0.061825 0
25.855000 -0.061184 0
25.860000 -0.060524 0
25.865000 -0.059826 0
25.870000 -0.059131 0
25.875000 -0.058440 0
25.880000 -0.057752 0
25.885000 -0.057068 0
25.890000 -0.056387 0
25.895000 -0.055710 0
25.900000 -0.055035 0
25.905000 -0.054365 0
25.910000 -0.053697 0
25.915000 -0.053033 0
25.920000 -0.052372 0
25.925000 -0.051715 0
25.930000 -0.051061 0
25.935000 -0.050410 0
25.940000 -0.049762 0
25.945000 -0.049118 0
25.950000 -0.048477 0
25.955000 -0.047838 0
25.960000 -0.047204 0
25.965000 -0.046572 0
25.970000 -0.045943 0
25.975000 -0.045318 0
25.980000 -0.044696 0
25.985000 -0.044077 0
25.990000 -0.043460 0
25.995000 -0.042847 0
26.000000 -0.042237 0
26.005000 -0.041630 0
26.010000 -0.041026 0
26.015000 -0.040424 0
26.020000 -0.039825 0
26.025000 -0.039228 0
26.030000 -0.038632 0
26.035000 -0.038036 0
26.040000 -0.037439 0
26.045000 -0.036838 0
26.050000 -0.036230 0
26.055000 -0.035607 0
26.060000 -0.034963 0
26.065000 -0.034284 0
26.070000 -0.033553 0
26.075000 -0.032746 0
26.080000 -0.031829 0
26.085000 -0.030760 0
26.090000 -0.029479 0
26.095000 -0.027914 0
26.100000 -0.025971 0
26.105000 -0.023539 0
26.110000 -0.020484 0
26.115000 -0.016651 0
26.120000 -0.011867 0
26.125000 -0.005946 0
26.130000 0.001304 0
26.135000 0.010070 0
26.140000 0.020520 0
26.145000 0.032789 0
26.150000 0.046957 0
26.155000 0.063034 0
26.160000 0.080940 0
26.165000 0.100494 0
26.170000 0.121401 0
26.175000 0.143253 0
26.180000 0.165532 0
26.185000 0.187627 0
26.190000 0.208857 0
26.195000 0.228503 0
26.200000 0.245850 0
26.205000 0.260225 0
26.210000 0.271043 0
26.215000 0.277842 0
26.220000 0.280320 1
26.225000 0.278351 0
26.230000 0.271999 0
26.235000 0.261510 0
26.240000 0.247300 0
26.245000 0.229924 0
26.250000 0.210039 0
26.255000 0.188363 0
26.260000 0.165635 0
26.265000 0.142569 0
26.270000 0.119820 0
26.275000 0.097955 0
26.280000 0.077432 0
26.285000 0.058586 0
26.290000 0.041608 0
26.295000 0.026525 0
26.300000 0.013140 0
26.305000 0.000931 0
26.310000 -0.011078 0
26.315000 -0.024425 0
26.320000 -0.041138 0
26.325000 -0.063314 0
26.330000 -0.092231 0
26.335000 -0.127128 0
26.340000 -0.164097 0
26.345000 -0.195685 0
26.350000 -0.211538 2
26.355000 -0.199896 0
26.360000 -0.149346 0
26.365000 -0.050538 0
26.370000 0.101691 0
26.375000 0.305041 0
26.380000 0.545580 0
26.385000 0.794998 0
26.390000 1.012838 0
26.395000 1.155606 0
26.400000 1.190505 3
26.405000 1.106373 0
26.410000 0.918582 0
26.415000 0.666429 0
26.420000 0.396263 0
26.425000 0.147797 0
26.430000 -0.052959 0
26.435000 -0.193901 0
26.440000 -0.273706 0
26.445000 -0.298786 4
26.450000 -0.281181 0
26.455000 -0.236367 0
26.460000 -0.180216 0
26.465000 -0.125715 0
26.470000 -0.080794 0
26.475000 -0.048115 0
26.480000 -0.026502 0
26.485000 -0.012963 0
26.490000 -0.004343 0
26.495000 0.001821 0
26.500000 0.007117 0
26.505000 0.012439 0
26.510000 0.018249 0
26.515000 0.024787 0
26.520000 0.032189 0
26.525000 0.040548 0
26.530000 0.049942 0
26.535000 0.060433 0
26.540000 0.072074 0
26.545000 0.084902 0
26.550000 0.098937 0
26.555000 0.114181 0
26.560000 0.130609 0
26.565000 0.148174 0
26.570000 0.166798 0
26.575000 0.186375 0
26.580000 0.206769 0
26.585000 0.227812 0
26.590000 0.249307 0
26.595000 0.271031 0
26.600000 0.292733 0
26.605000 0.314145 0
26.610000 0.334981 0
26.615000 0.354946 0
26.620000 0.373742 0
26.625000 0.391073 0
26.630000 0.406656 0
26.635000 0.420225 0
26.640000 0.431542 0
26.645000 0.440397 0
26.650000 0.446623 0
26.655000 0.450094 0
26.660000 0.450729 5
26.665000 0.448500 0
26.670000 0.443427 0
26.675000 0.435582 0
26.680000 0.425083 0
26.685000 0.412095 0
26.690000 0.396822 0
26.695000 0.379502 0
26.700000 0.360403 0
26.705000 0.339814 0
26.710000 0.318034 0
26.715000 0.295374 0
26.720000 0.272138 0
26.725000 0.248626 0
26.730000 0.225122 0
26.735000 0.201890 0
26.740000 0.179170 0
26.745000 0.157175 0
26.750000 0.136087 0
26.755000 0.116055 0
26.760000 0.097199 0
26.765000 0.079606 0
26.770000 0.063333 0
26.775000 0.048408 0
26.780000 0.034837 0
26.785000 0.022599 0
26.790000 0.011658 0
26.795000 0.001960 0
26.800000 -0.006562 0
26.805000 -0.013983 0
26.810000 -0.020385 0
26.815000 -0.025853 0
26.820000 -0.030475 0
26.825000 -0.034337 0
26.830000 -0.037522 0
26.835000 -0.040110 0
26.840000 -0.042176 0
26.845000 -0.043789 0
26.850000 -0.045013 0
26.855000 -0.045905 0
26.860000 -0.046517 0
26.865000 -0.046893 0
26.870000 -0.047073 0
26.875000 -0.047092 0
26.880000 -0.046978 0
26.885000 -0.046757 0
26.890000 -0.046450 0
26.895000 -0.046073 0
26.900000 -0.045643 0
26.905000 -0.045169 0
26.910000 -0.044663 0
26.915000 -0.044132 0
26.920000 -0.043583 0
26.925000 -0.043012 0
26.930000 -0.042401 0
26.935000 -0.041794 0
26.940000 -0.041189 0
26.945000 -0.040587 0
26.950000 -0.039988 0
26.955000 -0.039393 0
26.960000 -0.038800 0
26.965000 -0.038210 0
26.970000 -0.037623 0
26.975000 -0.037040 0
26.980000 -0.036459 0
26.985000 -0.035880 0
26.990000 -0.035305 0
26.995000 -0.034733 0
27.000000 -0.034163 0
27.005000 -0.033597 0
27.010000 -0.033033 0
27.015000 -0.032472 0
27.020000 -0.031914 0
27.025000 -0.031358 0
27.030000 -0.030806 0
27.035000 -0.030256 0
27.040000 -0.029709 0
27.045000 -0.029164 0
27.050000 -0.028622 0
27.055000 -0.028083 0
27.060000 -0.027547 0
27.065000 -0.027013 0
27.070000 -0.026482 0
27.075000 -0.025953 0
27.080000 -0.025426 0
27.085000 -0.024901 0
27.090000 -0.024377 0
27.095000 -0.023852 0
27.100000 -0.023327 0
27.105000 -0.022797 0
27.110000 -0.022258 0
27.115000 -0.021706 0
27.120000 -0.021130 0
27.125000 -0.020517 0
27.130000 -0.019848 0
27.135000 -0.019098 0
27.140000 -0.018229 0
27.145000 -0.017193 0
27.150000 -0.015926 0
27.155000 -0.014346 0
27.160000 -0.012350 0
27.165000 -0.009812 0
27.170000 -0.006583 0
27.175000 -0.002494 0
27.180000 0.002645 0
27.185000 0.009036 0
27.190000 0.016880 0
27.195000 0.026371 0
27.200000 0.037672 0
27.205000 0.050897 0
27.210000 0.066097 0
27.215000 0.083228 0
27.220000 0.102145 0
27.225000 0.122582 0
27.230000 0.144146 0
27.235000 0.166324 0
27.240000 0.188495 0
27.245000 0.209952 0
27.250000 0.229939 0
27.255000 0.247694 0
27.260000 0.262492 0
27.265000 0.273697 0
27.270000 0.280804 0
27.275000 0.283477 1
27.280000 0.281573 0
27.285000 0.275155 0
27.290000 0.264486 0
27.295000 0.250014 0
27.300000 0.232333 0
27.305000 0.212149 0
27.310000 0.190230 0
27.315000 0.167355 0
27.320000 0.144273 0
27.325000 0.121660 0
27.330000 0.100090 0
27.335000 0.080014 0
27.340000 0.061741 0
27.345000 0.045421 0
27.350000 0.031003 0
27.355000 0.018156 0
27.360000 0.006136 0
27.365000 -0.006358 0
27.370000 -0.021237 0
27.375000 -0.040770 0
27.380000 -0.066845 0
27.385000 -0.099724 0
27.390000 -0.136674 0
27.395000 -0.171141 0
27.400000 -0.193038 2
27.405000 -0.190164 0
27.410000 -0.150140 0
27.415000 -0.062353 0
27.420000 0.079852 0
27.425000 0.275798 0
27.430000 0.512870 0
27.435000 0.762986 0
27.440000 0.984235 0
27.445000 1.130393 0
27.450000 1.166105 3
27.455000 1.079615 0
27.460000 0.888060 0
27.465000 0.633288 0
27.470000 0.363785 0
27.475000 0.120021 0
27.480000 -0.072540 0
27.485000 -0.203024 0
27.490000 -0.271585 0
27.495000 -0.286237 4
27.500000 -0.260610 0
27.505000 -0.211354 0
27.510000 -0.154612 0
27.515000 -0.102605 0
27.520000 -0.061836 0
27.525000 -0.033509 0
27.530000 -0.015465 0
27.535000 -0.004341 0
27.540000 0.002930 0
27.545000 0.008523 0
27.550000 0.013733 0
27.555000 0.019248 0
27.560000 0.025411 0
27.565000 0.032404 0
27.570000 0.040342 0
27.575000 0.049312 0
27.580000 0.059384 0
27.585000 0.070618 0
27.590000 0.083059 0
27.595000 0.096735 0
27.600000 0.111652 0
27.605000 0.127793 0
27.610000 0.145115 0
27.615000 0.163543 0
27.620000 0.182971 0
27.625000 0.203261 0
27.630000 0.224243 0
27.635000 0.245714 0
27.640000 0.267439 0
27.645000 0.289161 0
27.650000 0.310596 0
27.655000 0.331445 0
27.660000 0.351398 0
27.665000 0.370142 0
27.670000 0.387367 0
27.675000 0.402777 0
27.680000 0.416095 0
27.685000 0.427074 0
27.690000 0.435501 0
27.695000 0.441206 0
27.700000 0.444066 5
27.705000 0.444010 0
27.710000 0.441020 0
27.715000 0.435131 0
27.720000 0.426433 0
27.725000 0.415068 0
27.730000 0.401222 0
27.735000 0.385124 0
27.740000 0.367037 0
27.745000 0.347252 0
27.750000 0.326078 0
27.755000 0.303835 0
27.760000 0.280848 0
27.765000 0.257435 0
27.770000 0.233900 0
27.775000 0.210533 0
27.780000 0.187594 0
27.785000 0.165319 0
27.790000 0.143909 0
27.795000 0.123535 0
27.800000 0.104331 0
27.805000 0.086398 0
27.810000 0.069804 0
27.815000 0.054585 0
27.820000 0.040752 0
27.825000 0.028289 0
27.830000 0.017160 0
27.835000 0.007310 0
27.840000 -0.001329 0
27.845000 -0.008835 0
27.850000 -0.015294 0
27.855000 -0.020795 0
27.860000 -0.025430 0
27.865000 -0.029289 0
27.870000 -0.032458 0
27.875000 -0.035023 0
27.880000 -0.037060 0
27.885000 -0.038642 0
27.890000 -0.039835 0
27.895000 -0.040697 0
27.900000 -0.041282 0
27.905000 -0.041635 0
27.910000 -0.041796 0
27.915000 -0.041801 0
27.920000 -0.041677 0
27.925000 -0.041451 0
27.930000 -0.041143 0
27.935000 -0.040770 0
27.940000 -0.040346 0
27.945000 -0.039883 0
27.950000 -0.039390 0
27.955000 -0.038874 0
27.960000 -0.038342 0
27.965000 -0.037763 0
27.970000 -0.037178 0
27.975000 -0.036596 0
27.980000 -0.036017 0
27.985000 -0.035442 0
27.990000 -0.034869 0
27.995000 -0.034298 0
28.000000 -0.033731 0
28.005000 -0.033167 0
28.010000 -0.032605 0
28.015000 -0.032046 0
28.020000 -0.031490 0
28.025000 -0.030937 0
28.030000 -0.030386 0
28.035000 -0.029838 0
28.040000 -0.029293 0
28.045000 -0.028751 0
28.050000 -0.028211 0
28.055000 -0.027674 0
28.060000 -0.027140 0
28.065000 -0.026608 0
28.070000 -0.026079 0
28.075000 -0.025553 0
28.080000 -0.025029 0
28.085000 -0.024508 0
28.090000 -0.023990 0
28.095000 -0.023474 0
28.100000 -0.022960 0
28.105000 -0.022449 0
28.110000 -0.021940 0
28.115000 -0.021433 0
28.120000 -0.020927 0
28.125000 -0.020422 0
28.130000 -0.019917 0
28.135000 -0.019408 0
28.140000 -0.018894 0
28.145000 -0.018369 0
28.150000 -0.017825 0
28.155000 -0.017252 0
28.160000 -0.016632 0
28.165000 -0.015943 0
28.170000 -0.015151 0
28.175000 -0.014211 0
28.180000 -0.013064 0
28.185000 -0.011632 0
28.190000 -0.009814 0
28.195000 -0.007488 0
28.200000 -0.004505 0
28.205000 -0.000695 0
28.210000 0.004139 0
28.215000 0.010203 0
28.220000 0.017713 0
28.225000 0.026873 0
28.230000 0.037862 0
28.235000 0.050811 0
28.240000 0.065782 0
28.245000 0.082743 0
28.250000 0.101551 0
28.255000 0.121935 0
28.260000 0.143487 0
28.265000 0.165672 0
28.270000 0.187836 0
28.275000 0.209234 0
28.280000 0.229072 0
28.285000 0.246549 0
28.290000 0.260915 0
28.295000 0.271515 0
28.300000 0.277846 0
28.305000 0.279590 1
28.310000 0.276641 0
28.315000 0.269115 0
28.320000 0.257339 0
