0.000000 1.146311 3
0.005000 1.052785 0
0.010000 0.815619 0
0.015000 0.502256 0
0.020000 0.187599 0
0.025000 -0.072929 0
0.030000 -0.251659 0
0.035000 -0.343676 0
0.040000 -0.359707 4
0.045000 -0.321065 0
0.050000 -0.254124 0
0.055000 -0.182944 0
0.060000 -0.122990 0
0.065000 -0.079418 0
0.070000 -0.049955 0
0.075000 -0.029411 0
0.080000 -0.012985 0
0.085000 0.002481 0
0.090000 0.018634 0
0.095000 0.036177 0
0.100000 0.055347 0
0.105000 0.076167 0
0.110000 0.098555 0
0.115000 0.122360 0
0.120000 0.147365 0
0.125000 0.173295 0
0.130000 0.199816 0
0.135000 0.226539 0
0.140000 0.253032 0
0.145000 0.278826 0
0.150000 0.303429 0
0.155000 0.326343 0
0.160000 0.347078 0
0.165000 0.365168 0
0.170000 0.380192 0
0.175000 0.391785 0
0.180000 0.399658 0
0.185000 0.403604 5
0.190000 0.403510 0
0.195000 0.399363 0
0.200000 0.391245 0
0.205000 0.379339 0
0.210000 0.363912 0
0.215000 0.345313 0
0.220000 0.323954 0
0.225000 0.300299 0
0.230000 0.274844 0
0.235000 0.248099 0
0.240000 0.220575 0
0.245000 0.192764 0
0.250000 0.165128 0
0.255000 0.138085 0
0.260000 0.112000 0
0.265000 0.087182 0
0.270000 0.063876 0
0.275000 0.042265 0
0.280000 0.022472 0
0.285000 0.004564 0
0.290000 -0.011445 0
0.295000 -0.025585 0
0.300000 -0.037921 0
0.305000 -0.048551 0
0.310000 -0.057592 0
0.315000 -0.065177 0
0.320000 -0.071446 0
0.325000 -0.076544 0
0.330000 -0.080612 0
0.335000 -0.083787 0
0.340000 -0.086194 0
0.345000 -0.087953 0
0.350000 -0.089168 0
0.355000 -0.089933 0
0.360000 -0.090330 0
0.365000 -0.090428 0
0.370000 -0.090289 0
0.375000 -0.089961 0
0.380000 -0.089417 0
0.385000 -0.088477 0
0.390000 -0.087541 0
0.395000 -0.086610 0
0.400000 -0.085684 0
0.405000 -0.084762 0
0.410000 -0.083845 0
0.415000 -0.082933 0
0.420000 -0.082025 0
0.425000 -0.081121 0
0.430000 -0.080222 0
0.435000 -0.079328 0
0.440000 -0.078438 0
0.445000 -0.077552 0
0.450000 -0.076670 0
0.455000 -0.075792 0
0.460000 -0.074917 0
0.465000 -0.074044 0
0.470000 -0.073171 0
0.475000 -0.072294 0
0.480000 -0.071408 0
0.485000 -0.070504 0
0.490000 -0.069565 0
0.495000 -0.068570 0
0.500000 -0.067482 0
0.505000 -0.066249 0
0.510000 -0.064797 0
0.515000 -0.063022 0
0.520000 -0.060786 0
0.525000 -0.057907 0
0.530000 -0.054162 0
0.535000 -0.049279 0
0.540000 -0.042950 0
0.545000 -0.034838 0
0.550000 -0.024606 0
0.555000 -0.011944 0
0.560000 0.003391 0
0.565000 0.021522 0
0.570000 0.042414 0
0.575000 0.065823 0
0.580000 0.091269 0
0.585000 0.118029 0
0.590000 0.145149 0
0.595000 0.171488 0
0.600000 0.195793 0
0.605000 0.216794 0
0.610000 0.233311 0
0.615000 0.244364 0
0.620000 0.249269 1
0.625000 0.247711 0
0.630000 0.239770 0
0.635000 0.225923 0
0.640000 0.206990 0
0.645000 0.184056 0
0.650000 0.158370 0
0.655000 0.131229 0
0.660000 0.103867 0
0.665000 0.077356 0
0.670000 0.052485 0
0.675000 0.029604 0
0.680000 0.008356 0
0.685000 -0.012677 0
0.690000 -0.036206 0
0.695000 -0.065795 0
0.700000 -0.104156 0
0.705000 -0.150206 0
0.710000 -0.196236 0
0.715000 -0.227251 2
0.720000 -0.223420 0
0.725000 -0.164369 0
0.730000 -0.033715 0
0.735000 0.175232 0
0.740000 0.450402 0
0.745000 0.751384 0
0.750000 1.010110 0
0.755000 1.151350 3
0.760000 1.127845 0
0.765000 0.944195 0
0.770000 0.653688 0
0.775000 0.331136 0
0.780000 0.041627 0
0.785000 -0.175626 0
0.790000 -0.306688 0
0.795000 -0.355837 4
0.800000 -0.339818 0
0.805000 -0.283097 0
0.810000 -0.211423 0
0.815000 -0.144694 0
0.820000 -0.092876 0
0.825000 -0.056847 0
0.830000 -0.032419 0
0.835000 -0.014383 0
0.840000 0.001266 0
0.845000 0.016880 0
0.850000 0.033578 0
0.855000 0.051800 0
0.860000 0.071663 0
0.865000 0.093139 0
0.870000 0.116113 0
0.875000 0.140411 0
0.880000 0.165793 0
0.885000 0.191964 0
0.890000 0.218573 0
0.895000 0.245219 0
0.900000 0.271460 0
0.905000 0.296825 0
0.910000 0.320825 0
0.915000 0.342969 0
0.920000 0.362782 0
0.925000 0.379819 0
0.930000 0.393681 0
0.935000 0.404034 0
0.940000 0.410618 0
0.945000 0.413258 5
0.950000 0.411874 0
0.955000 0.406481 0
0.960000 0.397191 0
0.965000 0.384209 0
0.970000 0.367823 0
0.975000 0.348395 0
0.980000 0.326347 0
0.985000 0.302145 0
0.990000 0.276284 0
0.995000 0.249268 0
1.000000 0.221596 0
1.005000 0.193750 0
1.010000 0.166173 0
1.015000 0.139268 0
1.020000 0.113384 0
1.025000 0.088811 0
1.030000 0.065780 0
1.035000 0.044460 0
1.040000 0.024960 0
1.045000 0.007338 0
1.050000 -0.008400 0
1.055000 -0.022290 0
1.060000 -0.034402 0
1.065000 -0.044835 0
1.070000 -0.053706 0
1.075000 -0.061149 0
1.080000 -0.067303 0
1.085000 -0.072309 0
1.090000 -0.076306 0
1.095000 -0.079429 0
1.100000 -0.081801 0
1.105000 -0.083537 0
1.110000 -0.084741 0
1.115000 -0.085504 0
1.120000 -0.085905 0
1.125000 -0.086013 0
1.130000 -0.085888 0
1.135000 -0.085576 0
1.140000 -0.085052 0
1.145000 -0.084134 0
1.150000 -0.083220 0
1.155000 -0.082310 0
1.160000 -0.081405 0
1.165000 -0.080505 0
1.170000 -0.079609 0
1.175000 -0.078718 0
1.180000 -0.077831 0
1.185000 -0.076948 0
1.190000 -0.076070 0
1.195000 -0.075196 0
1.200000 -0.074327 0
1.205000 -0.073461 0
1.210000 -0.072600 0
1.215000 -0.071742 0
1.220000 -0.070887 0
1.225000 -0.070035 0
1.230000 -0.069182 0
1.235000 -0.068327 0
1.240000 -0.067463 0
1.245000 -0.066582 0
1.250000 -0.065670 0
1.255000 -0.064705 0
1.260000 -0.063654 0
1.265000 -0.062469 0
1.270000 -0.061081 0
1.275000 -0.059392 0
1.280000 -0.057272 0
1.285000 -0.054552 0
1.290000 -0.051019 0
1.295000 -0.046416 0
1.300000 -0.040443 0
1.305000 -0.032776 0
1.310000 -0.023078 0
1.315000 -0.011035 0
1.320000 0.003611 0
1.325000 0.021016 0
1.330000 0.041187 0
1.335000 0.063941 0
1.340000 0.088869 0
1.345000 0.115324 0
1.350000 0.142425 0
1.355000 0.169096 0
1.360000 0.194126 0
1.365000 0.216258 0
1.370000 0.234289 0
1.375000 0.247181 0
1.380000 0.254157 0
1.385000 0.254778 1
1.390000 0.248990 0
1.395000 0.237133 0
1.400000 0.219900 0
1.405000 0.198279 0
1.410000 0.173452 0
1.415000 0.146692 0
1.420000 0.119254 0
1.425000 0.092267 0
1.430000 0.066635 0
1.435000 0.042905 0
1.440000 0.021052 0
1.445000 0.000165 0
1.450000 -0.021878 0
1.455000 -0.048349 0
1.460000 -0.082596 0
1.465000 -0.125642 0
1.470000 -0.173146 0
1.475000 -0.213560 0
1.480000 -0.229131 2
1.485000 -0.199478 0
1.490000 -0.105962 0
1.495000 0.063639 0
1.500000 0.308069 0
1.505000 0.602650 0
1.510000 0.893234 0
1.515000 1.105633 0
1.520000 1.173853 3
1.525000 1.072505 0
1.530000 0.830506 0
1.535000 0.515676 0
1.540000 0.201888 0
1.545000 -0.056815 0
1.550000 -0.233742 0
1.555000 -0.324441 0
1.560000 -0.339760 4
1.565000 -0.300909 0
1.570000 -0.234024 0
1.575000 -0.162925 0
1.580000 -0.102955 0
1.585000 -0.059286 0
1.590000 -0.029725 0
1.595000 -0.009146 0
1.600000 0.007238 0
1.605000 0.022598 0
1.610000 0.038605 0
1.615000 0.055981 0
1.620000 0.074970 0
1.625000 0.095602 0
1.630000 0.117803 0
1.635000 0.141423 0
1.640000 0.166253 0
1.645000 0.192025 0
1.650000 0.218410 0
1.655000 0.245029 0
1.660000 0.271456 0
1.665000 0.297230 0
1.670000 0.321866 0
1.675000 0.344869 0
1.680000 0.365752 0
1.685000 0.384052 0
1.690000 0.399346 0
1.695000 0.411266 0
1.700000 0.419514 0
1.705000 0.423876 0
1.710000 0.424229 5
1.715000 0.420544 0
1.720000 0.412891 0
1.725000 0.401436 0
1.730000 0.386433 0
1.735000 0.368215 0
1.740000 0.347181 0
1.745000 0.323784 0
1.750000 0.298510 0
1.755000 0.271863 0
1.760000 0.244351 0
1.765000 0.216465 0
1.770000 0.188670 0
1.775000 0.161387 0
1.780000 0.134991 0
1.785000 0.109798 0
1.790000 0.086065 0
1.795000 0.063985 0
1.800000 0.043694 0
1.805000 0.025268 0
1.810000 0.008734 0
1.815000 -0.005928 0
1.820000 -0.018776 0
1.825000 -0.029900 0
1.830000 -0.039411 0
1.835000 -0.047437 0
1.840000 -0.054117 0
1.845000 -0.059593 0
1.850000 -0.064006 0
1.855000 -0.067492 0
1.860000 -0.070181 0
1.865000 -0.072192 0
1.870000 -0.073631 0
1.875000 -0.074597 0
1.880000 -0.075172 0
1.885000 -0.075430 0
1.890000 -0.075434 0
1.895000 -0.075235 0
1.900000 -0.074877 0
1.905000 -0.074083 0
1.910000 -0.073219 0
1.915000 -0.072360 0
1.920000 -0.071504 0
1.925000 -0.070653 0
1.930000 -0.069807 0
1.935000 -0.068964 0
1.940000 -0.068126 0
1.945000 -0.067292 0
1.950000 -0.066462 0
1.955000 -0.065636 0
1.960000 -0.064814 0
1.965000 -0.063996 0
1.970000 -0.063182 0
1.975000 -0.062371 0
1.980000 -0.061564 0
1.985000 -0.060759 0
1.990000 -0.059954 0
1.995000 -0.059147 0
2.000000 -0.058333 0
2.005000 -0.057505 0
2.010000 -0.056651 0
2.015000 -0.055750 0
2.020000 -0.054774 0
2.025000 -0.053680 0
2.030000 -0.052402 0
2.035000 -0.050854 0
2.040000 -0.048914 0
2.045000 -0.046423 0
2.050000 -0.043179 0
2.055000 -0.038936 0
2.060000 -0.033403 0
2.065000 -0.026259 0
2.070000 -0.017168 0
2.075000 -0.005803 0
2.080000 0.008114 0
2.085000 0.024769 0
2.090000 0.044212 0
2.095000 0.066311 0
2.100000 0.090714 0
2.105000 0.116829 0
2.110000 0.143826 0
2.115000 0.170666 0
2.120000 0.196158 0
2.125000 0.219039 0
2.130000 0.238079 0
2.135000 0.252187 0
2.140000 0.260513 0
2.145000 0.262535 1
2.150000 0.258110 0
2.155000 0.247493 0
2.160000 0.231308 0
2.165000 0.210492 0
2.170000 0.186199 0
2.175000 0.159700 0
2.180000 0.132266 0
2.185000 0.105069 0
2.190000 0.079071 0
2.195000 0.054906 0
2.200000 0.032688 0
2.205000 0.011702 0
2.210000 -0.009937 0
2.215000 -0.035337 0
2.220000 -0.067994 0
2.225000 -0.109600 0
2.230000 -0.156975 0
2.235000 -0.199838 0
2.240000 -0.221245 2
2.245000 -0.200858 0
2.250000 -0.119333 0
2.255000 0.037106 0
2.260000 0.270115 0
2.265000 0.559429 0
2.270000 0.855322 0
2.275000 1.084971 0
2.280000 1.178434 3
2.285000 1.101946 0
2.290000 0.876294 0
2.295000 0.566700 0
2.300000 0.249273 0
2.305000 -0.017739 0
2.310000 -0.204081 0
2.315000 -0.303146 0
2.320000 -0.324655 4
2.325000 -0.289402 0
2.330000 -0.223798 0
2.335000 -0.152478 0
2.340000 -0.091718 0
2.345000 -0.047330 0
2.350000 -0.017357 0
2.355000 0.003366 0
2.360000 0.019742 0
2.365000 0.035040 0
2.370000 0.050978 0
2.375000 0.068295 0
2.380000 0.087240 0
2.385000 0.107843 0
2.390000 0.130026 0
2.395000 0.153636 0
2.400000 0.178458 0
2.405000 0.204215 0
2.410000 0.230573 0
2.415000 0.257141 0
2.420000 0.283484 0
2.425000 0.309131 0
2.430000 0.333585 0
2.435000 0.356346 0
2.440000 0.376919 0
2.445000 0.394837 0
2.450000 0.409674 0
2.455000 0.421066 0
2.460000 0.428721 0
2.465000 0.432433 5
2.470000 0.432091 0
2.475000 0.427682 0
2.480000 0.419295 0
2.485000 0.407114 0
2.490000 0.391413 0
2.495000 0.372544 0
2.500000 0.350928 0
2.505000 0.327031 0
2.510000 0.301353 0
2.515000 0.274411 0
2.520000 0.246716 0
2.525000 0.218764 0
2.530000 0.191016 0
2.535000 0.163891 0
2.540000 0.137752 0
2.545000 0.112906 0
2.550000 0.089593 0
2.555000 0.067995 0
2.560000 0.048230 0
2.565000 0.030359 0
2.570000 0.014394 0
2.575000 0.000299 0
2.580000 -0.011994 0
2.585000 -0.022585 0
2.590000 -0.031595 0
2.595000 -0.039159 0
2.600000 -0.045418 0
2.605000 -0.050519 0
2.610000 -0.054603 0
2.615000 -0.057805 0
2.620000 -0.060253 0
2.625000 -0.062064 0
2.630000 -0.063342 0
2.635000 -0.064180 0
2.640000 -0.064659 0
2.645000 -0.064847 0
2.650000 -0.064804 0
2.655000 -0.064577 0
2.660000 -0.064144 0
2.665000 -0.063329 0
2.670000 -0.062519 0
2.675000 -0.061713 0
2.680000 -0.060911 0
2.685000 -0.060113 0
2.690000 -0.059318 0
2.695000 -0.058528 0
2.700000 -0.057742 0
2.705000 -0.056960 0
2.710000 -0.056181 0
2.715000 -0.055406 0
2.720000 -0.054636 0
2.725000 -0.053868 0
2.730000 -0.053105 0
2.735000 -0.052344 0
2.740000 -0.051585 0
2.745000 -0.050828 0
2.750000 -0.050069 0
2.755000 -0.049305 0
2.760000 -0.048530 0
2.765000 -0.047732 0
2.770000 -0.046896 0
2.775000 -0.045994 0
2.780000 -0.044988 0
2.785000 -0.043820 0
2.790000 -0.042409 0
2.795000 -0.040642 0
2.800000 -0.038369 0
2.805000 -0.035398 0
2.810000 -0.031491 0
2.815000 -0.026363 0
2.820000 -0.019694 0
2.825000 -0.011144 0
2.830000 -0.000375 0
2.835000 0.012909 0
2.840000 0.028925 0
2.845000 0.047756 0
2.850000 0.069310 0
2.855000 0.093275 0
2.860000 0.119098 0
2.865000 0.145976 0
2.870000 0.172887 0
2.875000 0.198640 0
2.880000 0.221956 0
2.885000 0.241572 0
2.890000 0.256353 0
2.895000 0.265396 0
2.900000 0.268126 1
2.905000 0.264352 0
2.910000 0.254290 0
2.915000 0.238541 0
2.920000 0.218030 0
2.925000 0.193918 0
2.930000 0.167492 0
2.935000 0.140048 0
2.940000 0.112784 0
2.945000 0.086692 0
2.950000 0.062433 0
2.955000 0.040141 0
2.960000 0.019111 0
2.965000 -0.002556 0
2.970000 -0.028015 0
2.975000 -0.060815 0
2.980000 -0.102628 0
2.985000 -0.150087 0
2.990000 -0.192521 0
2.995000 -0.212506 2
3.000000 -0.189317 0
3.005000 -0.103473 0
3.010000 0.058490 0
3.015000 0.297011 0
3.020000 0.589271 0
3.025000 0.882114 0
3.030000 1.100402 0
3.035000 1.175443 3
3.040000 1.079682 0
3.045000 0.841457 0
3.050000 0.527814 0
3.055000 0.212963 0
3.060000 -0.048143 0
3.065000 -0.227939 0
3.070000 -0.321360 0
3.075000 -0.338844 4
3.080000 -0.301348 0
3.085000 -0.234966 0
3.090000 -0.163717 0
3.095000 -0.103274 0
3.100000 -0.059107 0
3.105000 -0.029186 0
3.110000 -0.008414 0
3.115000 0.008036 0
3.120000 0.023390 0
3.125000 0.039358 0
3.130000 0.056680 0
3.135000 0.075614 0
3.140000 0.096193 0
3.145000 0.118343 0
3.150000 0.141918 0
3.155000 0.166711 0
3.160000 0.192454 0
3.165000 0.218821 0
3.170000 0.245434 0
3.175000 0.271867 0
3.180000 0.297659 0
3.185000 0.322327 0
3.190000 0.345376 0
3.195000 0.366317 0
3.200000 0.384687 0
3.205000 0.400060 0
3.210000 0.412068 0
3.215000 0.420410 0
3.220000 0.424870 0
3.225000 0.425321 5
3.230000 0.421733 0
3.235000 0.414174 0
3.240000 0.402806 0
3.245000 0.387882 0
3.250000 0.369733 0
3.255000 0.348758 0
3.260000 0.325407 0
3.265000 0.300167 0
3.270000 0.273542 0
3.275000 0.246039 0
3.280000 0.218152 0
3.285000 0.190344 0
3.290000 0.163040 0
3.295000 0.136615 0
3.300000 0.111387 0
3.305000 0.087614 0
3.310000 0.065491 0
3.315000 0.045154 0
3.320000 0.026683 0
3.325000 0.010104 0
3.330000 -0.004602 0
3.335000 -0.017493 0
3.340000 -0.028656 0
3.345000 -0.038203 0
3.350000 -0.046263 0
3.355000 -0.052974 0
3.360000 -0.058477 0
3.365000 -0.062915 0
3.370000 -0.066423 0
3.375000 -0.069131 0
3.380000 -0.071158 0
3.385000 -0.072612 0
3.390000 -0.073590 0
3.395000 -0.074177 0
3.400000 -0.074446 0
3.405000 -0.074458 0
3.410000 -0.074267 0
3.415000 -0.073916 0
3.420000 -0.073127 0
3.425000 -0.072268 0
3.430000 -0.071414 0
3.435000 -0.070563 0
3.440000 -0.069717 0
3.445000 -0.068875 0
3.450000 -0.068037 0
3.455000 -0.067203 0
3.460000 -0.066374 0
3.465000 -0.065548 0
3.470000 -0.064727 0
3.475000 -0.063909 0
3.480000 -0.063096 0
3.485000 -0.062287 0
3.490000 -0.061481 0
3.495000 -0.060678 0
3.500000 -0.059877 0
3.505000 -0.059076 0
3.510000 -0.058274 0
3.515000 -0.057465 0
3.520000 -0.056641 0
3.525000 -0.055792 0
3.530000 -0.054896 0
3.535000 -0.053926 0
3.540000 -0.052837 0
3.545000 -0.051566 0
3.550000 -0.050026 0
3.555000 -0.048095 0
3.560000 -0.045615 0
3.565000 -0.042385 0
3.570000 -0.038157 0
3.575000 -0.032643 0
3.580000 -0.025521 0
3.585000 -0.016454 0
3.590000 -0.005115 0
3.595000 0.008773 0
3.600000 0.025399 0
3.605000 0.044815 0
3.610000 0.066889 0
3.615000 0.091271 0
3.620000 0.117371 0
3.625000 0.144361 0
3.630000 0.171204 0
3.635000 0.196706 0
3.640000 0.219607 0
3.645000 0.238674 0
3.650000 0.252813 0
3.655000 0.261175 0
3.660000 0.263233 1
3.665000 0.258843 0
3.670000 0.248257 0
3.675000 0.232097 0
3.680000 0.211299 0
3.685000 0.187018 0
3.690000 0.160523 0
3.695000 0.133087 0
3.700000 0.105883 0
3.705000 0.079875 0
3.710000 0.055699 0
3.715000 0.033470 0
3.720000 0.012479 0
3.725000 -0.009157 0
3.730000 -0.034543 0
3.735000 -0.067180 0
3.740000 -0.108767 0
3.745000 -0.156141 0
3.750000 -0.199033 0
3.755000 -0.220504 2
3.760000 -0.200210 0
3.765000 -0.118792 0
3.770000 0.037544 0
3.775000 0.270475 0
3.780000 0.559755 0
3.785000 0.855661 0
3.790000 1.085345 0
3.795000 1.178829 3
3.800000 1.103150 0
3.805000 0.879854 0
3.810000 0.571802 0
3.815000 0.253146 0
3.820000 -0.018299 0
3.825000 -0.211478 0
3.830000 -0.318470 0
3.835000 -0.347478 4
3.840000 -0.317754 0
3.845000 -0.254640 0
3.850000 -0.182758 0
3.855000 -0.119428 0
3.860000 -0.071917 0
3.865000 -0.039369 0
3.870000 -0.017047 0
3.875000 0.000047 0
3.880000 0.015476 0
3.885000 0.031225 0
3.890000 0.048201 0
3.895000 0.066741 0
3.900000 0.086919 0
3.905000 0.108683 0
3.910000 0.131907 0
3.915000 0.156402 0
3.920000 0.181921 0
3.925000 0.208157 0
3.930000 0.234753 0
3.935000 0.261301 0
3.940000 0.287357 0
3.945000 0.312449 0
3.950000 0.336090 0
3.955000 0.357796 0
3.960000 0.377099 0
3.965000 0.393565 0
3.970000 0.406808 0
3.975000 0.416508 0
3.980000 0.422421 0
3.985000 0.424387 5
3.990000 0.422342 0
3.995000 0.416316 0
4.000000 0.406433 0
4.005000 0.392909 0
4.010000 0.376040 0
4.015000 0.356194 0
4.020000 0.333797 0
4.025000 0.309315 0
4.030000 0.283241 0
4.035000 0.256076 0
4.040000 0.228314 0
4.045000 0.200427 0
4.050000 0.172853 0
4.055000 0.145987 0
4.060000 0.120167 0
4.065000 0.095677 0
4.070000 0.072741 0
4.075000 0.051520 0
4.080000 0.032119 0
4.085000 0.014591 0
4.090000 -0.001061 0
4.095000 -0.014876 0
4.100000 -0.026926 0
4.105000 -0.037308 0
4.110000 -0.046142 0
4.115000 -0.053560 0
4.120000 -0.059700 0
4.125000 -0.064703 0
4.130000 -0.068706 0
4.135000 -0.071842 0
4.140000 -0.074233 0
4.145000 -0.075994 0
4.150000 -0.077226 0
4.155000 -0.078021 0
4.160000 -0.078456 0
4.165000 -0.078600 0
4.170000 -0.078510 0
4.175000 -0.078236 0
4.180000 -0.077749 0
4.185000 -0.076867 0
4.190000 -0.075989 0
4.195000 -0.075116 0
4.200000 -0.074247 0
4.205000 -0.073382 0
4.210000 -0.072522 0
4.215000 -0.071666 0
4.220000 -0.070814 0
4.225000 -0.069966 0
4.230000 -0.069123 0
4.235000 -0.068284 0
4.240000 -0.067449 0
4.245000 -0.066618 0
4.250000 -0.065791 0
4.255000 -0.064967 0
4.260000 -0.064146 0
4.265000 -0.063327 0
4.270000 -0.062509 0
4.275000 -0.061687 0
4.280000 -0.060858 0
4.285000 -0.060012 0
4.290000 -0.059137 0
4.295000 -0.058212 0
4.300000 -0.057205 0
4.305000 -0.056070 0
4.310000 -0.054741 0
4.315000 -0.053126 0
4.320000 -0.051099 0
4.325000 -0.048497 0
4.330000 -0.045115 0
4.335000 -0.040702 0
4.340000 -0.034968 0
4.345000 -0.027592 0
4.350000 -0.018242 0
4.355000 -0.006600 0
4.360000 0.007601 0
4.365000 0.024535 0
4.370000 0.044233 0
4.375000 0.066548 0
4.380000 0.091113 0
4.385000 0.117326 0
4.390000 0.144352 0
4.395000 0.171155 0
4.400000 0.196552 0
4.405000 0.219297 0
4.410000 0.238179 0
4.415000 0.252128 0
4.420000 0.260315 0
4.425000 0.262232 1
4.430000 0.257746 0
4.435000 0.247111 0
4.440000 0.230946 0
4.445000 0.210173 0
4.450000 0.185930 0
4.455000 0.159471 0
4.460000 0.132053 0
4.465000 0.104833 0
4.470000 0.078774 0
4.475000 0.054518 0
4.480000 0.032208 0
4.485000 0.011196 0
4.490000 -0.010296 0
4.495000 -0.035269 0
4.500000 -0.067203 0
4.505000 -0.108031 0
4.510000 -0.155170 0
4.515000 -0.199178 0
4.520000 -0.223897 2
4.525000 -0.209410 0
4.530000 -0.136287 0
4.535000 0.010029 0
4.540000 0.233229 0
4.545000 0.516864 0
4.550000 0.816069 0
4.555000 1.061151 0
4.560000 1.180340 3
4.565000 1.132220 0
4.570000 0.927822 0
4.575000 0.626908 0
4.580000 0.305928 0
4.585000 0.027259 0
4.590000 -0.174185 0
4.595000 -0.288282 0
4.600000 -0.322296 4
4.605000 -0.295344 0
4.610000 -0.233254 0
4.615000 -0.161473 0
4.620000 -0.098059 0
4.625000 -0.050633 0
4.630000 -0.018341 0
4.635000 0.003692 0
4.640000 0.020569 0
4.645000 0.035881 0
4.650000 0.051596 0
4.655000 0.068595 0
4.660000 0.087194 0
4.665000 0.107454 0
4.670000 0.129312 0
4.675000 0.152631 0
4.680000 0.177208 0
4.685000 0.202780 0
4.690000 0.229025 0
4.695000 0.255564 0
4.700000 0.281972 0
4.705000 0.307786 0
4.710000 0.332516 0
4.715000 0.355661 0
4.720000 0.376727 0
4.725000 0.395239 0
4.730000 0.410763 0
4.735000 0.422922 0
4.740000 0.431407 0
4.745000 0.435994 0
4.750000 0.436549 5
4.755000 0.433038 0
4.760000 0.425527 0
4.765000 0.414177 0
4.770000 0.399243 0
4.775000 0.381058 0
4.780000 0.360027 0
4.785000 0.336606 0
4.790000 0.311287 0
4.795000 0.284582 0
4.800000 0.257005 0
4.805000 0.229054 0
4.810000 0.201199 0
4.815000 0.173867 0
4.820000 0.147437 0
4.825000 0.122227 0
4.830000 0.098494 0
4.835000 0.076434 0
4.840000 0.056180 0
4.845000 0.037807 0
4.850000 0.021338 0
4.855000 0.006750 0
4.860000 -0.006018 0
4.865000 -0.017059 0
4.870000 -0.026487 0
4.875000 -0.034435 0
4.880000 -0.041042 0
4.885000 -0.046454 0
4.890000 -0.050812 0
4.895000 -0.054254 0
4.900000 -0.056910 0
4.905000 -0.058899 0
4.910000 -0.060328 0
4.915000 -0.061293 0
4.920000 -0.061878 0
4.925000 -0.062155 0
4.930000 -0.062185 0
4.935000 -0.062020 0
4.940000 -0.061631 0
4.945000 -0.060829 0
4.950000 -0.060031 0
4.955000 -0.059237 0
4.960000 -0.058448 0
4.965000 -0.057662 0
4.970000 -0.056880 0
4.975000 -0.056102 0
4.980000 -0.055328 0
4.985000 -0.054557 0
4.990000 -0.053791 0
4.995000 -0.053028 0
5.000000 -0.052269 0
5.005000 -0.051514 0
5.010000 -0.050762 0
5.015000 -0.050013 0
5.020000 -0.049267 0
5.025000 -0.048522 0
5.030000 -0.047777 0
5.035000 -0.047027 0
5.040000 -0.046269 0
5.045000 -0.045493 0
5.050000 -0.044683 0
5.055000 -0.043819 0
5.060000 -0.042864 0
5.065000 -0.041769 0
5.070000 -0.040460 0
5.075000 -0.038837 0
5.080000 -0.036763 0
5.085000 -0.034061 0
5.090000 -0.030507 0
5.095000 -0.025834 0
5.100000 -0.019734 0
5.105000 -0.011872 0
5.110000 -0.001906 0
5.115000 0.010477 0
5.120000 0.025526 0
5.125000 0.043375 0
5.130000 0.063997 0
5.135000 0.087160 0
5.140000 0.112400 0
5.145000 0.139001 0
5.150000 0.166017 0
5.155000 0.192311 0
5.160000 0.216630 0
5.165000 0.237696 0
5.170000 0.254318 0
5.175000 0.265503 0
5.180000 0.270551 1
5.185000 0.269128 0
5.190000 0.261302 0
5.195000 0.247536 0
5.200000 0.228644 0
5.205000 0.205707 0
5.210000 0.179976 0
5.215000 0.152752 0
5.220000 0.125279 0
5.225000 0.098635 0
5.230000 0.073622 0
5.235000 0.050601 0
5.240000 0.029230 0
5.245000 0.008108 0
5.250000 -0.015469 0
5.255000 -0.045075 0
5.260000 -0.083453 0
5.265000 -0.129566 0
5.270000 -0.175730 0
5.275000 -0.206932 2
5.280000 -0.203277 0
5.285000 -0.144316 0
5.290000 -0.013607 0
5.295000 0.195537 0
5.300000 0.470900 0
5.305000 0.771743 0
5.310000 1.029594 0
5.315000 1.169047 3
5.320000 1.142123 0
5.325000 0.953951 0
5.330000 0.660333 0
5.335000 0.338076 0
5.340000 0.052620 0
5.345000 -0.157799 0
5.350000 -0.280708 0
5.355000 -0.321924 4
5.360000 -0.299722 0
5.365000 -0.239736 0
5.370000 -0.167943 0
5.375000 -0.103380 0
5.380000 -0.054596 0
5.385000 -0.021272 0
5.390000 0.001342 0
5.395000 0.018451 0
5.400000 0.033797 0
5.405000 0.049457 0
5.410000 0.066372 0
5.415000 0.084882 0
5.420000 0.105060 0
5.425000 0.126847 0
5.430000 0.150108 0
5.435000 0.174643 0
5.440000 0.200190 0
5.445000 0.226424 0
5.450000 0.252969 0
5.455000 0.279396 0
5.460000 0.305241 0
5.465000 0.330011 0
5.470000 0.353201 0
5.475000 0.374313 0
5.480000 0.392870 0
5.485000 0.408434 0
5.490000 0.420623 0
5.495000 0.429127 0
5.500000 0.433719 0
5.505000 0.434266 5
5.510000 0.430733 0
5.515000 0.423186 0
5.520000 0.411791 0
5.525000 0.396803 0
5.530000 0.378561 0
5.535000 0.357473 0
5.540000 0.333999 0
5.545000 0.308637 0
5.550000 0.281900 0
5.555000 0.254307 0
5.560000 0.226359 0
5.565000 0.198525 0
5.570000 0.171237 0
5.575000 0.144870 0
5.580000 0.119743 0
5.585000 0.096111 0
5.590000 0.074167 0
5.595000 0.054041 0
5.600000 0.035806 0
5.605000 0.019481 0
5.610000 0.005039 0
5.615000 -0.007582 0
5.620000 -0.018480 0
5.625000 -0.027770 0
5.630000 -0.035588 0
5.635000 -0.042074 0
5.640000 -0.047373 0
5.645000 -0.051630 0
5.650000 -0.054982 0
5.655000 -0.057559 0
5.660000 -0.059478 0
5.665000 -0.060847 0
5.670000 -0.061761 0
5.675000 -0.062303 0
5.680000 -0.062544 0
5.685000 -0.062544 0
5.690000 -0.062354 0
5.695000 -0.061948 0
5.700000 -0.061144 0
5.705000 -0.060345 0
5.710000 -0.059550 0
5.715000 -0.058758 0
5.720000 -0.057971 0
5.725000 -0.057188 0
5.730000 -0.056408 0
5.735000 -0.055632 0
5.740000 -0.054860 0
5.745000 -0.054092 0
5.750000 -0.053328 0
5.755000 -0.052568 0
5.760000 -0.051811 0
5.765000 -0.051057 0
5.770000 -0.050307 0
5.775000 -0.049559 0
5.780000 -0.048812 0
5.785000 -0.048064 0
5.790000 -0.047311 0
5.795000 -0.046548 0
5.800000 -0.045764 0
5.805000 -0.044943 0
5.810000 -0.044060 0
5.815000 -0.043078 0
5.820000 -0.041940 0
5.825000 -0.040568 0
5.830000 -0.038853 0
5.835000 -0.036648 0
5.840000 -0.033764 0
5.845000 -0.029966 0
5.850000 -0.024974 0
5.855000 -0.018470 0
5.860000 -0.010111 0
5.865000 0.000442 0
5.870000 0.013492 0
5.875000 0.029264 0
5.880000 0.047857 0
5.885000 0.069193 0
5.890000 0.092978 0
5.895000 0.118676 0
5.900000 0.145500 0
5.905000 0.172440 0
5.910000 0.198309 0
5.915000 0.221827 0
5.920000 0.241723 0
5.925000 0.256843 0
5.930000 0.266265 0
5.935000 0.269387 1
5.940000 0.265994 0
5.945000 0.256277 0
5.950000 0.240819 0
5.955000 0.220532 0
5.960000 0.196571 0
5.965000 0.170223 0
5.970000 0.142793 0
5.975000 0.115489 0
5.980000 0.089320 0
5.985000 0.064967 0
5.990000 0.042593 0
5.995000 0.021532 0
6.000000 -0.000070 0
6.005000 -0.025338 0
6.010000 -0.057851 0
6.015000 -0.099400 0
6.020000 -0.146814 0
6.025000 -0.189612 0
6.030000 -0.210463 2
6.035000 -0.188598 0
6.040000 -0.104377 0
6.045000 0.055911 0
6.050000 0.293078 0
6.055000 0.584759 0
6.060000 0.878124 0
6.065000 1.097938 0
6.070000 1.174938 3
6.075000 1.081347 0
6.080000 0.845474 0
6.085000 0.532891 0
6.090000 0.216952 0
6.095000 -0.047279 0
6.100000 -0.231535 0
6.105000 -0.329880 0
6.110000 -0.351846 4
6.115000 -0.317522 0
6.120000 -0.252470 0
6.125000 -0.180797 0
6.130000 -0.118835 0
6.135000 -0.072894 0
6.140000 -0.041543 0
6.145000 -0.019899 0
6.150000 -0.003065 0
6.155000 0.012354 0
6.160000 0.028213 0
6.165000 0.045347 0
6.170000 0.064059 0
6.175000 0.084405 0
6.180000 0.106328 0
6.185000 0.129694 0
6.190000 0.154312 0
6.195000 0.179927 0
6.200000 0.206230 0
6.205000 0.232858 0
6.210000 0.259404 0
6.215000 0.285418 0
6.220000 0.310429 0
6.225000 0.333951 0
6.230000 0.355501 0
6.235000 0.374613 0
6.240000 0.390857 0
6.245000 0.403855 0
6.250000 0.413291 0
6.255000 0.418927 0
6.260000 0.420612 5
6.265000 0.418288 0
6.270000 0.411993 0
6.275000 0.401856 0
6.280000 0.388100 0
6.285000 0.371027 0
6.290000 0.351008 0
6.295000 0.328470 0
6.300000 0.303883 0
6.305000 0.277739 0
6.310000 0.250538 0
6.315000 0.222772 0
6.320000 0.194911 0
6.325000 0.167390 0
6.330000 0.140598 0
6.335000 0.114871 0
6.340000 0.090489 0
6.345000 0.067670 0
6.350000 0.046573 0
6.355000 0.027299 0
6.360000 0.009897 0
6.365000 -0.005632 0
6.370000 -0.019328 0
6.375000 -0.031265 0
6.380000 -0.041542 0
6.385000 -0.050280 0
6.390000 -0.057609 0
6.395000 -0.063670 0
6.400000 -0.068601 0
6.405000 -0.072540 0
6.410000 -0.075619 0
6.415000 -0.077960 0
6.420000 -0.079676 0
6.425000 -0.080868 0
6.430000 -0.081627 0
6.435000 -0.082030 0
6.440000 -0.082145 0
6.445000 -0.082029 0
6.450000 -0.081730 0
6.455000 -0.081222 0
6.460000 -0.080322 0
6.465000 -0.079427 0
6.470000 -0.078537 0
6.475000 -0.077651 0
6.480000 -0.076769 0
6.485000 -0.075892 0
6.490000 -0.075019 0
6.495000 -0.074151 0
6.500000 -0.073286 0
6.505000 -0.072426 0
6.510000 -0.071571 0
6.515000 -0.070719 0
6.520000 -0.069872 0
6.525000 -0.069028 0
6.530000 -0.068189 0
6.535000 -0.067352 0
6.540000 -0.066517 0
6.545000 -0.065682 0
6.550000 -0.064845 0
6.555000 -0.063999 0
6.560000 -0.063137 0
6.565000 -0.062246 0
6.570000 -0.061303 0
6.575000 -0.060279 0
6.580000 -0.059126 0
6.585000 -0.057778 0
6.590000 -0.056142 0
6.595000 -0.054092 0
6.600000 -0.051466 0
6.605000 -0.048057 0
6.610000 -0.043614 0
6.615000 -0.037849 0
6.620000 -0.030439 0
6.625000 -0.021053 0
6.630000 -0.009375 0
6.635000 0.004862 0
6.640000 0.021829 0
6.645000 0.041559 0
6.650000 0.063900 0
6.655000 0.088488 0
6.660000 0.114719 0
6.665000 0.141760 0
6.670000 0.168574 0
6.675000 0.193983 0
6.680000 0.216741 0
6.685000 0.235640 0
6.690000 0.249611 0
6.695000 0.257827 0
6.700000 0.259780 1
6.705000 0.255335 0
6.710000 0.244745 0
6.715000 0.228624 0
6.720000 0.207892 0
6.725000 0.183686 0
6.730000 0.157253 0
6.735000 0.129851 0
6.740000 0.102636 0
6.745000 0.076571 0
6.750000 0.052303 0
6.755000 0.029981 0
6.760000 0.008973 0
6.765000 -0.012480 0
6.770000 -0.037354 0
6.775000 -0.069132 0
6.780000 -0.109792 0
6.785000 -0.156864 0
6.790000 -0.201060 0
6.795000 -0.226361 2
6.800000 -0.212921 0
6.805000 -0.141290 0
6.810000 0.003231 0
6.815000 0.224672 0
6.820000 0.507225 0
6.825000 0.806847 0
6.830000 1.054403 0
6.835000 1.177868 3
6.840000 1.135278 0
6.845000 0.936780 0
6.850000 0.639250 0
6.855000 0.317348 0
6.860000 0.033563 0
6.865000 -0.175830 0
6.870000 -0.299026 0
6.875000 -0.341625 4
6.880000 -0.321154 0
6.885000 -0.262326 0
6.890000 -0.190506 0
6.895000 -0.124772 0
6.900000 -0.074247 0
6.905000 -0.039280 0
6.910000 -0.015517 0
6.915000 0.002186 0
6.920000 0.017703 0
6.925000 0.033279 0
6.930000 0.049976 0
6.935000 0.068204 0
6.940000 0.088070 0
6.945000 0.109539 0
6.950000 0.132496 0
6.955000 0.156763 0
6.960000 0.182102 0
6.965000 0.208217 0
6.970000 0.234756 0
6.975000 0.261320 0
6.980000 0.287469 0
6.985000 0.312734 0
6.990000 0.336629 0
6.995000 0.358667 0
7.000000 0.378375 0
7.005000 0.395311 0
7.010000 0.409081 0
7.015000 0.419352 0
7.020000 0.425866 0
7.025000 0.428449 5
7.030000 0.427020 0
7.035000 0.421596 0
7.040000 0.412285 0
7.045000 0.399290 0
7.050000 0.382896 0
7.055000 0.363462 0
7.060000 0.341405 0
7.065000 0.317188 0
7.070000 0.291302 0
7.075000 0.264248 0
7.080000 0.236524 0
7.085000 0.208607 0
7.090000 0.180941 0
7.095000 0.153928 0
7.100000 0.127917 0
7.105000 0.103201 0
7.110000 0.080010 0
7.115000 0.058517 0
7.120000 0.038835 0
7.125000 0.021023 0
7.130000 0.005091 0
7.135000 -0.008994 0
7.140000 -0.021301 0
7.145000 -0.031924 0
7.150000 -0.040980 0
7.155000 -0.048600 0
7.160000 -0.054922 0
7.165000 -0.060087 0
7.170000 -0.064234 0
7.175000 -0.067495 0
7.180000 -0.069996 0
7.185000 -0.071852 0
7.190000 -0.073166 0
7.195000 -0.074030 0
7.200000 -0.074526 0
7.205000 -0.074722 0
7.210000 -0.074678 0
7.215000 -0.074443 0
7.220000 -0.073989 0
7.225000 -0.073125 0
7.230000 -0.072266 0
7.235000 -0.071412 0
7.240000 -0.070561 0
7.245000 -0.069715 0
7.250000 -0.068873 0
7.255000 -0.068035 0
7.260000 -0.067201 0
7.265000 -0.066372 0
7.270000 -0.065546 0
7.275000 -0.064725 0
7.280000 -0.063908 0
7.285000 -0.063094 0
7.290000 -0.062285 0
7.295000 -0.061478 0
7.300000 -0.060675 0
7.305000 -0.059874 0
7.310000 -0.059073 0
7.315000 -0.058270 0
7.320000 -0.057459 0
7.325000 -0.056633 0
7.330000 -0.055779 0
7.335000 -0.054877 0
7.340000 -0.053897 0
7.345000 -0.052794 0
7.350000 -0.051504 0
7.355000 -0.049937 0
7.360000 -0.047972 0
7.365000 -0.045448 0
7.370000 -0.042163 0
7.375000 -0.037872 0
7.380000 -0.032286 0
7.385000 -0.025085 0
7.390000 -0.015938 0
7.395000 -0.004522 0
7.400000 0.009436 0
7.405000 0.026118 0
7.410000 0.045572 0
7.415000 0.067666 0
7.420000 0.092051 0
7.425000 0.118144 0
7.430000 0.145126 0
7.435000 0.171973 0
7.440000 0.197510 0
7.445000 0.220489 0
7.450000 0.239690 0
7.455000 0.254027 0
7.460000 0.262648 0
7.465000 0.265018 1
7.470000 0.260975 0
7.475000 0.250747 0
7.480000 0.234929 0
7.485000 0.214426 0
7.490000 0.190367 0
7.495000 0.164003 0
7.500000 0.136597 0
7.505000 0.109319 0
7.510000 0.083148 0
7.515000 0.058754 0
7.520000 0.036318 0
7.525000 0.015251 0
7.530000 -0.006153 0
7.535000 -0.030835 0
7.540000 -0.062297 0
7.545000 -0.102643 0
7.550000 -0.149622 0
7.555000 -0.194185 0
7.560000 -0.220458 2
7.565000 -0.208584 0
7.570000 -0.138962 0
7.575000 0.003373 0
7.580000 0.222873 0
7.585000 0.504317 0
7.590000 0.804216 0
7.595000 1.053573 0
7.600000 1.179841 3
7.605000 1.139075 0
7.610000 0.939430 0
7.615000 0.640216 0
7.620000 0.318934 0
7.625000 0.039354 0
7.630000 -0.162706 0
7.635000 -0.276817 0
7.640000 -0.310343 4
7.645000 -0.282741 0
7.650000 -0.220249 0
7.655000 -0.148571 0
7.660000 -0.085726 0
7.665000 -0.039076 0
7.670000 -0.007484 0
7.675000 0.014075 0
7.680000 0.030716 0
7.685000 0.045964 0
7.690000 0.061716 0
7.695000 0.078803 0
7.700000 0.097517 0
7.705000 0.117901 0
7.710000 0.139885 0
7.715000 0.163321 0
7.720000 0.187998 0
7.725000 0.213639 0
7.730000 0.239912 0
7.735000 0.266424 0
7.740000 0.292738 0
7.745000 0.318379 0
7.750000 0.342848 0
7.755000 0.365637 0
7.760000 0.386245 0
7.765000 0.404198 0
7.770000 0.419065 0
7.775000 0.430474 0
7.780000 0.438131 0
7.785000 0.441825 5
7.790000 0.441442 0
7.795000 0.436971 0
7.800000 0.428500 0
7.805000 0.416216 0
7.810000 0.400398 0
7.815000 0.381405 0
7.820000 0.359661 0
7.825000 0.335640 0
7.830000 0.309849 0
7.835000 0.282809 0
7.840000 0.255039 0
7.845000 0.227037 0
7.850000 0.199268 0
7.855000 0.172151 0
7.860000 0.146050 0
7.865000 0.121269 0
7.870000 0.098050 0
7.875000 0.076566 0
7.880000 0.056934 0
7.885000 0.039210 0
7.890000 0.023400 0
7.895000 0.009465 0
7.900000 -0.002669 0
7.905000 -0.013106 0
7.910000 -0.021969 0
7.915000 -0.029398 0
7.920000 -0.035535 0
7.925000 -0.040528 0
7.930000 -0.044520 0
7.935000 -0.047646 0
7.940000 -0.050034 0
7.945000 -0.051798 0
7.950000 -0.053045 0
7.955000 -0.053863 0
7.960000 -0.054334 0
7.965000 -0.054525 0
7.970000 -0.054493 0
7.975000 -0.054285 0
7.980000 -0.053601 0
7.985000 -0.052839 0
7.990000 -0.052081 0
7.995000 -0.051327 0
8.000000 -0.050577 0
8.005000 -0.049830 0
8.010000 -0.049087 0
8.015000 -0.048348 0
8.020000 -0.047613 0
8.025000 -0.046881 0
8.030000 -0.046153 0
8.035000 -0.045428 0
8.040000 -0.044707 0
8.045000 -0.043989 0
8.050000 -0.043274 0
8.055000 -0.042562 0
8.060000 -0.041852 0
8.065000 -0.041142 0
8.070000 -0.040429 0
8.075000 -0.039709 0
8.080000 -0.038975 0
8.085000 -0.038213 0
8.090000 -0.037404 0
8.095000 -0.036518 0
8.100000 -0.035509 0
8.105000 -0.034312 0
8.110000 -0.032833 0
8.115000 -0.030947 0
8.120000 -0.028487 0
8.125000 -0.025241 0
8.130000 -0.020950 0
8.135000 -0.015312 0
8.140000 -0.007993 0
8.145000 0.001354 0
8.150000 0.013058 0
8.155000 0.027393 0
8.160000 0.044529 0
8.165000 0.064482 0
8.170000 0.087070 0
8.175000 0.111876 0
8.180000 0.138233 0
8.185000 0.165226 0
8.190000 0.191738 0
8.195000 0.216514 0
8.200000 0.238255 0
8.205000 0.255727 0
8.210000 0.267880 0
8.215000 0.273946 1
8.220000 0.273521 0
8.225000 0.266611 0
8.230000 0.253628 0
8.235000 0.235349 0
8.240000 0.212842 0
8.245000 0.187358 0
8.250000 0.160217 0
8.255000 0.132693 0
8.260000 0.105903 0
8.265000 0.080694 0
8.270000 0.057480 0
8.275000 0.035990 0
8.280000 0.014895 0
8.285000 -0.008456 0
8.290000 -0.037666 0
8.295000 -0.075630 0
8.300000 -0.121550 0
8.305000 -0.167943 0
8.310000 -0.199810 2
8.315000 -0.197054 0
8.320000 -0.138903 0
8.325000 -0.008606 0
8.330000 0.200675 0
8.335000 0.476478 0
8.340000 0.777180 0
8.345000 1.033010 0
8.350000 1.167781 3
8.355000 1.134862 0
8.360000 0.942350 0
8.365000 0.646878 0
8.370000 0.324847 0
8.375000 0.040715 0
8.380000 -0.168145 0
8.385000 -0.289741 0
8.390000 -0.330075 4
8.395000 -0.307418 0
8.400000 -0.247273 0
8.405000 -0.175436 0
8.410000 -0.110806 0
8.415000 -0.061897 0
8.420000 -0.028424 0
8.425000 -0.005682 0
8.430000 0.011512 0
8.435000 0.026900 0
8.440000 0.042572 0
8.445000 0.059481 0
8.450000 0.077976 0
8.455000 0.098132 0
8.460000 0.119896 0
8.465000 0.143134 0
8.470000 0.167650 0
8.475000 0.193186 0
8.480000 0.219424 0
8.485000 0.245991 0
8.490000 0.272465 0
8.495000 0.298384 0
8.500000 0.323261 0
8.505000 0.346596 0
8.510000 0.367892 0
8.515000 0.386673 0
8.520000 0.402500 0
8.525000 0.414991 0
8.530000 0.423830 0
8.535000 0.428786 0
8.540000 0.429717 5
8.545000 0.426581 0
8.550000 0.419434 0
8.555000 0.408431 0
8.560000 0.393818 0
8.565000 0.375924 0
8.570000 0.355147 0
8.575000 0.331940 0
8.580000 0.306793 0
8.585000 0.280216 0
8.590000 0.252725 0
8.595000 0.224820 0
8.600000 0.196972 0
8.605000 0.169615 0
8.610000 0.143130 0
8.615000 0.117841 0
8.620000 0.094010 0
8.625000 0.071839 0
8.630000 0.051465 0
8.635000 0.032967 0
8.640000 0.016374 0
8.645000 0.001666 0
8.650000 -0.011217 0
8.655000 -0.022363 0
8.660000 -0.031888 0
8.665000 -0.039920 0
8.670000 -0.046601 0
8.675000 -0.052074 0
8.680000 -0.056482 0
8.685000 -0.059963 0
8.690000 -0.062649 0
8.695000 -0.064657 0
8.700000 -0.066098 0
8.705000 -0.067068 0
8.710000 -0.067652 0
8.715000 -0.067922 0
8.720000 -0.067941 0
8.725000 -0.067761 0
8.730000 -0.067353 0
8.735000 -0.066522 0
8.740000 -0.065696 0
8.745000 -0.064874 0
8.750000 -0.064056 0
8.755000 -0.063242 0
8.760000 -0.062433 0
8.765000 -0.061627 0
8.770000 -0.060825 0
8.775000 -0.060027 0
8.780000 -0.059234 0
8.785000 -0.058444 0
8.790000 -0.057658 0
8.795000 -0.056876 0
8.800000 -0.056097 0
8.805000 -0.055322 0
8.810000 -0.054549 0
8.815000 -0.053778 0
8.820000 -0.053007 0
8.825000 -0.052232 0
8.830000 -0.051450 0
8.835000 -0.050649 0
8.840000 -0.049818 0
8.845000 -0.048933 0
8.850000 -0.047962 0
8.855000 -0.046855 0
8.860000 -0.045541 0
8.865000 -0.043922 0
8.870000 -0.041863 0
8.875000 -0.039192 0
8.880000 -0.035688 0
8.885000 -0.031087 0
8.890000 -0.025083 0
8.895000 -0.017343 0
8.900000 -0.007525 0
8.905000 0.004688 0
8.910000 0.019551 0
8.915000 0.037210 0
8.920000 0.057650 0
8.925000 0.080658 0
8.930000 0.105786 0
8.935000 0.132338 0
8.940000 0.159383 0
8.945000 0.185797 0
8.950000 0.210332 0
8.955000 0.231708 0
8.960000 0.248723 0
8.965000 0.260366 0
8.970000 0.265912 1
8.975000 0.264997 0
8.980000 0.257658 0
8.985000 0.244332 0
8.990000 0.225808 0
8.995000 0.203152 0
9.000000 0.177605 0
9.005000 0.150469 0
9.010000 0.122996 0
9.015000 0.096281 0
9.020000 0.071150 0
9.025000 0.048005 0
9.030000 0.026567 0
9.035000 0.005523 0
9.040000 -0.017736 0
9.045000 -0.046762 0
9.050000 -0.084450 0
9.055000 -0.130146 0
9.060000 -0.176711 0
9.065000 -0.209615 2
9.070000 -0.209177 0
9.075000 -0.154831 0
9.080000 -0.029677 0
9.085000 0.173939 0
9.090000 0.445531 0
9.095000 0.746584 0
9.100000 1.010167 0
9.105000 1.160263 3
9.110000 1.148206 0
9.115000 0.975382 0
9.120000 0.691151 0
9.125000 0.368424 0
9.130000 0.072969 0
9.135000 -0.153879 0
9.140000 -0.295927 0
9.145000 -0.355490 4
9.150000 -0.347584 0
9.155000 -0.295447 0
9.160000 -0.224624 0
9.165000 -0.155988 0
9.170000 -0.101096 0
9.175000 -0.062210 0
9.180000 -0.035839 0
9.185000 -0.016828 0
9.190000 -0.000909 0
9.195000 0.014568 0
9.200000 0.030932 0
9.205000 0.048735 0
9.210000 0.068151 0
9.215000 0.089179 0
9.220000 0.111729 0
9.225000 0.135645 0
9.230000 0.160711 0
9.235000 0.186653 0
9.240000 0.213145 0
9.245000 0.239809 0
9.250000 0.266224 0
9.255000 0.291936 0
9.260000 0.316471 0
9.265000 0.339347 0
9.270000 0.360089 0
9.275000 0.378250 0
9.280000 0.393418 0
9.285000 0.405239 0
9.290000 0.413425 0
9.295000 0.417770 0
9.300000 0.418154 5
9.305000 0.414551 0
9.310000 0.407027 0
9.315000 0.395742 0
9.320000 0.380940 0
9.325000 0.362944 0
9.330000 0.342140 0
9.335000 0.318965 0
9.340000 0.293891 0
9.345000 0.267411 0
9.350000 0.240018 0
9.355000 0.212196 0
9.360000 0.184400 0
9.365000 0.157051 0
9.370000 0.130520 0
9.375000 0.105127 0
9.380000 0.081132 0
9.385000 0.058738 0
9.390000 0.038086 0
9.395000 0.019266 0
9.400000 0.002312 0
9.405000 -0.012783 0
9.410000 -0.026068 0
9.415000 -0.037622 0
9.420000 -0.047548 0
9.425000 -0.055968 0
9.430000 -0.063014 0
9.435000 -0.068824 0
9.440000 -0.073537 0
9.445000 -0.077288 0
9.450000 -0.080206 0
9.455000 -0.082410 0
9.460000 -0.084010 0
9.465000 -0.085106 0
9.470000 -0.085782 0
9.475000 -0.086117 0
9.480000 -0.086174 0
9.485000 -0.086009 0
9.490000 -0.085668 0
9.495000 -0.085126 0
9.500000 -0.084207 0
9.505000 -0.083292 0
9.510000 -0.082383 0
9.515000 -0.081477 0
9.520000 -0.080577 0
9.525000 -0.079680 0
9.530000 -0.078789 0
9.535000 -0.077901 0
9.540000 -0.077018 0
9.545000 -0.076140 0
9.550000 -0.075266 0
9.555000 -0.074396 0
9.560000 -0.073530 0
9.565000 -0.072668 0
9.570000 -0.071810 0
9.575000 -0.070955 0
9.580000 -0.070102 0
9.585000 -0.069249 0
9.590000 -0.068394 0
9.595000 -0.067530 0
9.600000 -0.066650 0
9.605000 -0.065740 0
9.610000 -0.064779 0
9.615000 -0.063736 0
9.620000 -0.062564 0
9.625000 -0.061198 0
9.630000 -0.059545 0
9.635000 -0.057481 0
9.640000 -0.054845 0
9.645000 -0.051433 0
9.650000 -0.046998 0
9.655000 -0.041254 0
9.660000 -0.033883 0
9.665000 -0.024558 0
9.670000 -0.012962 0
9.675000 0.001169 0
9.680000 0.018011 0
9.685000 0.037603 0
9.690000 0.059809 0
9.695000 0.084279 0
9.700000 0.110432 0
9.705000 0.137457 0
9.710000 0.164343 0
9.715000 0.189930 0
9.720000 0.212987 0
9.725000 0.232311 0
9.730000 0.246827 0
9.735000 0.255685 0
9.740000 0.258349 1
9.745000 0.254642 0
9.750000 0.244770 0
9.755000 0.229303 0
9.760000 0.209118 0
9.765000 0.185318 0
9.770000 0.159129 0
9.775000 0.131801 0
9.780000 0.104502 0
9.785000 0.078218 0
9.790000 0.053649 0
9.795000 0.031038 0
9.800000 0.009910 0
9.805000 -0.011268 0
9.810000 -0.035252 0
9.815000 -0.065508 0
9.820000 -0.104482 0
9.825000 -0.150790 0
9.830000 -0.196640 0
9.835000 -0.227344 2
9.840000 -0.223698 0
9.845000 -0.166008 0
9.850000 -0.038307 0
9.855000 0.166390 0
9.860000 0.437743 0
9.865000 0.738886 0
9.870000 1.005904 0
9.875000 1.165252 0
9.880000 1.165329 3
9.885000 1.001759 0
9.890000 0.721675 0
9.895000 0.399083 0
9.900000 0.101962 0
9.905000 -0.126576 0
9.910000 -0.269500 0
9.915000 -0.329022 4
9.920000 -0.320505 0
9.925000 -0.267759 0
9.930000 -0.196848 0
9.935000 -0.128810 0
9.940000 -0.074979 0
9.945000 -0.037220 0
9.950000 -0.011735 0
9.955000 0.006734 0
9.960000 0.022406 0
9.965000 0.037829 0
9.970000 0.054247 0
9.975000 0.072159 0
9.980000 0.091711 0
9.985000 0.112887 0
9.990000 0.135580 0
9.995000 0.159622 0
10.000000 0.184782 0
10.005000 0.210770 0
10.010000 0.237239 0
10.015000 0.263794 0
10.020000 0.289997 0
10.025000 0.315376 0
10.030000 0.339444 0
10.035000 0.361708 0
10.040000 0.381690 0
10.045000 0.398939 0
10.050000 0.413050 0
10.055000 0.423682 0
10.060000 0.430563 0
10.065000 0.433512 5
10.070000 0.432436 0
10.075000 0.427341 0
10.080000 0.418331 0
10.085000 0.405601 0
10.090000 0.389432 0
10.095000 0.370181 0
10.100000 0.348264 0
10.105000 0.324146 0
10.110000 0.298320 0
10.115000 0.271291 0
10.120000 0.243562 0
10.125000 0.215615 0
10.130000 0.187901 0
10.135000 0.160826 0
10.140000 0.134744 0
10.145000 0.109954 0
10.150000 0.086689 0
10.155000 0.065125 0
10.160000 0.045378 0
10.165000 0.027507 0
10.170000 0.011524 0
10.175000 -0.002604 0
10.180000 -0.014945 0
10.185000 -0.025596 0
10.190000 -0.034675 0
10.195000 -0.042312 0
10.200000 -0.048648 0
10.205000 -0.053825 0
10.210000 -0.057981 0
10.215000 -0.061252 0
10.220000 -0.063762 0
10.225000 -0.065628 0
10.230000 -0.066954 0
10.235000 -0.067832 0
10.240000 -0.068342 0
10.245000 -0.068556 0
10.250000 -0.068530 0
10.255000 -0.068316 0
10.260000 -0.067885 0
10.265000 -0.067052 0
10.270000 -0.066223 0
10.275000 -0.065398 0
10.280000 -0.064578 0
10.285000 -0.063761 0
10.290000 -0.062949 0
10.295000 -0.062141 0
10.300000 -0.061336 0
10.305000 -0.060536 0
10.310000 -0.059740 0
10.315000 -0.058947 0
10.320000 -0.058159 0
10.325000 -0.057374 0
10.330000 -0.056593 0
10.335000 -0.055815 0
10.340000 -0.055040 0
10.345000 -0.054266 0
10.350000 -0.053493 0
10.355000 -0.052716 0
10.360000 -0.051931 0
10.365000 -0.051128 0
10.370000 -0.050295 0
10.375000 -0.049409 0
10.380000 -0.048439 0
10.385000 -0.047336 0
10.390000 -0.046031 0
10.395000 -0.044429 0
10.400000 -0.042401 0
10.405000 -0.039778 0
10.410000 -0.036347 0
10.415000 -0.031852 0
10.420000 -0.025995 0
10.425000 -0.018451 0
10.430000 -0.008882 0
10.435000 0.003027 0
10.440000 0.017537 0
10.445000 0.034808 0
10.450000 0.054849 0
10.455000 0.077483 0
10.460000 0.102304 0
10.465000 0.128669 0
10.470000 0.155698 0
10.475000 0.182317 0
10.480000 0.207314 0
10.485000 0.229428 0
10.490000 0.247454 0
10.495000 0.260347 0
10.500000 0.267325 0
10.505000 0.267945 1
10.510000 0.262149 0
10.515000 0.250272 0
10.520000 0.233009 0
10.525000 0.211345 0
10.530000 0.186466 0
10.535000 0.159647 0
10.540000 0.132145 0
10.545000 0.105092 0
10.550000 0.079396 0
10.555000 0.055602 0
10.560000 0.033689 0
10.565000 0.012739 0
10.570000 -0.009378 0
10.575000 -0.035941 0
10.580000 -0.070301 0
10.585000 -0.113462 0
10.590000 -0.161026 0
10.595000 -0.201367 0
10.600000 -0.216651 2
10.605000 -0.186451 0
10.610000 -0.092135 0
10.615000 0.078431 0
10.620000 0.323747 0
10.625000 0.618683 0
10.630000 0.908552 0
10.635000 1.118886 0
10.640000 1.184009 3
10.645000 1.077602 0
10.650000 0.830408 0
10.655000 0.513526 0
10.660000 0.202553 0
10.665000 -0.048910 0
10.670000 -0.215839 0
10.675000 -0.295765 0
10.680000 -0.301583 4
10.685000 -0.256384 0
10.690000 -0.187314 0
10.695000 -0.117744 0
10.700000 -0.061382 0
10.705000 -0.021566 0
10.710000 0.005070 0
10.715000 0.023967 0
10.720000 0.039670 0
10.725000 0.054969 0
10.730000 0.071232 0
10.735000 0.089007 0
10.740000 0.108452 0
10.745000 0.129553 0
10.750000 0.152201 0
10.755000 0.176218 0
10.760000 0.201362 0
10.765000 0.227329 0
10.770000 0.253755 0
10.775000 0.280225 0
10.780000 0.306278 0
10.785000 0.331425 0
10.790000 0.355156 0
10.795000 0.376962 0
10.800000 0.396350 0
10.805000 0.412861 0
10.810000 0.426089 0
10.815000 0.435694 0
10.820000 0.441421 0
10.825000 0.443106 5
10.830000 0.440682 0
10.835000 0.434190 0
10.840000 0.423767 0
10.845000 0.409651 0
10.850000 0.392163 0
10.855000 0.371700 0
10.860000 0.348716 0
10.865000 0.323708 0
10.870000 0.297195 0
10.875000 0.269702 0
10.880000 0.241742 0
10.885000 0.213801 0
10.890000 0.186322 0
10.895000 0.159700 0
10.900000 0.134268 0
10.905000 0.110298 0
10.910000 0.087997 0
10.915000 0.067508 0
10.920000 0.048914 0
10.925000 0.032242 0
10.930000 0.017473 0
10.935000 0.004547 0
10.940000 -0.006628 0
10.945000 -0.016169 0
10.950000 -0.024210 0
10.955000 -0.030893 0
10.960000 -0.036366 0
10.965000 -0.040774 0
10.970000 -0.044258 0
10.975000 -0.046949 0
10.980000 -0.048969 0
10.985000 -0.050427 0
10.990000 -0.051420 0
10.995000 -0.052033 0
11.000000 -0.052340 0
11.005000 -0.052401 0
11.010000 -0.052268 0
11.015000 -0.051916 0
11.020000 -0.051163 0
11.025000 -0.050413 0
11.030000 -0.049668 0
11.035000 -0.048926 0
11.040000 -0.048187 0
11.045000 -0.047453 0
11.050000 -0.046722 0
11.055000 -0.045994 0
11.060000 -0.045270 0
11.065000 -0.044550 0
11.070000 -0.043834 0
11.075000 -0.043120 0
11.080000 -0.042411 0
11.085000 -0.041704 0
11.090000 -0.041000 0
11.095000 -0.040298 0
11.100000 -0.039597 0
11.105000 -0.038895 0
11.110000 -0.038187 0
11.115000 -0.037467 0
11.120000 -0.036725 0
11.125000 -0.035943 0
11.130000 -0.035094 0
11.135000 -0.034139 0
11.140000 -0.033019 0
11.145000 -0.031649 0
11.150000 -0.029914 0
11.155000 -0.027659 0
11.160000 -0.024686 0
11.165000 -0.020749 0
11.170000 -0.015556 0
11.175000 -0.008778 0
11.180000 -0.000069 0
11.185000 0.010913 0
11.190000 0.024463 0
11.195000 0.040787 0
11.200000 0.059950 0
11.205000 0.081830 0
11.210000 0.106077 0
11.215000 0.132086 0
11.220000 0.159005 0
11.225000 0.185758 0
11.230000 0.211112 0
11.235000 0.233761 0
11.240000 0.252436 0
11.245000 0.266022 0
11.250000 0.273665 0
11.255000 0.274863 1
11.260000 0.269516 0
11.265000 0.257940 0
11.270000 0.240835 0
11.275000 0.219214 0
11.280000 0.194303 0
11.285000 0.167423 0
11.290000 0.139876 0
11.295000 0.112832 0
11.300000 0.087213 0
11.305000 0.063553 0
11.310000 0.041757 0
11.315000 0.020747 0
11.320000 -0.001860 0
11.325000 -0.029574 0
11.330000 -0.065664 0
11.335000 -0.110354 0
11.340000 -0.157623 0
11.345000 -0.193779 0
11.350000 -0.199287 2
11.355000 -0.153016 0
11.360000 -0.036979 0
11.365000 0.158138 0
11.370000 0.424157 0
11.375000 0.724877 0
11.380000 0.994148 0
11.385000 1.154047 3
11.390000 1.149865 0
11.395000 0.980833 0
11.400000 0.697492 0
11.405000 0.374802 0
11.410000 0.080408 0
11.415000 -0.143625 0
11.420000 -0.281377 0
11.425000 -0.335994 4
11.430000 -0.323651 0
11.435000 -0.268730 0
11.440000 -0.197381 0
11.445000 -0.130179 0
11.450000 -0.077714 0
11.455000 -0.041214 0
11.460000 -0.016565 0
11.465000 0.001508 0
11.470000 0.017100 0
11.475000 0.032622 0
11.480000 0.049224 0
11.485000 0.067356 0
11.490000 0.087139 0
11.495000 0.108543 0
11.500000 0.131455 0
11.505000 0.155695 0
11.510000 0.181021 0
11.515000 0.207135 0
11.520000 0.233679 0
11.525000 0.260248 0
11.530000 0.286393 0
11.535000 0.311637 0
11.540000 0.335485 0
11.545000 0.357443 0
11.550000 0.377030 0
11.555000 0.393799 0
11.560000 0.407352 0
11.565000 0.417355 0
11.570000 0.423552 0
11.575000 0.425774 5
11.580000 0.423948 0
11.585000 0.418100 0
11.590000 0.408350 0
11.595000 0.394916 0
11.600000 0.378098 0
11.605000 0.358268 0
11.610000 0.335860 0
11.615000 0.311349 0
11.620000 0.285237 0
11.625000 0.258035 0
11.630000 0.230245 0
11.635000 0.202347 0
11.640000 0.174787 0
11.645000 0.147961 0
11.650000 0.122214 0
11.655000 0.097828 0
11.660000 0.075027 0
11.665000 0.053969 0
11.670000 0.034757 0
11.675000 0.017437 0
11.680000 0.002006 0
11.685000 -0.011578 0
11.690000 -0.023394 0
11.695000 -0.033545 0
11.700000 -0.042154 0
11.705000 -0.049359 0
11.710000 -0.055300 0
11.715000 -0.060120 0
11.720000 -0.063959 0
11.725000 -0.066950 0
11.730000 -0.069216 0
11.735000 -0.070870 0
11.740000 -0.072014 0
11.745000 -0.072737 0
11.750000 -0.073115 0
11.755000 -0.073217 0
11.760000 -0.073097 0
11.765000 -0.072803 0
11.770000 -0.072027 0
11.775000 -0.071174 0
11.780000 -0.070324 0
11.785000 -0.069479 0
11.790000 -0.068638 0
11.795000 -0.067802 0
11.800000 -0.066969 0
11.805000 -0.066141 0
11.810000 -0.065316 0
11.815000 -0.064496 0
11.820000 -0.063680 0
11.825000 -0.062868 0
11.830000 -0.062060 0
11.835000 -0.061256 0
11.840000 -0.060455 0
11.845000 -0.059658 0
11.850000 -0.058862 0
11.855000 -0.058068 0
11.860000 -0.057273 0
11.865000 -0.056473 0
11.870000 -0.055661 0
11.875000 -0.054826 0
11.880000 -0.053952 0
11.885000 -0.053013 0
11.890000 -0.051968 0
11.895000 -0.050762 0
11.900000 -0.049312 0
11.905000 -0.047507 0
11.910000 -0.045198 0
11.915000 -0.042196 0
11.920000 -0.038264 0
11.925000 -0.033122 0
11.930000 -0.026454 0
11.935000 -0.017923 0
11.940000 -0.007195 0
11.945000 0.006025 0
11.950000 0.021954 0
11.955000 0.040682 0
11.960000 0.062126 0
11.965000 0.085992 0
11.970000 0.111745 0
11.975000 0.138608 0
11.980000 0.165584 0
11.985000 0.191504 0
11.990000 0.215109 0
11.995000 0.235143 0
12.000000 0.250466 0
12.005000 0.260160 0
12.010000 0.263620 1
12.015000 0.260613 0
12.020000 0.251306 0
12.025000 0.236252 0
12.030000 0.216329 0
12.035000 0.192660 0
12.040000 0.166508 0
12.045000 0.139160 0
12.050000 0.111822 0
12.055000 0.085514 0
12.060000 0.060953 0
12.065000 0.038374 0
12.070000 0.017249 0
12.075000 -0.004070 0
12.080000 -0.028505 0
12.085000 -0.059624 0
12.090000 -0.099676 0
12.095000 -0.146569 0
12.100000 -0.191291 0
12.105000 -0.217806 2
12.110000 -0.205944 0
12.115000 -0.135779 0
12.120000 0.007841 0
12.125000 0.229178 0
12.130000 0.512098 0
12.135000 0.811362 0
12.140000 1.056113 0
12.145000 1.173348 3
12.150000 1.124008 0
12.155000 0.921182 0
12.160000 0.622092 0
12.165000 0.300418 0
12.170000 0.017378 0
12.175000 -0.191582 0
12.180000 -0.314930 0
12.185000 -0.358157 4
12.190000 -0.338463 0
12.195000 -0.280150 0
12.200000 -0.208310 0
12.205000 -0.142030 0
12.210000 -0.090683 0
12.215000 -0.054919 0
12.220000 -0.030573 0
12.225000 -0.012540 0
12.230000 0.003110 0
12.235000 0.018696 0
12.240000 0.035337 0
12.245000 0.053476 0
12.250000 0.073239 0
12.255000 0.094600 0
12.260000 0.117454 0
12.265000 0.141632 0
12.270000 0.166906 0
12.275000 0.192992 0
12.280000 0.219550 0
12.285000 0.246194 0
12.290000 0.272495 0
12.295000 0.297993 0
12.300000 0.322212 0
12.305000 0.344672 0
12.310000 0.364901 0
12.315000 0.382457 0
12.320000 0.396942 0
12.325000 0.408014 0
12.330000 0.415402 0
12.335000 0.418917 5
12.340000 0.418458 0
12.345000 0.414020 0
12.350000 0.405687 0
12.355000 0.393639 0
12.360000 0.378137 0
12.365000 0.359517 0
12.370000 0.338177 0
12.375000 0.314563 0
12.380000 0.289152 0
12.385000 0.262438 0
12.390000 0.234914 0
12.395000 0.207057 0
12.400000 0.179318 0
12.405000 0.152106 0
12.410000 0.125784 0
12.415000 0.100657 0
12.420000 0.076974 0
12.425000 0.054926 0
12.430000 0.034642 0
12.435000 0.016201 0
12.440000 -0.000372 0
12.445000 -0.015094 0
12.450000 -0.028020 0
12.455000 -0.039235 0
12.460000 -0.048846 0
12.465000 -0.056977 0
12.470000 -0.063763 0
12.475000 -0.069341 0
12.480000 -0.073851 0
12.485000 -0.077425 0
12.490000 -0.080191 0
12.495000 -0.082268 0
12.500000 -0.083761 0
12.505000 -0.084767 0
12.510000 -0.085372 0
12.515000 -0.085648 0
12.520000 -0.085659 0
12.525000 -0.085458 0
12.530000 -0.085089 0
12.535000 -0.084250 0
12.540000 -0.083335 0
12.545000 -0.082425 0
12.550000 -0.081520 0
12.555000 -0.080619 0
12.560000 -0.079723 0
12.565000 -0.078831 0
12.570000 -0.077943 0
12.575000 -0.077060 0
12.580000 -0.076181 0
12.585000 -0.075307 0
12.590000 -0.074437 0
12.595000 -0.073571 0
12.600000 -0.072709 0
12.605000 -0.071852 0
12.610000 -0.070997 0
12.615000 -0.070146 0
12.620000 -0.069297 0
12.625000 -0.068447 0
12.630000 -0.067593 0
12.635000 -0.066730 0
12.640000 -0.065848 0
12.645000 -0.064933 0
12.650000 -0.063962 0
12.655000 -0.062902 0
12.660000 -0.061701 0
12.665000 -0.060290 0
12.670000 -0.058572 0
12.675000 -0.056414 0
12.680000 -0.053649 0
12.685000 -0.050063 0
12.690000 -0.045402 0
12.695000 -0.039373 0
12.700000 -0.031656 0
12.705000 -0.021921 0
12.710000 -0.009861 0
12.715000 0.004776 0
12.720000 0.022143 0
12.725000 0.042248 0
12.730000 0.064917 0
12.735000 0.089756 0
12.740000 0.116140 0
12.745000 0.143219 0
12.750000 0.169948 0
12.755000 0.195148 0
12.760000 0.217586 0
12.765000 0.236075 0
12.770000 0.249577 0
12.775000 0.257296 0
12.780000 0.258759 1
12.785000 0.253863 0
12.790000 0.242885 0
12.795000 0.226456 0
12.800000 0.205502 0
12.805000 0.181157 0
12.810000 0.154659 0
12.815000 0.127249 0
12.820000 0.100068 0
12.825000 0.074058 0
12.830000 0.049849 0
12.835000 0.027573 0
12.840000 0.006585 0
12.845000 -0.014872 0
12.850000 -0.039755 0
12.855000 -0.071510 0
12.860000 -0.112103 0
12.865000 -0.159129 0
12.870000 -0.203481 0
12.875000 -0.229398 2
12.880000 -0.217275 0
12.885000 -0.147794 0
12.890000 -0.006175 0
12.895000 0.212125 0
12.900000 0.492523 0
12.905000 0.792844 0
12.910000 1.045579 0
12.915000 1.178694 3
12.920000 1.146318 0
12.925000 0.954936 0
12.930000 0.660307 0
12.935000 0.338038 0
12.940000 0.052358 0
12.945000 -0.159068 0
12.950000 -0.283743 0
12.955000 -0.327093 4
12.960000 -0.306805 0
12.965000 -0.247926 0
12.970000 -0.176163 0
12.975000 -0.110747 0
12.980000 -0.060734 0
12.985000 -0.026297 0
12.990000 -0.002941 0
12.995000 0.014523 0
13.000000 0.029942 0
13.005000 0.045511 0
13.010000 0.062253 0
13.015000 0.080553 0
13.020000 0.100505 0
13.025000 0.122065 0
13.030000 0.145110 0
13.035000 0.169455 0
13.040000 0.194849 0
13.045000 0.220987 0
13.050000 0.247505 0
13.055000 0.273994 0
13.060000 0.300001 0
13.065000 0.325047 0
13.070000 0.348639 0
13.075000 0.370282 0
13.080000 0.389502 0
13.085000 0.405858 0
13.090000 0.418958 0
13.095000 0.428478 0
13.100000 0.434173 0
13.105000 0.435885 5
13.110000 0.433551 0
13.115000 0.427209 0
13.120000 0.416991 0
13.125000 0.403121 0
13.130000 0.385909 0
13.135000 0.365733 0
13.140000 0.343031 0
13.145000 0.318281 0
13.150000 0.291985 0
13.155000 0.264652 0
13.160000 0.236783 0
13.165000 0.208853 0
13.170000 0.181302 0
13.175000 0.154522 0
13.180000 0.128849 0
13.185000 0.104560 0
13.190000 0.081872 0
13.195000 0.060938 0
13.200000 0.041853 0
13.205000 0.024660 0
13.210000 0.009353 0
13.215000 -0.004115 0
13.220000 -0.015825 0
13.225000 -0.025881 0
13.230000 -0.034409 0
13.235000 -0.041545 0
13.240000 -0.047431 0
13.245000 -0.052208 0
13.250000 -0.056016 0
13.255000 -0.058987 0
13.260000 -0.061243 0
13.265000 -0.062895 0
13.270000 -0.064045 0
13.275000 -0.064780 0
13.280000 -0.065176 0
13.285000 -0.065300 0
13.290000 -0.065206 0
13.295000 -0.064941 0
13.300000 -0.064203 0
13.305000 -0.063388 0
13.310000 -0.062578 0
13.315000 -0.061771 0
13.320000 -0.060969 0
13.325000 -0.060170 0
13.330000 -0.059376 0
13.335000 -0.058585 0
13.340000 -0.057799 0
13.345000 -0.057016 0
13.350000 -0.056237 0
13.355000 -0.055462 0
13.360000 -0.054691 0
13.365000 -0.053924 0
13.370000 -0.053159 0
13.375000 -0.052398 0
13.380000 -0.051639 0
13.385000 -0.050881 0
13.390000 -0.050121 0
13.395000 -0.049356 0
13.400000 -0.048579 0
13.405000 -0.047778 0
13.410000 -0.046937 0
13.415000 -0.046029 0
13.420000 -0.045014 0
13.425000 -0.043834 0
13.430000 -0.042408 0
13.435000 -0.040622 0
13.440000 -0.038327 0
13.445000 -0.035332 0
13.450000 -0.031400 0
13.455000 -0.026249 0
13.460000 -0.019565 0
13.465000 -0.011010 0
13.470000 -0.000252 0
13.475000 0.013002 0
13.480000 0.028967 0
13.485000 0.047727 0
13.490000 0.069197 0
13.495000 0.093076 0
13.500000 0.118827 0
13.505000 0.145669 0
13.510000 0.172604 0
13.515000 0.198464 0
13.520000 0.221991 0
13.525000 0.241934 0
13.530000 0.257158 0
13.535000 0.266751 0
13.540000 0.270112 1
13.545000 0.267014 0
13.550000 0.257627 0
13.555000 0.242505 0
13.560000 0.222525 0
13.565000 0.198812 0
13.570000 0.172623 0
13.575000 0.145243 0
13.580000 0.117875 0
13.585000 0.091536 0
13.590000 0.066942 0
13.595000 0.044328 0
13.600000 0.023171 0
13.605000 0.001831 0
13.610000 -0.022602 0
13.615000 -0.053686 0
13.620000 -0.093689 0
13.625000 -0.140574 0
13.630000 -0.185426 0
13.635000 -0.212313 2
13.640000 -0.201138 0
13.645000 -0.131987 0
13.650000 0.010362 0
13.655000 0.230405 0
13.660000 0.512484 0
13.665000 0.812024 0
13.670000 1.058669 0
13.675000 1.179275 3
13.680000 1.130485 0
13.685000 0.924418 0
13.690000 0.622285 0
13.695000 0.301832 0
13.700000 0.025773 0
13.705000 -0.171471 0
13.710000 -0.280615 0
13.715000 -0.309879 4
13.720000 -0.279360 0
13.725000 -0.215583 0
13.730000 -0.144046 0
13.735000 -0.082169 0
13.740000 -0.036658 0
13.745000 -0.005955 0
13.750000 0.015094 0
13.755000 0.031535 0
13.760000 0.046774 0
13.765000 0.062611 0
13.770000 0.079825 0
13.775000 0.098677 0
13.780000 0.119202 0
13.785000 0.141319 0
13.790000 0.164875 0
13.795000 0.189653 0
13.800000 0.215370 0
13.805000 0.241685 0
13.810000 0.268202 0
13.815000 0.294476 0
13.820000 0.320028 0
13.825000 0.344356 0
13.830000 0.366948 0
13.835000 0.387306 0
13.840000 0.404956 0
13.845000 0.419472 0
13.850000 0.430488 0
13.855000 0.437717 0
13.860000 0.440957 5
13.865000 0.440107 0
13.870000 0.435166 0
13.875000 0.426235 0
13.880000 0.413512 0
13.885000 0.397289 0
13.890000 0.377933 0
13.895000 0.355878 0
13.900000 0.331606 0
13.905000 0.305627 0
13.910000 0.278465 0
13.915000 0.250639 0
13.920000 0.222645 0
13.925000 0.194944 0
13.930000 0.167951 0
13.935000 0.142022 0
13.940000 0.117454 0
13.945000 0.094478 0
13.950000 0.073263 0
13.955000 0.053914 0
13.960000 0.036480 0
13.965000 0.020960 0
13.970000 0.007310 0
13.975000 -0.004551 0
13.980000 -0.014729 0
13.985000 -0.023354 0
13.990000 -0.030563 0
13.995000 -0.036503 0
14.000000 -0.041320 0
14.005000 -0.045157 0
14.010000 -0.048149 0
14.015000 -0.050422 0
14.020000 -0.052090 0
14.025000 -0.053255 0
14.030000 -0.054006 0
14.035000 -0.054422 0
14.040000 -0.054569 0
14.045000 -0.054501 0
14.050000 -0.054266 0
14.055000 -0.053577 0
14.060000 -0.052816 0
14.065000 -0.052058 0
14.070000 -0.051304 0
14.075000 -0.050554 0
14.080000 -0.049807 0
14.085000 -0.049064 0
14.090000 -0.048325 0
14.095000 -0.047590 0
14.100000 -0.046858 0
14.105000 -0.046130 0
14.110000 -0.045405 0
14.115000 -0.044684 0
14.120000 -0.043967 0
14.125000 -0.043252 0
14.130000 -0.042540 0
14.135000 -0.041829 0
14.140000 -0.041118 0
14.145000 -0.040403 0
14.150000 -0.039680 0
14.155000 -0.038940 0
14.160000 -0.038169 0
14.165000 -0.037345 0
14.170000 -0.036435 0
14.175000 -0.035389 0
14.180000 -0.034135 0
14.185000 -0.032573 0
14.190000 -0.030567 0
14.195000 -0.027940 0
14.200000 -0.024467 0
14.205000 -0.019878 0
14.210000 -0.013861 0
14.215000 -0.006075 0
14.220000 0.003827 0
14.225000 0.016166 0
14.230000 0.031196 0
14.235000 0.049051 0
14.240000 0.069704 0
14.245000 0.092913 0
14.250000 0.118197 0
14.255000 0.144819 0
14.260000 0.171803 0
14.265000 0.197985 0
14.270000 0.222081 0
14.275000 0.242796 0
14.280000 0.258929 0
14.285000 0.269492 0
14.290000 0.273808 1
14.295000 0.271582 0
14.300000 0.262932 0
14.305000 0.248381 0
14.310000 0.228798 0
14.315000 0.205319 0
14.320000 0.179232 0
14.325000 0.151858 0
14.330000 0.124443 0
14.335000 0.098043 0
14.340000 0.073400 0
14.345000 0.050763 0
14.350000 0.029586 0
14.355000 0.008156 0
14.360000 -0.016560 0
14.365000 -0.048208 0
14.370000 -0.088930 0
14.375000 -0.136147 0
14.380000 -0.179983 0
14.385000 -0.203416 2
14.390000 -0.185563 0
14.395000 -0.106318 0
14.400000 0.048789 0
14.405000 0.281704 0
14.410000 0.571484 0
14.415000 0.866351 0
14.420000 1.090837 0
14.425000 1.173939 3
14.430000 1.086209 0
14.435000 0.853378 0
14.440000 0.541499 0
14.445000 0.225360 0
14.450000 -0.038771 0
14.455000 -0.222125 0
14.460000 -0.318847 0
14.465000 -0.338892 4
14.470000 -0.302961 0
14.475000 -0.237157 0
14.480000 -0.165763 0
14.485000 -0.104838 0
14.490000 -0.060176 0
14.495000 -0.029907 0
14.500000 -0.008952 0
14.505000 0.007563 0
14.510000 0.022920 0
14.515000 0.038862 0
14.520000 0.056152 0
14.525000 0.075054 0
14.530000 0.095603 0
14.535000 0.117728 0
14.540000 0.141283 0
14.545000 0.166062 0
14.550000 0.191796 0
14.555000 0.218160 0
14.560000 0.244774 0
14.565000 0.271212 0
14.570000 0.297014 0
14.575000 0.321691 0
14.580000 0.344750 0
14.585000 0.365700 0
14.590000 0.384076 0
14.595000 0.399450 0
14.600000 0.411454 0
14.605000 0.419786 0
14.610000 0.424230 0
14.615000 0.424658 5
14.620000 0.421042 0
14.625000 0.413449 0
14.630000 0.402044 0
14.635000 0.387081 0
14.640000 0.368893 0
14.645000 0.347881 0
14.650000 0.324497 0
14.655000 0.299229 0
14.660000 0.272584 0
14.665000 0.245070 0
14.670000 0.217181 0
14.675000 0.189382 0
14.680000 0.162098 0
14.685000 0.135702 0
14.690000 0.110514 0
14.695000 0.086788 0
14.700000 0.064720 0
14.705000 0.044445 0
14.710000 0.026039 0
14.715000 0.009528 0
14.720000 -0.005109 0
14.725000 -0.017930 0
14.730000 -0.029026 0
14.735000 -0.038508 0
14.740000 -0.046507 0
14.745000 -0.053161 0
14.750000 -0.058612 0
14.755000 -0.063002 0
14.760000 -0.066468 0
14.765000 -0.069140 0
14.770000 -0.071135 0
14.775000 -0.072562 0
14.780000 -0.073517 0
14.785000 -0.074084 0
14.790000 -0.074337 0
14.795000 -0.074336 0
14.800000 -0.074135 0
14.805000 -0.073703 0
14.810000 -0.072841 0
14.815000 -0.071983 0
14.820000 -0.071130 0
14.825000 -0.070281 0
14.830000 -0.069436 0
14.835000 -0.068595 0
14.840000 -0.067759 0
14.845000 -0.066926 0
14.850000 -0.066098 0
14.855000 -0.065274 0
14.860000 -0.064454 0
14.865000 -0.063638 0
14.870000 -0.062826 0
14.875000 -0.062018 0
14.880000 -0.061213 0
14.885000 -0.060411 0
14.890000 -0.059612 0
14.895000 -0.058812 0
14.900000 -0.058010 0
14.905000 -0.057201 0
14.910000 -0.056377 0
14.915000 -0.055525 0
14.920000 -0.054624 0
14.925000 -0.053645 0
14.930000 -0.052542 0
14.935000 -0.051250 0
14.940000 -0.049677 0
14.945000 -0.047697 0
14.950000 -0.045149 0
14.955000 -0.041825 0
14.960000 -0.037473 0
14.965000 -0.031799 0
14.970000 -0.024477 0
14.975000 -0.015169 0
14.980000 -0.003552 0
14.985000 0.010646 0
14.990000 0.027600 0
14.995000 0.047343 0
15.000000 0.069718 0
15.005000 0.094346 0
15.010000 0.120606 0
15.015000 0.147639 0
15.020000 0.174380 0
15.025000 0.199621 0
15.030000 0.222095 0
15.035000 0.240576 0
15.040000 0.253995 0
15.045000 0.261537 0
15.050000 0.262724 1
15.055000 0.257464 0
15.060000 0.246063 0
15.065000 0.229195 0
15.070000 0.207832 0
15.075000 0.183157 0
15.080000 0.156449 0
15.085000 0.128979 0
15.090000 0.101897 0
15.095000 0.076131 0
15.100000 0.052257 0
15.105000 0.030286 0
15.110000 0.009350 0
15.115000 -0.012637 0
15.120000 -0.038939 0
15.125000 -0.072961 0
15.130000 -0.115848 0
15.135000 -0.163391 0
15.140000 -0.204103 0
15.145000 -0.220165 2
15.150000 -0.191032 0
15.155000 -0.097877 0
15.160000 0.071663 0
15.165000 0.316318 0
15.170000 0.611078 0
15.175000 0.901110 0
15.180000 1.111522 0
15.185000 1.176230 3
15.190000 1.072236 0
15.195000 0.829623 0
15.200000 0.514945 0
15.205000 0.200592 0
15.210000 -0.060111 0
15.215000 -0.240366 0
15.220000 -0.335137 0
15.225000 -0.354429 4
15.230000 -0.318524 0
15.235000 -0.252887 0
15.240000 -0.181296 0
15.245000 -0.119692 0
15.250000 -0.074099 0
15.255000 -0.042969 0
15.260000 -0.021423 0
15.265000 -0.004614 0
15.270000 0.010810 0
15.275000 0.026682 0
15.280000 0.043826 0
15.285000 0.062541 0
15.290000 0.082885 0
15.295000 0.104800 0
15.300000 0.128156 0
15.305000 0.152761 0
15.310000 0.178364 0
15.315000 0.204660 0
15.320000 0.231290 0
15.325000 0.257848 0
15.330000 0.283891 0
15.335000 0.308951 0
15.340000 0.332545 0
15.345000 0.354193 0
15.350000 0.373433 0
15.355000 0.389834 0
15.360000 0.403018 0
15.365000 0.412668 0
15.370000 0.418542 0
15.375000 0.420487 5
15.380000 0.418437 0
15.385000 0.412423 0
15.390000 0.402569 0
15.395000 0.389089 0
15.400000 0.372276 0
15.405000 0.352494 0
15.410000 0.330164 0
15.415000 0.305748 0
15.420000 0.279734 0
15.425000 0.252619 0
15.430000 0.224892 0
15.435000 0.197024 0
15.440000 0.169451 0
15.445000 0.142563 0
15.450000 0.116702 0
15.455000 0.092152 0
15.460000 0.069136 0
15.465000 0.047819 0
15.470000 0.028311 0
15.475000 0.010664 0
15.480000 -0.005113 0
15.485000 -0.019056 0
15.490000 -0.031234 0
15.495000 -0.041741 0
15.500000 -0.050696 0
15.505000 -0.058226 0
15.510000 -0.064469 0
15.515000 -0.069565 0
15.520000 -0.073650 0
15.525000 -0.076857 0
15.530000 -0.079308 0
15.535000 -0.081118 0
15.540000 -0.082389 0
15.545000 -0.083212 0
15.550000 -0.083667 0
15.555000 -0.083824 0
15.560000 -0.083740 0
15.565000 -0.083465 0
15.570000 -0.082970 0
15.575000 -0.082062 0
15.580000 -0.081159 0
15.585000 -0.080260 0
15.590000 -0.079365 0
15.595000 -0.078475 0
15.600000 -0.077589 0
15.605000 -0.076708 0
15.610000 -0.075831 0
15.615000 -0.074958 0
15.620000 -0.074090 0
15.625000 -0.073226 0
15.630000 -0.072366 0
15.635000 -0.071511 0
15.640000 -0.070659 0
15.645000 -0.069811 0
15.650000 -0.068967 0
15.655000 -0.068124 0
15.660000 -0.067283 0
15.665000 -0.066440 0
15.670000 -0.065590 0
15.675000 -0.064727 0
15.680000 -0.063839 0
15.685000 -0.062907 0
15.690000 -0.061903 0
15.695000 -0.060786 0
15.700000 -0.059497 0
15.705000 -0.057950 0
15.710000 -0.056032 0
15.715000 -0.053593 0
15.720000 -0.050439 0
15.725000 -0.046338 0
15.730000 -0.041011 0
15.735000 -0.034148 0
15.740000 -0.025421 0
15.745000 -0.014506 0
15.750000 -0.001119 0
15.755000 0.014945 0
15.760000 0.033770 0
15.765000 0.055270 0
15.770000 0.079157 0
15.775000 0.104911 0
15.780000 0.131783 0
15.785000 0.158808 0
15.790000 0.184855 0
15.795000 0.208701 0
15.800000 0.229122 0
15.805000 0.244994 0
15.810000 0.255397 0
15.815000 0.259704 1
15.820000 0.257639 0
15.825000 0.249312 0
15.830000 0.235201 0
15.835000 0.216116 0
15.840000 0.193112 0
15.845000 0.167399 0
15.850000 0.140235 0
15.855000 0.112819 0
15.860000 0.086197 0
15.865000 0.061154 0
15.870000 0.038067 0
15.875000 0.016665 0
15.880000 -0.004302 0
15.885000 -0.027314 0
15.890000 -0.055782 0
15.895000 -0.092631 0
15.900000 -0.137655 0
15.905000 -0.184701 0
15.910000 -0.220542 0
15.915000 -0.226636 2
15.920000 -0.182968 0
15.925000 -0.072279 0
15.930000 0.115101 0
15.935000 0.373612 0
15.940000 0.672810 0
15.945000 0.953838 0
15.950000 1.142627 0
15.955000 1.179754 3
15.960000 1.048863 0
15.965000 0.787630 0
15.970000 0.467698 0
15.975000 0.160866 0
15.980000 -0.083780 0
15.985000 -0.244250 0
15.990000 -0.319449 0
15.995000 -0.322575 4
16.000000 -0.276319 0
16.005000 -0.207020 0
16.010000 -0.137281 0
16.015000 -0.080458 0
16.020000 -0.039966 0
16.025000 -0.012683 0
16.030000 0.006660 0
16.035000 0.022577 0
16.040000 0.037912 0
16.045000 0.054099 0
16.050000 0.071734 0
16.055000 0.091003 0
16.060000 0.111910 0
16.065000 0.134361 0
16.070000 0.158195 0
16.075000 0.183190 0
16.080000 0.209063 0
16.085000 0.235474 0
16.090000 0.262033 0
16.095000 0.288303 0
16.100000 0.313816 0
16.105000 0.338083 0
16.110000 0.360609 0
16.115000 0.380908 0
16.120000 0.398524 0
16.125000 0.413043 0
16.130000 0.424112 0
16.135000 0.431450 0
16.140000 0.434861 5
16.145000 0.434244 0
16.150000 0.429591 0
16.155000 0.420996 0
16.160000 0.408646 0
16.165000 0.392813 0
16.170000 0.373850 0
16.175000 0.352170 0
16.180000 0.328235 0
16.185000 0.302539 0
16.190000 0.275590 0
16.195000 0.247894 0
16.200000 0.219938 0
16.205000 0.192178 0
16.210000 0.165028 0
16.215000 0.138847 0
16.220000 0.113940 0
16.225000 0.090546 0
16.230000 0.068848 0
16.235000 0.048965 0
16.240000 0.030960 0
16.245000 0.014849 0
16.250000 0.000600 0
16.255000 -0.011852 0
16.260000 -0.022604 0
16.265000 -0.031772 0
16.270000 -0.039489 0
16.275000 -0.045894 0
16.280000 -0.051129 0
16.285000 -0.055337 0
16.290000 -0.058651 0
16.295000 -0.061199 0
16.300000 -0.063097 0
16.305000 -0.064450 0
16.310000 -0.065351 0
16.315000 -0.065882 0
16.320000 -0.066113 0
16.325000 -0.066104 0
16.330000 -0.065904 0
16.335000 -0.065487 0
16.340000 -0.064666 0
16.345000 -0.063849 0
16.350000 -0.063036 0
16.355000 -0.062228 0
16.360000 -0.061423 0
16.365000 -0.060622 0
16.370000 -0.059825 0
16.375000 -0.059033 0
16.380000 -0.058244 0
16.385000 -0.057459 0
16.390000 -0.056678 0
16.395000 -0.055901 0
16.400000 -0.055127 0
16.405000 -0.054357 0
16.410000 -0.053591 0
16.415000 -0.052827 0
16.420000 -0.052064 0
16.425000 -0.051301 0
16.430000 -0.050535 0
16.435000 -0.049760 0
16.440000 -0.048967 0
16.445000 -0.048142 0
16.450000 -0.047264 0
16.455000 -0.046299 0
16.460000 -0.045197 0
16.465000 -0.043889 0
16.470000 -0.042277 0
16.475000 -0.040228 0
16.480000 -0.037570 0
16.485000 -0.034086 0
16.490000 -0.029517 0
16.495000 -0.023561 0
16.500000 -0.015887 0
16.505000 -0.006158 0
16.510000 0.005941 0
16.515000 0.020666 0
16.520000 0.038165 0
16.525000 0.058436 0
16.530000 0.081279 0
16.535000 0.106267 0
16.540000 0.132729 0
16.545000 0.159761 0
16.550000 0.186266 0
16.555000 0.211016 0
16.560000 0.232744 0
16.565000 0.250250 0
16.570000 0.262510 0
16.575000 0.268770 1
16.580000 0.268628 0
16.585000 0.262074 0
16.590000 0.249488 0
16.595000 0.231609 0
16.600000 0.209460 0
16.605000 0.184249 0
16.610000 0.157262 0
16.615000 0.129752 0
16.620000 0.102833 0
16.625000 0.077375 0
16.630000 0.053863 0
16.635000 0.032166 0
16.640000 0.011200 0
16.645000 -0.011369 0
16.650000 -0.038952 0
16.655000 -0.074742 0
16.660000 -0.119088 0
16.665000 -0.166470 0
16.670000 -0.204029 0
16.675000 -0.213115 2
16.680000 -0.173188 0
16.685000 -0.066267 0
16.690000 0.118086 0
16.695000 0.374930 0
16.700000 0.673820 0
16.705000 0.954844 0
16.710000 1.142203 0
16.715000 1.175447 3
16.720000 1.039033 0
16.725000 0.773229 0
16.730000 0.452239 0
16.735000 0.148729 0
16.740000 -0.089060 0
16.745000 -0.240734 0
16.750000 -0.306893 4
16.755000 -0.302420 0
16.760000 -0.251444 0
16.765000 -0.180893 0
16.770000 -0.112753 0
16.775000 -0.058938 0
16.780000 -0.021424 0
16.785000 0.003730 0
16.790000 0.021935 0
16.795000 0.037469 0
16.800000 0.052868 0
16.805000 0.069341 0
16.810000 0.087360 0
16.815000 0.107050 0
16.820000 0.128381 0
16.825000 0.151235 0
16.830000 0.175427 0
16.835000 0.200709 0
16.840000 0.226769 0
16.845000 0.253241 0
16.850000 0.279705 0
16.855000 0.305700 0
16.860000 0.330734 0
16.865000 0.354301 0
16.870000 0.375896 0
16.875000 0.395030 0
16.880000 0.411252 0
16.885000 0.424164 0
16.890000 0.433435 0
16.895000 0.438820 0
16.900000 0.440162 5
16.905000 0.437407 0
16.910000 0.430602 0
16.915000 0.419893 0
16.920000 0.405522 0
16.925000 0.387816 0
16.930000 0.367174 0
16.935000 0.344051 0
16.940000 0.318944 0
16.945000 0.292371 0
16.950000 0.264852 0
16.955000 0.236896 0
16.960000 0.208985 0
16.965000 0.181558 0
16.970000 0.155004 0
16.975000 0.129652 0
16.980000 0.105768 0
16.985000 0.083557 0
16.990000 0.063157 0
16.995000 0.044648 0
17.000000 0.028057 0
17.005000 0.013363 0
17.010000 0.000505 0
17.015000 -0.010610 0
17.020000 -0.020098 0
17.025000 -0.028093 0
17.030000 -0.034737 0
17.035000 -0.040175 0
17.040000 -0.044554 0
17.045000 -0.048012 0
17.050000 -0.050680 0
17.055000 -0.052680 0
17.060000 -0.054119 0
17.065000 -0.055095 0
17.070000 -0.055692 0
17.075000 -0.055983 0
17.080000 -0.056028 0
17.085000 -0.055879 0
17.090000 -0.055511 0
17.095000 -0.054740 0
17.100000 -0.053973 0
17.105000 -0.053209 0
17.110000 -0.052449 0
17.115000 -0.051693 0
17.120000 -0.050941 0
17.125000 -0.050193 0
17.130000 -0.049448 0
17.135000 -0.048707 0
17.140000 -0.047970 0
17.145000 -0.047236 0
17.150000 -0.046506 0
17.155000 -0.045779 0
17.160000 -0.045056 0
17.165000 -0.044335 0
17.170000 -0.043617 0
17.175000 -0.042900 0
17.180000 -0.042181 0
17.185000 -0.041457 0
17.190000 -0.040723 0
17.195000 -0.039967 0
17.200000 -0.039172 0
17.205000 -0.038315 0
17.210000 -0.037355 0
17.215000 -0.036236 0
17.220000 -0.034876 0
17.225000 -0.033164 0
17.230000 -0.030950 0
17.235000 -0.028040 0
17.240000 -0.024194 0
17.245000 -0.019126 0
17.250000 -0.012514 0
17.255000 -0.004012 0
17.260000 0.006722 0
17.265000 0.019987 0
17.270000 0.036002 0
17.275000 0.054849 0
17.280000 0.076432 0
17.285000 0.100429 0
17.290000 0.126272 0
17.295000 0.153142 0
17.300000 0.179997 0
17.305000 0.205624 0
17.310000 0.228728 0
17.315000 0.248036 0
17.320000 0.262410 0
17.325000 0.270960 0
17.330000 0.273130 1
17.335000 0.268762 0
17.340000 0.258108 0
17.345000 0.241811 0
17.350000 0.220835 0
17.355000 0.196373 0
17.360000 0.169734 0
17.365000 0.142223 0
17.370000 0.115032 0
17.375000 0.089130 0
17.380000 0.065127 0
17.385000 0.043058 0
17.390000 0.022055 0
17.395000 -0.000009 0
17.400000 -0.026481 0
17.405000 -0.060831 0
17.410000 -0.104106 0
17.415000 -0.151699 0
17.420000 -0.191427 0
17.425000 -0.204706 2
17.430000 -0.170458 0
17.435000 -0.069777 0
17.440000 0.108939 0
17.445000 0.362061 0
17.450000 0.660076 0
17.455000 0.942759 0
17.460000 1.132502 0
17.465000 1.166732 3
17.470000 1.031667 0
17.475000 0.767700 0
17.480000 0.447234 0
17.485000 0.141902 0
17.490000 -0.099934 0
17.495000 -0.257060 0
17.500000 -0.329020 0
17.505000 -0.329533 4
17.510000 -0.281670 0
17.515000 -0.211872 0
17.520000 -0.142496 0
17.525000 -0.086448 0
17.530000 -0.046723 0
17.535000 -0.019969 0
17.540000 -0.000885 0
17.545000 0.014978 0
17.550000 0.030378 0
17.555000 0.046688 0
17.560000 0.064469 0
17.565000 0.083893 0
17.570000 0.104954 0
17.575000 0.127553 0
17.580000 0.151524 0
17.585000 0.176639 0
17.590000 0.202610 0
17.595000 0.229090 0
17.600000 0.255685 0
17.605000 0.281952 0
17.610000 0.307420 0
17.615000 0.331595 0
17.620000 0.353980 0
17.625000 0.374091 0
17.630000 0.391471 0
17.635000 0.405711 0
17.640000 0.416462 0
17.645000 0.423450 0
17.650000 0.426488 5
17.655000 0.425483 0
17.660000 0.420440 0
17.665000 0.411461 0
17.670000 0.398745 0
17.675000 0.382576 0
17.680000 0.363314 0
17.685000 0.341381 0
17.690000 0.317246 0
17.695000 0.291407 0
17.700000 0.264376 0
17.705000 0.236659 0
17.710000 0.208742 0
17.715000 0.181077 0
17.720000 0.154074 0
17.725000 0.128087 0
17.730000 0.103412 0
17.735000 0.080283 0
17.740000 0.058872 0
17.745000 0.039292 0
17.750000 0.021601 0
17.755000 0.005804 0
17.760000 -0.008135 0
17.765000 -0.020286 0
17.770000 -0.030751 0
17.775000 -0.039648 0
17.780000 -0.047113 0
17.785000 -0.053287 0
17.790000 -0.058313 0
17.795000 -0.062331 0
17.800000 -0.065476 0
17.805000 -0.067874 0
17.810000 -0.069639 0
17.815000 -0.070875 0
17.820000 -0.071674 0
17.825000 -0.072116 0
17.830000 -0.072269 0
17.835000 -0.072191 0
17.840000 -0.071930 0
17.845000 -0.071462 0
17.850000 -0.070611 0
17.855000 -0.069765 0
17.860000 -0.068922 0
17.865000 -0.068084 0
17.870000 -0.067250 0
17.875000 -0.066421 0
17.880000 -0.065595 0
17.885000 -0.064773 0
17.890000 -0.063956 0
17.895000 -0.063143 0
17.900000 -0.062333 0
17.905000 -0.061528 0
17.910000 -0.060726 0
17.915000 -0.059928 0
17.920000 -0.059134 0
17.925000 -0.058341 0
17.930000 -0.057551 0
17.935000 -0.056759 0
17.940000 -0.055963 0
17.945000 -0.055157 0
17.950000 -0.054330 0
17.955000 -0.053468 0
17.960000 -0.052545 0
17.965000 -0.051525 0
17.970000 -0.050354 0
17.975000 -0.048955 0
17.980000 -0.047222 0
17.985000 -0.045013 0
17.990000 -0.042144 0
17.995000 -0.038387 0
18.000000 -0.033469 0
18.005000 -0.027079 0
18.010000 -0.018880 0
18.015000 -0.008537 0
18.020000 0.004256 0
18.025000 0.019732 0
18.030000 0.038004 0
18.035000 0.059021 0
18.040000 0.082524 0
18.045000 0.108018 0
18.050000 0.134763 0
18.055000 0.161793 0
18.060000 0.187962 0
18.065000 0.212015 0
18.070000 0.232689 0
18.075000 0.248818 0
18.080000 0.259441 0
18.085000 0.263896 1
18.090000 0.261891 0
18.095000 0.253532 0
18.100000 0.239312 0
18.105000 0.220068 0
18.110000 0.196892 0
18.115000 0.171033 0
18.120000 0.143783 0
18.125000 0.116370 0
18.130000 0.089850 0
18.135000 0.064994 0
18.140000 0.042126 0
18.145000 0.020856 0
18.150000 -0.000281 0
18.155000 -0.024033 0
18.160000 -0.053963 0
18.165000 -0.092695 0
18.170000 -0.138969 0
18.175000 -0.184863 0
18.180000 -0.215230 2
18.185000 -0.210222 0
18.190000 -0.149579 0
18.195000 -0.017133 0
18.200000 0.193461 0
18.205000 0.469630 0
18.210000 0.770452 0
18.215000 1.027672 0
18.220000 1.166454 3
18.225000 1.141021 0
18.230000 0.956770 0
18.235000 0.666416 0
18.240000 0.343737 0
18.245000 0.053138 0
18.250000 -0.166243 0
18.255000 -0.300141 0
18.260000 -0.352303 4
18.265000 -0.338838 0
18.270000 -0.283642 0
18.275000 -0.212229 0
18.280000 -0.144737 0
18.285000 -0.091684 0
18.290000 -0.054489 0
18.295000 -0.029263 0
18.300000 -0.010835 0
18.305000 0.004900 0
18.310000 0.020417 0
18.315000 0.036926 0
18.320000 0.054917 0
18.325000 0.074532 0
18.330000 0.095757 0
18.335000 0.118490 0
18.340000 0.142565 0
18.345000 0.167759 0
18.350000 0.193788 0
18.355000 0.220315 0
18.360000 0.246954 0
18.365000 0.273274 0
18.370000 0.298818 0
18.375000 0.323104 0
18.380000 0.345648 0
18.385000 0.365978 0
18.390000 0.383647 0
18.395000 0.398250 0
18.400000 0.409442 0
18.405000 0.416947 0
18.410000 0.420572 5
18.415000 0.420214 0
18.420000 0.415863 0
18.425000 0.407604 0
18.430000 0.395613 0
18.435000 0.380152 0
18.440000 0.361559 0
18.445000 0.340234 0
18.450000 0.316623 0
18.455000 0.291208 0
18.460000 0.264484 0
18.465000 0.236947 0
18.470000 0.209079 0
18.475000 0.181332 0
18.480000 0.154117 0
18.485000 0.127798 0
18.490000 0.102682 0
18.495000 0.079019 0
18.500000 0.056998 0
18.505000 0.036750 0
18.510000 0.018351 0
18.515000 0.001825 0
18.520000 -0.012846 0
18.525000 -0.025718 0
18.530000 -0.036877 0
18.535000 -0.046434 0
18.540000 -0.054512 0
18.545000 -0.061247 0
18.550000 -0.066779 0
18.555000 -0.071247 0
18.560000 -0.074783 0
18.565000 -0.077517 0
18.570000 -0.079566 0
18.575000 -0.081037 0
18.580000 -0.082026 0
18.585000 -0.082618 0
18.590000 -0.082885 0
18.595000 -0.082891 0
18.600000 -0.082688 0
18.605000 -0.082320 0
18.610000 -0.081493 0
18.615000 -0.080593 0
18.620000 -0.079696 0
18.625000 -0.078804 0
18.630000 -0.077917 0
18.635000 -0.077034 0
18.640000 -0.076155 0
18.645000 -0.075281 0
18.650000 -0.074411 0
18.655000 -0.073546 0
18.660000 -0.072685 0
18.665000 -0.071828 0
18.670000 -0.070975 0
18.675000 -0.070126 0
18.680000 -0.069281 0
18.685000 -0.068440 0
18.690000 -0.067601 0
18.695000 -0.066764 0
18.700000 -0.065925 0
18.705000 -0.065083 0
18.710000 -0.064230 0
18.715000 -0.063356 0
18.720000 -0.062445 0
18.725000 -0.061475 0
18.730000 -0.060407 0
18.735000 -0.059189 0
18.740000 -0.057745 0
18.745000 -0.055973 0
18.750000 -0.053735 0
18.755000 -0.050852 0
18.760000 -0.047105 0
18.765000 -0.042228 0
18.770000 -0.035922 0
18.775000 -0.027860 0
18.780000 -0.017713 0
18.785000 -0.005179 0
18.790000 0.009978 0
18.795000 0.027889 0
18.800000 0.048527 0
18.805000 0.071674 0
18.810000 0.096888 0
18.815000 0.123490 0
18.820000 0.150580 0
18.825000 0.177071 0
18.830000 0.201758 0
18.835000 0.223403 0
18.840000 0.240836 0
18.845000 0.253059 0
18.850000 0.259342 1
18.855000 0.259292 0
18.860000 0.252896 0
18.865000 0.240520 0
18.870000 0.222880 0
18.875000 0.200967 0
18.880000 0.175956 0
18.885000 0.149104 0
18.890000 0.121643 0
18.895000 0.094679 0
18.900000 0.069091 0
18.905000 0.045401 0
18.910000 0.023567 0
18.915000 0.002669 0
18.920000 -0.019403 0
18.925000 -0.045878 0
18.930000 -0.080063 0
18.935000 -0.123002 0
18.940000 -0.170519 0
18.945000 -0.211395 0
18.950000 -0.228262 2
18.955000 -0.201047 0
18.960000 -0.111208 0
18.965000 0.053776 0
18.970000 0.293720 0
18.975000 0.586120 0
18.980000 0.879644 0
18.985000 1.101886 0
18.990000 1.185652 3
18.995000 1.100216 0
19.000000 0.869249 0
19.005000 0.558079 0
19.010000 0.241289 0
19.015000 -0.024563 0
19.020000 -0.210226 0
19.025000 -0.309378 0
19.030000 -0.331560 4
19.035000 -0.297118 0
19.040000 -0.231963 0
19.045000 -0.160459 0
19.050000 -0.098971 0
19.055000 -0.053651 0
19.060000 -0.022874 0
19.065000 -0.001638 0
19.070000 0.014965 0
19.075000 0.030286 0
19.080000 0.046129 0
19.085000 0.063291 0
19.090000 0.082053 0
19.095000 0.102460 0
19.100000 0.124446 0
19.105000 0.147871 0
19.110000 0.172532 0
19.115000 0.198167 0
19.120000 0.224455 0
19.125000 0.251023 0
19.130000 0.277450 0
19.135000 0.303279 0
19.140000 0.328028 0
19.145000 0.351203 0
19.150000 0.372317 0
19.155000 0.390903 0
19.160000 0.406532 0
19.165000 0.418830 0
19.170000 0.427491 0
19.175000 0.432290 0
19.180000 0.433093 5
19.185000 0.429859 0
19.190000 0.422646 0
19.195000 0.411609 0
19.200000 0.396990 0
19.205000 0.379112 0
19.210000 0.358368 0
19.215000 0.335203 0
19.220000 0.310099 0
19.225000 0.283560 0
19.230000 0.256090 0
19.235000 0.228185 0
19.240000 0.200313 0
19.245000 0.172901 0
19.250000 0.146329 0
19.255000 0.120921 0
19.260000 0.096941 0
19.265000 0.074592 0
19.270000 0.054015 0
19.275000 0.035296 0
19.280000 0.018467 0
19.285000 0.003514 0
19.290000 -0.009617 0
19.295000 -0.021010 0
19.300000 -0.030774 0
19.305000 -0.039037 0
19.310000 -0.045934 0
19.315000 -0.051607 0
19.320000 -0.056198 0
19.325000 -0.059845 0
19.330000 -0.062676 0
19.335000 -0.064813 0
19.340000 -0.066364 0
19.345000 -0.067428 0
19.350000 -0.068091 0
19.355000 -0.068426 0
19.360000 -0.068499 0
19.365000 -0.068362 0
19.370000 -0.068059 0
19.375000 -0.067302 0
19.380000 -0.066472 0
19.385000 -0.065646 0
19.390000 -0.064825 0
19.395000 -0.064007 0
19.400000 -0.063193 0
19.405000 -0.062384 0
19.410000 -0.061578 0
19.415000 -0.060777 0
19.420000 -0.059979 0
19.425000 -0.059186 0
19.430000 -0.058396 0
19.435000 -0.057610 0
19.440000 -0.056828 0
19.445000 -0.056049 0
19.450000 -0.055274 0
19.455000 -0.054500 0
19.460000 -0.053727 0
19.465000 -0.052953 0
19.470000 -0.052172 0
19.475000 -0.051378 0
19.480000 -0.050561 0
19.485000 -0.049700 0
19.490000 -0.048771 0
19.495000 -0.047730 0
19.500000 -0.046519 0
19.505000 -0.045054 0
19.510000 -0.043220 0
19.515000 -0.040865 0
19.520000 -0.037795 0
19.525000 -0.033771 0
19.530000 -0.028510 0
19.535000 -0.021696 0
19.540000 -0.012993 0
19.545000 -0.002072 0
19.550000 0.011356 0
19.555000 0.027497 0
19.560000 0.046427 0
19.565000 0.068050 0
19.570000 0.092054 0
19.575000 0.117891 0
19.580000 0.144773 0
19.585000 0.171696 0
19.590000 0.197492 0
19.595000 0.220907 0
19.600000 0.240698 0
19.605000 0.255741 0
19.610000 0.265139 0
19.615000 0.268305 1
19.620000 0.265026 0
19.625000 0.255482 0
19.630000 0.240235 0
19.635000 0.220167 0
19.640000 0.196399 0
19.645000 0.170186 0
19.650000 0.142807 0
19.655000 0.115457 0
19.660000 0.089145 0
19.665000 0.064580 0
19.670000 0.041990 0
19.675000 0.020848 0
19.680000 -0.000483 0
19.685000 -0.024905 0
19.690000 -0.055959 0
19.695000 -0.095912 0
19.700000 -0.142761 0
19.705000 -0.187683 0
19.710000 -0.214867 2
19.715000 -0.204330 0
19.720000 -0.136213 0
19.725000 0.004751 0
19.730000 0.223306 0
19.735000 0.504381 0
19.740000 0.804278 0
19.745000 1.053386 0
19.750000 1.178506 3
19.755000 1.135138 0
19.760000 0.933568 0
19.765000 0.633538 0
19.770000 0.312452 0
19.775000 0.033681 0
19.780000 -0.167356 0
19.785000 -0.280496 0
19.790000 -0.313256 4
19.795000 -0.285168 0
19.800000 -0.222468 0
19.805000 -0.150789 0
19.810000 -0.088040 0
19.815000 -0.041494 0
19.820000 -0.009972 0
19.825000 0.011559 0
19.830000 0.028198 0
19.835000 0.043458 0
19.840000 0.059227 0
19.845000 0.076332 0
19.850000 0.095062 0
19.855000 0.115461 0
19.860000 0.137459 0
19.865000 0.160908 0
19.870000 0.185597 0
19.875000 0.211250 0
19.880000 0.237533 0
19.885000 0.264057 0
19.890000 0.290384 0
19.895000 0.316039 0
19.900000 0.340525 0
19.905000 0.363334 0
19.910000 0.383966 0
19.915000 0.401948 0
19.920000 0.416848 0
19.925000 0.428295 0
19.930000 0.435993 0
19.935000 0.439733 5
19.940000 0.439400 0
19.945000 0.434980 0
19.950000 0.426561 0
19.955000 0.414330 0
19.960000 0.398563 0
19.965000 0.379618 0
19.970000 0.357917 0
19.975000 0.333935 0
19.980000 0.308177 0
19.985000 0.281163 0
19.990000 0.253411 0
19.995000 0.225419 0
20.000000 0.197653 0
20.005000 0.170531 0
20.010000 0.144419 0
20.015000 0.119621 0
20.020000 0.096378 0
20.025000 0.074869 0
20.030000 0.055207 0
20.035000 0.037451 0
20.040000 0.021609 0
20.045000 0.007642 0
20.050000 -0.004524 0
20.055000 -0.014990 0
20.060000 -0.023882 0
20.065000 -0.031335 0
20.070000 -0.037494 0
20.075000 -0.042506 0
20.080000 -0.046513 0
20.085000 -0.049652 0
20.090000 -0.052049 0
20.095000 -0.053820 0
20.100000 -0.055071 0
20.105000 -0.055891 0
20.110000 -0.056362 0
20.115000 -0.056551 0
20.120000 -0.056515 0
20.125000 -0.056303 0
20.130000 -0.055609 0
20.135000 -0.054837 0
20.140000 -0.054069 0
20.145000 -0.053305 0
20.150000 -0.052545 0
20.155000 -0.051789 0
20.160000 -0.051036 0
20.165000 -0.050287 0
20.170000 -0.049542 0
20.175000 -0.048800 0
20.180000 -0.048063 0
20.185000 -0.047328 0
20.190000 -0.046598 0
20.195000 -0.045871 0
20.200000 -0.045147 0
20.205000 -0.044425 0
20.210000 -0.043706 0
20.215000 -0.042986 0
20.220000 -0.042265 0
20.225000 -0.041537 0
20.230000 -0.040794 0
20.235000 -0.040025 0
20.240000 -0.039210 0
20.245000 -0.038320 0
20.250000 -0.037310 0
20.255000 -0.036116 0
20.260000 -0.034646 0
20.265000 -0.032777 0
20.270000 -0.030343 0
20.275000 -0.027137 0
20.280000 -0.022901 0
20.285000 -0.017338 0
20.290000 -0.010113 0
20.295000 -0.000881 0
20.300000 0.010689 0
20.305000 0.024874 0
20.310000 0.041852 0
20.315000 0.061650 0
20.320000 0.084098 0
20.325000 0.108795 0
20.330000 0.135088 0
20.335000 0.162080 0
20.340000 0.188666 0
20.345000 0.213597 0
20.350000 0.235575 0
20.355000 0.253363 0
20.360000 0.265895 0
20.365000 0.272383 0
20.370000 0.272400 1
20.375000 0.265922 0
20.380000 0.253335 0
20.385000 0.235392 0
20.390000 0.213144 0
20.395000 0.187832 0
20.400000 0.160771 0
20.405000 0.133242 0
20.410000 0.106375 0
20.415000 0.081038 0
20.420000 0.057685 0
20.425000 0.036106 0
20.430000 0.015064 0
20.435000 -0.007992 0
20.440000 -0.036627 0
20.445000 -0.073878 0
20.450000 -0.119348 0
20.455000 -0.166144 0
20.460000 -0.199821 0
20.465000 -0.200560 2
20.470000 -0.147499 0
20.475000 -0.023406 0
20.480000 0.179636 0
20.485000 0.451154 0
20.490000 0.752148 0
20.495000 1.014723 0
20.500000 1.162028 3
20.505000 1.144320 0
20.510000 0.964359 0
20.515000 0.675157 0
20.520000 0.352517 0
20.525000 0.062730 0
20.530000 -0.154283 0
20.535000 -0.284447 0
20.540000 -0.332269 4
20.545000 -0.314939 0
20.550000 -0.257416 0
20.555000 -0.185737 0
20.560000 -0.119720 0
20.565000 -0.068965 0
20.570000 -0.033953 0
20.575000 -0.010262 0
20.580000 0.007356 0
20.585000 0.022830 0
20.590000 0.038414 0
20.595000 0.055158 0
20.600000 0.073463 0
20.605000 0.093424 0
20.610000 0.115002 0
20.615000 0.138071 0
20.620000 0.162445 0
20.625000 0.187874 0
20.630000 0.214048 0
20.635000 0.240603 0
20.640000 0.267125 0
20.645000 0.293158 0
20.650000 0.318220 0
20.655000 0.341813 0
20.660000 0.363440 0
20.665000 0.382623 0
20.670000 0.398920 0
20.675000 0.411938 0
20.680000 0.421354 0
20.685000 0.426922 0
20.690000 0.428488 5
20.695000 0.425995 0
20.700000 0.419483 0
20.705000 0.409090 0
20.710000 0.395049 0
20.715000 0.377674 0
20.720000 0.357352 0
20.725000 0.334526 0
20.730000 0.309679 0
20.735000 0.283319 0
20.740000 0.255957 0
20.745000 0.228097 0
20.750000 0.200215 0
20.755000 0.172749 0
20.760000 0.146089 0
20.765000 0.120570 0
20.770000 0.096464 0
20.775000 0.073981 0
20.780000 0.053272 0
20.785000 0.034425 0
20.790000 0.017477 0
20.795000 0.002418 0
20.800000 -0.010804 0
20.805000 -0.022273 0
20.810000 -0.032099 0
20.815000 -0.040409 0
20.820000 -0.047342 0
20.825000 -0.053039 0
20.830000 -0.057645 0
20.835000 -0.061298 0
20.840000 -0.064129 0
20.845000 -0.066261 0
20.850000 -0.067805 0
20.855000 -0.068859 0
20.860000 -0.069509 0
20.865000 -0.069833 0
20.870000 -0.069892 0
20.875000 -0.069742 0
20.880000 -0.069428 0
20.885000 -0.068663 0
20.890000 -0.067827 0
20.895000 -0.066994 0
20.900000 -0.066165 0
20.905000 -0.065341 0
20.910000 -0.064521 0
20.915000 -0.063705 0
20.920000 -0.062893 0
20.925000 -0.062085 0
20.930000 -0.061281 0
20.935000 -0.060480 0
20.940000 -0.059684 0
20.945000 -0.058892 0
20.950000 -0.058103 0
20.955000 -0.057318 0
20.960000 -0.056536 0
20.965000 -0.055756 0
20.970000 -0.054976 0
20.975000 -0.054194 0
20.980000 -0.053405 0
20.985000 -0.052602 0
20.990000 -0.051772 0
20.995000 -0.050895 0
21.000000 -0.049943 0
21.005000 -0.048870 0
21.010000 -0.047612 0
21.015000 -0.046079 0
21.020000 -0.044149 0
21.025000 -0.041658 0
21.030000 -0.038402 0
21.035000 -0.034129 0
21.040000 -0.028546 0
21.045000 -0.021325 0
21.050000 -0.012127 0
21.055000 -0.000623 0
21.060000 0.013461 0
21.065000 0.030307 0
21.070000 0.049953 0
21.075000 0.072248 0
21.080000 0.096816 0
21.085000 0.123037 0
21.090000 0.150051 0
21.095000 0.176789 0
21.100000 0.202036 0
21.105000 0.224515 0
21.110000 0.242994 0
21.115000 0.256395 0
21.120000 0.263897 0
21.125000 0.265021 1
21.130000 0.259679 0
21.135000 0.248181 0
21.140000 0.231210 0
21.145000 0.209752 0
21.150000 0.184999 0
21.155000 0.158240 0
21.160000 0.130753 0
21.165000 0.103689 0
21.170000 0.077974 0
21.175000 0.054169 0
21.180000 0.032257 0
21.185000 0.011313 0
21.190000 -0.010826 0
21.195000 -0.037489 0
21.200000 -0.072052 0
21.205000 -0.115434 0
21.210000 -0.162976 0
21.215000 -0.202633 0
21.220000 -0.216143 2
21.225000 -0.182801 0
21.230000 -0.083965 0
21.235000 0.092035 0
21.240000 0.342347 0
21.245000 0.639311 0
21.250000 0.925229 0
21.255000 1.124102 0
21.260000 1.172155 3
21.265000 1.051711 0
21.270000 0.798057 0
21.275000 0.480153 0
21.280000 0.169541 0
21.285000 -0.083088 0
21.290000 -0.253597 0
21.295000 -0.338939 0
21.300000 -0.350568 4
21.305000 -0.309755 0
21.310000 -0.242249 0
21.315000 -0.171242 0
21.320000 -0.111519 0
21.325000 -0.067976 0
21.330000 -0.038395 0
21.335000 -0.017730 0
21.340000 -0.001270 0
21.345000 0.014130 0
21.350000 0.030139 0
21.355000 0.047486 0
21.360000 0.066427 0
21.365000 0.086998 0
21.370000 0.109129 0
21.375000 0.132678 0
21.380000 0.157446 0
21.385000 0.183172 0
21.390000 0.209540 0
21.395000 0.236183 0
21.400000 0.262686 0
21.405000 0.288601 0
21.410000 0.313452 0
21.415000 0.336756 0
21.420000 0.358031 0
21.425000 0.376818 0
21.430000 0.392693 0
21.435000 0.405285 0
21.440000 0.414287 0
21.445000 0.419473 0
21.450000 0.420702 5
21.455000 0.417927 0
21.460000 0.411196 0
21.465000 0.400650 0
21.470000 0.386519 0
21.475000 0.369111 0
21.480000 0.348805 0
21.485000 0.326032 0
21.490000 0.301263 0
21.495000 0.274989 0
21.500000 0.247710 0
21.505000 0.219915 0
21.510000 0.192069 0
21.515000 0.164603 0
21.520000 0.137898 0
21.525000 0.112287 0
21.530000 0.088041 0
21.535000 0.065372 0
21.540000 0.044435 0
21.545000 0.025325 0
21.550000 0.008086 0
21.555000 -0.007285 0
21.560000 -0.020830 0
21.565000 -0.032625 0
21.570000 -0.042773 0
21.575000 -0.051392 0
21.580000 -0.058617 0
21.585000 -0.064584 0
21.590000 -0.069434 0
21.595000 -0.073304 0
21.600000 -0.076323 0
21.605000 -0.078614 0
21.610000 -0.080289 0
21.615000 -0.081447 0
21.620000 -0.082177 0
21.625000 -0.082557 0
21.630000 -0.082653 0
21.635000 -0.082523 0
21.640000 -0.082212 0
21.645000 -0.081694 0
21.650000 -0.080793 0
21.655000 -0.079895 0
21.660000 -0.079002 0
21.665000 -0.078114 0
21.670000 -0.077230 0
21.675000 -0.076350 0
21.680000 -0.075475 0
21.685000 -0.074605 0
21.690000 -0.073738 0
21.695000 -0.072876 0
21.700000 -0.072018 0
21.705000 -0.071164 0
21.710000 -0.070315 0
21.715000 -0.069469 0
21.720000 -0.068627 0
21.725000 -0.067788 0
21.730000 -0.066951 0
21.735000 -0.066114 0
21.740000 -0.065274 0
21.745000 -0.064425 0
21.750000 -0.063561 0
21.755000 -0.062666 0
21.760000 -0.061720 0
21.765000 -0.060691 0
21.770000 -0.059532 0
21.775000 -0.058177 0
21.780000 -0.056531 0
21.785000 -0.054470 0
21.790000 -0.051830 0
21.795000 -0.048404 0
21.800000 -0.043942 0
21.805000 -0.038154 0
21.810000 -0.030721 0
21.815000 -0.021310 0
21.820000 -0.009608 0
21.825000 0.004652 0
21.830000 0.021638 0
21.835000 0.041383 0
21.840000 0.063735 0
21.845000 0.088328 0
21.850000 0.114561 0
21.855000 0.141602 0
21.860000 0.168419 0
21.865000 0.193835 0
21.870000 0.216609 0
21.875000 0.235536 0
21.880000 0.249549 0
21.885000 0.257820 0
21.890000 0.259841 1
21.895000 0.255471 0
21.900000 0.244959 0
21.905000 0.228914 0
21.910000 0.208249 0
21.915000 0.184093 0
21.920000 0.157691 0
21.925000 0.130296 0
21.930000 0.103067 0
21.935000 0.076967 0
21.940000 0.052651 0
21.945000 0.030285 0
21.950000 0.009260 0
21.955000 -0.012142 0
21.960000 -0.036858 0
21.965000 -0.068369 0
21.970000 -0.108740 0
21.975000 -0.155700 0
21.980000 -0.200243 0
21.985000 -0.226596 2
21.990000 -0.215038 0
21.995000 -0.146078 0
22.000000 -0.004773 0
22.005000 0.213505 0
22.010000 0.494057 0
22.015000 0.794276 0
22.020000 1.046023 0
22.025000 1.176871 3
22.030000 1.142528 0
22.035000 0.950066 0
22.040000 0.655156 0
22.045000 0.332896 0
22.050000 0.047051 0
22.055000 -0.164908 0
22.060000 -0.290439 0
22.065000 -0.334785 4
22.070000 -0.315368 0
22.075000 -0.256986 0
22.080000 -0.185229 0
22.085000 -0.119418 0
22.090000 -0.068835 0
22.095000 -0.033871 0
22.100000 -0.010150 0
22.105000 0.007506 0
22.110000 0.022991 0
22.115000 0.038552 0
22.120000 0.055247 0
22.125000 0.073482 0
22.130000 0.093362 0
22.135000 0.114850 0
22.140000 0.137827 0
22.145000 0.162113 0
22.150000 0.187465 0
22.155000 0.213583 0
22.160000 0.240111 0
22.165000 0.266645 0
22.170000 0.292740 0
22.175000 0.317922 0
22.180000 0.341701 0
22.185000 0.363588 0
22.190000 0.383106 0
22.195000 0.399815 0
22.200000 0.413321 0
22.205000 0.423292 0
22.210000 0.429476 0
22.215000 0.431705 5
22.220000 0.429906 0
22.225000 0.424102 0
22.230000 0.414414 0
22.235000 0.401052 0
22.240000 0.384312 0
22.245000 0.364562 0
22.250000 0.342228 0
22.255000 0.317780 0
22.260000 0.291714 0
22.265000 0.264535 0
22.270000 0.236743 0
22.275000 0.208815 0
22.280000 0.181194 0
22.285000 0.154278 0
22.290000 0.128410 0
22.295000 0.103877 0
22.300000 0.080904 0
22.305000 0.059655 0
22.310000 0.040236 0
22.315000 0.022697 0
22.320000 0.007042 0
22.325000 -0.006769 0
22.330000 -0.018808 0
22.335000 -0.029177 0
22.340000 -0.037995 0
22.345000 -0.045396 0
22.350000 -0.051519 0
22.355000 -0.056508 0
22.360000 -0.060499 0
22.365000 -0.063627 0
22.370000 -0.066015 0
22.375000 -0.067776 0
22.380000 -0.069013 0
22.385000 -0.069817 0
22.390000 -0.070266 0
22.395000 -0.070428 0
22.400000 -0.070360 0
22.405000 -0.070110 0
22.410000 -0.069652 0
22.415000 -0.068811 0
22.420000 -0.067973 0
22.425000 -0.067140 0
22.430000 -0.066310 0
22.435000 -0.065485 0
22.440000 -0.064664 0
22.445000 -0.063847 0
22.450000 -0.063035 0
22.455000 -0.062226 0
22.460000 -0.061421 0
22.465000 -0.060620 0
22.470000 -0.059824 0
22.475000 -0.059030 0
22.480000 -0.058241 0
22.485000 -0.057455 0
22.490000 -0.056671 0
22.495000 -0.055889 0
22.500000 -0.055106 0
22.505000 -0.054320 0
22.510000 -0.053524 0
22.515000 -0.052710 0
22.520000 -0.051862 0
22.525000 -0.050958 0
22.530000 -0.049963 0
22.535000 -0.048828 0
22.540000 -0.047479 0
22.545000 -0.045816 0
22.550000 -0.043706 0
22.555000 -0.040974 0
22.560000 -0.037401 0
22.565000 -0.032725 0
22.570000 -0.026644 0
22.575000 -0.018829 0
22.580000 -0.008945 0
22.585000 0.003318 0
22.590000 0.018210 0
22.595000 0.035872 0
22.600000 0.056291 0
22.605000 0.079259 0
22.610000 0.104339 0
22.615000 0.130857 0
22.620000 0.157905 0
22.625000 0.184386 0
22.630000 0.209079 0
22.635000 0.230725 0
22.640000 0.248135 0
22.645000 0.260295 0
22.650000 0.266466 1
22.655000 0.266251 0
22.660000 0.259647 0
22.665000 0.247035 0
22.670000 0.229153 0
22.675000 0.207015 0
22.680000 0.181824 0
22.685000 0.154858 0
22.690000 0.127360 0
22.695000 0.100440 0
22.700000 0.074967 0
22.705000 0.051431 0
22.710000 0.029715 0
22.715000 0.008770 0
22.720000 -0.013691 0
22.725000 -0.041038 0
22.730000 -0.076486 0
22.735000 -0.120541 0
22.740000 -0.167990 0
22.745000 -0.206357 0
22.750000 -0.217297 2
22.755000 -0.180392 0
22.760000 -0.077531 0
22.765000 0.102243 0
22.770000 0.355203 0
22.775000 0.652908 0
22.780000 0.937549 0
22.785000 1.134022 0
22.790000 1.179983 3
22.795000 1.056527 0
22.800000 0.798898 0
22.805000 0.479549 0
22.810000 0.172117 0
22.815000 -0.072855 0
22.820000 -0.232782 0
22.825000 -0.306645 0
22.830000 -0.308119 4
22.835000 -0.260563 0
22.840000 -0.190853 0
22.845000 -0.121691 0
22.850000 -0.066076 0
22.855000 -0.026886 0
22.860000 -0.000606 0
22.865000 0.018155 0
22.870000 0.033849 0
22.875000 0.049188 0
22.880000 0.065504 0
22.885000 0.083327 0
22.890000 0.102812 0
22.895000 0.123944 0
22.900000 0.146614 0
22.905000 0.170647 0
22.910000 0.195803 0
22.915000 0.221783 0
22.920000 0.248227 0
22.925000 0.274726 0
22.930000 0.300825 0
22.935000 0.326039 0
22.940000 0.349866 0
22.945000 0.371801 0
22.950000 0.391355 0
22.955000 0.408071 0
22.960000 0.421543 0
22.965000 0.431432 0
22.970000 0.437478 0
22.975000 0.439510 5
22.980000 0.437457 0
22.985000 0.431349 0
22.990000 0.421313 0
22.995000 0.407576 0
23.000000 0.390448 0
23.005000 0.370313 0
23.010000 0.347618 0
23.015000 0.322849 0
23.020000 0.296518 0
23.025000 0.269146 0
23.030000 0.241242 0
23.035000 0.213292 0
23.040000 0.185742 0
23.045000 0.158989 0
23.050000 0.133374 0
23.055000 0.109175 0
23.060000 0.086607 0
23.065000 0.065822 0
23.070000 0.046912 0
23.075000 0.029914 0
23.080000 0.014817 0
23.085000 0.001567 0
23.090000 -0.009920 0
23.095000 -0.019757 0
23.100000 -0.028072 0
23.105000 -0.035007 0
23.110000 -0.040705 0
23.115000 -0.045312 0
23.120000 -0.048969 0
23.125000 -0.051807 0
23.130000 -0.053950 0
23.135000 -0.055509 0
23.140000 -0.056583 0
23.145000 -0.057260 0
23.150000 -0.057613 0
23.155000 -0.057707 0
23.160000 -0.057596 0
23.165000 -0.057323 0
23.170000 -0.056616 0
23.175000 -0.055840 0
23.180000 -0.055067 0
23.185000 -0.054298 0
23.190000 -0.053533 0
23.195000 -0.052771 0
23.200000 -0.052014 0
23.205000 -0.051260 0
23.210000 -0.050510 0
23.215000 -0.049764 0
23.220000 -0.049021 0
23.225000 -0.048282 0
23.230000 -0.047547 0
23.235000 -0.046814 0
23.240000 -0.046085 0
23.245000 -0.045359 0
23.250000 -0.044634 0
23.255000 -0.043908 0
23.260000 -0.043179 0
23.265000 -0.042442 0
23.270000 -0.041686 0
23.275000 -0.040899 0
23.280000 -0.040057 0
23.285000 -0.039128 0
23.290000 -0.038060 0
23.295000 -0.036781 0
23.300000 -0.035192 0
23.305000 -0.033154 0
23.310000 -0.030491 0
23.315000 -0.026979 0
23.320000 -0.022349 0
23.325000 -0.016289 0
23.330000 -0.008461 0
23.335000 0.001478 0
23.340000 0.013847 0
23.345000 0.028896 0
23.350000 0.046760 0
23.355000 0.067410 0
23.360000 0.090608 0
23.365000 0.115879 0
23.370000 0.142495 0
23.375000 0.169492 0
23.380000 0.195718 0
23.385000 0.219902 0
23.390000 0.240756 0
23.395000 0.257086 0
23.400000 0.267900 0
23.405000 0.272514 1
23.410000 0.270617 0
23.415000 0.262305 0
23.420000 0.248076 0
23.425000 0.228777 0
23.430000 0.205521 0
23.435000 0.179578 0
23.440000 0.152262 0
23.445000 0.124818 0
23.450000 0.098311 0
23.455000 0.073510 0
23.460000 0.050712 0
23.465000 0.029462 0
23.470000 0.008181 0
23.475000 -0.016022 0
23.480000 -0.046778 0
23.485000 -0.086510 0
23.490000 -0.133330 0
23.495000 -0.178316 0
23.500000 -0.205291 2
23.505000 -0.193758 0
23.510000 -0.123420 0
23.515000 0.021117 0
23.520000 0.243982 0
23.525000 0.528161 0
23.530000 0.826651 0
23.535000 1.066687 0
23.540000 1.174797 3
23.545000 1.112601 0
23.550000 0.897624 0
23.555000 0.592271 0
23.560000 0.272779 0
23.565000 -0.000521 0
23.570000 -0.194984 0
23.575000 -0.302159 0
23.580000 -0.330433 4
23.585000 -0.299654 0
23.590000 -0.235886 0
23.595000 -0.164198 0
23.600000 -0.101856 0
23.605000 -0.055685 0
23.610000 -0.024347 0
23.615000 -0.002842 0
23.620000 0.013849 0
23.625000 0.029179 0
23.630000 0.045010 0
23.635000 0.062163 0
23.640000 0.080927 0
23.645000 0.101349 0
23.650000 0.123361 0
23.655000 0.146819 0
23.660000 0.171518 0
23.665000 0.197190 0
23.670000 0.223507 0
23.675000 0.250089 0
23.680000 0.276507 0
23.685000 0.302295 0
23.690000 0.326964 0
23.695000 0.350013 0
23.700000 0.370947 0
23.705000 0.389296 0
23.710000 0.404629 0
23.715000 0.416573 0
23.720000 0.424826 0
23.725000 0.429170 0
23.730000 0.429477 5
23.735000 0.425722 0
23.740000 0.417974 0
23.745000 0.406405 0
23.750000 0.391272 0
23.755000 0.372915 0
23.760000 0.351742 0
23.765000 0.328212 0
23.770000 0.302818 0
23.775000 0.276073 0
23.780000 0.248489 0
23.785000 0.220564 0
23.790000 0.192764 0
23.795000 0.165513 0
23.800000 0.139185 0
23.805000 0.114096 0
23.810000 0.090498 0
23.815000 0.068582 0
23.820000 0.048478 0
23.825000 0.030257 0
23.830000 0.013939 0
23.835000 -0.000502 0
23.840000 -0.013128 0
23.845000 -0.024034 0
23.850000 -0.033336 0
23.855000 -0.041167 0
23.860000 -0.047667 0
23.865000 -0.052980 0
23.870000 -0.057248 0
23.875000 -0.060609 0
23.880000 -0.063192 0
23.885000 -0.065114 0
23.890000 -0.066483 0
23.895000 -0.067394 0
23.900000 -0.067929 0
23.905000 -0.068160 0
23.910000 -0.068148 0
23.915000 -0.067943 0
23.920000 -0.067518 0
23.925000 -0.066686 0
23.930000 -0.065859 0
23.935000 -0.065037 0
23.940000 -0.064218 0
23.945000 -0.063403 0
23.950000 -0.062593 0
23.955000 -0.061786 0
23.960000 -0.060984 0
23.965000 -0.060185 0
23.970000 -0.059391 0
23.975000 -0.058600 0
23.980000 -0.057813 0
23.985000 -0.057030 0
23.990000 -0.056251 0
23.995000 -0.055474 0
24.000000 -0.054701 0
24.005000 -0.053929 0
24.010000 -0.053156 0
24.015000 -0.052380 0
24.020000 -0.051594 0
24.025000 -0.050789 0
24.030000 -0.049951 0
24.035000 -0.049057 0
24.040000 -0.048071 0
24.045000 -0.046941 0
24.050000 -0.045594 0
24.055000 -0.043927 0
24.060000 -0.041802 0
24.065000 -0.039040 0
24.070000 -0.035415 0
24.075000 -0.030659 0
24.080000 -0.024461 0
24.085000 -0.016487 0
24.090000 -0.006395 0
24.095000 0.006127 0
24.100000 0.021321 0
24.105000 0.039317 0
24.110000 0.060079 0
24.115000 0.083367 0
24.120000 0.108705 0
24.125000 0.135368 0
24.130000 0.162401 0
24.135000 0.188663 0
24.140000 0.212896 0
24.145000 0.233827 0
24.150000 0.250270 0
24.155000 0.261244 0
24.160000 0.266062 1
24.165000 0.264406 0
24.170000 0.256360 0
24.175000 0.242401 0
24.180000 0.223355 0
24.185000 0.200311 0
24.190000 0.174523 0
24.195000 0.147290 0
24.200000 0.119851 0
24.205000 0.093277 0
24.210000 0.068355 0
24.215000 0.045426 0
24.220000 0.024118 0
24.225000 0.002985 0
24.230000 -0.020718 0
24.235000 -0.050571 0
24.240000 -0.089240 0
24.245000 -0.135502 0
24.250000 -0.181424 0
24.255000 -0.211786 2
24.260000 -0.206613 0
24.265000 -0.145529 0
24.270000 -0.012315 0
24.275000 0.199266 0
24.280000 0.476234 0
24.285000 0.776905 0
24.290000 1.032216 0
24.295000 1.167125 3
24.300000 1.135968 0
24.305000 0.946686 0
24.310000 0.653634 0
24.315000 0.331173 0
24.320000 0.043193 0
24.325000 -0.172173 0
24.330000 -0.301621 0
24.335000 -0.349680 4
24.340000 -0.333111 0
24.345000 -0.276236 0
24.350000 -0.204581 0
24.355000 -0.137862 0
24.360000 -0.085978 0
24.365000 -0.049841 0
24.370000 -0.025323 0
24.375000 -0.007249 0
24.380000 0.008385 0
24.385000 0.023942 0
24.390000 0.040560 0
24.395000 0.058687 0
24.400000 0.078447 0
24.405000 0.099815 0
24.410000 0.122683 0
24.415000 0.146878 0
24.420000 0.172167 0
24.425000 0.198261 0
24.430000 0.224813 0
24.435000 0.251430 0
24.440000 0.277676 0
24.445000 0.303085 0
24.450000 0.327174 0
24.455000 0.349454 0
24.460000 0.369454 0
24.465000 0.386727 0
24.470000 0.400876 0
24.475000 0.411559 0
24.480000 0.418512 0
24.485000 0.421553 5
24.490000 0.420591 0
24.495000 0.415630 0
24.500000 0.406770 0
24.505000 0.394204 0
24.510000 0.378206 0
24.515000 0.359128 0
24.520000 0.337381 0
24.525000 0.313421 0
24.530000 0.287736 0
24.535000 0.260826 0
24.540000 0.233189 0
24.545000 0.205304 0
24.550000 0.177619 0
24.555000 0.150540 0
24.560000 0.124423 0
24.565000 0.099566 0
24.570000 0.076208 0
24.575000 0.054527 0
24.580000 0.034645 0
24.585000 0.016625 0
24.590000 0.000485 0
24.595000 -0.013805 0
24.600000 -0.026306 0
24.605000 -0.037113 0
24.610000 -0.046338 0
24.615000 -0.054110 0
24.620000 -0.060567 0
24.625000 -0.065850 0
24.630000 -0.070096 0
24.635000 -0.073441 0
24.640000 -0.076009 0
24.645000 -0.077917 0
24.650000 -0.079271 0
24.655000 -0.080163 0
24.660000 -0.080676 0
24.665000 -0.080881 0
24.670000 -0.080837 0
24.675000 -0.080597 0
24.680000 -0.080129 0
24.685000 -0.079235 0
24.690000 -0.078346 0
24.695000 -0.077461 0
24.700000 -0.076580 0
24.705000 -0.075704 0
24.710000 -0.074832 0
24.715000 -0.073964 0
24.720000 -0.073101 0
24.725000 -0.072242 0
24.730000 -0.071387 0
24.735000 -0.070537 0
24.740000 -0.069691 0
24.745000 -0.068848 0
24.750000 -0.068010 0
24.755000 -0.067176 0
24.760000 -0.066344 0
24.765000 -0.065515 0
24.770000 -0.064687 0
24.775000 -0.063857 0
24.780000 -0.063020 0
24.785000 -0.062171 0
24.790000 -0.061296 0
24.795000 -0.060377 0
24.800000 -0.059387 0
24.805000 -0.058283 0
24.810000 -0.057005 0
24.815000 -0.055469 0
24.820000 -0.053559 0
24.825000 -0.051123 0
24.830000 -0.047967 0
24.835000 -0.043852 0
24.840000 -0.038499 0
24.845000 -0.031595 0
24.850000 -0.022806 0
24.855000 -0.011808 0
24.860000 0.001683 0
24.865000 0.017870 0
24.870000 0.036830 0
24.875000 0.058467 0
24.880000 0.082476 0
24.885000 0.108321 0
24.890000 0.135230 0
24.895000 0.162215 0
24.900000 0.188127 0
24.905000 0.211728 0
24.910000 0.231789 0
24.915000 0.247189 0
24.920000 0.257025 0
24.925000 0.260696 1
24.930000 0.257961 0
24.935000 0.248971 0
24.940000 0.234248 0
24.945000 0.214640 0
24.950000 0.191234 0
24.955000 0.165264 0
24.960000 0.137995 0
24.965000 0.110624 0
24.970000 0.084174 0
24.975000 0.059391 0
24.980000 0.036580 0
24.985000 0.015343 0
24.990000 -0.005759 0
24.995000 -0.029415 0
25.000000 -0.059119 0
25.005000 -0.097504 0
25.010000 -0.143527 0
25.015000 -0.189750 0
25.020000 -0.221671 2
25.025000 -0.220006 0
25.030000 -0.164767 0
25.035000 -0.039576 0
25.040000 0.163040 0
25.045000 0.433219 0
25.050000 0.734298 0
25.055000 1.001985 0
25.060000 1.161877 3
25.065000 1.161656 0
25.070000 0.997928 0
25.075000 0.717966 0
25.080000 0.395406 0
25.085000 0.097963 0
25.090000 -0.131291 0
25.095000 -0.275209 0
25.100000 -0.335809 4
25.105000 -0.328223 0
25.110000 -0.276047 0
25.115000 -0.205241 0
25.120000 -0.136916 0
25.125000 -0.082603 0
25.130000 -0.044372 0
25.135000 -0.018543 0
25.140000 0.000120 0
25.145000 0.015871 0
25.150000 0.031302 0
25.155000 0.047693 0
25.160000 0.065561 0
25.165000 0.085063 0
25.170000 0.106186 0
25.175000 0.128830 0
25.180000 0.152830 0
25.185000 0.177959 0
25.190000 0.203932 0
25.195000 0.230408 0
25.200000 0.256996 0
25.205000 0.283262 0
25.210000 0.308740 0
25.215000 0.332946 0
25.220000 0.355389 0
25.225000 0.375591 0
25.230000 0.393102 0
25.235000 0.407514 0
25.240000 0.418481 0
25.245000 0.425729 0
25.250000 0.429066 5
25.255000 0.428393 0
25.260000 0.423708 0
25.265000 0.415102 0
25.270000 0.402763 0
25.275000 0.386961 0
25.280000 0.368043 0
25.285000 0.346419 0
25.290000 0.322547 0
25.295000 0.296914 0
25.300000 0.270023 0
25.305000 0.242375 0
25.310000 0.214453 0
25.315000 0.186709 0
25.320000 0.159555 0
25.325000 0.133349 0
25.330000 0.108395 0
25.335000 0.084936 0
25.340000 0.063152 0
25.345000 0.043168 0
25.350000 0.025051 0
25.355000 0.008818 0
25.360000 -0.005558 0
25.365000 -0.018140 0
25.370000 -0.029019 0
25.375000 -0.038311 0
25.380000 -0.046143 0
25.385000 -0.052655 0
25.390000 -0.057988 0
25.395000 -0.062280 0
25.400000 -0.065667 0
25.405000 -0.068275 0
25.410000 -0.070222 0
25.415000 -0.071612 0
25.420000 -0.072539 0
25.425000 -0.073087 0
25.430000 -0.073327 0
25.435000 -0.073318 0
25.440000 -0.073113 0
25.445000 -0.072680 0
25.450000 -0.071823 0
25.455000 -0.070970 0
25.460000 -0.070122 0
25.465000 -0.069278 0
25.470000 -0.068438 0
25.475000 -0.067602 0
25.480000 -0.066771 0
25.485000 -0.065943 0
25.490000 -0.065120 0
25.495000 -0.064301 0
25.500000 -0.063486 0
25.505000 -0.062675 0
25.510000 -0.061868 0
25.515000 -0.061064 0
25.520000 -0.060264 0
25.525000 -0.059467 0
25.530000 -0.058672 0
25.535000 -0.057878 0
25.540000 -0.057081 0
25.545000 -0.056278 0
25.550000 -0.055460 0
25.555000 -0.054615 0
25.560000 -0.053725 0
25.565000 -0.052760 0
25.570000 -0.051676 0
25.575000 -0.050412 0
25.580000 -0.048879 0
25.585000 -0.046959 0
25.590000 -0.044494 0
25.595000 -0.041285 0
25.600000 -0.037089 0
25.605000 -0.031620 0
25.610000 -0.024560 0
25.615000 -0.015574 0
25.620000 -0.004339 0
25.625000 0.009425 0
25.630000 0.025909 0
25.635000 0.045171 0
25.640000 0.067093 0
25.645000 0.091340 0
25.650000 0.117342 0
25.655000 0.144292 0
25.660000 0.171176 0
25.665000 0.196819 0
25.670000 0.219973 0
25.675000 0.239410 0
25.680000 0.254029 0
25.685000 0.262961 0
25.690000 0.265652 1
25.695000 0.261918 0
25.700000 0.251969 0
25.705000 0.236386 0
25.710000 0.216064 0
25.715000 0.192129 0
25.720000 0.165831 0
25.725000 0.138440 0
25.730000 0.111134 0
25.735000 0.084905 0
25.740000 0.060438 0
25.745000 0.037937 0
25.750000 0.016841 0
25.755000 -0.004521 0
25.760000 -0.029067 0
25.765000 -0.060314 0
25.770000 -0.100445 0
25.775000 -0.147347 0
25.780000 -0.192116 0
25.785000 -0.218956 2
25.790000 -0.207988 0
25.795000 -0.139507 0
25.800000 0.001619 0
25.805000 0.220082 0
25.810000 0.500956 0
25.815000 0.800981 0
25.820000 1.051146 0
25.825000 1.178569 3
25.830000 1.139193 0
25.835000 0.941262 0
25.840000 0.643106 0
25.845000 0.321524 0
25.850000 0.040233 0
25.855000 -0.164530 0
25.860000 -0.281766 0
25.865000 -0.318249 4
25.870000 -0.292858 0
25.875000 -0.231430 0
25.880000 -0.159651 0
25.885000 -0.095924 0
25.890000 -0.048156 0
25.895000 -0.015629 0
25.900000 0.006516 0
25.905000 0.023422 0
25.910000 0.038724 0
25.915000 0.054415 0
25.920000 0.071389 0
25.925000 0.089966 0
25.930000 0.110208 0
25.935000 0.132053 0
25.940000 0.155362 0
25.945000 0.179932 0
25.950000 0.205498 0
25.955000 0.231735 0
25.960000 0.258263 0
25.965000 0.284655 0
25.970000 0.310443 0
25.975000 0.335135 0
25.980000 0.358230 0
25.985000 0.379228 0
25.990000 0.397655 0
25.995000 0.413076 0
26.000000 0.425112 0
26.005000 0.433458 0
26.010000 0.437889 0
26.015000 0.438276 5
26.020000 0.434589 0
26.025000 0.426896 0
26.030000 0.415364 0
26.035000 0.400254 0
26.040000 0.381904 0
26.045000 0.360723 0
26.050000 0.337172 0
26.055000 0.311748 0
26.060000 0.284965 0
26.065000 0.257339 0
26.070000 0.229370 0
26.075000 0.201526 0
26.080000 0.174235 0
26.085000 0.147873 0
26.090000 0.122754 0
26.095000 0.099134 0
26.100000 0.077202 0
26.105000 0.057089 0
26.110000 0.038866 0
26.115000 0.022550 0
26.120000 0.008116 0
26.125000 -0.004501 0
26.130000 -0.015396 0
26.135000 -0.024687 0
26.140000 -0.032508 0
26.145000 -0.039000 0
26.150000 -0.044308 0
26.155000 -0.048575 0
26.160000 -0.051938 0
26.165000 -0.054527 0
26.170000 -0.056460 0
26.175000 -0.057843 0
26.180000 -0.058772 0
26.185000 -0.059329 0
26.190000 -0.059585 0
26.195000 -0.059600 0
26.200000 -0.059426 0
26.205000 -0.059035 0
26.210000 -0.058246 0
26.215000 -0.057461 0
26.220000 -0.056680 0
26.225000 -0.055903 0
26.230000 -0.055130 0
26.235000 -0.054361 0
26.240000 -0.053595 0
26.245000 -0.052833 0
26.250000 -0.052075 0
26.255000 -0.051321 0
26.260000 -0.050571 0
26.265000 -0.049824 0
26.270000 -0.049081 0
26.275000 -0.048341 0
26.280000 -0.047604 0
26.285000 -0.046870 0
26.290000 -0.046136 0
26.295000 -0.045402 0
26.300000 -0.044663 0
26.305000 -0.043913 0
26.310000 -0.043143 0
26.315000 -0.042336 0
26.320000 -0.041469 0
26.325000 -0.040503 0
26.330000 -0.039384 0
26.335000 -0.038034 0
26.340000 -0.036345 0
26.345000 -0.034171 0
26.350000 -0.031327 0
26.355000 -0.027578 0
26.360000 -0.022647 0
26.365000 -0.016217 0
26.370000 -0.007947 0
26.375000 0.002501 0
26.380000 0.015434 0
26.385000 0.031079 0
26.390000 0.049541 0
26.395000 0.070751 0
26.400000 0.094425 0
26.405000 0.120039 0
26.410000 0.146819 0
26.415000 0.173766 0
26.420000 0.199703 0
26.425000 0.223354 0
26.430000 0.243447 0
26.435000 0.258823 0
26.440000 0.268546 0
26.445000 0.271999 1
26.450000 0.268945 0
26.455000 0.259552 0
26.460000 0.244382 0
26.465000 0.224329 0
26.470000 0.200535 0
26.475000 0.174280 0
26.480000 0.146867 0
26.485000 0.119512 0
26.490000 0.093236 0
26.495000 0.068745 0
26.500000 0.046241 0
26.505000 0.025125 0
26.510000 0.003634 0
26.515000 -0.021282 0
26.520000 -0.053216 0
26.525000 -0.094177 0
26.530000 -0.141441 0
26.535000 -0.185087 0
26.540000 -0.208222 2
26.545000 -0.190213 0
26.550000 -0.111223 0
26.555000 0.043068 0
26.560000 0.274775 0
26.565000 0.563716 0
26.570000 0.859502 0
26.575000 1.088004 0
26.580000 1.178278 3
26.585000 1.097402 0
26.590000 0.868466 0
26.595000 0.557628 0
26.600000 0.241004 0
26.605000 -0.023794 0
26.610000 -0.207281 0
26.615000 -0.303474 0
26.620000 -0.322574 4
26.625000 -0.285733 0
26.630000 -0.219505 0
26.635000 -0.148373 0
26.640000 -0.088242 0
26.645000 -0.044547 0
26.650000 -0.015098 0
26.655000 0.005329 0
26.660000 0.021592 0
26.665000 0.036886 0
26.670000 0.052874 0
26.675000 0.070264 0
26.680000 0.089291 0
26.685000 0.109976 0
26.690000 0.132236 0
26.695000 0.155915 0
26.700000 0.180794 0
26.705000 0.206592 0
26.710000 0.232970 0
26.715000 0.259533 0
26.720000 0.285843 0
26.725000 0.311425 0
26.730000 0.335781 0
26.735000 0.358408 0
26.740000 0.378812 0
26.745000 0.396526 0
26.750000 0.411128 0
26.755000 0.422257 0
26.760000 0.429625 0
26.765000 0.433035 5
26.770000 0.432380 0
26.775000 0.427656 0
26.780000 0.418959 0
26.785000 0.406482 0
26.790000 0.390505 0
26.795000 0.371390 0
26.800000 0.349560 0
26.805000 0.325487 0
26.810000 0.299676 0
26.815000 0.272644 0
26.820000 0.244903 0
26.825000 0.216947 0
26.830000 0.189237 0
26.835000 0.162185 0
26.840000 0.136153 0
26.845000 0.111441 0
26.850000 0.088285 0
26.855000 0.066860 0
26.860000 0.047278 0
26.865000 0.029597 0
26.870000 0.013822 0
26.875000 -0.000085 0
26.880000 -0.012197 0
26.885000 -0.022618 0
26.890000 -0.031469 0
26.895000 -0.038887 0
26.900000 -0.045016 0
26.905000 -0.050000 0
26.910000 -0.053981 0
26.915000 -0.057096 0
26.920000 -0.059469 0
26.925000 -0.061217 0
26.930000 -0.062443 0
26.935000 -0.063239 0
26.940000 -0.063683 0
26.945000 -0.063845 0
26.950000 -0.063781 0
26.955000 -0.063540 0
26.960000 -0.062811 0
26.965000 -0.062003 0
26.970000 -0.061200 0
26.975000 -0.060400 0
26.980000 -0.059604 0
26.985000 -0.058813 0
26.990000 -0.058025 0
26.995000 -0.057241 0
27.000000 -0.056461 0
27.005000 -0.055685 0
27.010000 -0.054913 0
27.015000 -0.054145 0
27.020000 -0.053380 0
27.025000 -0.052619 0
27.030000 -0.051862 0
27.035000 -0.051107 0
27.040000 -0.050354 0
27.045000 -0.049602 0
27.050000 -0.048849 0
27.055000 -0.048089 0
27.060000 -0.047316 0
27.065000 -0.046520 0
27.070000 -0.045680 0
27.075000 -0.044770 0
27.080000 -0.043748 0
27.085000 -0.042552 0
27.090000 -0.041097 0
27.095000 -0.039264 0
27.100000 -0.036895 0
27.105000 -0.033791 0
27.110000 -0.029704 0
27.115000 -0.024342 0
27.120000 -0.017381 0
27.125000 -0.008477 0
27.130000 0.002704 0
27.135000 0.016450 0
27.140000 0.032956 0
27.145000 0.052280 0
27.150000 0.074291 0
27.155000 0.098636 0
27.160000 0.124713 0
27.165000 0.151676 0
27.170000 0.178463 0
27.175000 0.203857 0
27.180000 0.226571 0
27.185000 0.245353 0
27.190000 0.259100 0
27.195000 0.266966 0
27.200000 0.268442 1
27.205000 0.263415 0
27.210000 0.252180 0
27.215000 0.235409 0
27.220000 0.214084 0
27.225000 0.189403 0
27.230000 0.162667 0
27.235000 0.135164 0
27.240000 0.108063 0
27.245000 0.082304 0
27.250000 0.058458 0
27.255000 0.036516 0
27.260000 0.015550 0
27.265000 -0.006622 0
27.270000 -0.033364 0
27.275000 -0.068070 0
27.280000 -0.111611 0
27.285000 -0.159156 0
27.290000 -0.198380 0
27.295000 -0.210731 2
27.300000 -0.175310 0
27.305000 -0.073468 0
27.310000 0.106140 0
27.315000 0.359705 0
27.320000 0.657794 0
27.325000 0.940655 0
27.330000 1.131347 0
27.335000 1.167586 3
27.340000 1.034675 0
27.345000 0.772818 0
27.350000 0.452913 0
27.355000 0.145885 0
27.360000 -0.099634 0
27.365000 -0.261643 0
27.370000 -0.338758 0
27.375000 -0.343725 4
27.380000 -0.298740 0
27.385000 -0.229817 0
27.390000 -0.159588 0
27.395000 -0.101762 0
27.400000 -0.060197 0
27.405000 -0.032077 0
27.410000 -0.012225 0
27.415000 0.003930 0
27.420000 0.019327 0
27.425000 0.035484 0
27.430000 0.053043 0
27.435000 0.072218 0
27.440000 0.093024 0
27.445000 0.115378 0
27.450000 0.139128 0
27.455000 0.164063 0
27.460000 0.189910 0
27.465000 0.216343 0
27.470000 0.242982 0
27.475000 0.269403 0
27.480000 0.295147 0
27.485000 0.319734 0
27.490000 0.342675 0
27.495000 0.363489 0
27.500000 0.381717 0
27.505000 0.396942 0
27.510000 0.408803 0
27.515000 0.417007 0
27.520000 0.421342 0
27.525000 0.421687 5
27.530000 0.418016 0
27.535000 0.410397 0
27.540000 0.398994 0
27.545000 0.384057 0
27.550000 0.365916 0
27.555000 0.344964 0
27.560000 0.321648 0
27.565000 0.296448 0
27.570000 0.269864 0
27.575000 0.242398 0
27.580000 0.214537 0
27.585000 0.186741 0
27.590000 0.159434 0
27.595000 0.132986 0
27.600000 0.107715 0
27.605000 0.083880 0
27.610000 0.061677 0
27.615000 0.041245 0
27.620000 0.022665 0
27.625000 0.005966 0
27.630000 -0.008866 0
27.635000 -0.021886 0
27.640000 -0.033178 0
27.645000 -0.042852 0
27.650000 -0.051033 0
27.655000 -0.057857 0
27.660000 -0.063464 0
27.665000 -0.067995 0
27.670000 -0.071585 0
27.675000 -0.074363 0
27.680000 -0.076448 0
27.685000 -0.077950 0
27.690000 -0.078966 0
27.695000 -0.079580 0
27.700000 -0.079867 0
27.705000 -0.079890 0
27.710000 -0.079703 0
27.715000 -0.079351 0
27.720000 -0.078539 0
27.725000 -0.077653 0
27.730000 -0.076771 0
27.735000 -0.075894 0
27.740000 -0.075021 0
27.745000 -0.074152 0
27.750000 -0.073288 0
27.755000 -0.072428 0
27.760000 -0.071573 0
27.765000 -0.070721 0
27.770000 -0.069874 0
27.775000 -0.069031 0
27.780000 -0.068192 0
27.785000 -0.067357 0
27.790000 -0.066526 0
27.795000 -0.065698 0
27.800000 -0.064873 0
27.805000 -0.064049 0
27.810000 -0.063224 0
27.815000 -0.062394 0
27.820000 -0.061552 0
27.825000 -0.060688 0
27.830000 -0.059786 0
27.835000 -0.058819 0
27.840000 -0.057750 0
27.845000 -0.056522 0
27.850000 -0.055057 0
27.855000 -0.053246 0
27.860000 -0.050946 0
27.865000 -0.047972 0
27.870000 -0.044093 0
27.875000 -0.039039 0
27.880000 -0.032501 0
27.885000 -0.024148 0
27.890000 -0.013650 0
27.895000 -0.000710 0
27.900000 0.014897 0
27.905000 0.033278 0
27.910000 0.054376 0
27.915000 0.077932 0
27.920000 0.103456 0
27.925000 0.130220 0
27.930000 0.157275 0
27.935000 0.183496 0
27.940000 0.207651 0
27.945000 0.228496 0
27.950000 0.244879 0
27.955000 0.255844 0
27.960000 0.260723 1
27.965000 0.259202 0
27.970000 0.251359 0
27.975000 0.237648 0
27.980000 0.218866 0
27.985000 0.196067 0
27.990000 0.170467 0
27.995000 0.143339 0
28.000000 0.115902 0
28.005000 0.089223 0
28.010000 0.064107 0
28.015000 0.040954 0
28.020000 0.019512 0
28.025000 -0.001459 0
28.030000 -0.024449 0
28.035000 -0.052903 0
28.040000 -0.089782 0
28.045000 -0.134866 0
28.050000 -0.181875 0
28.055000 -0.217339 0
28.060000 -0.222435 2
28.065000 -0.176937 0
28.070000 -0.063542 0
28.075000 0.127115 0
28.080000 0.388517 0
28.085000 0.688445 0
28.090000 0.966012 0
28.095000 1.146250 0
28.100000 1.171256 3
28.105000 1.029802 0
28.110000 0.763060 0
28.115000 0.442233 0
28.120000 0.137064 0
28.125000 -0.105354 0
28.130000 -0.264157 0
28.135000 -0.338599 0
28.140000 -0.341723 4
28.145000 -0.295777 0
28.150000 -0.226602 0
28.155000 -0.156519 0
28.160000 -0.098947 0
28.165000 -0.057579 0
28.170000 -0.029562 0
28.175000 -0.009750 0
28.180000 0.006389 0
28.185000 0.021773 0
28.190000 0.037910 0
28.195000 0.055442 0
28.200000 0.074581 0
28.205000 0.095347 0
28.210000 0.117657 0
28.215000 0.141362 0
28.220000 0.166253 0
28.225000 0.192062 0
28.230000 0.218465 0
28.235000 0.245088 0
28.240000 0.271511 0
28.245000 0.297280 0
28.250000 0.321919 0
28.255000 0.344942 0
28.260000 0.365870 0
28.265000 0.384247 0
28.270000 0.399657 0
28.275000 0.411735 0
28.280000 0.420186 0
28.285000 0.424795 0
28.290000 0.425435 5
28.295000 0.422071 0
28.300000 0.414764 0
28.305000 0.403669 0
28.310000 0.389028 0
28.315000 0.371159 0
28.320000 0.350451 0
28.325000 0.327340 0
28.330000 0.302301 0
28.335000 0.275830 0
28.340000 0.248424 0
28.345000 0.220570 0
28.350000 0.192730 0
28.355000 0.165328 0
28.360000 0.138739 0
28.365000 0.113286 0
28.370000 0.089233 0
28.375000 0.066784 0
28.380000 0.046083 0
28.385000 0.027220 0
28.390000 0.010231 0
28.395000 -0.004894 0
28.400000 -0.018201 0
28.405000 -0.029772 0
