0.000000 1.143833 3
0.005000 1.051811 0
0.010000 0.817841 0
0.015000 0.506299 0
0.020000 0.189757 0
0.025000 -0.076738 0
0.030000 -0.264420 0
0.035000 -0.366684 0
0.040000 -0.392334 4
0.045000 -0.360750 0
0.050000 -0.297015 0
0.055000 -0.225248 0
0.060000 -0.162272 0
0.065000 -0.115072 0
0.070000 -0.082731 0
0.075000 -0.060570 0
0.080000 -0.043657 0
0.085000 -0.028460 0
0.090000 -0.012994 0
0.095000 0.003663 0
0.100000 0.021865 0
0.105000 0.041702 0
0.110000 0.063139 0
0.115000 0.086069 0
0.120000 0.110323 0
0.125000 0.135676 0
0.130000 0.161845 0
0.135000 0.188494 0
0.140000 0.215236 0
0.145000 0.241646 0
0.150000 0.267267 0
0.155000 0.291624 0
0.160000 0.314237 0
0.165000 0.334636 0
0.170000 0.352381 0
0.175000 0.367071 0
0.180000 0.378364 0
0.185000 0.385987 0
0.190000 0.389749 5
0.195000 0.389546 0
0.200000 0.385367 0
0.205000 0.377297 0
0.210000 0.365507 0
0.215000 0.350256 0
0.220000 0.331876 0
0.225000 0.310762 0
0.230000 0.287355 0
0.235000 0.262130 0
0.240000 0.235580 0
0.245000 0.208196 0
0.250000 0.180455 0
0.255000 0.152808 0
0.260000 0.125666 0
0.265000 0.099392 0
0.270000 0.074296 0
0.275000 0.050628 0
0.280000 0.028581 0
0.285000 0.008289 0
0.290000 -0.010167 0
0.295000 -0.026759 0
0.300000 -0.041502 0
0.305000 -0.054447 0
0.310000 -0.065678 0
0.315000 -0.075300 0
0.320000 -0.083436 0
0.325000 -0.090220 0
0.330000 -0.095789 0
0.335000 -0.100281 0
0.340000 -0.103830 0
0.345000 -0.106564 0
0.350000 -0.108600 0
0.355000 -0.110047 0
0.360000 -0.111000 0
0.365000 -0.111547 0
0.370000 -0.111760 0
0.375000 -0.111704 0
0.380000 -0.111432 0
0.385000 -0.110990 0
0.390000 -0.110353 0
0.395000 -0.109352 0
0.400000 -0.108355 0
0.405000 -0.107364 0
0.410000 -0.106377 0
0.415000 -0.105395 0
0.420000 -0.104419 0
0.425000 -0.103447 0
0.430000 -0.102480 0
0.435000 -0.101518 0
0.440000 -0.100560 0
0.445000 -0.099608 0
0.450000 -0.098660 0
0.455000 -0.097716 0
0.460000 -0.096777 0
0.465000 -0.095843 0
0.470000 -0.094912 0
0.475000 -0.093984 0
0.480000 -0.093058 0
0.485000 -0.092132 0
0.490000 -0.091201 0
0.495000 -0.090259 0
0.500000 -0.089296 0
0.505000 -0.088296 0
0.510000 -0.087234 0
0.515000 -0.086072 0
0.520000 -0.084758 0
0.525000 -0.083215 0
0.530000 -0.081339 0
0.535000 -0.078991 0
0.540000 -0.075993 0
0.545000 -0.072125 0
0.550000 -0.067123 0
0.555000 -0.060689 0
0.560000 -0.052497 0
0.565000 -0.042224 0
0.570000 -0.029571 0
0.575000 -0.014303 0
0.580000 0.003704 0
0.585000 0.024424 0
0.590000 0.047640 0
0.595000 0.072912 0
0.600000 0.099570 0
0.605000 0.126722 0
0.610000 0.153294 0
0.615000 0.178092 0
0.620000 0.199890 0
0.625000 0.217523 0
0.630000 0.229999 0
0.635000 0.236582 0
0.640000 0.236870 1
0.645000 0.230834 0
0.650000 0.218821 0
0.655000 0.201523 0
0.660000 0.179909 0
0.665000 0.155137 0
0.670000 0.128452 0
0.675000 0.101078 0
0.680000 0.074127 0
0.685000 0.048495 0
0.690000 0.024751 0
0.695000 0.002950 0
0.700000 -0.017661 0
0.705000 -0.038963 0
0.710000 -0.064005 0
0.715000 -0.096200 0
0.720000 -0.137256 0
0.725000 -0.184273 0
0.730000 -0.227569 0
0.735000 -0.250974 2
0.740000 -0.234803 0
0.745000 -0.159995 0
0.750000 -0.012375 0
0.755000 0.211467 0
0.760000 0.495133 0
0.765000 0.794394 0
0.770000 1.040678 0
0.775000 1.163058 3
0.780000 1.119033 0
0.785000 0.918869 0
0.790000 0.620374 0
0.795000 0.298860 0
0.800000 0.016844 0
0.805000 -0.189825 0
0.810000 -0.309905 0
0.815000 -0.349572 4
0.820000 -0.326917 0
0.825000 -0.267061 0
0.830000 -0.195424 0
0.835000 -0.130743 0
0.840000 -0.081607 0
0.845000 -0.047924 0
0.850000 -0.025136 0
0.855000 -0.008101 0
0.860000 0.006958 0
0.865000 0.022191 0
0.870000 0.038598 0
0.875000 0.056563 0
0.880000 0.076185 0
0.885000 0.097432 0
0.890000 0.120195 0
0.895000 0.144300 0
0.900000 0.169515 0
0.905000 0.195548 0
0.910000 0.222051 0
0.915000 0.248626 0
0.920000 0.274832 0
0.925000 0.300200 0
0.930000 0.324239 0
0.935000 0.346457 0
0.940000 0.366376 0
0.945000 0.383547 0
0.950000 0.397566 0
0.955000 0.408093 0
0.960000 0.414861 0
0.965000 0.417690 5
0.970000 0.416493 0
0.975000 0.411279 0
0.980000 0.402155 0
0.985000 0.389319 0
0.990000 0.373058 0
0.995000 0.353729 0
1.000000 0.331754 0
1.005000 0.307597 0
1.010000 0.281754 0
1.015000 0.254729 0
1.020000 0.227026 0
1.025000 0.199126 0
1.030000 0.171478 0
1.035000 0.144486 0
1.040000 0.118503 0
1.045000 0.093823 0
1.050000 0.070678 0
1.055000 0.049242 0
1.060000 0.029626 0
1.065000 0.011888 0
1.070000 -0.003963 0
1.075000 -0.017961 0
1.080000 -0.030177 0
1.085000 -0.040709 0
1.090000 -0.049674 0
1.095000 -0.057206 0
1.100000 -0.063444 0
1.105000 -0.068529 0
1.110000 -0.072603 0
1.115000 -0.075797 0
1.120000 -0.078239 0
1.125000 -0.080042 0
1.130000 -0.081311 0
1.135000 -0.082137 0
1.140000 -0.082600 0
1.145000 -0.082769 0
1.150000 -0.082703 0
1.155000 -0.082451 0
1.160000 -0.081986 0
1.165000 -0.081126 0
1.170000 -0.080270 0
1.175000 -0.079419 0
1.180000 -0.078572 0
1.185000 -0.077729 0
1.190000 -0.076890 0
1.195000 -0.076055 0
1.200000 -0.075225 0
1.205000 -0.074399 0
1.210000 -0.073577 0
1.215000 -0.072759 0
1.220000 -0.071945 0
1.225000 -0.071134 0
1.230000 -0.070328 0
1.235000 -0.069526 0
1.240000 -0.068726 0
1.245000 -0.067929 0
1.250000 -0.067133 0
1.255000 -0.066336 0
1.260000 -0.065534 0
1.265000 -0.064720 0
1.270000 -0.063884 0
1.275000 -0.063010 0
1.280000 -0.062070 0
1.285000 -0.061028 0
1.290000 -0.059826 0
1.295000 -0.058385 0
1.300000 -0.056596 0
1.305000 -0.054312 0
1.310000 -0.051346 0
1.315000 -0.047467 0
1.320000 -0.042399 0
1.325000 -0.035830 0
1.330000 -0.027425 0
1.335000 -0.016854 0
1.340000 -0.003819 0
1.345000 0.011903 0
1.350000 0.030410 0
1.355000 0.051637 0
1.360000 0.075306 0
1.365000 0.100910 0
1.370000 0.127697 0
1.375000 0.154696 0
1.380000 0.180761 0
1.385000 0.204646 0
1.390000 0.225101 0
1.395000 0.240977 0
1.400000 0.251335 0
1.405000 0.255535 1
1.410000 0.253302 0
1.415000 0.244753 0
1.420000 0.230392 0
1.425000 0.211053 0
1.430000 0.187826 0
1.435000 0.161950 0
1.440000 0.134707 0
1.445000 0.107311 0
1.450000 0.080811 0
1.455000 0.055983 0
1.460000 0.033175 0
1.465000 0.012059 0
1.470000 -0.008716 0
1.475000 -0.031764 0
1.480000 -0.060599 0
1.485000 -0.098064 0
1.490000 -0.143518 0
1.495000 -0.189982 0
1.500000 -0.223243 0
1.505000 -0.223994 2
1.510000 -0.171948 0
1.515000 -0.050244 0
1.520000 0.149238 0
1.525000 0.417409 0
1.530000 0.718214 0
1.535000 0.987304 0
1.540000 1.149389 0
1.545000 1.150969 3
1.550000 0.987777 0
1.555000 0.707306 0
1.560000 0.384786 0
1.565000 0.088996 0
1.570000 -0.136904 0
1.575000 -0.276337 0
1.580000 -0.332187 4
1.585000 -0.320605 0
1.590000 -0.266114 0
1.595000 -0.195080 0
1.600000 -0.128252 0
1.605000 -0.076270 0
1.610000 -0.040317 0
1.615000 -0.016217 0
1.620000 0.001345 0
1.625000 0.016465 0
1.630000 0.031540 0
1.635000 0.047711 0
1.640000 0.065426 0
1.645000 0.084809 0
1.650000 0.105840 0
1.655000 0.128412 0
1.660000 0.152358 0
1.665000 0.177445 0
1.670000 0.203382 0
1.675000 0.229819 0
1.680000 0.256354 0
1.685000 0.282544 0
1.690000 0.307909 0
1.695000 0.331954 0
1.700000 0.354179 0
1.705000 0.374096 0
1.710000 0.391248 0
1.715000 0.405226 0
1.720000 0.415683 0
1.725000 0.422349 0
1.730000 0.425042 5
1.735000 0.423676 0
1.740000 0.418263 0
1.745000 0.408916 0
1.750000 0.395841 0
1.755000 0.379333 0
1.760000 0.359759 0
1.765000 0.337552 0
1.770000 0.313186 0
1.775000 0.287167 0
1.780000 0.260007 0
1.785000 0.232217 0
1.790000 0.204282 0
1.795000 0.176653 0
1.800000 0.149735 0
1.805000 0.123879 0
1.810000 0.099374 0
1.815000 0.076447 0
1.820000 0.055264 0
1.825000 0.035929 0
1.830000 0.018492 0
1.835000 0.002953 0
1.840000 -0.010731 0
1.845000 -0.022636 0
1.850000 -0.032868 0
1.855000 -0.041549 0
1.860000 -0.048817 0
1.865000 -0.054815 0
1.870000 -0.059686 0
1.875000 -0.063571 0
1.880000 -0.066605 0
1.885000 -0.068911 0
1.890000 -0.070604 0
1.895000 -0.071785 0
1.900000 -0.072544 0
1.905000 -0.072960 0
1.910000 -0.073099 0
1.915000 -0.073017 0
1.920000 -0.072760 0
1.925000 -0.072308 0
1.930000 -0.071496 0
1.935000 -0.070689 0
1.940000 -0.069885 0
1.945000 -0.069085 0
1.950000 -0.068290 0
1.955000 -0.067498 0
1.960000 -0.066710 0
1.965000 -0.065927 0
1.970000 -0.065147 0
1.975000 -0.064371 0
1.980000 -0.063598 0
1.985000 -0.062830 0
1.990000 -0.062065 0
1.995000 -0.061304 0
2.000000 -0.060546 0
2.005000 -0.059791 0
2.010000 -0.059037 0
2.015000 -0.058284 0
2.020000 -0.057527 0
2.025000 -0.056762 0
2.030000 -0.055980 0
2.035000 -0.055169 0
2.040000 -0.054306 0
2.045000 -0.053359 0
2.050000 -0.052280 0
2.055000 -0.051000 0
2.060000 -0.049422 0
2.065000 -0.047416 0
2.070000 -0.044810 0
2.075000 -0.041389 0
2.080000 -0.036890 0
2.085000 -0.031011 0
2.090000 -0.023419 0
2.095000 -0.013772 0
2.100000 -0.001751 0
2.105000 0.012906 0
2.110000 0.030351 0
2.115000 0.050584 0
2.120000 0.073406 0
2.125000 0.098384 0
2.130000 0.124840 0
2.135000 0.151858 0
2.140000 0.178325 0
2.145000 0.202997 0
2.150000 0.224596 0
2.155000 0.241910 0
2.160000 0.253913 0
2.165000 0.259856 1
2.170000 0.259354 0
2.175000 0.252415 0
2.180000 0.239450 0
2.185000 0.221229 0
2.190000 0.198801 0
2.195000 0.173400 0
2.200000 0.146326 0
2.205000 0.118840 0
2.210000 0.092050 0
2.215000 0.066814 0
2.220000 0.043587 0
2.225000 0.022192 0
2.230000 0.001477 0
2.235000 -0.020991 0
2.240000 -0.048699 0
2.245000 -0.084804 0
2.250000 -0.129397 0
2.255000 -0.176436 0
2.260000 -0.212424 0
2.265000 -0.218204 2
2.270000 -0.173049 0
2.275000 -0.059217 0
2.280000 0.132790 0
2.285000 0.395863 0
2.290000 0.696050 0
2.295000 0.969943 0
2.300000 1.140896 0
2.305000 1.152151 3
2.310000 0.996320 0
2.315000 0.719521 0
2.320000 0.397250 0
2.325000 0.099700 0
2.330000 -0.128561 0
2.335000 -0.270094 0
2.340000 -0.327421 4
2.345000 -0.316641 0
2.350000 -0.262438 0
2.355000 -0.191449 0
2.360000 -0.124659 0
2.365000 -0.072801 0
2.370000 -0.037027 0
2.375000 -0.013087 0
2.380000 0.004374 0
2.385000 0.019456 0
2.390000 0.034541 0
2.395000 0.050752 0
2.400000 0.068523 0
2.405000 0.087974 0
2.410000 0.109076 0
2.415000 0.131722 0
2.420000 0.155736 0
2.425000 0.180880 0
2.430000 0.206857 0
2.435000 0.233309 0
2.440000 0.259827 0
2.445000 0.285958 0
2.450000 0.311218 0
2.455000 0.335103 0
2.460000 0.357111 0
2.465000 0.376749 0
2.470000 0.393562 0
2.475000 0.407142 0
2.480000 0.417147 0
2.485000 0.423314 0
2.490000 0.425472 5
2.495000 0.423546 0
2.500000 0.417564 0
2.505000 0.407651 0
2.510000 0.394030 0
2.515000 0.377011 0
2.520000 0.356976 0
2.525000 0.334370 0
2.530000 0.309679 0
2.535000 0.283415 0
2.540000 0.256098 0
2.545000 0.228238 0
2.550000 0.200321 0
2.555000 0.172795 0
2.560000 0.146058 0
2.565000 0.120451 0
2.570000 0.096255 0
2.575000 0.073686 0
2.580000 0.052896 0
2.585000 0.033980 0
2.590000 0.016974 0
2.595000 0.001870 0
2.600000 -0.011386 0
2.605000 -0.022879 0
2.610000 -0.032719 0
2.615000 -0.041035 0
2.620000 -0.047968 0
2.625000 -0.053663 0
2.630000 -0.058265 0
2.635000 -0.061913 0
2.640000 -0.064742 0
2.645000 -0.066873 0
2.650000 -0.068419 0
2.655000 -0.069479 0
2.660000 -0.070139 0
2.665000 -0.070476 0
2.670000 -0.070552 0
2.675000 -0.070423 0
2.680000 -0.070132 0
2.685000 -0.069405 0
2.690000 -0.068608 0
2.695000 -0.067814 0
2.700000 -0.067025 0
2.705000 -0.066240 0
2.710000 -0.065458 0
2.715000 -0.064681 0
2.720000 -0.063907 0
2.725000 -0.063137 0
2.730000 -0.062371 0
2.735000 -0.061609 0
2.740000 -0.060851 0
2.745000 -0.060096 0
2.750000 -0.059345 0
2.755000 -0.058597 0
2.760000 -0.057852 0
2.765000 -0.057109 0
2.770000 -0.056368 0
2.775000 -0.055625 0
2.780000 -0.054877 0
2.785000 -0.054118 0
2.790000 -0.053337 0
2.795000 -0.052517 0
2.800000 -0.051633 0
2.805000 -0.050646 0
2.810000 -0.049497 0
2.815000 -0.048105 0
2.820000 -0.046359 0
2.825000 -0.044106 0
2.830000 -0.041154 0
2.835000 -0.037263 0
2.840000 -0.032146 0
2.845000 -0.025482 0
2.850000 -0.016928 0
2.855000 -0.006143 0
2.860000 0.007170 0
2.865000 0.023226 0
2.870000 0.042107 0
2.875000 0.063715 0
2.880000 0.087729 0
2.885000 0.113582 0
2.890000 0.140459 0
2.895000 0.167323 0
2.900000 0.192967 0
2.905000 0.216104 0
2.910000 0.235464 0
2.915000 0.249915 0
2.920000 0.258567 0
2.925000 0.260860 1
2.930000 0.256632 0
2.935000 0.246125 0
2.940000 0.229973 0
2.945000 0.209128 0
2.950000 0.184773 0
2.955000 0.158210 0
2.960000 0.130739 0
2.965000 0.103553 0
2.970000 0.077632 0
2.975000 0.053613 0
2.980000 0.031597 0
2.985000 0.010833 0
2.990000 -0.010641 0
2.995000 -0.036043 0
3.000000 -0.068936 0
3.005000 -0.110884 0
3.010000 -0.158239 0
3.015000 -0.199931 0
3.020000 -0.218169 2
3.025000 -0.192040 0
3.030000 -0.102121 0
3.035000 0.064615 0
3.040000 0.307494 0
3.045000 0.601676 0
3.050000 0.891631 0
3.055000 1.101040 0
3.060000 1.162756 3
3.065000 1.053679 0
3.070000 0.806873 0
3.075000 0.490766 0
3.080000 0.178378 0
3.085000 -0.077606 0
3.090000 -0.251597 0
3.095000 -0.339791 0
3.100000 -0.353365 4
3.105000 -0.313630 0
3.110000 -0.246609 0
3.115000 -0.175851 0
3.120000 -0.116408 0
3.125000 -0.073261 0
3.130000 -0.044153 0
3.135000 -0.023973 0
3.140000 -0.007969 0
3.145000 0.007004 0
3.150000 0.022610 0
3.155000 0.039573 0
3.160000 0.058148 0
3.165000 0.078376 0
3.170000 0.100196 0
3.175000 0.123474 0
3.180000 0.148018 0
3.185000 0.173576 0
3.190000 0.199835 0
3.195000 0.226434 0
3.200000 0.252958 0
3.205000 0.278958 0
3.210000 0.303957 0
3.215000 0.327465 0
3.220000 0.348994 0
3.225000 0.368075 0
3.230000 0.384273 0
3.235000 0.397208 0
3.240000 0.406560 0
3.245000 0.412093 0
3.250000 0.413655 5
3.255000 0.411190 0
3.260000 0.404740 0
3.265000 0.394439 0
3.270000 0.380515 0
3.275000 0.363276 0
3.280000 0.343100 0
3.285000 0.320422 0
3.290000 0.295715 0
3.295000 0.269479 0
3.300000 0.242218 0
3.305000 0.214427 0
3.310000 0.186578 0
3.315000 0.159106 0
3.320000 0.132400 0
3.325000 0.106793 0
3.330000 0.082561 0
3.335000 0.059918 0
3.340000 0.039019 0
3.345000 0.019959 0
3.350000 0.002781 0
3.355000 -0.012519 0
3.360000 -0.025987 0
3.365000 -0.037701 0
3.370000 -0.047764 0
3.375000 -0.056299 0
3.380000 -0.063440 0
3.385000 -0.069329 0
3.390000 -0.074107 0
3.395000 -0.077910 0
3.400000 -0.080871 0
3.405000 -0.083111 0
3.410000 -0.084743 0
3.415000 -0.085866 0
3.420000 -0.086570 0
3.425000 -0.086930 0
3.430000 -0.087013 0
3.435000 -0.086874 0
3.440000 -0.086561 0
3.445000 -0.086049 0
3.450000 -0.085168 0
3.455000 -0.084293 0
3.460000 -0.083421 0
3.465000 -0.082554 0
3.470000 -0.081691 0
3.475000 -0.080833 0
3.480000 -0.079978 0
3.485000 -0.079128 0
3.490000 -0.078283 0
3.495000 -0.077441 0
3.500000 -0.076604 0
3.505000 -0.075771 0
3.510000 -0.074941 0
3.515000 -0.074116 0
3.520000 -0.073294 0
3.525000 -0.072476 0
3.530000 -0.071660 0
3.535000 -0.070844 0
3.540000 -0.070027 0
3.545000 -0.069204 0
3.550000 -0.068367 0
3.555000 -0.067506 0
3.560000 -0.066601 0
3.565000 -0.065626 0
3.570000 -0.064538 0
3.575000 -0.063276 0
3.580000 -0.061757 0
3.585000 -0.059864 0
3.590000 -0.057444 0
3.595000 -0.054302 0
3.600000 -0.050199 0
3.605000 -0.044851 0
3.610000 -0.037944 0
3.615000 -0.029141 0
3.620000 -0.018117 0
3.625000 -0.004585 0
3.630000 0.011656 0
3.635000 0.030679 0
3.640000 0.052383 0
3.645000 0.076454 0
3.650000 0.102340 0
3.655000 0.129255 0
3.660000 0.156195 0
3.665000 0.181996 0
3.670000 0.205409 0
3.675000 0.225197 0
3.680000 0.240244 0
3.685000 0.249657 0
3.690000 0.252853 1
3.695000 0.249619 0
3.700000 0.240136 0
3.705000 0.224960 0
3.710000 0.204968 0
3.715000 0.181275 0
3.720000 0.155130 0
3.725000 0.127805 0
3.730000 0.100493 0
3.735000 0.074208 0
3.740000 0.049671 0
3.745000 0.027153 0
3.750000 0.006206 0
3.755000 -0.014680 0
3.760000 -0.038275 0
3.765000 -0.068114 0
3.770000 -0.106750 0
3.775000 -0.152865 0
3.780000 -0.198568 0
3.785000 -0.228879 2
3.790000 -0.224197 0
3.795000 -0.164489 0
3.800000 -0.033685 0
3.805000 0.174782 0
3.810000 0.449164 0
3.815000 0.750062 0
3.820000 1.010854 0
3.825000 1.157190 3
3.830000 1.140987 0
3.835000 0.965430 0
3.840000 0.680151 0
3.845000 0.357464 0
3.850000 0.062312 0
3.855000 -0.164519 0
3.860000 -0.307013 0
3.865000 -0.367397 4
3.870000 -0.360449 0
3.875000 -0.309097 0
3.880000 -0.238666 0
3.885000 -0.170007 0
3.890000 -0.114851 0
3.895000 -0.075699 0
3.900000 -0.049226 0
3.905000 -0.030331 0
3.910000 -0.014711 0
3.915000 0.000342 0
3.920000 0.016212 0
3.925000 0.033488 0
3.930000 0.052369 0
3.935000 0.072873 0
3.940000 0.094930 0
3.945000 0.118404 0
3.950000 0.143099 0
3.955000 0.168764 0
3.960000 0.195094 0
3.965000 0.221731 0
3.970000 0.248272 0
3.975000 0.274279 0
3.980000 0.299288 0
3.985000 0.322823 0
3.990000 0.344410 0
3.995000 0.363593 0
4.000000 0.379950 0
4.005000 0.393107 0
4.010000 0.402752 0
4.015000 0.408647 0
4.020000 0.410640 5
4.025000 0.408665 0
4.030000 0.402752 0
4.035000 0.393020 0
4.040000 0.379679 0
4.045000 0.363014 0
4.050000 0.343384 0
4.055000 0.321201 0
4.060000 0.296919 0
4.065000 0.271018 0
4.070000 0.243990 0
4.075000 0.216318 0
4.080000 0.188469 0
4.085000 0.160875 0
4.090000 0.133928 0
4.095000 0.107969 0
4.100000 0.083285 0
4.105000 0.060103 0
4.110000 0.038593 0
4.115000 0.018869 0
4.120000 0.000990 0
4.125000 -0.015031 0
4.130000 -0.029221 0
4.135000 -0.041645 0
4.140000 -0.052394 0
4.145000 -0.061580 0
4.150000 -0.069328 0
4.155000 -0.075773 0
4.160000 -0.081053 0
4.165000 -0.085303 0
4.170000 -0.088655 0
4.175000 -0.091233 0
4.180000 -0.093151 0
4.185000 -0.094512 0
4.190000 -0.095410 0
4.195000 -0.095925 0
4.200000 -0.096129 0
4.205000 -0.096080 0
4.210000 -0.095831 0
4.215000 -0.095424 0
4.220000 -0.094572 0
4.225000 -0.093649 0
4.230000 -0.092731 0
4.235000 -0.091818 0
4.240000 -0.090909 0
4.245000 -0.090004 0
4.250000 -0.089104 0
4.255000 -0.088209 0
4.260000 -0.087318 0
4.265000 -0.086431 0
4.270000 -0.085549 0
4.275000 -0.084671 0
4.280000 -0.083798 0
4.285000 -0.082928 0
4.290000 -0.082063 0
4.295000 -0.081202 0
4.300000 -0.080344 0
4.305000 -0.079488 0
4.310000 -0.078633 0
4.315000 -0.077777 0
4.320000 -0.076915 0
4.325000 -0.076040 0
4.330000 -0.075140 0
4.335000 -0.074199 0
4.340000 -0.073188 0
4.345000 -0.072069 0
4.350000 -0.070783 0
4.355000 -0.069250 0
4.360000 -0.067360 0
4.365000 -0.064967 0
4.370000 -0.061888 0
4.375000 -0.057893 0
4.380000 -0.052714 0
4.385000 -0.046048 0
4.390000 -0.037572 0
4.395000 -0.026965 0
4.400000 -0.013938 0
4.405000 0.001725 0
4.410000 0.020126 0
4.415000 0.041209 0
4.420000 0.064725 0
4.425000 0.090200 0
4.430000 0.116931 0
4.435000 0.144002 0
4.440000 0.170324 0
4.445000 0.194699 0
4.450000 0.215911 0
4.455000 0.232823 0
4.460000 0.244477 0
4.465000 0.250184 1
4.470000 0.249591 0
4.475000 0.242719 0
4.480000 0.229957 0
4.485000 0.212030 0
4.490000 0.189929 0
4.495000 0.164818 0
4.500000 0.137938 0
4.505000 0.110498 0
4.510000 0.083582 0
4.515000 0.058057 0
4.520000 0.034447 0
4.525000 0.012743 0
4.530000 -0.007893 0
4.535000 -0.029437 0
4.540000 -0.054999 0
4.545000 -0.087927 0
4.550000 -0.129665 0
4.555000 -0.176881 0
4.560000 -0.219446 0
4.565000 -0.240930 2
4.570000 -0.221688 0
4.575000 -0.142958 0
4.580000 0.008909 0
4.585000 0.236467 0
4.590000 0.522131 0
4.595000 0.820542 0
4.600000 1.062835 0
4.605000 1.179128 3
4.610000 1.130370 0
4.615000 0.928541 0
4.620000 0.630160 0
4.625000 0.308316 0
4.630000 0.024071 0
4.635000 -0.186906 0
4.640000 -0.312708 0
4.645000 -0.358405 4
4.650000 -0.340758 0
4.655000 -0.283721 0
4.660000 -0.212293 0
4.665000 -0.145774 0
4.670000 -0.093927 0
4.675000 -0.057755 0
4.680000 -0.033276 0
4.685000 -0.015397 0
4.690000 -0.000118 0
4.695000 0.014964 0
4.700000 0.031033 0
4.705000 0.048573 0
4.710000 0.067732 0
4.715000 0.088507 0
4.720000 0.110814 0
4.725000 0.134502 0
4.730000 0.159366 0
4.735000 0.185142 0
4.740000 0.211513 0
4.745000 0.238110 0
4.750000 0.264523 0
4.755000 0.290305 0
4.760000 0.314989 0
4.765000 0.338098 0
4.770000 0.359159 0
4.775000 0.377721 0
4.780000 0.393372 0
4.785000 0.405748 0
4.790000 0.414553 0
4.795000 0.419565 0
4.800000 0.420651 5
4.805000 0.417766 0
4.810000 0.410959 0
4.815000 0.400369 0
4.820000 0.386223 0
4.825000 0.368826 0
4.830000 0.348547 0
4.835000 0.325812 0
4.840000 0.301080 0
4.845000 0.274838 0
4.850000 0.247577 0
4.855000 0.219777 0
4.860000 0.191900 0
4.865000 0.164371 0
4.870000 0.137571 0
4.875000 0.111829 0
4.880000 0.087419 0
4.885000 0.064557 0
4.890000 0.043398 0
4.895000 0.024044 0
4.900000 0.006543 0
4.905000 -0.009100 0
4.910000 -0.022924 0
4.915000 -0.035000 0
4.920000 -0.045423 0
4.925000 -0.054309 0
4.930000 -0.061788 0
4.935000 -0.067995 0
4.940000 -0.073067 0
4.945000 -0.077141 0
4.950000 -0.080345 0
4.955000 -0.082802 0
4.960000 -0.084624 0
4.965000 -0.085912 0
4.970000 -0.086756 0
4.975000 -0.087235 0
4.980000 -0.087417 0
4.985000 -0.087359 0
4.990000 -0.087112 0
4.995000 -0.086715 0
5.000000 -0.085902 0
5.005000 -0.085022 0
5.010000 -0.084147 0
5.015000 -0.083277 0
5.020000 -0.082410 0
5.025000 -0.081548 0
5.030000 -0.080690 0
5.035000 -0.079837 0
5.040000 -0.078988 0
5.045000 -0.078142 0
5.050000 -0.077302 0
5.055000 -0.076465 0
5.060000 -0.075632 0
5.065000 -0.074804 0
5.070000 -0.073979 0
5.075000 -0.073158 0
5.080000 -0.072339 0
5.085000 -0.071523 0
5.090000 -0.070707 0
5.095000 -0.069888 0
5.100000 -0.069062 0
5.105000 -0.068220 0
5.110000 -0.067349 0
5.115000 -0.066431 0
5.120000 -0.065434 0
5.125000 -0.064316 0
5.130000 -0.063012 0
5.135000 -0.061436 0
5.140000 -0.059468 0
5.145000 -0.056953 0
5.150000 -0.053695 0
5.155000 -0.049455 0
5.160000 -0.043954 0
5.165000 -0.036882 0
5.170000 -0.027912 0
5.175000 -0.016729 0
5.180000 -0.003059 0
5.185000 0.013289 0
5.190000 0.032380 0
5.195000 0.054108 0
5.200000 0.078167 0
5.205000 0.104022 0
5.210000 0.130908 0
5.215000 0.157857 0
5.220000 0.183742 0
5.225000 0.207350 0
5.230000 0.227474 0
5.235000 0.243015 0
5.240000 0.253078 0
5.245000 0.257059 1
5.250000 0.254705 0
5.255000 0.246138 0
5.260000 0.231845 0
5.265000 0.212633 0
5.270000 0.189551 0
5.275000 0.163797 0
5.280000 0.136614 0
5.285000 0.109186 0
5.290000 0.082551 0
5.295000 0.057493 0
5.300000 0.034414 0
5.305000 0.013105 0
5.310000 -0.007562 0
5.315000 -0.029915 0
5.320000 -0.057273 0
5.325000 -0.092723 0
5.330000 -0.136651 0
5.335000 -0.183916 0
5.340000 -0.222410 0
5.345000 -0.234376 2
5.350000 -0.199975 0
5.355000 -0.101424 0
5.360000 0.072520 0
5.365000 0.319656 0
5.370000 0.614870 0
5.375000 0.904757 0
5.380000 1.117030 0
5.385000 1.187459 3
5.390000 1.090577 0
5.395000 0.853098 0
5.400000 0.540181 0
5.405000 0.224266 0
5.410000 -0.040291 0
5.415000 -0.225475 0
5.420000 -0.325261 0
5.425000 -0.348873 4
5.430000 -0.315993 0
5.435000 -0.251822 0
5.440000 -0.180348 0
5.445000 -0.118087 0
5.450000 -0.071690 0
5.455000 -0.040030 0
5.460000 -0.018359 0
5.465000 -0.001774 0
5.470000 0.013199 0
5.475000 0.028495 0
5.480000 0.045007 0
5.485000 0.063073 0
5.490000 0.082777 0
5.495000 0.104079 0
5.500000 0.126871 0
5.505000 0.150980 0
5.510000 0.176179 0
5.515000 0.202181 0
5.520000 0.228647 0
5.525000 0.255189 0
5.530000 0.281380 0
5.535000 0.306759 0
5.540000 0.330852 0
5.545000 0.353177 0
5.550000 0.373265 0
5.555000 0.390677 0
5.560000 0.405015 0
5.565000 0.415938 0
5.570000 0.423177 0
5.575000 0.426546 5
5.580000 0.425946 0
5.585000 0.421371 0
5.590000 0.412909 0
5.595000 0.400738 0
5.600000 0.385122 0
5.605000 0.366396 0
5.610000 0.344958 0
5.615000 0.321255 0
5.620000 0.295762 0
5.625000 0.268973 0
5.630000 0.241379 0
5.635000 0.213458 0
5.640000 0.185657 0
5.645000 0.158387 0
5.650000 0.132007 0
5.655000 0.106824 0
5.660000 0.083085 0
5.665000 0.060980 0
5.670000 0.040639 0
5.675000 0.022138 0
5.680000 0.005504 0
5.685000 -0.009281 0
5.690000 -0.022272 0
5.695000 -0.033552 0
5.700000 -0.043231 0
5.705000 -0.051431 0
5.710000 -0.058286 0
5.715000 -0.063935 0
5.720000 -0.068515 0
5.725000 -0.072160 0
5.730000 -0.074997 0
5.735000 -0.077144 0
5.740000 -0.078708 0
5.745000 -0.079785 0
5.750000 -0.080459 0
5.755000 -0.080805 0
5.760000 -0.080885 0
5.765000 -0.080752 0
5.770000 -0.080451 0
5.775000 -0.079958 0
5.780000 -0.079108 0
5.785000 -0.078263 0
5.790000 -0.077421 0
5.795000 -0.076584 0
5.800000 -0.075751 0
5.805000 -0.074922 0
5.810000 -0.074097 0
5.815000 -0.073277 0
5.820000 -0.072460 0
5.825000 -0.071648 0
5.830000 -0.070839 0
5.835000 -0.070035 0
5.840000 -0.069234 0
5.845000 -0.068437 0
5.850000 -0.067644 0
5.855000 -0.066854 0
5.860000 -0.066066 0
5.865000 -0.065278 0
5.870000 -0.064490 0
5.875000 -0.063696 0
5.880000 -0.062889 0
5.885000 -0.062060 0
5.890000 -0.061190 0
5.895000 -0.060255 0
5.900000 -0.059216 0
5.905000 -0.058016 0
5.910000 -0.056579 0
5.915000 -0.054795 0
5.920000 -0.052522 0
5.925000 -0.049579 0
5.930000 -0.045740 0
5.935000 -0.040737 0
5.940000 -0.034268 0
5.945000 -0.026006 0
5.950000 -0.015628 0
5.955000 -0.002840 0
5.960000 0.012583 0
5.965000 0.030754 0
5.970000 0.051627 0
5.975000 0.074962 0
5.980000 0.100296 0
5.985000 0.126930 0
5.990000 0.153952 0
5.995000 0.180269 0
6.000000 0.204678 0
6.005000 0.225951 0
6.010000 0.242939 0
6.015000 0.254669 0
6.020000 0.260441 1
6.025000 0.259892 0
6.030000 0.253036 0
6.035000 0.240263 0
6.040000 0.222300 0
6.045000 0.200144 0
6.050000 0.174971 0
6.055000 0.148029 0
6.060000 0.120538 0
6.065000 0.093587 0
6.070000 0.068045 0
6.075000 0.044432 0
6.080000 0.022721 0
6.085000 0.002040 0
6.090000 -0.019645 0
6.095000 -0.045498 0
6.100000 -0.078864 0
6.105000 -0.121047 0
6.110000 -0.168384 0
6.115000 -0.210297 0
6.120000 -0.229950 2
6.125000 -0.207478 0
6.130000 -0.124172 0
6.135000 0.033186 0
6.140000 0.266036 0
6.145000 0.554710 0
6.150000 0.851215 0
6.155000 1.084967 0
6.160000 1.187018 3
6.165000 1.121427 0
6.170000 0.904470 0
6.175000 0.598523 0
6.180000 0.279149 0
6.185000 0.005993 0
6.190000 -0.188670 0
6.195000 -0.296450 0
6.200000 -0.325592 4
6.205000 -0.295695 0
6.210000 -0.232564 0
6.215000 -0.161149 0
6.220000 -0.098783 0
6.225000 -0.052491 0
6.230000 -0.021124 0
6.235000 0.000228 0
6.240000 0.016586 0
6.245000 0.031452 0
6.250000 0.046738 0
6.255000 0.063307 0
6.260000 0.081473 0
6.265000 0.101304 0
6.270000 0.122750 0
6.275000 0.145688 0
6.280000 0.169933 0
6.285000 0.195237 0
6.290000 0.221296 0
6.295000 0.247747 0
6.300000 0.274182 0
6.305000 0.300149 0
6.310000 0.325169 0
6.315000 0.348747 0
6.320000 0.370391 0
6.325000 0.389622 0
6.330000 0.405999 0
6.335000 0.419129 0
6.340000 0.428686 0
6.345000 0.434420 0
6.350000 0.436174 5
6.355000 0.433882 0
6.360000 0.427578 0
6.365000 0.417394 0
6.370000 0.403553 0
6.375000 0.386362 0
6.380000 0.366200 0
6.385000 0.343503 0
6.390000 0.318749 0
6.395000 0.292441 0
6.400000 0.265088 0
6.405000 0.237192 0
6.410000 0.209229 0
6.415000 0.181640 0
6.420000 0.154818 0
6.425000 0.129099 0
6.430000 0.104763 0
6.435000 0.082026 0
6.440000 0.061042 0
6.445000 0.041908 0
6.450000 0.024667 0
6.455000 0.009311 0
6.460000 -0.004204 0
6.465000 -0.015959 0
6.470000 -0.026061 0
6.475000 -0.034632 0
6.480000 -0.041811 0
6.485000 -0.047738 0
6.490000 -0.052556 0
6.495000 -0.056405 0
6.500000 -0.059415 0
6.505000 -0.061710 0
6.510000 -0.063402 0
6.515000 -0.064591 0
6.520000 -0.065364 0
6.525000 -0.065800 0
6.530000 -0.065962 0
6.535000 -0.065907 0
6.540000 -0.065680 0
6.545000 -0.065260 0
6.550000 -0.064483 0
6.555000 -0.063710 0
6.560000 -0.062942 0
6.565000 -0.062177 0
6.570000 -0.061415 0
6.575000 -0.060658 0
6.580000 -0.059904 0
6.585000 -0.059155 0
6.590000 -0.058408 0
6.595000 -0.057666 0
6.600000 -0.056927 0
6.605000 -0.056192 0
6.610000 -0.055461 0
6.615000 -0.054732 0
6.620000 -0.054007 0
6.625000 -0.053285 0
6.630000 -0.052564 0
6.635000 -0.051842 0
6.640000 -0.051118 0
6.645000 -0.050386 0
6.650000 -0.049638 0
6.655000 -0.048861 0
6.660000 -0.048035 0
6.665000 -0.047127 0
6.670000 -0.046094 0
6.675000 -0.044867 0
6.680000 -0.043353 0
6.685000 -0.041427 0
6.690000 -0.038924 0
6.695000 -0.035633 0
6.700000 -0.031301 0
6.705000 -0.025632 0
6.710000 -0.018298 0
6.715000 -0.008962 0
6.720000 0.002699 0
6.725000 0.016953 0
6.730000 0.033970 0
6.735000 0.053772 0
6.740000 0.076194 0
6.745000 0.100843 0
6.750000 0.127086 0
6.755000 0.154050 0
6.760000 0.180662 0
6.765000 0.205706 0
6.770000 0.227913 0
6.775000 0.246064 0
6.780000 0.259100 0
6.785000 0.266221 0
6.790000 0.266971 1
6.795000 0.261281 0
6.800000 0.249479 0
6.805000 0.232259 0
6.810000 0.210609 0
6.815000 0.185722 0
6.820000 0.158881 0
6.825000 0.131353 0
6.830000 0.104281 0
6.835000 0.078581 0
6.840000 0.054819 0
6.845000 0.033002 0
6.850000 0.012265 0
6.855000 -0.009468 0
6.860000 -0.035457 0
6.865000 -0.069133 0
6.870000 -0.111723 0
6.875000 -0.159151 0
6.880000 -0.200061 0
6.885000 -0.216709 2
6.890000 -0.188542 0
6.895000 -0.096649 0
6.900000 0.071502 0
6.905000 0.314942 0
6.910000 0.609088 0
6.915000 0.899503 0
6.920000 1.111367 0
6.925000 1.178186 3
6.930000 1.074383 0
6.935000 0.829486 0
6.940000 0.513450 0
6.945000 0.201419 0
6.950000 -0.052694 0
6.955000 -0.223203 0
6.960000 -0.306933 0
6.965000 -0.316086 4
6.970000 -0.273150 0
6.975000 -0.204981 0
6.980000 -0.135149 0
6.985000 -0.077926 0
6.990000 -0.037241 0
6.995000 -0.010082 0
7.000000 0.008914 0
7.005000 0.024385 0
7.010000 0.039248 0
7.015000 0.054970 0
7.020000 0.072159 0
7.025000 0.091009 0
7.030000 0.111532 0
7.035000 0.133640 0
7.040000 0.157182 0
7.045000 0.181940 0
7.050000 0.207634 0
7.055000 0.233926 0
7.060000 0.260424 0
7.065000 0.286687 0
7.070000 0.312241 0
7.075000 0.336587 0
7.080000 0.359219 0
7.085000 0.379640 0
7.090000 0.397381 0
7.095000 0.412016 0
7.100000 0.423180 0
7.105000 0.430583 0
7.110000 0.434023 5
7.115000 0.433393 0
7.120000 0.428686 0
7.125000 0.419997 0
7.130000 0.407517 0
7.135000 0.391529 0
7.140000 0.372393 0
7.145000 0.350535 0
7.150000 0.326429 0
7.155000 0.300581 0
7.160000 0.273509 0
7.165000 0.245731 0
7.170000 0.217740 0
7.175000 0.189997 0
7.180000 0.162920 0
7.185000 0.136868 0
7.190000 0.112142 0
7.195000 0.088979 0
7.200000 0.067553 0
7.205000 0.047976 0
7.210000 0.030304 0
7.215000 0.014541 0
7.220000 0.000647 0
7.225000 -0.011451 0
7.230000 -0.021858 0
7.235000 -0.030698 0
7.240000 -0.038107 0
7.245000 -0.044230 0
7.250000 -0.049212 0
7.255000 -0.053196 0
7.260000 -0.056318 0
7.265000 -0.058703 0
7.270000 -0.060467 0
7.275000 -0.061713 0
7.280000 -0.062532 0
7.285000 -0.063004 0
7.290000 -0.063197 0
7.295000 -0.063166 0
7.300000 -0.062960 0
7.305000 -0.062557 0
7.310000 -0.061794 0
7.315000 -0.061035 0
7.320000 -0.060279 0
7.325000 -0.059527 0
7.330000 -0.058779 0
7.335000 -0.058035 0
7.340000 -0.057295 0
7.345000 -0.056558 0
7.350000 -0.055825 0
7.355000 -0.055095 0
7.360000 -0.054369 0
7.365000 -0.053647 0
7.370000 -0.052928 0
7.375000 -0.052212 0
7.380000 -0.051500 0
7.385000 -0.050789 0
7.390000 -0.050080 0
7.395000 -0.049371 0
7.400000 -0.048658 0
7.405000 -0.047935 0
7.410000 -0.047195 0
7.415000 -0.046422 0
7.420000 -0.045595 0
7.425000 -0.044678 0
7.430000 -0.043621 0
7.435000 -0.042351 0
7.440000 -0.040767 0
7.445000 -0.038730 0
7.450000 -0.036063 0
7.455000 -0.032539 0
7.460000 -0.027889 0
7.465000 -0.021800 0
7.470000 -0.013934 0
7.475000 -0.003947 0
7.480000 0.008478 0
7.485000 0.023589 0
7.490000 0.041515 0
7.495000 0.062223 0
7.500000 0.085468 0
7.505000 0.110767 0
7.510000 0.137384 0
7.515000 0.164349 0
7.520000 0.190504 0
7.525000 0.214578 0
7.530000 0.235283 0
7.535000 0.251428 0
7.540000 0.262033 0
7.545000 0.266422 1
7.550000 0.264298 0
7.555000 0.255771 0
7.560000 0.241352 0
7.565000 0.221898 0
7.570000 0.198528 0
7.575000 0.172516 0
7.580000 0.145176 0
7.585000 0.117750 0
7.590000 0.091297 0
7.595000 0.066584 0
7.600000 0.043918 0
7.605000 0.022868 0
7.610000 0.001901 0
7.615000 -0.021829 0
7.620000 -0.051958 0
7.625000 -0.091043 0
7.630000 -0.137489 0
7.635000 -0.182749 0
7.640000 -0.210956 2
7.645000 -0.201719 0
7.650000 -0.134620 0
7.655000 0.006095 0
7.660000 0.225298 0
7.665000 0.507239 0
7.670000 0.806402 0
7.675000 1.050836 0
7.680000 1.166305 3
7.685000 1.112335 0
7.690000 0.904051 0
7.695000 0.601746 0
7.700000 0.281231 0
7.705000 0.003838 0
7.710000 -0.196327 0
7.715000 -0.309536 0
7.720000 -0.343146 4
7.725000 -0.316184 0
7.730000 -0.254280 0
7.735000 -0.182685 0
7.740000 -0.119363 0
7.745000 -0.071966 0
7.750000 -0.039727 0
7.755000 -0.017837 0
7.760000 -0.001211 0
7.765000 0.013760 0
7.770000 0.029074 0
7.775000 0.045640 0
7.780000 0.063793 0
7.785000 0.083611 0
7.790000 0.105051 0
7.795000 0.127991 0
7.800000 0.152251 0
7.805000 0.177585 0
7.810000 0.203692 0
7.815000 0.230213 0
7.820000 0.256740 0
7.825000 0.282824 0
7.830000 0.307986 0
7.835000 0.331731 0
7.840000 0.353565 0
7.845000 0.373010 0
7.850000 0.389620 0
7.855000 0.402999 0
7.860000 0.412817 0
7.865000 0.418821 0
7.870000 0.420847 5
7.875000 0.418826 0
7.880000 0.412787 0
7.885000 0.402857 0
7.890000 0.389255 0
7.895000 0.372285 0
7.900000 0.352323 0
7.905000 0.329804 0
7.910000 0.305204 0
7.915000 0.279027 0
7.920000 0.251782 0
7.925000 0.223972 0
7.930000 0.196075 0
7.935000 0.168533 0
7.940000 0.141743 0
7.945000 0.116044 0
7.950000 0.091718 0
7.955000 0.068983 0
7.960000 0.047998 0
7.965000 0.028860 0
7.970000 0.011615 0
7.975000 -0.003743 0
7.980000 -0.017258 0
7.985000 -0.029008 0
7.990000 -0.039100 0
7.995000 -0.047658 0
8.000000 -0.054816 0
8.005000 -0.060718 0
8.010000 -0.065506 0
8.015000 -0.069320 0
8.020000 -0.072291 0
8.025000 -0.074543 0
8.030000 -0.076188 0
8.035000 -0.077327 0
8.040000 -0.078048 0
8.045000 -0.078430 0
8.050000 -0.078536 0
8.055000 -0.078424 0
8.060000 -0.078140 0
8.065000 -0.077660 0
8.070000 -0.076821 0
8.075000 -0.075987 0
8.080000 -0.075157 0
8.085000 -0.074331 0
8.090000 -0.073509 0
8.095000 -0.072692 0
8.100000 -0.071878 0
8.105000 -0.071068 0
8.110000 -0.070263 0
8.115000 -0.069461 0
8.120000 -0.068664 0
8.125000 -0.067870 0
8.130000 -0.067080 0
8.135000 -0.066294 0
8.140000 -0.065511 0
8.145000 -0.064731 0
8.150000 -0.063953 0
8.155000 -0.063175 0
8.160000 -0.062395 0
8.165000 -0.061607 0
8.170000 -0.060803 0
8.175000 -0.059971 0
8.180000 -0.059090 0
8.185000 -0.058130 0
8.190000 -0.057044 0
8.195000 -0.055766 0
8.200000 -0.054203 0
8.205000 -0.052230 0
8.210000 -0.049681 0
8.215000 -0.046349 0
8.220000 -0.041978 0
8.225000 -0.036273 0
8.230000 -0.028907 0
8.235000 -0.019542 0
8.240000 -0.007853 0
8.245000 0.006427 0
8.250000 0.023469 0
8.255000 0.043299 0
8.260000 0.065753 0
8.265000 0.090439 0
8.270000 0.116724 0
8.275000 0.143738 0
8.280000 0.170406 0
8.285000 0.195512 0
8.290000 0.217787 0
8.295000 0.236008 0
8.300000 0.249115 0
8.305000 0.256307 0
8.310000 0.257126 1
8.315000 0.251500 0
8.320000 0.239758 0
8.325000 0.222593 0
8.330000 0.200995 0
8.335000 0.176156 0
8.340000 0.149363 0
8.345000 0.121882 0
8.350000 0.094858 0
8.355000 0.069208 0
8.360000 0.045497 0
8.365000 0.023732 0
8.370000 0.003041 0
8.375000 -0.018657 0
8.380000 -0.044626 0
8.385000 -0.078301 0
8.390000 -0.120890 0
8.395000 -0.168275 0
8.400000 -0.209046 0
8.405000 -0.225409 2
8.410000 -0.196787 0
8.415000 -0.104277 0
8.420000 0.064589 0
8.425000 0.308684 0
8.430000 0.603141 0
8.435000 0.893194 0
8.440000 1.103865 0
8.445000 1.168875 3
8.450000 1.064136 0
8.455000 0.820469 0
8.460000 0.505348 0
8.465000 0.191775 0
8.470000 -0.066918 0
8.475000 -0.244334 0
8.480000 -0.335985 0
8.485000 -0.352475 4
8.490000 -0.314667 0
8.495000 -0.248393 0
8.500000 -0.177377 0
8.505000 -0.117118 0
8.510000 -0.073070 0
8.515000 -0.043278 0
8.520000 -0.022710 0
8.525000 -0.006564 0
8.530000 0.008400 0
8.535000 0.023919 0
8.540000 0.040761 0
8.545000 0.059200 0
8.550000 0.079290 0
8.555000 0.100975 0
8.560000 0.124128 0
8.565000 0.148561 0
8.570000 0.174029 0
8.575000 0.200227 0
8.580000 0.226796 0
8.585000 0.253332 0
8.590000 0.279389 0
8.595000 0.304494 0
8.600000 0.328161 0
8.605000 0.349903 0
8.610000 0.369250 0
8.615000 0.385766 0
8.620000 0.399065 0
8.625000 0.408824 0
8.630000 0.414794 0
8.635000 0.416818 5
8.640000 0.414826 0
8.645000 0.408847 0
8.650000 0.399007 0
8.655000 0.385519 0
8.660000 0.368679 0
8.665000 0.348857 0
8.670000 0.326478 0
8.675000 0.302010 0
8.680000 0.275945 0
8.685000 0.248787 0
8.690000 0.221031 0
8.695000 0.193150 0
8.700000 0.165583 0
8.705000 0.138724 0
8.710000 0.112915 0
8.715000 0.088438 0
8.720000 0.065517 0
8.725000 0.044315 0
8.730000 0.024935 0
8.735000 0.007430 0
8.740000 -0.008199 0
8.745000 -0.021988 0
8.750000 -0.034012 0
8.755000 -0.044370 0
8.760000 -0.053180 0
8.765000 -0.060575 0
8.770000 -0.066694 0
8.775000 -0.071678 0
8.780000 -0.075665 0
8.785000 -0.078787 0
8.790000 -0.081167 0
8.795000 -0.082919 0
8.800000 -0.084145 0
8.805000 -0.084934 0
8.810000 -0.085367 0
8.815000 -0.085510 0
8.820000 -0.085422 0
8.825000 -0.085150 0
8.830000 -0.084667 0
8.835000 -0.083794 0
8.840000 -0.082925 0
8.845000 -0.082060 0
8.850000 -0.081200 0
8.855000 -0.080344 0
8.860000 -0.079492 0
8.865000 -0.078645 0
8.870000 -0.077801 0
8.875000 -0.076962 0
8.880000 -0.076127 0
8.885000 -0.075297 0
8.890000 -0.074470 0
8.895000 -0.073647 0
8.900000 -0.072828 0
8.905000 -0.072013 0
8.910000 -0.071201 0
8.915000 -0.070392 0
8.920000 -0.069584 0
8.925000 -0.068775 0
8.930000 -0.067961 0
8.935000 -0.067137 0
8.940000 -0.066291 0
8.945000 -0.065407 0
8.950000 -0.064462 0
8.955000 -0.063418 0
8.960000 -0.062219 0
8.965000 -0.060790 0
8.970000 -0.059025 0
8.975000 -0.056782 0
8.980000 -0.053880 0
8.985000 -0.050092 0
8.990000 -0.045151 0
8.995000 -0.038749 0
9.000000 -0.030558 0
9.005000 -0.020247 0
9.010000 -0.007514 0
9.015000 0.007872 0
9.020000 0.026027 0
9.025000 0.046908 0
9.030000 0.070273 0
9.035000 0.095649 0
9.040000 0.122325 0
9.045000 0.149369 0
9.050000 0.175666 0
9.055000 0.199990 0
9.060000 0.221097 0
9.065000 0.237823 0
9.070000 0.249195 0
9.075000 0.254521 1
9.080000 0.253462 0
9.085000 0.246064 0
9.090000 0.232757 0
9.095000 0.214312 0
9.100000 0.191766 0
9.105000 0.166329 0
9.110000 0.139271 0
9.115000 0.111819 0
9.120000 0.085055 0
9.125000 0.059818 0
9.130000 0.036563 0
9.135000 0.015144 0
9.140000 -0.005514 0
9.145000 -0.027711 0
9.150000 -0.054809 0
9.155000 -0.090009 0
9.160000 -0.133822 0
9.165000 -0.181096 0
9.170000 -0.219486 0
9.175000 -0.230808 2
9.180000 -0.194772 0
9.185000 -0.093313 0
9.190000 0.084658 0
9.195000 0.335886 0
9.200000 0.632870 0
9.205000 0.918957 0
9.210000 1.119686 0
9.215000 1.172072 3
9.220000 1.057125 0
9.225000 0.807833 0
9.230000 0.491358 0
9.235000 0.178747 0
9.240000 -0.078593 0
9.245000 -0.255330 0
9.250000 -0.347228 0
9.255000 -0.364627 4
9.260000 -0.327831 0
9.265000 -0.262077 0
9.270000 -0.190787 0
9.275000 -0.129591 0
9.280000 -0.084359 0
9.285000 -0.053540 0
9.290000 -0.032302 0
9.295000 -0.015842 0
9.300000 -0.000818 0
9.305000 0.014610 0
9.310000 0.031281 0
9.315000 0.049511 0
9.320000 0.069373 0
9.325000 0.090825 0
9.330000 0.113753 0
9.335000 0.137986 0
9.340000 0.163293 0
9.345000 0.189389 0
9.350000 0.215933 0
9.355000 0.242539 0
9.360000 0.268779 0
9.365000 0.294198 0
9.370000 0.318321 0
9.375000 0.340671 0
9.380000 0.360782 0
9.385000 0.378218 0
9.390000 0.392583 0
9.395000 0.403541 0
9.400000 0.410824 0
9.405000 0.414248 5
9.410000 0.413713 0
9.415000 0.409215 0
9.420000 0.400841 0
9.425000 0.388768 0
9.430000 0.373255 0
9.435000 0.354637 0
9.440000 0.333308 0
9.445000 0.309710 0
9.450000 0.284317 0
9.455000 0.257618 0
9.460000 0.230102 0
9.465000 0.202245 0
9.470000 0.174494 0
9.475000 0.147256 0
9.480000 0.120892 0
9.485000 0.095709 0
9.490000 0.071956 0
9.495000 0.049824 0
9.500000 0.029444 0
9.505000 0.010897 0
9.510000 -0.005790 0
9.515000 -0.020630 0
9.520000 -0.033677 0
9.525000 -0.045013 0
9.530000 -0.054744 0
9.535000 -0.062990 0
9.540000 -0.069886 0
9.545000 -0.075568 0
9.550000 -0.080174 0
9.555000 -0.083836 0
9.560000 -0.086682 0
9.565000 -0.088830 0
9.570000 -0.090386 0
9.575000 -0.091449 0
9.580000 -0.092103 0
9.585000 -0.092422 0
9.590000 -0.092470 0
9.595000 -0.092300 0
9.600000 -0.091959 0
9.605000 -0.091421 0
9.610000 -0.090514 0
9.615000 -0.089611 0
9.620000 -0.088713 0
9.625000 -0.087820 0
9.630000 -0.086931 0
9.635000 -0.086046 0
9.640000 -0.085166 0
9.645000 -0.084290 0
9.650000 -0.083419 0
9.655000 -0.082551 0
9.660000 -0.081689 0
9.665000 -0.080830 0
9.670000 -0.079976 0
9.675000 -0.079125 0
9.680000 -0.078279 0
9.685000 -0.077435 0
9.690000 -0.076595 0
9.695000 -0.075756 0
9.700000 -0.074916 0
9.705000 -0.074072 0
9.710000 -0.073217 0
9.715000 -0.072342 0
9.720000 -0.071432 0
9.725000 -0.070461 0
9.730000 -0.069396 0
9.735000 -0.068184 0
9.740000 -0.066751 0
9.745000 -0.064998 0
9.750000 -0.062791 0
9.755000 -0.059956 0
9.760000 -0.056278 0
9.765000 -0.051500 0
9.770000 -0.045328 0
9.775000 -0.037441 0
9.780000 -0.027515 0
9.785000 -0.015247 0
9.790000 -0.000395 0
9.795000 0.017182 0
9.800000 0.037480 0
9.805000 0.060309 0
9.810000 0.085260 0
9.815000 0.111698 0
9.820000 0.138763 0
9.825000 0.165408 0
9.830000 0.190457 0
9.835000 0.212688 0
9.840000 0.230927 0
9.845000 0.244153 0
9.850000 0.251592 0
9.855000 0.252789 1
9.860000 0.247656 0
9.865000 0.236482 0
9.870000 0.219903 0
9.875000 0.198846 0
9.880000 0.174440 0
9.885000 0.147915 0
9.890000 0.120503 0
9.895000 0.093333 0
9.900000 0.067343 0
9.905000 0.043170 0
9.910000 0.020974 0
9.915000 0.000179 0
9.920000 -0.020865 0
9.925000 -0.045005 0
9.930000 -0.075688 0
9.935000 -0.115152 0
9.940000 -0.161610 0
9.945000 -0.206811 0
9.950000 -0.235764 2
9.955000 -0.229252 0
9.960000 -0.167845 0
9.965000 -0.036055 0
9.970000 0.172367 0
9.975000 0.446039 0
9.980000 0.747049 0
9.985000 1.011088 0
9.990000 1.165402 3
9.995000 1.160418 0
10.000000 0.994525 0
10.005000 0.714566 0
10.010000 0.392102 0
10.015000 0.093168 0
10.020000 -0.139646 0
10.025000 -0.288736 0
10.030000 -0.355170 4
10.035000 -0.352860 0
10.040000 -0.304200 0
10.045000 -0.234502 0
10.050000 -0.165148 0
10.055000 -0.108670 0
10.060000 -0.068247 0
10.065000 -0.040902 0
10.070000 -0.021570 0
10.075000 -0.005838 0
10.080000 0.009142 0
10.085000 0.024848 0
10.090000 0.041924 0
10.095000 0.060592 0
10.100000 0.080885 0
10.105000 0.102738 0
10.110000 0.126021 0
10.115000 0.150548 0
10.120000 0.176073 0
10.125000 0.202297 0
10.130000 0.228868 0
10.135000 0.255391 0
10.140000 0.281431 0
10.145000 0.306529 0
10.150000 0.330210 0
10.155000 0.352001 0
10.160000 0.371445 0
10.165000 0.388117 0
10.170000 0.401636 0
10.175000 0.411683 0
10.180000 0.418013 0
10.185000 0.420461 5
10.190000 0.418951 0
10.195000 0.413500 0
10.200000 0.404217 0
10.205000 0.391297 0
10.210000 0.375017 0
10.215000 0.355724 0
10.220000 0.333823 0
10.225000 0.309761 0
10.230000 0.284015 0
10.235000 0.257073 0
10.240000 0.229420 0
10.245000 0.201523 0
10.250000 0.173821 0
10.255000 0.146709 0
10.260000 0.120537 0
10.265000 0.095597 0
10.270000 0.072127 0
10.275000 0.050303 0
10.280000 0.030248 0
10.285000 0.012030 0
10.290000 -0.004331 0
10.295000 -0.018859 0
10.300000 -0.031609 0
10.305000 -0.042670 0
10.310000 -0.052150 0
10.315000 -0.060173 0
10.320000 -0.066871 0
10.325000 -0.072382 0
10.330000 -0.076842 0
10.335000 -0.080382 0
10.340000 -0.083127 0
10.345000 -0.085194 0
10.350000 -0.086687 0
10.355000 -0.087701 0
10.360000 -0.088319 0
10.365000 -0.088613 0
10.370000 -0.088645 0
10.375000 -0.088468 0
10.380000 -0.088125 0
10.385000 -0.087592 0
10.390000 -0.086704 0
10.395000 -0.085820 0
10.400000 -0.084941 0
10.405000 -0.084066 0
10.410000 -0.083196 0
10.415000 -0.082330 0
10.420000 -0.081468 0
10.425000 -0.080611 0
10.430000 -0.079758 0
10.435000 -0.078909 0
10.440000 -0.078064 0
10.445000 -0.077224 0
10.450000 -0.076387 0
10.455000 -0.075555 0
10.460000 -0.074726 0
10.465000 -0.073900 0
10.470000 -0.073077 0
10.475000 -0.072256 0
10.480000 -0.071433 0
10.485000 -0.070605 0
10.490000 -0.069766 0
10.495000 -0.068906 0
10.500000 -0.068008 0
10.505000 -0.067048 0
10.510000 -0.065991 0
10.515000 -0.064782 0
10.520000 -0.063347 0
10.525000 -0.061585 0
10.530000 -0.059360 0
10.535000 -0.056496 0
10.540000 -0.052777 0
10.545000 -0.047945 0
10.550000 -0.041705 0
10.555000 -0.033738 0
10.560000 -0.023720 0
10.565000 -0.011354 0
10.570000 0.003599 0
10.575000 0.021273 0
10.580000 0.041656 0
10.585000 0.064553 0
10.590000 0.089548 0
10.595000 0.116002 0
10.600000 0.143053 0
10.605000 0.169655 0
10.610000 0.194634 0
10.615000 0.216776 0
10.620000 0.234914 0
10.625000 0.248037 0
10.630000 0.255378 0
10.635000 0.256490 1
10.640000 0.251289 0
10.645000 0.240065 0
10.650000 0.223454 0
10.655000 0.202378 0
10.660000 0.177961 0
10.665000 0.151426 0
10.670000 0.123998 0
10.675000 0.096805 0
10.680000 0.070780 0
10.685000 0.046561 0
10.690000 0.024318 0
10.695000 0.003493 0
10.700000 -0.017532 0
10.705000 -0.041564 0
10.710000 -0.072036 0
10.715000 -0.111244 0
10.720000 -0.157578 0
10.725000 -0.203059 0
10.730000 -0.232983 2
10.735000 -0.228317 0
10.740000 -0.169656 0
10.745000 -0.041329 0
10.750000 0.163462 0
10.755000 0.434474 0
10.760000 0.735452 0
10.765000 1.003521 0
10.770000 1.165985 0
10.775000 1.171024 3
10.780000 1.012327 0
10.785000 0.735172 0
10.790000 0.412856 0
10.795000 0.113701 0
10.800000 -0.118292 0
10.805000 -0.265211 0
10.810000 -0.328552 4
10.815000 -0.323089 0
10.820000 -0.272228 0
10.825000 -0.201967 0
10.830000 -0.133672 0
10.835000 -0.079208 0
10.840000 -0.040899 0
10.845000 -0.015178 0
10.850000 0.003194 0
10.855000 0.018522 0
10.860000 0.033455 0
10.865000 0.049310 0
10.870000 0.066630 0
10.875000 0.085589 0
10.880000 0.106189 0
10.885000 0.128347 0
10.890000 0.151913 0
10.895000 0.176675 0
10.900000 0.202365 0
10.905000 0.228657 0
10.910000 0.255173 0
10.915000 0.281489 0
10.920000 0.307147 0
10.925000 0.331666 0
10.930000 0.354556 0
10.935000 0.375334 0
10.940000 0.393540 0
10.945000 0.408754 0
10.950000 0.420611 0
10.955000 0.428816 0
10.960000 0.433155 0
10.965000 0.433504 5
10.970000 0.429832 0
10.975000 0.422206 0
10.980000 0.410789 0
10.985000 0.395830 0
10.990000 0.377656 0
10.995000 0.356661 0
11.000000 0.333292 0
11.005000 0.308030 0
11.010000 0.281375 0
11.015000 0.253831 0
11.020000 0.225885 0
11.025000 0.198001 0
11.030000 0.170602 0
11.035000 0.144060 0
11.040000 0.118695 0
11.045000 0.094765 0
11.050000 0.072470 0
11.055000 0.051946 0
11.060000 0.033275 0
11.065000 0.016489 0
11.070000 0.001570 0
11.075000 -0.011534 0
11.080000 -0.022909 0
11.085000 -0.032665 0
11.090000 -0.040926 0
11.095000 -0.047830 0
11.100000 -0.053517 0
11.105000 -0.058128 0
11.110000 -0.061798 0
11.115000 -0.064656 0
11.120000 -0.066823 0
11.125000 -0.068407 0
11.130000 -0.069505 0
11.135000 -0.070202 0
11.140000 -0.070573 0
11.145000 -0.070680 0
11.150000 -0.070578 0
11.155000 -0.070310 0
11.160000 -0.069586 0
11.165000 -0.068788 0
11.170000 -0.067994 0
11.175000 -0.067204 0
11.180000 -0.066417 0
11.185000 -0.065635 0
11.190000 -0.064857 0
11.195000 -0.064082 0
11.200000 -0.063311 0
11.205000 -0.062545 0
11.210000 -0.061781 0
11.215000 -0.061022 0
11.220000 -0.060267 0
11.225000 -0.059515 0
11.230000 -0.058766 0
11.235000 -0.058021 0
11.240000 -0.057278 0
11.245000 -0.056537 0
11.250000 -0.055796 0
11.255000 -0.055053 0
11.260000 -0.054301 0
11.265000 -0.053534 0
11.270000 -0.052738 0
11.275000 -0.051894 0
11.280000 -0.050972 0
11.285000 -0.049926 0
11.290000 -0.048691 0
11.295000 -0.047177 0
11.300000 -0.045262 0
11.305000 -0.042784 0
11.310000 -0.039540 0
11.315000 -0.035282 0
11.320000 -0.029721 0
11.325000 -0.022535 0
11.330000 -0.013391 0
11.335000 -0.001966 0
11.340000 0.012010 0
11.345000 0.028719 0
11.350000 0.048203 0
11.355000 0.070322 0
11.360000 0.094719 0
11.365000 0.120799 0
11.370000 0.147733 0
11.375000 0.174486 0
11.380000 0.199874 0
11.385000 0.222644 0
11.390000 0.241576 0
11.395000 0.255591 0
11.400000 0.263846 0
11.405000 0.265825 1
11.410000 0.261386 0
11.415000 0.250776 0
11.420000 0.234614 0
11.425000 0.213824 0
11.430000 0.189548 0
11.435000 0.163044 0
11.440000 0.135578 0
11.445000 0.108314 0
11.450000 0.082223 0
11.455000 0.057962 0
11.460000 0.035702 0
11.465000 0.014843 0
11.470000 -0.006327 0
11.475000 -0.030762 0
11.480000 -0.061984 0
11.485000 -0.102129 0
11.490000 -0.148964 0
11.495000 -0.193435 0
11.500000 -0.219622 2
11.505000 -0.207603 0
11.510000 -0.137719 0
11.515000 0.005013 0
11.520000 0.224970 0
11.525000 0.506683 0
11.530000 0.806237 0
11.535000 1.054228 0
11.540000 1.178067 3
11.545000 1.134648 0
11.550000 0.934377 0
11.555000 0.635540 0
11.560000 0.314071 0
11.565000 0.032808 0
11.570000 -0.172455 0
11.575000 -0.290743 0
11.580000 -0.328596 4
11.585000 -0.304512 0
11.590000 -0.243944 0
11.595000 -0.172398 0
11.600000 -0.108395 0
11.605000 -0.060159 0
11.610000 -0.027275 0
11.615000 -0.005039 0
11.620000 0.011691 0
11.625000 0.026619 0
11.630000 0.041819 0
11.635000 0.058241 0
11.640000 0.076244 0
11.645000 0.095913 0
11.650000 0.117208 0
11.655000 0.140014 0
11.660000 0.164149 0
11.665000 0.189374 0
11.670000 0.215388 0
11.675000 0.241834 0
11.680000 0.268306 0
11.685000 0.294356 0
11.690000 0.319506 0
11.695000 0.343261 0
11.700000 0.365125 0
11.705000 0.384618 0
11.710000 0.401294 0
11.715000 0.414752 0
11.720000 0.424659 0
11.725000 0.430760 0
11.730000 0.432884 5
11.735000 0.430960 0
11.740000 0.425014 0
11.745000 0.415167 0
11.750000 0.401637 0
11.755000 0.384724 0
11.760000 0.364804 0
11.765000 0.342308 0
11.770000 0.317714 0
11.775000 0.291524 0
11.780000 0.264249 0
11.785000 0.236392 0
11.790000 0.208433 0
11.795000 0.180816 0
11.800000 0.153940 0
11.805000 0.128147 0
11.810000 0.103720 0
11.815000 0.080880 0
11.820000 0.059787 0
11.825000 0.040541 0
11.830000 0.023188 0
11.835000 0.007725 0
11.840000 -0.005892 0
11.845000 -0.017742 0
11.850000 -0.027928 0
11.855000 -0.036576 0
11.860000 -0.043820 0
11.865000 -0.049804 0
11.870000 -0.054669 0
11.875000 -0.058556 0
11.880000 -0.061597 0
11.885000 -0.063916 0
11.890000 -0.065625 0
11.895000 -0.066825 0
11.900000 -0.067606 0
11.905000 -0.068045 0
11.910000 -0.068208 0
11.915000 -0.068151 0
11.920000 -0.067920 0
11.925000 -0.067492 0
11.930000 -0.066705 0
11.935000 -0.065921 0
11.940000 -0.065141 0
11.945000 -0.064365 0
11.950000 -0.063593 0
11.955000 -0.062825 0
11.960000 -0.062060 0
11.965000 -0.061300 0
11.970000 -0.060543 0
11.975000 -0.059790 0
11.980000 -0.059041 0
11.985000 -0.058295 0
11.990000 -0.057553 0
11.995000 -0.056814 0
12.000000 -0.056079 0
12.005000 -0.055346 0
12.010000 -0.054614 0
12.015000 -0.053883 0
12.020000 -0.053149 0
12.025000 -0.052407 0
12.030000 -0.051650 0
12.035000 -0.050863 0
12.040000 -0.050028 0
12.045000 -0.049113 0
12.050000 -0.048072 0
12.055000 -0.046838 0
12.060000 -0.045320 0
12.065000 -0.043390 0
12.070000 -0.040884 0
12.075000 -0.037593 0
12.080000 -0.033262 0
12.085000 -0.027595 0
12.090000 -0.020265 0
12.095000 -0.010931 0
12.100000 0.000728 0
12.105000 0.014982 0
12.110000 0.032002 0
12.115000 0.051810 0
12.120000 0.074242 0
12.125000 0.098903 0
12.130000 0.125158 0
12.135000 0.152133 0
12.140000 0.178751 0
12.145000 0.203793 0
12.150000 0.225987 0
12.155000 0.244112 0
12.160000 0.257108 0
12.165000 0.264177 0
12.170000 0.264865 1
12.175000 0.259108 0
12.180000 0.247238 0
12.185000 0.229955 0
12.190000 0.208255 0
12.195000 0.183334 0
12.200000 0.156480 0
12.205000 0.128960 0
12.210000 0.101916 0
12.215000 0.076262 0
12.220000 0.052556 0
12.225000 0.030787 0
12.230000 0.010064 0
12.235000 -0.011727 0
12.240000 -0.037873 0
12.245000 -0.071793 0
12.250000 -0.114608 0
12.255000 -0.162034 0
12.260000 -0.202467 0
12.265000 -0.217971 2
12.270000 -0.187931 0
12.275000 -0.093526 0
12.280000 0.077472 0
12.285000 0.323419 0
12.290000 0.618617 0
12.295000 0.907415 0
12.300000 1.114519 0
12.305000 1.174387 3
12.310000 1.063684 0
12.315000 0.814715 0
12.320000 0.497676 0
12.325000 0.186697 0
12.330000 -0.065572 0
12.335000 -0.234313 0
12.340000 -0.316744 0
12.345000 -0.325157 4
12.350000 -0.281926 0
12.355000 -0.213684 0
12.360000 -0.143784 0
12.365000 -0.086402 0
12.370000 -0.045493 0
12.375000 -0.018121 0
12.380000 0.001027 0
12.385000 0.016580 0
12.390000 0.031470 0
12.395000 0.047186 0
12.400000 0.064349 0
12.405000 0.083162 0
12.410000 0.103640 0
12.415000 0.125704 0
12.420000 0.149203 0
12.425000 0.173927 0
12.430000 0.199601 0
12.435000 0.225895 0
12.440000 0.252423 0
12.445000 0.278751 0
12.450000 0.304412 0
12.455000 0.328912 0
12.460000 0.351750 0
12.465000 0.372433 0
12.470000 0.390491 0
12.475000 0.405498 0
12.480000 0.417085 0
12.485000 0.424955 0
12.490000 0.428899 5
12.495000 0.428798 0
12.500000 0.424633 0
12.505000 0.416486 0
12.510000 0.404535 0
12.515000 0.389046 0
12.520000 0.370369 0
12.525000 0.348915 0
12.530000 0.325150 0
12.535000 0.299570 0
12.540000 0.272690 0
12.545000 0.245021 0
12.550000 0.217060 0
12.555000 0.189270 0
12.560000 0.162072 0
12.565000 0.135834 0
12.570000 0.110865 0
12.575000 0.087412 0
12.580000 0.065659 0
12.585000 0.045729 0
12.590000 0.027689 0
12.595000 0.011553 0
12.600000 -0.002710 0
12.605000 -0.015167 0
12.610000 -0.025915 0
12.615000 -0.035072 0
12.620000 -0.042773 0
12.625000 -0.049160 0
12.630000 -0.054375 0
12.635000 -0.058563 0
12.640000 -0.061859 0
12.645000 -0.064390 0
12.650000 -0.066275 0
12.655000 -0.067619 0
12.660000 -0.068514 0
12.665000 -0.069044 0
12.670000 -0.069278 0
12.675000 -0.069275 0
12.680000 -0.069085 0
12.685000 -0.068682 0
12.690000 -0.067889 0
12.695000 -0.067099 0
12.700000 -0.066313 0
12.705000 -0.065531 0
12.710000 -0.064754 0
12.715000 -0.063980 0
12.720000 -0.063209 0
12.725000 -0.062443 0
12.730000 -0.061681 0
12.735000 -0.060922 0
12.740000 -0.060167 0
12.745000 -0.059416 0
12.750000 -0.058668 0
12.755000 -0.057924 0
12.760000 -0.057183 0
12.765000 -0.056445 0
12.770000 -0.055709 0
12.775000 -0.054973 0
12.780000 -0.054235 0
12.785000 -0.053491 0
12.790000 -0.052732 0
12.795000 -0.051948 0
12.800000 -0.051120 0
12.805000 -0.050218 0
12.810000 -0.049199 0
12.815000 -0.048002 0
12.820000 -0.046536 0
12.825000 -0.044683 0
12.830000 -0.042282 0
12.835000 -0.039129 0
12.840000 -0.034977 0
12.845000 -0.029531 0
12.850000 -0.022467 0
12.855000 -0.013441 0
12.860000 -0.002123 0
12.865000 0.011767 0
12.870000 0.028419 0
12.875000 0.047878 0
12.880000 0.070005 0
12.885000 0.094433 0
12.890000 0.120550 0
12.895000 0.147502 0
12.900000 0.174224 0
12.905000 0.199497 0
12.910000 0.222042 0
12.915000 0.240616 0
12.920000 0.254129 0
12.925000 0.261751 0
12.930000 0.262989 1
12.935000 0.257745 0
12.940000 0.246324 0
12.945000 0.229406 0
12.950000 0.207974 0
12.955000 0.183227 0
12.960000 0.156458 0
12.965000 0.128951 0
12.970000 0.101867 0
12.975000 0.076140 0
12.980000 0.052353 0
12.985000 0.030526 0
12.990000 0.009799 0
12.995000 -0.011915 0
13.000000 -0.037904 0
13.005000 -0.071633 0
13.010000 -0.114311 0
13.015000 -0.161730 0
13.020000 -0.202284 0
13.025000 -0.217934 2
13.030000 -0.187897 0
13.035000 -0.093200 0
13.040000 0.078444 0
13.045000 0.325212 0
13.050000 0.620828 0
13.055000 0.908723 0
13.060000 1.112856 0
13.065000 1.167879 3
13.070000 1.052798 0
13.075000 0.801482 0
13.080000 0.483961 0
13.085000 0.173481 0
13.090000 -0.078154 0
13.095000 -0.246571 0
13.100000 -0.329083 0
13.105000 -0.337846 4
13.110000 -0.294982 0
13.115000 -0.226870 0
13.120000 -0.156757 0
13.125000 -0.098906 0
13.130000 -0.057461 0
13.135000 -0.029646 0
13.140000 -0.010216 0
13.145000 0.005473 0
13.150000 0.020403 0
13.155000 0.036103 0
13.160000 0.053222 0
13.165000 0.071977 0
13.170000 0.092392 0
13.175000 0.114392 0
13.180000 0.137833 0
13.185000 0.162510 0
13.190000 0.188160 0
13.195000 0.214456 0
13.200000 0.241024 0
13.205000 0.267437 0
13.210000 0.293236 0
13.215000 0.317933 0
13.220000 0.341032 0
13.225000 0.362043 0
13.230000 0.380498 0
13.235000 0.395967 0
13.240000 0.408076 0
13.245000 0.416523 0
13.250000 0.421086 0
13.255000 0.421635 5
13.260000 0.418135 0
13.265000 0.410653 0
13.270000 0.399350 0
13.275000 0.384476 0
13.280000 0.366364 0
13.285000 0.345413 0
13.290000 0.322074 0
13.295000 0.296837 0
13.300000 0.270207 0
13.305000 0.242694 0
13.310000 0.214793 0
13.315000 0.186971 0
13.320000 0.159655 0
13.325000 0.133220 0
13.330000 0.107987 0
13.335000 0.084213 0
13.340000 0.062095 0
13.345000 0.041768 0
13.350000 0.023311 0
13.355000 0.006750 0
13.360000 -0.007935 0
13.365000 -0.020803 0
13.370000 -0.031942 0
13.375000 -0.041466 0
13.380000 -0.049503 0
13.385000 -0.056194 0
13.390000 -0.061679 0
13.395000 -0.066102 0
13.400000 -0.069599 0
13.405000 -0.072300 0
13.410000 -0.074324 0
13.415000 -0.075778 0
13.420000 -0.076761 0
13.425000 -0.077355 0
13.430000 -0.077634 0
13.435000 -0.077660 0
13.440000 -0.077484 0
13.445000 -0.077151 0
13.450000 -0.076388 0
13.455000 -0.075556 0
13.460000 -0.074728 0
13.465000 -0.073904 0
13.470000 -0.073085 0
13.475000 -0.072269 0
13.480000 -0.071457 0
13.485000 -0.070650 0
13.490000 -0.069847 0
13.495000 -0.069047 0
13.500000 -0.068252 0
13.505000 -0.067460 0
13.510000 -0.066672 0
13.515000 -0.065888 0
13.520000 -0.065108 0
13.525000 -0.064331 0
13.530000 -0.063556 0
13.535000 -0.062783 0
13.540000 -0.062009 0
13.545000 -0.061231 0
13.550000 -0.060443 0
13.555000 -0.059635 0
13.560000 -0.058792 0
13.565000 -0.057891 0
13.570000 -0.056896 0
13.575000 -0.055754 0
13.580000 -0.054389 0
13.585000 -0.052699 0
13.590000 -0.050543 0
13.595000 -0.047742 0
13.600000 -0.044071 0
13.605000 -0.039258 0
13.610000 -0.032997 0
13.615000 -0.024953 0
13.620000 -0.014788 0
13.625000 -0.002196 0
13.630000 0.013064 0
13.635000 0.031114 0
13.640000 0.051917 0
13.645000 0.075229 0
13.650000 0.100573 0
13.655000 0.127229 0
13.660000 0.154247 0
13.665000 0.180494 0
13.670000 0.204722 0
13.675000 0.225666 0
13.680000 0.242152 0
13.685000 0.253200 0
13.690000 0.258126 1
13.695000 0.256606 0
13.700000 0.248716 0
13.705000 0.234920 0
13.710000 0.216029 0
13.715000 0.193116 0
13.720000 0.167421 0
13.725000 0.140235 0
13.730000 0.112792 0
13.735000 0.086168 0
13.740000 0.061171 0
13.745000 0.038193 0
13.750000 0.016968 0
13.755000 -0.003780 0
13.760000 -0.026596 0
13.765000 -0.054996 0
13.770000 -0.091952 0
13.775000 -0.137104 0
13.780000 -0.183815 0
13.785000 -0.218108 0
13.790000 -0.220691 2
13.795000 -0.171079 0
13.800000 -0.052070 0
13.805000 0.144945 0
13.810000 0.411514 0
13.815000 0.712165 0
13.820000 0.982662 0
13.825000 1.147110 0
13.830000 1.150982 3
13.835000 0.991149 0
13.840000 0.714179 0
13.845000 0.392023 0
13.850000 0.091929 0
13.855000 -0.142385 0
13.860000 -0.292670 0
13.865000 -0.359775 4
13.870000 -0.357657 0
13.875000 -0.308922 0
13.880000 -0.239142 0
13.885000 -0.169872 0
13.890000 -0.113651 0
13.895000 -0.073552 0
13.900000 -0.046475 0
13.905000 -0.027298 0
13.910000 -0.011605 0
13.915000 0.003416 0
13.920000 0.019213 0
13.925000 0.036407 0
13.930000 0.055207 0
13.935000 0.075640 0
13.940000 0.097634 0
13.945000 0.121055 0
13.950000 0.145709 0
13.955000 0.171343 0
13.960000 0.197651 0
13.965000 0.224272 0
13.970000 0.250801 0
13.975000 0.276798 0
13.980000 0.301795 0
13.985000 0.325312 0
13.990000 0.346871 0
13.995000 0.366015 0
14.000000 0.382317 0
14.005000 0.395401 0
14.010000 0.404955 0
14.015000 0.410741 0
14.020000 0.412606 5
14.025000 0.410489 0
14.030000 0.404422 0
14.035000 0.394528 0
14.040000 0.381021 0
14.045000 0.364194 0
14.050000 0.344410 0
14.055000 0.322086 0
14.060000 0.297682 0
14.065000 0.271684 0
14.070000 0.244585 0
14.075000 0.216873 0
14.080000 0.189015 0
14.085000 0.161445 0
14.090000 0.134554 0
14.095000 0.108680 0
14.100000 0.084107 0
14.105000 0.061060 0
14.110000 0.039704 0
14.115000 0.020148 0
14.120000 0.002448 0
14.125000 -0.013388 0
14.130000 -0.027394 0
14.135000 -0.039635 0
14.140000 -0.050207 0
14.145000 -0.059225 0
14.150000 -0.066817 0
14.155000 -0.073119 0
14.160000 -0.078269 0
14.165000 -0.082404 0
14.170000 -0.085656 0
14.175000 -0.088148 0
14.180000 -0.089993 0
14.185000 -0.091294 0
14.190000 -0.092144 0
14.195000 -0.092621 0
14.200000 -0.092796 0
14.205000 -0.092727 0
14.210000 -0.092465 0
14.215000 -0.092049 0
14.220000 -0.091211 0
14.225000 -0.090305 0
14.230000 -0.089404 0
14.235000 -0.088507 0
14.240000 -0.087614 0
14.245000 -0.086726 0
14.250000 -0.085842 0
14.255000 -0.084963 0
14.260000 -0.084088 0
14.265000 -0.083218 0
14.270000 -0.082352 0
14.275000 -0.081490 0
14.280000 -0.080632 0
14.285000 -0.079779 0
14.290000 -0.078929 0
14.295000 -0.078083 0
14.300000 -0.077240 0
14.305000 -0.076400 0
14.310000 -0.075559 0
14.315000 -0.074716 0
14.320000 -0.073866 0
14.325000 -0.072999 0
14.330000 -0.072105 0
14.335000 -0.071162 0
14.340000 -0.070141 0
14.345000 -0.068996 0
14.350000 -0.067665 0
14.355000 -0.066057 0
14.360000 -0.064054 0
14.365000 -0.061497 0
14.370000 -0.058188 0
14.375000 -0.053885 0
14.380000 -0.048306 0
14.385000 -0.041138 0
14.390000 -0.032052 0
14.395000 -0.020732 0
14.400000 -0.006906 0
14.405000 0.009614 0
14.410000 0.028884 0
14.415000 0.050788 0
14.420000 0.075003 0
14.425000 0.100976 0
14.430000 0.127925 0
14.435000 0.154861 0
14.440000 0.180640 0
14.445000 0.204040 0
14.450000 0.223851 0
14.455000 0.238980 0
14.460000 0.248549 0
14.465000 0.251980 1
14.470000 0.249050 0
14.475000 0.239920 0
14.480000 0.225113 0
14.485000 0.205470 0
14.490000 0.182067 0
14.495000 0.156118 0
14.500000 0.128872 0
14.505000 0.101510 0
14.510000 0.075051 0
14.515000 0.050247 0
14.520000 0.027439 0
14.525000 0.006321 0
14.530000 -0.014390 0
14.535000 -0.037195 0
14.540000 -0.065503 0
14.545000 -0.102213 0
14.550000 -0.147084 0
14.555000 -0.193959 0
14.560000 -0.229658 0
14.565000 -0.235736 2
14.570000 -0.192285 0
14.575000 -0.082114 0
14.580000 0.104471 0
14.585000 0.362142 0
14.590000 0.660974 0
14.595000 0.942806 0
14.600000 1.134010 0
14.605000 1.174862 3
14.610000 1.049285 0
14.615000 0.792982 0
14.620000 0.474573 0
14.625000 0.164495 0
14.630000 -0.087560 0
14.635000 -0.257963 0
14.640000 -0.343751 0
14.645000 -0.356195 4
14.650000 -0.316234 0
14.655000 -0.249289 0
14.660000 -0.178403 0
14.665000 -0.118463 0
14.670000 -0.074607 0
14.675000 -0.044842 0
14.680000 -0.024225 0
14.685000 -0.008033 0
14.690000 0.006939 0
14.695000 0.022424 0
14.700000 0.039200 0
14.705000 0.057550 0
14.710000 0.077535 0
14.715000 0.099104 0
14.720000 0.122138 0
14.725000 0.146458 0
14.730000 0.171829 0
14.735000 0.197957 0
14.740000 0.224496 0
14.745000 0.251056 0
14.750000 0.277203 0
14.755000 0.302477 0
14.760000 0.326403 0
14.765000 0.348501 0
14.770000 0.368308 0
14.775000 0.385389 0
14.780000 0.399354 0
14.785000 0.409873 0
14.790000 0.416687 0
14.795000 0.419619 5
14.800000 0.418583 0
14.805000 0.413583 0
14.810000 0.404719 0
14.815000 0.392178 0
14.820000 0.376232 0
14.825000 0.357222 0
14.830000 0.335551 0
14.835000 0.311668 0
14.840000 0.286050 0
14.845000 0.259190 0
14.850000 0.231576 0
14.855000 0.203682 0
14.860000 0.175951 0
14.865000 0.148787 0
14.870000 0.122545 0
14.875000 0.097522 0
14.880000 0.073962 0
14.885000 0.052047 0
14.890000 0.031903 0
14.895000 0.013600 0
14.900000 -0.002840 0
14.905000 -0.017436 0
14.910000 -0.030247 0
14.915000 -0.041359 0
14.920000 -0.050880 0
14.925000 -0.058936 0
14.930000 -0.065661 0
14.935000 -0.071191 0
14.940000 -0.075664 0
14.945000 -0.079213 0
14.950000 -0.081965 0
14.955000 -0.084035 0
14.960000 -0.085530 0
14.965000 -0.086545 0
14.970000 -0.087163 0
14.975000 -0.087457 0
14.980000 -0.087490 0
14.985000 -0.087313 0
14.990000 -0.086971 0
14.995000 -0.086440 0
15.000000 -0.085558 0
15.005000 -0.084680 0
15.010000 -0.083807 0
15.015000 -0.082938 0
15.020000 -0.082073 0
15.025000 -0.081213 0
15.030000 -0.080357 0
15.035000 -0.079505 0
15.040000 -0.078657 0
15.045000 -0.077814 0
15.050000 -0.076974 0
15.055000 -0.076139 0
15.060000 -0.075308 0
15.065000 -0.074481 0
15.070000 -0.073658 0
15.075000 -0.072837 0
15.080000 -0.072019 0
15.085000 -0.071202 0
15.090000 -0.070384 0
15.095000 -0.069560 0
15.100000 -0.068724 0
15.105000 -0.067865 0
15.110000 -0.066965 0
15.115000 -0.066000 0
15.120000 -0.064930 0
15.125000 -0.063700 0
15.130000 -0.062230 0
15.135000 -0.060414 0
15.140000 -0.058110 0
15.145000 -0.055134 0
15.150000 -0.051262 0
15.155000 -0.046228 0
15.160000 -0.039729 0
15.165000 -0.031441 0
15.170000 -0.021040 0
15.175000 -0.008234 0
15.180000 0.007202 0
15.185000 0.025380 0
15.190000 0.046257 0
15.195000 0.069595 0
15.200000 0.094934 0
15.205000 0.121583 0
15.210000 0.148631 0
15.215000 0.174994 0
15.220000 0.199472 0
15.225000 0.220843 0
15.230000 0.237957 0
15.235000 0.249840 0
15.240000 0.255788 1
15.245000 0.255430 0
15.250000 0.248769 0
15.255000 0.236183 0
15.260000 0.218390 0
15.265000 0.196377 0
15.270000 0.171310 0
15.275000 0.144433 0
15.280000 0.116964 0
15.285000 0.089997 0
15.290000 0.064408 0
15.295000 0.040731 0
15.300000 0.018971 0
15.305000 -0.001698 0
15.310000 -0.023248 0
15.315000 -0.048789 0
15.320000 -0.081691 0
15.325000 -0.123425 0
15.330000 -0.170667 0
15.335000 -0.213254 0
15.340000 -0.234680 2
15.345000 -0.215208 0
15.350000 -0.136003 0
15.355000 0.016584 0
15.360000 0.244969 0
15.365000 0.531175 0
15.370000 0.829225 0
15.375000 1.069694 0
15.380000 1.182689 3
15.385000 1.129549 0
15.390000 0.923630 0
15.395000 0.623071 0
15.400000 0.301743 0
15.405000 0.020424 0
15.410000 -0.186100 0
15.415000 -0.306883 0
15.420000 -0.347878 4
15.425000 -0.326652 0
15.430000 -0.267725 0
15.435000 -0.196149 0
15.440000 -0.130729 0
15.445000 -0.080465 0
15.450000 -0.045720 0
15.455000 -0.022208 0
15.460000 -0.004826 0
15.465000 0.010292 0
15.470000 0.025408 0
15.475000 0.041605 0
15.480000 0.059315 0
15.485000 0.078660 0
15.490000 0.099623 0
15.495000 0.122109 0
15.500000 0.145957 0
15.505000 0.170949 0
15.510000 0.196811 0
15.515000 0.223213 0
15.520000 0.249773 0
15.525000 0.276070 0
15.530000 0.301648 0
15.535000 0.326030 0
15.540000 0.348733 0
15.545000 0.369284 0
15.550000 0.387232 0
15.555000 0.402170 0
15.560000 0.413743 0
15.565000 0.421668 0
15.570000 0.425740 0
15.575000 0.425845 5
15.580000 0.421960 0
15.585000 0.414158 0
15.590000 0.402602 0
15.595000 0.387541 0
15.600000 0.369304 0
15.605000 0.348280 0
15.610000 0.324909 0
15.615000 0.299667 0
15.620000 0.273048 0
15.625000 0.245547 0
15.630000 0.217645 0
15.635000 0.189800 0
15.640000 0.162428 0
15.645000 0.135899 0
15.650000 0.110529 0
15.655000 0.086575 0
15.660000 0.064235 0
15.665000 0.043648 0
15.670000 0.024899 0
15.675000 0.008019 0
15.680000 -0.007002 0
15.685000 -0.020217 0
15.690000 -0.031705 0
15.695000 -0.041574 0
15.700000 -0.049945 0
15.705000 -0.056953 0
15.710000 -0.062736 0
15.715000 -0.067431 0
15.720000 -0.071176 0
15.725000 -0.074097 0
15.730000 -0.076314 0
15.735000 -0.077937 0
15.740000 -0.079061 0
15.745000 -0.079775 0
15.750000 -0.080152 0
15.755000 -0.080258 0
15.760000 -0.080146 0
15.765000 -0.079861 0
15.770000 -0.079380 0
15.775000 -0.078533 0
15.780000 -0.077690 0
15.785000 -0.076851 0
15.790000 -0.076017 0
15.795000 -0.075187 0
15.800000 -0.074361 0
15.805000 -0.073539 0
15.810000 -0.072721 0
15.815000 -0.071907 0
15.820000 -0.071098 0
15.825000 -0.070292 0
15.830000 -0.069490 0
15.835000 -0.068692 0
15.840000 -0.067898 0
15.845000 -0.067107 0
15.850000 -0.066320 0
15.855000 -0.065535 0
15.860000 -0.064750 0
15.865000 -0.063965 0
15.870000 -0.063173 0
15.875000 -0.062370 0
15.880000 -0.061545 0
15.885000 -0.060680 0
15.890000 -0.059750 0
15.895000 -0.058717 0
15.900000 -0.057525 0
15.905000 -0.056097 0
15.910000 -0.054324 0
15.915000 -0.052066 0
15.920000 -0.049139 0
15.925000 -0.045317 0
15.930000 -0.040333 0
15.935000 -0.033882 0
15.940000 -0.025639 0
15.945000 -0.015276 0
15.950000 -0.002498 0
15.955000 0.012920 0
15.960000 0.031093 0
15.965000 0.051974 0
15.970000 0.075321 0
15.975000 0.100667 0
15.980000 0.127310 0
15.985000 0.154330 0
15.990000 0.180627 0
15.995000 0.204992 0
16.000000 0.226192 0
16.005000 0.243075 0
16.010000 0.254669 0
16.015000 0.260277 1
16.020000 0.259545 0
16.025000 0.252498 0
16.030000 0.239538 0
16.035000 0.221408 0
16.040000 0.199116 0
16.045000 0.173848 0
16.050000 0.146858 0
16.055000 0.119369 0
16.060000 0.092467 0
16.065000 0.067011 0
16.070000 0.043502 0
16.075000 0.021877 0
16.080000 0.001203 0
16.085000 -0.020633 0
16.090000 -0.046860 0
16.095000 -0.080787 0
16.100000 -0.123492 0
16.105000 -0.170878 0
16.110000 -0.211835 0
16.115000 -0.229106 2
16.120000 -0.202683 0
16.125000 -0.114022 0
16.130000 0.049502 0
16.135000 0.288016 0
16.140000 0.579597 0
16.145000 0.873646 0
16.150000 1.098210 0
16.155000 1.185794 3
16.160000 1.104663 0
16.165000 0.877058 0
16.170000 0.567239 0
16.175000 0.249624 0
16.180000 -0.018673 0
16.185000 -0.207623 0
16.190000 -0.310224 0
16.195000 -0.335454 4
16.200000 -0.303200 0
16.205000 -0.239144 0
16.210000 -0.167769 0
16.215000 -0.105844 0
16.220000 -0.059985 0
16.225000 -0.028876 0
16.230000 -0.007618 0
16.235000 0.008741 0
16.240000 0.023643 0
16.245000 0.038970 0
16.250000 0.055573 0
16.255000 0.073764 0
16.260000 0.093609 0
16.265000 0.115063 0
16.270000 0.138003 0
16.275000 0.162248 0
16.280000 0.187555 0
16.285000 0.213623 0
16.290000 0.240098 0
16.295000 0.266575 0
16.300000 0.292611 0
16.305000 0.317733 0
16.310000 0.341452 0
16.315000 0.363278 0
16.320000 0.382738 0
16.325000 0.399392 0
16.330000 0.412846 0
16.335000 0.422772 0
16.340000 0.428915 0
16.345000 0.431109 5
16.350000 0.429281 0
16.355000 0.423454 0
16.360000 0.413747 0
16.365000 0.400370 0
16.370000 0.383618 0
16.375000 0.363858 0
16.380000 0.341515 0
16.385000 0.317056 0
16.390000 0.290977 0
16.395000 0.263781 0
16.400000 0.235968 0
16.405000 0.208014 0
16.410000 0.180361 0
16.415000 0.153407 0
16.420000 0.127496 0
16.425000 0.102914 0
16.430000 0.079886 0
16.435000 0.058578 0
16.440000 0.039096 0
16.445000 0.021491 0
16.450000 0.005768 0
16.455000 -0.008111 0
16.460000 -0.020219 0
16.465000 -0.030656 0
16.470000 -0.039541 0
16.475000 -0.047007 0
16.480000 -0.053194 0
16.485000 -0.058244 0
16.490000 -0.062293 0
16.495000 -0.065477 0
16.500000 -0.067917 0
16.505000 -0.069729 0
16.510000 -0.071014 0
16.515000 -0.071863 0
16.520000 -0.072355 0
16.525000 -0.072558 0
16.530000 -0.072530 0
16.535000 -0.072318 0
16.540000 -0.071897 0
16.545000 -0.071087 0
16.550000 -0.070282 0
16.555000 -0.069480 0
16.560000 -0.068682 0
16.565000 -0.067889 0
16.570000 -0.067099 0
16.575000 -0.066313 0
16.580000 -0.065532 0
16.585000 -0.064754 0
16.590000 -0.063980 0
16.595000 -0.063209 0
16.600000 -0.062443 0
16.605000 -0.061680 0
16.610000 -0.060921 0
16.615000 -0.060165 0
16.620000 -0.059413 0
16.625000 -0.058662 0
16.630000 -0.057912 0
16.635000 -0.057161 0
16.640000 -0.056404 0
16.645000 -0.055636 0
16.650000 -0.054845 0
16.655000 -0.054014 0
16.660000 -0.053119 0
16.665000 -0.052120 0
16.670000 -0.050961 0
16.675000 -0.049563 0
16.680000 -0.047817 0
16.685000 -0.045576 0
16.690000 -0.042655 0
16.695000 -0.038823 0
16.700000 -0.033806 0
16.705000 -0.027292 0
16.710000 -0.018950 0
16.715000 -0.008449 0
16.720000 0.004507 0
16.725000 0.020142 0
16.730000 0.038557 0
16.735000 0.059688 0
16.740000 0.083266 0
16.745000 0.108788 0
16.750000 0.135513 0
16.755000 0.162478 0
16.760000 0.188547 0
16.765000 0.212480 0
16.770000 0.233031 0
16.775000 0.249051 0
16.780000 0.259594 0
16.785000 0.264011 1
16.790000 0.262012 0
16.795000 0.253697 0
16.800000 0.239551 0
16.805000 0.220391 0
16.810000 0.197293 0
16.815000 0.171485 0
16.820000 0.144243 0
16.825000 0.116786 0
16.830000 0.090169 0
16.835000 0.065184 0
16.840000 0.042210 0
16.845000 0.020973 0
16.850000 0.000206 0
16.855000 -0.022610 0
16.860000 -0.050948 0
16.865000 -0.087770 0
16.870000 -0.132805 0
16.875000 -0.179651 0
16.880000 -0.214679 0
16.885000 -0.218928 2
16.890000 -0.172106 0
16.895000 -0.056957 0
16.900000 0.135640 0
16.905000 0.398578 0
16.910000 0.698662 0
16.915000 0.974007 0
16.920000 1.149383 0
16.925000 1.167908 3
16.930000 1.018998 0
16.935000 0.746339 0
16.940000 0.424457 0
16.945000 0.124101 0
16.950000 -0.108854 0
16.955000 -0.255709 0
16.960000 -0.317991 4
16.965000 -0.311012 0
16.970000 -0.258939 0
16.975000 -0.188383 0
16.980000 -0.120819 0
16.985000 -0.067715 0
16.990000 -0.030820 0
16.995000 -0.006159 0
17.000000 0.011625 0
17.005000 0.026754 0
17.010000 0.041735 0
17.015000 0.057771 0
17.020000 0.075341 0
17.025000 0.094581 0
17.030000 0.115475 0
17.035000 0.137922 0
17.040000 0.161756 0
17.045000 0.186745 0
17.050000 0.212601 0
17.055000 0.238974 0
17.060000 0.265463 0
17.065000 0.291622 0
17.070000 0.316974 0
17.075000 0.341019 0
17.080000 0.363255 0
17.085000 0.383192 0
17.090000 0.400370 0
17.095000 0.414376 0
17.100000 0.424861 0
17.105000 0.431551 0
17.110000 0.434262 5
17.115000 0.432906 0
17.120000 0.427495 0
17.125000 0.418138 0
17.130000 0.405044 0
17.135000 0.388506 0
17.140000 0.368895 0
17.145000 0.346644 0
17.150000 0.322230 0
17.155000 0.296160 0
17.160000 0.268950 0
17.165000 0.241111 0
17.170000 0.213131 0
17.175000 0.185463 0
17.180000 0.158513 0
17.185000 0.132631 0
17.190000 0.108108 0
17.195000 0.085170 0
17.200000 0.063983 0
17.205000 0.044650 0
17.210000 0.027220 0
17.215000 0.011692 0
17.220000 -0.001979 0
17.225000 -0.013871 0
17.230000 -0.024090 0
17.235000 -0.032759 0
17.240000 -0.040018 0
17.245000 -0.046009 0
17.250000 -0.050878 0
17.255000 -0.054765 0
17.260000 -0.057805 0
17.265000 -0.060121 0
17.270000 -0.061828 0
17.275000 -0.063027 0
17.280000 -0.063808 0
17.285000 -0.064249 0
17.290000 -0.064416 0
17.295000 -0.064364 0
17.300000 -0.064141 0
17.305000 -0.063725 0
17.310000 -0.062956 0
17.315000 -0.062191 0
17.320000 -0.061430 0
17.325000 -0.060672 0
17.330000 -0.059918 0
17.335000 -0.059169 0
17.340000 -0.058422 0
17.345000 -0.057680 0
17.350000 -0.056941 0
17.355000 -0.056206 0
17.360000 -0.055475 0
17.365000 -0.054747 0
17.370000 -0.054022 0
17.375000 -0.053301 0
17.380000 -0.052583 0
17.385000 -0.051867 0
17.390000 -0.051153 0
17.395000 -0.050438 0
17.400000 -0.049719 0
17.405000 -0.048991 0
17.410000 -0.048246 0
17.415000 -0.047467 0
17.420000 -0.046634 0
17.425000 -0.045712 0
17.430000 -0.044650 0
17.435000 -0.043376 0
17.440000 -0.041788 0
17.445000 -0.039751 0
17.450000 -0.037087 0
17.455000 -0.033573 0
17.460000 -0.028939 0
17.465000 -0.022878 0
17.470000 -0.015051 0
17.475000 -0.005118 0
17.480000 0.007239 0
17.485000 0.022267 0
17.490000 0.040101 0
17.495000 0.060714 0
17.500000 0.083870 0
17.505000 0.109097 0
17.510000 0.135677 0
17.515000 0.162653 0
17.520000 0.188881 0
17.525000 0.213101 0
17.530000 0.234030 0
17.535000 0.250477 0
17.540000 0.261449 0
17.545000 0.266255 1
17.550000 0.264574 0
17.555000 0.256487 0
17.560000 0.242475 0
17.565000 0.223368 0
17.570000 0.200262 0
17.575000 0.174418 0
17.580000 0.147143 0
17.585000 0.119680 0
17.590000 0.093105 0
17.595000 0.068212 0
17.600000 0.045357 0
17.605000 0.024199 0
17.610000 0.003336 0
17.615000 -0.019935 0
17.620000 -0.049208 0
17.625000 -0.087278 0
17.630000 -0.133173 0
17.635000 -0.179255 0
17.640000 -0.210494 2
17.645000 -0.206923 0
17.650000 -0.147996 0
17.655000 -0.017192 0
17.660000 0.192178 0
17.665000 0.467738 0
17.670000 0.768362 0
17.675000 1.025099 0
17.680000 1.162347 3
17.685000 1.133735 0
17.690000 0.945567 0
17.695000 0.652634 0
17.700000 0.330297 0
17.705000 0.043179 0
17.710000 -0.170437 0
17.715000 -0.297510 0
17.720000 -0.343057 4
17.725000 -0.324436 0
17.730000 -0.266511 0
17.735000 -0.195022 0
17.740000 -0.129444 0
17.745000 -0.079143 0
17.750000 -0.044524 0
17.755000 -0.021187 0
17.760000 -0.003930 0
17.765000 0.011152 0
17.770000 0.026309 0
17.775000 0.042602 0
17.780000 0.060442 0
17.785000 0.079940 0
17.790000 0.101071 0
17.795000 0.123728 0
17.800000 0.147741 0
17.805000 0.172880 0
17.810000 0.198855 0
17.815000 0.225321 0
17.820000 0.251879 0
17.825000 0.278091 0
17.830000 0.303485 0
17.835000 0.327571 0
17.840000 0.349856 0
17.845000 0.369857 0
17.850000 0.387123 0
17.855000 0.401248 0
17.860000 0.411887 0
17.865000 0.418770 0
17.870000 0.421712 5
17.875000 0.420624 0
17.880000 0.415511 0
17.885000 0.406477 0
17.890000 0.393720 0
17.895000 0.377523 0
17.900000 0.358244 0
17.905000 0.336304 0
17.910000 0.312168 0
17.915000 0.286333 0
17.920000 0.259305 0
17.925000 0.231588 0
17.930000 0.203667 0
17.935000 0.175992 0
17.940000 0.148969 0
17.945000 0.122953 0
17.950000 0.098239 0
17.955000 0.075061 0
17.960000 0.053593 0
17.965000 0.033947 0
17.970000 0.016183 0
17.975000 0.000308 0
17.980000 -0.013711 0
17.985000 -0.025946 0
17.990000 -0.036493 0
17.995000 -0.045473 0
18.000000 -0.053017 0
18.005000 -0.059266 0
18.010000 -0.064363 0
18.015000 -0.068447 0
18.020000 -0.071653 0
18.025000 -0.074106 0
18.030000 -0.075921 0
18.035000 -0.077202 0
18.040000 -0.078041 0
18.045000 -0.078518 0
18.050000 -0.078702 0
18.055000 -0.078652 0
18.060000 -0.078416 0
18.065000 -0.077968 0
18.070000 -0.077128 0
18.075000 -0.076292 0
18.080000 -0.075461 0
18.085000 -0.074633 0
18.090000 -0.073810 0
18.095000 -0.072991 0
18.100000 -0.072176 0
18.105000 -0.071365 0
18.110000 -0.070558 0
18.115000 -0.069755 0
18.120000 -0.068956 0
18.125000 -0.068160 0
18.130000 -0.067369 0
18.135000 -0.066582 0
18.140000 -0.065798 0
18.145000 -0.065017 0
18.150000 -0.064238 0
18.155000 -0.063460 0
18.160000 -0.062681 0
18.165000 -0.061897 0
18.170000 -0.061100 0
18.175000 -0.060280 0
18.180000 -0.059420 0
18.185000 -0.058493 0
18.190000 -0.057460 0
18.195000 -0.056263 0
18.200000 -0.054819 0
18.205000 -0.053018 0
18.210000 -0.050710 0
18.215000 -0.047704 0
18.220000 -0.043764 0
18.225000 -0.038611 0
18.230000 -0.031930 0
18.235000 -0.023384 0
18.240000 -0.012644 0
18.245000 0.000587 0
18.250000 0.016521 0
18.255000 0.035247 0
18.260000 0.056681 0
18.265000 0.080528 0
18.270000 0.106255 0
18.275000 0.133090 0
18.280000 0.160038 0
18.285000 0.185939 0
18.290000 0.209537 0
18.295000 0.229584 0
18.300000 0.244943 0
18.305000 0.254698 0
18.310000 0.258241 1
18.315000 0.255334 0
18.320000 0.246138 0
18.325000 0.231193 0
18.330000 0.211369 0
18.335000 0.187779 0
18.340000 0.161677 0
18.345000 0.134344 0
18.350000 0.106988 0
18.355000 0.080634 0
18.360000 0.056019 0
18.365000 0.033430 0
18.370000 0.012434 0
18.375000 -0.008466 0
18.380000 -0.032041 0
18.385000 -0.061847 0
18.390000 -0.100472 0
18.395000 -0.146609 0
18.400000 -0.192326 0
18.405000 -0.222529 2
18.410000 -0.217473 0
18.415000 -0.157011 0
18.420000 -0.025044 0
18.425000 0.184823 0
18.430000 0.460304 0
18.435000 0.761060 0
18.440000 1.019506 0
18.445000 1.161065 3
18.450000 1.138889 0
18.455000 0.957130 0
18.460000 0.667975 0
18.465000 0.345324 0
18.470000 0.054050 0
18.475000 -0.166253 0
18.480000 -0.301039 0
18.485000 -0.353926 4
18.490000 -0.340991 0
18.495000 -0.286167 0
18.500000 -0.215050 0
18.505000 -0.147854 0
18.510000 -0.095142 0
18.515000 -0.058334 0
18.520000 -0.033522 0
18.525000 -0.015522 0
18.530000 -0.000221 0
18.535000 0.014857 0
18.540000 0.030925 0
18.545000 0.048477 0
18.550000 0.067664 0
18.555000 0.088481 0
18.560000 0.110840 0
18.565000 0.134586 0
18.570000 0.159508 0
18.575000 0.185336 0
18.580000 0.211741 0
18.585000 0.238348 0
18.590000 0.264735 0
18.595000 0.290445 0
18.600000 0.315002 0
18.605000 0.337919 0
18.610000 0.358718 0
18.615000 0.376943 0
18.620000 0.392181 0
18.625000 0.404069 0
18.630000 0.412317 0
18.635000 0.416713 0
18.640000 0.417135 5
18.645000 0.413553 0
18.650000 0.406034 0
18.655000 0.394737 0
18.660000 0.379909 0
18.665000 0.361873 0
18.670000 0.341021 0
18.675000 0.317792 0
18.680000 0.292664 0
18.685000 0.266132 0
18.690000 0.238695 0
18.695000 0.210839 0
18.700000 0.183023 0
18.705000 0.155670 0
18.710000 0.129152 0
18.715000 0.103788 0
18.720000 0.079840 0
18.725000 0.057506 0
18.730000 0.036929 0
18.735000 0.018194 0
18.740000 0.001333 0
18.745000 -0.013664 0
18.750000 -0.026849 0
18.755000 -0.038303 0
18.760000 -0.048133 0
18.765000 -0.056463 0
18.770000 -0.063426 0
18.775000 -0.069161 0
18.780000 -0.073810 0
18.785000 -0.077506 0
18.790000 -0.080379 0
18.795000 -0.082550 0
18.800000 -0.084126 0
18.805000 -0.085206 0
18.810000 -0.085877 0
18.815000 -0.086213 0
18.820000 -0.086278 0
18.825000 -0.086128 0
18.830000 -0.085807 0
18.835000 -0.085291 0
18.840000 -0.084414 0
18.845000 -0.083542 0
18.850000 -0.082674 0
18.855000 -0.081811 0
18.860000 -0.080952 0
18.865000 -0.080097 0
18.870000 -0.079246 0
18.875000 -0.078400 0
18.880000 -0.077558 0
18.885000 -0.076720 0
18.890000 -0.075886 0
18.895000 -0.075057 0
18.900000 -0.074231 0
18.905000 -0.073409 0
18.910000 -0.072591 0
18.915000 -0.071776 0
18.920000 -0.070963 0
18.925000 -0.070152 0
18.930000 -0.069338 0
18.935000 -0.068519 0
18.940000 -0.067687 0
18.945000 -0.066830 0
18.950000 -0.065932 0
18.955000 -0.064966 0
18.960000 -0.063890 0
18.965000 -0.062647 0
18.970000 -0.061154 0
18.975000 -0.059300 0
18.980000 -0.056936 0
18.985000 -0.053873 0
18.990000 -0.049877 0
18.995000 -0.044674 0
19.000000 -0.037953 0
19.005000 -0.029385 0
19.010000 -0.018643 0
19.015000 -0.005437 0
19.020000 0.010444 0
19.025000 0.029091 0
19.030000 0.050430 0
19.035000 0.074180 0
19.040000 0.099832 0
19.045000 0.126640 0
19.050000 0.153643 0
19.055000 0.179710 0
19.060000 0.203612 0
19.065000 0.224116 0
19.070000 0.240090 0
19.075000 0.250602 0
19.080000 0.255013 1
19.085000 0.253040 0
19.090000 0.244783 0
19.095000 0.230721 0
19.100000 0.211663 0
19.105000 0.188668 0
19.110000 0.162952 0
19.115000 0.135780 0
19.120000 0.108358 0
19.125000 0.081739 0
19.130000 0.056719 0
19.135000 0.033696 0
19.140000 0.012437 0
19.145000 -0.008251 0
19.150000 -0.030788 0
19.155000 -0.058582 0
19.160000 -0.094679 0
19.165000 -0.139156 0
19.170000 -0.186232 0
19.175000 -0.222986 0
19.180000 -0.230973 2
19.185000 -0.190042 0
19.190000 -0.082613 0
19.195000 0.101503 0
19.200000 0.357540 0
19.205000 0.655986 0
19.210000 0.938587 0
19.215000 1.130986 0
19.220000 1.172542 3
19.225000 1.046923 0
19.230000 0.790197 0
19.235000 0.471600 0
19.240000 0.162022 0
19.245000 -0.088770 0
19.250000 -0.257361 0
19.255000 -0.341119 0
19.260000 -0.351702 4
19.265000 -0.310437 0
19.270000 -0.242985 0
19.275000 -0.172352 0
19.280000 -0.113128 0
19.285000 -0.070085 0
19.290000 -0.040966 0
19.295000 -0.020738 0
19.300000 -0.004710 0
19.305000 0.010245 0
19.310000 0.025793 0
19.315000 0.042670 0
19.320000 0.061140 0
19.325000 0.081251 0
19.330000 0.102945 0
19.335000 0.126097 0
19.340000 0.150521 0
19.345000 0.175974 0
19.350000 0.202154 0
19.355000 0.228709 0
19.360000 0.255238 0
19.365000 0.281302 0
19.370000 0.306433 0
19.375000 0.330151 0
19.380000 0.351974 0
19.385000 0.371438 0
19.390000 0.388108 0
19.395000 0.401599 0
19.400000 0.411588 0
19.405000 0.417824 0
19.410000 0.420145 5
19.415000 0.418474 0
19.420000 0.412834 0
19.425000 0.403338 0
19.430000 0.390190 0
19.435000 0.373677 0
19.440000 0.354155 0
19.445000 0.332039 0
19.450000 0.307789 0
19.455000 0.281890 0
19.460000 0.254839 0
19.465000 0.227126 0
19.470000 0.199224 0
19.475000 0.171574 0
19.480000 0.144571 0
19.485000 0.118562 0
19.490000 0.093836 0
19.495000 0.070624 0
19.500000 0.049097 0
19.505000 0.029369 0
19.510000 0.011499 0
19.515000 -0.004501 0
19.520000 -0.018662 0
19.525000 -0.031049 0
19.530000 -0.041756 0
19.535000 -0.050897 0
19.540000 -0.058601 0
19.545000 -0.065004 0
19.550000 -0.070245 0
19.555000 -0.074462 0
19.560000 -0.077788 0
19.565000 -0.080346 0
19.570000 -0.082252 0
19.575000 -0.083608 0
19.580000 -0.084509 0
19.585000 -0.085034 0
19.590000 -0.085254 0
19.595000 -0.085227 0
19.600000 -0.085006 0
19.605000 -0.084630 0
19.610000 -0.083829 0
19.615000 -0.082960 0
19.620000 -0.082095 0
19.625000 -0.081235 0
19.630000 -0.080379 0
19.635000 -0.079527 0
19.640000 -0.078679 0
19.645000 -0.077836 0
19.650000 -0.076996 0
19.655000 -0.076161 0
19.660000 -0.075330 0
19.665000 -0.074503 0
19.670000 -0.073681 0
19.675000 -0.072862 0
19.680000 -0.072047 0
19.685000 -0.071235 0
19.690000 -0.070426 0
19.695000 -0.069619 0
19.700000 -0.068812 0
19.705000 -0.068003 0
19.710000 -0.067185 0
19.715000 -0.066351 0
19.720000 -0.065488 0
19.725000 -0.064575 0
19.730000 -0.063581 0
19.735000 -0.062461 0
19.740000 -0.061149 0
19.745000 -0.059554 0
19.750000 -0.057553 0
19.755000 -0.054986 0
19.760000 -0.051650 0
19.765000 -0.047299 0
19.770000 -0.041647 0
19.775000 -0.034378 0
19.780000 -0.025160 0
19.785000 -0.013677 0
19.790000 0.000337 0
19.795000 0.017064 0
19.800000 0.036545 0
19.805000 0.058649 0
19.810000 0.083028 0
19.815000 0.109106 0
19.820000 0.136073 0
19.825000 0.162918 0
19.830000 0.188479 0
19.835000 0.211523 0
19.840000 0.230842 0
19.845000 0.245355 0
19.850000 0.254210 0
19.855000 0.256866 1
19.860000 0.253143 0
19.865000 0.243248 0
19.870000 0.227751 0
19.875000 0.207531 0
19.880000 0.183695 0
19.885000 0.157474 0
19.890000 0.130120 0
19.895000 0.102803 0
19.900000 0.076517 0
19.905000 0.051969 0
19.910000 0.029425 0
19.915000 0.008453 0
19.920000 -0.012414 0
19.925000 -0.035873 0
19.930000 -0.065401 0
19.935000 -0.103605 0
19.940000 -0.149447 0
19.945000 -0.195572 0
19.950000 -0.227641 2
19.955000 -0.226563 0
19.960000 -0.172496 0
19.965000 -0.049089 0
19.970000 0.151362 0
19.975000 0.419695 0
19.980000 0.720497 0
19.985000 0.990815 0
19.990000 1.156701 0
19.995000 1.164622 3
20.000000 1.009079 0
20.005000 0.734613 0
20.010000 0.412704 0
20.015000 0.110994 0
20.020000 -0.126018 0
20.025000 -0.279354 0
20.030000 -0.349314 0
20.035000 -0.349437 4
20.040000 -0.302049 0
20.045000 -0.232684 0
20.050000 -0.163129 0
20.055000 -0.106299 0
20.060000 -0.065598 0
20.065000 -0.038108 0
20.070000 -0.018731 0
20.075000 -0.003000 0
20.080000 0.011965 0
20.085000 0.027661 0
20.090000 0.044733 0
20.095000 0.063406 0
20.100000 0.083710 0
20.105000 0.105581 0
20.110000 0.128885 0
20.115000 0.153432 0
20.120000 0.178974 0
20.125000 0.205208 0
20.130000 0.231776 0
20.135000 0.258278 0
20.140000 0.284274 0
20.145000 0.309300 0
20.150000 0.332877 0
20.155000 0.354528 0
20.160000 0.373794 0
20.165000 0.390248 0
20.170000 0.403510 0
20.175000 0.413265 0
20.180000 0.419269 0
20.185000 0.421365 5
20.190000 0.419483 0
20.195000 0.413651 0
20.200000 0.403985 0
20.205000 0.390691 0
20.210000 0.374058 0
20.215000 0.354440 0
20.220000 0.332253 0
20.225000 0.307952 0
20.230000 0.282020 0
20.235000 0.254950 0
20.240000 0.227230 0
20.245000 0.199326 0
20.250000 0.171677 0
20.255000 0.144675 0
20.260000 0.118663 0
20.265000 0.093930 0
20.270000 0.070703 0
20.275000 0.049154 0
20.280000 0.029396 0
20.285000 0.011489 0
20.290000 -0.004555 0
20.295000 -0.018764 0
20.300000 -0.031204 0
20.305000 -0.041967 0
20.310000 -0.051165 0
20.315000 -0.058926 0
20.320000 -0.065384 0
20.325000 -0.070678 0
20.330000 -0.074944 0
20.335000 -0.078315 0
20.340000 -0.080914 0
20.345000 -0.082856 0
20.350000 -0.084245 0
20.355000 -0.085172 0
20.360000 -0.085720 0
20.365000 -0.085959 0
20.370000 -0.085948 0
20.375000 -0.085739 0
20.380000 -0.085372 0
20.385000 -0.084569 0
20.390000 -0.083697 0
20.395000 -0.082828 0
20.400000 -0.081964 0
20.405000 -0.081104 0
20.410000 -0.080249 0
20.415000 -0.079397 0
20.420000 -0.078550 0
20.425000 -0.077707 0
20.430000 -0.076869 0
20.435000 -0.076034 0
20.440000 -0.075204 0
20.445000 -0.074378 0
20.450000 -0.073555 0
20.455000 -0.072737 0
20.460000 -0.071922 0
20.465000 -0.071110 0
20.470000 -0.070300 0
20.475000 -0.069491 0
20.480000 -0.068679 0
20.485000 -0.067860 0
20.490000 -0.067028 0
20.495000 -0.066168 0
20.500000 -0.065264 0
20.505000 -0.064285 0
20.510000 -0.063191 0
20.515000 -0.061920 0
20.520000 -0.060388 0
20.525000 -0.058479 0
20.530000 -0.056042 0
20.535000 -0.052885 0
20.540000 -0.048772 0
20.545000 -0.043428 0
20.550000 -0.036543 0
20.555000 -0.027792 0
20.560000 -0.016853 0
20.565000 -0.003448 0
20.570000 0.012628 0
20.575000 0.031451 0
20.580000 0.052938 0
20.585000 0.076797 0
20.590000 0.102513 0
20.595000 0.129341 0
20.600000 0.156323 0
20.605000 0.182339 0
20.610000 0.206175 0
20.615000 0.226615 0
20.620000 0.242543 0
20.625000 0.253041 0
20.630000 0.257478 1
20.635000 0.255573 0
20.640000 0.247422 0
20.645000 0.233489 0
20.650000 0.214564 0
20.655000 0.191689 0
20.660000 0.166059 0
20.665000 0.138923 0
20.670000 0.111476 0
20.675000 0.084771 0
20.680000 0.059612 0
20.685000 0.036426 0
20.690000 0.015044 0
20.695000 -0.005617 0
20.700000 -0.027834 0
20.705000 -0.054915 0
20.710000 -0.090007 0
20.715000 -0.133668 0
20.720000 -0.180986 0
20.725000 -0.220054 0
20.730000 -0.233187 2
20.735000 -0.200470 0
20.740000 -0.103923 0
20.745000 0.068001 0
20.750000 0.313557 0
20.755000 0.608179 0
20.760000 0.898840 0
20.765000 1.113130 0
20.770000 1.186134 3
20.775000 1.089986 0
20.780000 0.851440 0
20.785000 0.537672 0
20.790000 0.222933 0
20.795000 -0.037878 0
20.800000 -0.217294 0
20.805000 -0.310356 0
20.810000 -0.327594 4
20.815000 -0.290049 0
20.820000 -0.223859 0
20.825000 -0.153015 0
20.830000 -0.093113 0
20.835000 -0.049533 0
20.840000 -0.020185 0
20.845000 0.000049 0
20.850000 0.015987 0
20.855000 0.030840 0
20.860000 0.046309 0
20.865000 0.063134 0
20.870000 0.081576 0
20.875000 0.101680 0
20.880000 0.123381 0
20.885000 0.146548 0
20.890000 0.170986 0
20.895000 0.196438 0
20.900000 0.222593 0
20.905000 0.249083 0
20.910000 0.275490 0
20.915000 0.301362 0
20.920000 0.326216 0
20.925000 0.349560 0
20.930000 0.370901 0
20.935000 0.389768 0
20.940000 0.405726 0
20.945000 0.418392 0
20.950000 0.427449 0
20.955000 0.432663 0
20.960000 0.433886 5
20.965000 0.431067 0
20.970000 0.424254 0
20.975000 0.413590 0
20.980000 0.399308 0
20.985000 0.381726 0
20.990000 0.361229 0
20.995000 0.338259 0
21.000000 0.313296 0
21.005000 0.286844 0
21.010000 0.259411 0
21.015000 0.231494 0
21.020000 0.203565 0
21.025000 0.176059 0
21.030000 0.149360 0
21.035000 0.123800 0
21.040000 0.099648 0
21.045000 0.077113 0
21.050000 0.056343 0
21.055000 0.037428 0
21.060000 0.020404 0
21.065000 0.005261 0
21.070000 -0.008051 0
21.075000 -0.019616 0
21.080000 -0.029541 0
21.085000 -0.037952 0
21.090000 -0.044985 0
21.095000 -0.050784 0
21.100000 -0.055488 0
21.105000 -0.059238 0
21.110000 -0.062162 0
21.115000 -0.064384 0
21.120000 -0.066012 0
21.125000 -0.067147 0
21.130000 -0.067875 0
21.135000 -0.068271 0
21.140000 -0.068400 0
21.145000 -0.068317 0
21.150000 -0.068065 0
21.155000 -0.067353 0
21.160000 -0.066566 0
21.165000 -0.065783 0
21.170000 -0.065003 0
21.175000 -0.064228 0
21.180000 -0.063457 0
21.185000 -0.062689 0
21.190000 -0.061926 0
21.195000 -0.061166 0
21.200000 -0.060409 0
21.205000 -0.059657 0
21.210000 -0.058908 0
21.215000 -0.058163 0
21.220000 -0.057422 0
21.225000 -0.056684 0
21.230000 -0.055949 0
21.235000 -0.055217 0
21.240000 -0.054486 0
21.245000 -0.053755 0
21.250000 -0.053020 0
21.255000 -0.052278 0
21.260000 -0.051519 0
21.265000 -0.050730 0
21.270000 -0.049891 0
21.275000 -0.048969 0
21.280000 -0.047918 0
21.285000 -0.046669 0
21.290000 -0.045130 0
21.295000 -0.043172 0
21.300000 -0.040628 0
21.305000 -0.037287 0
21.310000 -0.032894 0
21.315000 -0.027153 0
21.320000 -0.019736 0
21.325000 -0.010305 0
21.330000 0.001459 0
21.335000 0.015821 0
21.340000 0.032945 0
21.345000 0.052849 0
21.350000 0.075360 0
21.355000 0.100079 0
21.360000 0.126365 0
21.365000 0.153343 0
21.370000 0.179936 0
21.375000 0.204928 0
21.380000 0.227055 0
21.385000 0.245102 0
21.390000 0.258019 0
21.395000 0.265015 0
21.400000 0.265643 1
21.405000 0.259841 0
21.410000 0.247945 0
21.415000 0.230652 0
21.420000 0.208952 0
21.425000 0.184037 0
21.430000 0.157187 0
21.435000 0.129665 0
21.440000 0.102608 0
21.445000 0.076930 0
21.450000 0.053190 0
21.455000 0.031390 0
21.460000 0.010662 0
21.465000 -0.011071 0
21.470000 -0.037061 0
21.475000 -0.070733 0
21.480000 -0.113309 0
21.485000 -0.160729 0
21.490000 -0.201682 0
21.495000 -0.218488 2
21.500000 -0.190649 0
21.505000 -0.099278 0
21.510000 0.068196 0
21.515000 0.310966 0
21.520000 0.604799 0
21.525000 0.895717 0
21.530000 1.109196 0
21.535000 1.178546 3
21.540000 1.077457 0
21.545000 0.835068 0
21.550000 0.519967 0
21.555000 0.206690 0
21.560000 -0.050550 0
21.565000 -0.225305 0
21.570000 -0.313555 0
21.575000 -0.326662 4
21.580000 -0.286358 0
21.585000 -0.219110 0
21.590000 -0.148688 0
21.595000 -0.090035 0
21.600000 -0.047824 0
21.605000 -0.019515 0
21.610000 0.000134 0
21.615000 0.015857 0
21.620000 0.030726 0
21.625000 0.046327 0
21.630000 0.063338 0
21.635000 0.081986 0
21.640000 0.102301 0
21.645000 0.124208 0
21.650000 0.147566 0
21.655000 0.172170 0
21.660000 0.197754 0
21.665000 0.223994 0
21.670000 0.250512 0
21.675000 0.276880 0
21.680000 0.302635 0
21.685000 0.327289 0
21.690000 0.350343 0
21.695000 0.371302 0
21.700000 0.389697 0
21.705000 0.405094 0
21.710000 0.417121 0
21.715000 0.425471 0
21.720000 0.429924 0
21.725000 0.430349 5
21.730000 0.426716 0
21.735000 0.419092 0
21.740000 0.407641 0
21.745000 0.392619 0
21.750000 0.374361 0
21.755000 0.353271 0
21.760000 0.329804 0
21.765000 0.304454 0
21.770000 0.277729 0
21.775000 0.250142 0
21.780000 0.222191 0
21.785000 0.194341 0
21.790000 0.167021 0
21.795000 0.140605 0
21.800000 0.115411 0
21.805000 0.091694 0
21.810000 0.069649 0
21.815000 0.049408 0
21.820000 0.031045 0
21.825000 0.014584 0
21.830000 0.000000 0
21.835000 -0.012767 0
21.840000 -0.023809 0
21.845000 -0.033242 0
21.850000 -0.041196 0
21.855000 -0.047812 0
21.860000 -0.053234 0
21.865000 -0.057603 0
21.870000 -0.061057 0
21.875000 -0.063726 0
21.880000 -0.065727 0
21.885000 -0.067169 0
21.890000 -0.068147 0
21.895000 -0.068744 0
21.900000 -0.069033 0
21.905000 -0.069075 0
21.910000 -0.068920 0
21.915000 -0.068612 0
21.920000 -0.067889 0
21.925000 -0.067099 0
21.930000 -0.066313 0
21.935000 -0.065532 0
21.940000 -0.064754 0
21.945000 -0.063980 0
21.950000 -0.063210 0
21.955000 -0.062443 0
21.960000 -0.061681 0
21.965000 -0.060922 0
21.970000 -0.060167 0
21.975000 -0.059416 0
21.980000 -0.058668 0
21.985000 -0.057924 0
21.990000 -0.057183 0
21.995000 -0.056445 0
22.000000 -0.055710 0
22.005000 -0.054975 0
22.010000 -0.054239 0
22.015000 -0.053497 0
22.020000 -0.052744 0
22.025000 -0.051969 0
22.030000 -0.051155 0
22.035000 -0.050276 0
22.040000 -0.049293 0
22.045000 -0.048149 0
22.050000 -0.046764 0
22.055000 -0.045026 0
22.060000 -0.042788 0
22.065000 -0.039857 0
22.070000 -0.035999 0
22.075000 -0.030932 0
22.080000 -0.024339 0
22.085000 -0.015882 0
22.090000 -0.005224 0
22.095000 0.007931 0
22.100000 0.023803 0
22.105000 0.042480 0
22.110000 0.063880 0
22.115000 0.087704 0
22.120000 0.113414 0
22.125000 0.140224 0
22.130000 0.167130 0
22.135000 0.192954 0
22.140000 0.216430 0
22.145000 0.236296 0
22.150000 0.251412 0
22.155000 0.260862 0
22.160000 0.264049 1
22.165000 0.260754 0
22.170000 0.251159 0
22.175000 0.235833 0
22.180000 0.215674 0
22.185000 0.191818 0
22.190000 0.165539 0
22.195000 0.138129 0
22.200000 0.110794 0
22.205000 0.084549 0
22.210000 0.060103 0
22.215000 0.037686 0
22.220000 0.016764 0
22.225000 -0.004316 0
22.230000 -0.028490 0
22.235000 -0.059351 0
22.240000 -0.099190 0
22.245000 -0.145937 0
22.250000 -0.190555 0
22.255000 -0.216922 2
22.260000 -0.204759 0
22.265000 -0.134045 0
22.270000 0.010387 0
22.275000 0.232645 0
22.280000 0.516140 0
22.285000 0.814876 0
22.290000 1.057306 0
22.295000 1.170420 3
22.300000 1.115007 0
22.305000 0.906554 0
22.310000 0.604561 0
22.315000 0.283792 0
22.320000 0.005026 0
22.325000 -0.197566 0
22.330000 -0.313829 0
22.335000 -0.350524 4
22.340000 -0.326003 0
22.345000 -0.265351 0
22.350000 -0.193690 0
22.355000 -0.129347 0
22.360000 -0.080584 0
22.365000 -0.047156 0
22.370000 -0.024494 0
22.375000 -0.007502 0
22.380000 0.007549 0
22.385000 0.022782 0
22.390000 0.039187 0
22.395000 0.057142 0
22.400000 0.076749 0
22.405000 0.097976 0
22.410000 0.120713 0
22.415000 0.144791 0
22.420000 0.169980 0
22.425000 0.195991 0
22.430000 0.222479 0
22.435000 0.249052 0
22.440000 0.275274 0
22.445000 0.300677 0
22.450000 0.324777 0
22.455000 0.347086 0
22.460000 0.367125 0
22.465000 0.384449 0
22.470000 0.398654 0
22.475000 0.409398 0
22.480000 0.416412 0
22.485000 0.419510 5
22.490000 0.418600 0
22.495000 0.413684 0
22.500000 0.404860 0
22.505000 0.392319 0
22.510000 0.376337 0
22.515000 0.357265 0
22.520000 0.335515 0
22.525000 0.311546 0
22.530000 0.285845 0
22.535000 0.258916 0
22.540000 0.231258 0
22.545000 0.203351 0
22.550000 0.175646 0
22.555000 0.148551 0
22.560000 0.122421 0
22.565000 0.097555 0
22.570000 0.074194 0
22.575000 0.052514 0
22.580000 0.032637 0
22.585000 0.014627 0
22.590000 -0.001501 0
22.595000 -0.015776 0
22.600000 -0.028262 0
22.605000 -0.039053 0
22.610000 -0.048264 0
22.615000 -0.056023 0
22.620000 -0.062470 0
22.625000 -0.067744 0
22.630000 -0.071986 0
22.635000 -0.075330 0
22.640000 -0.077900 0
22.645000 -0.079815 0
22.650000 -0.081178 0
22.655000 -0.082083 0
22.660000 -0.082612 0
22.665000 -0.082835 0
22.670000 -0.082813 0
22.675000 -0.082596 0
22.680000 -0.082226 0
22.685000 -0.081436 0
22.690000 -0.080578 0
22.695000 -0.079725 0
22.700000 -0.078877 0
22.705000 -0.078032 0
22.710000 -0.077192 0
22.715000 -0.076356 0
22.720000 -0.075524 0
22.725000 -0.074696 0
22.730000 -0.073873 0
22.735000 -0.073053 0
22.740000 -0.072238 0
22.745000 -0.071426 0
22.750000 -0.070618 0
22.755000 -0.069815 0
22.760000 -0.069014 0
22.765000 -0.068216 0
22.770000 -0.067420 0
22.775000 -0.066623 0
22.780000 -0.065822 0
22.785000 -0.065013 0
22.790000 -0.064184 0
22.795000 -0.063323 0
22.800000 -0.062407 0
22.805000 -0.061401 0
22.810000 -0.060255 0
22.815000 -0.058899 0
22.820000 -0.057234 0
22.825000 -0.055127 0
22.830000 -0.052405 0
22.835000 -0.048854 0
22.840000 -0.044212 0
22.845000 -0.038183 0
22.850000 -0.030438 0
22.855000 -0.020645 0
22.860000 -0.008493 0
22.865000 0.006269 0
22.870000 0.023789 0
22.875000 0.044064 0
22.880000 0.066896 0
22.885000 0.091867 0
22.890000 0.118318 0
22.895000 0.145361 0
22.900000 0.171916 0
22.905000 0.196773 0
22.910000 0.218680 0
22.915000 0.236447 0
22.920000 0.249048 0
22.925000 0.255722 0
22.930000 0.256049 1
22.935000 0.249990 0
22.940000 0.237894 0
22.945000 0.220464 0
22.950000 0.198692 0
22.955000 0.173757 0
22.960000 0.146930 0
22.965000 0.119455 0
22.970000 0.092457 0
22.975000 0.066835 0
22.980000 0.043141 0
22.985000 0.021380 0
22.990000 0.000700 0
22.995000 -0.020934 0
23.000000 -0.046723 0
23.005000 -0.080075 0
23.010000 -0.122313 0
23.015000 -0.169656 0
23.020000 -0.211219 0
23.025000 -0.229744 2
23.030000 -0.204994 0
23.035000 -0.118076 0
23.040000 0.044012 0
23.045000 0.281701 0
23.050000 0.573098 0
23.055000 0.867108 0
23.060000 1.090868 0
23.065000 1.176216 3
23.070000 1.092665 0
23.075000 0.863632 0
23.080000 0.553418 0
23.085000 0.236038 0
23.090000 -0.031854 0
23.095000 -0.220511 0
23.100000 -0.323025 0
23.105000 -0.348335 4
23.110000 -0.316219 0
23.115000 -0.252226 0
23.120000 -0.180760 0
23.125000 -0.118604 0
23.130000 -0.072451 0
23.135000 -0.041074 0
23.140000 -0.019621 0
23.145000 -0.003142 0
23.150000 0.011825 0
23.155000 0.027184 0
23.160000 0.043800 0
23.165000 0.061995 0
23.170000 0.081841 0
23.175000 0.103294 0
23.180000 0.126234 0
23.185000 0.150484 0
23.190000 0.175804 0
23.195000 0.201897 0
23.200000 0.228414 0
23.205000 0.254953 0
23.210000 0.281075 0
23.215000 0.306311 0
23.220000 0.330174 0
23.225000 0.352177 0
23.230000 0.371849 0
23.235000 0.388746 0
23.240000 0.402476 0
23.245000 0.412704 0
23.250000 0.419175 0
23.255000 0.421715 5
23.260000 0.420245 0
23.265000 0.414779 0
23.270000 0.405430 0
23.275000 0.392399 0
23.280000 0.375973 0
23.285000 0.356511 0
23.290000 0.334432 0
23.295000 0.310198 0
23.300000 0.284299 0
23.305000 0.257238 0
23.310000 0.229512 0
23.315000 0.201598 0
23.320000 0.173940 0
23.325000 0.146939 0
23.330000 0.120944 0
23.335000 0.096245 0
23.340000 0.073075 0
23.345000 0.051604 0
23.350000 0.031944 0
23.355000 0.014155 0
23.360000 -0.001756 0
23.365000 -0.015821 0
23.370000 -0.028108 0
23.375000 -0.038713 0
23.380000 -0.047754 0
23.385000 -0.055361 0
23.390000 -0.061672 0
23.395000 -0.066829 0
23.400000 -0.070969 0
23.405000 -0.074226 0
23.410000 -0.076724 0
23.415000 -0.078579 0
23.420000 -0.079894 0
23.425000 -0.080761 0
23.430000 -0.081260 0
23.435000 -0.081461 0
23.440000 -0.081423 0
23.445000 -0.081194 0
23.450000 -0.080817 0
23.455000 -0.080032 0
23.460000 -0.079182 0
23.465000 -0.078336 0
23.470000 -0.077494 0
23.475000 -0.076656 0
23.480000 -0.075823 0
23.485000 -0.074994 0
23.490000 -0.074169 0
23.495000 -0.073348 0
23.500000 -0.072531 0
23.505000 -0.071718 0
23.510000 -0.070909 0
23.515000 -0.070104 0
23.520000 -0.069303 0
23.525000 -0.068505 0
23.530000 -0.067711 0
23.535000 -0.066920 0
23.540000 -0.066129 0
23.545000 -0.065339 0
23.550000 -0.064544 0
23.555000 -0.063739 0
23.560000 -0.062914 0
23.565000 -0.062055 0
23.570000 -0.061139 0
23.575000 -0.060129 0
23.580000 -0.058975 0
23.585000 -0.057603 0
23.590000 -0.055912 0
23.595000 -0.053767 0
23.600000 -0.050992 0
23.605000 -0.047369 0
23.610000 -0.042634 0
23.615000 -0.036486 0
23.620000 -0.028599 0
23.625000 -0.018640 0
23.630000 -0.006301 0
23.635000 0.008661 0
23.640000 0.026385 0
23.645000 0.046852 0
23.650000 0.069853 0
23.655000 0.094951 0
23.660000 0.121470 0
23.665000 0.148510 0
23.670000 0.174980 0
23.675000 0.199666 0
23.680000 0.221320 0
23.685000 0.238760 0
23.690000 0.250978 0
23.695000 0.257235 1
23.700000 0.257135 0
23.705000 0.250665 0
23.710000 0.238198 0
23.715000 0.220458 0
23.720000 0.198447 0
23.725000 0.173354 0
23.730000 0.146446 0
23.735000 0.118964 0
23.740000 0.092019 0
23.745000 0.066492 0
23.750000 0.042910 0
23.755000 0.021237 0
23.760000 0.000565 0
23.765000 -0.021210 0
23.770000 -0.047331 0
23.775000 -0.081159 0
23.780000 -0.123820 0
23.785000 -0.171199 0
23.790000 -0.212057 0
23.795000 -0.228912 2
23.800000 -0.201526 0
23.805000 -0.111210 0
23.810000 0.054591 0
23.815000 0.295485 0
23.820000 0.588342 0
23.825000 0.880838 0
23.830000 1.099742 0
23.835000 1.178003 3
23.840000 1.087898 0
23.845000 0.855451 0
23.850000 0.544422 0
23.855000 0.227213 0
23.860000 -0.040886 0
23.865000 -0.230692 0
23.870000 -0.335203 0
23.875000 -0.362871 4
23.880000 -0.332765 0
23.885000 -0.269794 0
23.890000 -0.198114 0
23.895000 -0.134796 0
23.900000 -0.087129 0
23.905000 -0.054424 0
23.910000 -0.032091 0
23.915000 -0.015181 0
23.920000 -0.000106 0
23.925000 0.015175 0
23.930000 0.031617 0
23.935000 0.049591 0
23.940000 0.069195 0
23.945000 0.090402 0
23.950000 0.113106 0
23.955000 0.137145 0
23.960000 0.162296 0
23.965000 0.188281 0
23.970000 0.214768 0
23.975000 0.241377 0
23.980000 0.267686 0
23.985000 0.293241 0
23.990000 0.317570 0
23.995000 0.340195 0
24.000000 0.360648 0
24.005000 0.378486 0
24.010000 0.393307 0
24.015000 0.404764 0
24.020000 0.412580 0
24.025000 0.416557 0
24.030000 0.416584 5
24.035000 0.412641 0
24.040000 0.404802 0
24.045000 0.393233 0
24.050000 0.378182 0
24.055000 0.359972 0
24.060000 0.338991 0
24.065000 0.315675 0
24.070000 0.290495 0
24.075000 0.263939 0
24.080000 0.236498 0
24.085000 0.208649 0
24.090000 0.180844 0
24.095000 0.153499 0
24.100000 0.126980 0
24.105000 0.101603 0
24.110000 0.077625 0
24.115000 0.055244 0
24.120000 0.034602 0
24.125000 0.015785 0
24.130000 -0.001172 0
24.135000 -0.016279 0
24.140000 -0.029582 0
24.145000 -0.041160 0
24.150000 -0.051117 0
24.155000 -0.059572 0
24.160000 -0.066657 0
24.165000 -0.072509 0
24.170000 -0.077266 0
24.175000 -0.081061 0
24.180000 -0.084023 0
24.185000 -0.086270 0
24.190000 -0.087913 0
24.195000 -0.089049 0
24.200000 -0.089764 0
24.205000 -0.090136 0
24.210000 -0.090228 0
24.215000 -0.090097 0
24.220000 -0.089788 0
24.225000 -0.089274 0
24.230000 -0.088378 0
24.235000 -0.087486 0
24.240000 -0.086598 0
24.245000 -0.085715 0
24.250000 -0.084837 0
24.255000 -0.083963 0
24.260000 -0.083093 0
24.265000 -0.082227 0
24.270000 -0.081366 0
24.275000 -0.080509 0
24.280000 -0.079656 0
24.285000 -0.078808 0
24.290000 -0.077964 0
24.295000 -0.077123 0
24.300000 -0.076287 0
24.305000 -0.075454 0
24.310000 -0.074624 0
24.315000 -0.073795 0
24.320000 -0.072966 0
24.325000 -0.072133 0
24.330000 -0.071290 0
24.335000 -0.070428 0
24.340000 -0.069533 0
24.345000 -0.068582 0
24.350000 -0.067542 0
24.355000 -0.066361 0
24.360000 -0.064972 0
24.365000 -0.063276 0
24.370000 -0.061144 0
24.375000 -0.058409 0
24.380000 -0.054860 0
24.385000 -0.050245 0
24.390000 -0.044274 0
24.395000 -0.036629 0
24.400000 -0.026984 0
24.405000 -0.015031 0
24.410000 -0.000519 0
24.415000 0.016708 0
24.420000 0.036667 0
24.425000 0.059192 0
24.430000 0.083902 0
24.435000 0.110191 0
24.440000 0.137223 0
24.445000 0.163972 0
24.450000 0.189272 0
24.455000 0.211902 0
24.460000 0.230675 0
24.465000 0.244547 0
24.470000 0.252708 0
24.475000 0.254662 1
24.480000 0.250275 0
24.485000 0.239790 0
24.490000 0.223807 0
24.495000 0.203221 0
24.500000 0.179142 0
24.505000 0.152796 0
24.510000 0.125418 0
24.515000 0.098158 0
24.520000 0.071981 0
24.525000 0.047565 0
24.530000 0.025141 0
24.535000 0.004235 0
24.540000 -0.016663 0
24.545000 -0.040271 0
24.550000 -0.070038 0
24.555000 -0.108476 0
24.560000 -0.154416 0
24.565000 -0.200423 0
24.570000 -0.232197 2
24.575000 -0.230806 0
24.580000 -0.176623 0
24.585000 -0.053472 0
24.590000 0.146322 0
24.595000 0.413898 0
24.600000 0.714622 0
24.605000 0.986616 0
24.610000 1.156593 0
24.615000 1.170471 3
24.620000 1.020301 0
24.625000 0.748569 0
24.630000 0.426978 0
24.635000 0.124185 0
24.640000 -0.114304 0
24.645000 -0.268907 0
24.650000 -0.339688 0
24.655000 -0.340191 4
24.660000 -0.292895 0
24.665000 -0.223551 0
24.670000 -0.154105 0
24.675000 -0.097508 0
24.680000 -0.057098 0
24.685000 -0.029867 0
24.690000 -0.010667 0
24.695000 0.004972 0
24.700000 0.019907 0
24.705000 0.035610 0
24.710000 0.052712 0
24.715000 0.071426 0
24.720000 0.091779 0
24.725000 0.113698 0
24.730000 0.137050 0
24.735000 0.161636 0
24.740000 0.187204 0
24.745000 0.213443 0
24.750000 0.239990 0
24.755000 0.266437 0
24.760000 0.292338 0
24.765000 0.317224 0
24.770000 0.340610 0
24.775000 0.362017 0
24.780000 0.380983 0
24.785000 0.397082 0
24.790000 0.409938 0
24.795000 0.419239 0
24.800000 0.424750 0
24.805000 0.426323 5
24.810000 0.423899 0
24.815000 0.417518 0
24.820000 0.407309 0
24.825000 0.393493 0
24.830000 0.376369 0
24.835000 0.356308 0
24.840000 0.333734 0
24.845000 0.309112 0
24.850000 0.282932 0
24.855000 0.255691 0
24.860000 0.227878 0
24.865000 0.199961 0
24.870000 0.172374 0
24.875000 0.145503 0
24.880000 0.119687 0
24.885000 0.095202 0
24.890000 0.072270 0
24.895000 0.051049 0
24.900000 0.031643 0
24.905000 0.014103 0
24.910000 -0.001569 0
24.915000 -0.015411 0
24.920000 -0.027494 0
24.925000 -0.037917 0
24.930000 -0.046797 0
24.935000 -0.054265 0
24.940000 -0.060458 0
24.945000 -0.065516 0
24.950000 -0.069576 0
24.955000 -0.072769 0
24.960000 -0.075217 0
24.965000 -0.077034 0
24.970000 -0.078320 0
24.975000 -0.079167 0
24.980000 -0.079653 0
24.985000 -0.079846 0
24.990000 -0.079804 0
24.995000 -0.079575 0
25.000000 -0.079132 0
25.005000 -0.078286 0
25.010000 -0.077444 0
25.015000 -0.076607 0
25.020000 -0.075774 0
25.025000 -0.074945 0
25.030000 -0.074120 0
25.035000 -0.073299 0
25.040000 -0.072483 0
25.045000 -0.071670 0
25.050000 -0.070861 0
25.055000 -0.070057 0
25.060000 -0.069256 0
25.065000 -0.068460 0
25.070000 -0.067667 0
25.075000 -0.066878 0
25.080000 -0.066091 0
25.085000 -0.065308 0
25.090000 -0.064526 0
25.095000 -0.063743 0
25.100000 -0.062957 0
25.105000 -0.062161 0
25.110000 -0.061346 0
25.115000 -0.060498 0
25.120000 -0.059595 0
25.125000 -0.058602 0
25.130000 -0.057470 0
25.135000 -0.056129 0
25.140000 -0.054480 0
25.145000 -0.052394 0
25.150000 -0.049701 0
25.155000 -0.046188 0
25.160000 -0.041599 0
25.165000 -0.035641 0
25.170000 -0.027991 0
25.175000 -0.018319 0
25.180000 -0.006316 0
25.185000 0.008270 0
25.190000 0.025592 0
25.195000 0.045659 0
25.200000 0.068290 0
25.205000 0.093090 0
25.210000 0.119425 0
25.215000 0.146439 0
25.220000 0.173077 0
25.225000 0.198153 0
25.230000 0.220430 0
25.235000 0.238717 0
25.240000 0.251978 0
25.245000 0.259423 0
25.250000 0.260590 1
25.255000 0.255390 0
25.260000 0.244115 0
25.265000 0.227413 0
25.270000 0.206227 0
25.275000 0.181702 0
25.280000 0.155086 0
25.285000 0.127620 0
25.290000 0.100446 0
25.295000 0.074499 0
25.300000 0.050401 0
25.305000 0.028281 0
25.310000 0.007493 0
25.315000 -0.013722 0
25.320000 -0.038327 0
25.325000 -0.069796 0
25.330000 -0.110145 0
25.335000 -0.157018 0
25.340000 -0.201327 0
25.345000 -0.227269 2
25.350000 -0.215158 0
25.355000 -0.145586 0
25.360000 -0.003720 0
25.365000 0.214941 0
25.370000 0.495585 0
25.375000 0.795580 0
25.380000 1.046924 0
25.385000 1.177442 3
25.390000 1.142265 0
25.395000 0.947544 0
25.400000 0.650844 0
25.405000 0.329055 0
25.410000 0.046499 0
25.415000 -0.159952 0
25.420000 -0.278868 0
25.425000 -0.316769 4
25.430000 -0.292401 0
25.435000 -0.231582 0
25.440000 -0.160103 0
25.445000 -0.096532 0
25.450000 -0.048923 0
25.455000 -0.016635 0
25.460000 0.005180 0
25.465000 0.021685 0
25.470000 0.036540 0
25.475000 0.051759 0
25.480000 0.068251 0
25.485000 0.086348 0
25.490000 0.106124 0
25.495000 0.127531 0
25.500000 0.150443 0
25.505000 0.174673 0
25.510000 0.199969 0
25.515000 0.226019 0
25.520000 0.252457 0
25.525000 0.278863 0
25.530000 0.304779 0
25.535000 0.329716 0
25.540000 0.353172 0
25.545000 0.374646 0
25.550000 0.393654 0
25.555000 0.409751 0
25.560000 0.422542 0
25.565000 0.431704 0
25.570000 0.436992 0
25.575000 0.438254 5
25.580000 0.435438 0
25.585000 0.428590 0
25.590000 0.417856 0
25.595000 0.403475 0
25.600000 0.385772 0
25.605000 0.365142 0
25.610000 0.342036 0
25.615000 0.316945 0
25.620000 0.290382 0
25.625000 0.262866 0
25.630000 0.234900 0
25.635000 0.206964 0
25.640000 0.179495 0
25.645000 0.152879 0
25.650000 0.127447 0
25.655000 0.103467 0
25.660000 0.081142 0
25.665000 0.060614 0
25.670000 0.041967 0
25.675000 0.025230 0
25.680000 0.010384 0
25.685000 -0.002628 0
25.690000 -0.013895 0
25.695000 -0.023533 0
25.700000 -0.031672 0
25.705000 -0.038452 0
25.710000 -0.044018 0
25.715000 -0.048515 0
25.720000 -0.052082 0
25.725000 -0.054849 0
25.730000 -0.056937 0
25.735000 -0.058456 0
25.740000 -0.059503 0
25.745000 -0.060163 0
25.750000 -0.060509 0
25.755000 -0.060603 0
25.760000 -0.060499 0
25.765000 -0.060238 0
25.770000 -0.059557 0
25.775000 -0.058809 0
25.780000 -0.058065 0
25.785000 -0.057324 0
25.790000 -0.056587 0
25.795000 -0.055854 0
25.800000 -0.055124 0
25.805000 -0.054398 0
25.810000 -0.053676 0
25.815000 -0.052957 0
25.820000 -0.052242 0
25.825000 -0.051530 0
25.830000 -0.050822 0
25.835000 -0.050117 0
25.840000 -0.049415 0
25.845000 -0.048716 0
25.850000 -0.048019 0
25.855000 -0.047322 0
25.860000 -0.046624 0
25.865000 -0.045920 0
25.870000 -0.045203 0
25.875000 -0.044463 0
25.880000 -0.043682 0
25.885000 -0.042834 0
25.890000 -0.041878 0
25.895000 -0.040754 0
25.900000 -0.039379 0
25.905000 -0.037637 0
25.910000 -0.035376 0
25.915000 -0.032397 0
25.920000 -0.028459 0
25.925000 -0.023272 0
25.930000 -0.016515 0
25.935000 -0.007842 0
25.940000 0.003081 0
25.945000 0.016547 0
25.950000 0.032763 0
25.955000 0.051799 0
25.960000 0.073542 0
25.965000 0.097657 0
25.970000 0.123562 0
25.975000 0.150430 0
25.980000 0.177213 0
25.985000 0.202704 0
25.990000 0.225616 0
25.995000 0.244690 0
26.000000 0.258808 0
26.005000 0.267097 0
26.010000 0.269021 1
26.015000 0.264438 0
26.020000 0.253609 0
26.025000 0.237182 0
26.030000 0.216120 0
26.035000 0.191608 0
26.040000 0.164944 0
26.045000 0.137424 0
26.050000 0.110230 0
26.055000 0.084328 0
26.060000 0.060339 0
26.065000 0.038342 0
26.070000 0.017555 0
26.075000 -0.004015 0
26.080000 -0.029602 0
26.085000 -0.062742 0
26.090000 -0.104909 0
26.095000 -0.152321 0
26.100000 -0.193793 0
26.105000 -0.211500 2
26.110000 -0.184585 0
26.115000 -0.093751 0
26.120000 0.073862 0
26.125000 0.317372 0
26.130000 0.611748 0
26.135000 0.901421 0
26.140000 1.110277 0
26.145000 1.171512 3
26.150000 1.061873 0
26.155000 0.814105 0
26.160000 0.497537 0
26.165000 0.185810 0
26.170000 -0.068355 0
26.175000 -0.239723 0
26.180000 -0.325001 0
26.185000 -0.335935 4
26.190000 -0.294391 0
26.195000 -0.226723 0
26.200000 -0.156401 0
26.205000 -0.098034 0
26.210000 -0.056072 0
26.215000 -0.027896 0
26.220000 -0.008282 0
26.225000 0.007463 0
26.230000 0.022375 0
26.235000 0.038022 0
26.240000 0.055077 0
26.245000 0.073764 0
26.250000 0.094112 0
26.255000 0.116049 0
26.260000 0.139433 0
26.265000 0.164061 0
26.270000 0.189671 0
26.275000 0.215941 0
26.280000 0.242494 0
26.285000 0.268908 0
26.290000 0.294723 0
26.295000 0.319452 0
26.300000 0.342601 0
26.305000 0.363678 0
26.310000 0.382213 0
26.315000 0.397775 0
26.320000 0.409990 0
26.325000 0.418550 0
26.330000 0.423233 0
26.335000 0.423903 5
26.340000 0.420526 0
26.345000 0.413162 0
26.350000 0.401970 0
26.355000 0.387198 0
26.360000 0.369176 0
26.365000 0.348300 0
26.370000 0.325022 0
26.375000 0.299827 0
26.380000 0.273224 0
26.385000 0.245722 0
26.390000 0.217816 0
26.395000 0.189974 0
26.400000 0.162624 0
26.405000 0.136145 0
26.410000 0.110858 0
26.415000 0.087022 0
26.420000 0.064837 0
26.425000 0.044440 0
26.430000 0.025911 0
26.435000 0.009278 0
26.440000 -0.005477 0
26.445000 -0.018413 0
26.450000 -0.029617 0
26.455000 -0.039201 0
26.460000 -0.047295 0
26.465000 -0.054036 0
26.470000 -0.059568 0
26.475000 -0.064033 0
26.480000 -0.067568 0
26.485000 -0.070302 0
26.490000 -0.072356 0
26.495000 -0.073837 0
26.500000 -0.074843 0
26.505000 -0.075458 0
26.510000 -0.075755 0
26.515000 -0.075798 0
26.520000 -0.075637 0
26.525000 -0.075318 0
26.530000 -0.074565 0
26.535000 -0.073742 0
26.540000 -0.072923 0
26.545000 -0.072108 0
26.550000 -0.071297 0
26.555000 -0.070491 0
26.560000 -0.069688 0
26.565000 -0.068889 0
26.570000 -0.068095 0
26.575000 -0.067304 0
26.580000 -0.066517 0
26.585000 -0.065734 0
26.590000 -0.064955 0
26.595000 -0.064180 0
26.600000 -0.063408 0
26.605000 -0.062639 0
26.610000 -0.061873 0
26.615000 -0.061108 0
26.620000 -0.060343 0
26.625000 -0.059574 0
26.630000 -0.058794 0
26.635000 -0.057996 0
26.640000 -0.057163 0
26.645000 -0.056272 0
26.650000 -0.055289 0
26.655000 -0.054160 0
26.660000 -0.052813 0
26.665000 -0.051143 0
26.670000 -0.049013 0
26.675000 -0.046243 0
26.680000 -0.042611 0
26.685000 -0.037848 0
26.690000 -0.031645 0
26.695000 -0.023670 0
26.700000 -0.013586 0
26.705000 -0.001082 0
26.710000 0.014083 0
26.715000 0.032037 0
26.720000 0.052748 0
26.725000 0.075979 0
26.730000 0.101261 0
26.735000 0.127882 0
26.740000 0.154898 0
26.745000 0.181179 0
26.750000 0.205483 0
26.755000 0.226542 0
26.760000 0.243177 0
26.765000 0.254400 0
26.770000 0.259518 1
26.775000 0.258194 0
26.780000 0.250492 0
26.785000 0.236863 0
26.790000 0.218109 0
26.795000 0.195296 0
26.800000 0.169662 0
26.805000 0.142496 0
26.810000 0.115037 0
26.815000 0.088366 0
26.820000 0.063303 0
26.825000 0.040255 0
26.830000 0.018981 0
26.835000 -0.001756 0
26.840000 -0.024465 0
26.845000 -0.052644 0
26.850000 -0.089320 0
26.855000 -0.134287 0
26.860000 -0.181130 0
26.865000 -0.216087 0
26.870000 -0.219973 2
26.875000 -0.172272 0
26.880000 -0.055611 0
26.885000 0.138994 0
26.890000 0.403778 0
26.895000 0.704204 0
26.900000 0.976777 0
26.905000 1.145511 0
26.910000 1.154700 3
26.915000 0.998153 0
26.920000 0.722120 0
26.925000 0.399983 0
26.930000 0.100460 0
26.935000 -0.132061 0
26.940000 -0.279430 0
26.945000 -0.343048 4
26.950000 -0.337686 0
26.955000 -0.286799 0
26.960000 -0.216467 0
26.965000 -0.148118 0
26.970000 -0.093635 0
26.975000 -0.055325 0
26.980000 -0.029594 0
26.985000 -0.011188 0
26.990000 0.004200 0
26.995000 0.019210 0
27.000000 0.035153 0
27.005000 0.052568 0
27.010000 0.071624 0
27.015000 0.092324 0
27.020000 0.114581 0
27.025000 0.138244 0
27.030000 0.163101 0
27.035000 0.188880 0
27.040000 0.215252 0
27.045000 0.241839 0
27.050000 0.268213 0
27.055000 0.293914 0
27.060000 0.318459 0
27.065000 0.341357 0
27.070000 0.362124 0
27.075000 0.380298 0
27.080000 0.395462 0
27.085000 0.407250 0
27.090000 0.415371 0
27.095000 0.419611 0
27.100000 0.419852 5
27.105000 0.416066 0
27.110000 0.408326 0
27.115000 0.396798 0
27.120000 0.381736 0
27.125000 0.363472 0
27.130000 0.342406 0
27.135000 0.318986 0
27.140000 0.293697 0
27.145000 0.267041 0
27.150000 0.239523 0
27.155000 0.211631 0
27.160000 0.183828 0
27.165000 0.156534 0
27.170000 0.130122 0
27.175000 0.104907 0
27.180000 0.081144 0
27.185000 0.059029 0
27.190000 0.038695 0
27.195000 0.020221 0
27.200000 0.003634 0
27.205000 -0.011085 0
27.210000 -0.023994 0
27.215000 -0.035179 0
27.220000 -0.044751 0
27.225000 -0.052839 0
27.230000 -0.059578 0
27.235000 -0.065112 0
27.240000 -0.069579 0
27.245000 -0.073116 0
27.250000 -0.075853 0
27.255000 -0.077907 0
27.260000 -0.079387 0
27.265000 -0.080389 0
27.270000 -0.080998 0
27.275000 -0.081286 0
27.280000 -0.081318 0
27.285000 -0.081144 0
27.290000 -0.080808 0
27.295000 -0.080029 0
27.300000 -0.079179 0
27.305000 -0.078333 0
27.310000 -0.077492 0
27.315000 -0.076654 0
27.320000 -0.075821 0
27.325000 -0.074991 0
27.330000 -0.074166 0
27.335000 -0.073345 0
27.340000 -0.072528 0
27.345000 -0.071716 0
27.350000 -0.070907 0
27.355000 -0.070102 0
27.360000 -0.069301 0
27.365000 -0.068504 0
27.370000 -0.067710 0
27.375000 -0.066918 0
27.380000 -0.066129 0
27.385000 -0.065340 0
27.390000 -0.064547 0
27.395000 -0.063746 0
27.400000 -0.062928 0
27.405000 -0.062080 0
27.410000 -0.061180 0
27.415000 -0.060196 0
27.420000 -0.059081 0
27.425000 -0.057765 0
27.430000 -0.056155 0
27.435000 -0.054122 0
27.440000 -0.051497 0
27.445000 -0.048072 0
27.450000 -0.043589 0
27.455000 -0.037753 0
27.460000 -0.030240 0
27.465000 -0.020712 0
27.470000 -0.008854 0
27.475000 0.005597 0
27.480000 0.022801 0
27.485000 0.042775 0
27.490000 0.065345 0
27.495000 0.090115 0
27.500000 0.116447 0
27.505000 0.143473 0
27.510000 0.170123 0
27.515000 0.195192 0
27.520000 0.217422 0
27.525000 0.235606 0
27.530000 0.248695 0
27.535000 0.255899 0
27.540000 0.256761 1
27.545000 0.251211 0
27.550000 0.239569 0
27.555000 0.222514 0
27.560000 0.201023 0
27.565000 0.176272 0
27.570000 0.149532 0
27.575000 0.122060 0
27.580000 0.094997 0
27.585000 0.069263 0
27.590000 0.045441 0
27.595000 0.023575 0
27.600000 0.002871 0
27.605000 -0.018644 0
27.610000 -0.044138 0
27.615000 -0.077065 0
27.620000 -0.118926 0
27.625000 -0.166223 0
27.630000 -0.208347 0
27.635000 -0.228175 2
27.640000 -0.205416 0
27.645000 -0.120964 0
27.650000 0.038544 0
27.655000 0.274097 0
27.660000 0.564527 0
27.665000 0.859329 0
27.670000 1.085621 0
27.675000 1.174433 3
27.680000 1.094533 0
27.685000 0.868847 0
27.690000 0.560157 0
27.695000 0.241780 0
27.700000 -0.029317 0
27.705000 -0.222543 0
27.710000 -0.330065 0
27.715000 -0.359932 4
27.720000 -0.331106 0
27.725000 -0.268622 0
27.730000 -0.196939 0
27.735000 -0.133442 0
27.740000 -0.085625 0
27.745000 -0.052856 0
27.750000 -0.030521 0
27.755000 -0.013629 0
27.760000 0.001436 0
27.765000 0.016720 0
27.770000 0.033179 0
27.775000 0.051180 0
27.780000 0.070820 0
27.785000 0.092067 0
27.790000 0.114815 0
27.795000 0.138897 0
27.800000 0.164085 0
27.805000 0.190099 0
27.810000 0.216599 0
27.815000 0.243201 0
27.820000 0.269476 0
27.825000 0.294966 0
27.830000 0.319193 0
27.835000 0.341676 0
27.840000 0.361943 0
27.845000 0.379550 0
27.850000 0.394095 0
27.855000 0.405235 0
27.860000 0.412697 0
27.865000 0.416288 5
27.870000 0.415905 0
27.875000 0.411539 0
27.880000 0.403274 0
27.885000 0.391286 0
27.890000 0.375836 0
27.895000 0.357258 0
27.900000 0.335950 0
27.905000 0.312357 0
27.910000 0.286957 0
27.915000 0.260244 0
27.920000 0.232712 0
27.925000 0.204839 0
27.930000 0.177078 0
27.935000 0.149838 0
27.940000 0.123484 0
27.945000 0.098322 0
27.950000 0.074603 0
27.955000 0.052517 0
27.960000 0.032196 0
27.965000 0.013718 0
27.970000 -0.002891 0
27.975000 -0.017648 0
27.980000 -0.030607 0
27.985000 -0.041853 0
27.990000 -0.051495 0
27.995000 -0.059656 0
28.000000 -0.066470 0
28.005000 -0.072075 0
28.010000 -0.076612 0
28.015000 -0.080212 0
28.020000 -0.083004 0
28.025000 -0.085106 0
28.030000 -0.086625 0
28.035000 -0.087658 0
28.040000 -0.088288 0
28.045000 -0.088590 0
28.050000 -0.088627 0
28.055000 -0.088453 0
28.060000 -0.088111 0
28.065000 -0.087577 0
28.070000 -0.086689 0
28.075000 -0.085806 0
28.080000 -0.084927 0
28.085000 -0.084052 0
28.090000 -0.083182 0
28.095000 -0.082316 0
28.100000 -0.081454 0
28.105000 -0.080597 0
28.110000 -0.079744 0
28.115000 -0.078895 0
28.120000 -0.078051 0
28.125000 -0.077210 0
28.130000 -0.076374 0
28.135000 -0.075541 0
28.140000 -0.074712 0
28.145000 -0.073887 0
28.150000 -0.073064 0
28.155000 -0.072241 0
28.160000 -0.071418 0
28.165000 -0.070588 0
28.170000 -0.069746 0
28.175000 -0.068880 0
28.180000 -0.067974 0
28.185000 -0.066999 0
28.190000 -0.065918 0
28.195000 -0.064673 0
28.200000 -0.063182 0
28.205000 -0.061337 0
28.210000 -0.058992 0
28.215000 -0.055961 0
28.220000 -0.052015 0
28.225000 -0.046883 0
28.230000 -0.040259 0
28.235000 -0.031815 0
28.240000 -0.021227 0
28.245000 -0.008204 0
28.250000 0.007472 0
28.255000 0.025903 0
28.260000 0.047028 0
28.265000 0.070589 0
28.270000 0.096099 0
28.275000 0.122841 0
28.280000 0.149879 0
28.285000 0.176104 0
28.290000 0.200302 0
28.295000 0.221246 0
28.300000 0.237795 0
28.305000 0.248995 0
28.310000 0.254175 1
28.315000 0.253009 0
28.320000 0.245548 0
28.325000 0.232221 0
28.330000 0.213790 0
28.335000 0.191279 0
28.340000 0.165881 0
28.345000 0.138850 0
28.350000 0.111399 0
28.355000 0.084601 0
28.360000 0.059295 0
28.365000 0.035950 0
28.370000 0.014458 0
28.375000 -0.006183 0
28.380000 -0.028165 0
