0.000000 1.160315 3
0.005000 1.026298 0
0.010000 0.694579 0
0.015000 0.293700 0
0.020000 -0.056038 0
0.025000 -0.288732 0
0.030000 -0.390369 4
0.035000 -0.381380 0
0.040000 -0.303112 0
0.045000 -0.202143 0
0.050000 -0.112196 0
0.055000 -0.045519 0
0.060000 0.001700 0
0.065000 0.038395 0
0.070000 0.071481 0
0.075000 0.104307 0
0.080000 0.137795 0
0.085000 0.171729 0
0.090000 0.205457 0
0.095000 0.238158 0
0.100000 0.268948 0
0.105000 0.296927 0
0.110000 0.321229 0
0.115000 0.341062 0
0.120000 0.355752 0
0.125000 0.364783 0
0.130000 0.367820 5
0.135000 0.364737 0
0.140000 0.355619 0
0.145000 0.340760 0
0.150000 0.320647 0
0.155000 0.295932 0
0.160000 0.267397 0
0.165000 0.235914 0
0.170000 0.202398 0
0.175000 0.167765 0
0.180000 0.132892 0
0.185000 0.098578 0
0.190000 0.065523 0
0.195000 0.034303 0
0.200000 0.005363 0
0.205000 -0.020986 0
0.210000 -0.044561 0
0.215000 -0.065294 0
0.220000 -0.083221 0
0.225000 -0.098455 0
0.230000 -0.111176 0
0.235000 -0.121603 0
0.240000 -0.129984 0
0.245000 -0.136574 0
0.250000 -0.141628 0
0.255000 -0.145386 0
0.260000 -0.148071 0
0.265000 -0.147552 0
0.270000 -0.146490 0
0.275000 -0.145434 0
0.280000 -0.144382 0
0.285000 -0.143334 0
0.290000 -0.142288 0
0.295000 -0.141241 0
0.300000 -0.140187 0
0.305000 -0.139116 0
0.310000 -0.138006 0
0.315000 -0.136824 0
0.320000 -0.135511 0
0.325000 -0.133977 0
0.330000 -0.132081 0
0.335000 -0.129618 0
0.340000 -0.126301 0
0.345000 -0.121749 0
0.350000 -0.115482 0
0.355000 -0.106938 0
0.360000 -0.095504 0
0.365000 -0.080588 0
0.370000 -0.061705 0
0.375000 -0.038594 0
0.380000 -0.011343 0
0.385000 0.019509 0
0.390000 0.052904 0
0.395000 0.087266 0
0.400000 0.120594 0
0.405000 0.150632 0
0.410000 0.175115 0
0.415000 0.192048 0
0.420000 0.199979 1
0.425000 0.198201 0
0.430000 0.186861 0
0.435000 0.166939 0
0.440000 0.140109 0
0.445000 0.108497 0
0.450000 0.074359 0
0.455000 0.039628 0
0.460000 0.005233 0
0.465000 -0.029917 0
0.470000 -0.069697 0
0.475000 -0.119610 0
0.480000 -0.181765 0
0.485000 -0.247234 0
0.490000 -0.291784 2
0.495000 -0.280232 0
0.500000 -0.176970 0
0.505000 0.041942 0
0.510000 0.370934 0
0.515000 0.750240 0
0.520000 1.060875 0
0.525000 1.173709 3
0.530000 1.032714 0
0.535000 0.696837 0
0.540000 0.295905 0
0.545000 -0.050733 0
0.550000 -0.278919 0
0.555000 -0.376077 4
0.560000 -0.363684 0
0.565000 -0.283742 0
0.570000 -0.182781 0
0.575000 -0.093808 0
0.580000 -0.028229 0
0.585000 0.018235 0
0.590000 0.054557 0
0.595000 0.087506 0
0.600000 0.120285 0
0.605000 0.153737 0
0.610000 0.187609 0
0.615000 0.221232 0
0.620000 0.253779 0
0.625000 0.284359 0
0.630000 0.312071 0
0.635000 0.336049 0
0.640000 0.355506 0
0.645000 0.369773 0
0.650000 0.378344 0
0.655000 0.380897 5
0.660000 0.377320 0
0.665000 0.367712 0
0.670000 0.352383 0
0.675000 0.331836 0
0.680000 0.306734 0
0.685000 0.277872 0
0.690000 0.246128 0
0.695000 0.212423 0
0.700000 0.177674 0
0.705000 0.142754 0
0.710000 0.108459 0
0.715000 0.075480 0
0.720000 0.044385 0
0.725000 0.015606 0
0.730000 -0.010555 0
0.735000 -0.033927 0
0.740000 -0.054452 0
0.745000 -0.072173 0
0.750000 -0.087212 0
0.755000 -0.099754 0
0.760000 -0.110023 0
0.765000 -0.118268 0
0.770000 -0.124747 0
0.775000 -0.129713 0
0.780000 -0.133406 0
0.785000 -0.136047 0
0.790000 -0.135571 0
0.795000 -0.134569 0
0.800000 -0.133572 0
0.805000 -0.132579 0
0.810000 -0.131590 0
0.815000 -0.130602 0
0.820000 -0.129612 0
0.825000 -0.128615 0
0.830000 -0.127597 0
0.835000 -0.126537 0
0.840000 -0.125398 0
0.845000 -0.124119 0
0.850000 -0.122602 0
0.855000 -0.120700 0
0.860000 -0.118196 0
0.865000 -0.114791 0
0.870000 -0.110087 0
0.875000 -0.103593 0
0.880000 -0.094732 0
0.885000 -0.082891 0
0.890000 -0.067483 0
0.895000 -0.048045 0
0.900000 -0.024361 0
0.905000 0.003421 0
0.910000 0.034686 0
0.915000 0.068290 0
0.920000 0.102581 0
0.925000 0.135499 0
0.930000 0.164761 0
0.935000 0.188119 0
0.940000 0.203641 0
0.945000 0.209978 1
0.950000 0.206556 0
0.955000 0.193663 0
0.960000 0.172411 0
0.965000 0.144572 0
0.970000 0.112327 0
0.975000 0.077919 0
0.980000 0.043175 0
0.985000 0.008751 0
0.990000 -0.026902 0
0.995000 -0.068138 0
1.000000 -0.120360 0
1.005000 -0.184258 0
1.010000 -0.248192 0
1.015000 -0.285257 2
1.020000 -0.259213 0
1.025000 -0.135542 0
1.030000 0.105884 0
1.035000 0.451043 0
1.040000 0.827695 0
1.045000 1.108876 0
1.050000 1.172918 3
1.055000 0.984798 0
1.060000 0.623348 0
1.065000 0.226037 0
1.070000 -0.095628 0
1.075000 -0.289993 0
1.080000 -0.354587 4
1.085000 -0.318423 0
1.090000 -0.227858 0
1.095000 -0.128241 0
1.100000 -0.046719 0
1.105000 0.011355 0
1.110000 0.053153 0
1.115000 0.087557 0
1.120000 0.120126 0
1.125000 0.153055 0
1.130000 0.186645 0
1.135000 0.220412 0
1.140000 0.253582 0
1.145000 0.285268 0
1.150000 0.314544 0
1.155000 0.340496 0
1.160000 0.362265 0
1.165000 0.379097 0
1.170000 0.390384 0
1.175000 0.395702 5
1.180000 0.394830 0
1.185000 0.387774 0
1.190000 0.374756 0
1.195000 0.356212 0
1.200000 0.332759 0
1.205000 0.305165 0
1.210000 0.274303 0
1.215000 0.241110 0
1.220000 0.206534 0
1.225000 0.171493 0
1.230000 0.136833 0
1.235000 0.103302 0
1.240000 0.071522 0
1.245000 0.041980 0
1.250000 0.015021 0
1.255000 -0.009144 0
1.260000 -0.030428 0
1.265000 -0.048852 0
1.270000 -0.064527 0
1.275000 -0.077629 0
1.280000 -0.088384 0
1.285000 -0.097042 0
1.290000 -0.103869 0
1.295000 -0.109126 0
1.300000 -0.113062 0
1.305000 -0.115906 0
1.310000 -0.115546 0
1.315000 -0.114644 0
1.320000 -0.113746 0
1.325000 -0.112852 0
1.330000 -0.111961 0
1.335000 -0.111071 0
1.340000 -0.110179 0
1.345000 -0.109278 0
1.350000 -0.108356 0
1.355000 -0.107390 0
1.360000 -0.106342 0
1.365000 -0.105147 0
1.370000 -0.103702 0
1.375000 -0.101851 0
1.380000 -0.099365 0
1.385000 -0.095926 0
1.390000 -0.091115 0
1.395000 -0.084413 0
1.400000 -0.075220 0
1.405000 -0.062904 0
1.410000 -0.046875 0
1.415000 -0.026696 0
1.420000 -0.002208 0
1.425000 0.026345 0
1.430000 0.058209 0
1.435000 0.092082 0
1.440000 0.126147 0
1.445000 0.158204 0
1.450000 0.185889 0
1.455000 0.206955 0
1.460000 0.219577 0
1.465000 0.222606 1
1.470000 0.215743 0
1.475000 0.199591 0
1.480000 0.175561 0
1.485000 0.145668 0
1.490000 0.112224 0
1.495000 0.077432 0
1.500000 0.042777 0
1.505000 0.008087 0
1.510000 -0.029525 0
1.515000 -0.075477 0
1.520000 -0.133978 0
1.525000 -0.200401 0
1.530000 -0.254744 0
1.535000 -0.263191 2
1.540000 -0.187972 0
1.545000 0.000215 0
1.550000 0.305650 0
1.555000 0.682025 0
1.560000 1.018341 0
1.565000 1.177055 3
1.570000 1.080642 0
1.575000 0.769593 0
1.580000 0.369969 0
1.585000 0.009805 0
1.590000 -0.236388 0
1.595000 -0.349581 4
1.600000 -0.348105 0
1.605000 -0.273119 0
1.610000 -0.172541 0
1.615000 -0.081951 0
1.620000 -0.014782 0
1.625000 0.032525 0
1.630000 0.069093 0
1.635000 0.102018 0
1.640000 0.134706 0
1.645000 0.168070 0
1.650000 0.201868 0
1.655000 0.235418 0
1.660000 0.267874 0
1.665000 0.298328 0
1.670000 0.325858 0
1.675000 0.349581 0
1.680000 0.368698 0
1.685000 0.382534 0
1.690000 0.390583 0
1.695000 0.392534 5
1.700000 0.388288 0
1.705000 0.377971 0
1.710000 0.361921 0
1.715000 0.340671 0
1.720000 0.314922 0
1.725000 0.285497 0
1.730000 0.253305 0
1.735000 0.219288 0
1.740000 0.184377 0
1.745000 0.149454 0
1.750000 0.115310 0
1.755000 0.082628 0
1.760000 0.051957 0
1.765000 0.023710 0
1.770000 -0.001838 0
1.775000 -0.024542 0
1.780000 -0.044373 0
1.785000 -0.061397 0
1.790000 -0.075760 0
1.795000 -0.087663 0
1.800000 -0.097345 0
1.805000 -0.105064 0
1.810000 -0.111084 0
1.815000 -0.115659 0
1.820000 -0.119028 0
1.825000 -0.121410 0
1.830000 -0.120957 0
1.835000 -0.120028 0
1.840000 -0.119103 0
1.845000 -0.118182 0
1.850000 -0.117263 0
1.855000 -0.116345 0
1.860000 -0.115421 0
1.865000 -0.114485 0
1.870000 -0.113519 0
1.875000 -0.112495 0
1.880000 -0.111365 0
1.885000 -0.110049 0
1.890000 -0.108425 0
1.895000 -0.106308 0
1.900000 -0.103435 0
1.905000 -0.099448 0
1.910000 -0.093887 0
1.915000 -0.086200 0
1.920000 -0.075769 0
1.925000 -0.061971 0
1.930000 -0.044270 0
1.935000 -0.022326 0
1.940000 0.003871 0
1.945000 0.033884 0
1.950000 0.066750 0
1.955000 0.100964 0
1.960000 0.134548 0
1.965000 0.165222 0
1.970000 0.190647 0
1.975000 0.208715 0
1.980000 0.217840 1
1.985000 0.217183 0
1.990000 0.206785 0
1.995000 0.187559 0
2.000000 0.161158 0
2.005000 0.129732 0
2.010000 0.095594 0
2.015000 0.060763 0
2.020000 0.026258 0
2.025000 -0.008941 0
2.030000 -0.048739 0
2.035000 -0.098758 0
2.040000 -0.161138 0
2.045000 -0.226529 0
2.050000 -0.269740 2
2.055000 -0.254520 0
2.060000 -0.144690 0
2.065000 0.082999 0
2.070000 0.419501 0
2.075000 0.797871 0
2.080000 1.092065 0
2.085000 1.174190 3
2.090000 1.000484 0
2.095000 0.645208 0
2.100000 0.246657 0
2.105000 -0.079716 0
2.110000 -0.279036 0
2.115000 -0.347300 4
2.120000 -0.313104 0
2.125000 -0.223131 0
2.130000 -0.123463 0
2.135000 -0.041848 0
2.140000 0.016182 0
2.145000 0.057878 0
2.150000 0.092210 0
2.155000 0.124755 0
2.160000 0.157684 0
2.165000 0.191271 0
2.170000 0.225014 0
2.175000 0.258120 0
2.180000 0.289691 0
2.185000 0.318786 0
2.190000 0.344483 0
2.195000 0.365916 0
2.200000 0.382333 0
2.205000 0.393129 0
2.210000 0.397891 5
2.215000 0.396417 0
2.220000 0.388731 0
2.225000 0.375083 0
2.230000 0.355934 0
2.235000 0.331928 0
2.240000 0.303858 0
2.245000 0.272620 0
2.250000 0.239164 0
2.255000 0.204450 0
2.260000 0.169399 0
2.265000 0.134854 0
2.270000 0.101553 0
2.275000 0.070106 0
2.280000 0.040979 0
2.285000 0.014500 0
2.290000 -0.009144 0
2.295000 -0.029885 0
2.300000 -0.047766 0
2.305000 -0.062911 0
2.310000 -0.075513 0
2.315000 -0.085806 0
2.320000 -0.094049 0
2.325000 -0.100511 0
2.330000 -0.105453 0
2.335000 -0.109124 0
2.340000 -0.111751 0
2.345000 -0.111375 0
2.350000 -0.110494 0
2.355000 -0.109616 0
2.360000 -0.108743 0
2.365000 -0.107871 0
2.370000 -0.107001 0
2.375000 -0.106126 0
2.380000 -0.105239 0
2.385000 -0.104325 0
2.390000 -0.103357 0
2.395000 -0.102288 0
2.400000 -0.101043 0
2.405000 -0.099502 0
2.410000 -0.097483 0
2.415000 -0.094726 0
2.420000 -0.090873 0
2.425000 -0.085466 0
2.430000 -0.077944 0
2.435000 -0.067682 0
2.440000 -0.054043 0
2.445000 -0.036477 0
2.450000 -0.014631 0
2.455000 0.011510 0
2.460000 0.041503 0
2.465000 0.074364 0
2.470000 0.108551 0
2.475000 0.142042 0
2.480000 0.172508 0
2.485000 0.197569 0
2.490000 0.215100 0
2.495000 0.223524 1
2.500000 0.222049 0
2.505000 0.210787 0
2.510000 0.190744 0
2.515000 0.163664 0
2.520000 0.131774 0
2.525000 0.097420 0
2.530000 0.062575 0
2.535000 0.028060 0
2.540000 -0.007561 0
2.545000 -0.048695 0
2.550000 -0.100961 0
2.555000 -0.165073 0
2.560000 -0.228650 0
2.565000 -0.263209 2
2.570000 -0.230869 0
2.575000 -0.096398 0
2.580000 0.158691 0
2.585000 0.513743 0
2.590000 0.884401 0
2.595000 1.134189 0
2.600000 1.147489 3
2.605000 0.913750 0
2.610000 0.533907 0
2.615000 0.144348 0
2.620000 -0.155455 0
2.625000 -0.325113 0
2.630000 -0.369020 4
2.635000 -0.319956 0
2.640000 -0.225010 0
2.645000 -0.126983 0
2.650000 -0.049092 0
2.655000 0.006056 0
2.660000 0.046382 0
2.665000 0.080355 0
2.670000 0.112959 0
2.675000 0.146032 0
2.680000 0.179731 0
2.685000 0.213527 0
2.690000 0.246635 0
2.695000 0.278174 0
2.700000 0.307228 0
2.705000 0.332894 0
2.710000 0.354334 0
2.715000 0.370811 0
2.720000 0.381738 0
2.725000 0.386709 5
2.730000 0.385521 0
2.735000 0.378191 0
2.740000 0.364952 0
2.745000 0.346242 0
2.750000 0.322678 0
2.755000 0.295024 0
2.760000 0.264146 0
2.765000 0.230970 0
2.770000 0.196433 0
2.775000 0.161440 0
2.780000 0.126829 0
2.785000 0.093339 0
2.790000 0.061584 0
2.795000 0.032048 0
2.800000 0.005075 0
2.805000 -0.019123 0
2.810000 -0.040459 0
2.815000 -0.058949 0
2.820000 -0.074699 0
2.825000 -0.087881 0
2.830000 -0.098716 0
2.835000 -0.107450 0
2.840000 -0.114345 0
2.845000 -0.119661 0
2.850000 -0.123644 0
2.855000 -0.126524 0
2.860000 -0.128078 0
2.865000 -0.127113 0
2.870000 -0.126153 0
2.875000 -0.125197 0
2.880000 -0.124245 0
2.885000 -0.123295 0
2.890000 -0.122343 0
2.895000 -0.121384 0
2.900000 -0.120406 0
2.905000 -0.119389 0
2.910000 -0.118298 0
2.915000 -0.117073 0
2.920000 -0.115621 0
2.925000 -0.113797 0
2.930000 -0.111387 0
2.935000 -0.108095 0
2.940000 -0.103526 0
2.945000 -0.097185 0
2.950000 -0.088492 0
2.955000 -0.076824 0
2.960000 -0.061580 0
2.965000 -0.042287 0
2.970000 -0.018715 0
2.975000 0.008993 0
2.980000 0.040218 0
2.985000 0.073801 0
2.990000 0.108062 0
2.995000 0.140904 0
3.000000 0.170008 0
3.005000 0.193094 0
3.010000 0.208218 0
3.015000 0.214041 1
3.020000 0.210023 0
3.025000 0.196508 0
3.030000 0.174675 0
3.035000 0.146366 0
3.040000 0.113815 0
3.045000 0.079282 0
3.050000 0.044546 0
3.055000 0.010085 0
3.060000 -0.025994 0
3.065000 -0.068408 0
3.070000 -0.122425 0
3.075000 -0.187444 0
3.080000 -0.249369 0
3.085000 -0.278837 2
3.090000 -0.238544 0
3.095000 -0.094921 0
3.100000 0.168081 0
3.105000 0.526881 0
3.110000 0.895557 0
3.115000 1.139755 0
3.120000 1.148416 3
3.125000 0.912584 0
3.130000 0.531877 0
3.135000 0.142961 0
3.140000 -0.155161 0
3.145000 -0.322758 0
3.150000 -0.364779 4
3.155000 -0.314459 0
3.160000 -0.219111 0
3.165000 -0.121372 0
3.170000 -0.044043 0
3.175000 0.010626 0
3.180000 0.050683 0
3.185000 0.084557 0
3.190000 0.117143 0
3.195000 0.150221 0
3.200000 0.183917 0
3.205000 0.217688 0
3.210000 0.250744 0
3.215000 0.282197 0
3.220000 0.311128 0
3.225000 0.336637 0
3.230000 0.357881 0
3.235000 0.374131 0
3.240000 0.384803 0
3.245000 0.389498 5
3.250000 0.388022 0
3.255000 0.380401 0
3.260000 0.366879 0
3.265000 0.347904 0
3.270000 0.324103 0
3.275000 0.296248 0
3.280000 0.265212 0
3.285000 0.231925 0
3.290000 0.197325 0
3.295000 0.162318 0
3.300000 0.127739 0
3.305000 0.094321 0
3.310000 0.062675 0
3.315000 0.033275 0
3.320000 0.006459 0
3.325000 -0.017571 0
3.330000 -0.038731 0
3.335000 -0.057046 0
3.340000 -0.072628 0
3.345000 -0.085652 0
3.350000 -0.096342 0
3.355000 -0.104949 0
3.360000 -0.111732 0
3.365000 -0.116953 0
3.370000 -0.120859 0
3.375000 -0.123675 0
3.380000 -0.123278 0
3.385000 -0.122338 0
3.390000 -0.121401 0
3.395000 -0.120469 0
3.400000 -0.119540 0
3.405000 -0.118613 0
3.410000 -0.117684 0
3.415000 -0.116746 0
3.420000 -0.115789 0
3.425000 -0.114789 0
3.430000 -0.113711 0
3.435000 -0.112492 0
3.440000 -0.111033 0
3.445000 -0.109184 0
3.450000 -0.106724 0
3.455000 -0.103344 0
3.460000 -0.098640 0
3.465000 -0.092105 0
3.470000 -0.083151 0
3.475000 -0.071150 0
3.480000 -0.055511 0
3.485000 -0.035778 0
3.490000 -0.011755 0
3.495000 0.016367 0
3.500000 0.047906 0
3.505000 0.081642 0
3.510000 0.115833 0
3.515000 0.148339 0
3.520000 0.176825 0
3.525000 0.199029 0
3.530000 0.213063 0
3.535000 0.217671 1
3.540000 0.212419 0
3.545000 0.197762 0
3.550000 0.174976 0
3.555000 0.145975 0
3.560000 0.113026 0
3.565000 0.078365 0
3.570000 0.043659 0
3.575000 0.009136 0
3.580000 -0.027489 0
3.585000 -0.071243 0
3.590000 -0.127066 0
3.595000 -0.192888 0
3.600000 -0.252335 0
3.605000 -0.274226 2
3.610000 -0.220952 0
3.615000 -0.060414 0
3.620000 0.219345 0
3.625000 0.586587 0
3.630000 0.945683 0
3.635000 1.159742 3
3.640000 1.129933 0
3.645000 0.866887 0
3.650000 0.477986 0
3.655000 0.095135 0
3.660000 -0.191428 0
3.665000 -0.348033 0
3.670000 -0.382316 4
3.675000 -0.328098 0
3.680000 -0.231767 0
3.685000 -0.134302 0
3.690000 -0.057269 0
3.695000 -0.002579 0
3.700000 0.037645 0
3.705000 0.071652 0
3.710000 0.104296 0
3.715000 0.137393 0
3.720000 0.171115 0
3.725000 0.204958 0
3.730000 0.238164 0
3.735000 0.269874 0
3.740000 0.299194 0
3.745000 0.325242 0
3.750000 0.347191 0
3.755000 0.364309 0
3.760000 0.376005 0
3.765000 0.381857 5
3.770000 0.381639 0
3.775000 0.375335 0
3.780000 0.363137 0
3.785000 0.345442 0
3.790000 0.322820 0
3.795000 0.295991 0
3.800000 0.265786 0
3.805000 0.233097 0
3.810000 0.198841 0
3.815000 0.163916 0
3.820000 0.129158 0
3.825000 0.095317 0
3.830000 0.063030 0
3.835000 0.032808 0
3.840000 0.005027 0
3.845000 -0.020065 0
3.850000 -0.042344 0
3.855000 -0.061793 0
3.860000 -0.078487 0
3.865000 -0.092573 0
3.870000 -0.104251 0
3.875000 -0.113753 0
3.880000 -0.121332 0
3.885000 -0.127243 0
3.890000 -0.131733 0
3.895000 -0.135035 0
3.900000 -0.137360 0
3.905000 -0.136832 0
3.910000 -0.135824 0
3.915000 -0.134820 0
3.920000 -0.133820 0
3.925000 -0.132824 0
3.930000 -0.131828 0
3.935000 -0.130830 0
3.940000 -0.129820 0
3.945000 -0.128784 0
3.950000 -0.127698 0
3.955000 -0.126518 0
3.960000 -0.125174 0
3.965000 -0.123558 0
3.970000 -0.121503 0
3.975000 -0.118775 0
3.980000 -0.115049 0
3.985000 -0.109907 0
3.990000 -0.102834 0
3.995000 -0.093245 0
4.000000 -0.080530 0
4.005000 -0.064128 0
4.010000 -0.043633 0
4.015000 -0.018907 0
4.020000 0.009796 0
4.025000 0.041743 0
4.030000 0.075676 0
4.035000 0.109850 0
4.040000 0.142151 0
4.045000 0.170300 0
4.050000 0.192111 0
4.055000 0.205775 0
4.060000 0.210103 1
4.065000 0.204700 0
4.070000 0.190026 0
4.075000 0.167331 0
4.080000 0.138474 0
4.085000 0.105661 0
4.090000 0.071079 0
4.095000 0.036396 0
4.100000 0.001953 0
4.105000 -0.034266 0
4.110000 -0.076978 0
4.115000 -0.131273 0
4.120000 -0.196346 0
4.125000 -0.258251 0
4.130000 -0.288293 2
4.135000 -0.250046 0
4.140000 -0.110486 0
4.145000 0.147029 0
4.150000 0.501978 0
4.155000 0.874234 0
4.160000 1.134038 0
4.165000 1.167399 3
4.170000 0.954353 0
4.175000 0.583511 0
4.180000 0.188599 0
4.185000 -0.126525 0
4.190000 -0.315304 0
4.195000 -0.376966 4
4.200000 -0.340145 0
4.205000 -0.249746 0
4.210000 -0.149765 0
4.215000 -0.067061 0
4.220000 -0.007585 0
4.225000 0.035227 0
4.230000 0.070107 0
4.235000 0.102789 0
4.240000 0.135690 0
4.245000 0.169264 0
4.250000 0.203110 0
4.255000 0.236511 0
4.260000 0.268623 0
4.265000 0.298556 0
4.270000 0.325420 0
4.275000 0.348369 0
4.280000 0.366645 0
4.285000 0.379621 0
4.290000 0.386832 0
4.295000 0.388004 5
4.300000 0.383072 0
4.305000 0.372180 0
4.310000 0.355679 0
4.315000 0.334104 0
4.320000 0.308143 0
4.325000 0.278606 0
4.330000 0.246376 0
4.335000 0.212370 0
4.340000 0.177492 0
4.345000 0.142599 0
4.350000 0.108462 0
4.355000 0.075746 0
4.360000 0.044993 0
4.365000 0.016608 0
4.370000 -0.009130 0
4.375000 -0.032072 0
4.380000 -0.052178 0
4.385000 -0.069503 0
4.390000 -0.084182 0
4.395000 -0.096402 0
4.400000 -0.106392 0
4.405000 -0.114401 0
4.410000 -0.120685 0
4.415000 -0.125494 0
4.420000 -0.129064 0
4.425000 -0.131613 0
4.430000 -0.131143 0
4.435000 -0.130163 0
4.440000 -0.129188 0
4.445000 -0.128217 0
4.450000 -0.127249 0
4.455000 -0.126282 0
4.460000 -0.125313 0
4.465000 -0.124335 0
4.470000 -0.123335 0
4.475000 -0.122291 0
4.480000 -0.121164 0
4.485000 -0.119891 0
4.490000 -0.118372 0
4.495000 -0.116454 0
4.500000 -0.113920 0
4.505000 -0.110464 0
4.510000 -0.105686 0
4.515000 -0.099092 0
4.520000 -0.090107 0
4.525000 -0.078121 0
4.530000 -0.062554 0
4.535000 -0.042957 0
4.540000 -0.019128 0
4.545000 0.008771 0
4.550000 0.040108 0
4.555000 0.073734 0
4.560000 0.107996 0
4.565000 0.140839 0
4.570000 0.169995 0
4.575000 0.193235 0
4.580000 0.208649 0
4.585000 0.214903 1
4.590000 0.211433 0
4.595000 0.198527 0
4.600000 0.177287 0
4.605000 0.149472 0
4.610000 0.117244 0
4.615000 0.082832 0
4.620000 0.048062 0
4.625000 0.013618 0
4.630000 -0.021975 0
4.635000 -0.062971 0
4.640000 -0.114772 0
4.645000 -0.178360 0
4.650000 -0.242757 0
4.655000 -0.281823 2
4.660000 -0.259771 0
4.665000 -0.141973 0
4.670000 0.092718 0
4.675000 0.433011 0
4.680000 0.811062 0
4.685000 1.103067 0
4.690000 1.185071 3
4.695000 1.015414 0
4.700000 0.665141 0
4.705000 0.264971 0
4.710000 -0.072073 0
4.715000 -0.288418 0
4.720000 -0.375390 4
4.725000 -0.356309 0
4.730000 -0.273540 0
4.735000 -0.172577 0
4.740000 -0.084747 0
4.745000 -0.020223 0
4.750000 0.025664 0
4.755000 0.061770 0
4.760000 0.094657 0
4.765000 0.127411 0
4.770000 0.160834 0
4.775000 0.194671 0
4.780000 0.228262 0
4.785000 0.260795 0
4.790000 0.291390 0
4.795000 0.319162 0
4.800000 0.343255 0
4.805000 0.362888 0
4.810000 0.377400 0
4.815000 0.386281 0
4.820000 0.389203 5
4.825000 0.386041 0
4.830000 0.376878 0
4.835000 0.362004 0
4.840000 0.341896 0
4.845000 0.317196 0
4.850000 0.288675 0
4.855000 0.257191 0
4.860000 0.223649 0
4.865000 0.188954 0
4.870000 0.153976 0
4.875000 0.119511 0
4.880000 0.086256 0
4.885000 0.054789 0
4.890000 0.025561 0
4.895000 -0.001110 0
4.900000 -0.025034 0
4.905000 -0.046134 0
4.910000 -0.064435 0
4.915000 -0.080043 0
4.920000 -0.093129 0
4.925000 -0.103906 0
4.930000 -0.112617 0
4.935000 -0.119513 0
4.940000 -0.124847 0
4.945000 -0.128860 0
4.950000 -0.131775 0
4.955000 -0.133354 0
4.960000 -0.132363 0
4.965000 -0.131377 0
4.970000 -0.130395 0
4.975000 -0.129417 0
4.980000 -0.128441 0
4.985000 -0.127465 0
4.990000 -0.126483 0
4.995000 -0.125486 0
5.000000 -0.124456 0
5.005000 -0.123362 0
5.010000 -0.122153 0
5.015000 -0.120748 0
5.020000 -0.119021 0
5.025000 -0.116784 0
5.030000 -0.113776 0
5.035000 -0.109643 0
5.040000 -0.103935 0
5.045000 -0.096115 0
5.050000 -0.085587 0
5.055000 -0.071750 0
5.060000 -0.054086 0
5.065000 -0.032263 0
5.070000 -0.006256 0
5.075000 0.023541 0
5.080000 0.056238 0
5.085000 0.090428 0
5.090000 0.124251 0
5.095000 0.155531 0
5.100000 0.182003 0
5.105000 0.201578 0
5.110000 0.212615 0
5.115000 0.214147 1
5.120000 0.206024 0
5.125000 0.188936 0
5.130000 0.164316 0
5.135000 0.134136 0
5.140000 0.100621 0
5.145000 0.065867 0
5.150000 0.031272 0
5.155000 -0.003341 0
5.160000 -0.040701 0
5.165000 -0.085968 0
5.170000 -0.143445 0
5.175000 -0.209662 0
5.180000 -0.266967 0
5.185000 -0.284081 2
5.190000 -0.224579 0
5.195000 -0.058151 0
5.200000 0.225380 0
5.205000 0.593569 0
5.210000 0.952837 0
5.215000 1.170451 3
5.220000 1.147651 0
5.225000 0.889427 0
5.230000 0.501841 0
5.235000 0.117654 0
5.240000 -0.171311 0
5.245000 -0.330256 0
5.250000 -0.366275 4
5.255000 -0.313013 0
5.260000 -0.216983 0
5.265000 -0.119481 0
5.270000 -0.042358 0
5.275000 0.012351 0
5.280000 0.052530 0
5.285000 0.086466 0
5.290000 0.119036 0
5.295000 0.152062 0
5.300000 0.185715 0
5.305000 0.219484 0
5.310000 0.252609 0
5.315000 0.284226 0
5.320000 0.313439 0
5.325000 0.339360 0
5.330000 0.361161 0
5.335000 0.378110 0
5.340000 0.389616 0
5.345000 0.395259 5
5.350000 0.394818 0
5.355000 0.388280 0
5.360000 0.375846 0
5.365000 0.357918 0
5.370000 0.335075 0
5.375000 0.308045 0
5.380000 0.277663 0
5.385000 0.244829 0
5.390000 0.210462 0
5.395000 0.175461 0
5.400000 0.140664 0
5.405000 0.106819 0
5.410000 0.074559 0
5.415000 0.044391 0
5.420000 0.016685 0
5.425000 -0.008316 0
5.430000 -0.030494 0
5.435000 -0.049839 0
5.440000 -0.066431 0
5.445000 -0.080420 0
5.450000 -0.092010 0
5.455000 -0.101437 0
5.460000 -0.108954 0
5.465000 -0.114817 0
5.470000 -0.119275 0
5.475000 -0.122558 0
5.480000 -0.124402 0
5.485000 -0.123456 0
5.490000 -0.122514 0
5.495000 -0.121577 0
5.500000 -0.120643 0
5.505000 -0.119712 0
5.510000 -0.118782 0
5.515000 -0.117847 0
5.520000 -0.116899 0
5.525000 -0.115924 0
5.530000 -0.114895 0
5.535000 -0.113765 0
5.540000 -0.112462 0
5.545000 -0.110871 0
5.550000 -0.108819 0
5.555000 -0.106060 0
5.560000 -0.102261 0
5.565000 -0.096988 0
5.570000 -0.089716 0
5.575000 -0.079851 0
5.580000 -0.066782 0
5.585000 -0.049960 0
5.590000 -0.029000 0
5.595000 -0.003809 0
5.600000 0.025302 0
5.605000 0.057531 0
5.610000 0.091549 0
5.615000 0.125544 0
5.620000 0.157359 0
5.625000 0.184701 0
5.630000 0.205414 0
5.635000 0.217752 0
5.640000 0.220627 1
5.645000 0.213766 0
5.650000 0.197753 0
5.655000 0.173948 0
5.660000 0.144289 0
5.665000 0.111013 0
5.670000 0.076275 0
5.675000 0.041602 0
5.680000 0.007030 0
5.685000 -0.029920 0
5.690000 -0.074305 0
5.695000 -0.130784 0
5.700000 -0.196784 0
5.705000 -0.255671 0
5.710000 -0.276615 2
5.715000 -0.222813 0
5.720000 -0.062920 0
5.725000 0.214974 0
5.730000 0.580831 0
5.735000 0.942838 0
5.740000 1.167342 3
5.745000 1.151876 0
5.750000 0.897920 0
5.755000 0.511301 0
5.760000 0.126668 0
5.765000 -0.162462 0
5.770000 -0.320719 0
5.775000 -0.355452 4
5.780000 -0.300994 0
5.785000 -0.204540 0
5.790000 -0.107540 0
5.795000 -0.031412 0
5.800000 0.022381 0
5.805000 0.062010 0
5.810000 0.095730 0
5.815000 0.128265 0
5.820000 0.161310 0
5.825000 0.194962 0
5.830000 0.228676 0
5.835000 0.261666 0
5.840000 0.293052 0
5.845000 0.321925 0
5.850000 0.347388 0
5.855000 0.368612 0
5.860000 0.384869 0
5.865000 0.395580 0
5.870000 0.400347 5
5.875000 0.398972 0
5.880000 0.391478 0
5.885000 0.378098 0
5.890000 0.359271 0
5.895000 0.335612 0
5.900000 0.307881 0
5.905000 0.276939 0
5.910000 0.243705 0
5.915000 0.209110 0
5.920000 0.174056 0
5.925000 0.139375 0
5.930000 0.105801 0
5.935000 0.073950 0
5.940000 0.044302 0
5.945000 0.017204 0
5.950000 -0.007133 0
5.955000 -0.028615 0
5.960000 -0.047259 0
5.965000 -0.063165 0
5.970000 -0.076503 0
5.975000 -0.087490 0
5.980000 -0.096372 0
5.985000 -0.103408 0
5.990000 -0.108855 0
5.995000 -0.112960 0
6.000000 -0.115952 0
6.005000 -0.117602 0
6.010000 -0.116689 0
6.015000 -0.115781 0
6.020000 -0.114877 0
6.025000 -0.113977 0
6.030000 -0.113078 0
6.035000 -0.112178 0
6.040000 -0.111271 0
6.045000 -0.110346 0
6.050000 -0.109385 0
6.055000 -0.108353 0
6.060000 -0.107195 0
6.065000 -0.105822 0
6.070000 -0.104095 0
6.075000 -0.101810 0
6.080000 -0.098684 0
6.085000 -0.094333 0
6.090000 -0.088277 0
6.095000 -0.079949 0
6.100000 -0.068731 0
6.105000 -0.054020 0
6.110000 -0.035322 0
6.115000 -0.012370 0
6.120000 0.014751 0
6.125000 0.045493 0
6.130000 0.078781 0
6.135000 0.113017 0
6.140000 0.146166 0
6.145000 0.175940 0
6.150000 0.200051 0
6.155000 0.216496 0
6.160000 0.223833 1
6.165000 0.221388 0
6.170000 0.209358 0
6.175000 0.188785 0
6.180000 0.161403 0
6.185000 0.129386 0
6.190000 0.095010 0
6.195000 0.060176 0
6.200000 0.025676 0
6.205000 -0.009854 0
6.210000 -0.050625 0
6.215000 -0.102146 0
6.220000 -0.165622 0
6.225000 -0.230158 0
6.230000 -0.269326 2
6.235000 -0.246772 0
6.240000 -0.127355 0
6.245000 0.110061 0
6.250000 0.452858 0
6.255000 0.829987 0
6.260000 1.114217 0
6.265000 1.181913 3
6.270000 0.996715 0
6.275000 0.637089 0
6.280000 0.239078 0
6.285000 -0.085655 0
6.290000 -0.284380 0
6.295000 -0.353409 4
6.300000 -0.320584 0
6.305000 -0.231450 0
6.310000 -0.131432 0
6.315000 -0.048582 0
6.320000 0.010770 0
6.325000 0.053328 0
6.330000 0.088009 0
6.335000 0.120591 0
6.340000 0.153448 0
6.345000 0.186978 0
6.350000 0.220742 0
6.355000 0.253988 0
6.360000 0.285845 0
6.365000 0.315398 0
6.370000 0.341737 0
6.375000 0.364004 0
6.380000 0.381437 0
6.385000 0.393417 0
6.390000 0.399497 5
6.395000 0.399434 0
6.400000 0.393203 0
6.405000 0.380995 0
6.410000 0.363212 0
6.415000 0.340441 0
6.420000 0.313424 0
6.425000 0.283012 0
6.430000 0.250125 0
6.435000 0.215703 0
6.440000 0.180664 0
6.445000 0.145862 0
6.450000 0.112057 0
6.455000 0.079888 0
6.460000 0.049864 0
6.465000 0.022355 0
6.470000 -0.002404 0
6.475000 -0.024305 0
6.480000 -0.043347 0
6.485000 -0.059621 0
6.490000 -0.073291 0
6.495000 -0.084570 0
6.500000 -0.093704 0
6.505000 -0.100952 0
6.510000 -0.106575 0
6.515000 -0.110823 0
6.520000 -0.113931 0
6.525000 -0.115660 0
6.530000 -0.114757 0
6.535000 -0.113859 0
6.540000 -0.112965 0
6.545000 -0.112074 0
6.550000 -0.111185 0
6.555000 -0.110294 0
6.560000 -0.109398 0
6.565000 -0.108484 0
6.570000 -0.107536 0
6.575000 -0.106519 0
6.580000 -0.105379 0
6.585000 -0.104028 0
6.590000 -0.102330 0
6.595000 -0.100082 0
6.600000 -0.097000 0
6.605000 -0.092703 0
6.610000 -0.086710 0
6.615000 -0.078449 0
6.620000 -0.067298 0
6.625000 -0.052648 0
6.630000 -0.033998 0
6.635000 -0.011077 0
6.640000 0.016032 0
6.645000 0.046777 0
6.650000 0.080074 0
6.655000 0.114304 0
6.660000 0.147412 0
6.665000 0.177090 0
6.670000 0.201031 0
6.675000 0.217227 0
6.680000 0.224243 1
6.685000 0.221428 0
6.690000 0.209012 0
6.695000 0.188081 0
6.700000 0.160408 0
6.705000 0.128202 0
6.710000 0.093749 0
6.715000 0.058925 0
6.720000 0.024423 0
6.725000 -0.011318 0
6.730000 -0.052734 0
6.735000 -0.105296 0
6.740000 -0.169509 0
6.745000 -0.233068 0
6.750000 -0.268069 2
6.755000 -0.237464 0
6.760000 -0.106587 0
6.765000 0.143481 0
6.770000 0.494786 0
6.775000 0.868345 0
6.780000 1.132172 0
6.785000 1.168125 3
6.790000 0.954050 0
6.795000 0.581068 0
6.800000 0.188108 0
6.805000 -0.119355 0
6.810000 -0.296543 0
6.815000 -0.345856 4
6.820000 -0.299595 0
6.825000 -0.205434 0
6.830000 -0.107301 0
6.835000 -0.029274 0
6.840000 0.025797 0
6.845000 0.065949 0
6.850000 0.099776 0
6.855000 0.132288 0
6.860000 0.165296 0
6.865000 0.198924 0
6.870000 0.232617 0
6.875000 0.265568 0
6.880000 0.296876 0
6.885000 0.325606 0
6.890000 0.350845 0
6.895000 0.371744 0
6.900000 0.387569 0
6.905000 0.397739 0
6.910000 0.401862 5
6.915000 0.399761 0
6.920000 0.391483 0
6.925000 0.377295 0
6.930000 0.357674 0
6.935000 0.333274 0
6.940000 0.304894 0
6.945000 0.273431 0
6.950000 0.239831 0
6.955000 0.205047 0
6.960000 0.169989 0
6.965000 0.135490 0
6.970000 0.102275 0
6.975000 0.070940 0
6.980000 0.041942 0
6.985000 0.015597 0
6.990000 -0.007914 0
6.995000 -0.028531 0
7.000000 -0.046300 0
7.005000 -0.061349 0
7.010000 -0.073871 0
7.015000 -0.084100 0
7.020000 -0.092293 0
7.025000 -0.098718 0
7.030000 -0.103636 0
7.035000 -0.107291 0
7.040000 -0.109910 0
7.045000 -0.109541 0
7.050000 -0.108669 0
7.055000 -0.107801 0
7.060000 -0.106936 0
7.065000 -0.106074 0
7.070000 -0.105212 0
7.075000 -0.104346 0
7.080000 -0.103469 0
7.085000 -0.102564 0
7.090000 -0.101606 0
7.095000 -0.100548 0
7.100000 -0.099316 0
7.105000 -0.097792 0
7.110000 -0.095797 0
7.115000 -0.093074 0
7.120000 -0.089272 0
7.125000 -0.083937 0
7.130000 -0.076516 0
7.135000 -0.066388 0
7.140000 -0.052922 0
7.145000 -0.035561 0
7.150000 -0.013945 0
7.155000 0.011961 0
7.160000 0.041746 0
7.165000 0.074462 0
7.170000 0.108611 0
7.175000 0.142207 0
7.180000 0.172950 0
7.185000 0.198468 0
7.190000 0.216621 0
7.195000 0.225792 1
7.200000 0.225125 0
7.205000 0.214658 0
7.210000 0.195317 0
7.215000 0.168781 0
7.220000 0.137232 0
7.225000 0.103009 0
7.230000 0.068139 0
7.235000 0.033599 0
7.240000 -0.001751 0
7.245000 -0.041994 0
7.250000 -0.092800 0
7.255000 -0.155865 0
7.260000 -0.220729 0
7.265000 -0.260831 2
7.270000 -0.239060 0
7.275000 -0.119367 0
7.280000 0.119792 0
7.285000 0.464688 0
7.290000 0.840684 0
7.295000 1.116204 0
7.300000 1.167520 3
7.305000 0.965812 0
7.310000 0.598520 0
7.315000 0.202960 0
7.320000 -0.112821 0
7.325000 -0.300449 0
7.330000 -0.359404 4
7.335000 -0.319707 0
7.340000 -0.227888 0
7.345000 -0.128603 0
7.350000 -0.047962 0
7.355000 0.009401 0
7.360000 0.050845 0
7.365000 0.085147 0
7.370000 0.117726 0
7.375000 0.150688 0
7.380000 0.184305 0
7.385000 0.218083 0
7.390000 0.251249 0
7.395000 0.282919 0
7.400000 0.312172 0
7.405000 0.338097 0
7.410000 0.359841 0
7.415000 0.376654 0
7.420000 0.387935 0
7.425000 0.393258 5
7.430000 0.392408 0
7.435000 0.385388 0
7.440000 0.372419 0
7.445000 0.353933 0
7.450000 0.330543 0
7.455000 0.303012 0
7.460000 0.272209 0
7.465000 0.239064 0
7.470000 0.204521 0
7.475000 0.169494 0
7.480000 0.134829 0
7.485000 0.101271 0
7.490000 0.069445 0
7.495000 0.039837 0
7.500000 0.012798 0
7.505000 -0.011459 0
7.510000 -0.032844 0
7.515000 -0.051373 0
7.520000 -0.067153 0
7.525000 -0.080356 0
7.530000 -0.091206 0
7.535000 -0.099952 0
7.540000 -0.106856 0
7.545000 -0.112179 0
7.550000 -0.116171 0
7.555000 -0.119061 0
7.560000 -0.120631 0
7.565000 -0.119704 0
7.570000 -0.118781 0
7.575000 -0.117862 0
7.580000 -0.116946 0
7.585000 -0.116032 0
7.590000 -0.115116 0
7.595000 -0.114192 0
7.600000 -0.113248 0
7.605000 -0.112263 0
7.610000 -0.111200 0
7.615000 -0.109999 0
7.620000 -0.108560 0
7.625000 -0.106733 0
7.630000 -0.104299 0
7.635000 -0.100951 0
7.640000 -0.096282 0
7.645000 -0.089785 0
7.650000 -0.080872 0
7.655000 -0.068911 0
7.660000 -0.053308 0
7.665000 -0.033603 0
7.670000 -0.009599 0
7.675000 0.018512 0
7.680000 0.050048 0
7.685000 0.083779 0
7.690000 0.117956 0
7.695000 0.150428 0
7.700000 0.178848 0
7.705000 0.200950 0
7.710000 0.214840 0
7.715000 0.219272 1
7.720000 0.213823 0
7.725000 0.198967 0
7.730000 0.176002 0
7.735000 0.146863 0
7.740000 0.113828 0
7.745000 0.079138 0
7.750000 0.044436 0
7.755000 0.009885 0
7.760000 -0.026909 0
7.765000 -0.071066 0
7.770000 -0.127425 0
7.775000 -0.193436 0
7.780000 -0.251960 0
7.785000 -0.271166 2
7.790000 -0.213279 0
7.795000 -0.046667 0
7.800000 0.239072 0
7.805000 0.608948 0
7.810000 0.963457 0
7.815000 1.164806 3
7.820000 1.117477 0
7.825000 0.838488 0
7.830000 0.444521 0
7.835000 0.069942 0
7.840000 -0.199114 0
7.845000 -0.334881 0
7.850000 -0.350460 4
7.855000 -0.284352 0
7.860000 -0.185021 0
7.865000 -0.091380 0
7.870000 -0.020508 0
7.875000 0.029248 0
7.880000 0.066865 0
7.885000 0.100017 0
7.890000 0.132629 0
7.895000 0.165885 0
7.900000 0.199646 0
7.905000 0.233264 0
7.910000 0.265900 0
7.915000 0.296645 0
7.920000 0.324571 0
7.925000 0.348781 0
7.930000 0.368456 0
7.935000 0.382903 0
7.940000 0.391590 0
7.945000 0.394182 5
7.950000 0.390556 0
7.955000 0.380815 0
7.960000 0.365280 0
7.965000 0.344471 0
7.970000 0.319077 0
7.975000 0.289920 0
7.980000 0.257908 0
7.985000 0.223989 0
7.990000 0.189104 0
7.995000 0.154142 0
8.000000 0.119912 0
8.005000 0.087106 0
8.010000 0.056288 0
8.015000 0.027880 0
8.020000 0.002168 0
8.025000 -0.020695 0
8.030000 -0.040675 0
8.035000 -0.057833 0
8.040000 -0.072314 0
8.045000 -0.084318 0
8.050000 -0.094085 0
8.055000 -0.101875 0
8.060000 -0.107951 0
8.065000 -0.112572 0
8.070000 -0.115979 0
8.075000 -0.118390 0
8.080000 -0.117954 0
8.085000 -0.117040 0
8.090000 -0.116130 0
8.095000 -0.115224 0
8.100000 -0.114320 0
8.105000 -0.113416 0
8.110000 -0.112507 0
8.115000 -0.111585 0
8.120000 -0.110632 0
8.125000 -0.109621 0
8.130000 -0.108502 0
8.135000 -0.107195 0
8.140000 -0.105574 0
8.145000 -0.103452 0
8.150000 -0.100560 0
8.155000 -0.096535 0
8.160000 -0.090911 0
8.165000 -0.083127 0
8.170000 -0.072561 0
8.175000 -0.058586 0
8.180000 -0.040669 0
8.185000 -0.018485 0
8.190000 0.007954 0
8.195000 0.038178 0
8.200000 0.071181 0
8.205000 0.105409 0
8.210000 0.138845 0
8.215000 0.169179 0
8.220000 0.194063 0
8.225000 0.211409 0
8.230000 0.219674 1
8.235000 0.218092 0
8.240000 0.206786 0
8.245000 0.186755 0
8.250000 0.159724 0
8.255000 0.127893 0
8.260000 0.093583 0
8.265000 0.058756 0
8.270000 0.024264 0
8.275000 -0.011236 0
8.280000 -0.052005 0
8.285000 -0.103645 0
8.290000 -0.167283 0
8.295000 -0.231508 0
8.300000 -0.268989 2
8.305000 -0.242528 0
8.310000 -0.116698 0
8.315000 0.128676 0
8.320000 0.477414 0
8.325000 0.852012 0
8.330000 1.120067 0
8.335000 1.160904 3
8.340000 0.951262 0
8.345000 0.581497 0
8.350000 0.186419 0
8.355000 -0.128862 0
8.360000 -0.317251 0
8.365000 -0.378053 4
8.370000 -0.340319 0
8.375000 -0.249444 0
8.380000 -0.149628 0
8.385000 -0.067515 0
8.390000 -0.008655 0
8.395000 0.033763 0
8.400000 0.068489 0
8.405000 0.101166 0
8.410000 0.134115 0
8.415000 0.167734 0
8.420000 0.201593 0
8.425000 0.234957 0
8.430000 0.266970 0
8.435000 0.296733 0
8.440000 0.323348 0
8.445000 0.345968 0
8.450000 0.363838 0
8.455000 0.376335 0
8.460000 0.383008 0
8.465000 0.383599 5
8.470000 0.378063 0
8.475000 0.366568 0
8.480000 0.349489 0
8.485000 0.327383 0
8.490000 0.300963 0
8.495000 0.271056 0
8.500000 0.238560 0
8.505000 0.204400 0
8.510000 0.169487 0
8.515000 0.134672 0
8.520000 0.100721 0
8.525000 0.068288 0
8.530000 0.037897 0
8.535000 0.009938 0
8.540000 -0.015330 0
8.545000 -0.037776 0
8.550000 -0.057376 0
8.555000 -0.074203 0
8.560000 -0.088402 0
8.565000 -0.100172 0
8.570000 -0.109750 0
8.575000 -0.117388 0
8.580000 -0.123344 0
8.585000 -0.127869 0
8.590000 -0.131198 0
8.595000 -0.133543 0
8.600000 -0.133035 0
8.605000 -0.132045 0
8.610000 -0.131061 0
8.615000 -0.130080 0
8.620000 -0.129102 0
8.625000 -0.128125 0
8.630000 -0.127144 0
8.635000 -0.126151 0
8.640000 -0.125132 0
8.645000 -0.124061 0
8.650000 -0.122892 0
8.655000 -0.121553 0
8.660000 -0.119932 0
8.665000 -0.117857 0
8.670000 -0.115084 0
8.675000 -0.111279 0
8.680000 -0.106012 0
8.685000 -0.098756 0
8.690000 -0.088914 0
8.695000 -0.075872 0
8.700000 -0.059073 0
8.705000 -0.038130 0
8.710000 -0.012941 0
8.715000 0.016185 0
8.720000 0.048446 0
8.725000 0.082505 0
8.730000 0.116544 0
8.735000 0.148391 0
8.740000 0.175740 0
8.745000 0.196422 0
8.750000 0.208689 0
8.755000 0.211454 1
8.760000 0.204456 0
8.765000 0.188301 0
8.770000 0.164368 0
8.775000 0.134621 0
8.780000 0.101312 0
8.785000 0.066600 0
8.790000 0.031985 0
8.795000 -0.002575 0
8.800000 -0.039688 0
8.805000 -0.084517 0
8.810000 -0.141578 0
8.815000 -0.207715 0
8.820000 -0.265370 0
8.825000 -0.282927 2
8.830000 -0.223368 0
8.835000 -0.055898 0
8.840000 0.229515 0
8.845000 0.598862 0
8.850000 0.955485 0
8.855000 1.164338 3
8.860000 1.128920 0
8.865000 0.860658 0
8.870000 0.469955 0
8.875000 0.089604 0
8.880000 -0.191406 0
8.885000 -0.341288 0
8.890000 -0.369436 4
8.895000 -0.311197 0
8.900000 -0.213708 0
8.905000 -0.117377 0
8.910000 -0.042351 0
8.915000 0.010659 0
8.920000 0.049954 0
8.925000 0.083627 0
8.930000 0.116231 0
8.935000 0.149366 0
8.940000 0.183095 0
8.945000 0.216864 0
8.950000 0.249888 0
8.955000 0.281290 0
8.960000 0.310165 0
8.965000 0.335624 0
8.970000 0.356843 0
8.975000 0.373100 0
8.980000 0.383821 0
8.985000 0.388613 5
8.990000 0.387280 0
8.995000 0.379844 0
9.000000 0.366539 0
9.005000 0.347800 0
9.010000 0.324238 0
9.015000 0.296607 0
9.020000 0.265762 0
9.025000 0.232618 0
9.030000 0.198100 0
9.035000 0.163105 0
9.040000 0.128464 0
9.045000 0.094909 0
9.050000 0.063054 0
9.055000 0.033384 0
9.060000 0.006246 0
9.065000 -0.018143 0
9.070000 -0.039689 0
9.075000 -0.058401 0
9.080000 -0.074376 0
9.085000 -0.087782 0
9.090000 -0.098831 0
9.095000 -0.107767 0
9.100000 -0.114846 0
9.105000 -0.120326 0
9.110000 -0.124454 0
9.115000 -0.127457 0
9.120000 -0.129098 0
9.125000 -0.128128 0
9.130000 -0.127163 0
9.135000 -0.126202 0
9.140000 -0.125245 0
9.145000 -0.124290 0
9.150000 -0.123335 0
9.155000 -0.122374 0
9.160000 -0.121396 0
9.165000 -0.120385 0
9.170000 -0.119308 0
9.175000 -0.118113 0
9.180000 -0.116714 0
9.185000 -0.114980 0
9.190000 -0.112717 0
9.195000 -0.109651 0
9.200000 -0.105414 0
9.205000 -0.099539 0
9.210000 -0.091471 0
9.215000 -0.080598 0
9.220000 -0.066315 0
9.225000 -0.048111 0
9.230000 -0.025683 0
9.235000 0.000937 0
9.240000 0.031274 0
9.245000 0.064335 0
9.250000 0.098598 0
9.255000 0.132096 0
9.260000 0.162577 0
9.265000 0.187747 0
9.270000 0.205552 0
9.275000 0.214455 1
9.280000 0.213654 0
9.285000 0.203203 0
9.290000 0.184006 0
9.295000 0.157686 0
9.300000 0.126354 0
9.305000 0.092282 0
9.310000 0.057472 0
9.315000 0.022980 0
9.320000 -0.012079 0
9.325000 -0.051384 0
9.330000 -0.100470 0
9.335000 -0.161961 0
9.340000 -0.227868 0
9.345000 -0.274794 2
9.350000 -0.267745 0
9.355000 -0.170576 0
9.360000 0.041855 0
9.365000 0.366132 0
9.370000 0.745271 0
9.375000 1.061683 0
9.380000 1.184153 3
9.385000 1.053832 0
9.390000 0.725038 0
9.395000 0.324099 0
9.400000 -0.029013 0
9.405000 -0.267212 0
9.410000 -0.374932 4
9.415000 -0.371062 0
9.420000 -0.295673 0
9.425000 -0.194999 0
9.430000 -0.103630 0
9.435000 -0.035166 0
9.440000 0.013308 0
9.445000 0.050552 0
9.450000 0.083714 0
9.455000 0.116415 0
9.460000 0.149748 0
9.465000 0.183580 0
9.470000 0.217296 0
9.475000 0.250102 0
9.480000 0.281127 0
9.485000 0.309485 0
9.490000 0.334312 0
9.495000 0.354813 0
9.500000 0.370302 0
9.505000 0.380240 0
9.510000 0.384268 5
9.515000 0.382221 0
9.520000 0.374147 0
9.525000 0.360298 0
9.530000 0.341118 0
9.535000 0.317222 0
9.540000 0.289359 0
9.545000 0.258374 0
9.550000 0.225164 0
9.555000 0.190638 0
9.560000 0.155674 0
9.565000 0.121081 0
9.570000 0.087578 0
9.575000 0.055765 0
9.580000 0.026114 0
9.585000 -0.001030 0
9.590000 -0.025456 0
9.595000 -0.047065 0
9.600000 -0.065865 0
9.605000 -0.081948 0
9.610000 -0.095474 0
9.615000 -0.106650 0
9.620000 -0.115712 0
9.625000 -0.122914 0
9.630000 -0.128506 0
9.635000 -0.132733 0
9.640000 -0.135820 0
9.645000 -0.137513 0
9.650000 -0.136501 0
9.655000 -0.135495 0
9.660000 -0.134492 0
9.665000 -0.133494 0
9.670000 -0.132499 0
9.675000 -0.131504 0
9.680000 -0.130505 0
9.685000 -0.129492 0
9.690000 -0.128452 0
9.695000 -0.127355 0
9.700000 -0.126156 0
9.705000 -0.124780 0
9.710000 -0.123111 0
9.715000 -0.120977 0
9.720000 -0.118132 0
9.725000 -0.114242 0
9.730000 -0.108877 0
9.735000 -0.101516 0
9.740000 -0.091573 0
9.745000 -0.078443 0
9.750000 -0.061582 0
9.755000 -0.040612 0
9.760000 -0.015434 0
9.765000 0.013651 0
9.770000 0.045861 0
9.775000 0.079898 0
9.780000 0.113986 0
9.785000 0.146003 0
9.790000 0.173684 0
9.795000 0.194882 0
9.800000 0.207842 0
9.805000 0.211441 1
9.810000 0.205352 0
9.815000 0.190089 0
9.820000 0.166939 0
9.825000 0.137779 0
9.830000 0.104807 0
9.835000 0.070182 0
9.840000 0.035514 0
9.845000 0.001053 0
9.850000 -0.035320 0
9.855000 -0.078373 0
9.860000 -0.133080 0
9.865000 -0.198334 0
9.870000 -0.259862 0
9.875000 -0.288883 2
9.880000 -0.249198 0
9.885000 -0.108178 0
9.890000 0.150386 0
9.895000 0.505703 0
9.900000 0.877930 0
9.905000 1.138204 0
9.910000 1.173183 3
9.915000 0.961562 0
9.920000 0.591197 0
9.925000 0.196116 0
9.930000 -0.119349 0
9.935000 -0.308364 0
9.940000 -0.370091 4
9.945000 -0.333228 0
9.950000 -0.242799 0
9.955000 -0.142881 0
9.960000 -0.060324 0
9.965000 -0.001007 0
9.970000 0.041686 0
9.975000 0.076496 0
9.980000 0.109144 0
9.985000 0.142023 0
9.990000 0.175573 0
9.995000 0.209390 0
10.000000 0.242748 0
10.005000 0.274804 0
10.010000 0.304662 0
10.015000 0.331431 0
10.020000 0.354265 0
10.025000 0.372407 0
10.030000 0.385229 0
10.035000 0.392269 0
10.040000 0.393260 5
10.045000 0.388140 0
10.050000 0.377060 0
10.055000 0.360376 0
10.060000 0.338630 0
10.065000 0.312517 0
10.070000 0.282850 0
10.075000 0.250517 0
10.080000 0.216438 0
10.085000 0.181519 0
10.090000 0.146614 0
10.095000 0.112495 0
10.100000 0.079822 0
10.105000 0.049134 0
10.110000 0.020832 0
10.115000 -0.004811 0
10.120000 -0.027650 0
10.125000 -0.047650 0
10.130000 -0.064871 0
10.135000 -0.079450 0
10.140000 -0.091577 0
10.145000 -0.101485 0
10.150000 -0.109422 0
10.155000 -0.115645 0
10.160000 -0.120406 0
10.165000 -0.123939 0
10.170000 -0.126460 0
10.175000 -0.126008 0
10.180000 -0.125053 0
10.185000 -0.124104 0
10.190000 -0.123158 0
10.195000 -0.122215 0
10.200000 -0.121273 0
10.205000 -0.120328 0
10.210000 -0.119374 0
10.215000 -0.118396 0
10.220000 -0.117372 0
10.225000 -0.116261 0
10.230000 -0.114997 0
10.235000 -0.113478 0
10.240000 -0.111546 0
10.245000 -0.108975 0
10.250000 -0.105454 0
10.255000 -0.100573 0
10.260000 -0.093829 0
10.265000 -0.084642 0
10.270000 -0.072398 0
10.275000 -0.056524 0
10.280000 -0.036586 0
10.285000 -0.012408 0
10.290000 0.015808 0
10.295000 0.047387 0
10.300000 0.081126 0
10.305000 0.115326 0
10.310000 0.147898 0
10.315000 0.176561 0
10.320000 0.199098 0
10.325000 0.213640 0
10.330000 0.218918 1
10.335000 0.214449 0
10.340000 0.200610 0
10.345000 0.178580 0
10.350000 0.150178 0
10.355000 0.117597 0
10.360000 0.083052 0
10.365000 0.048293 0
10.370000 0.013824 0
10.375000 -0.022131 0
10.380000 -0.064112 0
10.385000 -0.117382 0
10.390000 -0.181930 0
10.395000 -0.245011 0
10.400000 -0.278852 2
10.405000 -0.247121 0
10.410000 -0.116008 0
10.415000 0.132990 0
10.420000 0.482857 0
10.425000 0.857707 0
10.430000 1.129250 0
10.435000 1.179298 3
10.440000 0.980266 0
10.445000 0.615399 0
10.450000 0.218384 0
10.455000 -0.103479 0
10.460000 -0.300176 0
10.465000 -0.368720 4
10.470000 -0.336441 0
10.475000 -0.247825 0
10.480000 -0.147511 0
10.485000 -0.063602 0
10.490000 -0.003043 0
10.495000 0.040365 0
10.500000 0.075439 0
10.505000 0.108117 0
10.510000 0.140953 0
10.515000 0.174465 0
10.520000 0.208280 0
10.525000 0.241684 0
10.530000 0.273838 0
10.535000 0.303849 0
10.540000 0.330824 0
10.545000 0.353914 0
10.550000 0.372354 0
10.555000 0.385508 0
10.560000 0.392906 0
10.565000 0.394264 5
10.570000 0.389510 0
10.575000 0.378782 0
10.580000 0.362425 0
10.585000 0.340967 0
10.590000 0.315096 0
10.595000 0.285619 0
10.600000 0.253421 0
10.605000 0.219419 0
10.610000 0.184522 0
10.615000 0.149589 0
10.620000 0.115396 0
10.625000 0.082612 0
10.630000 0.051781 0
10.635000 0.023316 0
10.640000 -0.002505 0
10.645000 -0.025527 0
10.650000 -0.045710 0
10.655000 -0.063108 0
10.660000 -0.077854 0
10.665000 -0.090135 0
10.670000 -0.100181 0
10.675000 -0.108241 0
10.680000 -0.114570 0
10.685000 -0.119421 0
10.690000 -0.123030 0
10.695000 -0.125615 0
10.700000 -0.125175 0
10.705000 -0.124225 0
10.710000 -0.123280 0
10.715000 -0.122338 0
10.720000 -0.121399 0
10.725000 -0.120462 0
10.730000 -0.119522 0
10.735000 -0.118573 0
10.740000 -0.117601 0
10.745000 -0.116585 0
10.750000 -0.115486 0
10.755000 -0.114240 0
10.760000 -0.112746 0
10.765000 -0.110852 0
10.770000 -0.108337 0
10.775000 -0.104896 0
10.780000 -0.100125 0
10.785000 -0.093529 0
10.790000 -0.084530 0
10.795000 -0.072517 0
10.800000 -0.056909 0
10.805000 -0.037261 0
10.810000 -0.013375 0
10.815000 0.014577 0
10.820000 0.045953 0
10.825000 0.079589 0
10.830000 0.113817 0
10.835000 0.146569 0
10.840000 0.175572 0
10.845000 0.198595 0
10.850000 0.213737 0
10.855000 0.219681 1
10.860000 0.215885 0
10.865000 0.202667 0
10.870000 0.181154 0
10.875000 0.153126 0
10.880000 0.120760 0
10.885000 0.086284 0
10.890000 0.051500 0
10.895000 0.017032 0
10.900000 -0.018702 0
10.905000 -0.060068 0
10.910000 -0.112430 0
10.915000 -0.176415 0
10.920000 -0.240366 0
10.925000 -0.277474 2
10.930000 -0.251679 0
10.935000 -0.128613 0
10.940000 0.111872 0
10.945000 0.456200 0
10.950000 0.833149 0
10.955000 1.116801 0
10.960000 1.185315 3
10.965000 1.001474 0
10.970000 0.642777 0
10.975000 0.244429 0
10.980000 -0.081925 0
10.985000 -0.283017 0
10.990000 -0.354502 4
10.995000 -0.323565 0
11.000000 -0.235270 0
11.005000 -0.135049 0
11.010000 -0.051442 0
11.015000 0.008661 0
11.020000 0.051682 0
11.025000 0.086544 0
11.030000 0.119148 0
11.035000 0.151972 0
11.040000 0.185475 0
11.045000 0.219242 0
11.050000 0.252538 0
11.055000 0.284499 0
11.060000 0.314216 0
11.065000 0.340785 0
11.070000 0.363346 0
11.075000 0.381135 0
11.080000 0.393525 0
11.085000 0.400059 0
11.090000 0.400479 5
11.095000 0.394741 0
11.100000 0.383021 0
11.105000 0.365700 0
11.110000 0.343347 0
11.115000 0.316687 0
11.120000 0.286559 0
11.125000 0.253873 0
11.130000 0.219563 0
11.135000 0.184546 0
11.140000 0.149679 0
11.145000 0.115730 0
11.150000 0.083347 0
11.155000 0.053053 0
11.160000 0.025231 0
11.165000 0.000129 0
11.170000 -0.022129 0
11.175000 -0.041530 0
11.180000 -0.058156 0
11.185000 -0.072160 0
11.190000 -0.083749 0
11.195000 -0.093163 0
11.200000 -0.100660 0
11.205000 -0.106500 0
11.210000 -0.110934 0
11.215000 -0.114196 0
11.220000 -0.116033 0
11.225000 -0.115129 0
11.230000 -0.114229 0
11.235000 -0.113333 0
11.240000 -0.112440 0
11.245000 -0.111550 0
11.250000 -0.110659 0
11.255000 -0.109763 0
11.260000 -0.108853 0
11.265000 -0.107911 0
11.270000 -0.106909 0
11.275000 -0.105797 0
11.280000 -0.104494 0
11.285000 -0.102874 0
11.290000 -0.100752 0
11.295000 -0.097861 0
11.300000 -0.093842 0
11.305000 -0.088237 0
11.310000 -0.080493 0
11.315000 -0.069999 0
11.320000 -0.056137 0
11.325000 -0.038380 0
11.330000 -0.016396 0
11.335000 0.009817 0
11.340000 0.039824 0
11.345000 0.072664 0
11.350000 0.106847 0
11.355000 0.140415 0
11.360000 0.171110 0
11.365000 0.196612 0
11.370000 0.214829 0
11.375000 0.224173 1
11.380000 0.223794 0
11.385000 0.213702 0
11.390000 0.194774 0
11.395000 0.168622 0
11.400000 0.137361 0
11.405000 0.103284 0
11.410000 0.068423 0
11.415000 0.033874 0
11.420000 -0.001212 0
11.425000 -0.040506 0
11.430000 -0.089581 0
11.435000 -0.151112 0
11.440000 -0.217050 0
11.445000 -0.263756 2
11.450000 -0.255895 0
11.455000 -0.157083 0
11.460000 0.057729 0
11.465000 0.384229 0
11.470000 0.763362 0
11.475000 1.075234 0
11.480000 1.188583 3
11.485000 1.045849 0
11.490000 0.707630 0
11.495000 0.306806 0
11.500000 -0.036083 0
11.505000 -0.257822 0
11.510000 -0.347641 4
11.515000 -0.329079 0
11.520000 -0.245931 0
11.525000 -0.145185 0
11.530000 -0.058598 0
11.535000 0.004278 0
11.540000 0.048872 0
11.545000 0.084304 0
11.550000 0.116980 0
11.555000 0.149728 0
11.560000 0.183165 0
11.565000 0.216931 0
11.570000 0.250301 0
11.575000 0.282415 0
11.580000 0.312356 0
11.585000 0.339207 0
11.590000 0.362098 0
11.595000 0.380248 0
11.600000 0.393012 0
11.605000 0.399916 0
11.610000 0.400689 5
11.615000 0.395272 0
11.620000 0.383830 0
11.625000 0.366740 0
11.630000 0.344568 0
11.635000 0.318040 0
11.640000 0.287999 0
11.645000 0.255361 0
11.650000 0.221071 0
11.655000 0.186054 0
11.660000 0.151176 0
11.665000 0.117212 0
11.670000 0.084820 0
11.675000 0.054526 0
11.680000 0.026715 0
11.685000 0.001639 0
11.690000 -0.020579 0
11.695000 -0.039930 0
11.700000 -0.056495 0
11.705000 -0.070432 0
11.710000 -0.081950 0
11.715000 -0.091293 0
11.720000 -0.098722 0
11.725000 -0.104497 0
11.730000 -0.108874 0
11.735000 -0.112086 0
11.740000 -0.113888 0
11.745000 -0.112994 0
11.750000 -0.112105 0
11.755000 -0.111220 0
11.760000 -0.110337 0
11.765000 -0.109457 0
11.770000 -0.108576 0
11.775000 -0.107689 0
11.780000 -0.106787 0
11.785000 -0.105850 0
11.790000 -0.104849 0
11.795000 -0.103729 0
11.800000 -0.102405 0
11.805000 -0.100745 0
11.810000 -0.098550 0
11.815000 -0.095541 0
11.820000 -0.091343 0
11.825000 -0.085478 0
11.830000 -0.077378 0
11.835000 -0.066420 0
11.840000 -0.051990 0
11.845000 -0.033576 0
11.850000 -0.010891 0
11.855000 0.016005 0
11.860000 0.046585 0
11.865000 0.079785 0
11.870000 0.114008 0
11.875000 0.147208 0
11.880000 0.177074 0
11.885000 0.201286 0
11.890000 0.217812 0
11.895000 0.225183 1
11.900000 0.222715 0
11.905000 0.210608 0
11.910000 0.189922 0
11.915000 0.162419 0
11.920000 0.130306 0
11.925000 0.095880 0
11.930000 0.061044 0
11.935000 0.026535 0
11.940000 -0.009149 0
11.945000 -0.050400 0
11.950000 -0.102730 0
11.955000 -0.166811 0
11.960000 -0.230555 0
11.965000 -0.266178 2
11.970000 -0.236556 0
11.975000 -0.106812 0
11.980000 0.142272 0
11.985000 0.493086 0
11.990000 0.866808 0
11.995000 1.131163 0
12.000000 1.167459 3
12.005000 0.953571 0
12.010000 0.581027 0
12.015000 0.187640 0
12.020000 -0.121460 0
12.025000 -0.301104 0
12.030000 -0.353010 4
12.035000 -0.308690 0
12.040000 -0.215245 0
12.045000 -0.116656 0
12.050000 -0.037621 0
12.055000 0.018360 0
12.060000 0.059041 0
12.065000 0.093068 0
12.070000 0.125606 0
12.075000 0.158592 0
12.080000 0.192215 0
12.085000 0.225950 0
12.090000 0.259008 0
12.095000 0.290500 0
12.100000 0.319501 0
12.105000 0.345102 0
12.110000 0.366453 0
12.115000 0.382814 0
12.120000 0.393593 0
12.125000 0.398383 5
12.130000 0.396984 0
12.135000 0.389418 0
12.140000 0.375925 0
12.145000 0.356956 0
12.150000 0.333140 0
12.155000 0.305251 0
12.160000 0.274170 0
12.165000 0.240831 0
12.170000 0.206179 0
12.175000 0.171127 0
12.180000 0.136513 0
12.185000 0.103074 0
12.190000 0.071422 0
12.195000 0.042033 0
12.200000 0.015242 0
12.205000 -0.008749 0
12.210000 -0.029861 0
12.215000 -0.048121 0
12.220000 -0.063644 0
12.225000 -0.076610 0
12.230000 -0.087244 0
12.235000 -0.095801 0
12.240000 -0.102542 0
12.245000 -0.107730 0
12.250000 -0.111611 0
12.255000 -0.114413 0
12.260000 -0.114053 0
12.265000 -0.113158 0
12.270000 -0.112268 0
12.275000 -0.111381 0
12.280000 -0.110497 0
12.285000 -0.109614 0
12.290000 -0.108729 0
12.295000 -0.107835 0
12.300000 -0.106918 0
12.305000 -0.105957 0
12.310000 -0.104912 0
12.315000 -0.103716 0
12.320000 -0.102267 0
12.325000 -0.100406 0
12.330000 -0.097901 0
12.335000 -0.094433 0
12.340000 -0.089579 0
12.345000 -0.082821 0
12.350000 -0.073557 0
12.355000 -0.061157 0
12.360000 -0.045035 0
12.365000 -0.024760 0
12.370000 -0.000182 0
12.375000 0.028443 0
12.380000 0.060356 0
12.385000 0.094243 0
12.390000 0.128286 0
12.395000 0.160282 0
12.400000 0.187874 0
12.405000 0.208827 0
12.410000 0.221325 0
12.415000 0.224232 1
12.420000 0.217262 0
12.425000 0.201024 0
12.430000 0.176933 0
12.435000 0.147002 0
12.440000 0.113538 0
12.445000 0.078737 0
12.450000 0.044076 0
12.455000 0.009379 0
12.460000 -0.028240 0
12.465000 -0.074186 0
12.470000 -0.132663 0
12.475000 -0.199091 0
12.480000 -0.253575 0
12.485000 -0.262429 2
12.490000 -0.187961 0
12.495000 -0.000825 0
12.500000 0.303571 0
12.505000 0.679659 0
12.510000 1.017341 0
12.515000 1.179231 3
12.520000 1.086012 0
12.525000 0.776368 0
12.530000 0.376850 0
12.535000 0.016602 0
12.540000 -0.229228 0
12.545000 -0.341581 4
12.550000 -0.339121 0
12.555000 -0.263479 0
12.560000 -0.162876 0
12.565000 -0.072788 0
12.570000 -0.006270 0
12.575000 0.040546 0
12.580000 0.076865 0
12.585000 0.109708 0
12.590000 0.142386 0
12.595000 0.175750 0
12.600000 0.209523 0
12.605000 0.243007 0
12.610000 0.275345 0
12.615000 0.305617 0
12.620000 0.332899 0
12.625000 0.356302 0
12.630000 0.375029 0
12.635000 0.388411 0
12.640000 0.395952 0
12.645000 0.397354 5
12.650000 0.392539 0
12.655000 0.381650 0
12.660000 0.365049 0
12.665000 0.343290 0
12.670000 0.317093 0
12.675000 0.287300 0
12.680000 0.254832 0
12.685000 0.220637 0
12.690000 0.185653 0
12.695000 0.150757 0
12.700000 0.116736 0
12.705000 0.084261 0
12.710000 0.053867 0
12.715000 0.025952 0
12.720000 0.000773 0
12.725000 -0.021540 0
12.730000 -0.040972 0
12.735000 -0.057605 0
12.740000 -0.071595 0
12.745000 -0.083152 0
12.750000 -0.092521 0
12.755000 -0.099964 0
12.760000 -0.105746 0
12.765000 -0.110121 0
12.770000 -0.113327 0
12.775000 -0.115121 0
12.780000 -0.114221 0
12.785000 -0.113325 0
12.790000 -0.112434 0
12.795000 -0.111546 0
12.800000 -0.110659 0
12.805000 -0.109772 0
12.810000 -0.108879 0
12.815000 -0.107969 0
12.820000 -0.107025 0
12.825000 -0.106013 0
12.830000 -0.104880 0
12.835000 -0.103537 0
12.840000 -0.101847 0
12.845000 -0.099606 0
12.850000 -0.096528 0
12.855000 -0.092228 0
12.860000 -0.086217 0
12.865000 -0.077919 0
12.870000 -0.066702 0
12.875000 -0.051952 0
12.880000 -0.033168 0
12.885000 -0.010084 0
12.890000 0.017199 0
12.895000 0.048101 0
12.900000 0.081497 0
12.905000 0.115723 0
12.910000 0.148680 0
12.915000 0.178024 0
12.920000 0.201435 0
12.925000 0.216916 0
12.930000 0.223076 1
12.935000 0.219334 0
12.940000 0.206008 0
12.945000 0.184274 0
12.950000 0.155986 0
12.955000 0.123405 0
12.960000 0.088825 0
12.965000 0.054042 0
12.970000 0.019527 0
12.975000 -0.016684 0
12.980000 -0.059420 0
12.985000 -0.113950 0
12.990000 -0.179284 0
12.995000 -0.240450 0
13.000000 -0.267064 2
13.005000 -0.221222 0
13.010000 -0.069569 0
13.015000 0.202187 0
13.020000 0.565911 0
13.025000 0.929100 0
13.030000 1.154151 3
13.035000 1.137294 0
13.040000 0.882047 0
13.045000 0.494992 0
13.050000 0.111004 0
13.055000 -0.176717 0
13.060000 -0.333275 0
13.065000 -0.366450 4
13.070000 -0.310947 0
13.075000 -0.214138 0
13.080000 -0.117337 0
13.085000 -0.041616 0
13.090000 0.011850 0
13.095000 0.051330 0
13.100000 0.085041 0
13.105000 0.117635 0
13.110000 0.150756 0
13.115000 0.184476 0
13.120000 0.218238 0
13.125000 0.251250 0
13.130000 0.282628 0
13.135000 0.311459 0
13.140000 0.336848 0
13.145000 0.357964 0
13.150000 0.374082 0
13.155000 0.384629 0
13.160000 0.389211 5
13.165000 0.387640 0
13.170000 0.379946 0
13.175000 0.366374 0
13.180000 0.347370 0
13.185000 0.323559 0
13.190000 0.295709 0
13.195000 0.264686 0
13.200000 0.231414 0
13.205000 0.196826 0
13.210000 0.161824 0
13.215000 0.127237 0
13.220000 0.093796 0
13.225000 0.062109 0
13.230000 0.032653 0
13.235000 0.005765 0
13.240000 -0.018349 0
13.245000 -0.039603 0
13.250000 -0.058019 0
13.255000 -0.073704 0
13.260000 -0.086830 0
13.265000 -0.097619 0
13.270000 -0.106317 0
13.275000 -0.113185 0
13.280000 -0.118480 0
13.285000 -0.122450 0
13.290000 -0.125322 0
13.295000 -0.126873 0
13.300000 -0.125914 0
13.305000 -0.124960 0
13.310000 -0.124011 0
13.315000 -0.123064 0
13.320000 -0.122119 0
13.325000 -0.121173 0
13.330000 -0.120220 0
13.335000 -0.119248 0
13.340000 -0.118237 0
13.345000 -0.117153 0
13.350000 -0.115935 0
13.355000 -0.114492 0
13.360000 -0.112678 0
13.365000 -0.110283 0
13.370000 -0.107013 0
13.375000 -0.102474 0
13.380000 -0.096177 0
13.385000 -0.087543 0
13.390000 -0.075952 0
13.395000 -0.060806 0
13.400000 -0.041627 0
13.405000 -0.018178 0
13.410000 0.009409 0
13.415000 0.040532 0
13.420000 0.074055 0
13.425000 0.108319 0
13.430000 0.141246 0
13.435000 0.170529 0
13.440000 0.193890 0
13.445000 0.209373 0
13.450000 0.215613 1
13.455000 0.212035 0
13.460000 0.198942 0
13.465000 0.177472 0
13.470000 0.149434 0
13.475000 0.117041 0
13.480000 0.082556 0
13.485000 0.047795 0
13.490000 0.013336 0
13.495000 -0.022542 0
13.500000 -0.064396 0
13.505000 -0.117590 0
13.510000 -0.182148 0
13.515000 -0.245065 0
13.520000 -0.277966 2
13.525000 -0.243863 0
13.530000 -0.108639 0
13.535000 0.145593 0
13.540000 0.499244 0
13.545000 0.871696 0
13.550000 1.130892 0
13.555000 1.160895 3
13.560000 0.942947 0
13.565000 0.569298 0
13.570000 0.176130 0
13.575000 -0.133043 0
13.580000 -0.313616 0
13.585000 -0.367041 4
13.590000 -0.324135 0
13.595000 -0.231282 0
13.600000 -0.132260 0
13.605000 -0.052206 0
13.610000 0.004761 0
13.615000 0.046060 0
13.620000 0.080348 0
13.625000 0.112949 0
13.630000 0.145935 0
13.635000 0.179572 0
13.640000 0.213375 0
13.645000 0.246578 0
13.650000 0.278311 0
13.655000 0.307660 0
13.660000 0.333724 0
13.665000 0.355657 0
13.670000 0.372712 0
13.675000 0.384286 0
13.680000 0.389950 5
13.685000 0.389480 0
13.690000 0.382865 0
13.695000 0.370311 0
13.700000 0.352233 0
13.705000 0.329224 0
13.710000 0.302029 0
13.715000 0.271501 0
13.720000 0.238557 0
13.725000 0.204132 0
13.730000 0.169135 0
13.735000 0.134412 0
13.740000 0.100712 0
13.745000 0.068668 0
13.750000 0.038780 0
13.755000 0.011409 0
13.760000 -0.013214 0
13.765000 -0.034986 0
13.770000 -0.053908 0
13.775000 -0.070073 0
13.780000 -0.083646 0
13.785000 -0.094839 0
13.790000 -0.103896 0
13.795000 -0.111076 0
13.800000 -0.116638 0
13.805000 -0.120831 0
13.810000 -0.123888 0
13.815000 -0.125568 0
13.820000 -0.124616 0
13.825000 -0.123669 0
13.830000 -0.122725 0
13.835000 -0.121786 0
13.840000 -0.120848 0
13.845000 -0.119910 0
13.850000 -0.118966 0
13.855000 -0.118005 0
13.860000 -0.117011 0
13.865000 -0.115949 0
13.870000 -0.114768 0
13.875000 -0.113381 0
13.880000 -0.111653 0
13.885000 -0.109387 0
13.890000 -0.106305 0
13.895000 -0.102031 0
13.900000 -0.096092 0
13.905000 -0.087924 0
13.910000 -0.076910 0
13.915000 -0.062440 0
13.920000 -0.044008 0
13.925000 -0.021326 0
13.930000 0.005551 0
13.935000 0.036109 0
13.940000 0.069307 0
13.945000 0.103575 0
13.950000 0.136897 0
13.955000 0.166988 0
13.960000 0.191546 0
13.965000 0.208535 0
13.970000 0.216470 1
13.975000 0.214625 0
13.980000 0.203147 0
13.985000 0.183036 0
13.990000 0.155999 0
13.995000 0.124200 0
14.000000 0.089926 0
14.005000 0.055117 0
14.010000 0.020644 0
14.015000 -0.014734 0
14.020000 -0.055116 0
14.025000 -0.106055 0
14.030000 -0.169108 0
14.035000 -0.233983 0
14.040000 -0.274762 2
14.045000 -0.255188 0
14.050000 -0.139761 0
14.055000 0.093500 0
14.060000 0.433561 0
14.065000 0.811380 0
14.070000 1.100582 0
14.075000 1.175774 3
14.080000 0.999038 0
14.085000 0.644976 0
14.090000 0.245452 0
14.095000 -0.087663 0
14.100000 -0.298674 0
14.105000 -0.380450 4
14.110000 -0.357488 0
14.115000 -0.272870 0
14.120000 -0.171976 0
14.125000 -0.085262 0
14.130000 -0.021933 0
14.135000 0.023189 0
14.140000 0.058984 0
14.145000 0.091829 0
14.150000 0.124643 0
14.155000 0.158132 0
14.160000 0.192001 0
14.165000 0.225571 0
14.170000 0.258016 0
14.175000 0.288455 0
14.180000 0.315995 0
14.185000 0.339782 0
14.190000 0.359040 0
14.195000 0.373116 0
14.200000 0.381511 0
14.205000 0.383914 5
14.210000 0.380217 0
14.215000 0.370524 0
14.220000 0.355143 0
14.225000 0.334573 0
14.230000 0.309473 0
14.235000 0.280626 0
14.240000 0.248904 0
14.245000 0.215216 0
14.250000 0.180471 0
14.255000 0.145535 0
14.260000 0.111199 0
14.265000 0.078150 0
14.270000 0.046953 0
14.275000 0.018046 0
14.280000 -0.008269 0
14.285000 -0.031814 0
14.290000 -0.052527 0
14.295000 -0.070444 0
14.300000 -0.085682 0
14.305000 -0.098419 0
14.310000 -0.108874 0
14.315000 -0.117294 0
14.320000 -0.123932 0
14.325000 -0.129040 0
14.330000 -0.132858 0
14.335000 -0.135606 0
14.340000 -0.135149 0
14.345000 -0.134149 0
14.350000 -0.133154 0
14.355000 -0.132164 0
14.360000 -0.131177 0
14.365000 -0.130191 0
14.370000 -0.129205 0
14.375000 -0.128212 0
14.380000 -0.127201 0
14.385000 -0.126153 0
14.390000 -0.125034 0
14.395000 -0.123787 0
14.400000 -0.122325 0
14.405000 -0.120510 0
14.410000 -0.118143 0
14.415000 -0.114942 0
14.420000 -0.110536 0
14.425000 -0.104453 0
14.430000 -0.096140 0
14.435000 -0.084991 0
14.440000 -0.070412 0
14.445000 -0.051910 0
14.450000 -0.029206 0
14.455000 -0.002351 0
14.460000 0.028158 0
14.465000 0.061318 0
14.470000 0.095611 0
14.475000 0.129083 0
14.480000 0.159509 0
14.485000 0.184627 0
14.490000 0.202417 0
14.495000 0.211363 1
14.500000 0.210673 0
14.505000 0.200393 0
14.510000 0.181400 0
14.515000 0.155283 0
14.520000 0.124113 0
14.525000 0.090133 0
14.530000 0.055342 0
14.535000 0.020853 0
14.540000 -0.014065 0
14.545000 -0.052861 0
14.550000 -0.100974 0
14.555000 -0.161494 0
14.560000 -0.227721 0
14.565000 -0.277963 0
14.570000 -0.278418 2
14.575000 -0.192995 0
14.580000 0.005048 0
14.585000 0.317010 0
14.590000 0.694570 0
14.595000 1.028335 0
14.600000 1.185779 3
14.605000 1.091572 0
14.610000 0.783621 0
14.615000 0.384504 0
14.620000 0.020614 0
14.625000 -0.232644 0
14.630000 -0.354241 0
14.635000 -0.360230 4
14.640000 -0.289664 0
14.645000 -0.189634 0
14.650000 -0.096828 0
14.655000 -0.026741 0
14.660000 0.022713 0
14.665000 0.060317 0
14.670000 0.093514 0
14.675000 0.126145 0
14.680000 0.159399 0
14.685000 0.193171 0
14.690000 0.226846 0
14.695000 0.259617 0
14.700000 0.290605 0
14.705000 0.318908 0
14.710000 0.343650 0
14.715000 0.364024 0
14.720000 0.379337 0
14.725000 0.389046 0
14.730000 0.392792 5
14.735000 0.390417 0
14.740000 0.381977 0
14.745000 0.367740 0
14.750000 0.348170 0
14.755000 0.323898 0
14.760000 0.295695 0
14.765000 0.264423 0
14.770000 0.230997 0
14.775000 0.196337 0
14.780000 0.161327 0
14.785000 0.126782 0
14.790000 0.093415 0
14.795000 0.061821 0
14.800000 0.032461 0
14.805000 0.005663 0
14.810000 -0.018373 0
14.815000 -0.039567 0
14.820000 -0.057941 0
14.825000 -0.073604 0
14.830000 -0.086726 0
14.835000 -0.097524 0
14.840000 -0.106244 0
14.845000 -0.113142 0
14.850000 -0.118472 0
14.855000 -0.122478 0
14.860000 -0.125386 0
14.865000 -0.126966 0
14.870000 -0.126007 0
14.875000 -0.125053 0
14.880000 -0.124102 0
14.885000 -0.123156 0
14.890000 -0.122211 0
14.895000 -0.121265 0
14.900000 -0.120313 0
14.905000 -0.119343 0
14.910000 -0.118338 0
14.915000 -0.117264 0
14.920000 -0.116066 0
14.925000 -0.114657 0
14.930000 -0.112902 0
14.935000 -0.110603 0
14.940000 -0.107480 0
14.945000 -0.103161 0
14.950000 -0.097175 0
14.955000 -0.088965 0
14.960000 -0.077921 0
14.965000 -0.063443 0
14.970000 -0.045029 0
14.975000 -0.022395 0
14.980000 0.004409 0
14.985000 0.034887 0
14.990000 0.068024 0
14.995000 0.102286 0
15.000000 0.135699 0
15.005000 0.166015 0
15.010000 0.190956 0
15.015000 0.208489 0
15.020000 0.217105 1
15.025000 0.216030 0
15.030000 0.205341 0
15.035000 0.185956 0
15.040000 0.159506 0
15.045000 0.128096 0
15.050000 0.093989 0
15.055000 0.059169 0
15.060000 0.024669 0
15.065000 -0.010413 0
15.070000 -0.049760 0
15.075000 -0.098884 0
15.080000 -0.160386 0
15.085000 -0.226315 0
15.090000 -0.273421 2
15.095000 -0.266904 0
15.100000 -0.170755 0
15.105000 0.040229 0
15.110000 0.363147 0
15.115000 0.742204 0
15.120000 1.061148 0
15.125000 1.188828 3
15.130000 1.063598 0
15.135000 0.737415 0
15.140000 0.336571 0
15.145000 -0.017769 0
15.150000 -0.257397 0
15.155000 -0.366192 4
15.160000 -0.362904 0
15.165000 -0.287715 0
15.170000 -0.187091 0
15.175000 -0.095803 0
15.180000 -0.027481 0
15.185000 0.020848 0
15.190000 0.057990 0
15.195000 0.091097 0
15.200000 0.123769 0
15.205000 0.157080 0
15.210000 0.190883 0
15.215000 0.224555 0
15.220000 0.257295 0
15.225000 0.288227 0
15.230000 0.316461 0
15.235000 0.341128 0
15.240000 0.361434 0
15.245000 0.376692 0
15.250000 0.386370 0
15.255000 0.390110 5
15.260000 0.387759 0
15.265000 0.379373 0
15.270000 0.365214 0
15.275000 0.345739 0
15.280000 0.321574 0
15.285000 0.293477 0
15.290000 0.262302 0
15.295000 0.228953 0
15.300000 0.194342 0
15.305000 0.159347 0
15.310000 0.124779 0
15.315000 0.091350 0
15.320000 0.059655 0
15.325000 0.030159 0
15.330000 0.003196 0
15.335000 -0.021028 0
15.340000 -0.042426 0
15.345000 -0.061012 0
15.350000 -0.076887 0
15.355000 -0.090215 0
15.360000 -0.101209 0
15.365000 -0.110109 0
15.370000 -0.117168 0
15.375000 -0.122640 0
15.380000 -0.126767 0
15.385000 -0.129775 0
15.390000 -0.131420 0
15.395000 -0.130439 0
15.400000 -0.129462 0
15.405000 -0.128490 0
15.410000 -0.127522 0
15.415000 -0.126556 0
15.420000 -0.125589 0
15.425000 -0.124618 0
15.430000 -0.123632 0
15.435000 -0.122614 0
15.440000 -0.121535 0
15.445000 -0.120344 0
15.450000 -0.118963 0
15.455000 -0.117267 0
15.460000 -0.115074 0
15.465000 -0.112123 0
15.470000 -0.108066 0
15.475000 -0.102455 0
15.480000 -0.094756 0
15.485000 -0.084370 0
15.490000 -0.070694 0
15.495000 -0.053201 0
15.500000 -0.031549 0
15.505000 -0.005699 0
15.510000 0.023971 0
15.515000 0.056585 0
15.520000 0.090748 0
15.525000 0.124603 0
15.530000 0.155974 0
15.535000 0.182585 0
15.540000 0.202331 0
15.545000 0.213550 0
15.550000 0.215258 1
15.555000 0.207288 0
15.560000 0.190318 0
15.565000 0.165776 0
15.570000 0.135639 0
15.575000 0.102137 0
15.580000 0.067380 0
15.585000 0.032776 0
15.590000 -0.001842 0
15.595000 -0.039206 0
15.600000 -0.084496 0
15.605000 -0.142021 0
15.610000 -0.208257 0
15.615000 -0.265400 0
15.620000 -0.281976 2
15.625000 -0.221425 0
15.630000 -0.053457 0
15.635000 0.231735 0
15.640000 0.600720 0
15.645000 0.958527 0
15.650000 1.171786 3
15.655000 1.141757 0
15.660000 0.876920 0
15.665000 0.487020 0
15.670000 0.105822 0
15.675000 -0.176448 0
15.680000 -0.327313 0
15.685000 -0.355979 4
15.690000 -0.297903 0
15.695000 -0.200465 0
15.700000 -0.104267 0
15.705000 -0.029475 0
15.710000 0.023294 0
15.715000 0.062415 0
15.720000 0.095987 0
15.725000 0.128535 0
15.730000 0.161627 0
15.735000 0.195308 0
15.740000 0.229012 0
15.745000 0.261944 0
15.750000 0.293223 0
15.755000 0.321938 0
15.760000 0.347198 0
15.765000 0.368174 0
15.770000 0.384148 0
15.775000 0.394549 0
15.780000 0.398990 5
15.785000 0.397286 0
15.790000 0.389469 0
15.795000 0.375786 0
15.800000 0.356686 0
15.805000 0.332792 0
15.810000 0.304870 0
15.815000 0.273786 0
15.820000 0.240461 0
15.825000 0.205826 0
15.830000 0.170778 0
15.835000 0.136146 0
15.840000 0.102659 0
15.845000 0.070922 0
15.850000 0.041411 0
15.855000 0.014464 0
15.860000 -0.009713 0
15.865000 -0.031035 0
15.870000 -0.049521 0
15.875000 -0.065278 0
15.880000 -0.078477 0
15.885000 -0.089338 0
15.890000 -0.098108 0
15.895000 -0.105046 0
15.900000 -0.110408 0
15.905000 -0.114442 0
15.910000 -0.117374 0
15.915000 -0.118980 0
15.920000 -0.118061 0
15.925000 -0.117146 0
15.930000 -0.116236 0
15.935000 -0.115328 0
15.940000 -0.114422 0
15.945000 -0.113515 0
15.950000 -0.112600 0
15.955000 -0.111667 0
15.960000 -0.110696 0
15.965000 -0.109653 0
15.970000 -0.108480 0
15.975000 -0.107085 0
15.980000 -0.105327 0
15.985000 -0.103000 0
15.990000 -0.099813 0
15.995000 -0.095378 0
16.000000 -0.089212 0
16.005000 -0.080742 0
16.010000 -0.069349 0
16.015000 -0.054433 0
16.020000 -0.035510 0
16.025000 -0.012328 0
16.030000 0.015005 0
16.035000 0.045918 0
16.040000 0.079306 0
16.045000 0.113544 0
16.050000 0.146581 0
16.055000 0.176123 0
16.060000 0.199888 0
16.065000 0.215897 0
16.070000 0.222742 1
16.075000 0.219795 0
16.080000 0.207298 0
16.085000 0.186332 0
16.090000 0.158661 0
16.095000 0.126474 0
16.100000 0.092040 0
16.105000 0.057223 0
16.110000 0.022733 0
16.115000 -0.012934 0
16.120000 -0.054122 0
16.125000 -0.106292 0
16.130000 -0.170213 0
16.135000 -0.234210 0
16.140000 -0.271141 2
16.145000 -0.244431 0
16.150000 -0.119322 0
16.155000 0.124169 0
16.160000 0.471002 0
16.165000 0.846800 0
16.170000 1.122604 0
16.175000 1.177355 3
16.180000 0.980876 0
16.185000 0.616461 0
16.190000 0.219622 0
16.195000 -0.100984 0
16.200000 -0.295202 0
16.205000 -0.360684 4
16.210000 -0.325779 0
16.215000 -0.235925 0
16.220000 -0.135992 0
16.225000 -0.053427 0
16.230000 0.005750 0
16.235000 0.048267 0
16.240000 0.082965 0
16.245000 0.115573 0
16.250000 0.148449 0
16.255000 0.181997 0
16.260000 0.215785 0
16.265000 0.249070 0
16.270000 0.280990 0
16.275000 0.310636 0
16.280000 0.337105 0
16.285000 0.359544 0
16.290000 0.377195 0
16.295000 0.389434 0
16.300000 0.395813 0
16.305000 0.396079 5
16.310000 0.390198 0
16.315000 0.378347 0
16.320000 0.360913 0
16.325000 0.338470 0
16.330000 0.311743 0
16.335000 0.281570 0
16.340000 0.248862 0
16.345000 0.214551 0
16.350000 0.179551 0
16.355000 0.144716 0
16.360000 0.110809 0
16.365000 0.078477 0
16.370000 0.048238 0
16.375000 0.020472 0
16.380000 -0.004574 0
16.385000 -0.026778 0
16.390000 -0.046130 0
16.395000 -0.062710 0
16.400000 -0.076673 0
16.405000 -0.088224 0
16.410000 -0.097605 0
16.415000 -0.105072 0
16.420000 -0.110885 0
16.425000 -0.115294 0
16.430000 -0.118534 0
16.435000 -0.120349 0
16.440000 -0.119423 0
16.445000 -0.118502 0
16.450000 -0.117584 0
16.455000 -0.116670 0
16.460000 -0.115759 0
16.465000 -0.114847 0
16.470000 -0.113930 0
16.475000 -0.113000 0
16.480000 -0.112038 0
16.485000 -0.111016 0
16.490000 -0.109885 0
16.495000 -0.108565 0
16.500000 -0.106931 0
16.505000 -0.104798 0
16.510000 -0.101902 0
16.515000 -0.097887 0
16.520000 -0.092295 0
16.525000 -0.084580 0
16.530000 -0.074128 0
16.535000 -0.060327 0
16.540000 -0.042644 0
16.545000 -0.020744 0
16.550000 0.005387 0
16.555000 0.035323 0
16.560000 0.068122 0
16.565000 0.102310 0
16.570000 0.135945 0
16.575000 0.166779 0
16.580000 0.192496 0
16.585000 0.210995 0
16.590000 0.220673 1
16.595000 0.220652 0
16.600000 0.210914 0
16.605000 0.192303 0
16.610000 0.166405 0
16.615000 0.135317 0
16.620000 0.101327 0
16.625000 0.066485 0
16.630000 0.031939 0
16.635000 -0.003052 0
16.640000 -0.042025 0
16.645000 -0.090530 0
16.650000 -0.151529 0
16.655000 -0.217655 0
16.660000 -0.266046 2
16.665000 -0.261795 0
16.670000 -0.168362 0
16.675000 0.040176 0
16.680000 0.361663 0
16.685000 0.740593 0
16.690000 1.059912 0
16.695000 1.187039 3
16.700000 1.058000 0
16.705000 0.727239 0
16.710000 0.326317 0
16.715000 -0.021582 0
16.720000 -0.249945 0
16.725000 -0.345803 4
16.730000 -0.331439 0
16.735000 -0.250156 0
16.740000 -0.149360 0
16.745000 -0.061835 0
16.750000 0.001967 0
16.755000 0.047105 0
16.760000 0.082746 0
16.765000 0.115456 0
16.770000 0.148185 0
16.775000 0.181603 0
16.780000 0.215371 0
16.785000 0.248769 0
16.790000 0.280934 0
16.795000 0.310951 0
16.800000 0.337898 0
16.805000 0.360900 0
16.810000 0.379171 0
16.815000 0.392062 0
16.820000 0.399093 0
16.825000 0.399986 5
16.830000 0.394680 0
16.835000 0.383336 0
16.840000 0.366327 0
16.845000 0.344221 0
16.850000 0.317741 0
16.855000 0.287734 0
16.860000 0.255117 0
16.865000 0.220838 0
16.870000 0.185825 0
16.875000 0.150947 0
16.880000 0.116981 0
16.885000 0.084588 0
16.890000 0.054296 0
16.895000 0.026490 0
16.900000 0.001424 0
16.905000 -0.020781 0
16.910000 -0.040114 0
16.915000 -0.056658 0
16.920000 -0.070572 0
16.925000 -0.082067 0
16.930000 -0.091386 0
16.935000 -0.098790 0
16.940000 -0.104544 0
16.945000 -0.108899 0
16.950000 -0.112093 0
16.955000 -0.113882 0
16.960000 -0.112988 0
16.965000 -0.112099 0
16.970000 -0.111213 0
16.975000 -0.110331 0
16.980000 -0.109451 0
16.985000 -0.108570 0
16.990000 -0.107682 0
16.995000 -0.106779 0
17.000000 -0.105841 0
17.005000 -0.104836 0
17.010000 -0.103711 0
17.015000 -0.102377 0
17.020000 -0.100700 0
17.025000 -0.098479 0
17.030000 -0.095429 0
17.035000 -0.091169 0
17.040000 -0.085218 0
17.045000 -0.077001 0
17.050000 -0.065893 0
17.055000 -0.051279 0
17.060000 -0.032656 0
17.065000 -0.009747 0
17.070000 0.017362 0
17.075000 0.048117 0
17.080000 0.081423 0
17.085000 0.115647 0
17.090000 0.148718 0
17.095000 0.178309 0
17.100000 0.202103 0
17.105000 0.218088 0
17.110000 0.224837 1
17.115000 0.221718 0
17.120000 0.208991 0
17.125000 0.187773 0
17.130000 0.159871 0
17.135000 0.127518 0
17.140000 0.093008 0
17.145000 0.058193 0
17.150000 0.023684 0
17.155000 -0.012241 0
17.160000 -0.054184 0
17.165000 -0.107562 0
17.170000 -0.172289 0
17.175000 -0.234937 0
17.180000 -0.266494 2
17.185000 -0.229449 0
17.190000 -0.089601 0
17.195000 0.170077 0
17.200000 0.527263 0
17.205000 0.896857 0
17.210000 1.143841 0
17.215000 1.155252 3
17.220000 0.920971 0
17.225000 0.540674 0
17.230000 0.151552 0
17.235000 -0.146814 0
17.240000 -0.314432 0
17.245000 -0.356268 4
17.250000 -0.305721 0
17.255000 -0.210296 0
17.260000 -0.112702 0
17.265000 -0.035648 0
17.270000 0.018760 0
17.275000 0.058647 0
17.280000 0.092437 0
17.285000 0.124988 0
17.290000 0.158044 0
17.295000 0.191713 0
17.300000 0.225441 0
17.305000 0.258433 0
17.310000 0.289796 0
17.315000 0.318608 0
17.320000 0.343964 0
17.325000 0.365023 0
17.330000 0.381057 0
17.335000 0.391484 0
17.340000 0.395912 5
17.345000 0.394154 0
17.350000 0.386246 0
17.355000 0.372441 0
17.360000 0.353197 0
17.365000 0.329152 0
17.370000 0.301086 0
17.375000 0.269879 0
17.380000 0.236465 0
17.385000 0.201787 0
17.390000 0.166751 0
17.395000 0.132189 0
17.400000 0.098831 0
17.405000 0.067282 0
17.410000 0.038009 0
17.415000 0.011341 0
17.420000 -0.012524 0
17.425000 -0.033514 0
17.430000 -0.051659 0
17.435000 -0.067076 0
17.440000 -0.079946 0
17.445000 -0.090496 0
17.450000 -0.098979 0
17.455000 -0.105657 0
17.460000 -0.110791 0
17.465000 -0.114626 0
17.470000 -0.117390 0
17.475000 -0.117011 0
17.480000 -0.116102 0
17.485000 -0.115197 0
17.490000 -0.114295 0
17.495000 -0.113397 0
17.500000 -0.112500 0
17.505000 -0.111600 0
17.510000 -0.110691 0
17.515000 -0.109760 0
17.520000 -0.108784 0
17.525000 -0.107723 0
17.530000 -0.106512 0
17.535000 -0.105047 0
17.540000 -0.103169 0
17.545000 -0.100648 0
17.550000 -0.097163 0
17.555000 -0.092295 0
17.560000 -0.085525 0
17.565000 -0.076253 0
17.570000 -0.063852 0
17.575000 -0.047736 0
17.580000 -0.027475 0
17.585000 -0.002917 0
17.590000 0.025687 0
17.595000 0.057583 0
17.600000 0.091469 0
17.605000 0.125535 0
17.610000 0.157590 0
17.615000 0.185283 0
17.620000 0.206380 0
17.625000 0.219061 0
17.630000 0.222179 1
17.635000 0.215431 0
17.640000 0.199404 0
17.645000 0.175494 0
17.650000 0.145696 0
17.655000 0.112308 0
17.660000 0.077530 0
17.665000 0.042868 0
17.670000 0.008211 0
17.675000 -0.029222 0
17.680000 -0.074775 0
17.685000 -0.132794 0
17.690000 -0.199169 0
17.695000 -0.254664 0
17.700000 -0.266068 2
17.705000 -0.195719 0
17.710000 -0.013737 0
17.715000 0.285991 0
17.720000 0.660774 0
17.725000 1.003435 0
17.730000 1.176480 3
17.735000 1.096845 0
17.740000 0.796887 0
17.745000 0.398846 0
17.750000 0.032535 0
17.755000 -0.223443 0
17.760000 -0.346632 0
17.765000 -0.352982 4
17.770000 -0.282167 0
17.775000 -0.182079 0
17.780000 -0.089764 0
17.785000 -0.020483 0
17.790000 0.028270 0
17.795000 0.065485 0
17.800000 0.098560 0
17.805000 0.131204 0
17.810000 0.164500 0
17.815000 0.198281 0
17.820000 0.231895 0
17.825000 0.264513 0
17.830000 0.295231 0
17.835000 0.323135 0
17.840000 0.347336 0
17.845000 0.367029 0
17.850000 0.381525 0
17.855000 0.390298 0
17.860000 0.393013 5
17.865000 0.389547 0
17.870000 0.379996 0
17.875000 0.364669 0
17.880000 0.344075 0
17.885000 0.318889 0
17.890000 0.289919 0
17.895000 0.258059 0
17.900000 0.224245 0
17.905000 0.189407 0
17.910000 0.154434 0
17.915000 0.120128 0
17.920000 0.087186 0
17.925000 0.056175 0
17.930000 0.027529 0
17.935000 0.001540 0
17.940000 -0.021626 0
17.945000 -0.041923 0
17.950000 -0.059402 0
17.955000 -0.074197 0
17.960000 -0.086501 0
17.965000 -0.096546 0
17.970000 -0.104587 0
17.975000 -0.110886 0
17.980000 -0.115700 0
17.985000 -0.119269 0
17.990000 -0.121814 0
17.995000 -0.121384 0
18.000000 -0.120453 0
18.005000 -0.119526 0
18.010000 -0.118603 0
18.015000 -0.117683 0
18.020000 -0.116763 0
18.025000 -0.115840 0
18.030000 -0.114906 0
18.035000 -0.113947 0
18.040000 -0.112937 0
18.045000 -0.111834 0
18.050000 -0.110565 0
18.055000 -0.109020 0
18.060000 -0.107029 0
18.065000 -0.104348 0
18.070000 -0.100644 0
18.075000 -0.095482 0
18.080000 -0.088329 0
18.085000 -0.078584 0
18.090000 -0.065619 0
18.095000 -0.048872 0
18.100000 -0.027947 0
18.105000 -0.002745 0
18.110000 0.026415 0
18.115000 0.058704 0
18.120000 0.092753 0
18.125000 0.126697 0
18.130000 0.158321 0
18.135000 0.185285 0
18.140000 0.205406 0
18.145000 0.216945 0
18.150000 0.218862 1
18.155000 0.210962 0
18.160000 0.193936 0
18.165000 0.169252 0
18.170000 0.138950 0
18.175000 0.105325 0
18.180000 0.070522 0
18.185000 0.035921 0
18.190000 0.001179 0
18.195000 -0.036773 0
18.200000 -0.083384 0
18.205000 -0.142538 0
18.210000 -0.208954 0
18.215000 -0.262041 0
18.220000 -0.267913 2
18.225000 -0.189283 0
18.230000 0.002341 0
18.235000 0.310191 0
18.240000 0.687048 0
18.245000 1.022080 0
18.250000 1.179254 3
18.255000 1.082572 0
18.260000 0.772019 0
18.265000 0.372497 0
18.270000 0.011251 0
18.275000 -0.237120 0
18.280000 -0.353008 0
18.285000 -0.353978 4
18.290000 -0.280444 0
18.295000 -0.180005 0
18.300000 -0.088610 0
18.305000 -0.020407 0
18.310000 0.027655 0
18.315000 0.064586 0
18.320000 0.097606 0
18.325000 0.130277 0
18.330000 0.163608 0
18.335000 0.197405 0
18.340000 0.231011 0
18.345000 0.263596 0
18.350000 0.294259 0
18.355000 0.322089 0
18.360000 0.346204 0
18.365000 0.365802 0
18.370000 0.380202 0
18.375000 0.388883 0
18.380000 0.391516 5
18.385000 0.387980 0
18.390000 0.378373 0
18.395000 0.363007 0
18.400000 0.342389 0
18.405000 0.317193 0
18.410000 0.288223 0
18.415000 0.256371 0
18.420000 0.222568 0
18.425000 0.187742 0
18.430000 0.152776 0
18.435000 0.118471 0
18.440000 0.085522 0
18.445000 0.054495 0
18.450000 0.025822 0
18.455000 -0.000201 0
18.460000 -0.023410 0
18.465000 -0.043754 0
18.470000 -0.061285 0
18.475000 -0.076134 0
18.480000 -0.088490 0
18.485000 -0.098586 0
18.490000 -0.106674 0
18.495000 -0.113015 0
18.500000 -0.117865 0
18.505000 -0.121465 0
18.510000 -0.124035 0
18.515000 -0.123599 0
18.520000 -0.122657 0
18.525000 -0.121719 0
18.530000 -0.120785 0
18.535000 -0.119854 0
18.540000 -0.118924 0
18.545000 -0.117991 0
18.550000 -0.117047 0
18.555000 -0.116080 0
18.560000 -0.115064 0
18.565000 -0.113957 0
18.570000 -0.112692 0
18.575000 -0.111160 0
18.580000 -0.109196 0
18.585000 -0.106564 0
18.590000 -0.102938 0
18.595000 -0.097892 0
18.600000 -0.090904 0
18.605000 -0.081376 0
18.610000 -0.068686 0
18.615000 -0.052262 0
18.620000 -0.031692 0
18.625000 -0.006849 0
18.630000 0.021991 0
18.635000 0.054051 0
18.640000 0.088015 0
18.645000 0.122068 0
18.650000 0.154030 0
18.655000 0.181569 0
18.660000 0.202482 0
18.665000 0.214982 0
18.670000 0.217949 1
18.675000 0.211099 0
18.680000 0.195024 0
18.685000 0.171113 0
18.690000 0.141344 0
18.695000 0.107994 0
18.700000 0.073244 0
18.705000 0.038599 0
18.710000 0.003986 0
18.715000 -0.033288 0
18.720000 -0.078480 0
18.725000 -0.136029 0
18.730000 -0.202307 0
18.735000 -0.258906 0
18.740000 -0.273383 2
18.745000 -0.208363 0
18.750000 -0.033478 0
18.755000 0.259365 0
18.760000 0.631772 0
18.765000 0.981607 0
18.770000 1.172274 3
18.775000 1.115096 0
18.780000 0.832010 0
18.785000 0.437645 0
18.790000 0.062240 0
18.795000 -0.210162 0
18.800000 -0.351454 0
18.805000 -0.373050 4
18.810000 -0.311209 0
18.815000 -0.212864 0
18.820000 -0.117281 0
18.825000 -0.043348 0
18.830000 0.008907 0
18.835000 0.047870 0
18.840000 0.081465 0
18.845000 0.114088 0
18.850000 0.147258 0
18.855000 0.181010 0
18.860000 0.214787 0
18.865000 0.247805 0
18.870000 0.279195 0
18.875000 0.308058 0
18.880000 0.333513 0
18.885000 0.354740 0
18.890000 0.371025 0
18.895000 0.381798 0
18.900000 0.386666 5
18.905000 0.385433 0
18.910000 0.378119 0
18.915000 0.364951 0
18.920000 0.346357 0
18.925000 0.322940 0
18.930000 0.295443 0
18.935000 0.264714 0
18.940000 0.231658 0
18.945000 0.197195 0
18.950000 0.162216 0
18.955000 0.127550 0
18.960000 0.093930 0
18.965000 0.061973 0
18.970000 0.032166 0
18.975000 0.004862 0
18.980000 -0.019713 0
18.985000 -0.041458 0
18.990000 -0.060376 0
18.995000 -0.076557 0
19.000000 -0.090161 0
19.005000 -0.101397 0
19.010000 -0.110504 0
19.015000 -0.117737 0
19.020000 -0.123352 0
19.025000 -0.127594 0
19.030000 -0.130692 0
19.035000 -0.132396 0
19.040000 -0.131410 0
19.045000 -0.130429 0
19.050000 -0.129452 0
19.055000 -0.128479 0
19.060000 -0.127509 0
19.065000 -0.126538 0
19.070000 -0.125563 0
19.075000 -0.124573 0
19.080000 -0.123554 0
19.085000 -0.122474 0
19.090000 -0.121287 0
19.095000 -0.119914 0
19.100000 -0.118231 0
19.105000 -0.116059 0
19.110000 -0.113139 0
19.115000 -0.109123 0
19.120000 -0.103564 0
19.125000 -0.095927 0
19.130000 -0.085610 0
19.135000 -0.072005 0
19.140000 -0.054578 0
19.145000 -0.032982 0
19.150000 -0.007170 0
19.155000 0.022480 0
19.160000 0.055091 0
19.165000 0.089261 0
19.170000 0.123119 0
19.175000 0.154474 0
19.180000 0.181035 0
19.185000 0.200685 0
19.190000 0.211760 0
19.195000 0.213280 1
19.200000 0.205094 0
19.205000 0.187905 0
19.210000 0.163170 0
19.215000 0.132888 0
19.220000 0.099312 0
19.225000 0.064548 0
19.230000 0.029969 0
19.235000 -0.004690 0
19.240000 -0.042319 0
19.245000 -0.088202 0
19.250000 -0.146445 0
19.255000 -0.212790 0
19.260000 -0.268344 0
19.265000 -0.280763 2
19.270000 -0.213305 0
19.275000 -0.036410 0
19.280000 0.257385 0
19.285000 0.629873 0
19.290000 0.980549 0
19.295000 1.174889 3
19.300000 1.122087 0
19.305000 0.841433 0
19.310000 0.447502 0
19.315000 0.071640 0
19.320000 -0.201133 0
19.325000 -0.342357 0
19.330000 -0.363539 4
19.335000 -0.301272 0
19.340000 -0.202821 0
19.345000 -0.107532 0
19.350000 -0.034094 0
19.355000 0.017723 0
19.360000 0.056422 0
19.365000 0.089907 0
19.370000 0.122499 0
19.375000 0.155659 0
19.380000 0.189391 0
19.385000 0.223117 0
19.390000 0.256044 0
19.395000 0.287293 0
19.400000 0.315959 0
19.405000 0.341156 0
19.410000 0.362064 0
19.415000 0.377973 0
19.420000 0.388317 0
19.425000 0.392714 5
19.430000 0.390984 0
19.435000 0.383160 0
19.440000 0.369489 0
19.445000 0.350419 0
19.450000 0.326568 0
19.455000 0.298698 0
19.460000 0.267670 0
19.465000 0.234398 0
19.470000 0.199808 0
19.475000 0.164793 0
19.480000 0.130178 0
19.485000 0.096689 0
19.490000 0.064933 0
19.495000 0.035384 0
19.500000 0.008384 0
19.505000 -0.015860 0
19.510000 -0.037258 0
19.515000 -0.055827 0
19.520000 -0.071668 0
19.525000 -0.084950 0
19.530000 -0.095889 0
19.535000 -0.104730 0
19.540000 -0.111730 0
19.545000 -0.117144 0
19.550000 -0.121220 0
19.555000 -0.124184 0
19.560000 -0.125803 0
19.565000 -0.124849 0
19.570000 -0.123901 0
19.575000 -0.122956 0
19.580000 -0.122015 0
19.585000 -0.121076 0
19.590000 -0.120137 0
19.595000 -0.119190 0
19.600000 -0.118227 0
19.605000 -0.117229 0
19.610000 -0.116163 0
19.615000 -0.114975 0
19.620000 -0.113577 0
19.625000 -0.111836 0
19.630000 -0.109554 0
19.635000 -0.106451 0
19.640000 -0.102156 0
19.645000 -0.096196 0
19.650000 -0.088013 0
19.655000 -0.076994 0
19.660000 -0.062536 0
19.665000 -0.044136 0
19.670000 -0.021505 0
19.675000 0.005305 0
19.680000 0.035793 0
19.685000 0.068939 0
19.690000 0.103200 0
19.695000 0.136588 0
19.700000 0.166845 0
19.705000 0.191682 0
19.710000 0.209066 0
19.715000 0.217493 1
19.720000 0.216199 0
19.725000 0.205283 0
19.730000 0.185686 0
19.735000 0.159061 0
19.740000 0.127532 0
19.745000 0.093371 0
19.750000 0.058549 0
19.755000 0.024056 0
19.760000 -0.011110 0
19.765000 -0.050760 0
19.770000 -0.100429 0
19.775000 -0.162424 0
19.780000 -0.228102 0
19.785000 -0.273386 2
19.790000 -0.262992 0
19.795000 -0.161016 0
19.800000 0.056834 0
19.805000 0.385275 0
19.810000 0.764475 0
19.815000 1.074824 0
19.820000 1.186488 3
19.825000 1.044757 0
19.830000 0.708983 0
19.835000 0.307949 0
19.840000 -0.039715 0
19.845000 -0.269818 0
19.850000 -0.369312 4
19.855000 -0.359010 0
19.860000 -0.280270 0
19.865000 -0.179380 0
19.870000 -0.089694 0
19.875000 -0.023238 0
19.880000 0.023836 0
19.885000 0.060422 0
19.890000 0.093401 0
19.895000 0.126114 0
19.900000 0.159486 0
19.905000 0.193309 0
19.910000 0.226935 0
19.915000 0.259550 0
19.920000 0.290275 0
19.925000 0.318215 0
19.930000 0.342506 0
19.935000 0.362360 0
19.940000 0.377101 0
19.945000 0.386211 0
19.950000 0.389352 5
19.955000 0.386391 0
19.960000 0.377403 0
19.965000 0.362674 0
19.970000 0.342680 0
19.975000 0.318064 0
19.980000 0.289598 0
19.985000 0.258146 0
19.990000 0.224617 0
19.995000 0.189924 0
20.000000 0.154941 0
20.005000 0.120471 0
20.010000 0.087215 0
20.015000 0.055756 0
20.020000 0.026544 0
20.025000 -0.000101 0
20.030000 -0.023987 0
20.035000 -0.045041 0
20.040000 -0.063287 0
20.045000 -0.078836 0
20.050000 -0.091860 0
20.055000 -0.102575 0
20.060000 -0.111226 0
20.065000 -0.118066 0
20.070000 -0.123348 0
20.075000 -0.127315 0
20.080000 -0.130190 0
20.085000 -0.131743 0
20.090000 -0.130760 0
20.095000 -0.129782 0
20.100000 -0.128808 0
20.105000 -0.127838 0
20.110000 -0.126870 0
20.115000 -0.125901 0
20.120000 -0.124926 0
20.125000 -0.123934 0
20.130000 -0.122907 0
20.135000 -0.121813 0
20.140000 -0.120598 0
20.145000 -0.119177 0
20.150000 -0.117418 0
20.155000 -0.115126 0
20.160000 -0.112029 0
20.165000 -0.107762 0
20.170000 -0.101861 0
20.175000 -0.093779 0
20.180000 -0.082910 0
20.185000 -0.068656 0
20.190000 -0.050510 0
20.195000 -0.028170 0
20.200000 -0.001656 0
20.205000 0.028574 0
20.210000 0.061558 0
20.215000 0.095813 0
20.220000 0.129411 0
20.225000 0.160139 0
20.230000 0.185722 0
20.235000 0.204108 0
20.240000 0.213734 0
20.245000 0.213746 1
20.250000 0.204127 0
20.255000 0.185698 0
20.260000 0.160007 0
20.265000 0.129103 0
20.270000 0.095233 0
20.275000 0.060434 0
20.280000 0.025907 0
20.285000 -0.008922 0
20.290000 -0.047322 0
20.295000 -0.094696 0
20.300000 -0.154499 0
20.305000 -0.220857 0
20.310000 -0.272992 0
20.315000 -0.277548 2
20.320000 -0.198185 0
20.325000 -0.007189 0
20.330000 0.298867 0
20.335000 0.675081 0
20.340000 1.014931 0
20.345000 1.184987 3
20.350000 1.103399 0
20.355000 0.802375 0
20.360000 0.404155 0
20.365000 0.038069 0
20.370000 -0.217698 0
20.375000 -0.340850 0
20.380000 -0.347312 4
20.385000 -0.276641 0
20.390000 -0.176606 0
20.395000 -0.084223 0
20.400000 -0.014819 0
20.405000 0.034030 0
20.410000 0.071281 0
20.415000 0.104343 0
20.420000 0.136951 0
20.425000 0.170207 0
20.430000 0.203954 0
20.435000 0.237546 0
20.440000 0.270158 0
20.445000 0.300890 0
20.450000 0.328828 0
20.455000 0.353088 0
20.460000 0.372862 0
20.465000 0.387461 0
20.470000 0.396356 0
20.475000 0.399208 5
20.480000 0.395888 0
20.485000 0.386485 0
20.490000 0.371303 0
20.495000 0.350842 0
20.500000 0.325771 0
20.505000 0.296891 0
20.510000 0.265091 0
20.515000 0.231306 0
20.520000 0.196463 0
20.525000 0.161451 0
20.530000 0.127074 0
20.535000 0.094031 0
20.540000 0.062896 0
20.545000 0.034105 0
20.550000 0.007958 0
20.555000 -0.015376 0
20.560000 -0.035844 0
20.565000 -0.053493 0
20.570000 -0.068453 0
20.575000 -0.080913 0
20.580000 -0.091103 0
20.585000 -0.099278 0
20.590000 -0.105697 0
20.595000 -0.110618 0
20.600000 -0.114281 0
20.605000 -0.116909 0
20.610000 -0.116513 0
20.615000 -0.115606 0
20.620000 -0.114703 0
20.625000 -0.113804 0
20.630000 -0.112908 0
20.635000 -0.112012 0
20.640000 -0.111114 0
20.645000 -0.110205 0
20.650000 -0.109272 0
20.655000 -0.108291 0
20.660000 -0.107221 0
20.665000 -0.105993 0
20.670000 -0.104499 0
20.675000 -0.102576 0
20.680000 -0.099988 0
20.685000 -0.096410 0
20.690000 -0.091417 0
20.695000 -0.084487 0
20.700000 -0.075023 0
20.705000 -0.062400 0
20.710000 -0.046045 0
20.715000 -0.025544 0
20.720000 -0.000766 0
20.725000 0.028015 0
20.730000 0.060027 0
20.735000 0.093954 0
20.740000 0.127981 0
20.745000 0.159927 0
20.750000 0.187457 0
20.755000 0.208365 0
20.760000 0.220857 0
20.765000 0.223812 1
20.770000 0.216942 0
20.775000 0.200842 0
20.780000 0.176899 0
20.785000 0.147097 0
20.790000 0.113714 0
20.795000 0.078934 0
20.800000 0.044261 0
20.805000 0.009617 0
20.810000 -0.027710 0
20.815000 -0.072987 0
20.820000 -0.130638 0
20.825000 -0.196959 0
20.830000 -0.253409 0
20.835000 -0.267425 2
20.840000 -0.201591 0
20.845000 -0.025616 0
20.850000 0.268290 0
20.855000 0.641076 0
20.860000 0.989830 0
20.865000 1.177795 3
20.870000 1.116574 0
20.875000 0.829866 0
20.880000 0.434499 0
20.885000 0.061272 0
20.890000 -0.206757 0
20.895000 -0.342901 0
20.900000 -0.359913 4
20.905000 -0.295214 0
20.910000 -0.196230 0
20.915000 -0.101687 0
20.920000 -0.029347 0
20.925000 0.021643 0
20.930000 0.059932 0
20.935000 0.093293 0
20.940000 0.125888 0
20.945000 0.159076 0
20.950000 0.192816 0
20.955000 0.226512 0
20.960000 0.259362 0
20.965000 0.290482 0
20.970000 0.318964 0
20.975000 0.343923 0
20.980000 0.364542 0
20.985000 0.380116 0
20.990000 0.390090 0
20.995000 0.394092 5
21.000000 0.391954 0
21.005000 0.383725 0
21.010000 0.369666 0
21.015000 0.350237 0
21.020000 0.326071 0
21.025000 0.297940 0
21.030000 0.266710 0
21.035000 0.233302 0
21.040000 0.198642 0
21.045000 0.163623 0
21.050000 0.129063 0
21.055000 0.095682 0
21.060000 0.064080 0
21.065000 0.034720 0
21.070000 0.007933 0
21.075000 -0.016083 0
21.080000 -0.037246 0
21.085000 -0.055582 0
21.090000 -0.071199 0
21.095000 -0.084273 0
21.100000 -0.095021 0
21.105000 -0.103691 0
21.110000 -0.110542 0
21.115000 -0.115829 0
21.120000 -0.119798 0
21.125000 -0.122675 0
21.130000 -0.124235 0
21.135000 -0.123290 0
21.140000 -0.122349 0
21.145000 -0.121412 0
21.150000 -0.120479 0
21.155000 -0.119547 0
21.160000 -0.118614 0
21.165000 -0.117674 0
21.170000 -0.116715 0
21.175000 -0.115718 0
21.180000 -0.114649 0
21.185000 -0.113449 0
21.190000 -0.112027 0
21.195000 -0.110243 0
21.200000 -0.107889 0
21.205000 -0.104675 0
21.210000 -0.100217 0
21.215000 -0.094030 0
21.220000 -0.085545 0
21.225000 -0.074145 0
21.230000 -0.059233 0
21.235000 -0.040324 0
21.240000 -0.017165 0
21.245000 0.010142 0
21.250000 0.041033 0
21.255000 0.074415 0
21.260000 0.108677 0
21.265000 0.141780 0
21.270000 0.171441 0
21.275000 0.195384 0
21.280000 0.211625 0
21.285000 0.218746 1
21.290000 0.216097 0
21.295000 0.203895 0
21.300000 0.183194 0
21.305000 0.155734 0
21.310000 0.123687 0
21.315000 0.089318 0
21.320000 0.054513 0
21.325000 0.020041 0
21.330000 -0.015486 0
21.335000 -0.056285 0
21.340000 -0.107845 0
21.345000 -0.171325 0
21.350000 -0.235822 0
21.355000 -0.274981 2
21.360000 -0.252576 0
21.365000 -0.133574 0
21.370000 0.103179 0
21.375000 0.445392 0
21.380000 0.822771 0
21.385000 1.108859 0
21.390000 1.179897 3
21.395000 0.996826 0
21.400000 0.637728 0
21.405000 0.239771 0
21.410000 -0.084389 0
21.415000 -0.281802 0
21.420000 -0.349112 4
21.425000 -0.314774 0
21.430000 -0.224923 0
21.435000 -0.125147 0
21.440000 -0.043106 0
21.445000 0.015425 0
21.450000 0.057465 0
21.455000 0.091936 0
21.460000 0.124487 0
21.465000 0.157373 0
21.470000 0.190926 0
21.475000 0.224672 0
21.480000 0.257840 0
21.485000 0.289548 0
21.490000 0.318868 0
21.495000 0.344884 0
21.500000 0.366739 0
21.505000 0.383673 0
21.510000 0.395077 0
21.515000 0.400519 5
21.520000 0.399776 0
21.525000 0.392845 0
21.530000 0.379947 0
21.535000 0.361509 0
21.540000 0.338145 0
21.545000 0.310620 0
21.550000 0.279806 0
21.555000 0.246637 0
21.560000 0.212061 0
21.565000 0.176997 0
21.570000 0.142295 0
21.575000 0.108704 0
21.580000 0.076850 0
21.585000 0.047222 0
21.590000 0.020170 0
21.595000 -0.004091 0
21.600000 -0.025472 0
21.605000 -0.043993 0
21.610000 -0.059760 0
21.615000 -0.072950 0
21.620000 -0.083785 0
21.625000 -0.092517 0
21.630000 -0.099411 0
21.635000 -0.104728 0
21.640000 -0.108718 0
21.645000 -0.111611 0
21.650000 -0.111275 0
21.655000 -0.110395 0
21.660000 -0.109518 0
21.665000 -0.108645 0
21.670000 -0.107775 0
21.675000 -0.106906 0
21.680000 -0.106035 0
21.685000 -0.105156 0
21.690000 -0.104255 0
21.695000 -0.103311 0
21.700000 -0.102287 0
21.705000 -0.101117 0
21.710000 -0.099702 0
21.715000 -0.097885 0
21.720000 -0.095441 0
21.725000 -0.092055 0
21.730000 -0.087310 0
21.735000 -0.080690 0
21.740000 -0.071598 0
21.745000 -0.059401 0
21.750000 -0.043507 0
21.755000 -0.023473 0
21.760000 0.000871 0
21.765000 0.029292 0
21.770000 0.061055 0
21.775000 0.094874 0
21.780000 0.128944 0
21.785000 0.161076 0
21.790000 0.188907 0
21.795000 0.210184 0
21.800000 0.223062 0
21.805000 0.226371 1
21.810000 0.219786 0
21.815000 0.203882 0
21.820000 0.180047 0
21.825000 0.150282 0
21.830000 0.116895 0
21.835000 0.082097 0
21.840000 0.047412 0
21.845000 0.012733 0
21.850000 -0.024733 0
21.855000 -0.070355 0
21.860000 -0.128481 0
21.865000 -0.194890 0
21.870000 -0.250096 0
21.875000 -0.260605 2
21.880000 -0.188593 0
21.885000 -0.004283 0
21.890000 0.297761 0
21.895000 0.673249 0
21.900000 1.013044 0
21.905000 1.179248 3
21.910000 1.091542 0
21.915000 0.786830 0
21.920000 0.388099 0
21.925000 0.023624 0
21.930000 -0.229827 0
21.935000 -0.350867 0
21.940000 -0.355854 4
21.945000 -0.284461 0
21.950000 -0.184294 0
21.955000 -0.092047 0
21.960000 -0.022788 0
21.965000 0.025999 0
21.970000 0.063257 0
21.975000 0.096353 0
21.980000 0.129002 0
21.985000 0.162298 0
21.990000 0.196083 0
21.995000 0.229716 0
22.000000 0.262373 0
22.005000 0.293159 0
22.010000 0.321162 0
22.015000 0.345500 0
22.020000 0.365366 0
22.025000 0.380073 0
22.030000 0.389092 0
22.035000 0.392081 5
22.040000 0.388907 0
22.045000 0.379657 0
22.050000 0.364628 0
22.055000 0.344316 0
22.060000 0.319384 0
22.065000 0.290628 0
22.070000 0.258932 0
22.075000 0.225227 0
22.080000 0.190439 0
22.085000 0.155455 0
22.090000 0.121079 0
22.095000 0.088014 0
22.100000 0.056835 0
22.105000 0.027982 0
22.110000 0.001759 0
22.115000 -0.021660 0
22.120000 -0.042216 0
22.125000 -0.059956 0
22.130000 -0.075002 0
22.135000 -0.087543 0
22.140000 -0.097806 0
22.145000 -0.106043 0
22.150000 -0.112514 0
22.155000 -0.117475 0
22.160000 -0.121169 0
22.165000 -0.123816 0
22.170000 -0.123393 0
22.175000 -0.122452 0
22.180000 -0.121515 0
22.185000 -0.120583 0
22.190000 -0.119653 0
22.195000 -0.118724 0
22.200000 -0.117793 0
22.205000 -0.116852 0
22.210000 -0.115889 0
22.215000 -0.114880 0
22.220000 -0.113786 0
22.225000 -0.112541 0
22.230000 -0.111041 0
22.235000 -0.109129 0
22.240000 -0.106575 0
22.245000 -0.103064 0
22.250000 -0.098181 0
22.255000 -0.091413 0
22.260000 -0.082169 0
22.265000 -0.069827 0
22.270000 -0.053807 0
22.275000 -0.033677 0
22.280000 -0.009274 0
22.285000 0.019173 0
22.290000 0.050944 0
22.295000 0.084782 0
22.300000 0.118923 0
22.305000 0.151221 0
22.310000 0.179353 0
22.315000 0.201092 0
22.320000 0.214593 0
22.325000 0.218656 1
22.330000 0.212898 0
22.335000 0.197815 0
22.340000 0.174709 0
22.345000 0.145502 0
22.350000 0.112449 0
22.355000 0.077763 0
22.360000 0.043067 0
22.365000 0.008531 0
22.370000 -0.028183 0
22.375000 -0.072106 0
22.380000 -0.128099 0
22.385000 -0.193966 0
22.390000 -0.253309 0
22.395000 -0.275109 2
22.400000 -0.222036 0
22.405000 -0.062196 0
22.410000 0.216472 0
22.415000 0.583044 0
22.420000 0.943447 0
22.425000 1.161912 3
22.430000 1.137140 0
22.435000 0.875363 0
22.440000 0.486153 0
22.445000 0.104599 0
22.450000 -0.177880 0
22.455000 -0.328389 0
22.460000 -0.356289 4
22.465000 -0.297482 0
22.470000 -0.199793 0
22.475000 -0.103917 0
22.480000 -0.029730 0
22.485000 0.022507 0
22.490000 0.061333 0
22.495000 0.094819 0
22.500000 0.127387 0
22.505000 0.160527 0
22.510000 0.194240 0
22.515000 0.227937 0
22.520000 0.260809 0
22.525000 0.291962 0
22.530000 0.320478 0
22.535000 0.345459 0
22.540000 0.366077 0
22.545000 0.381618 0
22.550000 0.391520 0
22.555000 0.395409 5
22.560000 0.393118 0
22.565000 0.384702 0
22.570000 0.370432 0
22.575000 0.350779 0
22.580000 0.326392 0
22.585000 0.298057 0
22.590000 0.266657 0
22.595000 0.233124 0
22.600000 0.198396 0
22.605000 0.163371 0
22.610000 0.128874 0
22.615000 0.095622 0
22.620000 0.064208 0
22.625000 0.035091 0
22.630000 0.008591 0
22.635000 -0.015106 0
22.640000 -0.035932 0
22.645000 -0.053922 0
22.650000 -0.069198 0
22.655000 -0.081942 0
22.660000 -0.092382 0
22.665000 -0.100771 0
22.670000 -0.107371 0
22.675000 -0.112439 0
22.680000 -0.116221 0
22.685000 -0.118942 0
22.690000 -0.118550 0
22.695000 -0.117633 0
22.700000 -0.116721 0
22.705000 -0.115812 0
22.710000 -0.114906 0
22.715000 -0.114001 0
22.720000 -0.113093 0
22.725000 -0.112177 0
22.730000 -0.111237 0
22.735000 -0.110253 0
22.740000 -0.109183 0
22.745000 -0.107962 0
22.750000 -0.106486 0
22.755000 -0.104596 0
22.760000 -0.102062 0
22.765000 -0.098564 0
22.770000 -0.093684 0
22.775000 -0.086903 0
22.780000 -0.077627 0
22.785000 -0.065228 0
22.790000 -0.049124 0
22.795000 -0.028885 0
22.800000 -0.004357 0
22.805000 0.024214 0
22.810000 0.056081 0
22.815000 0.089955 0
22.820000 0.124040 0
22.825000 0.156158 0
22.830000 0.183968 0
22.835000 0.205239 0
22.840000 0.218146 0
22.845000 0.221527 1
22.850000 0.215058 0
22.855000 0.199299 0
22.860000 0.175617 0
22.865000 0.145988 0
22.870000 0.112694 0
22.875000 0.077938 0
22.880000 0.043264 0
22.885000 0.008648 0
22.890000 -0.028556 0
22.895000 -0.073601 0
22.900000 -0.131007 0
22.905000 -0.197279 0
22.910000 -0.254067 0
22.915000 -0.268827 2
22.920000 -0.203976 0
22.925000 -0.028961 0
22.930000 0.264299 0
22.935000 0.636934 0
22.940000 0.985838 0
22.945000 1.173713 3
22.950000 1.111948 0
22.955000 0.825436 0
22.960000 0.430236 0
22.965000 0.056451 0
22.970000 -0.212945 0
22.975000 -0.350922 0
22.980000 -0.369715 4
22.985000 -0.306189 0
22.990000 -0.207453 0
22.995000 -0.112398 0
23.000000 -0.039273 0
23.005000 0.012355 0
23.010000 0.050995 0
23.015000 0.084488 0
23.020000 0.117110 0
23.025000 0.150300 0
23.030000 0.184059 0
23.035000 0.217812 0
23.040000 0.250768 0
23.045000 0.282052 0
23.050000 0.310762 0
23.055000 0.336017 0
23.060000 0.356999 0
23.065000 0.372998 0
23.070000 0.383450 0
23.075000 0.387972 5
23.080000 0.386380 0
23.085000 0.378704 0
23.090000 0.365186 0
23.095000 0.346266 0
23.100000 0.322558 0
23.105000 0.294817 0
23.110000 0.263897 0
23.115000 0.230708 0
23.120000 0.196173 0
23.125000 0.161184 0
23.130000 0.126563 0
23.135000 0.093039 0
23.140000 0.061222 0
23.145000 0.031591 0
23.150000 0.004489 0
23.155000 -0.019869 0
23.160000 -0.041389 0
23.165000 -0.060081 0
23.170000 -0.076044 0
23.175000 -0.089443 0
23.180000 -0.100489 0
23.185000 -0.109427 0
23.190000 -0.116510 0
23.195000 -0.121996 0
23.200000 -0.126130 0
23.205000 -0.129138 0
23.210000 -0.130782 0
23.215000 -0.129804 0
23.220000 -0.128831 0
23.225000 -0.127862 0
23.230000 -0.126896 0
23.235000 -0.125933 0
23.240000 -0.124970 0
23.245000 -0.124001 0
23.250000 -0.123017 0
23.255000 -0.121999 0
23.260000 -0.120918 0
23.265000 -0.119721 0
23.270000 -0.118326 0
23.275000 -0.116604 0
23.280000 -0.114364 0
23.285000 -0.111339 0
23.290000 -0.107167 0
23.295000 -0.101389 0
23.300000 -0.093456 0
23.305000 -0.082762 0
23.310000 -0.068700 0
23.315000 -0.050753 0
23.320000 -0.028604 0
23.325000 -0.002256 0
23.330000 0.027849 0
23.335000 0.060760 0
23.340000 0.095002 0
23.345000 0.128644 0
23.350000 0.159457 0
23.355000 0.185153 0
23.360000 0.203655 0
23.365000 0.213381 0
23.370000 0.213461 1
23.375000 0.203873 0
23.380000 0.185441 0
23.385000 0.159724 0
23.390000 0.128788 0
23.395000 0.094896 0
23.400000 0.060095 0
23.405000 0.025573 0
23.410000 -0.009294 0
23.415000 -0.047864 0
23.420000 -0.095598 0
23.425000 -0.155801 0
23.430000 -0.222096 0
23.435000 -0.272970 0
23.440000 -0.274477 2
23.445000 -0.190152 0
23.450000 0.007150 0
23.455000 0.318938 0
23.460000 0.696514 0
23.465000 1.029346 0
23.470000 1.183900 3
23.475000 1.086101 0
23.480000 0.775729 0
23.485000 0.376286 0
23.490000 0.013867 0
23.495000 -0.237005 0
23.500000 -0.356100 0
23.505000 -0.360070 4
23.510000 -0.288378 0
23.515000 -0.188176 0
23.520000 -0.095811 0
23.525000 -0.026302 0
23.530000 0.022737 0
23.535000 0.060149 0
23.540000 0.093299 0
23.545000 0.125946 0
23.550000 0.159228 0
23.555000 0.193013 0
23.560000 0.226678 0
23.565000 0.259411 0
23.570000 0.290329 0
23.575000 0.318528 0
23.580000 0.343133 0
23.585000 0.363338 0
23.590000 0.378453 0
23.595000 0.387942 0
23.600000 0.391450 5
23.605000 0.388829 0
23.610000 0.380145 0
23.615000 0.365674 0
23.620000 0.345887 0
23.625000 0.321426 0
23.630000 0.293068 0
23.635000 0.261679 0
23.640000 0.228178 0
23.645000 0.193486 0
23.650000 0.158487 0
23.655000 0.123991 0
23.660000 0.090709 0
23.665000 0.059228 0
23.670000 0.030005 0
23.675000 0.003362 0
23.680000 -0.020510 0
23.685000 -0.041535 0
23.690000 -0.059743 0
23.695000 -0.075245 0
23.700000 -0.088215 0
23.705000 -0.098874 0
23.710000 -0.107468 0
23.715000 -0.114254 0
23.720000 -0.119487 0
23.725000 -0.123411 0
23.730000 -0.126249 0
23.735000 -0.127780 0
23.740000 -0.126817 0
23.745000 -0.125858 0
23.750000 -0.124904 0
23.755000 -0.123953 0
23.760000 -0.123004 0
23.765000 -0.122054 0
23.770000 -0.121096 0
23.775000 -0.120121 0
23.780000 -0.119107 0
23.785000 -0.118021 0
23.790000 -0.116806 0
23.795000 -0.115371 0
23.800000 -0.113576 0
23.805000 -0.111216 0
23.810000 -0.108005 0
23.815000 -0.103560 0
23.820000 -0.097403 0
23.825000 -0.088968 0
23.830000 -0.077642 0
23.835000 -0.062828 0
23.840000 -0.044039 0
23.845000 -0.021014 0
23.850000 0.006160 0
23.855000 0.036939 0
23.860000 0.070260 0
23.865000 0.104537 0
23.870000 0.137758 0
23.875000 0.167656 0
23.880000 0.191959 0
23.885000 0.208672 0
23.890000 0.216345 1
23.895000 0.214286 0
23.900000 0.202660 0
23.905000 0.182466 0
23.910000 0.155401 0
23.915000 0.123607 0
23.920000 0.089345 0
23.925000 0.054539 0
23.930000 0.020069 0
23.935000 -0.015244 0
23.940000 -0.055393 0
23.945000 -0.105887 0
23.950000 -0.168546 0
23.955000 -0.233788 0
23.960000 -0.276640 2
23.965000 -0.261510 0
23.970000 -0.152927 0
23.975000 0.072159 0
23.980000 0.405915 0
23.985000 0.784858 0
23.990000 1.087115 0
23.995000 1.185079 3
24.000000 1.029491 0
24.005000 0.685853 0
24.010000 0.285167 0
24.015000 -0.056075 0
24.020000 -0.277175 0
24.025000 -0.367865 4
24.030000 -0.350946 0
24.035000 -0.268964 0
24.040000 -0.168036 0
24.045000 -0.080102 0
24.050000 -0.015592 0
24.055000 0.030198 0
24.060000 0.066220 0
24.065000 0.099069 0
24.070000 0.131818 0
24.075000 0.165242 0
24.080000 0.199067 0
24.085000 0.232616 0
24.090000 0.265062 0
24.095000 0.295517 0
24.100000 0.323082 0
24.105000 0.346896 0
24.110000 0.366175 0
24.115000 0.380259 0
24.120000 0.388646 0
24.125000 0.391020 5
24.130000 0.387273 0
24.135000 0.377509 0
24.140000 0.362041 0
24.145000 0.341372 0
24.150000 0.316166 0
24.155000 0.287217 0
24.160000 0.255401 0
24.165000 0.221635 0
24.170000 0.186835 0
24.175000 0.151869 0
24.180000 0.117532 0
24.185000 0.084511 0
24.190000 0.053371 0
24.195000 0.024545 0
24.200000 -0.001667 0
24.205000 -0.025095 0
24.210000 -0.045679 0
24.215000 -0.063463 0
24.220000 -0.078569 0
24.225000 -0.091178 0
24.230000 -0.101515 0
24.235000 -0.109828 0
24.240000 -0.116373 0
24.245000 -0.121403 0
24.250000 -0.125158 0
24.255000 -0.127859 0
24.260000 -0.127427 0
24.265000 -0.126466 0
24.270000 -0.125509 0
24.275000 -0.124557 0
24.280000 -0.123607 0
24.285000 -0.122659 0
24.290000 -0.121710 0
24.295000 -0.120752 0
24.300000 -0.119774 0
24.305000 -0.118756 0
24.310000 -0.117660 0
24.315000 -0.116426 0
24.320000 -0.114961 0
24.325000 -0.113117 0
24.330000 -0.110683 0
24.335000 -0.107364 0
24.340000 -0.102770 0
24.345000 -0.096412 0
24.350000 -0.087722 0
24.355000 -0.076086 0
24.360000 -0.060917 0
24.365000 -0.041745 0
24.370000 -0.018337 0
24.375000 0.009184 0
24.380000 0.040231 0
24.385000 0.073698 0
24.390000 0.107966 0
24.395000 0.141002 0
24.400000 0.170536 0
24.405000 0.194318 0
24.410000 0.210392 0
24.415000 0.217366 1
24.420000 0.214608 0
24.425000 0.202345 0
24.430000 0.181627 0
24.435000 0.154182 0
24.440000 0.122162 0
24.445000 0.087814 0
24.450000 0.053016 0
24.455000 0.018553 0
24.460000 -0.016899 0
24.465000 -0.057464 0
24.470000 -0.108606 0
24.475000 -0.171743 0
24.480000 -0.236607 0
24.485000 -0.277639 2
24.490000 -0.259135 0
24.495000 -0.146026 0
24.500000 0.083812 0
24.505000 0.420847 0
24.510000 0.799422 0
24.515000 1.096649 0
24.520000 1.186675 3
24.525000 1.023549 0
24.530000 0.675534 0
24.535000 0.275303 0
24.540000 -0.061638 0
24.545000 -0.276636 0
24.550000 -0.361231 4
24.555000 -0.339681 0
24.560000 -0.255481 0
24.565000 -0.154692 0
24.570000 -0.068211 0
24.575000 -0.005263 0
24.580000 0.039502 0
24.585000 0.075072 0
24.590000 0.107811 0
24.595000 0.140577 0
24.600000 0.174026 0
24.605000 0.207828 0
24.610000 0.241282 0
24.615000 0.273547 0
24.620000 0.303723 0
24.625000 0.330909 0
24.630000 0.354243 0
24.635000 0.372946 0
24.640000 0.386370 0
24.645000 0.394029 0
24.650000 0.395630 5
24.655000 0.391089 0
24.660000 0.380538 0
24.665000 0.364318 0
24.670000 0.342959 0
24.675000 0.317151 0
24.680000 0.287707 0
24.685000 0.255519 0
24.690000 0.221513 0
24.695000 0.186605 0
24.700000 0.151663 0
24.705000 0.117469 0
24.710000 0.084698 0
24.715000 0.053896 0
24.720000 0.025478 0
24.725000 -0.000279 0
24.730000 -0.023222 0
24.735000 -0.043313 0
24.740000 -0.060611 0
24.745000 -0.075251 0
24.750000 -0.087428 0
24.755000 -0.097371 0
24.760000 -0.105335 0
24.765000 -0.111577 0
24.770000 -0.116350 0
24.775000 -0.119892 0
24.780000 -0.122420 0
24.785000 -0.121986 0
24.790000 -0.121051 0
24.795000 -0.120121 0
24.800000 -0.119195 0
24.805000 -0.118272 0
24.810000 -0.117350 0
24.815000 -0.116424 0
24.820000 -0.115488 0
24.825000 -0.114528 0
24.830000 -0.113518 0
24.835000 -0.112419 0
24.840000 -0.111160 0
24.845000 -0.109636 0
24.850000 -0.107682 0
24.855000 -0.105065 0
24.860000 -0.101461 0
24.865000 -0.096451 0
24.870000 -0.089518 0
24.875000 -0.080070 0
24.880000 -0.067490 0
24.885000 -0.051208 0
24.890000 -0.030810 0
24.895000 -0.006153 0
24.900000 0.022506 0
24.905000 0.054420 0
24.910000 0.088313 0
24.915000 0.122408 0
24.920000 0.154558 0
24.925000 0.182456 0
24.930000 0.203897 0
24.935000 0.217070 0
24.940000 0.220809 1
24.945000 0.214760 0
24.950000 0.199442 0
24.955000 0.176168 0
24.960000 0.146856 0
24.965000 0.113752 0
24.970000 0.079049 0
24.975000 0.044348 0
24.980000 0.009803 0
24.985000 -0.026927 0
24.990000 -0.070847 0
24.995000 -0.126792 0
25.000000 -0.192635 0
25.005000 -0.252202 0
25.010000 -0.274798 2
25.015000 -0.223335 0
25.020000 -0.065923 0
25.025000 0.210043 0
25.030000 0.575189 0
25.035000 0.937741 0
25.040000 1.163101 3
25.045000 1.147685 0
25.050000 0.892964 0
25.055000 0.505880 0
25.060000 0.122037 0
25.065000 -0.165012 0
25.070000 -0.320462 0
25.075000 -0.352427 4
25.080000 -0.296046 0
25.085000 -0.199003 0
25.090000 -0.102572 0
25.095000 -0.027482 0
25.100000 0.025434 0
25.105000 0.064585 0
25.110000 0.098147 0
25.115000 0.130686 0
25.120000 0.163775 0
25.125000 0.197452 0
25.130000 0.231141 0
25.135000 0.264040 0
25.140000 0.295258 0
25.145000 0.323875 0
25.150000 0.348993 0
25.155000 0.369782 0
25.160000 0.385520 0
25.165000 0.395641 0
25.170000 0.399761 5
25.175000 0.397706 0
25.180000 0.389521 0
25.185000 0.375467 0
25.190000 0.356008 0
25.195000 0.331785 0
25.200000 0.303580 0
25.205000 0.272271 0
25.210000 0.238790 0
25.215000 0.204074 0
25.220000 0.169024 0
25.225000 0.134466 0
25.230000 0.101125 0
25.235000 0.069600 0
25.240000 0.040353 0
25.245000 0.013710 0
25.250000 -0.010135 0
25.255000 -0.031109 0
25.260000 -0.049246 0
25.265000 -0.064661 0
25.270000 -0.077536 0
25.275000 -0.088096 0
25.280000 -0.096593 0
25.285000 -0.103289 0
25.290000 -0.108442 0
25.295000 -0.112298 0
25.300000 -0.115083 0
25.305000 -0.114718 0
25.310000 -0.113820 0
25.315000 -0.112926 0
25.320000 -0.112036 0
25.325000 -0.111149 0
25.330000 -0.110263 0
25.335000 -0.109375 0
25.340000 -0.108477 0
25.345000 -0.107558 0
25.350000 -0.106595 0
25.355000 -0.105550 0
25.360000 -0.104357 0
25.365000 -0.102915 0
25.370000 -0.101069 0
25.375000 -0.098592 0
25.380000 -0.095170 0
25.385000 -0.090390 0
25.390000 -0.083738 0
25.395000 -0.074623 0
25.400000 -0.062418 0
25.405000 -0.046535 0
25.410000 -0.026535 0
25.415000 -0.002246 0
25.420000 0.026109 0
25.425000 0.057813 0
25.430000 0.091605 0
25.435000 0.125714 0
25.440000 0.157978 0
25.445000 0.186059 0
25.450000 0.207715 0
25.455000 0.221093 0
25.460000 0.224989 1
25.465000 0.219032 0
25.470000 0.203734 0
25.475000 0.180423 0
25.480000 0.151046 0
25.485000 0.117878 0
25.490000 0.083137 0
25.495000 0.048423 0
25.500000 0.013829 0
25.505000 -0.023124 0
25.510000 -0.067588 0
25.515000 -0.124290 0
25.520000 -0.190410 0
25.525000 -0.248525 0
25.530000 -0.266726 2
25.535000 -0.207414 0
25.540000 -0.039296 0
25.545000 0.247585 0
25.550000 0.617810 0
25.555000 0.971846 0
25.560000 1.172494 3
25.565000 1.125154 0
25.570000 0.847047 0
25.575000 0.453453 0
25.580000 0.077705 0
25.585000 -0.193993 0
25.590000 -0.333150 0
25.595000 -0.351934 4
25.600000 -0.287901 0
25.605000 -0.189024 0
25.610000 -0.094563 0
25.615000 -0.022455 0
25.620000 0.028258 0
25.625000 0.066352 0
25.630000 0.099628 0
25.635000 0.132206 0
25.640000 0.165398 0
25.645000 0.199127 0
25.650000 0.232776 0
25.655000 0.265528 0
25.660000 0.296485 0
25.665000 0.324727 0
25.670000 0.349362 0
25.675000 0.369570 0
25.680000 0.384648 0
25.685000 0.394049 0
25.690000 0.397415 5
25.695000 0.394598 0
25.700000 0.385672 0
25.705000 0.370923 0
25.710000 0.350841 0
25.715000 0.326085 0
25.720000 0.297452 0
25.725000 0.265830 0
25.730000 0.232154 0
25.735000 0.197359 0
25.740000 0.162339 0
25.745000 0.127909 0
25.750000 0.094778 0
25.755000 0.063529 0
25.760000 0.034607 0
25.765000 0.008321 0
25.770000 -0.015151 0
25.775000 -0.035751 0
25.780000 -0.053524 0
25.785000 -0.068595 0
25.790000 -0.081151 0
25.795000 -0.091424 0
25.800000 -0.099667 0
25.805000 -0.106142 0
25.810000 -0.111106 0
25.815000 -0.114803 0
25.820000 -0.117456 0
25.825000 -0.117060 0
25.830000 -0.116151 0
25.835000 -0.115245 0
25.840000 -0.114344 0
25.845000 -0.113445 0
25.850000 -0.112547 0
25.855000 -0.111646 0
25.860000 -0.110735 0
25.865000 -0.109800 0
25.870000 -0.108817 0
25.875000 -0.107745 0
25.880000 -0.106515 0
25.885000 -0.105019 0
25.890000 -0.103095 0
25.895000 -0.100504 0
25.900000 -0.096921 0
25.905000 -0.091918 0
25.910000 -0.084970 0
25.915000 -0.075479 0
25.920000 -0.062816 0
25.925000 -0.046409 0
25.930000 -0.025843 0
25.935000 -0.000992 0
25.940000 0.027862 0
25.945000 0.059931 0
25.950000 0.093886 0
25.955000 0.127894 0
25.960000 0.159757 0
25.965000 0.187132 0
25.970000 0.207810 0
25.975000 0.220010 0
25.980000 0.222629 1
25.985000 0.215411 0
25.990000 0.198982 0
25.995000 0.174764 0
26.000000 0.144767 0
26.005000 0.111282 0
26.010000 0.076486 0
26.015000 0.041838 0
26.020000 0.007150 0
26.025000 -0.030447 0
26.030000 -0.076323 0
26.035000 -0.134682 0
26.040000 -0.201091 0
26.045000 -0.255988 0
26.050000 -0.266065 2
26.055000 -0.193848 0
26.060000 -0.009849 0
26.065000 0.291444 0
26.070000 0.666629 0
26.075000 1.008232 0
26.080000 1.179372 3
26.085000 1.097117 0
26.090000 0.794314 0
26.095000 0.395682 0
26.100000 0.031990 0
26.105000 -0.218991 0
26.110000 -0.336307 0
26.115000 -0.337502 4
26.120000 -0.263680 0
26.125000 -0.163252 0
26.130000 -0.072469 0
26.135000 -0.005171 0
26.140000 0.042134 0
26.145000 0.078645 0
26.150000 0.111515 0
26.155000 0.144164 0
26.160000 0.177494 0
26.165000 0.211250 0
26.170000 0.244740 0
26.175000 0.277107 0
26.180000 0.307432 0
26.185000 0.334785 0
26.190000 0.358279 0
26.195000 0.377108 0
26.200000 0.390603 0
26.205000 0.398260 0
26.210000 0.399776 5
26.215000 0.395069 0
26.220000 0.384279 0
26.225000 0.367762 0
26.230000 0.346073 0
26.235000 0.319928 0
26.240000 0.290170 0
26.245000 0.257720 0
26.250000 0.223531 0
26.255000 0.188538 0
26.260000 0.153624 0
26.265000 0.119578 0
26.270000 0.087072 0
26.275000 0.056646 0
26.280000 0.028697 0
26.285000 0.003487 0
26.290000 -0.018857 0
26.295000 -0.038316 0
26.300000 -0.054974 0
26.305000 -0.068985 0
26.310000 -0.080561 0
26.315000 -0.089946 0
26.320000 -0.097403 0
26.325000 -0.103197 0
26.330000 -0.107584 0
26.335000 -0.110800 0
26.340000 -0.112605 0
26.345000 -0.111718 0
26.350000 -0.110835 0
26.355000 -0.109955 0
26.360000 -0.109079 0
26.365000 -0.108205 0
26.370000 -0.107330 0
26.375000 -0.106449 0
26.380000 -0.105551 0
26.385000 -0.104618 0
26.390000 -0.103618 0
26.395000 -0.102495 0
26.400000 -0.101159 0
26.405000 -0.099474 0
26.410000 -0.097235 0
26.415000 -0.094152 0
26.420000 -0.089838 0
26.425000 -0.083803 0
26.430000 -0.075467 0
26.435000 -0.064197 0
26.440000 -0.049379 0
26.445000 -0.030514 0
26.450000 -0.007344 0
26.455000 0.020022 0
26.460000 0.050990 0
26.465000 0.084419 0
26.470000 0.118630 0
26.475000 0.151511 0
26.480000 0.180710 0
26.485000 0.203908 0
26.490000 0.219119 0
26.495000 0.224971 1
26.500000 0.220908 0
26.505000 0.207279 0
26.510000 0.185284 0
26.515000 0.156802 0
26.520000 0.124104 0
26.525000 0.089480 0
26.530000 0.054701 0
26.535000 0.020166 0
26.540000 -0.016202 0
26.545000 -0.059329 0
26.550000 -0.114396 0
26.555000 -0.179979 0
26.560000 -0.240399 0
26.565000 -0.264691 2
26.570000 -0.214824 0
26.575000 -0.057881 0
26.580000 0.219125 0
26.585000 0.585389 0
26.590000 0.945222 0
26.595000 1.160233 3
26.600000 1.129855 0
26.605000 0.864813 0
26.610000 0.474902 0
26.615000 0.093830 0
26.620000 -0.188268 0
26.625000 -0.338973 0
26.630000 -0.367514 4
26.635000 -0.309350 0
26.640000 -0.211849 0
26.645000 -0.115597 0
26.650000 -0.040748 0
26.655000 0.012080 0
26.660000 0.051259 0
26.665000 0.084888 0
26.670000 0.117491 0
26.675000 0.150637 0
26.680000 0.184373 0
26.685000 0.218131 0
26.690000 0.251119 0
26.695000 0.282455 0
26.700000 0.311228 0
26.705000 0.336547 0
26.710000 0.357584 0
26.715000 0.373621 0
26.720000 0.384087 0
26.725000 0.388593 5
26.730000 0.386956 0
26.735000 0.379206 0
26.740000 0.365590 0
26.745000 0.346555 0
26.750000 0.322725 0
26.755000 0.294866 0
26.760000 0.263841 0
26.765000 0.230572 0
26.770000 0.195990 0
26.775000 0.160992 0
26.780000 0.126406 0
26.785000 0.092962 0
26.790000 0.061266 0
26.795000 0.031793 0
26.800000 0.004883 0
26.805000 -0.019259 0
26.810000 -0.040546 0
26.815000 -0.058999 0
26.820000 -0.074721 0
26.825000 -0.087886 0
26.830000 -0.098712 0
26.835000 -0.107446 0
26.840000 -0.114346 0
26.845000 -0.119671 0
26.850000 -0.123665 0
26.855000 -0.126558 0
26.860000 -0.128122 0
26.865000 -0.127158 0
26.870000 -0.126197 0
26.875000 -0.125241 0
26.880000 -0.124289 0
26.885000 -0.123338 0
26.890000 -0.122387 0
26.895000 -0.121428 0
26.900000 -0.120451 0
26.905000 -0.119437 0
26.910000 -0.118351 0
26.915000 -0.117136 0
26.920000 -0.115700 0
26.925000 -0.113903 0
26.930000 -0.111539 0
26.935000 -0.108318 0
26.940000 -0.103854 0
26.945000 -0.097664 0
26.950000 -0.089175 0
26.955000 -0.077770 0
26.960000 -0.062849 0
26.965000 -0.043924 0
26.970000 -0.020743 0
26.975000 0.006593 0
26.980000 0.037515 0
26.985000 0.070925 0
26.990000 0.105205 0
26.995000 0.138306 0
27.000000 0.167937 0
27.005000 0.191814 0
27.010000 0.207955 0
27.015000 0.214945 1
27.020000 0.212146 0
27.025000 0.199791 0
27.030000 0.178951 0
27.035000 0.151384 0
27.040000 0.119275 0
27.045000 0.084893 0
27.050000 0.050111 0
27.055000 0.015658 0
27.060000 -0.019936 0
27.065000 -0.060982 0
27.070000 -0.112952 0
27.075000 -0.176726 0
27.080000 -0.240829 0
27.085000 -0.278307 2
27.090000 -0.252648 0
27.095000 -0.129005 0
27.100000 0.112908 0
27.105000 0.458709 0
27.110000 0.834943 0
27.115000 1.113145 0
27.120000 1.171558 3
27.125000 0.978242 0
27.130000 0.615101 0
27.135000 0.217998 0
27.140000 -0.103497 0
27.145000 -0.298563 0
27.150000 -0.364583 4
27.155000 -0.329890 0
27.160000 -0.240056 0
27.165000 -0.140112 0
27.170000 -0.057586 0
27.175000 0.001520 0
27.180000 0.043986 0
27.185000 0.078674 0
27.190000 0.111300 0
27.195000 0.144207 0
27.200000 0.177786 0
27.205000 0.211596 0
27.210000 0.244889 0
27.215000 0.276797 0
27.220000 0.306411 0
27.225000 0.332822 0
27.230000 0.355177 0
27.235000 0.372716 0
27.240000 0.384821 0
27.245000 0.391043 0
27.250000 0.391139 5
27.255000 0.385076 0
27.260000 0.373044 0
27.265000 0.355437 0
27.270000 0.332835 0
27.275000 0.305973 0
27.280000 0.275697 0
27.285000 0.242920 0
27.290000 0.208579 0
27.295000 0.173590 0
27.300000 0.138805 0
27.305000 0.104985 0
27.310000 0.072774 0
27.315000 0.042683 0
27.320000 0.015087 0
27.325000 -0.009775 0
27.330000 -0.031786 0
27.335000 -0.050942 0
27.340000 -0.067330 0
27.345000 -0.081107 0
27.350000 -0.092485 0
27.355000 -0.101706 0
27.360000 -0.109028 0
27.365000 -0.114712 0
27.370000 -0.119008 0
27.375000 -0.122149 0
27.380000 -0.123890 0
27.385000 -0.122947 0
27.390000 -0.122008 0
27.395000 -0.121073 0
27.400000 -0.120141 0
27.405000 -0.119212 0
27.410000 -0.118283 0
27.415000 -0.117347 0
27.420000 -0.116397 0
27.425000 -0.115414 0
27.430000 -0.114367 0
27.435000 -0.113204 0
27.440000 -0.111841 0
27.445000 -0.110149 0
27.450000 -0.107932 0
27.455000 -0.104919 0
27.460000 -0.100740 0
27.465000 -0.094927 0
27.470000 -0.086919 0
27.475000 -0.076100 0
27.480000 -0.061858 0
27.485000 -0.043675 0
27.490000 -0.021247 0
27.495000 0.005393 0
27.500000 0.035760 0
27.505000 0.068841 0
27.510000 0.103091 0
27.515000 0.136514 0
27.520000 0.166830 0
27.525000 0.191725 0
27.530000 0.209142 0
27.535000 0.217557 1
27.540000 0.216201 0
27.545000 0.205177 0
27.550000 0.185447 0
27.555000 0.158689 0
27.560000 0.127058 0
27.565000 0.092845 0
27.570000 0.058023 0
27.575000 0.023535 0
27.580000 -0.011744 0
27.585000 -0.051797 0
27.590000 -0.102201 0
27.595000 -0.164851 0
27.600000 -0.230068 0
27.605000 -0.272507 2
27.610000 -0.256079 0
27.615000 -0.144976 0
27.620000 0.083644 0
27.625000 0.420487 0
27.630000 0.798898 0
27.635000 1.093782 0
27.640000 1.177980 3
27.645000 1.008864 0
27.650000 0.659028 0
27.655000 0.258818 0
27.660000 -0.078798 0
27.665000 -0.296055 0
27.670000 -0.384018 4
27.675000 -0.365740 0
27.680000 -0.283364 0
27.685000 -0.182346 0
27.690000 -0.094182 0
27.695000 -0.029284 0
27.700000 0.016871 0
27.705000 0.053120 0
27.710000 0.086069 0
27.715000 0.118852 0
27.720000 0.152300 0
27.725000 0.186173 0
27.730000 0.219818 0
27.735000 0.252425 0
27.740000 0.283121 0
27.745000 0.311019 0
27.750000 0.335265 0
27.755000 0.355078 0
27.760000 0.369794 0
27.765000 0.378899 0
27.770000 0.382060 5
27.775000 0.379145 0
27.780000 0.370231 0
27.785000 0.355598 0
27.790000 0.335717 0
27.795000 0.311221 0
27.800000 0.282876 0
27.805000 0.251535 0
27.810000 0.218099 0
27.815000 0.183472 0
27.820000 0.148524 0
27.825000 0.114053 0
27.830000 0.080760 0
27.835000 0.049228 0
27.840000 0.019912 0
27.845000 -0.006864 0
27.850000 -0.030903 0
27.855000 -0.052123 0
27.860000 -0.070543 0
27.865000 -0.086266 0
27.870000 -0.099459 0
27.875000 -0.110333 0
27.880000 -0.119128 0
27.885000 -0.126095 0
27.890000 -0.131487 0
27.895000 -0.135544 0
27.900000 -0.138490 0
27.905000 -0.140081 0
27.910000 -0.139057 0
27.915000 -0.138038 0
27.920000 -0.137023 0
27.925000 -0.136012 0
27.930000 -0.135003 0
27.935000 -0.133995 0
27.940000 -0.132982 0
27.945000 -0.131954 0
27.950000 -0.130895 0
27.955000 -0.129776 0
27.960000 -0.128548 0
27.965000 -0.127132 0
27.970000 -0.125407 0
27.975000 -0.123191 0
27.980000 -0.120232 0
27.985000 -0.116183 0
27.990000 -0.110605 0
27.995000 -0.102969 0
28.000000 -0.092683 0
28.005000 -0.079147 0
28.010000 -0.061830 0
28.015000 -0.040379 0
28.020000 -0.014737 0
28.025000 0.014750 0
28.030000 0.047243 0
28.035000 0.081389 0
28.040000 0.115372 0
28.045000 0.147046 0
28.050000 0.174147 0
28.055000 0.194561 0
28.060000 0.206592 0
28.065000 0.209195 1
28.070000 0.202131 0
28.075000 0.185999 0
28.080000 0.162153 0
28.085000 0.132516 0
28.090000 0.099295 0
28.095000 0.064619 0
28.100000 0.030001 0
28.105000 -0.004497 0
28.110000 -0.041266 0
28.115000 -0.085259 0
28.120000 -0.141182 0
28.125000 -0.206933 0
28.130000 -0.266795 0
28.135000 -0.290912 2
28.140000 -0.242986 0
28.145000 -0.091355 0
28.150000 0.177763 0
28.155000 0.538925 0
28.160000 0.906708 0
28.165000 1.150458 0
28.170000 1.162593 3
28.175000 0.932506 0
28.180000 0.554665 0
28.185000 0.163215 0
28.190000 -0.142137 0
28.195000 -0.319310 0
28.200000 -0.370679 4
28.205000 -0.327001 0
28.210000 -0.234052 0
28.215000 -0.134945 0
28.220000 -0.054557 0
28.225000 0.002843 0
28.230000 0.044461 0
28.235000 0.078887 0
28.240000 0.111499 0
28.245000 0.144446 0
28.250000 0.178051 0
28.255000 0.211862 0
28.260000 0.245136 0
28.265000 0.277020 0
28.270000 0.306617 0
28.275000 0.333037 0
28.280000 0.355439 0
28.285000 0.373077 0
28.290000 0.385337 0
28.295000 0.391775 0
28.300000 0.392144 5
28.305000 0.386404 0
28.310000 0.374728 0
28.315000 0.357493 0
28.320000 0.335258 0
28.325000 0.308734 0
28.330000 0.278745 0
28.335000 0.246186 0
28.340000 0.211978 0
28.345000 0.177024 0
28.350000 0.142172 0
28.355000 0.108184 0
28.360000 0.075709 0
28.365000 0.045270 0
28.370000 0.017256 0
28.375000 -0.008076 0
28.380000 -0.030593 0
28.385000 -0.050272 0
28.390000 -0.067182 0
28.395000 -0.081467 0
28.400000 -0.093325 0
