0.000000 1.141927 3
0.005000 1.050445 0
0.010000 0.818181 0
0.015000 0.510060 0
0.020000 0.198754 0
0.025000 -0.061269 0
0.030000 -0.242152 0
0.035000 -0.338178 0
0.040000 -0.358936 4
0.045000 -0.324455 0
0.050000 -0.260099 0
0.055000 -0.189656 0
0.060000 -0.129099 0
0.065000 -0.084447 0
0.070000 -0.054134 0
0.075000 -0.033279 0
0.080000 -0.017063 0
0.085000 -0.002177 0
0.090000 0.013177 0
0.095000 0.029805 0
0.100000 0.047999 0
0.105000 0.067822 0
0.110000 0.089223 0
0.115000 0.112083 0
0.120000 0.136219 0
0.125000 0.161392 0
0.130000 0.187306 0
0.135000 0.213610 0
0.140000 0.239907 0
0.145000 0.265759 0
0.150000 0.290702 0
0.155000 0.314255 0
0.160000 0.335938 0
0.165000 0.355285 0
0.170000 0.371865 0
0.175000 0.385291 0
0.180000 0.395240 0
0.185000 0.401465 0
0.190000 0.403801 5
0.195000 0.402176 0
0.200000 0.396614 0
0.205000 0.387231 0
0.210000 0.374234 0
0.215000 0.357911 0
0.220000 0.338622 0
0.225000 0.316785 0
0.230000 0.292858 0
0.235000 0.267329 0
0.240000 0.240691 0
0.245000 0.213436 0
0.250000 0.186032 0
0.255000 0.158915 0
0.260000 0.132476 0
0.265000 0.107055 0
0.270000 0.082934 0
0.275000 0.060337 0
0.280000 0.039428 0
0.285000 0.020313 0
0.290000 0.003045 0
0.295000 -0.012370 0
0.300000 -0.025970 0
0.305000 -0.037823 0
0.310000 -0.048027 0
0.315000 -0.056698 0
0.320000 -0.063967 0
0.325000 -0.069971 0
0.330000 -0.074848 0
0.335000 -0.078735 0
0.340000 -0.081763 0
0.345000 -0.084053 0
0.350000 -0.085720 0
0.355000 -0.086863 0
0.360000 -0.087572 0
0.365000 -0.087926 0
0.370000 -0.087991 0
0.375000 -0.087827 0
0.380000 -0.087479 0
0.385000 -0.086922 0
0.390000 -0.085975 0
0.395000 -0.085032 0
0.400000 -0.084095 0
0.405000 -0.083161 0
0.410000 -0.082233 0
0.415000 -0.081309 0
0.420000 -0.080390 0
0.425000 -0.079475 0
0.430000 -0.078565 0
0.435000 -0.077660 0
0.440000 -0.076758 0
0.445000 -0.075862 0
0.450000 -0.074970 0
0.455000 -0.074081 0
0.460000 -0.073198 0
0.465000 -0.072317 0
0.470000 -0.071440 0
0.475000 -0.070564 0
0.480000 -0.069688 0
0.485000 -0.068808 0
0.490000 -0.067917 0
0.495000 -0.067007 0
0.500000 -0.066061 0
0.505000 -0.065055 0
0.510000 -0.063953 0
0.515000 -0.062703 0
0.520000 -0.061228 0
0.525000 -0.059426 0
0.530000 -0.057159 0
0.535000 -0.054250 0
0.540000 -0.050476 0
0.545000 -0.045573 0
0.550000 -0.039242 0
0.555000 -0.031157 0
0.560000 -0.020991 0
0.565000 -0.008445 0
0.570000 0.006711 0
0.575000 0.024597 0
0.580000 0.045178 0
0.585000 0.068219 0
0.590000 0.093263 0
0.595000 0.119616 0
0.600000 0.146363 0
0.605000 0.172408 0
0.610000 0.196546 0
0.615000 0.217545 0
0.620000 0.234254 0
0.625000 0.245705 0
0.630000 0.251206 1
0.635000 0.250412 0
0.640000 0.243357 0
0.645000 0.230455 0
0.650000 0.212458 0
0.655000 0.190384 0
0.660000 0.165423 0
0.665000 0.138828 0
0.670000 0.111814 0
0.675000 0.085453 0
0.680000 0.060581 0
0.685000 0.037658 0
0.690000 0.016560 0
0.695000 -0.003748 0
0.700000 -0.025503 0
0.705000 -0.052010 0
0.710000 -0.086453 0
0.715000 -0.129435 0
0.720000 -0.176030 0
0.725000 -0.214211 0
0.730000 -0.226128 2
0.735000 -0.191756 0
0.740000 -0.093171 0
0.745000 0.080781 0
0.750000 0.327289 0
0.755000 0.619795 0
0.760000 0.902934 0
0.765000 1.103333 0
0.770000 1.158273 3
0.775000 1.047120 0
0.780000 0.801832 0
0.785000 0.489669 0
0.790000 0.181860 0
0.795000 -0.070334 0
0.800000 -0.242009 0
0.805000 -0.329438 0
0.810000 -0.343470 4
0.815000 -0.304852 0
0.820000 -0.238996 0
0.825000 -0.169034 0
0.830000 -0.109920 0
0.835000 -0.066784 0
0.840000 -0.037589 0
0.845000 -0.017374 0
0.850000 -0.001443 0
0.855000 0.013360 0
0.860000 0.028721 0
0.865000 0.045388 0
0.870000 0.063628 0
0.875000 0.083492 0
0.880000 0.104924 0
0.885000 0.127801 0
0.890000 0.151937 0
0.895000 0.177092 0
0.900000 0.202967 0
0.905000 0.229210 0
0.910000 0.255424 0
0.915000 0.281172 0
0.920000 0.305990 0
0.925000 0.329401 0
0.930000 0.350927 0
0.935000 0.370105 0
0.940000 0.386508 0
0.945000 0.399754 0
0.950000 0.409523 0
0.955000 0.415571 0
0.960000 0.417738 5
0.965000 0.415955 0
0.970000 0.410246 0
0.975000 0.400730 0
0.980000 0.387613 0
0.985000 0.371185 0
0.990000 0.351803 0
0.995000 0.329883 0
1.000000 0.305882 0
1.005000 0.280285 0
1.010000 0.253584 0
1.015000 0.226267 0
1.020000 0.198799 0
1.025000 0.171615 0
1.030000 0.145104 0
1.035000 0.119605 0
1.040000 0.095400 0
1.045000 0.072712 0
1.050000 0.051705 0
1.055000 0.032487 0
1.060000 0.015110 0
1.065000 -0.000418 0
1.070000 -0.014132 0
1.075000 -0.026102 0
1.080000 -0.036422 0
1.085000 -0.045209 0
1.090000 -0.052590 0
1.095000 -0.058704 0
1.100000 -0.063687 0
1.105000 -0.067675 0
1.110000 -0.070800 0
1.115000 -0.073183 0
1.120000 -0.074936 0
1.125000 -0.076162 0
1.130000 -0.076949 0
1.135000 -0.077377 0
1.140000 -0.077513 0
1.145000 -0.077416 0
1.150000 -0.077132 0
1.155000 -0.076703 0
1.160000 -0.075875 0
1.165000 -0.074983 0
1.170000 -0.074095 0
1.175000 -0.073212 0
1.180000 -0.072333 0
1.185000 -0.071458 0
1.190000 -0.070588 0
1.195000 -0.069722 0
1.200000 -0.068861 0
1.205000 -0.068004 0
1.210000 -0.067151 0
1.215000 -0.066302 0
1.220000 -0.065457 0
1.225000 -0.064617 0
1.230000 -0.063780 0
1.235000 -0.062947 0
1.240000 -0.062116 0
1.245000 -0.061288 0
1.250000 -0.060459 0
1.255000 -0.059626 0
1.260000 -0.058784 0
1.265000 -0.057923 0
1.270000 -0.057029 0
1.275000 -0.056079 0
1.280000 -0.055039 0
1.285000 -0.053859 0
1.290000 -0.052469 0
1.295000 -0.050769 0
1.300000 -0.048628 0
1.305000 -0.045876 0
1.310000 -0.042299 0
1.315000 -0.037642 0
1.320000 -0.031609 0
1.325000 -0.023881 0
1.330000 -0.014131 0
1.335000 -0.002055 0
1.340000 0.012592 0
1.345000 0.029952 0
1.350000 0.050018 0
1.355000 0.072596 0
1.360000 0.097273 0
1.365000 0.123401 0
1.370000 0.150109 0
1.375000 0.176336 0
1.380000 0.200898 0
1.385000 0.222566 0
1.390000 0.240172 0
1.395000 0.252709 0
1.400000 0.259426 0
1.405000 0.259904 1
1.410000 0.254099 0
1.415000 0.242344 0
1.420000 0.225322 0
1.425000 0.203997 0
1.430000 0.179523 0
1.435000 0.153143 0
1.440000 0.126082 0
1.445000 0.099448 0
1.450000 0.074134 0
1.455000 0.050701 0
1.460000 0.029187 0
1.465000 0.008808 0
1.470000 -0.012364 0
1.475000 -0.037416 0
1.480000 -0.069730 0
1.485000 -0.110821 0
1.490000 -0.157395 0
1.495000 -0.199270 0
1.500000 -0.219882 2
1.505000 -0.199456 0
1.510000 -0.119213 0
1.515000 0.034263 0
1.520000 0.262764 0
1.525000 0.547093 0
1.530000 0.839682 0
1.535000 1.070193 0
1.540000 1.169877 3
1.545000 1.104086 0
1.550000 0.890572 0
1.555000 0.589557 0
1.560000 0.274150 0
1.565000 0.002568 0
1.570000 -0.193118 0
1.575000 -0.303942 0
1.580000 -0.337143 4
1.585000 -0.311079 0
1.590000 -0.250456 0
1.595000 -0.179752 0
1.600000 -0.116628 0
1.605000 -0.068908 0
1.610000 -0.036190 0
1.615000 -0.013956 0
1.620000 0.002774 0
1.625000 0.017631 0
1.630000 0.032678 0
1.635000 0.048879 0
1.640000 0.066605 0
1.645000 0.085952 0
1.650000 0.106892 0
1.655000 0.129317 0
1.660000 0.153062 0
1.665000 0.177903 0
1.670000 0.203556 0
1.675000 0.229688 0
1.680000 0.255914 0
1.685000 0.281807 0
1.690000 0.306912 0
1.695000 0.330754 0
1.700000 0.352855 0
1.705000 0.372747 0
1.710000 0.389990 0
1.715000 0.404187 0
1.720000 0.414999 0
1.725000 0.422159 0
1.730000 0.425479 5
1.735000 0.424863 0
1.740000 0.420307 0
1.745000 0.411901 0
1.750000 0.399824 0
1.755000 0.384341 0
1.760000 0.365789 0
1.765000 0.344568 0
1.770000 0.321123 0
1.775000 0.295931 0
1.780000 0.269483 0
1.785000 0.242269 0
1.790000 0.214763 0
1.795000 0.187409 0
1.800000 0.160612 0
1.805000 0.134725 0
1.810000 0.110049 0
1.815000 0.086826 0
1.820000 0.065238 0
1.825000 0.045409 0
1.830000 0.027409 0
1.835000 0.011259 0
1.840000 -0.003063 0
1.845000 -0.015615 0
1.850000 -0.026486 0
1.855000 -0.035786 0
1.860000 -0.043639 0
1.865000 -0.050179 0
1.870000 -0.055546 0
1.875000 -0.059875 0
1.880000 -0.063299 0
1.885000 -0.065943 0
1.890000 -0.067922 0
1.895000 -0.069342 0
1.900000 -0.070296 0
1.905000 -0.070866 0
1.910000 -0.071123 0
1.915000 -0.071128 0
1.920000 -0.070933 0
1.925000 -0.070580 0
1.930000 -0.069788 0
1.935000 -0.068926 0
1.940000 -0.068069 0
1.945000 -0.067216 0
1.950000 -0.066367 0
1.955000 -0.065522 0
1.960000 -0.064681 0
1.965000 -0.063845 0
1.970000 -0.063013 0
1.975000 -0.062185 0
1.980000 -0.061361 0
1.985000 -0.060541 0
1.990000 -0.059725 0
1.995000 -0.058914 0
2.000000 -0.058105 0
2.005000 -0.057301 0
2.010000 -0.056499 0
2.015000 -0.055699 0
2.020000 -0.054900 0
2.025000 -0.054098 0
2.030000 -0.053289 0
2.035000 -0.052465 0
2.040000 -0.051613 0
2.045000 -0.050714 0
2.050000 -0.049739 0
2.055000 -0.048643 0
2.060000 -0.047363 0
2.065000 -0.045813 0
2.070000 -0.043871 0
2.075000 -0.041383 0
2.080000 -0.038151 0
2.085000 -0.033933 0
2.090000 -0.028448 0
2.095000 -0.021383 0
2.100000 -0.012412 0
2.105000 -0.001219 0
2.110000 0.012466 0
2.115000 0.028826 0
2.120000 0.047912 0
2.125000 0.069603 0
2.130000 0.093565 0
2.135000 0.119235 0
2.140000 0.145821 0
2.145000 0.172327 0
2.150000 0.197603 0
2.155000 0.220430 0
2.160000 0.239606 0
2.165000 0.254055 0
2.170000 0.262925 0
2.175000 0.265672 1
2.180000 0.262111 0
2.185000 0.252440 0
2.190000 0.237220 0
2.195000 0.217319 0
2.200000 0.193834 0
2.205000 0.167984 0
2.210000 0.141011 0
2.215000 0.114077 0
2.220000 0.088164 0
2.225000 0.063974 0
2.230000 0.041764 0
2.235000 0.021097 0
2.240000 0.000503 0
2.245000 -0.022712 0
2.250000 -0.051998 0
2.255000 -0.089891 0
2.260000 -0.135234 0
2.265000 -0.180544 0
2.270000 -0.211418 2
2.275000 -0.208835 0
2.280000 -0.153173 0
2.285000 -0.028439 0
2.290000 0.172507 0
2.295000 0.439621 0
2.300000 0.736447 0
2.305000 0.999498 0
2.310000 1.155684 3
2.315000 1.153955 0
2.320000 0.991040 0
2.325000 0.713599 0
2.330000 0.395443 0
2.335000 0.103840 0
2.340000 -0.119015 0
2.345000 -0.256880 0
2.350000 -0.312524 4
2.355000 -0.301696 0
2.360000 -0.248366 0
2.365000 -0.178393 0
2.370000 -0.112256 0
2.375000 -0.060594 0
2.380000 -0.024750 0
2.385000 -0.000709 0
2.390000 0.016746 0
2.395000 0.031685 0
2.400000 0.046514 0
2.405000 0.062391 0
2.410000 0.079773 0
2.415000 0.098792 0
2.420000 0.119434 0
2.425000 0.141599 0
2.430000 0.165126 0
2.435000 0.189790 0
2.440000 0.215310 0
2.445000 0.241347 0
2.450000 0.267511 0
2.455000 0.293370 0
2.460000 0.318458 0
2.465000 0.342289 0
2.470000 0.364373 0
2.475000 0.384230 0
2.480000 0.401411 0
2.485000 0.415508 0
2.490000 0.426176 0
2.495000 0.433141 0
2.500000 0.436217 5
2.505000 0.435307 0
2.510000 0.430413 0
2.515000 0.421634 0
2.520000 0.409163 0
2.525000 0.393275 0
2.530000 0.374326 0
2.535000 0.352729 0
2.540000 0.328946 0
2.545000 0.303468 0
2.550000 0.276799 0
2.555000 0.249438 0
2.560000 0.221866 0
2.565000 0.194531 0
2.570000 0.167837 0
2.575000 0.142136 0
2.580000 0.117721 0
2.585000 0.094826 0
2.590000 0.073621 0
2.595000 0.054219 0
2.600000 0.036679 0
2.605000 0.021008 0
2.610000 0.007171 0
2.615000 -0.004901 0
2.620000 -0.015307 0
2.625000 -0.024164 0
2.630000 -0.031605 0
2.635000 -0.037768 0
2.640000 -0.042796 0
2.645000 -0.046826 0
2.650000 -0.049992 0
2.655000 -0.052418 0
2.660000 -0.054217 0
2.665000 -0.055493 0
2.670000 -0.056335 0
2.675000 -0.056823 0
2.680000 -0.057024 0
2.685000 -0.056996 0
2.690000 -0.056787 0
2.695000 -0.056372 0
2.700000 -0.055577 0
2.705000 -0.054786 0
2.710000 -0.053999 0
2.715000 -0.053216 0
2.720000 -0.052437 0
2.725000 -0.051661 0
2.730000 -0.050890 0
2.735000 -0.050122 0
2.740000 -0.049359 0
2.745000 -0.048599 0
2.750000 -0.047843 0
2.755000 -0.047090 0
2.760000 -0.046341 0
2.765000 -0.045596 0
2.770000 -0.044854 0
2.775000 -0.044115 0
2.780000 -0.043378 0
2.785000 -0.042641 0
2.790000 -0.041902 0
2.795000 -0.041157 0
2.800000 -0.040399 0
2.805000 -0.039616 0
2.810000 -0.038790 0
2.815000 -0.037894 0
2.820000 -0.036885 0
2.825000 -0.035704 0
2.830000 -0.034265 0
2.835000 -0.032452 0
2.840000 -0.030112 0
2.845000 -0.027048 0
2.850000 -0.023020 0
2.855000 -0.017743 0
2.860000 -0.010900 0
2.865000 -0.002158 0
2.870000 0.008810 0
2.875000 0.022284 0
2.880000 0.038459 0
2.885000 0.057396 0
2.890000 0.078974 0
2.895000 0.102861 0
2.900000 0.128482 0
2.905000 0.155028 0
2.910000 0.181474 0
2.915000 0.206645 0
2.920000 0.229287 0
2.925000 0.248176 0
2.930000 0.262221 0
2.935000 0.270569 0
2.940000 0.272690 1
2.945000 0.268431 0
2.950000 0.258037 0
2.955000 0.242121 0
2.960000 0.221608 0
2.965000 0.197642 0
2.970000 0.171484 0
2.975000 0.144397 0
2.980000 0.117546 0
2.985000 0.091891 0
2.990000 0.068074 0
2.995000 0.046233 0
3.000000 0.025712 0
3.005000 0.004712 0
3.010000 -0.019799 0
3.015000 -0.051325 0
3.020000 -0.091737 0
3.025000 -0.138220 0
3.030000 -0.180948 0
3.035000 -0.203357 2
3.040000 -0.185311 0
3.045000 -0.107476 0
3.050000 0.044130 0
3.055000 0.271696 0
3.060000 0.555895 0
3.065000 0.848134 0
3.070000 1.076426 0
3.075000 1.170974 3
3.080000 1.098278 0
3.085000 0.879044 0
3.090000 0.575487 0
3.095000 0.261284 0
3.100000 -0.006131 0
3.105000 -0.196004 0
3.110000 -0.300616 0
3.115000 -0.328278 4
3.120000 -0.298262 0
3.125000 -0.235805 0
3.130000 -0.165260 0
3.135000 -0.103570 0
3.140000 -0.057644 0
3.145000 -0.026419 0
3.150000 -0.005120 0
3.155000 0.011180 0
3.160000 0.025943 0
3.165000 0.041077 0
3.170000 0.057450 0
3.175000 0.075383 0
3.180000 0.094949 0
3.185000 0.116104 0
3.190000 0.138731 0
3.195000 0.162652 0
3.200000 0.187631 0
3.205000 0.213371 0
3.210000 0.239526 0
3.215000 0.265698 0
3.220000 0.291449 0
3.225000 0.316314 0
3.230000 0.339810 0
3.235000 0.361455 0
3.240000 0.380781 0
3.245000 0.397350 0
3.250000 0.410773 0
3.255000 0.420724 0
3.260000 0.426949 0
3.265000 0.429282 5
3.270000 0.427647 0
3.275000 0.422064 0
3.280000 0.412648 0
3.285000 0.399603 0
3.290000 0.383220 0
3.295000 0.363856 0
3.300000 0.341931 0
3.305000 0.317906 0
3.310000 0.292268 0
3.315000 0.265515 0
3.320000 0.238140 0
3.325000 0.210613 0
3.330000 0.183372 0
3.335000 0.156811 0
3.340000 0.131271 0
3.345000 0.107036 0
3.350000 0.084330 0
3.355000 0.063316 0
3.360000 0.044102 0
3.365000 0.026739 0
3.370000 0.011234 0
3.375000 -0.002452 0
3.380000 -0.014389 0
3.385000 -0.024674 0
3.390000 -0.033427 0
3.395000 -0.040776 0
3.400000 -0.046861 0
3.405000 -0.051821 0
3.410000 -0.055792 0
3.415000 -0.058906 0
3.420000 -0.061285 0
3.425000 -0.063042 0
3.430000 -0.064277 0
3.435000 -0.065082 0
3.440000 -0.065533 0
3.445000 -0.065697 0
3.450000 -0.065633 0
3.455000 -0.065388 0
3.460000 -0.064935 0
3.465000 -0.064097 0
3.470000 -0.063264 0
3.475000 -0.062434 0
3.480000 -0.061609 0
3.485000 -0.060788 0
3.490000 -0.059971 0
3.495000 -0.059158 0
3.500000 -0.058350 0
3.505000 -0.057545 0
3.510000 -0.056744 0
3.515000 -0.055947 0
3.520000 -0.055155 0
3.525000 -0.054366 0
3.530000 -0.053580 0
3.535000 -0.052799 0
3.540000 -0.052020 0
3.545000 -0.051243 0
3.550000 -0.050468 0
3.555000 -0.049692 0
3.560000 -0.048910 0
3.565000 -0.048117 0
3.570000 -0.047302 0
3.575000 -0.046448 0
3.580000 -0.045531 0
3.585000 -0.044512 0
3.590000 -0.043336 0
3.595000 -0.041925 0
3.600000 -0.040170 0
3.605000 -0.037930 0
3.610000 -0.035019 0
3.615000 -0.031211 0
3.620000 -0.026235 0
3.625000 -0.019784 0
3.630000 -0.011530 0
3.635000 -0.001148 0
3.640000 0.011656 0
3.645000 0.027103 0
3.650000 0.045291 0
3.655000 0.066160 0
3.660000 0.089443 0
3.665000 0.114645 0
3.670000 0.141035 0
3.675000 0.167662 0
3.680000 0.193404 0
3.685000 0.217039 0
3.690000 0.237336 0
3.695000 0.253162 0
3.700000 0.263583 0
3.705000 0.267958 1
3.710000 0.266003 0
3.715000 0.257817 0
3.720000 0.243880 0
3.725000 0.224999 0
3.730000 0.202235 0
3.735000 0.176804 0
3.740000 0.149963 0
3.745000 0.122914 0
3.750000 0.096699 0
3.755000 0.072097 0
3.760000 0.049479 0
3.765000 0.028571 0
3.770000 0.008115 0
3.775000 -0.014385 0
3.780000 -0.042359 0
3.785000 -0.078718 0
3.790000 -0.123156 0
3.795000 -0.169298 0
3.800000 -0.203633 0
3.805000 -0.207420 2
3.810000 -0.160636 0
3.815000 -0.046303 0
3.820000 0.144468 0
3.825000 0.404442 0
3.830000 0.700541 0
3.835000 0.971419 0
3.840000 1.142839 0
3.845000 1.159080 3
3.850000 1.012246 0
3.855000 0.745651 0
3.860000 0.428815 0
3.865000 0.128842 0
3.870000 -0.109245 0
3.875000 -0.265556 0
3.880000 -0.339444 0
3.885000 -0.343489 4
3.890000 -0.299148 0
3.895000 -0.231450 0
3.900000 -0.162235 0
3.905000 -0.104903 0
3.910000 -0.063451 0
3.915000 -0.035364 0
3.920000 -0.015694 0
3.925000 0.000056 0
3.930000 0.014853 0
3.935000 0.030269 0
3.940000 0.047000 0
3.945000 0.065293 0
3.950000 0.085191 0
3.955000 0.106639 0
3.960000 0.129514 0
3.965000 0.153634 0
3.970000 0.178765 0
3.975000 0.204613 0
3.980000 0.230837 0
3.985000 0.257048 0
3.990000 0.282820 0
3.995000 0.307700 0
4.000000 0.331220 0
4.005000 0.352913 0
4.010000 0.372323 0
4.015000 0.389027 0
4.020000 0.402646 0
4.025000 0.412859 0
4.030000 0.419417 0
4.035000 0.422151 5
4.040000 0.420980 0
4.045000 0.415913 0
4.050000 0.407052 0
4.055000 0.394583 0
4.060000 0.378775 0
4.065000 0.359966 0
4.070000 0.338554 0
4.075000 0.314977 0
4.080000 0.289707 0
4.085000 0.263224 0
4.090000 0.236010 0
4.095000 0.208527 0
4.100000 0.181211 0
4.105000 0.154455 0
4.110000 0.128609 0
4.115000 0.103963 0
4.120000 0.080757 0
4.125000 0.059168 0
4.130000 0.039320 0
4.135000 0.021283 0
4.140000 0.005080 0
4.145000 -0.009311 0
4.150000 -0.021945 0
4.155000 -0.032905 0
4.160000 -0.042300 0
4.165000 -0.050250 0
4.170000 -0.056886 0
4.175000 -0.062344 0
4.180000 -0.066759 0
4.185000 -0.070260 0
4.190000 -0.072972 0
4.195000 -0.075010 0
4.200000 -0.076478 0
4.205000 -0.077470 0
4.210000 -0.078068 0
4.215000 -0.078344 0
4.220000 -0.078360 0
4.225000 -0.078167 0
4.230000 -0.077810 0
4.235000 -0.077263 0
4.240000 -0.076364 0
4.245000 -0.075470 0
4.250000 -0.074580 0
4.255000 -0.073694 0
4.260000 -0.072813 0
4.265000 -0.071936 0
4.270000 -0.071063 0
4.275000 -0.070195 0
4.280000 -0.069331 0
4.285000 -0.068472 0
4.290000 -0.067616 0
4.295000 -0.066765 0
4.300000 -0.065918 0
4.305000 -0.065075 0
4.310000 -0.064236 0
4.315000 -0.063400 0
4.320000 -0.062567 0
4.325000 -0.061735 0
4.330000 -0.060902 0
4.335000 -0.060065 0
4.340000 -0.059216 0
4.345000 -0.058347 0
4.350000 -0.057441 0
4.355000 -0.056474 0
4.360000 -0.055410 0
4.365000 -0.054198 0
4.370000 -0.052763 0
4.375000 -0.051004 0
4.380000 -0.048787 0
4.385000 -0.045940 0
4.390000 -0.042247 0
4.395000 -0.037454 0
4.400000 -0.031270 0
4.405000 -0.023377 0
4.410000 -0.013458 0
4.415000 -0.001216 0
4.420000 0.013580 0
4.425000 0.031065 0
4.430000 0.051224 0
4.435000 0.073859 0
4.440000 0.098559 0
4.445000 0.124687 0
4.450000 0.151388 0
4.455000 0.177625 0
4.460000 0.202237 0
4.465000 0.224022 0
4.470000 0.241830 0
4.475000 0.254666 0
4.480000 0.261779 0
4.485000 0.262735 1
4.490000 0.257460 0
4.495000 0.246252 0
4.500000 0.229747 0
4.505000 0.208863 0
4.510000 0.184716 0
4.515000 0.158518 0
4.520000 0.131476 0
4.525000 0.104700 0
4.530000 0.079107 0
4.535000 0.055310 0
4.540000 0.033459 0
4.545000 0.012967 0
4.550000 -0.007810 0
4.555000 -0.031691 0
4.560000 -0.062064 0
4.565000 -0.101095 0
4.570000 -0.146958 0
4.575000 -0.191457 0
4.580000 -0.219791 2
4.585000 -0.213039 0
4.590000 -0.152108 0
4.595000 -0.021798 0
4.600000 0.183981 0
4.605000 0.453975 0
4.610000 0.750857 0
4.615000 1.011378 0
4.620000 1.163971 3
4.625000 1.159483 0
4.630000 0.995406 0
4.635000 0.717781 0
4.640000 0.399594 0
4.645000 0.107413 0
4.650000 -0.116789 0
4.655000 -0.256603 0
4.660000 -0.314427 4
4.665000 -0.305521 0
4.670000 -0.253386 0
4.675000 -0.183650 0
4.680000 -0.116935 0
4.685000 -0.064298 0
4.690000 -0.027508 0
4.695000 -0.002802 0
4.700000 0.014996 0
4.705000 0.030032 0
4.710000 0.044811 0
4.715000 0.060561 0
4.720000 0.077781 0
4.725000 0.096624 0
4.730000 0.117084 0
4.735000 0.139073 0
4.740000 0.162437 0
4.745000 0.186964 0
4.750000 0.212381 0
4.755000 0.238363 0
4.760000 0.264531 0
4.765000 0.290462 0
4.770000 0.315702 0
4.775000 0.339772 0
4.780000 0.362188 0
4.785000 0.382475 0
4.790000 0.400179 0
4.795000 0.414890 0
4.800000 0.426254 0
4.805000 0.433987 0
4.810000 0.437884 5
4.815000 0.437832 0
4.820000 0.433812 0
4.825000 0.425900 0
4.830000 0.414265 0
4.835000 0.399163 0
4.840000 0.380926 0
4.845000 0.359951 0
4.850000 0.336682 0
4.855000 0.311599 0
4.860000 0.285197 0
4.865000 0.257975 0
4.870000 0.230412 0
4.875000 0.202961 0
4.880000 0.176036 0
4.885000 0.150000 0
4.890000 0.125161 0
4.895000 0.101767 0
4.900000 0.080007 0
4.905000 0.060010 0
4.910000 0.041850 0
4.915000 0.025551 0
4.920000 0.011091 0
4.925000 -0.001586 0
4.930000 -0.012569 0
4.935000 -0.021969 0
4.940000 -0.029911 0
4.945000 -0.036532 0
4.950000 -0.041971 0
4.955000 -0.046366 0
4.960000 -0.049851 0
4.965000 -0.052553 0
4.970000 -0.054588 0
4.975000 -0.056062 0
4.980000 -0.057069 0
4.985000 -0.057693 0
4.990000 -0.058004 0
4.995000 -0.058065 0
5.000000 -0.057925 0
5.005000 -0.057628 0
5.010000 -0.056900 0
5.015000 -0.056103 0
5.020000 -0.055309 0
5.025000 -0.054519 0
5.030000 -0.053734 0
5.035000 -0.052952 0
5.040000 -0.052174 0
5.045000 -0.051400 0
5.050000 -0.050630 0
5.055000 -0.049864 0
5.060000 -0.049102 0
5.065000 -0.048343 0
5.070000 -0.047588 0
5.075000 -0.046837 0
5.080000 -0.046089 0
5.085000 -0.045344 0
5.090000 -0.044601 0
5.095000 -0.043860 0
5.100000 -0.043119 0
5.105000 -0.042375 0
5.110000 -0.041621 0
5.115000 -0.040850 0
5.120000 -0.040049 0
5.125000 -0.039194 0
5.130000 -0.038255 0
5.135000 -0.037183 0
5.140000 -0.035910 0
5.145000 -0.034340 0
5.150000 -0.032346 0
5.155000 -0.029760 0
5.160000 -0.026372 0
5.165000 -0.021928 0
5.170000 -0.016134 0
5.175000 -0.008670 0
5.180000 0.000796 0
5.185000 0.012575 0
5.190000 0.026920 0
5.195000 0.043986 0
5.200000 0.063779 0
5.205000 0.086119 0
5.210000 0.110604 0
5.215000 0.136594 0
5.220000 0.163223 0
5.225000 0.189428 0
5.230000 0.214017 0
5.235000 0.235748 0
5.240000 0.253438 0
5.245000 0.266062 0
5.250000 0.272853 0
5.255000 0.273379 1
5.260000 0.267589 0
5.265000 0.255814 0
5.270000 0.238740 0
5.275000 0.217341 0
5.280000 0.192783 0
5.285000 0.166320 0
5.290000 0.139190 0
5.295000 0.112508 0
5.300000 0.087171 0
5.305000 0.063735 0
5.310000 0.042214 0
5.315000 0.021779 0
5.320000 0.000430 0
5.325000 -0.024997 0
5.330000 -0.057878 0
5.335000 -0.099544 0
5.340000 -0.146270 0
5.345000 -0.187283 0
5.350000 -0.205486 2
5.355000 -0.180833 0
5.360000 -0.094631 0
5.365000 0.065933 0
5.370000 0.301118 0
5.375000 0.588921 0
5.380000 0.878344 0
5.385000 1.097053 0
5.390000 1.177953 3
5.395000 1.091191 0
5.400000 0.860542 0
5.405000 0.552327 0
5.410000 0.241257 0
5.415000 -0.016987 0
5.420000 -0.194451 0
5.425000 -0.286031 0
5.430000 -0.302319 4
5.435000 -0.264506 0
5.440000 -0.198835 0
5.445000 -0.129195 0
5.450000 -0.070844 0
5.455000 -0.028753 0
5.460000 -0.000556 0
5.465000 0.018934 0
5.470000 0.034455 0
5.475000 0.049092 0
5.480000 0.064441 0
5.485000 0.081183 0
5.490000 0.099546 0
5.495000 0.119560 0
5.500000 0.141150 0
5.505000 0.164177 0
5.510000 0.188435 0
5.515000 0.213660 0
5.520000 0.239528 0
5.525000 0.265662 0
5.530000 0.291637 0
5.535000 0.316991 0
5.540000 0.341237 0
5.545000 0.363879 0
5.550000 0.384428 0
5.555000 0.402415 0
5.560000 0.417415 0
5.565000 0.429058 0
5.570000 0.437046 0
5.575000 0.441164 0
5.580000 0.441289 5
5.585000 0.437396 0
5.590000 0.429561 0
5.595000 0.417953 0
5.600000 0.402833 0
5.605000 0.384542 0
5.610000 0.363485 0
5.615000 0.340121 0
5.620000 0.314939 0
5.625000 0.288450 0
5.630000 0.261161 0
5.635000 0.233564 0
5.640000 0.206118 0
5.645000 0.179244 0
5.650000 0.153306 0
5.655000 0.128613 0
5.660000 0.105413 0
5.665000 0.083888 0
5.670000 0.064163 0
5.675000 0.046304 0
5.680000 0.030327 0
5.685000 0.016202 0
5.690000 0.003864 0
5.695000 -0.006784 0
5.700000 -0.015859 0
5.705000 -0.023492 0
5.710000 -0.029825 0
5.715000 -0.035000 0
5.720000 -0.039157 0
5.725000 -0.042433 0
5.730000 -0.044954 0
5.735000 -0.046836 0
5.740000 -0.048182 0
5.745000 -0.049087 0
5.750000 -0.049630 0
5.755000 -0.049881 0
5.760000 -0.049899 0
5.765000 -0.049732 0
5.770000 -0.049356 0
5.775000 -0.048596 0
5.780000 -0.047840 0
5.785000 -0.047088 0
5.790000 -0.046339 0
5.795000 -0.045595 0
5.800000 -0.044853 0
5.805000 -0.044116 0
5.810000 -0.043382 0
5.815000 -0.042652 0
5.820000 -0.041926 0
5.825000 -0.041203 0
5.830000 -0.040483 0
5.835000 -0.039768 0
5.840000 -0.039055 0
5.845000 -0.038346 0
5.850000 -0.037639 0
5.855000 -0.036934 0
5.860000 -0.036229 0
5.865000 -0.035521 0
5.870000 -0.034807 0
5.875000 -0.034079 0
5.880000 -0.033324 0
5.885000 -0.032523 0
5.890000 -0.031648 0
5.895000 -0.030653 0
5.900000 -0.029477 0
5.905000 -0.028028 0
5.910000 -0.026186 0
5.915000 -0.023788 0
5.920000 -0.020631 0
5.925000 -0.016464 0
5.930000 -0.010994 0
5.935000 -0.003896 0
5.940000 0.005170 0
5.945000 0.016527 0
5.950000 0.030449 0
5.955000 0.047110 0
5.960000 0.066542 0
5.965000 0.088585 0
5.970000 0.112855 0
5.975000 0.138721 0
5.980000 0.165315 0
5.985000 0.191562 0
5.990000 0.216245 0
5.995000 0.238096 0
6.000000 0.255895 0
6.005000 0.268588 0
6.010000 0.275384 0
6.015000 0.275840 1
6.020000 0.269905 0
6.025000 0.257927 0
6.030000 0.240620 0
6.035000 0.218992 0
6.040000 0.194244 0
6.045000 0.167664 0
6.050000 0.140513 0
6.055000 0.113916 0
6.060000 0.088762 0
6.065000 0.065566 0
6.070000 0.044250 0
6.075000 0.023808 0
6.080000 0.001991 0
6.085000 -0.024578 0
6.090000 -0.059185 0
6.095000 -0.102425 0
6.100000 -0.149101 0
6.105000 -0.186610 0
6.110000 -0.196386 2
6.115000 -0.157838 0
6.120000 -0.052868 0
6.125000 0.129042 0
6.130000 0.382875 0
6.135000 0.677776 0
6.140000 0.953204 0
6.145000 1.133183 0
6.150000 1.158395 3
6.155000 1.018168 0
6.160000 0.755145 0
6.165000 0.438885 0
6.170000 0.137579 0
6.175000 -0.102541 0
6.180000 -0.260784 0
6.185000 -0.336124 0
6.190000 -0.341038 4
6.195000 -0.297071 0
6.200000 -0.229455 0
6.205000 -0.160247 0
6.210000 -0.102975 0
6.215000 -0.061645 0
6.220000 -0.033693 0
6.225000 -0.014123 0
6.230000 0.001578 0
6.235000 0.016370 0
6.240000 0.031814 0
6.245000 0.048589 0
6.250000 0.066938 0
6.255000 0.086899 0
6.260000 0.108412 0
6.265000 0.131351 0
6.270000 0.155532 0
6.275000 0.180711 0
6.280000 0.206592 0
6.285000 0.232827 0
6.290000 0.259020 0
6.295000 0.284740 0
6.300000 0.309528 0
6.305000 0.332912 0
6.310000 0.354420 0
6.315000 0.373595 0
6.320000 0.390015 0
6.325000 0.403301 0
6.330000 0.413138 0
6.335000 0.419281 0
6.340000 0.421570 5
6.345000 0.419934 0
6.350000 0.414393 0
6.355000 0.405059 0
6.360000 0.392133 0
6.365000 0.375895 0
6.370000 0.356696 0
6.375000 0.334942 0
6.380000 0.311082 0
6.385000 0.285594 0
6.390000 0.258964 0
6.395000 0.231674 0
6.400000 0.204189 0
6.405000 0.176940 0
6.410000 0.150319 0
6.415000 0.124665 0
6.420000 0.100266 0
6.425000 0.077349 0
6.430000 0.056084 0
6.435000 0.036584 0
6.440000 0.018912 0
6.445000 0.003078 0
6.450000 -0.010943 0
6.455000 -0.023216 0
6.460000 -0.033830 0
6.465000 -0.042898 0
6.470000 -0.050544 0
6.475000 -0.056902 0
6.480000 -0.062108 0
6.485000 -0.066298 0
6.490000 -0.069603 0
6.495000 -0.072144 0
6.500000 -0.074035 0
6.505000 -0.075379 0
6.510000 -0.076267 0
6.515000 -0.076779 0
6.520000 -0.076986 0
6.525000 -0.076947 0
6.530000 -0.076711 0
6.535000 -0.076321 0
6.540000 -0.075499 0
6.545000 -0.074609 0
6.550000 -0.073723 0
6.555000 -0.072842 0
6.560000 -0.071965 0
6.565000 -0.071092 0
6.570000 -0.070224 0
6.575000 -0.069360 0
6.580000 -0.068500 0
6.585000 -0.067645 0
6.590000 -0.066794 0
6.595000 -0.065947 0
6.600000 -0.065104 0
6.605000 -0.064265 0
6.610000 -0.063431 0
6.615000 -0.062599 0
6.620000 -0.061771 0
6.625000 -0.060945 0
6.630000 -0.060120 0
6.635000 -0.059292 0
6.640000 -0.058458 0
6.645000 -0.057610 0
6.650000 -0.056735 0
6.655000 -0.055815 0
6.660000 -0.054821 0
6.665000 -0.053712 0
6.670000 -0.052427 0
6.675000 -0.050881 0
6.680000 -0.048959 0
6.685000 -0.046511 0
6.690000 -0.043345 0
6.695000 -0.039228 0
6.700000 -0.033885 0
6.705000 -0.027011 0
6.710000 -0.018281 0
6.715000 -0.007381 0
6.720000 0.005964 0
6.725000 0.021951 0
6.730000 0.040651 0
6.735000 0.061973 0
6.740000 0.085621 0
6.745000 0.111075 0
6.750000 0.137588 0
6.755000 0.164206 0
6.760000 0.189814 0
6.765000 0.213212 0
6.770000 0.233199 0
6.775000 0.248680 0
6.780000 0.258759 0
6.785000 0.262831 1
6.790000 0.260636 0
6.795000 0.252290 0
6.800000 0.238270 0
6.805000 0.219375 0
6.810000 0.196645 0
6.815000 0.171267 0
6.820000 0.144475 0
6.825000 0.117446 0
6.830000 0.091206 0
6.835000 0.066533 0
6.840000 0.043818 0
6.845000 0.022845 0
6.850000 0.002470 0
6.855000 -0.019639 0
6.860000 -0.046793 0
6.865000 -0.082015 0
6.870000 -0.125558 0
6.875000 -0.172090 0
6.880000 -0.209344 0
6.885000 -0.219537 2
6.890000 -0.182984 0
6.895000 -0.082232 0
6.900000 0.093396 0
6.905000 0.340742 0
6.910000 0.633341 0
6.915000 0.916626 0
6.920000 1.118445 0
6.925000 1.176757 3
6.930000 1.070024 0
6.935000 0.828447 0
6.940000 0.517545 0
6.945000 0.207914 0
6.950000 -0.048654 0
6.955000 -0.226183 0
6.960000 -0.319828 0
6.965000 -0.339363 4
6.970000 -0.304568 0
6.975000 -0.240316 0
6.980000 -0.169920 0
6.985000 -0.109139 0
6.990000 -0.064064 0
6.995000 -0.033332 0
7.000000 -0.012213 0
7.005000 0.004071 0
7.010000 0.018866 0
7.015000 0.034026 0
7.020000 0.050401 0
7.025000 0.068310 0
7.030000 0.087830 0
7.035000 0.108922 0
7.040000 0.131475 0
7.045000 0.155321 0
7.050000 0.180232 0
7.055000 0.205928 0
7.060000 0.232074 0
7.065000 0.258288 0
7.070000 0.284149 0
7.075000 0.309206 0
7.080000 0.332992 0
7.085000 0.355034 0
7.090000 0.374873 0
7.095000 0.392075 0
7.100000 0.406250 0
7.105000 0.417065 0
7.110000 0.424256 0
7.115000 0.427637 5
7.120000 0.427111 0
7.125000 0.422672 0
7.130000 0.414407 0
7.135000 0.402489 0
7.140000 0.387174 0
7.145000 0.368792 0
7.150000 0.347734 0
7.155000 0.324436 0
7.160000 0.299365 0
7.165000 0.273005 0
7.170000 0.245841 0
7.175000 0.218340 0
7.180000 0.190945 0
7.185000 0.164059 0
7.190000 0.138038 0
7.195000 0.113184 0
7.200000 0.089743 0
7.205000 0.067903 0
7.210000 0.047795 0
7.215000 0.029496 0
7.220000 0.013034 0
7.225000 -0.001606 0
7.230000 -0.014476 0
7.235000 -0.025659 0
7.240000 -0.035257 0
7.245000 -0.043394 0
7.250000 -0.050199 0
7.255000 -0.055807 0
7.260000 -0.060356 0
7.265000 -0.063975 0
7.270000 -0.066792 0
7.275000 -0.068921 0
7.280000 -0.070469 0
7.285000 -0.071531 0
7.290000 -0.072191 0
7.295000 -0.072522 0
7.300000 -0.072587 0
7.305000 -0.072439 0
7.310000 -0.072122 0
7.315000 -0.071612 0
7.320000 -0.070741 0
7.325000 -0.069875 0
7.330000 -0.069013 0
7.335000 -0.068155 0
7.340000 -0.067301 0
7.345000 -0.066452 0
7.350000 -0.065606 0
7.355000 -0.064765 0
7.360000 -0.063929 0
7.365000 -0.063096 0
7.370000 -0.062268 0
7.375000 -0.061443 0
7.380000 -0.060623 0
7.385000 -0.059806 0
7.390000 -0.058994 0
7.395000 -0.058184 0
7.400000 -0.057377 0
7.405000 -0.056571 0
7.410000 -0.055764 0
7.415000 -0.054953 0
7.420000 -0.054130 0
7.425000 -0.053287 0
7.430000 -0.052407 0
7.435000 -0.051467 0
7.440000 -0.050431 0
7.445000 -0.049247 0
7.450000 -0.047840 0
7.455000 -0.046111 0
7.460000 -0.043924 0
7.465000 -0.041107 0
7.470000 -0.037444 0
7.475000 -0.032679 0
7.480000 -0.026520 0
7.485000 -0.018648 0
7.490000 -0.008744 0
7.495000 0.003490 0
7.500000 0.018286 0
7.505000 0.035778 0
7.510000 0.055949 0
7.515000 0.078599 0
7.520000 0.103310 0
7.525000 0.129438 0
7.530000 0.156119 0
7.535000 0.182309 0
7.540000 0.206839 0
7.545000 0.228501 0
7.550000 0.246144 0
7.555000 0.258773 0
7.560000 0.265644 0
7.565000 0.266334 1
7.570000 0.260784 0
7.575000 0.249307 0
7.580000 0.232557 0
7.585000 0.211468 0
7.590000 0.187167 0
7.595000 0.160874 0
7.600000 0.133801 0
7.605000 0.107052 0
7.610000 0.081534 0
7.615000 0.057843 0
7.620000 0.036089 0
7.625000 0.015622 0
7.630000 -0.005290 0
7.635000 -0.029551 0
7.640000 -0.060553 0
7.645000 -0.100270 0
7.650000 -0.146438 0
7.655000 -0.190264 0
7.660000 -0.216409 2
7.665000 -0.205691 0
7.670000 -0.139102 0
7.675000 -0.001944 0
7.680000 0.210692 0
7.685000 0.485349 0
7.690000 0.781763 0
7.695000 1.034472 0
7.700000 1.172380 3
7.705000 1.148983 0
7.710000 0.966541 0
7.715000 0.678782 0
7.720000 0.360739 0
7.725000 0.077098 0
7.730000 -0.133778 0
7.735000 -0.258844 0
7.740000 -0.303157 4
7.745000 -0.284118 0
7.750000 -0.226578 0
7.755000 -0.156130 0
7.760000 -0.091950 0
7.765000 -0.043053 0
7.770000 -0.009589 0
7.775000 0.012931 0
7.780000 0.029660 0
7.785000 0.044398 0
7.790000 0.059305 0
7.795000 0.075381 0
7.800000 0.093007 0
7.805000 0.112282 0
7.810000 0.133169 0
7.815000 0.155558 0
7.820000 0.179275 0
7.825000 0.204082 0
7.830000 0.229686 0
7.835000 0.255735 0
7.840000 0.281828 0
7.845000 0.307523 0
7.850000 0.332347 0
7.855000 0.355808 0
7.860000 0.377416 0
7.865000 0.396694 0
7.870000 0.413196 0
7.875000 0.426527 0
7.880000 0.436352 0
7.885000 0.442416 0
7.890000 0.444551 5
7.895000 0.442684 0
7.900000 0.436836 0
7.905000 0.427131 0
7.910000 0.413782 0
7.915000 0.397087 0
7.920000 0.377417 0
7.925000 0.355202 0
7.930000 0.330914 0
7.935000 0.305051 0
7.940000 0.278121 0
7.945000 0.250621 0
7.950000 0.223027 0
7.955000 0.195780 0
7.960000 0.169273 0
7.965000 0.143844 0
7.970000 0.119772 0
7.975000 0.097276 0
7.980000 0.076510 0
7.985000 0.057574 0
7.990000 0.040509 0
7.995000 0.025313 0
8.000000 0.011940 0
8.005000 0.000310 0
8.010000 -0.009681 0
8.015000 -0.018156 0
8.020000 -0.025251 0
8.025000 -0.031108 0
8.030000 -0.035867 0
8.035000 -0.039666 0
8.040000 -0.042637 0
8.045000 -0.044902 0
8.050000 -0.046571 0
8.055000 -0.047743 0
8.060000 -0.048507 0
8.065000 -0.048938 0
8.070000 -0.049101 0
8.075000 -0.049050 0
8.080000 -0.048831 0
8.085000 -0.048422 0
8.090000 -0.047667 0
8.095000 -0.046916 0
8.100000 -0.046168 0
8.105000 -0.045424 0
8.110000 -0.044684 0
8.115000 -0.043947 0
8.120000 -0.043214 0
8.125000 -0.042485 0
8.130000 -0.041759 0
8.135000 -0.041037 0
8.140000 -0.040319 0
8.145000 -0.039604 0
8.150000 -0.038892 0
8.155000 -0.038184 0
8.160000 -0.037479 0
8.165000 -0.036776 0
8.170000 -0.036074 0
8.175000 -0.035372 0
8.180000 -0.034667 0
8.185000 -0.033952 0
8.190000 -0.033221 0
8.195000 -0.032459 0
8.200000 -0.031644 0
8.205000 -0.030744 0
8.210000 -0.029711 0
8.215000 -0.028475 0
8.220000 -0.026939 0
8.225000 -0.024973 0
8.230000 -0.022405 0
8.235000 -0.019021 0
8.240000 -0.014561 0
8.245000 -0.008724 0
8.250000 -0.001183 0
8.255000 0.008399 0
8.260000 0.020335 0
8.265000 0.034878 0
8.270000 0.052172 0
8.275000 0.072210 0
8.280000 0.094784 0
8.285000 0.119459 0
8.290000 0.145557 0
8.295000 0.172167 0
8.300000 0.198186 0
8.305000 0.222388 0
8.310000 0.243512 0
8.315000 0.260373 0
8.320000 0.271967 0
8.325000 0.277572 1
8.330000 0.276818 0
8.335000 0.269730 0
8.340000 0.256725 0
8.345000 0.238569 0
8.350000 0.216304 0
8.355000 0.191148 0
8.360000 0.164383 0
8.365000 0.137244 0
8.370000 0.110819 0
8.375000 0.085943 0
8.380000 0.063051 0
8.385000 0.041951 0
8.390000 0.021479 0
8.395000 -0.000789 0
8.400000 -0.028298 0
8.405000 -0.064127 0
8.410000 -0.108268 0
8.415000 -0.154635 0
8.420000 -0.189811 0
8.425000 -0.194869 2
8.430000 -0.149418 0
8.435000 -0.036075 0
8.440000 0.154341 0
8.445000 0.414529 0
8.450000 0.710675 0
8.455000 0.980058 0
8.460000 1.147240 0
8.465000 1.156718 3
8.470000 1.002163 0
8.475000 0.729488 0
8.480000 0.411690 0
8.485000 0.116924 0
8.490000 -0.111039 0
8.495000 -0.254550 0
8.500000 -0.315342 4
8.505000 -0.308382 0
8.510000 -0.257170 0
8.515000 -0.187592 0
8.520000 -0.120650 0
8.525000 -0.067721 0
8.530000 -0.030728 0
8.535000 -0.005925 0
8.540000 0.011909 0
8.545000 0.026961 0
8.550000 0.041759 0
8.555000 0.057536 0
8.560000 0.074793 0
8.565000 0.093681 0
8.570000 0.114193 0
8.575000 0.136237 0
8.580000 0.159658 0
8.585000 0.184238 0
8.590000 0.209703 0
8.595000 0.235720 0
8.600000 0.261905 0
8.605000 0.287832 0
8.610000 0.313038 0
8.615000 0.337042 0
8.620000 0.359355 0
8.625000 0.379497 0
8.630000 0.397016 0
8.635000 0.411499 0
8.640000 0.422596 0
8.645000 0.430024 0
8.650000 0.433586 5
8.655000 0.433177 0
8.660000 0.428785 0
8.665000 0.420498 0
8.670000 0.408495 0
8.675000 0.393042 0
8.680000 0.374484 0
8.685000 0.353225 0
8.690000 0.329720 0
8.695000 0.304456 0
8.700000 0.277934 0
8.705000 0.250654 0
8.710000 0.223097 0
8.715000 0.195715 0
8.720000 0.168919 0
8.725000 0.143066 0
8.730000 0.118458 0
8.735000 0.095336 0
8.740000 0.073880 0
8.745000 0.054210 0
8.750000 0.036393 0
8.755000 0.020444 0
8.760000 0.006334 0
8.765000 -0.006001 0
8.770000 -0.016656 0
8.775000 -0.025744 0
8.780000 -0.033395 0
8.785000 -0.039749 0
8.790000 -0.044944 0
8.795000 -0.049121 0
8.800000 -0.052413 0
8.805000 -0.054945 0
8.810000 -0.056833 0
8.815000 -0.058180 0
8.820000 -0.059080 0
8.825000 -0.059612 0
8.830000 -0.059847 0
8.835000 -0.059844 0
8.840000 -0.059651 0
8.845000 -0.059311 0
8.850000 -0.058569 0
8.855000 -0.057763 0
8.860000 -0.056961 0
8.865000 -0.056163 0
8.870000 -0.055369 0
8.875000 -0.054580 0
8.880000 -0.053794 0
8.885000 -0.053012 0
8.890000 -0.052234 0
8.895000 -0.051459 0
8.900000 -0.050689 0
8.905000 -0.049922 0
8.910000 -0.049159 0
8.915000 -0.048400 0
8.920000 -0.047644 0
8.925000 -0.046891 0
8.930000 -0.046141 0
8.935000 -0.045391 0
8.940000 -0.044640 0
8.945000 -0.043884 0
8.950000 -0.043117 0
8.955000 -0.042328 0
8.960000 -0.041502 0
8.965000 -0.040612 0
8.970000 -0.039622 0
8.975000 -0.038475 0
8.980000 -0.037094 0
8.985000 -0.035371 0
8.990000 -0.033162 0
8.995000 -0.030281 0
9.000000 -0.026500 0
9.005000 -0.021546 0
9.010000 -0.015109 0
9.015000 -0.006859 0
9.020000 0.003534 0
9.025000 0.016365 0
9.030000 0.031853 0
9.035000 0.050097 0
9.040000 0.071028 0
9.045000 0.094372 0
9.050000 0.119620 0
9.055000 0.146024 0
9.060000 0.172616 0
9.065000 0.198257 0
9.070000 0.221710 0
9.075000 0.241736 0
9.080000 0.257202 0
9.085000 0.267184 0
9.090000 0.271059 1
9.095000 0.268569 0
9.100000 0.259847 0
9.105000 0.245407 0
9.110000 0.226091 0
9.115000 0.202989 0
9.120000 0.177335 0
9.125000 0.150399 0
9.130000 0.123379 0
9.135000 0.097302 0
9.140000 0.072915 0
9.145000 0.050528 0
9.150000 0.029756 0
9.155000 0.009175 0
9.160000 -0.013898 0
9.165000 -0.042971 0
9.170000 -0.080697 0
9.175000 -0.126013 0
9.180000 -0.171374 0
9.185000 -0.202112 2
9.190000 -0.198810 0
9.195000 -0.141484 0
9.200000 -0.013990 0
9.205000 0.190457 0
9.210000 0.460500 0
9.215000 0.757229 0
9.220000 1.014469 0
9.225000 1.158240 3
9.230000 1.141920 0
9.235000 0.968148 0
9.240000 0.686273 0
9.245000 0.367995 0
9.250000 0.077498 0
9.255000 -0.145106 0
9.260000 -0.284246 0
9.265000 -0.342378 4
9.270000 -0.334341 0
9.275000 -0.282982 0
9.280000 -0.213366 0
9.285000 -0.145957 0
9.290000 -0.092095 0
9.295000 -0.054012 0
9.300000 -0.028296 0
9.305000 -0.009884 0
9.310000 0.005428 0
9.315000 0.020261 0
9.320000 0.035943 0
9.325000 0.053030 0
9.330000 0.071709 0
9.335000 0.091991 0
9.340000 0.113803 0
9.345000 0.137006 0
9.350000 0.161404 0
9.355000 0.186744 0
9.360000 0.212721 0
9.365000 0.238975 0
9.370000 0.265105 0
9.375000 0.290676 0
9.380000 0.315224 0
9.385000 0.338279 0
9.390000 0.359371 0
9.395000 0.378051 0
9.400000 0.393903 0
9.405000 0.406562 0
9.410000 0.415724 0
9.415000 0.421162 0
9.420000 0.422731 5
9.425000 0.420376 0
9.430000 0.414135 0
9.435000 0.404137 0
9.440000 0.390595 0
9.445000 0.373803 0
9.450000 0.354121 0
9.455000 0.331963 0
9.460000 0.307784 0
9.465000 0.282061 0
9.470000 0.255281 0
9.475000 0.227922 0
9.480000 0.200443 0
9.485000 0.173268 0
9.490000 0.146780 0
9.495000 0.121310 0
9.500000 0.097132 0
9.505000 0.074467 0
9.510000 0.053473 0
9.515000 0.034256 0
9.520000 0.016869 0
9.525000 0.001317 0
9.530000 -0.012433 0
9.535000 -0.024449 0
9.540000 -0.034825 0
9.545000 -0.043674 0
9.550000 -0.051122 0
9.555000 -0.057304 0
9.560000 -0.062356 0
9.565000 -0.066412 0
9.570000 -0.069602 0
9.575000 -0.072046 0
9.580000 -0.073856 0
9.585000 -0.075133 0
9.590000 -0.075967 0
9.595000 -0.076436 0
9.600000 -0.076608 0
9.605000 -0.076542 0
9.610000 -0.076285 0
9.615000 -0.075879 0
9.620000 -0.075057 0
9.625000 -0.074169 0
9.630000 -0.073286 0
9.635000 -0.072406 0
9.640000 -0.071531 0
9.645000 -0.070661 0
9.650000 -0.069795 0
9.655000 -0.068933 0
9.660000 -0.068075 0
9.665000 -0.067222 0
9.670000 -0.066373 0
9.675000 -0.065528 0
9.680000 -0.064688 0
9.685000 -0.063851 0
9.690000 -0.063018 0
9.695000 -0.062189 0
9.700000 -0.061363 0
9.705000 -0.060539 0
9.710000 -0.059715 0
9.715000 -0.058888 0
9.720000 -0.058055 0
9.725000 -0.057206 0
9.730000 -0.056329 0
9.735000 -0.055405 0
9.740000 -0.054403 0
9.745000 -0.053282 0
9.750000 -0.051977 0
9.755000 -0.050403 0
9.760000 -0.048440 0
9.765000 -0.045937 0
9.770000 -0.042696 0
9.775000 -0.038483 0
9.780000 -0.033020 0
9.785000 -0.025999 0
9.790000 -0.017098 0
9.795000 -0.006004 0
9.800000 0.007552 0
9.805000 0.023757 0
9.810000 0.042671 0
9.815000 0.064187 0
9.820000 0.087994 0
9.825000 0.113556 0
9.830000 0.140109 0
9.835000 0.166690 0
9.840000 0.192177 0
9.845000 0.215369 0
9.850000 0.235073 0
9.855000 0.250207 0
9.860000 0.259897 0
9.865000 0.263558 1
9.870000 0.260957 0
9.875000 0.252232 0
9.880000 0.237882 0
9.885000 0.218721 0
9.890000 0.195797 0
9.895000 0.170301 0
9.900000 0.143463 0
9.905000 0.116450 0
9.910000 0.090275 0
9.915000 0.065697 0
9.920000 0.043081 0
9.925000 0.022172 0
9.930000 0.001776 0
9.935000 -0.020494 0
9.940000 -0.047963 0
9.945000 -0.083583 0
9.950000 -0.127416 0
9.955000 -0.173855 0
9.960000 -0.210385 0
9.965000 -0.219111 2
9.970000 -0.180413 0
9.975000 -0.077045 0
9.980000 0.101282 0
9.985000 0.350763 0
9.990000 0.644068 0
9.995000 0.925925 0
10.000000 1.124189 0
10.005000 1.177793 3
10.010000 1.066004 0
10.015000 0.820407 0
10.020000 0.508125 0
10.025000 0.200191 0
10.030000 -0.052257 0
10.035000 -0.224328 0
10.040000 -0.312248 0
10.045000 -0.326777 4
10.050000 -0.288556 0
10.055000 -0.222918 0
10.060000 -0.152986 0
10.065000 -0.093775 0
10.070000 -0.050510 0
10.075000 -0.021226 0
10.080000 -0.000990 0
10.085000 0.014901 0
10.090000 0.029622 0
10.095000 0.044879 0
10.100000 0.061431 0
10.105000 0.079551 0
10.110000 0.099294 0
10.115000 0.120605 0
10.120000 0.143363 0
10.125000 0.167385 0
10.130000 0.192432 0
10.135000 0.218209 0
10.140000 0.244366 0
10.145000 0.270508 0
10.150000 0.296201 0
10.155000 0.320983 0
10.160000 0.344377 0
10.165000 0.365909 0
10.170000 0.385115 0
10.175000 0.401566 0
10.180000 0.414881 0
10.185000 0.424737 0
10.190000 0.430887 0
10.195000 0.433167 5
10.200000 0.431505 0
10.205000 0.425919 0
10.210000 0.416523 0
10.215000 0.403519 0
10.220000 0.387190 0
10.225000 0.367891 0
10.230000 0.346032 0
10.235000 0.322069 0
10.240000 0.296482 0
10.245000 0.269764 0
10.250000 0.242399 0
10.255000 0.214856 0
10.260000 0.187569 0
10.265000 0.160930 0
10.270000 0.135281 0
10.275000 0.110907 0
10.280000 0.088034 0
10.285000 0.066831 0
10.290000 0.047407 0
10.295000 0.029822 0
10.300000 0.014083 0
10.305000 0.000160 0
10.310000 -0.012013 0
10.315000 -0.022531 0
10.320000 -0.031506 0
10.325000 -0.039067 0
10.330000 -0.045349 0
10.335000 -0.050490 0
10.340000 -0.054625 0
10.345000 -0.057887 0
10.350000 -0.060396 0
10.355000 -0.062267 0
10.360000 -0.063601 0
10.365000 -0.064489 0
10.370000 -0.065011 0
10.375000 -0.065235 0
10.380000 -0.065220 0
10.385000 -0.065014 0
10.390000 -0.064659 0
10.395000 -0.063892 0
10.400000 -0.063060 0
10.405000 -0.062232 0
10.410000 -0.061408 0
10.415000 -0.060588 0
10.420000 -0.059772 0
10.425000 -0.058960 0
10.430000 -0.058152 0
10.435000 -0.057349 0
10.440000 -0.056549 0
10.445000 -0.055753 0
10.450000 -0.054961 0
10.455000 -0.054173 0
10.460000 -0.053389 0
10.465000 -0.052608 0
10.470000 -0.051831 0
10.475000 -0.051056 0
10.480000 -0.050283 0
10.485000 -0.049509 0
10.490000 -0.048732 0
10.495000 -0.047947 0
10.500000 -0.047144 0
10.505000 -0.046310 0
10.510000 -0.045423 0
10.515000 -0.044452 0
10.520000 -0.043349 0
10.525000 -0.042047 0
10.530000 -0.040452 0
10.535000 -0.038437 0
10.540000 -0.035838 0
10.545000 -0.032450 0
10.550000 -0.028023 0
10.555000 -0.022268 0
10.560000 -0.014869 0
10.565000 -0.005499 0
10.570000 0.006150 0
10.575000 0.020335 0
10.580000 0.037215 0
10.585000 0.056810 0
10.590000 0.078959 0
10.595000 0.103286 0
10.600000 0.129181 0
10.605000 0.155812 0
10.610000 0.182148 0
10.615000 0.207022 0
10.620000 0.229210 0
10.625000 0.247530 0
10.630000 0.260943 0
10.635000 0.268651 0
10.640000 0.270176 1
10.645000 0.265407 0
10.650000 0.254612 0
10.655000 0.238414 0
10.660000 0.217730 0
10.665000 0.193686 0
10.670000 0.167512 0
10.675000 0.140441 0
10.680000 0.113605 0
10.685000 0.087945 0
10.690000 0.064092 0
10.695000 0.042200 0
10.700000 0.021670 0
10.705000 0.000814 0
10.710000 -0.023256 0
10.715000 -0.053984 0
10.720000 -0.093467 0
10.725000 -0.139579 0
10.730000 -0.183580 0
10.735000 -0.210032 2
10.740000 -0.199525 0
10.745000 -0.132796 0
10.750000 0.005026 0
10.755000 0.218775 0
10.760000 0.494431 0
10.765000 0.790552 0
10.770000 1.040309 0
10.775000 1.172081 3
10.780000 1.140443 0
10.785000 0.951811 0
10.790000 0.661258 0
10.795000 0.343497 0
10.800000 0.061961 0
10.805000 -0.146216 0
10.810000 -0.268774 0
10.815000 -0.311162 4
10.820000 -0.290930 0
10.825000 -0.232869 0
10.830000 -0.162353 0
10.835000 -0.098293 0
10.840000 -0.049517 0
10.845000 -0.016102 0
10.850000 0.006425 0
10.855000 0.023187 0
10.860000 0.037960 0
10.865000 0.052892 0
10.870000 0.068985 0
10.875000 0.086620 0
10.880000 0.105897 0
10.885000 0.126783 0
10.890000 0.149169 0
10.895000 0.172881 0
10.900000 0.197689 0
10.905000 0.223299 0
10.910000 0.249366 0
10.915000 0.275493 0
10.920000 0.301241 0
10.925000 0.326140 0
10.930000 0.349706 0
10.935000 0.371448 0
10.940000 0.390892 0
10.945000 0.407593 0
10.950000 0.421154 0
10.955000 0.431241 0
10.960000 0.437593 0
10.965000 0.440037 5
10.970000 0.438493 0
10.975000 0.432977 0
10.980000 0.423603 0
10.985000 0.410575 0
10.990000 0.394184 0
10.995000 0.374791 0
11.000000 0.352820 0
11.005000 0.328737 0
11.010000 0.303034 0
11.015000 0.276215 0
11.020000 0.248777 0
11.025000 0.221196 0
11.030000 0.193913 0
11.035000 0.167325 0
11.040000 0.141775 0
11.045000 0.117548 0
11.050000 0.094867 0
11.055000 0.073895 0
11.060000 0.054736 0
11.065000 0.037442 0
11.070000 0.022012 0
11.075000 0.008408 0
11.080000 -0.003445 0
11.085000 -0.013647 0
11.090000 -0.022319 0
11.095000 -0.029594 0
11.100000 -0.035612 0
11.105000 -0.040513 0
11.110000 -0.044436 0
11.115000 -0.047512 0
11.120000 -0.049864 0
11.125000 -0.051604 0
11.130000 -0.052832 0
11.135000 -0.053638 0
11.140000 -0.054100 0
11.145000 -0.054283 0
11.150000 -0.054243 0
11.155000 -0.054028 0
11.160000 -0.053613 0
11.165000 -0.052832 0
11.170000 -0.052055 0
11.175000 -0.051282 0
11.180000 -0.050512 0
11.185000 -0.049747 0
11.190000 -0.048985 0
11.195000 -0.048227 0
11.200000 -0.047473 0
11.205000 -0.046722 0
11.210000 -0.045975 0
11.215000 -0.045232 0
11.220000 -0.044493 0
11.225000 -0.043757 0
11.230000 -0.043024 0
11.235000 -0.042295 0
11.240000 -0.041568 0
11.245000 -0.040844 0
11.250000 -0.040119 0
11.255000 -0.039392 0
11.260000 -0.038658 0
11.265000 -0.037910 0
11.270000 -0.037136 0
11.275000 -0.036316 0
11.280000 -0.035421 0
11.285000 -0.034410 0
11.290000 -0.033218 0
11.295000 -0.031758 0
11.300000 -0.029910 0
11.305000 -0.027518 0
11.310000 -0.024379 0
11.315000 -0.020250 0
11.320000 -0.014843 0
11.325000 -0.007838 0
11.330000 0.001098 0
11.335000 0.012287 0
11.340000 0.026005 0
11.345000 0.042434 0
11.350000 0.061618 0
11.355000 0.083422 0
11.360000 0.107488 0
11.365000 0.133222 0
11.370000 0.159792 0
11.375000 0.186161 0
11.380000 0.211143 0
11.385000 0.233485 0
11.390000 0.251972 0
11.395000 0.265532 0
11.400000 0.273339 0
11.405000 0.274895 1
11.410000 0.270082 0
11.415000 0.259177 0
11.420000 0.242822 0
11.425000 0.221961 0
11.430000 0.197754 0
11.435000 0.171461 0
11.440000 0.144342 0
11.445000 0.117544 0
11.450000 0.092007 0
11.455000 0.068339 0
11.460000 0.046628 0
11.465000 0.026141 0
11.470000 0.004983 0
11.475000 -0.019952 0
11.480000 -0.052131 0
11.485000 -0.093178 0
11.490000 -0.139822 0
11.495000 -0.181705 0
11.500000 -0.201896 2
11.505000 -0.180197 0
11.510000 -0.097529 0
11.515000 0.059488 0
11.520000 0.291887 0
11.525000 0.578514 0
11.530000 0.868849 0
11.535000 1.090156 0
11.540000 1.174124 3
11.545000 1.090595 0
11.550000 0.863312 0
11.555000 0.556644 0
11.560000 0.244215 0
11.565000 -0.018089 0
11.570000 -0.201345 0
11.575000 -0.299289 0
11.580000 -0.321325 4
11.585000 -0.287532 0
11.590000 -0.223485 0
11.595000 -0.153226 0
11.600000 -0.092895 0
11.605000 -0.048545 0
11.610000 -0.018559 0
11.615000 0.002004 0
11.620000 0.017988 0
11.625000 0.032698 0
11.630000 0.047912 0
11.635000 0.064423 0
11.640000 0.082516 0
11.645000 0.102245 0
11.650000 0.123558 0
11.655000 0.146329 0
11.660000 0.170371 0
11.665000 0.195440 0
11.670000 0.221232 0
11.675000 0.247390 0
11.680000 0.273510 0
11.685000 0.299147 0
11.690000 0.323830 0
11.695000 0.347074 0
11.700000 0.368393 0
11.705000 0.387322 0
11.710000 0.403427 0
11.715000 0.416325 0
11.720000 0.425698 0
11.725000 0.431305 0
11.730000 0.432992 5
11.735000 0.430697 0
11.740000 0.424457 0
11.745000 0.414402 0
11.750000 0.400753 0
11.755000 0.383813 0
11.760000 0.363954 0
11.765000 0.341605 0
11.770000 0.317236 0
11.775000 0.291339 0
11.780000 0.264416 0
11.785000 0.236958 0
11.790000 0.209433 0
11.795000 0.182273 0
11.800000 0.155865 0
11.805000 0.130540 0
11.810000 0.106572 0
11.815000 0.084175 0
11.820000 0.063500 0
11.825000 0.044644 0
11.830000 0.027650 0
11.835000 0.012512 0
11.840000 -0.000814 0
11.845000 -0.012405 0
11.850000 -0.022366 0
11.855000 -0.030817 0
11.860000 -0.037893 0
11.865000 -0.043732 0
11.870000 -0.048475 0
11.875000 -0.052258 0
11.880000 -0.055211 0
11.885000 -0.057454 0
11.890000 -0.059099 0
11.895000 -0.060244 0
11.900000 -0.060976 0
11.905000 -0.061372 0
11.910000 -0.061496 0
11.915000 -0.061403 0
11.920000 -0.061138 0
11.925000 -0.060680 0
11.930000 -0.059863 0
11.935000 -0.059051 0
11.940000 -0.058243 0
11.945000 -0.057439 0
11.950000 -0.056639 0
11.955000 -0.055842 0
11.960000 -0.055050 0
11.965000 -0.054262 0
11.970000 -0.053477 0
11.975000 -0.052697 0
11.980000 -0.051920 0
11.985000 -0.051148 0
11.990000 -0.050379 0
11.995000 -0.049613 0
12.000000 -0.048851 0
12.005000 -0.048091 0
12.010000 -0.047334 0
12.015000 -0.046577 0
12.020000 -0.045818 0
12.025000 -0.045051 0
12.030000 -0.044271 0
12.035000 -0.043464 0
12.040000 -0.042611 0
12.045000 -0.041684 0
12.050000 -0.040640 0
12.055000 -0.039415 0
12.060000 -0.037923 0
12.065000 -0.036045 0
12.070000 -0.033622 0
12.075000 -0.030458 0
12.080000 -0.026307 0
12.085000 -0.020886 0
12.090000 -0.013876 0
12.095000 -0.004945 0
12.100000 0.006226 0
12.105000 0.019913 0
12.110000 0.036300 0
12.115000 0.055435 0
12.120000 0.077188 0
12.125000 0.101212 0
12.130000 0.126923 0
12.135000 0.153505 0
12.140000 0.179932 0
12.145000 0.205031 0
12.150000 0.227558 0
12.155000 0.246299 0
12.160000 0.260180 0
12.165000 0.268362 0
12.170000 0.270330 1
12.175000 0.265945 0
12.180000 0.255455 0
12.185000 0.239477 0
12.190000 0.218931 0
12.195000 0.194958 0
12.200000 0.168807 0
12.205000 0.141734 0
12.210000 0.114893 0
12.215000 0.089240 0
12.220000 0.065414 0
12.225000 0.043560 0
12.230000 0.023043 0
12.235000 0.002100 0
12.240000 -0.022254 0
12.245000 -0.053508 0
12.250000 -0.093612 0
12.255000 -0.139983 0
12.260000 -0.183143 0
12.265000 -0.206882 2
12.270000 -0.191277 0
12.275000 -0.116996 0
12.280000 0.030254 0
12.285000 0.253549 0
12.290000 0.535283 0
12.295000 0.829108 0
12.300000 1.064520 0
12.305000 1.170915 3
12.310000 1.112325 0
12.315000 0.904618 0
12.320000 0.606220 0
12.325000 0.289872 0
12.330000 0.014642 0
12.335000 -0.186124 0
12.340000 -0.302335 0
12.345000 -0.340320 4
12.350000 -0.317696 0
12.355000 -0.258748 0
12.360000 -0.188056 0
12.365000 -0.123866 0
12.370000 -0.074739 0
12.375000 -0.040827 0
12.380000 -0.017834 0
12.385000 -0.000750 0
12.390000 0.014187 0
12.395000 0.029165 0
12.400000 0.045227 0
12.405000 0.062786 0
12.410000 0.081957 0
12.415000 0.102723 0
12.420000 0.124984 0
12.425000 0.148584 0
12.430000 0.173306 0
12.435000 0.198877 0
12.440000 0.224972 0
12.445000 0.251215 0
12.450000 0.277187 0
12.455000 0.302441 0
12.460000 0.326506 0
12.465000 0.348906 0
12.470000 0.369175 0
12.475000 0.386871 0
12.480000 0.401591 0
12.485000 0.412990 0
12.490000 0.420787 0
12.495000 0.424785 0
12.500000 0.424870 5
12.505000 0.421023 0
12.510000 0.413316 0
12.515000 0.401911 0
12.520000 0.387057 0
12.525000 0.369075 0
12.530000 0.348351 0
12.535000 0.325320 0
12.540000 0.300450 0
12.545000 0.274227 0
12.550000 0.247140 0
12.555000 0.219663 0
12.560000 0.192245 0
12.565000 0.165297 0
12.570000 0.139183 0
12.575000 0.114212 0
12.580000 0.090640 0
12.585000 0.068659 0
12.590000 0.048407 0
12.595000 0.029966 0
12.600000 0.013368 0
12.605000 -0.001398 0
12.610000 -0.014384 0
12.615000 -0.025669 0
12.620000 -0.035358 0
12.625000 -0.043572 0
12.630000 -0.050441 0
12.635000 -0.056103 0
12.640000 -0.060695 0
12.645000 -0.064348 0
12.650000 -0.067191 0
12.655000 -0.069339 0
12.660000 -0.070901 0
12.665000 -0.071973 0
12.670000 -0.072639 0
12.675000 -0.072973 0
12.680000 -0.073040 0
12.685000 -0.072892 0
12.690000 -0.072574 0
12.695000 -0.072062 0
12.700000 -0.071189 0
12.705000 -0.070320 0
12.710000 -0.069456 0
12.715000 -0.068595 0
12.720000 -0.067740 0
12.725000 -0.066888 0
12.730000 -0.066041 0
12.735000 -0.065198 0
12.740000 -0.064359 0
12.745000 -0.063524 0
12.750000 -0.062693 0
12.755000 -0.061867 0
12.760000 -0.061044 0
12.765000 -0.060226 0
12.770000 -0.059411 0
12.775000 -0.058599 0
12.780000 -0.057790 0
12.785000 -0.056981 0
12.790000 -0.056172 0
12.795000 -0.055358 0
12.800000 -0.054532 0
12.805000 -0.053684 0
12.810000 -0.052798 0
12.815000 -0.051849 0
12.820000 -0.050799 0
12.825000 -0.049595 0
12.830000 -0.048159 0
12.835000 -0.046387 0
12.840000 -0.044139 0
12.845000 -0.041238 0
12.850000 -0.037460 0
12.855000 -0.032544 0
12.860000 -0.026190 0
12.865000 -0.018077 0
12.870000 -0.007883 0
12.875000 0.004683 0
12.880000 0.019848 0
12.885000 0.037726 0
12.890000 0.058278 0
12.895000 0.081270 0
12.900000 0.106248 0
12.905000 0.132530 0
12.910000 0.159212 0
12.915000 0.185218 0
12.920000 0.209358 0
12.925000 0.230416 0
12.930000 0.247253 0
12.935000 0.258905 0
12.940000 0.264674 1
12.945000 0.264200 0
12.950000 0.257494 0
12.955000 0.244939 0
12.960000 0.227255 0
12.965000 0.205429 0
12.970000 0.180624 0
12.975000 0.154075 0
12.980000 0.126989 0
12.985000 0.100444 0
12.990000 0.075297 0
12.995000 0.052057 0
13.000000 0.030692 0
13.005000 0.010324 0
13.010000 -0.011079 0
13.015000 -0.036660 0
13.020000 -0.069717 0
13.025000 -0.111467 0
13.030000 -0.158150 0
13.035000 -0.199132 0
13.040000 -0.217627 2
13.045000 -0.193956 0
13.050000 -0.109693 0
13.055000 0.047991 0
13.060000 0.280001 0
13.065000 0.565992 0
13.070000 0.857466 0
13.075000 1.084102 0
13.080000 1.178407 3
13.085000 1.107482 0
13.090000 0.890478 0
13.095000 0.588145 0
13.100000 0.273146 0
13.105000 0.002858 0
13.110000 -0.191348 0
13.115000 -0.300906 0
13.120000 -0.333227 4
13.125000 -0.306691 0
13.130000 -0.245916 0
13.135000 -0.175231 0
13.140000 -0.112161 0
13.145000 -0.064463 0
13.150000 -0.031735 0
13.155000 -0.009484 0
13.160000 0.007248 0
13.165000 0.022088 0
13.170000 0.037102 0
13.175000 0.053257 0
13.180000 0.070931 0
13.185000 0.090222 0
13.190000 0.111102 0
13.195000 0.133467 0
13.200000 0.157154 0
13.205000 0.181940 0
13.210000 0.207548 0
13.215000 0.233644 0
13.220000 0.259849 0
13.225000 0.285740 0
13.230000 0.310864 0
13.235000 0.334750 0
13.240000 0.356921 0
13.245000 0.376912 0
13.250000 0.394283 0
13.255000 0.408636 0
13.260000 0.419630 0
13.265000 0.426996 0
13.270000 0.430541 5
13.275000 0.430164 0
13.280000 0.425854 0
13.285000 0.417694 0
13.290000 0.405857 0
13.295000 0.390600 0
13.300000 0.372255 0
13.305000 0.351213 0
13.310000 0.327915 0
13.315000 0.302832 0
13.320000 0.276454 0
13.325000 0.249269 0
13.330000 0.221748 0
13.335000 0.194340 0
13.340000 0.167448 0
13.345000 0.141433 0
13.350000 0.116597 0
13.355000 0.093187 0
13.360000 0.071392 0
13.365000 0.051340 0
13.370000 0.033108 0
13.375000 0.016722 0
13.380000 0.002164 0
13.385000 -0.010620 0
13.390000 -0.021715 0
13.395000 -0.031227 0
13.400000 -0.039279 0
13.405000 -0.046004 0
13.410000 -0.051539 0
13.415000 -0.056020 0
13.420000 -0.059581 0
13.425000 -0.062346 0
13.430000 -0.064432 0
13.435000 -0.065945 0
13.440000 -0.066980 0
13.445000 -0.067620 0
13.450000 -0.067938 0
13.455000 -0.067996 0
13.460000 -0.067845 0
13.465000 -0.067531 0
13.470000 -0.067029 0
13.475000 -0.066181 0
13.480000 -0.065338 0
13.485000 -0.064498 0
13.490000 -0.063663 0
13.495000 -0.062831 0
13.500000 -0.062004 0
13.505000 -0.061181 0
13.510000 -0.060362 0
13.515000 -0.059548 0
13.520000 -0.058737 0
13.525000 -0.057930 0
13.530000 -0.057127 0
13.535000 -0.056329 0
13.540000 -0.055533 0
13.545000 -0.054742 0
13.550000 -0.053953 0
13.555000 -0.053166 0
13.560000 -0.052381 0
13.565000 -0.051593 0
13.570000 -0.050799 0
13.575000 -0.049993 0
13.580000 -0.049162 0
13.585000 -0.048289 0
13.590000 -0.047348 0
13.595000 -0.046297 0
13.600000 -0.045081 0
13.605000 -0.043617 0
13.610000 -0.041795 0
13.615000 -0.039468 0
13.620000 -0.036451 0
13.625000 -0.032513 0
13.630000 -0.027385 0
13.635000 -0.020762 0
13.640000 -0.012320 0
13.645000 -0.001739 0
13.650000 0.011264 0
13.655000 0.026899 0
13.660000 0.045255 0
13.665000 0.066259 0
13.670000 0.089640 0
13.675000 0.114901 0
13.680000 0.141312 0
13.685000 0.167936 0
13.690000 0.193664 0
13.695000 0.217293 0
13.700000 0.237612 0
13.705000 0.253505 0
13.710000 0.264051 0
13.715000 0.268611 1
13.720000 0.266895 0
13.725000 0.258987 0
13.730000 0.245341 0
13.735000 0.226738 0
13.740000 0.204208 0
13.745000 0.178939 0
13.750000 0.152172 0
13.755000 0.125096 0
13.760000 0.098756 0
13.765000 0.073951 0
13.770000 0.051101 0
13.775000 0.030027 0
13.780000 0.009635 0
13.785000 -0.012364 0
13.790000 -0.039272 0
13.795000 -0.074182 0
13.800000 -0.117510 0
13.805000 -0.164131 0
13.810000 -0.201934 0
13.815000 -0.213157 2
13.820000 -0.178005 0
13.825000 -0.078822 0
13.830000 0.095334 0
13.835000 0.341631 0
13.840000 0.633893 0
13.845000 0.917600 0
13.850000 1.120274 0
13.855000 1.179345 3
13.860000 1.071310 0
13.865000 0.826892 0
13.870000 0.514595 0
13.875000 0.207170 0
13.880000 -0.043336 0
13.885000 -0.212064 0
13.890000 -0.295828 0
13.895000 -0.306293 4
13.900000 -0.265110 0
13.905000 -0.198326 0
13.910000 -0.129081 0
13.915000 -0.071721 0
13.920000 -0.030557 0
13.925000 -0.002950 0
13.930000 0.016268 0
13.935000 0.031717 0
13.940000 0.046375 0
13.945000 0.061775 0
13.950000 0.078570 0
13.955000 0.096979 0
13.960000 0.117027 0
13.965000 0.138642 0
13.970000 0.161683 0
13.975000 0.185948 0
13.980000 0.211175 0
13.985000 0.237047 0
13.990000 0.263189 0
13.995000 0.289183 0
14.000000 0.314574 0
14.005000 0.338881 0
14.010000 0.361614 0
14.015000 0.382288 0
14.020000 0.400440 0
14.025000 0.415645 0
14.030000 0.427536 0
14.035000 0.435810 0
14.040000 0.440250 0
14.045000 0.440727 5
14.050000 0.437208 0
14.055000 0.429759 0
14.060000 0.418537 0
14.065000 0.403793 0
14.070000 0.385855 0
14.075000 0.365116 0
14.080000 0.342025 0
14.085000 0.317064 0
14.090000 0.290734 0
14.095000 0.263537 0
14.100000 0.235965 0
14.105000 0.208476 0
14.110000 0.181492 0
14.115000 0.155384 0
14.120000 0.130467 0
14.125000 0.106994 0
14.130000 0.085159 0
14.135000 0.065095 0
14.140000 0.046878 0
14.145000 0.030533 0
14.150000 0.016039 0
14.155000 0.003339 0
14.160000 -0.007658 0
14.165000 -0.017063 0
14.170000 -0.025004 0
14.175000 -0.031619 0
14.180000 -0.037047 0
14.185000 -0.041431 0
14.190000 -0.044904 0
14.195000 -0.047595 0
14.200000 -0.049621 0
14.205000 -0.051088 0
14.210000 -0.052092 0
14.215000 -0.052714 0
14.220000 -0.053028 0
14.225000 -0.053094 0
14.230000 -0.052962 0
14.235000 -0.052677 0
14.240000 -0.051971 0
14.245000 -0.051198 0
14.250000 -0.050429 0
14.255000 -0.049664 0
14.260000 -0.048902 0
14.265000 -0.048145 0
14.270000 -0.047391 0
14.275000 -0.046641 0
14.280000 -0.045894 0
14.285000 -0.045152 0
14.290000 -0.044413 0
14.295000 -0.043678 0
14.300000 -0.042946 0
14.305000 -0.042218 0
14.310000 -0.041493 0
14.315000 -0.040770 0
14.320000 -0.040051 0
14.325000 -0.039332 0
14.330000 -0.038612 0
14.335000 -0.037887 0
14.340000 -0.037152 0
14.345000 -0.036397 0
14.350000 -0.035606 0
14.355000 -0.034755 0
14.360000 -0.033808 0
14.365000 -0.032712 0
14.370000 -0.031390 0
14.375000 -0.029738 0
14.380000 -0.027617 0
14.385000 -0.024843 0
14.390000 -0.021193 0
14.395000 -0.016396 0
14.400000 -0.010145 0
14.405000 -0.002110 0
14.410000 0.008043 0
14.415000 0.020614 0
14.420000 0.035832 0
14.425000 0.053809 0
14.430000 0.074492 0
14.435000 0.097624 0
14.440000 0.122715 0
14.445000 0.149034 0
14.450000 0.175624 0
14.455000 0.201355 0
14.460000 0.224988 0
14.465000 0.245277 0
14.470000 0.261072 0
14.475000 0.271428 0
14.480000 0.275696 1
14.485000 0.273593 0
14.490000 0.265226 0
14.495000 0.251089 0
14.500000 0.232009 0
14.505000 0.209066 0
14.510000 0.183496 0
14.515000 0.156574 0
14.520000 0.129508 0
14.525000 0.103340 0
14.530000 0.078838 0
14.535000 0.056337 0
14.540000 0.035491 0
14.545000 0.014923 0
14.550000 -0.008011 0
14.555000 -0.036820 0
14.560000 -0.074245 0
14.565000 -0.119408 0
14.570000 -0.164985 0
14.575000 -0.196461 2
14.580000 -0.194437 0
14.585000 -0.138806 0
14.590000 -0.013205 0
14.595000 0.189499 0
14.600000 0.458435 0
14.605000 0.755176 0
14.610000 1.013712 0
14.615000 1.159665 3
14.620000 1.144083 0
14.625000 0.968814 0
14.630000 0.685066 0
14.635000 0.366827 0
14.640000 0.079395 0
14.645000 -0.137423 0
14.650000 -0.269146 0
14.655000 -0.319617 4
14.660000 -0.305203 0
14.665000 -0.250075 0
14.670000 -0.179811 0
14.675000 -0.114272 0
14.680000 -0.063455 0
14.685000 -0.028295 0
14.690000 -0.004654 0
14.695000 0.012641 0
14.700000 0.027561 0
14.705000 0.042438 0
14.710000 0.058385 0
14.715000 0.075841 0
14.720000 0.094930 0
14.725000 0.115635 0
14.730000 0.137854 0
14.735000 0.161426 0
14.740000 0.186128 0
14.745000 0.211677 0
14.750000 0.237737 0
14.755000 0.263920 0
14.760000 0.289796 0
14.765000 0.314900 0
14.770000 0.338750 0
14.775000 0.360860 0
14.780000 0.380753 0
14.785000 0.397980 0
14.790000 0.412138 0
14.795000 0.422880 0
14.800000 0.429935 0
14.805000 0.433115 5
14.810000 0.432322 0
14.815000 0.427556 0
14.820000 0.418913 0
14.825000 0.406580 0
14.830000 0.390830 0
14.835000 0.372013 0
14.840000 0.350538 0
14.845000 0.326863 0
14.850000 0.301473 0
14.855000 0.274871 0
14.860000 0.247553 0
14.865000 0.219998 0
14.870000 0.192654 0
14.875000 0.165925 0
14.880000 0.140165 0
14.885000 0.115669 0
14.890000 0.092674 0
14.895000 0.071354 0
14.900000 0.051825 0
14.905000 0.034149 0
14.910000 0.018338 0
14.915000 0.004360 0
14.920000 -0.007850 0
14.925000 -0.018389 0
14.930000 -0.027372 0
14.935000 -0.034929 0
14.940000 -0.041199 0
14.945000 -0.046321 0
14.950000 -0.050434 0
14.955000 -0.053671 0
14.960000 -0.056157 0
14.965000 -0.058005 0
14.970000 -0.059319 0
14.975000 -0.060191 0
14.980000 -0.060701 0
14.985000 -0.060916 0
14.990000 -0.060897 0
14.995000 -0.060691 0
15.000000 -0.060271 0
15.005000 -0.059457 0
15.010000 -0.058647 0
15.015000 -0.057840 0
15.020000 -0.057038 0
15.025000 -0.056240 0
15.030000 -0.055446 0
15.035000 -0.054656 0
15.040000 -0.053869 0
15.045000 -0.053087 0
15.050000 -0.052308 0
15.055000 -0.051534 0
15.060000 -0.050763 0
15.065000 -0.049996 0
15.070000 -0.049232 0
15.075000 -0.048472 0
15.080000 -0.047715 0
15.085000 -0.046960 0
15.090000 -0.046206 0
15.095000 -0.045451 0
15.100000 -0.044691 0
15.105000 -0.043920 0
15.110000 -0.043126 0
15.115000 -0.042295 0
15.120000 -0.041399 0
15.125000 -0.040403 0
15.130000 -0.039249 0
15.135000 -0.037860 0
15.140000 -0.036127 0
15.145000 -0.033907 0
15.150000 -0.031014 0
15.155000 -0.027219 0
15.160000 -0.022249 0
15.165000 -0.015796 0
15.170000 -0.007531 0
15.175000 0.002877 0
15.180000 0.015721 0
15.185000 0.031219 0
15.190000 0.049469 0
15.195000 0.070404 0
15.200000 0.093748 0
15.205000 0.118994 0
15.210000 0.145398 0
15.215000 0.171994 0
15.220000 0.197647 0
15.225000 0.221124 0
15.230000 0.241189 0
15.235000 0.256708 0
15.240000 0.266759 0
15.245000 0.270715 1
15.250000 0.268315 0
15.255000 0.259687 0
15.260000 0.245336 0
15.265000 0.226100 0
15.270000 0.203060 0
15.275000 0.177447 0
15.280000 0.150528 0
15.285000 0.123500 0
15.290000 0.097393 0
15.295000 0.072960 0
15.300000 0.050524 0
15.305000 0.029724 0
15.310000 0.009173 0
15.315000 -0.013771 0
15.320000 -0.042600 0
15.325000 -0.080027 0
15.330000 -0.125163 0
15.335000 -0.170731 0
15.340000 -0.202327 2
15.345000 -0.200685 0
15.350000 -0.145811 0
15.355000 -0.021365 0
15.360000 0.179948 0
15.365000 0.447764 0
15.370000 0.744556 0
15.375000 1.005252 0
15.380000 1.155723 3
15.385000 1.147518 0
15.390000 0.980682 0
15.395000 0.702586 0
15.400000 0.384444 0
15.405000 0.091261 0
15.410000 -0.135546 0
15.415000 -0.279282 0
15.420000 -0.341590 4
15.425000 -0.336713 0
15.430000 -0.287137 0
15.435000 -0.217944 0
15.440000 -0.149989 0
15.445000 -0.095171 0
15.450000 -0.056188 0
15.455000 -0.029851 0
15.460000 -0.011120 0
15.465000 0.004296 0
15.470000 0.019110 0
15.475000 0.034714 0
15.480000 0.051700 0
15.485000 0.070269 0
15.490000 0.090444 0
15.495000 0.112154 0
15.500000 0.135265 0
15.505000 0.159585 0
15.510000 0.184867 0
15.515000 0.210808 0
15.520000 0.237055 0
15.525000 0.263209 0
15.530000 0.288838 0
15.535000 0.313482 0
15.540000 0.336669 0
15.545000 0.357933 0
15.550000 0.376821 0
15.555000 0.392916 0
15.560000 0.405848 0
15.565000 0.415310 0
15.570000 0.421066 0
15.575000 0.422965 5
15.580000 0.420947 0
15.585000 0.415038 0
15.590000 0.405361 0
15.595000 0.392122 0
15.600000 0.375607 0
15.605000 0.356170 0
15.610000 0.334220 0
15.615000 0.310207 0
15.620000 0.284608 0
15.625000 0.257907 0
15.630000 0.230583 0
15.635000 0.203096 0
15.640000 0.175874 0
15.645000 0.149303 0
15.650000 0.123718 0
15.655000 0.099401 0
15.660000 0.076575 0
15.665000 0.055406 0
15.670000 0.036003 0
15.675000 0.018425 0
15.680000 0.002682 0
15.685000 -0.011256 0
15.690000 -0.023452 0
15.695000 -0.033998 0
15.700000 -0.043006 0
15.705000 -0.050601 0
15.710000 -0.056915 0
15.715000 -0.062086 0
15.720000 -0.066246 0
15.725000 -0.069527 0
15.730000 -0.072049 0
15.735000 -0.073926 0
15.740000 -0.075259 0
15.745000 -0.076139 0
15.750000 -0.076647 0
15.755000 -0.076850 0
15.760000 -0.076808 0
15.765000 -0.076571 0
15.770000 -0.076180 0
15.775000 -0.075359 0
15.780000 -0.074470 0
15.785000 -0.073585 0
15.790000 -0.072704 0
15.795000 -0.071827 0
15.800000 -0.070955 0
15.805000 -0.070088 0
15.810000 -0.069225 0
15.815000 -0.068366 0
15.820000 -0.067511 0
15.825000 -0.066660 0
15.830000 -0.065814 0
15.835000 -0.064972 0
15.840000 -0.064134 0
15.845000 -0.063300 0
15.850000 -0.062469 0
15.855000 -0.061642 0
15.860000 -0.060817 0
15.865000 -0.059992 0
15.870000 -0.059166 0
15.875000 -0.058332 0
15.880000 -0.057486 0
15.885000 -0.056613 0
15.890000 -0.055696 0
15.895000 -0.054708 0
15.900000 -0.053607 0
15.905000 -0.052334 0
15.910000 -0.050805 0
15.915000 -0.048909 0
15.920000 -0.046498 0
15.925000 -0.043383 0
15.930000 -0.039335 0
15.935000 -0.034083 0
15.940000 -0.027324 0
15.945000 -0.018736 0
15.950000 -0.008005 0
15.955000 0.005148 0
15.960000 0.020925 0
15.965000 0.039409 0
15.970000 0.060523 0
15.975000 0.083990 0
15.980000 0.109313 0
15.985000 0.135765 0
15.990000 0.162415 0
15.995000 0.188164 0
16.000000 0.211822 0
16.005000 0.232189 0
16.010000 0.248159 0
16.015000 0.258819 0
16.020000 0.263533 1
16.025000 0.262003 0
16.030000 0.254305 0
16.035000 0.240878 0
16.040000 0.222484 0
16.045000 0.200134 0
16.050000 0.175001 0
16.055000 0.148312 0
16.060000 0.121250 0
16.065000 0.094861 0
16.070000 0.069955 0
16.075000 0.046982 0
16.080000 0.025820 0
16.085000 0.005472 0
16.090000 -0.016221 0
16.095000 -0.042468 0
16.100000 -0.076444 0
16.105000 -0.118969 0
16.110000 -0.165667 0
16.115000 -0.205311 0
16.120000 -0.220814 2
16.125000 -0.192599 0
16.130000 -0.102688 0
16.135000 0.060962 0
16.140000 0.297972 0
16.145000 0.586260 0
16.150000 0.875803 0
16.155000 1.096098 0
16.160000 1.181410 3
16.165000 1.100935 0
16.170000 0.876554 0
16.175000 0.571184 0
16.180000 0.257733 0
16.185000 -0.007671 0
16.190000 -0.195325 0
16.195000 -0.298089 0
16.200000 -0.324504 4
16.205000 -0.293850 0
16.210000 -0.231206 0
16.215000 -0.160689 0
16.220000 -0.099047 0
16.225000 -0.053114 0
16.230000 -0.021838 0
16.235000 -0.000491 0
16.240000 0.015826 0
16.245000 0.030571 0
16.250000 0.045660 0
16.255000 0.061969 0
16.260000 0.079828 0
16.265000 0.099312 0
16.270000 0.120382 0
16.275000 0.142924 0
16.280000 0.166763 0
16.285000 0.191668 0
16.290000 0.217349 0
16.295000 0.243462 0
16.300000 0.269618 0
16.305000 0.295383 0
16.310000 0.320298 0
16.315000 0.343886 0
16.320000 0.365665 0
16.325000 0.385172 0
16.330000 0.401968 0
16.335000 0.415664 0
16.340000 0.425929 0
16.345000 0.432504 0
16.350000 0.435215 5
16.355000 0.433978 0
16.360000 0.428803 0
16.365000 0.419792 0
16.370000 0.407140 0
16.375000 0.391123 0
16.380000 0.372091 0
16.385000 0.350451 0
16.390000 0.326656 0
16.395000 0.301188 0
16.400000 0.274540 0
16.405000 0.247201 0
16.410000 0.219644 0
16.415000 0.192307 0
16.420000 0.165590 0
16.425000 0.139838 0
16.430000 0.115344 0
16.435000 0.092339 0
16.440000 0.070996 0
16.445000 0.051431 0
16.450000 0.033705 0
16.455000 0.017831 0
16.460000 0.003779 0
16.465000 -0.008513 0
16.470000 -0.019140 0
16.475000 -0.028215 0
16.480000 -0.035864 0
16.485000 -0.042224 0
16.490000 -0.047434 0
16.495000 -0.051629 0
16.500000 -0.054942 0
16.505000 -0.057496 0
16.510000 -0.059405 0
16.515000 -0.060773 0
16.520000 -0.061690 0
16.525000 -0.062237 0
16.530000 -0.062484 0
16.535000 -0.062489 0
16.540000 -0.062302 0
16.545000 -0.061964 0
16.550000 -0.061211 0
16.555000 -0.060392 0
16.560000 -0.059577 0
16.565000 -0.058766 0
16.570000 -0.057960 0
16.575000 -0.057157 0
16.580000 -0.056358 0
16.585000 -0.055563 0
16.590000 -0.054772 0
16.595000 -0.053985 0
16.600000 -0.053202 0
16.605000 -0.052423 0
16.610000 -0.051648 0
16.615000 -0.050876 0
16.620000 -0.050108 0
16.625000 -0.049343 0
16.630000 -0.048581 0
16.635000 -0.047820 0
16.640000 -0.047059 0
16.645000 -0.046294 0
16.650000 -0.045520 0
16.655000 -0.044729 0
16.660000 -0.043905 0
16.665000 -0.043029 0
16.670000 -0.042067 0
16.675000 -0.040970 0
16.680000 -0.039672 0
16.685000 -0.038075 0
16.690000 -0.036053 0
16.695000 -0.033438 0
16.700000 -0.030022 0
16.705000 -0.025553 0
16.710000 -0.019739 0
16.715000 -0.012262 0
16.720000 -0.002793 0
16.725000 0.008976 0
16.730000 0.023297 0
16.735000 0.040326 0
16.740000 0.060072 0
16.745000 0.082360 0
16.750000 0.106800 0
16.755000 0.132764 0
16.760000 0.159400 0
16.765000 0.185663 0
16.770000 0.210373 0
16.775000 0.232300 0
16.780000 0.250264 0
16.785000 0.263238 0
16.790000 0.270442 0
16.795000 0.271426 1
16.800000 0.266110 0
16.805000 0.254796 0
16.810000 0.238140 0
16.815000 0.217085 0
16.820000 0.192775 0
16.825000 0.166452 0
16.830000 0.139347 0
16.835000 0.112585 0
16.840000 0.087082 0
16.845000 0.063433 0
16.850000 0.041727 0
16.855000 0.021257 0
16.860000 0.000192 0
16.865000 -0.024486 0
16.870000 -0.056202 0
16.875000 -0.096718 0
16.880000 -0.143196 0
16.885000 -0.185978 0
16.890000 -0.208864 2
16.895000 -0.192144 0
16.900000 -0.116793 0
16.905000 0.031180 0
16.910000 0.254681 0
16.915000 0.536278 0
16.920000 0.830330 0
16.925000 1.067375 0
16.930000 1.177400 3
16.935000 1.121103 0
16.940000 0.912918 0
16.945000 0.613380 0
16.950000 0.297695 0
16.955000 0.026074 0
16.960000 -0.168468 0
16.965000 -0.276975 0
16.970000 -0.307279 4
16.975000 -0.278652 0
16.980000 -0.216684 0
16.985000 -0.146233 0
16.990000 -0.084630 0
16.995000 -0.038925 0
17.000000 -0.007998 0
17.005000 0.013030 0
17.010000 0.029144 0
17.015000 0.043808 0
17.020000 0.058907 0
17.025000 0.075286 0
17.030000 0.093250 0
17.035000 0.112863 0
17.040000 0.134073 0
17.045000 0.156755 0
17.050000 0.180722 0
17.055000 0.205728 0
17.060000 0.231465 0
17.065000 0.257573 0
17.070000 0.283640 0
17.075000 0.309218 0
17.080000 0.333829 0
17.085000 0.356980 0
17.090000 0.378182 0
17.095000 0.396962 0
17.100000 0.412884 0
17.105000 0.425562 0
17.110000 0.434678 0
17.115000 0.439992 0
17.120000 0.441354 5
17.125000 0.438709 0
17.130000 0.432100 0
17.135000 0.421669 0
17.140000 0.407645 0
17.145000 0.390344 0
17.150000 0.370148 0
17.155000 0.347498 0
17.160000 0.322872 0
17.165000 0.296771 0
17.170000 0.269703 0
17.175000 0.242162 0
17.180000 0.214619 0
17.185000 0.187505 0
17.190000 0.161202 0
17.195000 0.136038 0
17.200000 0.112279 0
17.205000 0.090132 0
17.210000 0.069740 0
17.215000 0.051190 0
17.220000 0.034516 0
17.225000 0.019703 0
17.230000 0.006700 0
17.235000 -0.004578 0
17.240000 -0.014241 0
17.245000 -0.022414 0
17.250000 -0.029236 0
17.255000 -0.034847 0
17.260000 -0.039389 0
17.265000 -0.042998 0
17.270000 -0.045804 0
17.275000 -0.047927 0
17.280000 -0.049475 0
17.285000 -0.050546 0
17.290000 -0.051224 0
17.295000 -0.051583 0
17.300000 -0.051685 0
17.305000 -0.051584 0
17.310000 -0.051323 0
17.315000 -0.050627 0
17.320000 -0.049861 0
17.325000 -0.049098 0
17.330000 -0.048340 0
17.335000 -0.047585 0
17.340000 -0.046834 0
17.345000 -0.046086 0
17.350000 -0.045343 0
17.355000 -0.044603 0
17.360000 -0.043867 0
17.365000 -0.043134 0
17.370000 -0.042405 0
17.375000 -0.041680 0
17.380000 -0.040958 0
17.385000 -0.040239 0
17.390000 -0.039524 0
17.395000 -0.038810 0
17.400000 -0.038098 0
17.405000 -0.037385 0
17.410000 -0.036667 0
17.415000 -0.035939 0
17.420000 -0.035192 0
17.425000 -0.034411 0
17.430000 -0.033571 0
17.435000 -0.032638 0
17.440000 -0.031560 0
17.445000 -0.030261 0
17.450000 -0.028638 0
17.455000 -0.026553 0
17.460000 -0.023826 0
17.465000 -0.020233 0
17.470000 -0.015506 0
17.475000 -0.009335 0
17.480000 -0.001391 0
17.485000 0.008662 0
17.490000 0.021127 0
17.495000 0.036240 0
17.500000 0.054117 0
17.505000 0.074712 0
17.510000 0.097774 0
17.515000 0.122816 0
17.520000 0.149111 0
17.525000 0.175704 0
17.530000 0.201460 0
17.535000 0.225137 0
17.540000 0.245480 0
17.545000 0.261333 0
17.550000 0.271743 0
17.555000 0.276054 1
17.560000 0.273979 0
17.565000 0.265624 0
17.570000 0.251483 0
17.575000 0.232388 0
17.580000 0.209427 0
17.585000 0.183839 0
17.590000 0.156907 0
17.595000 0.129843 0
17.600000 0.103692 0
17.605000 0.079219 0
17.610000 0.056754 0
17.615000 0.035929 0
17.620000 0.015334 0
17.625000 -0.007719 0
17.630000 -0.036761 0
17.635000 -0.074486 0
17.640000 -0.119834 0
17.645000 -0.165189 0
17.650000 -0.195725 2
17.655000 -0.191832 0
17.660000 -0.133378 0
17.665000 -0.004197 0
17.670000 0.202245 0
17.675000 0.473840 0
17.680000 0.770387 0
17.685000 1.024411 0
17.690000 1.161675 3
17.695000 1.136779 0
17.700000 0.955037 0
17.705000 0.668590 0
17.710000 0.350417 0
17.715000 0.064142 0
17.720000 -0.151668 0
17.725000 -0.283055 0
17.730000 -0.333857 4
17.735000 -0.320116 0
17.740000 -0.265533 0
17.745000 -0.195317 0
17.750000 -0.129255 0
17.755000 -0.077579 0
17.760000 -0.041552 0
17.765000 -0.017263 0
17.770000 0.000400 0
17.775000 0.015461 0
17.780000 0.030334 0
17.785000 0.046198 0
17.790000 0.063531 0
17.795000 0.082478 0
17.800000 0.103033 0
17.805000 0.125104 0
17.810000 0.148542 0
17.815000 0.173134 0
17.820000 0.198614 0
17.825000 0.224657 0
17.830000 0.250891 0
17.835000 0.276899 0
17.840000 0.302231 0
17.845000 0.326415 0
17.850000 0.348973 0
17.855000 0.369432 0
17.860000 0.387345 0
17.865000 0.402302 0
17.870000 0.413950 0
17.875000 0.422002 0
17.880000 0.426252 0
17.885000 0.426579 5
17.890000 0.422959 0
17.895000 0.415457 0
17.900000 0.404234 0
17.905000 0.389533 0
17.910000 0.371677 0
17.915000 0.351050 0
17.920000 0.328090 0
17.925000 0.303266 0
17.930000 0.277067 0
17.935000 0.249987 0
17.940000 0.222503 0
17.945000 0.195068 0
17.950000 0.168098 0
17.955000 0.141959 0
17.960000 0.116964 0
17.965000 0.093370 0
17.970000 0.071373 0
17.975000 0.051111 0
17.980000 0.032667 0
17.985000 0.016072 0
17.990000 0.001313 0
17.995000 -0.011658 0
18.000000 -0.022925 0
18.005000 -0.032593 0
18.010000 -0.040782 0
18.015000 -0.047628 0
18.020000 -0.053266 0
18.025000 -0.057834 0
18.030000 -0.061466 0
18.035000 -0.064289 0
18.040000 -0.066422 0
18.045000 -0.067970 0
18.050000 -0.069032 0
18.055000 -0.069691 0
18.060000 -0.070022 0
18.065000 -0.070087 0
18.070000 -0.069940 0
18.075000 -0.069626 0
18.080000 -0.069120 0
18.085000 -0.068262 0
18.090000 -0.067408 0
18.095000 -0.066558 0
18.100000 -0.065712 0
18.105000 -0.064871 0
18.110000 -0.064034 0
18.115000 -0.063200 0
18.120000 -0.062371 0
18.125000 -0.061547 0
18.130000 -0.060726 0
18.135000 -0.059909 0
18.140000 -0.059097 0
18.145000 -0.058288 0
18.150000 -0.057483 0
18.155000 -0.056682 0
18.160000 -0.055883 0
18.165000 -0.055087 0
18.170000 -0.054292 0
18.175000 -0.053495 0
18.180000 -0.052692 0
18.185000 -0.051876 0
18.190000 -0.051036 0
18.195000 -0.050154 0
18.200000 -0.049204 0
18.205000 -0.048145 0
18.210000 -0.046919 0
18.215000 -0.045444 0
18.220000 -0.043610 0
18.225000 -0.041269 0
18.230000 -0.038233 0
18.235000 -0.034271 0
18.240000 -0.029110 0
18.245000 -0.022445 0
18.250000 -0.013948 0
18.255000 -0.003300 0
18.260000 0.009785 0
18.265000 0.025512 0
18.270000 0.043968 0
18.275000 0.065075 0
18.280000 0.088550 0
18.285000 0.113885 0
18.290000 0.140338 0
18.295000 0.166956 0
18.300000 0.192620 0
18.305000 0.216116 0
18.310000 0.236231 0
18.315000 0.251850 0
18.320000 0.262061 0
18.325000 0.266243 1
18.330000 0.264125 0
18.335000 0.255817 0
18.340000 0.241801 0
18.345000 0.222882 0
18.350000 0.200110 0
18.355000 0.174689 0
18.360000 0.147863 0
18.365000 0.120822 0
18.370000 0.094599 0
18.375000 0.069969 0
18.380000 0.047311 0
18.385000 0.026375 0
18.390000 0.005955 0
18.395000 -0.016371 0
18.400000 -0.043979 0
18.405000 -0.079832 0
18.410000 -0.123881 0
18.415000 -0.170236 0
18.420000 -0.205966 0
18.425000 -0.212773 2
18.430000 -0.170795 0
18.435000 -0.062822 0
18.440000 0.120902 0
18.445000 0.375122 0
18.450000 0.669933 0
18.455000 0.947161 0
18.460000 1.133385 0
18.465000 1.169661 3
18.470000 1.041401 0
18.475000 0.785475 0
18.480000 0.470613 0
18.485000 0.166347 0
18.490000 -0.078985 0
18.495000 -0.242953 0
18.500000 -0.323421 0
18.505000 -0.332193 4
18.510000 -0.290485 0
18.515000 -0.223617 0
18.520000 -0.154108 0
18.525000 -0.096089 0
18.530000 -0.054037 0
18.535000 -0.025606 0
18.540000 -0.005812 0
18.545000 0.009937 0
18.550000 0.024684 0
18.555000 0.040042 0
18.560000 0.056722 0
18.565000 0.074974 0
18.570000 0.094844 0
18.575000 0.116274 0
18.580000 0.139137 0
18.585000 0.163250 0
18.590000 0.188371 0
18.595000 0.214202 0
18.600000 0.240394 0
18.605000 0.266551 0
18.610000 0.292239 0
18.615000 0.316998 0
18.620000 0.340353 0
18.625000 0.361830 0
18.630000 0.380971 0
18.635000 0.397349 0
18.640000 0.410585 0
18.645000 0.420362 0
18.650000 0.426435 0
18.655000 0.428645 5
18.660000 0.426918 0
18.665000 0.421279 0
18.670000 0.411841 0
18.675000 0.398807 0
18.680000 0.382459 0
18.685000 0.363153 0
18.690000 0.341297 0
18.695000 0.317345 0
18.700000 0.291776 0
18.705000 0.265078 0
18.710000 0.237737 0
18.715000 0.210217 0
18.720000 0.182952 0
18.725000 0.156331 0
18.730000 0.130696 0
18.735000 0.106330 0
18.740000 0.083460 0
18.745000 0.062254 0
18.750000 0.042823 0
18.755000 0.025224 0
18.760000 0.009469 0
18.765000 -0.004473 0
18.770000 -0.016667 0
18.775000 -0.027206 0
18.780000 -0.036202 0
18.785000 -0.043784 0
18.790000 -0.050084 0
18.795000 -0.055241 0
18.800000 -0.059389 0
18.805000 -0.062661 0
18.810000 -0.065176 0
18.815000 -0.067050 0
18.820000 -0.068384 0
18.825000 -0.069269 0
18.830000 -0.069784 0
18.835000 -0.069999 0
18.840000 -0.069972 0
18.845000 -0.069753 0
18.850000 -0.069383 0
18.855000 -0.068594 0
18.860000 -0.067738 0
18.865000 -0.066887 0
18.870000 -0.066040 0
18.875000 -0.065196 0
18.880000 -0.064358 0
18.885000 -0.063523 0
18.890000 -0.062692 0
18.895000 -0.061866 0
18.900000 -0.061044 0
18.905000 -0.060225 0
18.910000 -0.059411 0
18.915000 -0.058601 0
18.920000 -0.057795 0
18.925000 -0.056992 0
18.930000 -0.056193 0
18.935000 -0.055397 0
18.940000 -0.054602 0
18.945000 -0.053808 0
18.950000 -0.053010 0
18.955000 -0.052205 0
18.960000 -0.051384 0
18.965000 -0.050533 0
18.970000 -0.049634 0
18.975000 -0.048654 0
18.980000 -0.047550 0
18.985000 -0.046256 0
18.990000 -0.044683 0
18.995000 -0.042709 0
19.000000 -0.040176 0
19.005000 -0.036885 0
19.010000 -0.032591 0
19.015000 -0.027014 0
19.020000 -0.019841 0
19.025000 -0.010746 0
19.030000 0.000582 0
19.035000 0.014409 0
19.040000 0.030908 0
19.045000 0.050125 0
19.050000 0.071927 0
19.055000 0.095972 0
19.060000 0.121691 0
19.065000 0.148287 0
19.070000 0.174761 0
19.075000 0.199970 0
19.080000 0.222697 0
19.085000 0.241751 0
19.090000 0.256067 0
19.095000 0.264805 0
19.100000 0.267429 1
19.105000 0.263765 0
19.110000 0.254014 0
19.115000 0.238738 0
19.120000 0.218803 0
19.125000 0.195300 0
19.130000 0.169442 0
19.135000 0.142463 0
19.140000 0.115519 0
19.145000 0.089588 0
19.150000 0.065369 0
19.155000 0.043127 0
19.160000 0.022438 0
19.165000 0.001861 0
19.170000 -0.021259 0
19.175000 -0.050347 0
19.180000 -0.087984 0
19.185000 -0.133171 0
19.190000 -0.178693 0
19.195000 -0.210451 2
19.200000 -0.209637 0
19.205000 -0.156684 0
19.210000 -0.035440 0
19.215000 0.161768 0
19.220000 0.426047 0
19.225000 0.722682 0
19.230000 0.989769 0
19.235000 1.154385 0
19.240000 1.163485 3
19.245000 1.009763 0
19.250000 0.737642 0
19.255000 0.419877 0
19.260000 0.124612 0
19.265000 -0.104226 0
19.270000 -0.248787 0
19.275000 -0.310611 4
19.280000 -0.304489 0
19.285000 -0.253782 0
19.290000 -0.184336 0
19.295000 -0.117237 0
19.300000 -0.064018 0
19.305000 -0.026750 0
19.310000 -0.001763 0
19.315000 0.016153 0
19.320000 0.031213 0
19.325000 0.045974 0
19.330000 0.061694 0
19.335000 0.078884 0
19.340000 0.097701 0
19.345000 0.118143 0
19.350000 0.140118 0
19.355000 0.163474 0
19.360000 0.187996 0
19.365000 0.213412 0
19.370000 0.239393 0
19.375000 0.265556 0
19.380000 0.291478 0
19.385000 0.316699 0
19.390000 0.340738 0
19.395000 0.363109 0
19.400000 0.383332 0
19.405000 0.400953 0
19.410000 0.415560 0
19.415000 0.426799 0
19.420000 0.434387 0
19.425000 0.438120 5
19.430000 0.437890 0
19.435000 0.433680 0
19.440000 0.425573 0
19.445000 0.413743 0
19.450000 0.398451 0
19.455000 0.380035 0
19.460000 0.358899 0
19.465000 0.335492 0
19.470000 0.310299 0
19.475000 0.283818 0
19.480000 0.256550 0
19.485000 0.228976 0
19.490000 0.201550 0
19.495000 0.174683 0
19.500000 0.148736 0
19.505000 0.124014 0
19.510000 0.100762 0
19.515000 0.079164 0
19.520000 0.059343 0
19.525000 0.041370 0
19.530000 0.025263 0
19.535000 0.010997 0
19.540000 -0.001491 0
19.545000 -0.012291 0
19.550000 -0.021517 0
19.555000 -0.029297 0
19.560000 -0.035769 0
19.565000 -0.041073 0
19.570000 -0.045349 0
19.575000 -0.048728 0
19.580000 -0.051339 0
19.585000 -0.053296 0
19.590000 -0.054705 0
19.595000 -0.055658 0
19.600000 -0.056238 0
19.605000 -0.056514 0
19.610000 -0.056548 0
19.615000 -0.056388 0
19.620000 -0.056076 0
19.625000 -0.055353 0
19.630000 -0.054563 0
19.635000 -0.053777 0
19.640000 -0.052995 0
19.645000 -0.052217 0
19.650000 -0.051443 0
19.655000 -0.050673 0
19.660000 -0.049906 0
19.665000 -0.049143 0
19.670000 -0.048385 0
19.675000 -0.047630 0
19.680000 -0.046878 0
19.685000 -0.046131 0
19.690000 -0.045386 0
19.695000 -0.044646 0
19.700000 -0.043908 0
19.705000 -0.043172 0
19.710000 -0.042438 0
19.715000 -0.041702 0
19.720000 -0.040962 0
19.725000 -0.040212 0
19.730000 -0.039442 0
19.735000 -0.038636 0
19.740000 -0.037771 0
19.745000 -0.036811 0
19.750000 -0.035703 0
19.755000 -0.034372 0
19.760000 -0.032715 0
19.765000 -0.030594 0
19.770000 -0.027829 0
19.775000 -0.024198 0
19.780000 -0.019435 0
19.785000 -0.013234 0
19.790000 -0.005268 0
19.795000 0.004795 0
19.800000 0.017254 0
19.805000 0.032343 0
19.810000 0.050180 0
19.815000 0.070722 0
19.820000 0.093728 0
19.825000 0.118724 0
19.830000 0.144999 0
19.835000 0.171617 0
19.840000 0.197463 0
19.845000 0.221312 0
19.850000 0.241923 0
19.855000 0.258140 0
19.860000 0.269004 0
19.865000 0.273843 1
19.870000 0.272339 0
19.875000 0.264563 0
19.880000 0.250972 0
19.885000 0.232357 0
19.890000 0.209772 0
19.895000 0.184433 0
19.900000 0.157609 0
19.905000 0.130512 0
19.910000 0.104204 0
19.915000 0.079484 0
19.920000 0.056749 0
19.925000 0.035757 0
19.930000 0.015287 0
19.935000 -0.007126 0
19.940000 -0.034920 0
19.945000 -0.071073 0
19.950000 -0.115400 0
19.955000 -0.161647 0
19.960000 -0.196352 0
19.965000 -0.200709 2
19.970000 -0.154558 0
19.975000 -0.040755 0
19.980000 0.149717 0
19.985000 0.409645 0
19.990000 0.705734 0
19.995000 0.976175 0
20.000000 1.146277 0
20.005000 1.160320 3
20.010000 1.010928 0
20.015000 0.741774 0
20.020000 0.424422 0
20.025000 0.126944 0
20.030000 -0.105975 0
20.035000 -0.255495 0
20.040000 -0.322226 4
20.045000 -0.320092 0
20.050000 -0.271768 0
20.055000 -0.202880 0
20.060000 -0.134895 0
20.065000 -0.080107 0
20.070000 -0.041306 0
20.075000 -0.015221 0
20.080000 0.003295 0
20.085000 0.018580 0
20.090000 0.033343 0
20.095000 0.048953 0
20.100000 0.065984 0
20.105000 0.084623 0
20.110000 0.104882 0
20.115000 0.126683 0
20.120000 0.149883 0
20.125000 0.174280 0
20.130000 0.199614 0
20.135000 0.225568 0
20.140000 0.251774 0
20.145000 0.277820 0
20.150000 0.303256 0
20.155000 0.327612 0
20.160000 0.350405 0
20.165000 0.371160 0
20.170000 0.389420 0
20.175000 0.404769 0
20.180000 0.416842 0
20.185000 0.425342 0
20.190000 0.430051 0
20.195000 0.430836 5
20.200000 0.427660 0
20.205000 0.420579 0
20.210000 0.409744 0
20.215000 0.395389 0
20.220000 0.377832 0
20.225000 0.357453 0
20.230000 0.334687 0
20.235000 0.310003 0
20.240000 0.283893 0
20.245000 0.256852 0
20.250000 0.229364 0
20.255000 0.201886 0
20.260000 0.174839 0
20.265000 0.148597 0
20.270000 0.123480 0
20.275000 0.099750 0
20.280000 0.077608 0
20.285000 0.057198 0
20.290000 0.038606 0
20.295000 0.021869 0
20.300000 0.006975 0
20.305000 -0.006123 0
20.310000 -0.017506 0
20.315000 -0.027279 0
20.320000 -0.035564 0
20.325000 -0.042493 0
20.330000 -0.048206 0
20.335000 -0.052839 0
20.340000 -0.056529 0
20.345000 -0.059403 0
20.350000 -0.061581 0
20.355000 -0.063169 0
20.360000 -0.064266 0
20.365000 -0.064958 0
20.370000 -0.065318 0
20.375000 -0.065411 0
20.380000 -0.065291 0
20.385000 -0.065002 0
20.390000 -0.064521 0
20.395000 -0.063685 0
20.400000 -0.062854 0
20.405000 -0.062027 0
20.410000 -0.061204 0
20.415000 -0.060385 0
20.420000 -0.059570 0
20.425000 -0.058759 0
20.430000 -0.057952 0
20.435000 -0.057149 0
20.440000 -0.056351 0
20.445000 -0.055556 0
20.450000 -0.054765 0
20.455000 -0.053978 0
20.460000 -0.053194 0
20.465000 -0.052414 0
20.470000 -0.051637 0
20.475000 -0.050862 0
20.480000 -0.050088 0
20.485000 -0.049311 0
20.490000 -0.048529 0
20.495000 -0.047732 0
20.500000 -0.046911 0
20.505000 -0.046047 0
20.510000 -0.045112 0
20.515000 -0.044064 0
20.520000 -0.042845 0
20.525000 -0.041370 0
20.530000 -0.039525 0
20.535000 -0.037160 0
20.540000 -0.034081 0
20.545000 -0.030055 0
20.550000 -0.024803 0
20.555000 -0.018015 0
20.560000 -0.009362 0
20.565000 0.001476 0
20.570000 0.014780 0
20.575000 0.030749 0
20.580000 0.049455 0
20.585000 0.070801 0
20.590000 0.094481 0
20.595000 0.119958 0
20.600000 0.146463 0
20.605000 0.173016 0
20.610000 0.198477 0
20.615000 0.221621 0
20.620000 0.241232 0
20.625000 0.256210 0
20.630000 0.265669 0
20.635000 0.269026 1
20.640000 0.266059 0
20.645000 0.256928 0
20.650000 0.242166 0
20.655000 0.222620 0
20.660000 0.199377 0
20.665000 0.173657 0
20.670000 0.146712 0
20.675000 0.119720 0
20.680000 0.093686 0
20.685000 0.069341 0
20.690000 0.046982 0
20.695000 0.026228 0
20.700000 0.005675 0
20.705000 -0.017314 0
20.710000 -0.046197 0
20.715000 -0.083640 0
20.720000 -0.128750 0
20.725000 -0.174350 0
20.730000 -0.206250 2
20.735000 -0.205441 0
20.740000 -0.152130 0
20.745000 -0.030009 0
20.750000 0.168526 0
20.755000 0.434075 0
20.760000 0.730809 0
20.765000 0.995448 0
20.770000 1.154382 0
20.775000 1.155517 3
20.780000 0.995373 0
20.785000 0.720310 0
20.790000 0.402336 0
20.795000 0.108052 0
20.800000 -0.119846 0
20.805000 -0.264070 0
20.810000 -0.326197 4
20.815000 -0.320738 0
20.820000 -0.270611 0
20.825000 -0.201287 0
20.830000 -0.133747 0
20.835000 -0.079718 0
20.840000 -0.041592 0
20.845000 -0.015937 0
20.850000 0.002378 0
20.855000 0.017609 0
20.860000 0.032392 0
20.865000 0.048053 0
20.870000 0.065141 0
20.875000 0.083835 0
20.880000 0.104145 0
20.885000 0.125989 0
20.890000 0.149226 0
20.895000 0.173651 0
20.900000 0.199005 0
20.905000 0.224971 0
20.910000 0.251183 0
20.915000 0.277229 0
20.920000 0.302662 0
20.925000 0.327012 0
20.930000 0.349800 0
20.935000 0.370552 0
20.940000 0.388814 0
20.945000 0.404172 0
20.950000 0.416262 0
20.955000 0.424789 0
20.960000 0.429534 0
20.965000 0.430365 5
20.970000 0.427244 0
20.975000 0.420225 0
20.980000 0.409457 0
20.985000 0.395173 0
20.990000 0.377686 0
20.995000 0.357375 0
21.000000 0.334669 0
21.005000 0.310038 0
21.010000 0.283969 0
21.015000 0.256956 0
21.020000 0.229479 0
21.025000 0.201998 0
21.030000 0.174931 0
21.035000 0.148653 0
21.040000 0.123484 0
21.045000 0.099689 0
21.050000 0.077471 0
21.055000 0.056974 0
21.060000 0.038289 0
21.065000 0.021454 0
21.070000 0.006460 0
21.075000 -0.006739 0
21.080000 -0.018221 0
21.085000 -0.028088 0
21.090000 -0.036463 0
21.095000 -0.043475 0
21.100000 -0.049264 0
21.105000 -0.053966 0
21.110000 -0.057717 0
21.115000 -0.060644 0
21.120000 -0.062866 0
21.125000 -0.064493 0
21.130000 -0.065622 0
21.135000 -0.066339 0
21.140000 -0.066719 0
21.145000 -0.066827 0
21.150000 -0.066718 0
21.155000 -0.066437 0
21.160000 -0.065958 0
21.165000 -0.065116 0
21.170000 -0.064277 0
21.175000 -0.063443 0
21.180000 -0.062613 0
21.185000 -0.061787 0
21.190000 -0.060965 0
21.195000 -0.060147 0
21.200000 -0.059333 0
21.205000 -0.058524 0
21.210000 -0.057718 0
21.215000 -0.056916 0
21.220000 -0.056119 0
21.225000 -0.055325 0
21.230000 -0.054535 0
21.235000 -0.053748 0
21.240000 -0.052965 0
21.245000 -0.052183 0
21.250000 -0.051403 0
21.255000 -0.050621 0
21.260000 -0.049834 0
21.265000 -0.049034 0
21.270000 -0.048212 0
21.275000 -0.047349 0
21.280000 -0.046422 0
21.285000 -0.045389 0
21.290000 -0.044196 0
21.295000 -0.042764 0
21.300000 -0.040983 0
21.305000 -0.038710 0
21.310000 -0.035761 0
21.315000 -0.031909 0
21.320000 -0.026884 0
21.325000 -0.020382 0
21.330000 -0.012078 0
21.335000 -0.001648 0
21.340000 0.011196 0
21.345000 0.026671 0
21.350000 0.044875 0
21.355000 0.065745 0
21.360000 0.089018 0
21.365000 0.114206 0
21.370000 0.140585 0
21.375000 0.167218 0
21.380000 0.192996 0
21.385000 0.216709 0
21.390000 0.237138 0
21.395000 0.253155 0
21.400000 0.263826 0
21.405000 0.268503 1
21.410000 0.266884 0
21.415000 0.259050 0
21.420000 0.245452 0
21.425000 0.226874 0
21.430000 0.204352 0
21.435000 0.179081 0
21.440000 0.152309 0
21.445000 0.125233 0
21.450000 0.098904 0
21.455000 0.074122 0
21.460000 0.051303 0
21.465000 0.030255 0
21.470000 0.009853 0
21.475000 -0.012238 0
21.480000 -0.039355 0
21.485000 -0.074569 0
21.490000 -0.118155 0
21.495000 -0.164705 0
21.500000 -0.201753 0
21.505000 -0.211252 2
21.510000 -0.173288 0
21.515000 -0.070308 0
21.520000 0.108168 0
21.525000 0.358218 0
21.530000 0.651821 0
21.535000 0.932457 0
21.540000 1.126845 0
21.545000 1.173977 3
21.550000 1.055057 0
21.555000 0.803829 0
21.560000 0.489812 0
21.565000 0.184672 0
21.570000 -0.061439 0
21.575000 -0.225260 0
21.580000 -0.304618 0
21.585000 -0.311781 4
21.590000 -0.268681 0
21.595000 -0.201280 0
21.600000 -0.132304 0
21.605000 -0.075573 0
21.610000 -0.035001 0
21.615000 -0.007777 0
21.620000 0.011267 0
21.625000 0.026679 0
21.630000 0.041370 0
21.635000 0.056830 0
21.640000 0.073691 0
21.645000 0.092165 0
21.650000 0.112273 0
21.655000 0.133941 0
21.660000 0.157028 0
21.665000 0.181333 0
21.670000 0.206594 0
21.675000 0.232493 0
21.680000 0.258659 0
21.685000 0.284675 0
21.690000 0.310088 0
21.695000 0.334418 0
21.700000 0.357179 0
21.705000 0.377887 0
21.710000 0.396081 0
21.715000 0.411340 0
21.720000 0.423294 0
21.725000 0.431645 0
21.730000 0.436173 0
21.735000 0.436749 5
21.740000 0.433338 0
21.745000 0.426003 0
21.750000 0.414900 0
21.755000 0.400274 0
21.760000 0.382451 0
21.765000 0.361821 0
21.770000 0.338827 0
21.775000 0.313949 0
21.780000 0.287686 0
21.785000 0.260538 0
21.790000 0.232993 0
21.795000 0.205512 0
21.800000 0.178515 0
21.805000 0.152374 0
21.810000 0.127405 0
21.815000 0.103866 0
21.820000 0.081950 0
21.825000 0.061795 0
21.830000 0.043480 0
21.835000 0.027032 0
21.840000 0.012434 0
21.845000 -0.000371 0
21.850000 -0.011468 0
21.855000 -0.020968 0
21.860000 -0.028997 0
21.865000 -0.035691 0
21.870000 -0.041191 0
21.875000 -0.045637 0
21.880000 -0.049163 0
21.885000 -0.051897 0
21.890000 -0.053958 0
21.895000 -0.055452 0
21.900000 -0.056475 0
21.905000 -0.057110 0
21.910000 -0.057431 0
21.915000 -0.057498 0
21.920000 -0.057363 0
21.925000 -0.057071 0
21.930000 -0.056346 0
21.935000 -0.055551 0
21.940000 -0.054760 0
21.945000 -0.053973 0
21.950000 -0.053190 0
21.955000 -0.052411 0
21.960000 -0.051636 0
21.965000 -0.050865 0
21.970000 -0.050098 0
21.975000 -0.049334 0
21.980000 -0.048574 0
21.985000 -0.047818 0
21.990000 -0.047066 0
21.995000 -0.046317 0
22.000000 -0.045572 0
22.005000 -0.044829 0
22.010000 -0.044089 0
22.015000 -0.043351 0
22.020000 -0.042612 0
22.025000 -0.041869 0
22.030000 -0.041117 0
22.035000 -0.040347 0
22.040000 -0.039544 0
22.045000 -0.038686 0
22.050000 -0.037740 0
22.055000 -0.036655 0
22.060000 -0.035361 0
22.065000 -0.033758 0
22.070000 -0.031714 0
22.075000 -0.029056 0
22.080000 -0.025568 0
22.085000 -0.020989 0
22.090000 -0.015020 0
22.095000 -0.007333 0
22.100000 0.002403 0
22.105000 0.014497 0
22.110000 0.029194 0
22.115000 0.046632 0
22.120000 0.066796 0
22.125000 0.089474 0
22.130000 0.114227 0
22.135000 0.140375 0
22.140000 0.167013 0
22.145000 0.193046 0
22.150000 0.217256 0
22.155000 0.238397 0
22.160000 0.255293 0
22.165000 0.266951 0
22.170000 0.272651 1
22.175000 0.272026 0
22.180000 0.265091 0
22.185000 0.252254 0
22.190000 0.234264 0
22.195000 0.212148 0
22.200000 0.187108 0
22.205000 0.160413 0
22.210000 0.133291 0
22.215000 0.106831 0
22.220000 0.081874 0
22.225000 0.058882 0
22.230000 0.037712 0
22.235000 0.017290 0
22.240000 -0.004693 0
22.245000 -0.031604 0
22.250000 -0.066612 0
22.255000 -0.110105 0
22.260000 -0.156703 0
22.265000 -0.193784 0
22.270000 -0.202988 2
22.275000 -0.164053 0
22.280000 -0.059205 0
22.285000 0.121940 0
22.290000 0.374670 0
22.295000 0.669187 0
22.300000 0.946603 0
22.305000 1.132186 0
22.310000 1.166091 3
22.315000 1.034415 0
22.320000 0.776177 0
22.325000 0.460775 0
22.330000 0.157673 0
22.335000 -0.085342 0
22.340000 -0.246482 0
22.345000 -0.324149 0
22.350000 -0.330605 4
22.355000 -0.287418 0
22.360000 -0.220039 0
22.365000 -0.150817 0
22.370000 -0.093507 0
22.375000 -0.052206 0
22.380000 -0.024337 0
22.385000 -0.004858 0
22.390000 0.010772 0
22.395000 0.025522 0
22.400000 0.040945 0
22.405000 0.057717 0
22.410000 0.076074 0
22.415000 0.096049 0
22.420000 0.117582 0
22.425000 0.140541 0
22.430000 0.164736 0
22.435000 0.189923 0
22.440000 0.215796 0
22.445000 0.242003 0
22.450000 0.268141 0
22.455000 0.293772 0
22.460000 0.318433 0
22.465000 0.341646 0
22.470000 0.362936 0
22.475000 0.381844 0
22.480000 0.397946 0
22.485000 0.410867 0
22.490000 0.420293 0
22.495000 0.425989 0
22.500000 0.427800 5
22.505000 0.425666 0
22.510000 0.419617 0
22.515000 0.409780 0
22.520000 0.396365 0
22.525000 0.379667 0
22.530000 0.360048 0
22.535000 0.337924 0
22.540000 0.313756 0
22.545000 0.288025 0
22.550000 0.261224 0
22.555000 0.233837 0
22.560000 0.206329 0
22.565000 0.179128 0
22.570000 0.152622 0
22.575000 0.127143 0
22.580000 0.102971 0
22.585000 0.080325 0
22.590000 0.059365 0
22.595000 0.040195 0
22.600000 0.022865 0
22.605000 0.007381 0
22.610000 -0.006294 0
22.615000 -0.018230 0
22.620000 -0.028523 0
22.625000 -0.037291 0
22.630000 -0.044660 0
22.635000 -0.050768 0
22.640000 -0.055752 0
22.645000 -0.059748 0
22.650000 -0.062886 0
22.655000 -0.065286 0
22.660000 -0.067061 0
22.665000 -0.068312 0
22.670000 -0.069127 0
22.675000 -0.069586 0
22.680000 -0.069754 0
22.685000 -0.069690 0
22.690000 -0.069442 0
22.695000 -0.068981 0
22.700000 -0.068123 0
22.705000 -0.067269 0
22.710000 -0.066420 0
22.715000 -0.065575 0
22.720000 -0.064735 0
22.725000 -0.063898 0
22.730000 -0.063066 0
22.735000 -0.062237 0
22.740000 -0.061413 0
22.745000 -0.060593 0
22.750000 -0.059777 0
22.755000 -0.058965 0
22.760000 -0.058157 0
22.765000 -0.057353 0
22.770000 -0.056553 0
22.775000 -0.055755 0
22.780000 -0.054961 0
22.785000 -0.054168 0
22.790000 -0.053374 0
22.795000 -0.052577 0
22.800000 -0.051770 0
22.805000 -0.050944 0
22.810000 -0.050086 0
22.815000 -0.049171 0
22.820000 -0.048168 0
22.825000 -0.047025 0
22.830000 -0.045673 0
22.835000 -0.044015 0
22.840000 -0.041919 0
22.845000 -0.039216 0
22.850000 -0.035695 0
22.855000 -0.031102 0
22.860000 -0.025144 0
22.865000 -0.017501 0
22.870000 -0.007848 0
22.875000 0.004119 0
22.880000 0.018647 0
22.885000 0.035881 0
22.890000 0.055821 0
22.895000 0.078280 0
22.900000 0.102855 0
22.905000 0.128907 0
22.910000 0.155578 0
22.915000 0.181817 0
22.920000 0.206445 0
22.925000 0.228238 0
22.930000 0.246026 0
22.935000 0.258794 0
22.940000 0.265781 0
22.945000 0.266550 1
22.950000 0.261038 0
22.955000 0.249559 0
22.960000 0.232775 0
22.965000 0.211633 0
22.970000 0.187278 0
22.975000 0.160946 0
22.980000 0.133862 0
22.985000 0.107141 0
22.990000 0.081691 0
22.995000 0.058098 0
23.000000 0.036439 0
23.005000 0.016000 0
23.010000 -0.005055 0
23.015000 -0.029740 0
23.020000 -0.061462 0
23.025000 -0.101965 0
23.030000 -0.148418 0
23.035000 -0.191208 0
23.040000 -0.214224 2
23.045000 -0.197849 0
23.050000 -0.123123 0
23.055000 0.023958 0
23.060000 0.246473 0
23.065000 0.527429 0
23.070000 0.821866 0
23.075000 1.060908 0
23.080000 1.174516 3
23.085000 1.124019 0
23.090000 0.922375 0
23.095000 0.626594 0
23.100000 0.309567 0
23.105000 0.031502 0
23.110000 -0.173004 0
23.115000 -0.292943 0
23.120000 -0.334051 4
23.125000 -0.313572 0
23.130000 -0.255658 0
23.135000 -0.185059 0
23.140000 -0.120405 0
23.145000 -0.070667 0
23.150000 -0.036261 0
23.155000 -0.012978 0
23.160000 0.004220 0
23.165000 0.019161 0
23.170000 0.034087 0
23.175000 0.050076 0
23.180000 0.067553 0
23.185000 0.086645 0
23.190000 0.107333 0
23.195000 0.129523 0
23.200000 0.153059 0
23.205000 0.177725 0
23.210000 0.203250 0
23.215000 0.229310 0
23.220000 0.255528 0
23.225000 0.281489 0
23.230000 0.306742 0
23.235000 0.330818 0
23.240000 0.353240 0
23.245000 0.373540 0
23.250000 0.391275 0
23.255000 0.406041 0
23.260000 0.417489 0
23.265000 0.425339 0
23.270000 0.429389 0
23.275000 0.429525 5
23.280000 0.425725 0
23.285000 0.418060 0
23.290000 0.406691 0
23.295000 0.391866 0
23.300000 0.373905 0
23.305000 0.353194 0
23.310000 0.330167 0
23.315000 0.305295 0
23.320000 0.279062 0
23.325000 0.251959 0
23.330000 0.224461 0
23.335000 0.197018 0
23.340000 0.170042 0
23.345000 0.143897 0
23.350000 0.118895 0
23.355000 0.095291 0
23.360000 0.073279 0
23.365000 0.052996 0
23.370000 0.034526 0
23.375000 0.017901 0
23.380000 0.003108 0
23.385000 -0.009903 0
23.390000 -0.021211 0
23.395000 -0.030922 0
23.400000 -0.039156 0
23.405000 -0.046045 0
23.410000 -0.051727 0
23.415000 -0.056336 0
23.420000 -0.060008 0
23.425000 -0.062868 0
23.430000 -0.065035 0
23.435000 -0.066615 0
23.440000 -0.067704 0
23.445000 -0.068389 0
23.450000 -0.068742 0
23.455000 -0.068827 0
23.460000 -0.068698 0
23.465000 -0.068400 0
23.470000 -0.067907 0
23.475000 -0.067055 0
23.480000 -0.066206 0
23.485000 -0.065363 0
23.490000 -0.064523 0
23.495000 -0.063687 0
23.500000 -0.062856 0
23.505000 -0.062029 0
23.510000 -0.061206 0
23.515000 -0.060387 0
23.520000 -0.059572 0
23.525000 -0.058761 0
23.530000 -0.057954 0
23.535000 -0.057151 0
23.540000 -0.056352 0
23.545000 -0.055556 0
23.550000 -0.054763 0
23.555000 -0.053973 0
23.560000 -0.053184 0
23.565000 -0.052393 0
23.570000 -0.051597 0
23.575000 -0.050790 0
23.580000 -0.049960 0
23.585000 -0.049091 0
23.590000 -0.048157 0
23.595000 -0.047122 0
23.600000 -0.045929 0
23.605000 -0.044502 0
23.610000 -0.042734 0
23.615000 -0.040485 0
23.620000 -0.037573 0
23.625000 -0.033777 0
23.630000 -0.028829 0
23.635000 -0.022431 0
23.640000 -0.014261 0
23.645000 -0.003995 0
23.650000 0.008657 0
23.655000 0.023916 0
23.660000 0.041892 0
23.665000 0.062539 0
23.670000 0.085613 0
23.675000 0.110650 0
23.680000 0.136954 0
23.685000 0.163614 0
23.690000 0.189544 0
23.695000 0.213548 0
23.700000 0.234410 0
23.705000 0.250997 0
23.710000 0.262352 0
23.715000 0.267793 1
23.720000 0.266978 0
23.725000 0.259936 0
23.730000 0.247071 0
23.735000 0.229121 0
23.740000 0.207085 0
23.745000 0.182136 0
23.750000 0.155510 0
23.755000 0.128413 0
23.760000 0.101914 0
23.765000 0.076854 0
23.770000 0.053719 0
23.775000 0.032434 0
23.780000 0.012059 0
23.785000 -0.009518 0
23.790000 -0.035496 0
23.795000 -0.069123 0
23.800000 -0.111388 0
23.805000 -0.158115 0
23.810000 -0.198196 0
23.815000 -0.214507 2
23.820000 -0.187292 0
23.825000 -0.098333 0
23.830000 0.064644 0
23.835000 0.301389 0
23.840000 0.589685 0
23.845000 0.878984 0
23.850000 1.098046 0
23.855000 1.180768 3
23.860000 1.096916 0
23.865000 0.868630 0
23.870000 0.561327 0
23.875000 0.249475 0
23.880000 -0.010870 0
23.885000 -0.191144 0
23.890000 -0.285661 0
23.895000 -0.304497 4
23.900000 -0.268404 0
23.905000 -0.203406 0
23.910000 -0.133517 0
23.915000 -0.074390 0
23.920000 -0.031442 0
23.925000 -0.002590 0
23.930000 0.017273 0
23.935000 0.032936 0
23.940000 0.047571 0
23.945000 0.062845 0
23.950000 0.079478 0
23.955000 0.097721 0
23.960000 0.117610 0
23.965000 0.139080 0
23.970000 0.161995 0
23.975000 0.186158 0
23.980000 0.211309 0
23.985000 0.237133 0
23.990000 0.263259 0
23.995000 0.289269 0
24.000000 0.314706 0
24.005000 0.339089 0
24.010000 0.361925 0
24.015000 0.382725 0
24.020000 0.401022 0
24.025000 0.416386 0
24.030000 0.428442 0
24.035000 0.436886 0
24.040000 0.441493 0
24.045000 0.442128 5
24.050000 0.438756 0
24.055000 0.431438 0
24.060000 0.420330 0
24.065000 0.405680 0
24.070000 0.387815 0
24.075000 0.367132 0
24.080000 0.344078 0
24.085000 0.319138 0
24.090000 0.292817 0
24.095000 0.265620 0
24.100000 0.238040 0
24.105000 0.210540 0
24.110000 0.183543 0
24.115000 0.157424 0
24.120000 0.132499 0
24.125000 0.109023 0
24.130000 0.087191 0
24.135000 0.067135 0
24.140000 0.048932 0
24.145000 0.032606 0
24.150000 0.018135 0
24.155000 0.005461 0
24.160000 -0.005506 0
24.165000 -0.014881 0
24.170000 -0.022791 0
24.175000 -0.029375 0
24.180000 -0.034776 0
24.185000 -0.039133 0
24.190000 -0.042583 0
24.195000 -0.045254 0
24.200000 -0.047262 0
24.205000 -0.048716 0
24.210000 -0.049709 0
24.215000 -0.050325 0
24.220000 -0.050634 0
24.225000 -0.050698 0
24.230000 -0.050567 0
24.235000 -0.050284 0
24.240000 -0.049589 0
24.245000 -0.048828 0
24.250000 -0.048071 0
24.255000 -0.047317 0
24.260000 -0.046567 0
24.265000 -0.045821 0
24.270000 -0.045079 0
24.275000 -0.044341 0
24.280000 -0.043606 0
24.285000 -0.042875 0
24.290000 -0.042147 0
24.295000 -0.041423 0
24.300000 -0.040702 0
24.305000 -0.039985 0
24.310000 -0.039271 0
24.315000 -0.038560 0
24.320000 -0.037851 0
24.325000 -0.037143 0
24.330000 -0.036433 0
24.335000 -0.035718 0
24.340000 -0.034992 0
24.345000 -0.034243 0
24.350000 -0.033456 0
24.355000 -0.032604 0
24.360000 -0.031650 0
24.365000 -0.030536 0
24.370000 -0.029184 0
24.375000 -0.027481 0
24.380000 -0.025283 0
24.385000 -0.022399 0
24.390000 -0.018596 0
24.395000 -0.013597 0
24.400000 -0.007086 0
24.405000 0.001271 0
24.410000 0.011805 0
24.415000 0.024810 0
24.420000 0.040499 0
24.425000 0.058959 0
24.430000 0.080103 0
24.435000 0.103632 0
24.440000 0.129008 0
24.445000 0.155451 0
24.450000 0.181962 0
24.455000 0.207375 0
24.460000 0.230436 0
24.465000 0.249902 0
24.470000 0.264649 0
24.475000 0.273781 0
24.480000 0.276717 1
24.485000 0.273253 0
24.490000 0.263582 0
24.495000 0.248278 0
24.500000 0.228237 0
24.505000 0.204589 0
24.510000 0.178595 0
24.515000 0.151531 0
24.520000 0.124583 0
24.525000 0.098746 0
24.530000 0.074704 0
24.535000 0.052661 0
24.540000 0.032049 0
24.545000 0.011180 0
24.550000 -0.012895 0
24.555000 -0.043724 0
24.560000 -0.083443 0
24.565000 -0.129723 0
24.570000 -0.173277 0
24.575000 -0.197882 2
24.580000 -0.183402 0
24.585000 -0.110185 0
24.590000 0.036366 0
24.595000 0.259488 0
24.600000 0.541372 0
24.605000 0.834897 0
24.610000 1.068466 0
24.615000 1.170893 3
24.620000 1.106287 0
24.625000 0.893204 0
24.630000 0.592183 0
24.635000 0.276852 0
24.640000 0.005760 0
24.645000 -0.188981 0
24.650000 -0.298558 0
24.655000 -0.330465 4
24.660000 -0.303361 0
24.665000 -0.242210 0
24.670000 -0.171559 0
24.675000 -0.108920 0
24.680000 -0.061843 0
24.685000 -0.029692 0
24.690000 -0.007834 0
24.695000 0.008708 0
24.700000 0.023511 0
24.705000 0.038580 0
24.710000 0.054842 0
24.715000 0.072646 0
24.720000 0.092080 0
24.725000 0.113107 0
24.730000 0.135616 0
24.735000 0.159435 0
24.740000 0.184332 0
24.745000 0.210020 0
24.750000 0.236156 0
24.755000 0.262349 0
24.760000 0.288166 0
24.765000 0.313146 0
24.770000 0.336809 0
24.775000 0.358672 0
24.780000 0.378268 0
24.785000 0.395158 0
24.790000 0.408947 0
24.795000 0.419302 0
24.800000 0.425962 0
24.805000 0.428751 5
24.810000 0.427583 0
24.815000 0.422467 0
24.820000 0.413507 0
24.825000 0.400895 0
24.830000 0.384910 0
24.835000 0.365903 0
24.840000 0.344283 0
24.845000 0.320506 0
24.850000 0.295054 0
24.855000 0.268425 0
24.860000 0.241109 0
24.865000 0.213580 0
24.870000 0.186280 0
24.875000 0.159606 0
24.880000 0.133906 0
24.885000 0.109473 0
24.890000 0.086537 0
24.895000 0.065271 0
24.900000 0.045789 0
24.905000 0.028151 0
24.910000 0.012368 0
24.915000 -0.001590 0
24.920000 -0.013788 0
24.925000 -0.024322 0
24.930000 -0.033305 0
24.935000 -0.040867 0
24.940000 -0.047143 0
24.945000 -0.052273 0
24.950000 -0.056395 0
24.955000 -0.059638 0
24.960000 -0.062129 0
24.965000 -0.063980 0
24.970000 -0.065293 0
24.975000 -0.066162 0
24.980000 -0.066664 0
24.985000 -0.066870 0
24.990000 -0.066838 0
24.995000 -0.066616 0
25.000000 -0.066247 0
25.005000 -0.065471 0
25.010000 -0.064631 0
25.015000 -0.063795 0
25.020000 -0.062963 0
25.025000 -0.062135 0
25.030000 -0.061312 0
25.035000 -0.060492 0
25.040000 -0.059677 0
25.045000 -0.058865 0
25.050000 -0.058058 0
25.055000 -0.057255 0
25.060000 -0.056455 0
25.065000 -0.055660 0
25.070000 -0.054868 0
25.075000 -0.054080 0
25.080000 -0.053295 0
25.085000 -0.052513 0
25.090000 -0.051732 0
25.095000 -0.050950 0
25.100000 -0.050165 0
25.105000 -0.049370 0
25.110000 -0.048555 0
25.115000 -0.047707 0
25.120000 -0.046802 0
25.125000 -0.045806 0
25.130000 -0.044667 0
25.135000 -0.043314 0
25.140000 -0.041646 0
25.145000 -0.039531 0
25.150000 -0.036795 0
25.155000 -0.033221 0
25.160000 -0.028550 0
25.165000 -0.022485 0
25.170000 -0.014701 0
25.175000 -0.004872 0
25.180000 0.007308 0
25.185000 0.022079 0
25.190000 0.039575 0
25.195000 0.059780 0
25.200000 0.082485 0
25.205000 0.107254 0
25.210000 0.133421 0
25.215000 0.160092 0
25.220000 0.186188 0
25.225000 0.210508 0
25.230000 0.231818 0
25.235000 0.248954 0
25.240000 0.260921 0
25.245000 0.266994 1
25.250000 0.266787 0
25.255000 0.260296 0
25.260000 0.247894 0
25.265000 0.230304 0
25.270000 0.208520 0
25.275000 0.183720 0
25.280000 0.157158 0
25.285000 0.130056 0
25.290000 0.103509 0
25.295000 0.078380 0
25.300000 0.055179 0
25.305000 0.033850 0
25.310000 0.013467 0
25.315000 -0.008086 0
25.320000 -0.034040 0
25.325000 -0.067686 0
25.330000 -0.110017 0
25.335000 -0.156748 0
25.340000 -0.196528 0
25.345000 -0.211919 2
25.350000 -0.182900 0
25.355000 -0.091146 0
25.360000 0.075410 0
25.365000 0.315685 0
25.370000 0.605721 0
25.375000 0.892665 0
25.380000 1.103760 0
25.385000 1.173789 3
25.390000 1.077761 0
25.395000 0.843774 0
25.400000 0.535445 0
25.405000 0.223593 0
25.410000 -0.038410 0
25.415000 -0.222803 0
25.420000 -0.323320 0
25.425000 -0.348644 4
25.430000 -0.317740 0
25.435000 -0.255136 0
25.440000 -0.184450 0
25.445000 -0.122243 0
25.450000 -0.075488 0
25.455000 -0.043405 0
25.460000 -0.021457 0
25.465000 -0.004796 0
25.470000 0.010087 0
25.475000 0.025180 0
25.480000 0.041420 0
25.485000 0.059167 0
25.490000 0.078518 0
25.495000 0.099445 0
25.500000 0.121847 0
25.505000 0.145563 0
25.510000 0.170375 0
25.515000 0.196011 0
25.520000 0.222145 0
25.525000 0.248405 0
25.530000 0.274377 0
25.535000 0.299617 0
25.540000 0.323660 0
25.545000 0.346038 0
25.550000 0.366290 0
25.555000 0.383982 0
25.560000 0.398715 0
25.565000 0.410150 0
25.570000 0.418010 0
25.575000 0.422098 0
25.580000 0.422301 5
25.585000 0.418597 0
25.590000 0.411054 0
25.595000 0.399831 0
25.600000 0.385167 0
25.605000 0.367377 0
25.610000 0.346838 0
25.615000 0.323977 0
25.620000 0.299253 0
25.625000 0.273145 0
25.630000 0.246136 0
25.635000 0.218696 0
25.640000 0.191271 0
25.645000 0.164270 0
25.650000 0.138058 0
25.655000 0.112949 0
25.660000 0.089198 0
25.665000 0.067007 0
25.670000 0.046517 0
25.675000 0.027818 0
25.680000 0.010948 0
25.685000 -0.004098 0
25.690000 -0.017364 0
25.695000 -0.028924 0
25.700000 -0.038878 0
25.705000 -0.047343 0
25.710000 -0.054445 0
25.715000 -0.060321 0
25.720000 -0.065104 0
25.725000 -0.068928 0
25.730000 -0.071918 0
25.735000 -0.074193 0
25.740000 -0.075861 0
25.745000 -0.077019 0
25.750000 -0.077755 0
25.755000 -0.078144 0
25.760000 -0.078251 0
25.765000 -0.078131 0
25.770000 -0.077831 0
25.775000 -0.077323 0
25.780000 -0.076423 0
25.785000 -0.075529 0
25.790000 -0.074638 0
25.795000 -0.073752 0
25.800000 -0.072871 0
25.805000 -0.071993 0
25.810000 -0.071121 0
25.815000 -0.070252 0
25.820000 -0.069388 0
25.825000 -0.068528 0
25.830000 -0.067673 0
25.835000 -0.066821 0
25.840000 -0.065974 0
25.845000 -0.065131 0
25.850000 -0.064292 0
25.855000 -0.063456 0
25.860000 -0.062623 0
25.865000 -0.061793 0
25.870000 -0.060962 0
25.875000 -0.060128 0
25.880000 -0.059286 0
25.885000 -0.058427 0
25.890000 -0.057539 0
25.895000 -0.056601 0
25.900000 -0.055581 0
25.905000 -0.054435 0
25.910000 -0.053098 0
25.915000 -0.051481 0
25.920000 -0.049462 0
25.925000 -0.046886 0
25.930000 -0.043554 0
25.935000 -0.039227 0
25.940000 -0.033627 0
25.945000 -0.026446 0
25.950000 -0.017363 0
25.955000 -0.006071 0
25.960000 0.007692 0
25.965000 0.024105 0
25.970000 0.043215 0
25.975000 0.064903 0
25.980000 0.088845 0
25.985000 0.114494 0
25.990000 0.141080 0
25.995000 0.167635 0
26.000000 0.193038 0
26.005000 0.216095 0
26.010000 0.235626 0
26.015000 0.250561 0
26.020000 0.260043 0
26.025000 0.263505 1
26.030000 0.260724 0
26.035000 0.251850 0
26.040000 0.237387 0
26.045000 0.218149 0
26.050000 0.195180 0
26.055000 0.169664 0
26.060000 0.142822 0
26.065000 0.115813 0
26.070000 0.089641 0
26.075000 0.065061 0
26.080000 0.042435 0
26.085000 0.021518 0
26.090000 0.001133 0
26.095000 -0.021070 0
26.100000 -0.048389 0
26.105000 -0.083784 0
26.110000 -0.127426 0
26.115000 -0.173935 0
26.120000 -0.211092 0
26.125000 -0.221263 2
26.130000 -0.184950 0
26.135000 -0.084846 0
26.140000 0.089716 0
26.145000 0.335874 0
26.150000 0.627939 0
26.155000 0.912476 0
26.160000 1.118178 0
26.165000 1.182704 3
26.170000 1.081645 0
26.175000 0.841999 0
26.180000 0.531126 0
26.185000 0.222064 0
26.190000 -0.032015 0
26.195000 -0.205080 0
26.200000 -0.293049 0
26.205000 -0.306924 4
26.210000 -0.267888 0
26.215000 -0.201863 0
26.220000 -0.132273 0
26.225000 -0.074012 0
26.230000 -0.031907 0
26.235000 -0.003616 0
26.240000 0.015974 0
26.245000 0.031553 0
26.250000 0.046198 0
26.255000 0.061517 0
26.260000 0.078203 0
26.265000 0.096493 0
26.270000 0.116422 0
26.275000 0.137922 0
26.280000 0.160859 0
26.285000 0.185036 0
26.290000 0.210195 0
26.295000 0.236024 0
26.300000 0.262154 0
26.305000 0.288172 0
26.310000 0.313624 0
26.315000 0.338035 0
26.320000 0.360916 0
26.325000 0.381780 0
26.330000 0.400165 0
26.335000 0.415643 0
26.340000 0.427840 0
26.345000 0.436451 0
26.350000 0.441250 0
26.355000 0.442099 5
26.360000 0.438956 0
26.365000 0.431878 0
26.370000 0.421014 0
26.375000 0.406603 0
26.380000 0.388966 0
26.385000 0.368491 0
26.390000 0.345618 0
26.395000 0.320825 0
26.400000 0.294613 0
26.405000 0.267482 0
26.410000 0.239922 0
26.415000 0.212398 0
26.420000 0.185334 0
26.425000 0.159105 0
26.430000 0.134032 0
26.435000 0.110375 0
26.440000 0.088335 0
26.445000 0.068051 0
26.450000 0.049605 0
26.455000 0.033028 0
26.460000 0.018304 0
26.465000 0.005381 0
26.470000 -0.005829 0
26.475000 -0.015433 0
26.480000 -0.023559 0
26.485000 -0.030341 0
26.490000 -0.035921 0
26.495000 -0.040438 0
26.500000 -0.044029 0
26.505000 -0.046822 0
26.510000 -0.048934 0
26.515000 -0.050476 0
26.520000 -0.051541 0
26.525000 -0.052216 0
26.530000 -0.052572 0
26.535000 -0.052672 0
26.540000 -0.052569 0
26.545000 -0.052305 0
26.550000 -0.051605 0
26.555000 -0.050834 0
26.560000 -0.050066 0
26.565000 -0.049303 0
26.570000 -0.048543 0
26.575000 -0.047787 0
26.580000 -0.047035 0
26.585000 -0.046287 0
26.590000 -0.045543 0
26.595000 -0.044802 0
26.600000 -0.044064 0
26.605000 -0.043331 0
26.610000 -0.042601 0
26.615000 -0.041874 0
26.620000 -0.041151 0
26.625000 -0.040431 0
26.630000 -0.039713 0
26.635000 -0.038996 0
26.640000 -0.038279 0
26.645000 -0.037558 0
26.650000 -0.036828 0
26.655000 -0.036080 0
26.660000 -0.035299 0
26.665000 -0.034463 0
26.670000 -0.033539 0
26.675000 -0.032477 0
26.680000 -0.031207 0
26.685000 -0.029628 0
26.690000 -0.027610 0
26.695000 -0.024978 0
26.700000 -0.021516 0
26.705000 -0.016965 0
26.710000 -0.011022 0
26.715000 -0.003363 0
26.720000 0.006347 0
26.725000 0.018417 0
26.730000 0.033092 0
26.735000 0.050512 0
26.740000 0.070661 0
26.745000 0.093325 0
26.750000 0.118064 0
26.755000 0.144198 0
26.760000 0.170817 0
26.765000 0.196824 0
26.770000 0.220998 0
26.775000 0.242091 0
26.780000 0.258926 0
26.785000 0.270508 0
26.790000 0.276122 1
26.795000 0.275402 0
26.800000 0.268369 0
26.805000 0.255435 0
26.810000 0.237358 0
26.815000 0.215168 0
26.820000 0.190072 0
26.825000 0.163341 0
26.830000 0.136205 0
26.835000 0.109751 0
26.840000 0.084815 0
26.845000 0.061850 0
26.850000 0.040697 0
26.855000 0.020252 0
26.860000 -0.001828 0
26.865000 -0.028934 0
26.870000 -0.064203 0
26.875000 -0.107907 0
26.880000 -0.154457 0
26.885000 -0.191005 0
26.890000 -0.199033 2
26.895000 -0.158254 0
26.900000 -0.051011 0
26.905000 0.132744 0
26.910000 0.387596 0
26.915000 0.682660 0
26.920000 0.958007 0
26.925000 1.138695 0
26.930000 1.166024 3
26.935000 1.027575 0
26.940000 0.763964 0
26.945000 0.447324 0
26.950000 0.147921 0
26.955000 -0.087488 0
26.960000 -0.238902 0
26.965000 -0.306575 4
26.970000 -0.304581 0
26.975000 -0.256040 0
26.980000 -0.187077 0
26.985000 -0.119439 0
26.990000 -0.065363 0
26.995000 -0.027375 0
27.000000 -0.001954 0
27.005000 0.016153 0
27.010000 0.031260 0
27.015000 0.046004 0
27.020000 0.061687 0
27.025000 0.078839 0
27.030000 0.097624 0
27.035000 0.118042 0
27.040000 0.140003 0
27.045000 0.163352 0
27.050000 0.187873 0
27.055000 0.213293 0
27.060000 0.239277 0
27.065000 0.265442 0
27.070000 0.291359 0
27.075000 0.316563 0
27.080000 0.340571 0
27.085000 0.362889 0
27.090000 0.383036 0
27.095000 0.400554 0
27.100000 0.415030 0
27.105000 0.426109 0
27.110000 0.433509 0
27.115000 0.437030 5
27.120000 0.436567 0
27.125000 0.432109 0
27.130000 0.423746 0
27.135000 0.411658 0
27.140000 0.396117 0
27.145000 0.377468 0
27.150000 0.356122 0
27.155000 0.332538 0
27.160000 0.307204 0
27.165000 0.280626 0
27.170000 0.253306 0
27.175000 0.225729 0
27.180000 0.198347 0
27.185000 0.171570 0
27.190000 0.145756 0
27.195000 0.121205 0
27.200000 0.098157 0
27.205000 0.076789 0
27.210000 0.057219 0
27.215000 0.039509 0
27.220000 0.023672 0
27.225000 0.009676 0
27.230000 -0.002546 0
27.235000 -0.013090 0
27.240000 -0.022073 0
27.245000 -0.029627 0
27.250000 -0.035892 0
27.255000 -0.041007 0
27.260000 -0.045115 0
27.265000 -0.048347 0
27.270000 -0.050829 0
27.275000 -0.052676 0
27.280000 -0.053991 0
27.285000 -0.054867 0
27.290000 -0.055383 0
27.295000 -0.055608 0
27.300000 -0.055600 0
27.305000 -0.055408 0
27.310000 -0.055006 0
27.315000 -0.054218 0
27.320000 -0.053434 0
27.325000 -0.052654 0
27.330000 -0.051878 0
27.335000 -0.051105 0
27.340000 -0.050337 0
27.345000 -0.049572 0
27.350000 -0.048811 0
27.355000 -0.048054 0
27.360000 -0.047300 0
27.365000 -0.046551 0
27.370000 -0.045805 0
27.375000 -0.045062 0
27.380000 -0.044323 0
27.385000 -0.043588 0
27.390000 -0.042855 0
27.395000 -0.042124 0
27.400000 -0.041394 0
27.405000 -0.040661 0
27.410000 -0.039923 0
27.415000 -0.039172 0
27.420000 -0.038396 0
27.425000 -0.037578 0
27.430000 -0.036690 0
27.435000 -0.035691 0
27.440000 -0.034521 0
27.445000 -0.033096 0
27.450000 -0.031299 0
27.455000 -0.028977 0
27.460000 -0.025936 0
27.465000 -0.021933 0
27.470000 -0.016685 0
27.475000 -0.009875 0
27.480000 -0.001166 0
27.485000 0.009766 0
27.490000 0.023206 0
27.495000 0.039348 0
27.500000 0.058256 0
27.505000 0.079812 0
27.510000 0.103682 0
27.515000 0.129293 0
27.520000 0.155832 0
27.525000 0.182275 0
27.530000 0.207442 0
27.535000 0.230077 0
27.540000 0.248951 0
27.545000 0.262972 0
27.550000 0.271284 0
27.555000 0.273359 1
27.560000 0.269047 0
27.565000 0.258594 0
27.570000 0.242620 0
27.575000 0.222054 0
27.580000 0.198046 0
27.585000 0.171861 0
27.590000 0.144766 0
27.595000 0.117924 0
27.600000 0.092295 0
27.605000 0.068514 0
27.610000 0.046708 0
27.615000 0.026196 0
27.620000 0.005146 0
27.625000 -0.019510 0
27.630000 -0.051273 0
27.635000 -0.091932 0
27.640000 -0.138488 0
27.645000 -0.180863 0
27.650000 -0.202278 2
27.655000 -0.182498 0
27.660000 -0.102242 0
27.665000 0.052219 0
27.670000 0.282470 0
27.675000 0.568103 0
27.680000 0.859223 0
27.685000 1.083120 0
27.690000 1.170679 3
27.695000 1.091360 0
27.700000 0.869071 0
27.705000 0.564988 0
27.710000 0.250667 0
27.715000 -0.018005 0
27.720000 -0.210706 0
27.725000 -0.319326 0
27.730000 -0.351315 4
27.735000 -0.324842 0
27.740000 -0.264189 0
27.745000 -0.193404 0
27.750000 -0.129933 0
27.755000 -0.081652 0
27.760000 -0.048352 0
27.765000 -0.025670 0
27.770000 -0.008682 0
27.775000 0.006272 0
27.780000 0.021309 0
27.785000 0.037438 0
27.790000 0.055058 0
27.795000 0.074281 0
27.800000 0.095087 0
27.805000 0.117380 0
27.810000 0.141004 0
27.815000 0.165745 0
27.820000 0.191336 0
27.825000 0.217456 0
27.830000 0.243733 0
27.835000 0.269757 0
27.840000 0.295085 0
27.845000 0.319254 0
27.850000 0.341793 0
27.855000 0.362240 0
27.860000 0.380156 0
27.865000 0.395141 0
27.870000 0.406848 0
27.875000 0.414996 0
27.880000 0.419380 0
27.885000 0.419881 5
27.890000 0.416471 0
27.895000 0.409211 0
27.900000 0.398253 0
27.905000 0.383833 0
27.910000 0.366259 0
27.915000 0.345907 0
27.920000 0.323200 0
27.925000 0.298597 0
27.930000 0.272577 0
27.935000 0.245624 0
27.940000 0.218209 0
27.945000 0.190781 0
27.950000 0.163754 0
27.955000 0.137495 0
27.960000 0.112321 0
27.965000 0.088493 0
27.970000 0.066215 0
27.975000 0.045633 0
27.980000 0.026839 0
27.985000 0.009874 0
27.990000 -0.005264 0
27.995000 -0.018616 0
28.000000 -0.030258 0
28.005000 -0.040285 0
28.010000 -0.048816 0
28.015000 -0.055977 0
28.020000 -0.061903 0
28.025000 -0.066729 0
28.030000 -0.070588 0
28.035000 -0.073607 0
28.040000 -0.075904 0
28.045000 -0.077590 0
28.050000 -0.078761 0
28.055000 -0.079505 0
28.060000 -0.079899 0
28.065000 -0.080008 0
28.070000 -0.079889 0
28.075000 -0.079587 0
28.080000 -0.079074 0
28.085000 -0.078166 0
28.090000 -0.077263 0
28.095000 -0.076364 0
28.100000 -0.075469 0
28.105000 -0.074579 0
28.110000 -0.073693 0
28.115000 -0.072812 0
28.120000 -0.071935 0
28.125000 -0.071063 0
28.130000 -0.070195 0
28.135000 -0.069331 0
28.140000 -0.068471 0
28.145000 -0.067616 0
28.150000 -0.066764 0
28.155000 -0.065917 0
28.160000 -0.065073 0
28.165000 -0.064232 0
28.170000 -0.063394 0
28.175000 -0.062555 0
28.180000 -0.061713 0
28.185000 -0.060864 0
28.190000 -0.059998 0
28.195000 -0.059103 0
28.200000 -0.058158 0
28.205000 -0.057133 0
28.210000 -0.055983 0
28.215000 -0.054643 0
28.220000 -0.053024 0
28.225000 -0.051007 0
28.230000 -0.048434 0
28.235000 -0.045109 0
28.240000 -0.040792 0
28.245000 -0.035205 0
28.250000 -0.028041 0
28.255000 -0.018979 0
28.260000 -0.007709 0
28.265000 0.006032 0
28.270000 0.022423 0
28.275000 0.041514 0
28.280000 0.063188 0
28.285000 0.087120 0
28.290000 0.112766 0
28.295000 0.139357 0
28.300000 0.165922 0
28.305000 0.191342 0
28.310000 0.214420 0
28.315000 0.233973 0
28.320000 0.248930 0
28.325000 0.258432 0
28.330000 0.261908 1
28.335000 0.259137 0
28.340000 0.250268 0
28.345000 0.235807 0
28.350000 0.216567 0
28.355000 0.193596 0
28.360000 0.168081 0
28.365000 0.141243 0
28.370000 0.114243 0
28.375000 0.088087 0
28.380000 0.063526 0
28.385000 0.040922 0
28.390000 0.020022 0
28.395000 -0.000360 0
28.400000 -0.022592 0
28.405000 -0.049980 0
28.410000 -0.085474 0
