0.000000 1.161183 3
0.005000 1.046057 0
0.010000 0.757439 0
0.015000 0.392834 0
0.020000 0.051527 0
0.025000 -0.203103 0
0.030000 -0.348144 0
0.035000 -0.389820 4
0.040000 -0.353465 0
0.045000 -0.274782 0
0.050000 -0.188006 0
0.055000 -0.114937 0
0.060000 -0.061863 0
0.065000 -0.024652 0
0.070000 0.003892 0
0.075000 0.029443 0
0.080000 0.055080 0
0.085000 0.081989 0
0.090000 0.110371 0
0.095000 0.140002 0
0.100000 0.170464 0
0.105000 0.201230 0
0.110000 0.231698 0
0.115000 0.261211 0
0.120000 0.289080 0
0.125000 0.314610 0
0.130000 0.337126 0
0.135000 0.356006 0
0.140000 0.370707 0
0.145000 0.380788 0
0.150000 0.385938 0
0.155000 0.385985 5
0.160000 0.380909 0
0.165000 0.370839 0
0.170000 0.356055 0
0.175000 0.336967 0
0.180000 0.314099 0
0.185000 0.288064 0
0.190000 0.259539 0
0.195000 0.229232 0
0.200000 0.197855 0
0.205000 0.166097 0
0.210000 0.134597 0
0.215000 0.103930 0
0.220000 0.074585 0
0.225000 0.046963 0
0.230000 0.021366 0
0.235000 -0.001996 0
0.240000 -0.023004 0
0.245000 -0.041621 0
0.250000 -0.057880 0
0.255000 -0.071869 0
0.260000 -0.083727 0
0.265000 -0.093619 0
0.270000 -0.101734 0
0.275000 -0.108270 0
0.280000 -0.113426 0
0.285000 -0.117394 0
0.290000 -0.120356 0
0.295000 -0.122477 0
0.300000 -0.123906 0
0.305000 -0.124773 0
0.310000 -0.124979 0
0.315000 -0.123939 0
0.320000 -0.122905 0
0.325000 -0.121875 0
0.330000 -0.120851 0
0.335000 -0.119832 0
0.340000 -0.118817 0
0.345000 -0.117807 0
0.350000 -0.116801 0
0.355000 -0.115799 0
0.360000 -0.114797 0
0.365000 -0.113793 0
0.370000 -0.112780 0
0.375000 -0.111747 0
0.380000 -0.110676 0
0.385000 -0.109535 0
0.390000 -0.108276 0
0.395000 -0.106824 0
0.400000 -0.105069 0
0.405000 -0.102855 0
0.410000 -0.099967 0
0.415000 -0.096124 0
0.420000 -0.090976 0
0.425000 -0.084106 0
0.430000 -0.075054 0
0.435000 -0.063344 0
0.440000 -0.048543 0
0.445000 -0.030325 0
0.450000 -0.008555 0
0.455000 0.016639 0
0.460000 0.044791 0
0.465000 0.075062 0
0.470000 0.106246 0
0.475000 0.136823 0
0.480000 0.165068 0
0.485000 0.189205 0
0.490000 0.207595 0
0.495000 0.218912 0
0.500000 0.222309 1
0.505000 0.217519 0
0.510000 0.204890 0
0.515000 0.185348 0
0.520000 0.160280 0
0.525000 0.131375 0
0.530000 0.100422 0
0.535000 0.069096 0
0.540000 0.038674 0
0.545000 0.009618 0
0.550000 -0.019041 0
0.555000 -0.050256 0
0.560000 -0.088558 0
0.565000 -0.137446 0
0.570000 -0.194518 0
0.575000 -0.246993 0
0.580000 -0.271594 2
0.585000 -0.239806 0
0.590000 -0.125388 0
0.595000 0.087282 0
0.600000 0.390202 0
0.605000 0.735043 0
0.610000 1.030203 0
0.615000 1.172243 3
0.620000 1.100175 0
0.625000 0.837890 0
0.630000 0.478756 0
0.635000 0.128367 0
0.640000 -0.141027 0
0.645000 -0.300387 0
0.650000 -0.352916 4
0.655000 -0.322887 0
0.660000 -0.246499 0
0.665000 -0.159609 0
0.670000 -0.085736 0
0.675000 -0.032127 0
0.680000 0.005195 0
0.685000 0.033625 0
0.690000 0.059023 0
0.695000 0.084540 0
0.700000 0.111367 0
0.705000 0.139689 0
0.710000 0.169258 0
0.715000 0.199634 0
0.720000 0.230268 0
0.725000 0.260531 0
0.730000 0.289742 0
0.735000 0.317187 0
0.740000 0.342151 0
0.745000 0.363946 0
0.750000 0.381942 0
0.755000 0.395598 0
0.760000 0.404485 0
0.765000 0.408314 5
0.770000 0.406942 0
0.775000 0.400390 0
0.780000 0.388833 0
0.785000 0.372597 0
0.790000 0.352143 0
0.795000 0.328044 0
0.800000 0.300956 0
0.805000 0.271590 0
0.810000 0.240681 0
0.815000 0.208958 0
0.820000 0.177112 0
0.825000 0.145778 0
0.830000 0.115512 0
0.835000 0.086780 0
0.840000 0.059949 0
0.845000 0.035286 0
0.850000 0.012961 0
0.855000 -0.006946 0
0.860000 -0.024436 0
0.865000 -0.039574 0
0.870000 -0.052482 0
0.875000 -0.063317 0
0.880000 -0.072267 0
0.885000 -0.079533 0
0.890000 -0.085320 0
0.895000 -0.089829 0
0.900000 -0.093253 0
0.905000 -0.095767 0
0.910000 -0.097531 0
0.915000 -0.098685 0
0.920000 -0.099122 0
0.925000 -0.098211 0
0.930000 -0.097305 0
0.935000 -0.096403 0
0.940000 -0.095506 0
0.945000 -0.094613 0
0.950000 -0.093724 0
0.955000 -0.092840 0
0.960000 -0.091958 0
0.965000 -0.091080 0
0.970000 -0.090202 0
0.975000 -0.089322 0
0.980000 -0.088433 0
0.985000 -0.087524 0
0.990000 -0.086578 0
0.995000 -0.085562 0
1.000000 -0.084429 0
1.005000 -0.083103 0
1.010000 -0.081470 0
1.015000 -0.079371 0
1.020000 -0.076584 0
1.025000 -0.072817 0
1.030000 -0.067708 0
1.035000 -0.060824 0
1.040000 -0.051687 0
1.045000 -0.039809 0
1.050000 -0.024751 0
1.055000 -0.006194 0
1.060000 0.015971 0
1.065000 0.041565 0
1.070000 0.070050 0
1.075000 0.100495 0
1.080000 0.131590 0
1.085000 0.161715 0
1.090000 0.189065 0
1.095000 0.211826 0
1.100000 0.228372 0
1.105000 0.237453 0
1.110000 0.238353 1
1.115000 0.230984 0
1.120000 0.215897 0
1.125000 0.194215 0
1.130000 0.167495 0
1.135000 0.137536 0
1.140000 0.106167 0
1.145000 0.074995 0
1.150000 0.045059 0
1.155000 0.016305 0
1.160000 -0.013112 0
1.165000 -0.047121 0
1.170000 -0.090387 0
1.175000 -0.144285 0
1.180000 -0.201427 0
1.185000 -0.242772 2
1.190000 -0.240601 0
1.195000 -0.165836 0
1.200000 0.003718 0
1.205000 0.272316 0
1.210000 0.609103 0
1.215000 0.935889 0
1.220000 1.144727 0
1.225000 1.151538 3
1.230000 0.949626 0
1.235000 0.613185 0
1.240000 0.248607 0
1.245000 -0.057567 0
1.250000 -0.261160 0
1.255000 -0.354457 4
1.260000 -0.354120 0
1.265000 -0.292250 0
1.270000 -0.205948 0
1.275000 -0.124591 0
1.280000 -0.062039 0
1.285000 -0.018262 0
1.290000 0.013371 0
1.295000 0.039660 0
1.300000 0.064914 0
1.305000 0.091083 0
1.310000 0.118724 0
1.315000 0.147756 0
1.320000 0.177822 0
1.325000 0.208429 0
1.330000 0.238997 0
1.335000 0.268879 0
1.340000 0.297385 0
1.345000 0.323809 0
1.350000 0.347455 0
1.355000 0.367669 0
1.360000 0.383865 0
1.365000 0.395557 0
1.370000 0.402378 0
1.375000 0.404104 5
1.380000 0.400658 0
1.385000 0.392123 0
1.390000 0.378733 0
1.395000 0.360861 0
1.400000 0.339007 0
1.405000 0.313767 0
1.410000 0.285812 0
1.415000 0.255852 0
1.420000 0.224613 0
1.425000 0.192802 0
1.430000 0.161085 0
1.435000 0.130062 0
1.440000 0.100254 0
1.445000 0.072089 0
1.450000 0.045901 0
1.455000 0.021922 0
1.460000 0.000295 0
1.465000 -0.018926 0
1.470000 -0.035760 0
1.475000 -0.050286 0
1.480000 -0.062634 0
1.485000 -0.072969 0
1.490000 -0.081479 0
1.495000 -0.088363 0
1.500000 -0.093824 0
1.505000 -0.098058 0
1.510000 -0.101252 0
1.515000 -0.103576 0
1.520000 -0.105182 0
1.525000 -0.106206 0
1.530000 -0.106545 0
1.535000 -0.105597 0
1.540000 -0.104654 0
1.545000 -0.103716 0
1.550000 -0.102782 0
1.555000 -0.101853 0
1.560000 -0.100928 0
1.565000 -0.100008 0
1.570000 -0.099091 0
1.575000 -0.098176 0
1.580000 -0.097263 0
1.585000 -0.096347 0
1.590000 -0.095421 0
1.595000 -0.094476 0
1.600000 -0.093491 0
1.605000 -0.092437 0
1.610000 -0.091263 0
1.615000 -0.089895 0
1.620000 -0.088220 0
1.625000 -0.086078 0
1.630000 -0.083252 0
1.635000 -0.079453 0
1.640000 -0.074324 0
1.645000 -0.067440 0
1.650000 -0.058331 0
1.655000 -0.046517 0
1.660000 -0.031562 0
1.665000 -0.013148 0
1.670000 0.008847 0
1.675000 0.034263 0
1.680000 0.062596 0
1.685000 0.092955 0
1.690000 0.124079 0
1.695000 0.154396 0
1.700000 0.182140 0
1.705000 0.205517 0
1.710000 0.222897 0
1.715000 0.232995 0
1.720000 0.235035 1
1.725000 0.228844 0
1.730000 0.214877 0
1.735000 0.194163 0
1.740000 0.168178 0
1.745000 0.138670 0
1.750000 0.107449 0
1.755000 0.076159 0
1.760000 0.045963 0
1.765000 0.017074 0
1.770000 -0.011908 0
1.775000 -0.044449 0
1.780000 -0.085232 0
1.785000 -0.136838 0
1.790000 -0.194480 0
1.795000 -0.242190 0
1.800000 -0.254253 2
1.805000 -0.201613 0
1.810000 -0.059729 0
1.815000 0.181960 0
1.820000 0.504810 0
1.825000 0.845442 0
1.830000 1.102061 0
1.835000 1.177869 3
1.840000 1.038762 0
1.845000 0.735317 0
1.850000 0.368661 0
1.855000 0.035504 0
1.860000 -0.205826 0
1.865000 -0.336716 0
1.870000 -0.366392 4
1.875000 -0.322249 0
1.880000 -0.240725 0
1.885000 -0.155039 0
1.890000 -0.084875 0
1.895000 -0.034619 0
1.900000 0.000757 0
1.905000 0.028449 0
1.910000 0.053770 0
1.915000 0.079460 0
1.920000 0.106504 0
1.925000 0.135010 0
1.930000 0.164710 0
1.935000 0.195162 0
1.940000 0.225825 0
1.945000 0.256080 0
1.950000 0.285262 0
1.955000 0.312672 0
1.960000 0.337615 0
1.965000 0.359421 0
1.970000 0.377474 0
1.975000 0.391247 0
1.980000 0.400321 0
1.985000 0.404406 5
1.990000 0.403360 0
1.995000 0.397191 0
2.000000 0.386061 0
2.005000 0.370277 0
2.010000 0.350276 0
2.015000 0.326607 0
2.020000 0.299901 0
2.025000 0.270847 0
2.030000 0.240161 0
2.035000 0.208554 0
2.040000 0.176712 0
2.045000 0.145263 0
2.050000 0.114768 0
2.055000 0.085698 0
2.060000 0.058433 0
2.065000 0.033257 0
2.070000 0.010357 0
2.075000 -0.010166 0
2.080000 -0.028294 0
2.085000 -0.044074 0
2.090000 -0.057610 0
2.095000 -0.069045 0
2.100000 -0.078557 0
2.105000 -0.086336 0
2.110000 -0.092583 0
2.115000 -0.097497 0
2.120000 -0.101269 0
2.125000 -0.104077 0
2.130000 -0.106083 0
2.135000 -0.107432 0
2.140000 -0.108249 0
2.145000 -0.107549 0
2.150000 -0.106596 0
2.155000 -0.105648 0
2.160000 -0.104705 0
2.165000 -0.103766 0
2.170000 -0.102832 0
2.175000 -0.101902 0
2.180000 -0.100977 0
2.185000 -0.100054 0
2.190000 -0.099134 0
2.195000 -0.098214 0
2.200000 -0.097289 0
2.205000 -0.096352 0
2.210000 -0.095390 0
2.215000 -0.094381 0
2.220000 -0.093289 0
2.225000 -0.092057 0
2.230000 -0.090601 0
2.235000 -0.088795 0
2.240000 -0.086466 0
2.245000 -0.083376 0
2.250000 -0.079220 0
2.255000 -0.073623 0
2.260000 -0.066149 0
2.265000 -0.056323 0
2.270000 -0.043678 0
2.275000 -0.027804 0
2.280000 -0.008432 0
2.285000 0.014492 0
2.290000 0.040726 0
2.295000 0.069672 0
2.300000 0.100355 0
2.305000 0.131439 0
2.310000 0.161306 0
2.315000 0.188185 0
2.320000 0.210318 0
2.325000 0.226153 0
2.330000 0.234520 0
2.335000 0.234774 1
2.340000 0.226880 0
2.345000 0.211416 0
2.350000 0.189506 0
2.355000 0.162681 0
2.360000 0.132703 0
2.365000 0.101353 0
2.370000 0.070198 0
2.375000 0.040260 0
2.380000 0.011515 0
2.385000 -0.017767 0
2.390000 -0.051339 0
2.395000 -0.093802 0
2.400000 -0.146916 0
2.405000 -0.204368 0
2.410000 -0.248634 0
2.415000 -0.253274 2
2.420000 -0.189652 0
2.425000 -0.034699 0
2.430000 0.219238 0
2.435000 0.548705 0
2.440000 0.885159 0
2.445000 1.125371 0
2.450000 1.177767 3
2.455000 1.016498 0
2.460000 0.699146 0
2.465000 0.332093 0
2.470000 0.010482 0
2.475000 -0.212527 0
2.480000 -0.323488 0
2.485000 -0.335959 4
2.490000 -0.280817 0
2.495000 -0.195940 0
2.500000 -0.112989 0
2.505000 -0.048177 0
2.510000 -0.002787 0
2.515000 0.029587 0
2.520000 0.056034 0
2.525000 0.081185 0
2.530000 0.107178 0
2.535000 0.134650 0
2.540000 0.163539 0
2.545000 0.193492 0
2.550000 0.224011 0
2.555000 0.254503 0
2.560000 0.284311 0
2.565000 0.312732 0
2.570000 0.339044 0
2.575000 0.362538 0
2.580000 0.382549 0
2.585000 0.398481 0
2.590000 0.409844 0
2.595000 0.416270 0
2.600000 0.417540 5
2.605000 0.413589 0
2.610000 0.404514 0
2.615000 0.390566 0
2.620000 0.372141 0
2.625000 0.349761 0
2.630000 0.324045 0
2.635000 0.295685 0
2.640000 0.265408 0
2.645000 0.233955 0
2.650000 0.202040 0
2.655000 0.170333 0
2.660000 0.139432 0
2.665000 0.109851 0
2.670000 0.082009 0
2.675000 0.056220 0
2.680000 0.032704 0
2.685000 0.011582 0
2.690000 -0.007108 0
2.695000 -0.023403 0
2.700000 -0.037399 0
2.705000 -0.049239 0
2.710000 -0.059099 0
2.715000 -0.067176 0
2.720000 -0.073674 0
2.725000 -0.078798 0
2.730000 -0.082747 0
2.735000 -0.085705 0
2.740000 -0.087840 0
2.745000 -0.089301 0
2.750000 -0.090220 0
2.755000 -0.089611 0
2.760000 -0.088748 0
2.765000 -0.087889 0
2.770000 -0.087034 0
2.775000 -0.086183 0
2.780000 -0.085337 0
2.785000 -0.084494 0
2.790000 -0.083655 0
2.795000 -0.082819 0
2.800000 -0.081984 0
2.805000 -0.081149 0
2.810000 -0.080307 0
2.815000 -0.079451 0
2.820000 -0.078566 0
2.825000 -0.077626 0
2.830000 -0.076592 0
2.835000 -0.075400 0
2.840000 -0.073953 0
2.845000 -0.072113 0
2.850000 -0.069683 0
2.855000 -0.066402 0
2.860000 -0.061933 0
2.865000 -0.055871 0
2.870000 -0.047750 0
2.875000 -0.037078 0
2.880000 -0.023388 0
2.885000 -0.006299 0
2.890000 0.014391 0
2.895000 0.038629 0
2.900000 0.066024 0
2.905000 0.095799 0
2.910000 0.126781 0
2.915000 0.157454 0
2.920000 0.186060 0
2.925000 0.210759 0
2.930000 0.229821 0
2.935000 0.241826 0
2.940000 0.245836 1
2.945000 0.241517 0
2.950000 0.229186 0
2.955000 0.209766 0
2.960000 0.184678 0
2.965000 0.155663 0
2.970000 0.124573 0
2.975000 0.093136 0
2.980000 0.062652 0
2.985000 0.033541 0
2.990000 0.004675 0
2.995000 -0.027177 0
3.000000 -0.066753 0
3.005000 -0.117220 0
3.010000 -0.174828 0
3.015000 -0.224547 0
3.020000 -0.240887 2
3.025000 -0.194208 0
3.030000 -0.058849 0
3.035000 0.177280 0
3.040000 0.497297 0
3.045000 0.838807 0
3.050000 1.098952 0
3.055000 1.178215 3
3.060000 1.040558 0
3.065000 0.736997 0
3.070000 0.370289 0
3.075000 0.038445 0
3.080000 -0.200023 0
3.085000 -0.327083 0
3.090000 -0.352899 4
3.095000 -0.305937 0
3.100000 -0.223386 0
3.105000 -0.138404 0
3.110000 -0.069866 0
3.115000 -0.021222 0
3.120000 0.013080 0
3.125000 0.040283 0
3.130000 0.065508 0
3.135000 0.091291 0
3.140000 0.118487 0
3.145000 0.147138 0
3.150000 0.176939 0
3.155000 0.207424 0
3.160000 0.238027 0
3.165000 0.268112 0
3.170000 0.296991 0
3.175000 0.323956 0
3.180000 0.348299 0
3.185000 0.369348 0
3.190000 0.386494 0
3.195000 0.399222 0
3.200000 0.407132 0
3.205000 0.409964 5
3.210000 0.407609 0
3.215000 0.400114 0
3.220000 0.387684 0
3.225000 0.370666 0
3.230000 0.349539 0
3.235000 0.324888 0
3.240000 0.297373 0
3.245000 0.267708 0
3.250000 0.236622 0
3.255000 0.204833 0
3.260000 0.173021 0
3.265000 0.141805 0
3.270000 0.111725 0
3.275000 0.083228 0
3.280000 0.056667 0
3.285000 0.032292 0
3.290000 0.010260 0
3.295000 -0.009359 0
3.300000 -0.026575 0
3.305000 -0.041459 0
3.310000 -0.054137 0
3.315000 -0.064769 0
3.320000 -0.073543 0
3.325000 -0.080659 0
3.330000 -0.086320 0
3.335000 -0.090727 0
3.340000 -0.094067 0
3.345000 -0.096514 0
3.350000 -0.098226 0
3.355000 -0.099339 0
3.360000 -0.099749 0
3.365000 -0.098835 0
3.370000 -0.097926 0
3.375000 -0.097021 0
3.380000 -0.096120 0
3.385000 -0.095224 0
3.390000 -0.094333 0
3.395000 -0.093445 0
3.400000 -0.092561 0
3.405000 -0.091679 0
3.410000 -0.090798 0
3.415000 -0.089915 0
3.420000 -0.089023 0
3.425000 -0.088111 0
3.430000 -0.087161 0
3.435000 -0.086142 0
3.440000 -0.085006 0
3.445000 -0.083678 0
3.450000 -0.082045 0
3.455000 -0.079950 0
3.460000 -0.077174 0
3.465000 -0.073428 0
3.470000 -0.068353 0
3.475000 -0.061524 0
3.480000 -0.052465 0
3.485000 -0.040693 0
3.490000 -0.025769 0
3.495000 -0.007371 0
3.500000 0.014621 0
3.505000 0.040045 0
3.510000 0.068388 0
3.515000 0.098748 0
3.520000 0.129846 0
3.525000 0.160093 0
3.530000 0.187705 0
3.535000 0.210880 0
3.540000 0.227979 0
3.545000 0.237729 0
3.550000 0.239368 1
3.555000 0.232753 0
3.560000 0.218373 0
3.565000 0.197291 0
3.570000 0.171017 0
3.575000 0.141319 0
3.580000 0.110022 0
3.585000 0.078756 0
3.590000 0.048644 0
3.595000 0.019800 0
3.600000 -0.009347 0
3.605000 -0.042454 0
3.610000 -0.084225 0
3.615000 -0.136804 0
3.620000 -0.194387 0
3.625000 -0.239737 0
3.630000 -0.246241 2
3.635000 -0.184734 0
3.640000 -0.031515 0
3.645000 0.221558 0
3.650000 0.550953 0
3.655000 0.886984 0
3.660000 1.124620 0
3.665000 1.171567 3
3.670000 1.005700 0
3.675000 0.688308 0
3.680000 0.321100 0
3.685000 -0.004299 0
3.690000 -0.235178 0
3.695000 -0.356483 0
3.700000 -0.379168 4
3.705000 -0.331182 0
3.710000 -0.248500 0
3.715000 -0.163177 0
3.720000 -0.093749 0
3.725000 -0.043995 0
3.730000 -0.008805 0
3.735000 0.018881 0
3.740000 0.044247 0
3.745000 0.069975 0
3.750000 0.097037 0
3.755000 0.125551 0
3.760000 0.155257 0
3.765000 0.185727 0
3.770000 0.216432 0
3.775000 0.246771 0
3.780000 0.276092 0
3.785000 0.303712 0
3.790000 0.328947 0
3.795000 0.351135 0
3.800000 0.369667 0
3.805000 0.384015 0
3.810000 0.393752 0
3.815000 0.398578 5
3.820000 0.398333 0
3.825000 0.393001 0
3.830000 0.382719 0
3.835000 0.367765 0
3.840000 0.348546 0
3.845000 0.325583 0
3.850000 0.299481 0
3.855000 0.270906 0
3.860000 0.240558 0
3.865000 0.209140 0
3.870000 0.177330 0
3.875000 0.145762 0
3.880000 0.115003 0
3.885000 0.085541 0
3.890000 0.057774 0
3.895000 0.032006 0
3.900000 0.008448 0
3.905000 -0.012778 0
3.910000 -0.031627 0
3.915000 -0.048129 0
3.920000 -0.062366 0
3.925000 -0.074470 0
3.930000 -0.084604 0
3.935000 -0.092951 0
3.940000 -0.099707 0
3.945000 -0.105066 0
3.950000 -0.109222 0
3.955000 -0.112354 0
3.960000 -0.114628 0
3.965000 -0.116194 0
3.970000 -0.117181 0
3.975000 -0.117483 0
3.980000 -0.116480 0
3.985000 -0.115483 0
3.990000 -0.114491 0
3.995000 -0.113503 0
4.000000 -0.112521 0
4.005000 -0.111543 0
4.010000 -0.110569 0
4.015000 -0.109600 0
4.020000 -0.108633 0
4.025000 -0.107669 0
4.030000 -0.106702 0
4.035000 -0.105729 0
4.040000 -0.104739 0
4.045000 -0.103717 0
4.050000 -0.102635 0
4.055000 -0.101451 0
4.060000 -0.100100 0
4.065000 -0.098484 0
4.070000 -0.096463 0
4.075000 -0.093844 0
4.080000 -0.090372 0
4.085000 -0.085720 0
4.090000 -0.079500 0
4.095000 -0.071267 0
4.100000 -0.060552 0
4.105000 -0.046909 0
4.110000 -0.029969 0
4.115000 -0.009522 0
4.120000 0.014406 0
4.125000 0.041485 0
4.130000 0.071030 0
4.135000 0.101985 0
4.140000 0.132961 0
4.145000 0.162322 0
4.150000 0.188314 0
4.155000 0.209245 0
4.160000 0.223655 0
4.165000 0.230492 1
4.170000 0.229239 0
4.175000 0.219974 0
4.180000 0.203366 0
4.185000 0.180595 0
4.190000 0.153214 0
4.195000 0.122968 0
4.200000 0.091591 0
4.205000 0.060572 0
4.210000 0.030822 0
4.215000 0.002169 0
4.220000 -0.027283 0
4.225000 -0.061376 0
4.230000 -0.104576 0
4.235000 -0.158223 0
4.240000 -0.215488 0
4.245000 -0.258599 0
4.250000 -0.261351 2
4.255000 -0.195692 0
4.260000 -0.039211 0
4.265000 0.215304 0
4.270000 0.544650 0
4.275000 0.881730 0
4.280000 1.125377 0
4.285000 1.184689 3
4.290000 1.031833 0
4.295000 0.720437 0
4.300000 0.353274 0
4.305000 0.025225 0
4.310000 -0.208365 0
4.315000 -0.331282 0
4.320000 -0.354390 4
4.325000 -0.306166 0
4.330000 -0.223329 0
4.335000 -0.138409 0
4.340000 -0.069876 0
4.345000 -0.021109 0
4.350000 0.013339 0
4.355000 0.040625 0
4.360000 0.065854 0
4.365000 0.091587 0
4.370000 0.118708 0
4.375000 0.147281 0
4.380000 0.177017 0
4.385000 0.207463 0
4.390000 0.238067 0
4.395000 0.268207 0
4.400000 0.297209 0
4.405000 0.324376 0
4.410000 0.349008 0
4.415000 0.370440 0
4.420000 0.388063 0
4.425000 0.401356 0
4.430000 0.409911 0
4.435000 0.413453 5
4.440000 0.411852 0
4.445000 0.405132 0
4.450000 0.393471 0
4.455000 0.377191 0
4.460000 0.356741 0
4.465000 0.332681 0
4.470000 0.305652 0
4.475000 0.276347 0
4.480000 0.245485 0
4.485000 0.213778 0
4.490000 0.181905 0
4.495000 0.150493 0
4.500000 0.120090 0
4.505000 0.091163 0
4.510000 0.064080 0
4.515000 0.039113 0
4.520000 0.016440 0
4.525000 -0.003847 0
4.530000 -0.021739 0
4.535000 -0.037289 0
4.540000 -0.050608 0
4.545000 -0.061845 0
4.550000 -0.071177 0
4.555000 -0.078800 0
4.560000 -0.084914 0
4.565000 -0.089717 0
4.570000 -0.093400 0
4.575000 -0.096139 0
4.580000 -0.098094 0
4.585000 -0.099409 0
4.590000 -0.100207 0
4.595000 -0.099538 0
4.600000 -0.098625 0
4.605000 -0.097717 0
4.610000 -0.096813 0
4.615000 -0.095914 0
4.620000 -0.095019 0
4.625000 -0.094128 0
4.630000 -0.093241 0
4.635000 -0.092357 0
4.640000 -0.091474 0
4.645000 -0.090591 0
4.650000 -0.089703 0
4.655000 -0.088801 0
4.660000 -0.087870 0
4.665000 -0.086889 0
4.670000 -0.085817 0
4.675000 -0.084594 0
4.680000 -0.083132 0
4.685000 -0.081297 0
4.690000 -0.078906 0
4.695000 -0.075712 0
4.700000 -0.071398 0
4.705000 -0.065579 0
4.710000 -0.057809 0
4.715000 -0.047611 0
4.720000 -0.034520 0
4.725000 -0.018144 0
4.730000 0.001758 0
4.735000 0.025200 0
4.740000 0.051884 0
4.745000 0.081154 0
4.750000 0.111968 0
4.755000 0.142937 0
4.760000 0.172404 0
4.765000 0.198584 0
4.770000 0.219739 0
4.775000 0.234362 0
4.780000 0.241361 1
4.785000 0.240190 0
4.790000 0.230918 0
4.795000 0.214226 0
4.800000 0.191319 0
4.805000 0.163788 0
4.810000 0.133414 0
4.815000 0.101966 0
4.820000 0.070942 0
4.825000 0.041227 0
4.830000 0.012541 0
4.835000 -0.017213 0
4.840000 -0.052099 0
4.845000 -0.096562 0
4.850000 -0.151284 0
4.855000 -0.207987 0
4.860000 -0.247127 2
4.865000 -0.241229 0
4.870000 -0.162041 0
4.875000 0.011561 0
4.880000 0.282761 0
4.885000 0.620214 0
4.890000 0.946715 0
4.895000 1.156587 0
4.900000 1.167194 3
4.905000 0.969549 0
4.910000 0.634586 0
4.915000 0.269697 0
4.920000 -0.037195 0
4.925000 -0.241105 0
4.930000 -0.334155 4
4.935000 -0.333240 0
4.940000 -0.270887 0
4.945000 -0.184556 0
4.950000 -0.103670 0
4.955000 -0.041834 0
4.960000 0.001291 0
4.965000 0.032498 0
4.970000 0.058578 0
4.975000 0.083760 0
4.980000 0.109921 0
4.985000 0.137570 0
4.990000 0.166600 0
4.995000 0.196640 0
5.000000 0.227185 0
5.005000 0.257640 0
5.010000 0.287347 0
5.015000 0.315607 0
5.020000 0.341706 0
5.025000 0.364944 0
5.030000 0.384663 0
5.035000 0.400284 0
5.040000 0.411325 0
5.045000 0.417435 0
5.050000 0.418403 5
5.055000 0.414175 0
5.060000 0.404854 0
5.065000 0.390699 0
5.070000 0.372107 0
5.075000 0.349598 0
5.080000 0.323791 0
5.085000 0.295371 0
5.090000 0.265061 0
5.095000 0.233594 0
5.100000 0.201678 0
5.105000 0.169974 0
5.110000 0.139077 0
5.115000 0.109495 0
5.120000 0.081642 0
5.125000 0.055832 0
5.130000 0.032282 0
5.135000 0.011115 0
5.140000 -0.007631 0
5.145000 -0.023991 0
5.150000 -0.038057 0
5.155000 -0.049972 0
5.160000 -0.059908 0
5.165000 -0.068059 0
5.170000 -0.074628 0
5.175000 -0.079819 0
5.180000 -0.083828 0
5.185000 -0.086839 0
5.190000 -0.089020 0
5.195000 -0.090521 0
5.200000 -0.091472 0
5.205000 -0.090863 0
5.210000 -0.089993 0
5.215000 -0.089128 0
5.220000 -0.088267 0
5.225000 -0.087410 0
5.230000 -0.086557 0
5.235000 -0.085709 0
5.240000 -0.084864 0
5.245000 -0.084022 0
5.250000 -0.083182 0
5.255000 -0.082341 0
5.260000 -0.081495 0
5.265000 -0.080637 0
5.270000 -0.079751 0
5.275000 -0.078817 0
5.280000 -0.077795 0
5.285000 -0.076628 0
5.290000 -0.075226 0
5.295000 -0.073458 0
5.300000 -0.071141 0
5.305000 -0.068026 0
5.310000 -0.063795 0
5.315000 -0.058056 0
5.320000 -0.050357 0
5.325000 -0.040213 0
5.330000 -0.027151 0
5.335000 -0.010771 0
5.340000 0.009170 0
5.345000 0.032680 0
5.350000 0.059446 0
5.355000 0.088784 0
5.360000 0.119616 0
5.365000 0.150510 0
5.370000 0.179766 0
5.375000 0.205564 0
5.380000 0.226145 0
5.385000 0.240009 0
5.390000 0.246095 1
5.395000 0.243914 0
5.400000 0.233613 0
5.405000 0.215959 0
5.410000 0.192243 0
5.415000 0.164125 0
5.420000 0.133431 0
5.425000 0.101934 0
5.430000 0.071082 0
5.435000 0.041604 0
5.440000 0.012906 0
5.445000 -0.017572 0
5.450000 -0.054265 0
5.455000 -0.101291 0
5.460000 -0.157682 0
5.465000 -0.212300 0
5.470000 -0.242734 2
5.475000 -0.220073 0
5.480000 -0.116674 0
5.485000 0.085301 0
5.490000 0.380984 0
5.495000 0.725177 0
5.500000 1.026934 0
5.505000 1.179452 3
5.510000 1.119651 0
5.515000 0.868612 0
5.520000 0.513532 0
5.525000 0.157808 0
5.530000 -0.124199 0
5.535000 -0.299667 0
5.540000 -0.368052 4
5.545000 -0.350137 0
5.550000 -0.279644 0
5.555000 -0.192357 0
5.560000 -0.114207 0
5.565000 -0.055602 0
5.570000 -0.014625 0
5.575000 0.015648 0
5.580000 0.041550 0
5.585000 0.066874 0
5.590000 0.093254 0
5.595000 0.121107 0
5.600000 0.150300 0
5.605000 0.180462 0
5.610000 0.211098 0
5.615000 0.241630 0
5.620000 0.271419 0
5.625000 0.299784 0
5.630000 0.326034 0
5.635000 0.349488 0
5.640000 0.369506 0
5.645000 0.385519 0
5.650000 0.397053 0
5.655000 0.403756 0
5.660000 0.405407 5
5.665000 0.401937 0
5.670000 0.393426 0
5.675000 0.380102 0
5.680000 0.362333 0
5.685000 0.340602 0
5.690000 0.315495 0
5.695000 0.287665 0
5.700000 0.257810 0
5.705000 0.226641 0
5.710000 0.194853 0
5.715000 0.163105 0
5.720000 0.131992 0
5.725000 0.102033 0
5.730000 0.073660 0
5.735000 0.047209 0
5.740000 0.022923 0
5.745000 0.000952 0
5.750000 -0.018638 0
5.755000 -0.035854 0
5.760000 -0.050766 0
5.765000 -0.063495 0
5.770000 -0.074195 0
5.775000 -0.083049 0
5.780000 -0.090250 0
5.785000 -0.095997 0
5.790000 -0.100485 0
5.795000 -0.103900 0
5.800000 -0.106412 0
5.805000 -0.108176 0
5.810000 -0.109330 0
5.815000 -0.109991 0
5.820000 -0.109261 0
5.825000 -0.108300 0
5.830000 -0.107343 0
5.835000 -0.106392 0
5.840000 -0.105444 0
5.845000 -0.104502 0
5.850000 -0.103564 0
5.855000 -0.102629 0
5.860000 -0.101698 0
5.865000 -0.100769 0
5.870000 -0.099838 0
5.875000 -0.098902 0
5.880000 -0.097951 0
5.885000 -0.096971 0
5.890000 -0.095936 0
5.895000 -0.094806 0
5.900000 -0.093521 0
5.905000 -0.091987 0
5.910000 -0.090070 0
5.915000 -0.087584 0
5.920000 -0.084280 0
5.925000 -0.079841 0
5.930000 -0.073879 0
5.935000 -0.065954 0
5.940000 -0.055594 0
5.945000 -0.042340 0
5.950000 -0.025809 0
5.955000 -0.005768 0
5.960000 0.017787 0
5.965000 0.044556 0
5.970000 0.073883 0
5.975000 0.104738 0
5.980000 0.135745 0
5.985000 0.165268 0
5.990000 0.191542 0
5.995000 0.212848 0
6.000000 0.227690 0
6.005000 0.234977 1
6.010000 0.234151 0
6.015000 0.225256 0
6.020000 0.208940 0
6.025000 0.186372 0
6.030000 0.159107 0
6.035000 0.128901 0
6.040000 0.097509 0
6.045000 0.066442 0
6.050000 0.036641 0
6.055000 0.007953 0
6.060000 -0.021507 0
6.065000 -0.055599 0
6.070000 -0.098831 0
6.075000 -0.152549 0
6.080000 -0.209804 0
6.085000 -0.252562 0
6.090000 -0.254307 2
6.095000 -0.186769 0
6.100000 -0.027570 0
6.105000 0.229929 0
6.110000 0.561005 0
6.115000 0.896277 0
6.120000 1.133026 0
6.125000 1.181481 3
6.130000 1.018117 0
6.135000 0.701064 0
6.140000 0.333869 0
6.145000 0.009693 0
6.150000 -0.218408 0
6.155000 -0.335904 0
6.160000 -0.354720 4
6.165000 -0.303943 0
6.170000 -0.220343 0
6.175000 -0.135904 0
6.180000 -0.068306 0
6.185000 -0.020344 0
6.190000 0.013640 0
6.195000 0.040752 0
6.200000 0.065971 0
6.205000 0.091758 0
6.210000 0.118948 0
6.215000 0.147581 0
6.220000 0.177360 0
6.225000 0.207828 0
6.230000 0.238430 0
6.235000 0.268543 0
6.240000 0.297492 0
6.245000 0.324580 0
6.250000 0.349110 0
6.255000 0.370419 0
6.260000 0.387900 0
6.265000 0.401039 0
6.270000 0.409431 0
6.275000 0.412806 5
6.280000 0.411040 0
6.285000 0.404163 0
6.290000 0.392355 0
6.295000 0.375943 0
6.300000 0.355381 0
6.305000 0.331229 0
6.310000 0.304128 0
6.315000 0.274774 0
6.320000 0.243884 0
6.325000 0.212167 0
6.330000 0.180303 0
6.335000 0.148913 0
6.340000 0.118546 0
6.345000 0.089662 0
6.350000 0.062629 0
6.355000 0.037716 0
6.360000 0.015099 0
6.365000 -0.005134 0
6.370000 -0.022973 0
6.375000 -0.038475 0
6.380000 -0.051748 0
6.385000 -0.062944 0
6.390000 -0.072241 0
6.395000 -0.079832 0
6.400000 -0.085919 0
6.405000 -0.090699 0
6.410000 -0.094362 0
6.415000 -0.097084 0
6.420000 -0.099026 0
6.425000 -0.100329 0
6.430000 -0.101116 0
6.435000 -0.100443 0
6.440000 -0.099525 0
6.445000 -0.098612 0
6.450000 -0.097704 0
6.455000 -0.096800 0
6.460000 -0.095901 0
6.465000 -0.095006 0
6.470000 -0.094114 0
6.475000 -0.093226 0
6.480000 -0.092339 0
6.485000 -0.091452 0
6.490000 -0.090559 0
6.495000 -0.089652 0
6.500000 -0.088718 0
6.505000 -0.087732 0
6.510000 -0.086655 0
6.515000 -0.085429 0
6.520000 -0.083962 0
6.525000 -0.082124 0
6.530000 -0.079730 0
6.535000 -0.076535 0
6.540000 -0.072221 0
6.545000 -0.066405 0
6.550000 -0.058641 0
6.555000 -0.048454 0
6.560000 -0.035378 0
6.565000 -0.019022 0
6.570000 0.000858 0
6.575000 0.024275 0
6.580000 0.050936 0
6.585000 0.080188 0
6.590000 0.110997 0
6.595000 0.141976 0
6.600000 0.171474 0
6.605000 0.197709 0
6.610000 0.218941 0
6.615000 0.233665 0
6.620000 0.240782 1
6.625000 0.239738 0
6.630000 0.230593 0
6.635000 0.214017 0
6.640000 0.191208 0
6.645000 0.163746 0
6.650000 0.133411 0
6.655000 0.101971 0
6.660000 0.070931 0
6.665000 0.041189 0
6.670000 0.012499 0
6.675000 -0.017190 0
6.680000 -0.051902 0
6.685000 -0.096105 0
6.690000 -0.150629 0
6.695000 -0.207472 0
6.700000 -0.247377 2
6.705000 -0.243027 0
6.710000 -0.166129 0
6.715000 0.004720 0
6.720000 0.273396 0
6.725000 0.609806 0
6.730000 0.938116 0
6.735000 1.153008 0
6.740000 1.170374 3
6.745000 0.977983 0
6.750000 0.644677 0
6.755000 0.279641 0
6.760000 -0.027237 0
6.765000 -0.230109 0
6.770000 -0.321214 4
6.775000 -0.318129 0
6.780000 -0.254286 0
6.785000 -0.167744 0
6.790000 -0.087805 0
6.795000 -0.027392 0
6.800000 0.014514 0
6.805000 0.045002 0
6.810000 0.070813 0
6.815000 0.095995 0
6.820000 0.122269 0
6.825000 0.150056 0
6.830000 0.179202 0
6.835000 0.209304 0
6.840000 0.239835 0
6.845000 0.270176 0
6.850000 0.299649 0
6.855000 0.327538 0
6.860000 0.353114 0
6.865000 0.375669 0
6.870000 0.394549 0
6.875000 0.409179 0
6.880000 0.419097 0
6.885000 0.423975 5
6.890000 0.423635 0
6.895000 0.418062 0
6.900000 0.407401 0
6.905000 0.391955 0
6.910000 0.372164 0
6.915000 0.348590 0
6.920000 0.321886 0
6.925000 0.292765 0
6.930000 0.261970 0
6.935000 0.230242 0
6.940000 0.198290 0
6.945000 0.166767 0
6.950000 0.136249 0
6.955000 0.107220 0
6.960000 0.080066 0
6.965000 0.055068 0
6.970000 0.032410 0
6.975000 0.012182 0
6.980000 -0.005610 0
6.985000 -0.021026 0
6.990000 -0.034184 0
6.995000 -0.045244 0
7.000000 -0.054392 0
7.005000 -0.061833 0
7.010000 -0.067773 0
7.015000 -0.072418 0
7.020000 -0.075963 0
7.025000 -0.078586 0
7.030000 -0.080450 0
7.035000 -0.081696 0
7.040000 -0.082221 0
7.045000 -0.081394 0
7.050000 -0.080572 0
7.055000 -0.079753 0
7.060000 -0.078939 0
7.065000 -0.078129 0
7.070000 -0.077322 0
7.075000 -0.076520 0
7.080000 -0.075720 0
7.085000 -0.074922 0
7.090000 -0.074125 0
7.095000 -0.073324 0
7.100000 -0.072513 0
7.105000 -0.071682 0
7.110000 -0.070809 0
7.115000 -0.069863 0
7.120000 -0.068791 0
7.125000 -0.067515 0
7.130000 -0.065914 0
7.135000 -0.063820 0
7.140000 -0.060999 0
7.145000 -0.057147 0
7.150000 -0.051885 0
7.155000 -0.044767 0
7.160000 -0.035303 0
7.165000 -0.023003 0
7.170000 -0.007435 0
7.175000 0.011692 0
7.180000 0.034445 0
7.185000 0.060578 0
7.190000 0.089471 0
7.195000 0.120102 0
7.200000 0.151069 0
7.205000 0.180678 0
7.210000 0.207082 0
7.215000 0.228467 0
7.220000 0.243257 0
7.225000 0.250302 1
7.230000 0.249029 0
7.235000 0.239512 0
7.240000 0.222473 0
7.245000 0.199181 0
7.250000 0.171304 0
7.255000 0.140697 0
7.260000 0.109176 0
7.265000 0.078243 0
7.270000 0.048684 0
7.275000 0.019956 0
7.280000 -0.010493 0
7.285000 -0.047155 0
7.290000 -0.094232 0
7.295000 -0.150715 0
7.300000 -0.205121 0
7.305000 -0.234425 2
7.310000 -0.209106 0
7.315000 -0.101229 0
7.320000 0.106592 0
7.325000 0.407458 0
7.330000 0.752028 0
7.335000 1.044850 0
7.340000 1.178503 3
7.345000 1.095761 0
7.350000 0.827034 0
7.355000 0.466399 0
7.360000 0.117617 0
7.365000 -0.149270 0
7.370000 -0.306541 0
7.375000 -0.357845 4
7.380000 -0.327376 0
7.385000 -0.250949 0
7.390000 -0.164004 0
7.395000 -0.089874 0
7.400000 -0.035892 0
7.405000 0.001752 0
7.410000 0.030364 0
7.415000 0.055812 0
7.420000 0.081299 0
7.425000 0.108062 0
7.430000 0.136314 0
7.435000 0.165826 0
7.440000 0.196171 0
7.445000 0.226812 0
7.450000 0.257135 0
7.455000 0.286469 0
7.460000 0.314111 0
7.465000 0.339352 0
7.470000 0.361511 0
7.475000 0.379957 0
7.480000 0.394144 0
7.485000 0.403636 0
7.490000 0.408128 5
7.495000 0.407461 0
7.500000 0.401633 0
7.505000 0.390796 0
7.510000 0.375252 0
7.515000 0.355437 0
7.520000 0.331900 0
7.525000 0.305278 0
7.530000 0.276267 0
7.535000 0.245592 0
7.540000 0.213973 0
7.545000 0.182105 0
7.550000 0.150626 0
7.555000 0.120104 0
7.560000 0.091017 0
7.565000 0.063749 0
7.570000 0.038586 0
7.575000 0.015716 0
7.580000 -0.004761 0
7.585000 -0.022828 0
7.590000 -0.038536 0
7.595000 -0.051991 0
7.600000 -0.063343 0
7.605000 -0.072769 0
7.610000 -0.080466 0
7.615000 -0.086635 0
7.620000 -0.091479 0
7.625000 -0.095189 0
7.630000 -0.097944 0
7.635000 -0.099909 0
7.640000 -0.101225 0
7.645000 -0.102020 0
7.650000 -0.101343 0
7.655000 -0.100421 0
7.660000 -0.099504 0
7.665000 -0.098591 0
7.670000 -0.097683 0
7.675000 -0.096779 0
7.680000 -0.095880 0
7.685000 -0.094984 0
7.690000 -0.094091 0
7.695000 -0.093200 0
7.700000 -0.092308 0
7.705000 -0.091410 0
7.710000 -0.090498 0
7.715000 -0.089557 0
7.720000 -0.088561 0
7.725000 -0.087472 0
7.730000 -0.086226 0
7.735000 -0.084729 0
7.740000 -0.082845 0
7.745000 -0.080381 0
7.750000 -0.077082 0
7.755000 -0.072620 0
7.760000 -0.066599 0
7.765000 -0.058562 0
7.770000 -0.048028 0
7.775000 -0.034531 0
7.780000 -0.017689 0
7.785000 0.002716 0
7.790000 0.026658 0
7.795000 0.053788 0
7.800000 0.083384 0
7.805000 0.114336 0
7.810000 0.145190 0
7.815000 0.174239 0
7.820000 0.199674 0
7.825000 0.219764 0
7.830000 0.233051 0
7.835000 0.238524 1
7.840000 0.235747 0
7.845000 0.224916 0
7.850000 0.206833 0
7.855000 0.182813 0
7.860000 0.154519 0
7.865000 0.123771 0
7.870000 0.092315 0
7.875000 0.061564 0
7.880000 0.032190 0
7.885000 0.003526 0
7.890000 -0.027067 0
7.895000 -0.064040 0
7.900000 -0.111397 0
7.905000 -0.167916 0
7.910000 -0.222193 0
7.915000 -0.251723 2
7.920000 -0.227734 0
7.925000 -0.122877 0
7.930000 0.080335 0
7.935000 0.376716 0
7.940000 0.721008 0
7.945000 1.022721 0
7.950000 1.175769 3
7.955000 1.117183 0
7.960000 0.867279 0
7.965000 0.512660 0
7.970000 0.156490 0
7.975000 -0.126680 0
7.980000 -0.303675 0
7.985000 -0.373591 4
7.990000 -0.356876 0
7.995000 -0.287001 0
8.000000 -0.199717 0
8.005000 -0.121162 0
8.010000 -0.062047 0
8.015000 -0.020672 0
8.020000 0.009825 0
8.025000 0.035813 0
8.030000 0.061146 0
8.035000 0.087505 0
8.040000 0.115331 0
8.045000 0.144505 0
8.050000 0.174663 0
8.055000 0.205314 0
8.060000 0.235886 0
8.065000 0.265742 0
8.070000 0.294207 0
8.075000 0.320591 0
8.080000 0.344214 0
8.085000 0.364436 0
8.090000 0.380686 0
8.095000 0.392488 0
8.100000 0.399480 0
8.105000 0.401438 5
8.110000 0.398283 0
8.115000 0.390086 0
8.120000 0.377068 0
8.125000 0.359584 0
8.130000 0.338112 0
8.135000 0.313229 0
8.140000 0.285582 0
8.145000 0.255865 0
8.150000 0.224786 0
8.155000 0.193042 0
8.160000 0.161290 0
8.165000 0.130130 0
8.170000 0.100086 0
8.175000 0.071594 0
8.180000 0.044998 0
8.185000 0.020547 0
8.190000 -0.001602 0
8.195000 -0.021376 0
8.200000 -0.038778 0
8.205000 -0.053871 0
8.210000 -0.066771 0
8.215000 -0.077631 0
8.220000 -0.086630 0
8.225000 -0.093960 0
8.230000 -0.099819 0
8.235000 -0.104403 0
8.240000 -0.107896 0
8.245000 -0.110473 0
8.250000 -0.112287 0
8.255000 -0.113479 0
8.260000 -0.114167 0
8.265000 -0.113424 0
8.270000 -0.112442 0
8.275000 -0.111464 0
8.280000 -0.110492 0
8.285000 -0.109524 0
8.290000 -0.108561 0
8.295000 -0.107603 0
8.300000 -0.106649 0
8.305000 -0.105698 0
8.310000 -0.104749 0
8.315000 -0.103800 0
8.320000 -0.102845 0
8.325000 -0.101878 0
8.330000 -0.100883 0
8.335000 -0.099839 0
8.340000 -0.098706 0
8.345000 -0.097428 0
8.350000 -0.095917 0
8.355000 -0.094046 0
8.360000 -0.091636 0
8.365000 -0.088449 0
8.370000 -0.084179 0
8.375000 -0.078450 0
8.380000 -0.070828 0
8.385000 -0.060846 0
8.390000 -0.048042 0
8.395000 -0.032017 0
8.400000 -0.012512 0
8.405000 0.010519 0
8.410000 0.036829 0
8.415000 0.065822 0
8.420000 0.096530 0
8.425000 0.127634 0
8.430000 0.157538 0
8.435000 0.184494 0
8.440000 0.206766 0
8.445000 0.222816 0
8.450000 0.231474 0
8.455000 0.232086 1
8.460000 0.224591 0
8.465000 0.209532 0
8.470000 0.187992 0
8.475000 0.161462 0
8.480000 0.131672 0
8.485000 0.100388 0
8.490000 0.069182 0
8.495000 0.039129 0
8.500000 0.010329 0
8.505000 -0.018725 0
8.510000 -0.051543 0
8.515000 -0.092709 0
8.520000 -0.144579 0
8.525000 -0.202199 0
8.530000 -0.249757 0
8.535000 -0.262045 2
8.540000 -0.210633 0
8.545000 -0.071375 0
8.550000 0.166630 0
8.555000 0.486617 0
8.560000 0.828906 0
8.565000 1.095263 0
8.570000 1.188551 3
8.575000 1.067348 0
8.580000 0.773380 0
8.585000 0.407647 0
8.590000 0.070508 0
8.595000 -0.175992 0
8.600000 -0.311153 0
8.605000 -0.343485 4
8.610000 -0.300502 0
8.615000 -0.219271 0
8.620000 -0.133724 0
8.625000 -0.063903 0
8.630000 -0.014138 0
8.635000 0.020796 0
8.640000 0.048213 0
8.645000 0.073416 0
8.650000 0.099084 0
8.655000 0.126146 0
8.660000 0.154676 0
8.665000 0.184380 0
8.670000 0.214796 0
8.675000 0.245364 0
8.680000 0.275446 0
8.685000 0.304357 0
8.690000 0.331385 0
8.695000 0.355822 0
8.700000 0.376989 0
8.705000 0.394274 0
8.710000 0.407154 0
8.715000 0.415224 0
8.720000 0.418216 5
8.725000 0.416016 0
8.730000 0.408664 0
8.735000 0.396360 0
8.740000 0.379448 0
8.745000 0.358404 0
8.750000 0.333811 0
8.755000 0.306330 0
8.760000 0.276674 0
8.765000 0.245576 0
8.770000 0.213756 0
8.775000 0.181896 0
8.780000 0.150620 0
8.785000 0.120470 0
8.790000 0.091898 0
8.795000 0.065258 0
8.800000 0.040805 0
8.805000 0.018696 0
8.810000 -0.000998 0
8.815000 -0.018284 0
8.820000 -0.033234 0
8.825000 -0.045972 0
8.830000 -0.056661 0
8.835000 -0.065487 0
8.840000 -0.072651 0
8.845000 -0.078358 0
8.850000 -0.082807 0
8.855000 -0.086188 0
8.860000 -0.088674 0
8.865000 -0.090424 0
8.870000 -0.091575 0
8.875000 -0.092021 0
8.880000 -0.091146 0
8.885000 -0.090275 0
8.890000 -0.089408 0
8.895000 -0.088546 0
8.900000 -0.087688 0
8.905000 -0.086834 0
8.910000 -0.085983 0
8.915000 -0.085136 0
8.920000 -0.084292 0
8.925000 -0.083448 0
8.930000 -0.082601 0
8.935000 -0.081745 0
8.940000 -0.080868 0
8.945000 -0.079953 0
8.950000 -0.078968 0
8.955000 -0.077863 0
8.960000 -0.076564 0
8.965000 -0.074955 0
8.970000 -0.072878 0
8.975000 -0.070109 0
8.980000 -0.066359 0
8.985000 -0.061265 0
8.990000 -0.054396 0
8.995000 -0.045277 0
9.000000 -0.033422 0
9.005000 -0.018395 0
9.010000 0.000121 0
9.015000 0.022236 0
9.020000 0.047774 0
9.025000 0.076201 0
9.030000 0.106596 0
9.035000 0.137660 0
9.040000 0.167786 0
9.045000 0.195180 0
9.050000 0.218037 0
9.055000 0.234731 0
9.060000 0.244008 0
9.065000 0.245139 1
9.070000 0.238015 0
9.075000 0.223164 0
9.080000 0.201683 0
9.085000 0.175108 0
9.090000 0.145223 0
9.095000 0.113851 0
9.100000 0.082607 0
9.105000 0.052564 0
9.110000 0.023744 0
9.115000 -0.005573 0
9.120000 -0.039188 0
9.125000 -0.081787 0
9.130000 -0.135115 0
9.135000 -0.192543 0
9.140000 -0.235907 0
9.145000 -0.238035 2
9.150000 -0.169821 0
9.155000 -0.008335 0
9.160000 0.252647 0
9.165000 0.585998 0
9.170000 0.917828 0
9.175000 1.141576 0
9.180000 1.168851 3
9.185000 0.984576 0
9.190000 0.656152 0
9.195000 0.289972 0
9.200000 -0.023663 0
9.205000 -0.236603 0
9.210000 -0.338511 0
9.215000 -0.344518 4
9.220000 -0.286024 0
9.225000 -0.200407 0
9.230000 -0.118136 0
9.235000 -0.054282 0
9.240000 -0.009540 0
9.245000 0.022560 0
9.250000 0.048960 0
9.255000 0.074150 0
9.260000 0.100198 0
9.265000 0.127714 0
9.270000 0.156638 0
9.275000 0.186618 0
9.280000 0.217165 0
9.285000 0.247696 0
9.290000 0.277563 0
9.295000 0.306074 0
9.300000 0.332518 0
9.305000 0.356196 0
9.310000 0.376446 0
9.315000 0.392678 0
9.320000 0.404401 0
9.325000 0.411244 0
9.330000 0.412978 5
9.335000 0.409526 0
9.340000 0.400970 0
9.345000 0.387543 0
9.350000 0.369622 0
9.355000 0.347708 0
9.360000 0.322402 0
9.365000 0.294378 0
9.370000 0.264352 0
9.375000 0.233054 0
9.380000 0.201194 0
9.385000 0.169440 0
9.390000 0.138396 0
9.395000 0.108582 0
9.400000 0.080428 0
9.405000 0.054265 0
9.410000 0.030324 0
9.415000 0.008745 0
9.420000 -0.010421 0
9.425000 -0.027194 0
9.430000 -0.041658 0
9.435000 -0.053945 0
9.440000 -0.064223 0
9.445000 -0.072681 0
9.450000 -0.079520 0
9.455000 -0.084945 0
9.460000 -0.089151 0
9.465000 -0.092325 0
9.470000 -0.094637 0
9.475000 -0.096241 0
9.480000 -0.097270 0
9.485000 -0.097626 0
9.490000 -0.096723 0
9.495000 -0.095824 0
9.500000 -0.094930 0
9.505000 -0.094040 0
9.510000 -0.093154 0
9.515000 -0.092273 0
9.520000 -0.091395 0
9.525000 -0.090521 0
9.530000 -0.089649 0
9.535000 -0.088778 0
9.540000 -0.087903 0
9.545000 -0.087017 0
9.550000 -0.086110 0
9.555000 -0.085160 0
9.560000 -0.084135 0
9.565000 -0.082982 0
9.570000 -0.081621 0
9.575000 -0.079935 0
9.580000 -0.077754 0
9.585000 -0.074850 0
9.590000 -0.070926 0
9.595000 -0.065609 0
9.600000 -0.058465 0
9.605000 -0.049017 0
9.610000 -0.036785 0
9.615000 -0.021342 0
9.620000 -0.002396 0
9.625000 0.020138 0
9.630000 0.046045 0
9.635000 0.074755 0
9.640000 0.105310 0
9.645000 0.136379 0
9.650000 0.166337 0
9.655000 0.193390 0
9.660000 0.215750 0
9.665000 0.231826 0
9.670000 0.240412 0
9.675000 0.240834 1
9.680000 0.233041 0
9.685000 0.217611 0
9.690000 0.195678 0
9.695000 0.168797 0
9.700000 0.138756 0
9.705000 0.107364 0
9.710000 0.076199 0
9.715000 0.046278 0
9.720000 0.017523 0
9.725000 -0.011913 0
9.730000 -0.045931 0
9.735000 -0.089156 0
9.740000 -0.142981 0
9.745000 -0.200193 0
9.750000 -0.242094 2
9.755000 -0.241337 0
9.760000 -0.169061 0
9.765000 -0.002955 0
9.770000 0.262068 0
9.775000 0.597168 0
9.780000 0.926908 0
9.785000 1.144768 0
9.790000 1.164567 3
9.795000 0.976347 0
9.800000 0.647706 0
9.805000 0.281216 0
9.810000 -0.035560 0
9.815000 -0.254776 0
9.820000 -0.364810 0
9.825000 -0.378715 4
9.830000 -0.325586 0
9.835000 -0.241387 0
9.840000 -0.157018 0
9.845000 -0.089432 0
9.850000 -0.041260 0
9.855000 -0.006989 0
9.860000 0.020341 0
9.865000 0.045669 0
9.870000 0.071485 0
9.875000 0.098664 0
9.880000 0.127279 0
9.885000 0.157057 0
9.890000 0.187563 0
9.895000 0.218264 0
9.900000 0.248559 0
9.905000 0.277796 0
9.910000 0.305296 0
9.915000 0.330378 0
9.920000 0.352386 0
9.925000 0.370718 0
9.930000 0.384853 0
9.935000 0.394373 0
9.940000 0.398984 5
9.945000 0.398533 0
9.950000 0.393012 0
9.955000 0.382561 0
9.960000 0.367461 0
9.965000 0.348123 0
9.970000 0.325067 0
9.975000 0.298896 0
9.980000 0.270275 0
9.985000 0.239901 0
9.990000 0.208471 0
9.995000 0.176661 0
10.000000 0.145101 0
10.005000 0.114353 0
10.010000 0.084903 0
10.015000 0.057144 0
10.020000 0.031380 0
10.025000 0.007821 0
10.030000 -0.013411 0
10.035000 -0.032274 0
10.040000 -0.048794 0
10.045000 -0.063054 0
10.050000 -0.075185 0
10.055000 -0.085347 0
10.060000 -0.093724 0
10.065000 -0.100509 0
10.070000 -0.105897 0
10.075000 -0.110079 0
10.080000 -0.113235 0
10.085000 -0.115530 0
10.090000 -0.117114 0
10.095000 -0.118117 0
10.100000 -0.118428 0
10.105000 -0.117421 0
10.110000 -0.116419 0
10.115000 -0.115422 0
10.120000 -0.114430 0
10.125000 -0.113442 0
10.130000 -0.112460 0
10.135000 -0.111482 0
10.140000 -0.110508 0
10.145000 -0.109537 0
10.150000 -0.108568 0
10.155000 -0.107598 0
10.160000 -0.106621 0
10.165000 -0.105629 0
10.170000 -0.104606 0
10.175000 -0.103526 0
10.180000 -0.102349 0
10.185000 -0.101012 0
10.190000 -0.099420 0
10.195000 -0.097439 0
10.200000 -0.094882 0
10.205000 -0.091501 0
10.210000 -0.086979 0
10.215000 -0.080933 0
10.220000 -0.072927 0
10.225000 -0.062496 0
10.230000 -0.049189 0
10.235000 -0.032628 0
10.240000 -0.012584 0
10.245000 0.010950 0
10.250000 0.037683 0
10.255000 0.066978 0
10.260000 0.097828 0
10.265000 0.128890 0
10.270000 0.158560 0
10.275000 0.185100 0
10.280000 0.206808 0
10.285000 0.222190 0
10.290000 0.230136 1
10.295000 0.230050 0
10.300000 0.221923 0
10.305000 0.206340 0
10.310000 0.184407 0
10.315000 0.157624 0
10.320000 0.127708 0
10.325000 0.096402 0
10.330000 0.065244 0
10.335000 0.035263 0
10.340000 0.006508 0
10.345000 -0.022585 0
10.350000 -0.055542 0
10.355000 -0.096899 0
10.360000 -0.148896 0
10.365000 -0.206502 0
10.370000 -0.253975 0
10.375000 -0.266353 2
10.380000 -0.215510 0
10.385000 -0.077495 0
10.390000 0.158736 0
10.395000 0.477293 0
10.400000 0.820246 0
10.405000 1.091124 0
10.410000 1.192779 3
10.415000 1.080304 0
10.420000 0.792781 0
10.425000 0.428163 0
10.430000 0.086629 0
10.435000 -0.167871 0
10.440000 -0.312326 0
10.445000 -0.353163 4
10.450000 -0.316081 0
10.455000 -0.237137 0
10.460000 -0.150680 0
10.465000 -0.078317 0
10.470000 -0.026011 0
10.475000 0.010600 0
10.480000 0.038766 0
10.485000 0.064107 0
10.490000 0.089622 0
10.495000 0.116442 0
10.500000 0.144739 0
10.505000 0.174270 0
10.510000 0.204606 0
10.515000 0.235212 0
10.520000 0.265475 0
10.525000 0.294730 0
10.530000 0.322280 0
10.535000 0.347426 0
10.540000 0.369490 0
10.545000 0.387851 0
10.550000 0.401970 0
10.555000 0.411416 0
10.560000 0.415886 5
10.565000 0.415223 0
10.570000 0.409423 0
10.575000 0.398637 0
10.580000 0.383159 0
10.585000 0.363419 0
10.590000 0.339958 0
10.595000 0.313405 0
10.600000 0.284447 0
10.605000 0.253800 0
10.610000 0.222180 0
10.615000 0.190277 0
10.620000 0.158725 0
10.625000 0.128092 0
10.630000 0.098858 0
10.635000 0.071410 0
10.640000 0.046038 0
10.645000 0.022936 0
10.650000 0.002211 0
10.655000 -0.016114 0
10.660000 -0.032083 0
10.665000 -0.045797 0
10.670000 -0.057399 0
10.675000 -0.067063 0
10.680000 -0.074983 0
10.685000 -0.081357 0
10.690000 -0.086386 0
10.695000 -0.090262 0
10.700000 -0.093165 0
10.705000 -0.095257 0
10.710000 -0.096685 0
10.715000 -0.097576 0
10.720000 -0.096932 0
10.725000 -0.096032 0
10.730000 -0.095137 0
10.735000 -0.094246 0
10.740000 -0.093360 0
10.745000 -0.092477 0
10.750000 -0.091599 0
10.755000 -0.090725 0
10.760000 -0.089854 0
10.765000 -0.088984 0
10.770000 -0.088115 0
10.775000 -0.087241 0
10.780000 -0.086355 0
10.785000 -0.085443 0
10.790000 -0.084485 0
10.795000 -0.083444 0
10.800000 -0.082264 0
10.805000 -0.080861 0
10.810000 -0.079110 0
10.815000 -0.076837 0
10.820000 -0.073805 0
10.825000 -0.069708 0
10.830000 -0.064171 0
10.835000 -0.056757 0
10.840000 -0.046991 0
10.845000 -0.034401 0
10.850000 -0.018580 0
10.855000 0.000745 0
10.860000 0.023628 0
10.865000 0.049824 0
10.870000 0.078736 0
10.875000 0.109380 0
10.880000 0.140417 0
10.885000 0.170223 0
10.890000 0.197019 0
10.895000 0.219045 0
10.900000 0.234747 0
10.905000 0.242958 0
10.910000 0.243039 1
10.915000 0.234964 0
10.920000 0.219325 0
10.925000 0.197257 0
10.930000 0.170303 0
10.935000 0.140232 0
10.940000 0.108829 0
10.945000 0.077654 0
10.950000 0.047715 0
10.955000 0.018946 0
10.960000 -0.010443 0
10.965000 -0.044274 0
10.970000 -0.087139 0
10.975000 -0.140616 0
10.980000 -0.198002 0
10.985000 -0.241321 0
10.990000 -0.243833 2
10.995000 -0.176892 0
11.000000 -0.017773 0
11.005000 0.240232 0
11.010000 0.571814 0
11.015000 0.906148 0
11.020000 1.138992 0
11.025000 1.180622 3
11.030000 1.008255 0
11.035000 0.684855 0
11.040000 0.318195 0
11.045000 0.001806 0
11.050000 -0.213746 0
11.055000 -0.317151 0
11.060000 -0.323543 4
11.065000 -0.264875 0
11.070000 -0.179225 0
11.075000 -0.097427 0
11.080000 -0.034412 0
11.085000 0.009499 0
11.090000 0.041035 0
11.095000 0.067168 0
11.100000 0.092296 0
11.105000 0.118380 0
11.110000 0.145961 0
11.115000 0.174939 0
11.120000 0.204937 0
11.125000 0.235442 0
11.130000 0.265851 0
11.135000 0.295497 0
11.140000 0.323668 0
11.145000 0.349639 0
11.150000 0.372702 0
11.155000 0.392192 0
11.160000 0.407524 0
11.165000 0.418218 0
11.170000 0.423925 0
11.175000 0.424443 5
11.180000 0.419730 0
11.185000 0.409904 0
11.190000 0.395241 0
11.195000 0.376158 0
11.200000 0.353197 0
11.205000 0.326992 0
11.210000 0.298246 0
11.215000 0.267697 0
11.220000 0.236084 0
11.225000 0.204123 0
11.230000 0.172474 0
11.235000 0.141728 0
11.240000 0.112384 0
11.245000 0.084845 0
11.250000 0.059413 0
11.255000 0.036287 0
11.260000 0.015575 0
11.265000 -0.002700 0
11.270000 -0.018586 0
11.275000 -0.032192 0
11.280000 -0.043668 0
11.285000 -0.053197 0
11.290000 -0.060977 0
11.295000 -0.067216 0
11.300000 -0.072120 0
11.305000 -0.075884 0
11.310000 -0.078691 0
11.315000 -0.080707 0
11.320000 -0.082077 0
11.325000 -0.082928 0
11.330000 -0.082340 0
11.335000 -0.081513 0
11.340000 -0.080690 0
11.345000 -0.079871 0
11.350000 -0.079056 0
11.355000 -0.078245 0
11.360000 -0.077438 0
11.365000 -0.076634 0
11.370000 -0.075832 0
11.375000 -0.075032 0
11.380000 -0.074229 0
11.385000 -0.073418 0
11.390000 -0.072589 0
11.395000 -0.071726 0
11.400000 -0.070799 0
11.405000 -0.069763 0
11.410000 -0.068546 0
11.415000 -0.067041 0
11.420000 -0.065094 0
11.425000 -0.062490 0
11.430000 -0.058945 0
11.435000 -0.054102 0
11.440000 -0.047533 0
11.445000 -0.038760 0
11.450000 -0.027287 0
11.455000 -0.012663 0
11.460000 0.005451 0
11.465000 0.027193 0
11.470000 0.052412 0
11.475000 0.080604 0
11.480000 0.110863 0
11.485000 0.141898 0
11.490000 0.172093 0
11.495000 0.199636 0
11.500000 0.222690 0
11.505000 0.239593 0
11.510000 0.249057 0
11.515000 0.250324 1
11.520000 0.243273 0
11.525000 0.228430 0
11.530000 0.206907 0
11.535000 0.180262 0
11.540000 0.150307 0
11.545000 0.118892 0
11.550000 0.087644 0
11.555000 0.057629 0
11.560000 0.028807 0
11.565000 -0.000666 0
11.570000 -0.034750 0
11.575000 -0.078150 0
11.580000 -0.132208 0
11.585000 -0.189334 0
11.590000 -0.230128 2
11.595000 -0.226501 0
11.600000 -0.149176 0
11.605000 0.023889 0
11.610000 0.296041 0
11.615000 0.634321 0
11.620000 0.957775 0
11.625000 1.157190 3
11.630000 1.150865 0
11.635000 0.938959 0
11.640000 0.598469 0
11.645000 0.234917 0
11.650000 -0.067693 0
11.655000 -0.267324 0
11.660000 -0.357400 4
11.665000 -0.355019 0
11.670000 -0.292253 0
11.675000 -0.205819 0
11.680000 -0.124609 0
11.685000 -0.062172 0
11.690000 -0.018409 0
11.695000 0.013257 0
11.700000 0.039569 0
11.705000 0.064818 0
11.710000 0.090959 0
11.715000 0.118561 0
11.720000 0.147553 0
11.725000 0.177588 0
11.730000 0.208180 0
11.735000 0.238758 0
11.740000 0.268683 0
11.745000 0.297274 0
11.750000 0.323833 0
11.755000 0.347669 0
11.760000 0.368131 0
11.765000 0.384633 0
11.770000 0.396685 0
11.775000 0.403916 0
11.780000 0.406089 5
11.785000 0.403117 0
11.790000 0.395067 0
11.795000 0.382155 0
11.800000 0.364739 0
11.805000 0.343301 0
11.810000 0.318420 0
11.815000 0.290755 0
11.820000 0.261006 0
11.825000 0.229891 0
11.830000 0.198113 0
11.835000 0.166340 0
11.840000 0.135175 0
11.845000 0.105149 0
11.850000 0.076698 0
11.855000 0.050168 0
11.860000 0.025805 0
11.865000 0.003764 0
11.870000 -0.015885 0
11.875000 -0.033150 0
11.880000 -0.048099 0
11.885000 -0.060854 0
11.890000 -0.071571 0
11.895000 -0.080432 0
11.900000 -0.087635 0
11.905000 -0.093379 0
11.910000 -0.097861 0
11.915000 -0.101268 0
11.920000 -0.103773 0
11.925000 -0.105530 0
11.930000 -0.106678 0
11.935000 -0.107102 0
11.940000 -0.106151 0
11.945000 -0.105205 0
11.950000 -0.104264 0
11.955000 -0.103328 0
11.960000 -0.102396 0
11.965000 -0.101468 0
11.970000 -0.100545 0
11.975000 -0.099626 0
11.980000 -0.098710 0
11.985000 -0.097795 0
11.990000 -0.096879 0
11.995000 -0.095956 0
12.000000 -0.095017 0
12.005000 -0.094046 0
12.010000 -0.093017 0
12.015000 -0.091888 0
12.020000 -0.090592 0
12.025000 -0.089033 0
12.030000 -0.087069 0
12.035000 -0.084505 0
12.040000 -0.081080 0
12.045000 -0.076463 0
12.050000 -0.070258 0
12.055000 -0.062010 0
12.060000 -0.051243 0
12.065000 -0.037502 0
12.070000 -0.020419 0
12.075000 0.000209 0
12.080000 0.024340 0
12.085000 0.051612 0
12.090000 0.081296 0
12.095000 0.112284 0
12.100000 0.143131 0
12.105000 0.172149 0
12.110000 0.197553 0
12.115000 0.217637 0
12.120000 0.230963 0
12.125000 0.236532 1
12.130000 0.233908 0
12.135000 0.223273 0
12.140000 0.205406 0
12.145000 0.181590 0
12.150000 0.153458 0
12.155000 0.122802 0
12.160000 0.091358 0
12.165000 0.060545 0
12.170000 0.031091 0
12.175000 0.002456 0
12.180000 -0.027799 0
12.185000 -0.063967 0
12.190000 -0.110211 0
12.195000 -0.166085 0
12.200000 -0.221536 0
12.205000 -0.255430 2
12.210000 -0.239722 0
12.215000 -0.146817 0
12.220000 0.042413 0
12.225000 0.326982 0
12.230000 0.668889 0
12.235000 0.984706 0
12.240000 1.168639 3
12.245000 1.146998 0
12.250000 0.924171 0
12.255000 0.579212 0
12.260000 0.217313 0
12.265000 -0.080043 0
12.270000 -0.273334 0
12.275000 -0.357643 4
12.280000 -0.351070 0
12.285000 -0.286153 0
12.290000 -0.199403 0
12.295000 -0.118956 0
12.300000 -0.057526 0
12.305000 -0.014516 0
12.310000 0.016760 0
12.315000 0.042942 0
12.320000 0.068190 0
12.325000 0.094375 0
12.330000 0.122027 0
12.335000 0.151055 0
12.340000 0.181108 0
12.345000 0.211698 0
12.350000 0.242252 0
12.355000 0.272131 0
12.360000 0.300656 0
12.365000 0.327130 0
12.370000 0.350864 0
12.375000 0.371210 0
12.380000 0.387587 0
12.385000 0.399510 0
12.390000 0.406610 0
12.395000 0.408657 5
12.400000 0.405565 0
12.405000 0.397405 0
12.410000 0.384396 0
12.415000 0.366897 0
12.420000 0.345389 0
12.425000 0.320453 0
12.430000 0.292746 0
12.435000 0.262966 0
12.440000 0.231830 0
12.445000 0.200039 0
12.450000 0.168257 0
12.455000 0.137087 0
12.460000 0.107055 0
12.465000 0.078600 0
12.470000 0.052062 0
12.475000 0.027690 0
12.480000 0.005636 0
12.485000 -0.014029 0
12.490000 -0.031313 0
12.495000 -0.046284 0
12.500000 -0.059062 0
12.505000 -0.069804 0
12.510000 -0.078691 0
12.515000 -0.085920 0
12.520000 -0.091690 0
12.525000 -0.096196 0
12.530000 -0.099626 0
12.535000 -0.102152 0
12.540000 -0.103930 0
12.545000 -0.105097 0
12.550000 -0.105536 0
12.555000 -0.104593 0
12.560000 -0.103655 0
12.565000 -0.102722 0
12.570000 -0.101793 0
12.575000 -0.100869 0
12.580000 -0.099949 0
12.585000 -0.099033 0
12.590000 -0.098122 0
12.595000 -0.097213 0
12.600000 -0.096306 0
12.605000 -0.095397 0
12.610000 -0.094482 0
12.615000 -0.093552 0
12.620000 -0.092590 0
12.625000 -0.091572 0
12.630000 -0.090455 0
12.635000 -0.089177 0
12.640000 -0.087640 0
12.645000 -0.085707 0
12.650000 -0.083184 0
12.655000 -0.079817 0
12.660000 -0.075279 0
12.665000 -0.069177 0
12.670000 -0.061060 0
12.675000 -0.050454 0
12.680000 -0.036902 0
12.685000 -0.020030 0
12.690000 0.000376 0
12.695000 0.024291 0
12.700000 0.051375 0
12.705000 0.080925 0
12.710000 0.111860 0
12.715000 0.142759 0
12.720000 0.171951 0
12.725000 0.197657 0
12.730000 0.218163 0
12.735000 0.232011 0
12.740000 0.238169 1
12.745000 0.236156 0
12.750000 0.226107 0
12.755000 0.208757 0
12.760000 0.185350 0
12.765000 0.157493 0
12.770000 0.126970 0
12.775000 0.095523 0
12.780000 0.064607 0
12.785000 0.035026 0
12.790000 0.006380 0
12.795000 -0.023582 0
12.800000 -0.059020 0
12.805000 -0.104249 0
12.810000 -0.159479 0
12.815000 -0.215727 0
12.820000 -0.252871 2
12.825000 -0.243306 0
12.830000 -0.159130 0
12.835000 0.019990 0
12.840000 0.295814 0
12.845000 0.634935 0
12.850000 0.958440 0
12.855000 1.160939 0
12.860000 1.162581 3
12.865000 0.956083 0
12.870000 0.616497 0
12.875000 0.253216 0
12.880000 -0.046894 0
12.885000 -0.241306 0
12.890000 -0.324557 4
12.895000 -0.315696 0
12.900000 -0.248912 0
12.905000 -0.162034 0
12.910000 -0.083283 0
12.915000 -0.024365 0
12.920000 0.016460 0
12.925000 0.046418 0
12.930000 0.072085 0
12.935000 0.097311 0
12.940000 0.123690 0
12.945000 0.151585 0
12.950000 0.180814 0
12.955000 0.210967 0
12.960000 0.241507 0
12.965000 0.271813 0
12.970000 0.301204 0
12.975000 0.328959 0
12.980000 0.354354 0
12.985000 0.376684 0
12.990000 0.395297 0
12.995000 0.409628 0
13.000000 0.419222 0
13.005000 0.423760 5
13.010000 0.423078 0
13.015000 0.417168 0
13.020000 0.406187 0
13.025000 0.390447 0
13.030000 0.370397 0
13.035000 0.346605 0
13.040000 0.319727 0
13.045000 0.290480 0
13.050000 0.259607 0
13.055000 0.227846 0
13.060000 0.195905 0
13.065000 0.164430 0
13.070000 0.133993 0
13.075000 0.105071 0
13.080000 0.078042 0
13.085000 0.053184 0
13.090000 0.030672 0
13.095000 0.010591 0
13.100000 -0.007055 0
13.105000 -0.022332 0
13.110000 -0.035360 0
13.115000 -0.046301 0
13.120000 -0.055343 0
13.125000 -0.062690 0
13.130000 -0.068548 0
13.135000 -0.073124 0
13.140000 -0.076609 0
13.145000 -0.079183 0
13.150000 -0.081007 0
13.155000 -0.082221 0
13.160000 -0.082722 0
13.165000 -0.081893 0
13.170000 -0.081068 0
13.175000 -0.080248 0
13.180000 -0.079431 0
13.185000 -0.078618 0
13.190000 -0.077809 0
13.195000 -0.077004 0
13.200000 -0.076202 0
13.205000 -0.075402 0
13.210000 -0.074601 0
13.215000 -0.073798 0
13.220000 -0.072984 0
13.225000 -0.072148 0
13.230000 -0.071270 0
13.235000 -0.070317 0
13.240000 -0.069235 0
13.245000 -0.067943 0
13.250000 -0.066321 0
13.255000 -0.064195 0
13.260000 -0.061330 0
13.265000 -0.057418 0
13.270000 -0.052077 0
13.275000 -0.044858 0
13.280000 -0.035272 0
13.285000 -0.022828 0
13.290000 -0.007101 0
13.295000 0.012193 0
13.300000 0.035107 0
13.305000 0.061381 0
13.310000 0.090378 0
13.315000 0.121057 0
13.320000 0.152004 0
13.325000 0.181516 0
13.330000 0.207744 0
13.335000 0.228882 0
13.340000 0.243368 0
13.345000 0.250077 1
13.350000 0.248459 0
13.355000 0.238619 0
13.360000 0.221300 0
13.365000 0.197793 0
13.370000 0.169772 0
13.375000 0.139098 0
13.380000 0.107577 0
13.385000 0.076690 0
13.390000 0.047186 0
13.395000 0.018455 0
13.400000 -0.012135 0
13.405000 -0.049121 0
13.410000 -0.096612 0
13.415000 -0.153293 0
13.420000 -0.207252 0
13.425000 -0.235124 2
13.430000 -0.207322 0
13.435000 -0.096139 0
13.440000 0.115223 0
13.445000 0.418699 0
13.450000 0.763292 0
13.455000 1.052411 0
13.460000 1.179333 3
13.465000 1.090398 0
13.470000 0.817564 0
13.475000 0.455934 0
13.480000 0.108673 0
13.485000 -0.155437 0
13.490000 -0.309725 0
13.495000 -0.358505 4
13.500000 -0.326375 0
13.505000 -0.249272 0
13.510000 -0.162426 0
13.515000 -0.088758 0
13.520000 -0.035237 0
13.525000 0.002113 0
13.530000 0.030598 0
13.535000 0.056023 0
13.540000 0.081532 0
13.545000 0.108329 0
13.550000 0.136612 0
13.555000 0.166148 0
13.560000 0.196506 0
13.565000 0.227149 0
13.570000 0.257460 0
13.575000 0.286770 0
13.580000 0.314375 0
13.585000 0.339568 0
13.590000 0.361668 0
13.595000 0.380046 0
13.600000 0.394160 0
13.605000 0.403574 0
13.610000 0.407987 5
13.615000 0.407242 0
13.620000 0.401339 0
13.625000 0.390434 0
13.630000 0.374828 0
13.635000 0.354960 0
13.640000 0.331380 0
13.645000 0.304725 0
13.650000 0.275691 0
13.655000 0.245001 0
13.660000 0.213378 0
13.665000 0.181512 0
13.670000 0.150041 0
13.675000 0.119532 0
13.680000 0.090462 0
13.685000 0.063213 0
13.690000 0.038070 0
13.695000 0.015221 0
13.700000 -0.005237 0
13.705000 -0.023286 0
13.710000 -0.038977 0
13.715000 -0.052417 0
13.720000 -0.063755 0
13.725000 -0.073170 0
13.730000 -0.080857 0
13.735000 -0.087019 0
13.740000 -0.091856 0
13.745000 -0.095561 0
13.750000 -0.098312 0
13.755000 -0.100273 0
13.760000 -0.101587 0
13.765000 -0.102379 0
13.770000 -0.101700 0
13.775000 -0.100777 0
13.780000 -0.099858 0
13.785000 -0.098943 0
13.790000 -0.098033 0
13.795000 -0.097127 0
13.800000 -0.096226 0
13.805000 -0.095328 0
13.810000 -0.094434 0
13.815000 -0.093541 0
13.820000 -0.092648 0
13.825000 -0.091748 0
13.830000 -0.090835 0
13.835000 -0.089892 0
13.840000 -0.088895 0
13.845000 -0.087805 0
13.850000 -0.086559 0
13.855000 -0.085062 0
13.860000 -0.083179 0
13.865000 -0.080719 0
13.870000 -0.077426 0
13.875000 -0.072975 0
13.880000 -0.066968 0
13.885000 -0.058952 0
13.890000 -0.048443 0
13.895000 -0.034977 0
13.900000 -0.018172 0
13.905000 0.002195 0
13.910000 0.026098 0
13.915000 0.053194 0
13.920000 0.082765 0
13.925000 0.113710 0
13.930000 0.144577 0
13.935000 0.173665 0
13.940000 0.199166 0
13.945000 0.219348 0
13.950000 0.232749 0
13.955000 0.238352 1
13.960000 0.235711 0
13.965000 0.225010 0
13.970000 0.207044 0
13.975000 0.183115 0
13.980000 0.154884 0
13.985000 0.124165 0
13.990000 0.092710 0
13.995000 0.061936 0
14.000000 0.032536 0
14.005000 0.003878 0
14.010000 -0.026632 0
14.015000 -0.063417 0
14.020000 -0.110530 0
14.025000 -0.166924 0
14.030000 -0.221465 0
14.035000 -0.251882 2
14.040000 -0.229493 0
14.045000 -0.126846 0
14.050000 0.073890 0
14.055000 0.368298 0
14.060000 0.712331 0
14.065000 1.016534 0
14.070000 1.174635 3
14.075000 1.123762 0
14.080000 0.880551 0
14.085000 0.528560 0
14.090000 0.170076 0
14.095000 -0.119118 0
14.100000 -0.303891 0
14.105000 -0.381531 4
14.110000 -0.370886 0
14.115000 -0.304255 0
14.120000 -0.217231 0
14.125000 -0.136935 0
14.130000 -0.075518 0
14.135000 -0.032323 0
14.140000 -0.000818 0
14.145000 0.025522 0
14.150000 0.050839 0
14.155000 0.077032 0
14.160000 0.104664 0
14.165000 0.133672 0
14.170000 0.163726 0
14.175000 0.194359 0
14.180000 0.225017 0
14.185000 0.255085 0
14.190000 0.283901 0
14.195000 0.310785 0
14.200000 0.335063 0
14.205000 0.356093 0
14.210000 0.373296 0
14.215000 0.386177 0
14.220000 0.394354 0
14.225000 0.397572 5
14.230000 0.395717 0
14.235000 0.388824 0
14.240000 0.377072 0
14.245000 0.360778 0
14.250000 0.340383 0
14.255000 0.316431 0
14.260000 0.289543 0
14.265000 0.260394 0
14.270000 0.229681 0
14.275000 0.198096 0
14.280000 0.166303 0
14.285000 0.134914 0
14.290000 0.104472 0
14.295000 0.075436 0
14.300000 0.048177 0
14.305000 0.022972 0
14.310000 0.000008 0
14.315000 -0.020614 0
14.320000 -0.038870 0
14.325000 -0.054803 0
14.330000 -0.068508 0
14.335000 -0.080124 0
14.340000 -0.089817 0
14.345000 -0.097775 0
14.350000 -0.104190 0
14.355000 -0.109258 0
14.360000 -0.113166 0
14.365000 -0.116091 0
14.370000 -0.118193 0
14.375000 -0.119616 0
14.380000 -0.120489 0
14.385000 -0.120708 0
14.390000 -0.119690 0
14.395000 -0.118676 0
14.400000 -0.117668 0
14.405000 -0.116665 0
14.410000 -0.115666 0
14.415000 -0.114673 0
14.420000 -0.113683 0
14.425000 -0.112698 0
14.430000 -0.111716 0
14.435000 -0.110735 0
14.440000 -0.109752 0
14.445000 -0.108762 0
14.450000 -0.107753 0
14.455000 -0.106708 0
14.460000 -0.105600 0
14.465000 -0.104384 0
14.470000 -0.102991 0
14.475000 -0.101320 0
14.480000 -0.099226 0
14.485000 -0.096511 0
14.490000 -0.092913 0
14.495000 -0.088104 0
14.500000 -0.081690 0
14.505000 -0.073227 0
14.510000 -0.062250 0
14.515000 -0.048318 0
14.520000 -0.031078 0
14.525000 -0.010339 0
14.530000 0.013854 0
14.535000 0.041148 0
14.540000 0.070835 0
14.545000 0.101847 0
14.550000 0.132786 0
14.555000 0.162016 0
14.560000 0.187800 0
14.565000 0.208463 0
14.570000 0.222575 0
14.575000 0.229112 1
14.580000 0.227583 0
14.585000 0.218085 0
14.590000 0.201302 0
14.595000 0.178417 0
14.600000 0.150974 0
14.605000 0.120707 0
14.610000 0.089336 0
14.615000 0.058333 0
14.620000 0.028598 0
14.625000 -0.000044 0
14.630000 -0.029470 0
14.635000 -0.063483 0
14.640000 -0.106524 0
14.645000 -0.160005 0
14.650000 -0.217331 0
14.655000 -0.261100 0
14.660000 -0.265452 2
14.665000 -0.202504 0
14.670000 -0.049699 0
14.675000 0.200936 0
14.680000 0.528000 0
14.685000 0.866964 0
14.690000 1.118320 0
14.695000 1.189824 3
14.700000 1.047410 0
14.705000 0.741446 0
14.710000 0.374522 0
14.715000 0.043569 0
14.720000 -0.193865 0
14.725000 -0.320222 0
14.730000 -0.345759 4
14.735000 -0.298813 0
14.740000 -0.216343 0
14.745000 -0.131332 0
14.750000 -0.062637 0
14.755000 -0.013802 0
14.760000 0.020628 0
14.765000 0.047870 0
14.770000 0.073061 0
14.775000 0.098773 0
14.780000 0.125883 0
14.785000 0.154450 0
14.790000 0.184176 0
14.795000 0.214602 0
14.800000 0.245170 0
14.805000 0.275251 0
14.810000 0.304163 0
14.815000 0.331201 0
14.820000 0.355665 0
14.825000 0.376881 0
14.830000 0.394241 0
14.835000 0.407226 0
14.840000 0.415432 0
14.845000 0.418590 5
14.850000 0.416580 0
14.855000 0.409439 0
14.860000 0.397356 0
14.865000 0.380668 0
14.870000 0.359838 0
14.875000 0.335440 0
14.880000 0.308126 0
14.885000 0.278599 0
14.890000 0.247584 0
14.895000 0.215798 0
14.900000 0.183920 0
14.905000 0.152572 0
14.910000 0.122302 0
14.915000 0.093564 0
14.920000 0.066718 0
14.925000 0.042028 0
14.930000 0.019659 0
14.935000 -0.000309 0
14.940000 -0.017875 0
14.945000 -0.033105 0
14.950000 -0.046114 0
14.955000 -0.057060 0
14.960000 -0.066126 0
14.965000 -0.073508 0
14.970000 -0.079410 0
14.975000 -0.084030 0
14.980000 -0.087558 0
14.985000 -0.090170 0
14.990000 -0.092024 0
14.995000 -0.093260 0
15.000000 -0.093763 0
15.005000 -0.092879 0
15.010000 -0.091999 0
15.015000 -0.091124 0
15.020000 -0.090253 0
15.025000 -0.089386 0
15.030000 -0.088523 0
15.035000 -0.087665 0
15.040000 -0.086810 0
15.045000 -0.085957 0
15.050000 -0.085106 0
15.055000 -0.084253 0
15.060000 -0.083392 0
15.065000 -0.082515 0
15.070000 -0.081604 0
15.075000 -0.080633 0
15.080000 -0.079558 0
15.085000 -0.078310 0
15.090000 -0.076789 0
15.095000 -0.074848 0
15.100000 -0.072285 0
15.105000 -0.068831 0
15.110000 -0.064147 0
15.115000 -0.057823 0
15.120000 -0.049398 0
15.125000 -0.038389 0
15.130000 -0.024342 0
15.135000 -0.006899 0
15.140000 0.014118 0
15.145000 0.038631 0
15.150000 0.066228 0
15.155000 0.096118 0
15.160000 0.127131 0
15.165000 0.157761 0
15.170000 0.186277 0
15.175000 0.210873 0
15.180000 0.229856 0
15.185000 0.241836 0
15.190000 0.245895 1
15.195000 0.241703 0
15.200000 0.229558 0
15.205000 0.210357 0
15.210000 0.185480 0
15.215000 0.156627 0
15.220000 0.125616 0
15.225000 0.094158 0
15.230000 0.063573 0
15.235000 0.034366 0
15.240000 0.005596 0
15.245000 -0.025700 0
15.250000 -0.064113 0
15.255000 -0.113193 0
15.260000 -0.170434 0
15.265000 -0.222686 0
15.270000 -0.246124 2
15.275000 -0.211752 0
15.280000 -0.093168 0
15.285000 0.124715 0
15.290000 0.431954 0
15.295000 0.776551 0
15.300000 1.063214 0
15.305000 1.188365 3
15.310000 1.097674 0
15.315000 0.822885 0
15.320000 0.460608 0
15.325000 0.114742 0
15.330000 -0.146260 0
15.335000 -0.296563 0
15.340000 -0.341423 4
15.345000 -0.306381 0
15.350000 -0.228034 0
15.355000 -0.141579 0
15.360000 -0.069243 0
15.365000 -0.017145 0
15.370000 0.019203 0
15.375000 0.047186 0
15.380000 0.072458 0
15.385000 0.097988 0
15.390000 0.124863 0
15.395000 0.153225 0
15.400000 0.182807 0
15.405000 0.213162 0
15.410000 0.243734 0
15.415000 0.273893 0
15.420000 0.302954 0
15.425000 0.330205 0
15.430000 0.354933 0
15.435000 0.376454 0
15.440000 0.394143 0
15.445000 0.407467 0
15.450000 0.416007 0
15.455000 0.419479 5
15.460000 0.417754 0
15.465000 0.410859 0
15.470000 0.398979 0
15.475000 0.382446 0
15.480000 0.361729 0
15.485000 0.337402 0
15.490000 0.310126 0
15.495000 0.280611 0
15.500000 0.249593 0
15.505000 0.217795 0
15.510000 0.185908 0
15.515000 0.154561 0
15.520000 0.124305 0
15.525000 0.095601 0
15.530000 0.068810 0
15.535000 0.044195 0
15.540000 0.021921 0
15.545000 0.002064 0
15.550000 -0.015379 0
15.555000 -0.030476 0
15.560000 -0.043349 0
15.565000 -0.054159 0
15.570000 -0.063092 0
15.575000 -0.070349 0
15.580000 -0.076136 0
15.585000 -0.080652 0
15.590000 -0.084090 0
15.595000 -0.086625 0
15.600000 -0.088414 0
15.605000 -0.089598 0
15.610000 -0.090069 0
15.615000 -0.089203 0
15.620000 -0.088342 0
15.625000 -0.087485 0
15.630000 -0.086632 0
15.635000 -0.085784 0
15.640000 -0.084939 0
15.645000 -0.084098 0
15.650000 -0.083261 0
15.655000 -0.082425 0
15.660000 -0.081591 0
15.665000 -0.080753 0
15.670000 -0.079907 0
15.675000 -0.079040 0
15.680000 -0.078135 0
15.685000 -0.077160 0
15.690000 -0.076067 0
15.695000 -0.074779 0
15.700000 -0.073184 0
15.705000 -0.071120 0
15.710000 -0.068366 0
15.715000 -0.064631 0
15.720000 -0.059550 0
15.725000 -0.052693 0
15.730000 -0.043582 0
15.735000 -0.031730 0
15.740000 -0.016699 0
15.745000 0.001827 0
15.750000 0.023959 0
15.755000 0.049516 0
15.760000 0.077962 0
15.765000 0.108367 0
15.770000 0.139423 0
15.775000 0.169513 0
15.780000 0.196838 0
15.785000 0.219586 0
15.790000 0.236132 0
15.795000 0.245227 0
15.800000 0.246152 1
15.805000 0.238814 0
15.810000 0.223758 0
15.815000 0.202099 0
15.820000 0.175388 0
15.825000 0.145421 0
15.830000 0.114022 0
15.835000 0.082801 0
15.840000 0.052806 0
15.845000 0.024005 0
15.850000 -0.005408 0
15.855000 -0.039325 0
15.860000 -0.082417 0
15.865000 -0.136173 0
15.870000 -0.193439 0
15.875000 -0.235443 2
15.880000 -0.234641 0
15.885000 -0.161946 0
15.890000 0.005066 0
15.895000 0.271277 0
15.900000 0.607019 0
15.905000 0.935466 0
15.910000 1.149082 0
15.915000 1.162384 3
15.920000 0.967984 0
15.925000 0.636061 0
15.930000 0.270131 0
15.935000 -0.043037 0
15.940000 -0.257086 0
15.945000 -0.361740 0
15.950000 -0.371151 4
15.955000 -0.315258 0
15.960000 -0.230305 0
15.965000 -0.146717 0
15.970000 -0.080540 0
15.975000 -0.033628 0
15.980000 -0.000133 0
15.985000 0.026873 0
15.990000 0.052153 0
15.995000 0.078047 0
16.000000 0.105338 0
16.005000 0.134056 0
16.010000 0.163905 0
16.015000 0.194436 0
16.020000 0.225106 0
16.025000 0.255302 0
16.030000 0.284363 0
16.035000 0.311605 0
16.040000 0.336343 0
16.045000 0.357921 0
16.050000 0.375743 0
16.055000 0.389294 0
16.060000 0.398168 0
16.065000 0.402088 5
16.070000 0.400918 0
16.075000 0.394672 0
16.080000 0.383511 0
16.085000 0.367738 0
16.090000 0.347783 0
16.095000 0.324185 0
16.100000 0.297563 0
16.105000 0.268594 0
16.110000 0.237980 0
16.115000 0.206423 0
16.120000 0.174596 0
16.125000 0.143123 0
16.130000 0.112557 0
16.135000 0.083372 0
16.140000 0.055947 0
16.145000 0.030571 0
16.150000 0.007436 0
16.155000 -0.013349 0
16.160000 -0.031757 0
16.165000 -0.047826 0
16.170000 -0.061653 0
16.175000 -0.073374 0
16.180000 -0.083157 0
16.185000 -0.091190 0
16.190000 -0.097669 0
16.195000 -0.102790 0
16.200000 -0.106743 0
16.205000 -0.109706 0
16.210000 -0.111841 0
16.215000 -0.113295 0
16.220000 -0.114195 0
16.225000 -0.114442 0
16.230000 -0.113455 0
16.235000 -0.112473 0
16.240000 -0.111495 0
16.245000 -0.110523 0
16.250000 -0.109555 0
16.255000 -0.108592 0
16.260000 -0.107633 0
16.265000 -0.106678 0
16.270000 -0.105725 0
16.275000 -0.104774 0
16.280000 -0.103820 0
16.285000 -0.102858 0
16.290000 -0.101876 0
16.295000 -0.100857 0
16.300000 -0.099770 0
16.305000 -0.098569 0
16.310000 -0.097183 0
16.315000 -0.095504 0
16.320000 -0.093383 0
16.325000 -0.090612 0
16.330000 -0.086920 0
16.335000 -0.081967 0
16.340000 -0.075348 0
16.345000 -0.066610 0
16.350000 -0.055284 0
16.355000 -0.040933 0
16.360000 -0.023218 0
16.365000 -0.001976 0
16.370000 0.022704 0
16.375000 0.050414 0
16.380000 0.080379 0
16.385000 0.111463 0
16.390000 0.142205 0
16.395000 0.170925 0
16.400000 0.195866 0
16.405000 0.215370 0
16.410000 0.228059 0
16.415000 0.232994 1
16.420000 0.229795 0
16.425000 0.218684 0
16.430000 0.200466 0
16.435000 0.176424 0
16.440000 0.148179 0
16.445000 0.117495 0
16.450000 0.086073 0
16.455000 0.055300 0
16.460000 0.025879 0
16.465000 -0.002727 0
16.470000 -0.032914 0
16.475000 -0.068893 0
16.480000 -0.114805 0
16.485000 -0.170416 0
16.490000 -0.226235 0
16.495000 -0.261899 2
16.500000 -0.250000 0
16.505000 -0.163143 0
16.510000 0.018371 0
16.515000 0.295688 0
16.520000 0.635170 0
16.525000 0.958552 0
16.530000 1.161794 0
16.535000 1.165834 3
16.540000 0.963540 0
16.545000 0.626997 0
16.550000 0.262316 0
16.555000 -0.044157 0
16.560000 -0.248265 0
16.565000 -0.342200 0
16.570000 -0.342470 4
16.575000 -0.281014 0
16.580000 -0.194843 0
16.585000 -0.113381 0
16.590000 -0.050629 0
16.595000 -0.006689 0
16.600000 0.025015 0
16.605000 0.051290 0
16.610000 0.076479 0
16.615000 0.102561 0
16.620000 0.130110 0
16.625000 0.159054 0
16.630000 0.189040 0
16.635000 0.219581 0
16.640000 0.250099 0
16.645000 0.279949 0
16.650000 0.308447 0
16.655000 0.334888 0
16.660000 0.358577 0
16.665000 0.378859 0
16.670000 0.395148 0
16.675000 0.406955 0
16.680000 0.413911 0
16.685000 0.415783 5
16.690000 0.412493 0
16.695000 0.404114 0
16.700000 0.390874 0
16.705000 0.373141 0
16.710000 0.351404 0
16.715000 0.326258 0
16.720000 0.298365 0
16.725000 0.268436 0
16.730000 0.237192 0
16.735000 0.205340 0
16.740000 0.173547 0
16.745000 0.142416 0
16.750000 0.112471 0
16.755000 0.084146 0
16.760000 0.057777 0
16.765000 0.033603 0
16.770000 0.011770 0
16.775000 -0.007660 0
16.780000 -0.024701 0
16.785000 -0.039432 0
16.790000 -0.051977 0
16.795000 -0.062499 0
16.800000 -0.071184 0
16.805000 -0.078231 0
16.810000 -0.083841 0
16.815000 -0.088211 0
16.820000 -0.091528 0
16.825000 -0.093962 0
16.830000 -0.095669 0
16.835000 -0.096784 0
16.840000 -0.097200 0
16.845000 -0.096298 0
16.850000 -0.095402 0
16.855000 -0.094509 0
16.860000 -0.093622 0
16.865000 -0.092738 0
16.870000 -0.091859 0
16.875000 -0.090983 0
16.880000 -0.090112 0
16.885000 -0.089242 0
16.890000 -0.088374 0
16.895000 -0.087503 0
16.900000 -0.086623 0
16.905000 -0.085725 0
16.910000 -0.084790 0
16.915000 -0.083789 0
16.920000 -0.082675 0
16.925000 -0.081376 0
16.930000 -0.079785 0
16.935000 -0.077748 0
16.940000 -0.075055 0
16.945000 -0.071427 0
16.950000 -0.066515 0
16.955000 -0.059904 0
16.960000 -0.051127 0
16.965000 -0.039705 0
16.970000 -0.025194 0
16.975000 -0.007259 0
16.980000 0.014250 0
16.985000 0.039214 0
16.990000 0.067174 0
16.995000 0.097294 0
17.000000 0.128361 0
17.005000 0.158841 0
17.010000 0.186990 0
17.015000 0.211014 0
17.020000 0.229253 0
17.025000 0.240370 0
17.030000 0.243512 1
17.035000 0.238422 0
17.040000 0.225466 0
17.045000 0.205596 0
17.050000 0.180229 0
17.055000 0.151081 0
17.060000 0.119963 0
17.065000 0.088554 0
17.070000 0.058112 0
17.075000 0.029029 0
17.080000 0.000196 0
17.085000 -0.031531 0
17.090000 -0.070783 0
17.095000 -0.120787 0
17.100000 -0.178269 0
17.105000 -0.229148 0
17.110000 -0.248997 2
17.115000 -0.208852 0
17.120000 -0.082954 0
17.125000 0.142391 0
17.130000 0.454706 0
17.135000 0.798749 0
17.140000 1.077410 0
17.145000 1.189042 3
17.150000 1.082594 0
17.155000 0.795959 0
17.160000 0.431102 0
17.165000 0.092203 0
17.170000 -0.155661 0
17.175000 -0.290679 0
17.180000 -0.321621 4
17.185000 -0.277015 0
17.190000 -0.195065 0
17.195000 -0.110185 0
17.200000 -0.041970 0
17.205000 0.006107 0
17.210000 0.039867 0
17.215000 0.066729 0
17.220000 0.091816 0
17.225000 0.117587 0
17.230000 0.144824 0
17.235000 0.173519 0
17.240000 0.203331 0
17.245000 0.233763 0
17.250000 0.264218 0
17.255000 0.294030 0
17.260000 0.322483 0
17.265000 0.348843 0
17.270000 0.372386 0
17.275000 0.392430 0
17.280000 0.408367 0
17.285000 0.419694 0
17.290000 0.426037 0
17.295000 0.427173 5
17.300000 0.423038 0
17.305000 0.413734 0
17.310000 0.399523 0
17.315000 0.380816 0
17.320000 0.358149 0
17.325000 0.332161 0
17.330000 0.303558 0
17.335000 0.273086 0
17.340000 0.241498 0
17.345000 0.209519 0
17.350000 0.177824 0
17.355000 0.147014 0
17.360000 0.117600 0
17.365000 0.089993 0
17.370000 0.064500 0
17.375000 0.041328 0
17.380000 0.020585 0
17.385000 0.002296 0
17.390000 -0.013591 0
17.395000 -0.027183 0
17.400000 -0.038634 0
17.405000 -0.048130 0
17.410000 -0.055873 0
17.415000 -0.062074 0
17.420000 -0.066939 0
17.425000 -0.070668 0
17.430000 -0.073445 0
17.435000 -0.075435 0
17.440000 -0.076786 0
17.445000 -0.077624 0
17.450000 -0.077057 0
17.455000 -0.076256 0
17.460000 -0.075459 0
17.465000 -0.074667 0
17.470000 -0.073878 0
17.475000 -0.073092 0
17.480000 -0.072311 0
17.485000 -0.071532 0
17.490000 -0.070756 0
17.495000 -0.069979 0
17.500000 -0.069200 0
17.505000 -0.068411 0
17.510000 -0.067603 0
17.515000 -0.066754 0
17.520000 -0.065835 0
17.525000 -0.064793 0
17.530000 -0.063551 0
17.535000 -0.061990 0
17.540000 -0.059942 0
17.545000 -0.057176 0
17.550000 -0.053386 0
17.555000 -0.048192 0
17.560000 -0.041146 0
17.565000 -0.031755 0
17.570000 -0.019522 0
17.575000 -0.004010 0
17.580000 0.015078 0
17.585000 0.037809 0
17.590000 0.063937 0
17.595000 0.092834 0
17.600000 0.123464 0
17.605000 0.154407 0
17.610000 0.183949 0
17.615000 0.210224 0
17.620000 0.231403 0
17.625000 0.245906 0
17.630000 0.252593 1
17.635000 0.250910 0
17.640000 0.240966 0
17.645000 0.223519 0
17.650000 0.199880 0
17.655000 0.171750 0
17.660000 0.141006 0
17.665000 0.109470 0
17.670000 0.078619 0
17.675000 0.049163 0
17.680000 0.020401 0
17.685000 -0.010447 0
17.690000 -0.048030 0
17.695000 -0.096315 0
17.700000 -0.153372 0
17.705000 -0.206251 0
17.710000 -0.230588 2
17.715000 -0.196329 0
17.720000 -0.076073 0
17.725000 0.145470 0
17.730000 0.456553 0
17.735000 0.800355 0
17.740000 1.075647 0
17.745000 1.177447 3
17.750000 1.062491 0
17.755000 0.773224 0
17.760000 0.408341 0
17.765000 0.067988 0
17.770000 -0.184428 0
17.775000 -0.326497 0
17.780000 -0.365161 4
17.785000 -0.326549 0
17.790000 -0.246949 0
17.795000 -0.160611 0
17.800000 -0.088767 0
17.805000 -0.036991 0
17.810000 -0.000713 0
17.815000 0.027339 0
17.820000 0.052710 0
17.825000 0.078324 0
17.830000 0.105266 0
17.835000 0.133683 0
17.840000 0.163320 0
17.845000 0.193742 0
17.850000 0.224407 0
17.855000 0.254698 0
17.860000 0.283945 0
17.865000 0.311448 0
17.870000 0.336504 0
17.875000 0.358439 0
17.880000 0.376630 0
17.885000 0.390543 0
17.890000 0.399753 0
17.895000 0.403964 5
17.900000 0.403028 0
17.905000 0.396951 0
17.910000 0.385894 0
17.915000 0.370162 0
17.920000 0.350196 0
17.925000 0.326544 0
17.930000 0.299844 0
17.935000 0.270788 0
17.940000 0.240095 0
17.945000 0.208484 0
17.950000 0.176641 0
17.955000 0.145201 0
17.960000 0.114724 0
17.965000 0.085685 0
17.970000 0.058465 0
17.975000 0.033344 0
17.980000 0.010512 0
17.985000 -0.009936 0
17.990000 -0.027981 0
17.995000 -0.043673 0
18.000000 -0.057120 0
18.005000 -0.068467 0
18.010000 -0.077893 0
18.015000 -0.085592 0
18.020000 -0.091765 0
18.025000 -0.096612 0
18.030000 -0.100324 0
18.035000 -0.103080 0
18.040000 -0.105042 0
18.045000 -0.106354 0
18.050000 -0.107142 0
18.055000 -0.106442 0
18.060000 -0.105495 0
18.065000 -0.104552 0
18.070000 -0.103615 0
18.075000 -0.102681 0
18.080000 -0.101752 0
18.085000 -0.100828 0
18.090000 -0.099908 0
18.095000 -0.098990 0
18.100000 -0.098075 0
18.105000 -0.097159 0
18.110000 -0.096238 0
18.115000 -0.095304 0
18.120000 -0.094343 0
18.125000 -0.093330 0
18.130000 -0.092228 0
18.135000 -0.090977 0
18.140000 -0.089487 0
18.145000 -0.087626 0
18.150000 -0.085210 0
18.155000 -0.081993 0
18.160000 -0.077655 0
18.165000 -0.071811 0
18.170000 -0.064012 0
18.175000 -0.053781 0
18.180000 -0.040650 0
18.185000 -0.024225 0
18.190000 -0.004265 0
18.195000 0.019241 0
18.200000 0.045992 0
18.205000 0.075322 0
18.210000 0.106182 0
18.215000 0.137170 0
18.220000 0.166619 0
18.225000 0.192736 0
18.230000 0.213775 0
18.235000 0.228235 0
18.240000 0.235031 1
18.245000 0.233631 0
18.250000 0.224127 0
18.255000 0.207219 0
18.260000 0.184136 0
18.265000 0.156485 0
18.270000 0.126062 0
18.275000 0.094633 0
18.280000 0.063687 0
18.285000 0.034070 0
18.290000 0.005426 0
18.295000 -0.024458 0
18.300000 -0.059746 0
18.305000 -0.104822 0
18.310000 -0.159981 0
18.315000 -0.216242 0
18.320000 -0.253323 2
18.325000 -0.243348 0
18.330000 -0.158167 0
18.335000 0.022602 0
18.340000 0.300281 0
18.345000 0.640179 0
18.350000 0.961503 0
18.355000 1.157778 3
18.360000 1.152437 0
18.365000 0.944084 0
18.370000 0.605873 0
18.375000 0.241330 0
18.380000 -0.065676 0
18.385000 -0.271921 0
18.390000 -0.369258 0
18.395000 -0.373142 4
18.400000 -0.314182 0
18.405000 -0.228502 0
18.410000 -0.145682 0
18.415000 -0.080728 0
18.420000 -0.034799 0
18.425000 -0.001838 0
18.430000 0.024986 0
18.435000 0.050274 0
18.440000 0.076247 0
18.445000 0.103630 0
18.450000 0.132428 0
18.455000 0.162336 0
18.460000 0.192902 0
18.465000 0.223578 0
18.470000 0.253753 0
18.475000 0.282767 0
18.480000 0.309936 0
18.485000 0.334580 0
18.490000 0.356045 0
18.495000 0.373740 0
18.500000 0.387155 0
18.505000 0.395891 0
18.510000 0.399674 5
18.515000 0.398374 0
18.520000 0.392008 0
18.525000 0.380742 0
18.530000 0.364880 0
18.535000 0.344854 0
18.540000 0.321203 0
18.545000 0.294545 0
18.550000 0.265556 0
18.555000 0.234937 0
18.560000 0.203385 0
18.565000 0.171571 0
18.570000 0.140118 0
18.575000 0.109575 0
18.580000 0.080414 0
18.585000 0.053013 0
18.590000 0.027657 0
18.595000 0.004540 0
18.600000 -0.016232 0
18.605000 -0.034630 0
18.610000 -0.050693 0
18.615000 -0.064517 0
18.620000 -0.076237 0
18.625000 -0.086021 0
18.630000 -0.094057 0
18.635000 -0.100538 0
18.640000 -0.105662 0
18.645000 -0.109616 0
18.650000 -0.112580 0
18.655000 -0.114715 0
18.660000 -0.116167 0
18.665000 -0.117063 0
18.670000 -0.117303 0
18.675000 -0.116302 0
18.680000 -0.115306 0
18.685000 -0.114314 0
18.690000 -0.113327 0
18.695000 -0.112346 0
18.700000 -0.111368 0
18.705000 -0.110396 0
18.710000 -0.109427 0
18.715000 -0.108461 0
18.720000 -0.107496 0
18.725000 -0.106529 0
18.730000 -0.105554 0
18.735000 -0.104560 0
18.740000 -0.103530 0
18.745000 -0.102435 0
18.750000 -0.101228 0
18.755000 -0.099841 0
18.760000 -0.098168 0
18.765000 -0.096063 0
18.770000 -0.093323 0
18.775000 -0.089681 0
18.780000 -0.084803 0
18.785000 -0.078287 0
18.790000 -0.069685 0
18.795000 -0.058529 0
18.800000 -0.044380 0
18.805000 -0.026891 0
18.810000 -0.005886 0
18.815000 0.018569 0
18.820000 0.046089 0
18.825000 0.075931 0
18.830000 0.106988 0
18.835000 0.137825 0
18.840000 0.166782 0
18.845000 0.192107 0
18.850000 0.212131 0
18.855000 0.225452 0
18.860000 0.231092 1
18.865000 0.228620 0
18.870000 0.218206 0
18.875000 0.200601 0
18.880000 0.177047 0
18.885000 0.149135 0
18.890000 0.118619 0
18.895000 0.087210 0
18.900000 0.056335 0
18.905000 0.026786 0
18.910000 -0.001819 0
18.915000 -0.031655 0
18.920000 -0.066779 0
18.925000 -0.111492 0
18.930000 -0.166291 0
18.935000 -0.222901 0
18.940000 -0.262142 2
18.945000 -0.257160 0
18.950000 -0.180270 0
18.955000 -0.010492 0
18.960000 0.256284 0
18.965000 0.591539 0
18.970000 0.922411 0
18.975000 1.146075 0
18.980000 1.177437 3
18.985000 0.997542 0
18.990000 0.670954 0
18.995000 0.304547 0
19.000000 -0.010201 0
19.005000 -0.224242 0
19.010000 -0.326857 0
19.015000 -0.333146 4
19.020000 -0.274683 0
19.025000 -0.189089 0
19.030000 -0.106981 0
19.035000 -0.043406 0
19.040000 0.001051 0
19.045000 0.032946 0
19.050000 0.059236 0
19.055000 0.084383 0
19.060000 0.110421 0
19.065000 0.137938 0
19.070000 0.166859 0
19.075000 0.196825 0
19.080000 0.227339 0
19.085000 0.257810 0
19.090000 0.287584 0
19.095000 0.315963 0
19.100000 0.342230 0
19.105000 0.365682 0
19.110000 0.385658 0
19.115000 0.401568 0
19.120000 0.412924 0
19.125000 0.419363 0
19.130000 0.420665 5
19.135000 0.416764 0
19.140000 0.407755 0
19.145000 0.393885 0
19.150000 0.375546 0
19.155000 0.353250 0
19.160000 0.327613 0
19.165000 0.299317 0
19.170000 0.269087 0
19.175000 0.237656 0
19.180000 0.205736 0
19.185000 0.173993 0
19.190000 0.143026 0
19.195000 0.113351 0
19.200000 0.085386 0
19.205000 0.059452 0
19.210000 0.035772 0
19.215000 0.014472 0
19.220000 -0.004404 0
19.225000 -0.020888 0
19.230000 -0.035071 0
19.235000 -0.047093 0
19.240000 -0.057126 0
19.245000 -0.065363 0
19.250000 -0.072008 0
19.255000 -0.077265 0
19.260000 -0.081331 0
19.265000 -0.084391 0
19.270000 -0.086613 0
19.275000 -0.088149 0
19.280000 -0.089130 0
19.285000 -0.088535 0
19.290000 -0.087677 0
19.295000 -0.086823 0
19.300000 -0.085974 0
19.305000 -0.085128 0
19.310000 -0.084287 0
19.315000 -0.083450 0
19.320000 -0.082616 0
19.325000 -0.081786 0
19.330000 -0.080957 0
19.335000 -0.080127 0
19.340000 -0.079293 0
19.345000 -0.078446 0
19.350000 -0.077572 0
19.355000 -0.076650 0
19.360000 -0.075642 0
19.365000 -0.074490 0
19.370000 -0.073104 0
19.375000 -0.071355 0
19.380000 -0.069060 0
19.385000 -0.065972 0
19.390000 -0.061772 0
19.395000 -0.056069 0
19.400000 -0.048411 0
19.405000 -0.038313 0
19.410000 -0.025298 0
19.415000 -0.008967 0
19.420000 0.010928 0
19.425000 0.034396 0
19.430000 0.061128 0
19.435000 0.090441 0
19.440000 0.121260 0
19.445000 0.152148 0
19.450000 0.181406 0
19.455000 0.207209 0
19.460000 0.227796 0
19.465000 0.241662 0
19.470000 0.247743 1
19.475000 0.245548 0
19.480000 0.235227 0
19.485000 0.217548 0
19.490000 0.193806 0
19.495000 0.165664 0
19.500000 0.134953 0
19.505000 0.103448 0
19.510000 0.072596 0
19.515000 0.043119 0
19.520000 0.014412 0
19.525000 -0.016115 0
19.530000 -0.052915 0
19.535000 -0.100087 0
19.540000 -0.156562 0
19.545000 -0.211025 0
19.550000 -0.240886 2
19.555000 -0.217138 0
19.560000 -0.112172 0
19.565000 0.091621 0
19.570000 0.388789 0
19.575000 0.733141 0
19.580000 1.032815 0
19.585000 1.181070 3
19.590000 1.116125 0
19.595000 0.859962 0
19.600000 0.502854 0
19.605000 0.149566 0
19.610000 -0.126335 0
19.615000 -0.293803 0
19.620000 -0.354154 4
19.625000 -0.329967 0
19.630000 -0.256309 0
19.635000 -0.169116 0
19.640000 -0.093158 0
19.645000 -0.037214 0
19.650000 0.001756 0
19.655000 0.030972 0
19.660000 0.056541 0
19.665000 0.081922 0
19.670000 0.108506 0
19.675000 0.136582 0
19.680000 0.165953 0
19.685000 0.196211 0
19.690000 0.226831 0
19.695000 0.257208 0
19.700000 0.286677 0
19.705000 0.314542 0
19.710000 0.340097 0
19.715000 0.362655 0
19.720000 0.381580 0
19.725000 0.396318 0
19.730000 0.406416 0
19.735000 0.411555 0
19.740000 0.411556 5
19.745000 0.406395 0
19.750000 0.396204 0
19.755000 0.381265 0
19.760000 0.361995 0
19.765000 0.338926 0
19.770000 0.312685 0
19.775000 0.283956 0
19.780000 0.253461 0
19.785000 0.221920 0
19.790000 0.190031 0
19.795000 0.158440 0
19.800000 0.127723 0
19.805000 0.098373 0
19.810000 0.070786 0
19.815000 0.045263 0
19.820000 0.022006 0
19.825000 0.001128 0
19.830000 -0.017342 0
19.835000 -0.033444 0
19.840000 -0.047275 0
19.845000 -0.058980 0
19.850000 -0.068730 0
19.855000 -0.076720 0
19.860000 -0.083150 0
19.865000 -0.088223 0
19.870000 -0.092130 0
19.875000 -0.095055 0
19.880000 -0.097162 0
19.885000 -0.098598 0
19.890000 -0.099491 0
19.895000 -0.098840 0
19.900000 -0.097930 0
19.905000 -0.097025 0
19.910000 -0.096125 0
19.915000 -0.095229 0
19.920000 -0.094338 0
19.925000 -0.093450 0
19.930000 -0.092567 0
19.935000 -0.091686 0
19.940000 -0.090808 0
19.945000 -0.089929 0
19.950000 -0.089046 0
19.955000 -0.088150 0
19.960000 -0.087229 0
19.965000 -0.086261 0
19.970000 -0.085208 0
19.975000 -0.084014 0
19.980000 -0.082592 0
19.985000 -0.080817 0
19.990000 -0.078509 0
19.995000 -0.075429 0
20.000000 -0.071265 0
20.005000 -0.065637 0
20.010000 -0.058101 0
20.015000 -0.048180 0
20.020000 -0.035399 0
20.025000 -0.019355 0
20.030000 0.000216 0
20.035000 0.023350 0
20.040000 0.049779 0
20.045000 0.078871 0
20.050000 0.109611 0
20.055000 0.140622 0
20.060000 0.170252 0
20.065000 0.196705 0
20.070000 0.218220 0
20.075000 0.233262 0
20.080000 0.240700 1
20.085000 0.239951 0
20.090000 0.231054 0
20.095000 0.214665 0
20.100000 0.191980 0
20.105000 0.164586 0
20.110000 0.134277 0
20.115000 0.102837 0
20.120000 0.071789 0
20.125000 0.042043 0
20.130000 0.013348 0
20.135000 -0.016371 0
20.140000 -0.051188 0
20.145000 -0.095588 0
20.150000 -0.150293 0
20.155000 -0.206987 0
20.160000 -0.245966 2
20.165000 -0.239531 0
20.170000 -0.159254 0
20.175000 0.015993 0
20.180000 0.288976 0
20.185000 0.627228 0
20.190000 0.951938 0
20.195000 1.156517 0
20.200000 1.162380 3
20.205000 0.964122 0
20.210000 0.630907 0
20.215000 0.265061 0
20.220000 -0.048019 0
20.225000 -0.262646 0
20.230000 -0.368540 0
20.235000 -0.379446 4
20.240000 -0.324708 0
20.245000 -0.240100 0
20.250000 -0.156016 0
20.255000 -0.088893 0
20.260000 -0.041067 0
20.265000 -0.006968 0
20.270000 0.020308 0
20.275000 0.045632 0
20.280000 0.071458 0
20.285000 0.098644 0
20.290000 0.127260 0
20.295000 0.157036 0
20.300000 0.187539 0
20.305000 0.218240 0
20.310000 0.248542 0
20.315000 0.277798 0
20.320000 0.305332 0
20.325000 0.330469 0
20.330000 0.352556 0
20.335000 0.370994 0
20.340000 0.385260 0
20.345000 0.394937 0
20.350000 0.399729 5
20.355000 0.399478 0
20.360000 0.394170 0
20.365000 0.383939 0
20.370000 0.369058 0
20.375000 0.349928 0
20.380000 0.327061 0
20.385000 0.301053 0
20.390000 0.272563 0
20.395000 0.242280 0
20.400000 0.210899 0
20.405000 0.179094 0
20.410000 0.147494 0
20.415000 0.116664 0
20.420000 0.087093 0
20.425000 0.059180 0
20.430000 0.033233 0
20.435000 0.009469 0
20.440000 -0.011983 0
20.445000 -0.031073 0
20.450000 -0.047822 0
20.455000 -0.062307 0
20.460000 -0.074654 0
20.465000 -0.085021 0
20.470000 -0.093586 0
20.475000 -0.100542 0
20.480000 -0.106082 0
20.485000 -0.110398 0
20.490000 -0.113670 0
20.495000 -0.116063 0
20.500000 -0.117729 0
20.505000 -0.118799 0
20.510000 -0.119156 0
20.515000 -0.118146 0
20.520000 -0.117140 0
20.525000 -0.116139 0
20.530000 -0.115143 0
20.535000 -0.114153 0
20.540000 -0.113167 0
20.545000 -0.112185 0
20.550000 -0.111208 0
20.555000 -0.110234 0
20.560000 -0.109262 0
20.565000 -0.108290 0
20.570000 -0.107313 0
20.575000 -0.106322 0
20.580000 -0.105303 0
20.585000 -0.104234 0
20.590000 -0.103077 0
20.595000 -0.101774 0
20.600000 -0.100239 0
20.605000 -0.098346 0
20.610000 -0.095921 0
20.615000 -0.092729 0
20.620000 -0.088472 0
20.625000 -0.082781 0
20.630000 -0.075232 0
20.635000 -0.065366 0
20.640000 -0.052728 0
20.645000 -0.036920 0
20.650000 -0.017675 0
20.655000 0.005070 0
20.660000 0.031102 0
20.665000 0.059868 0
20.670000 0.090456 0
20.675000 0.121605 0
20.680000 0.151775 0
20.685000 0.179257 0
20.690000 0.202334 0
20.695000 0.219454 0
20.700000 0.229400 0
20.705000 0.231439 1
20.710000 0.225407 0
20.715000 0.211732 0
20.720000 0.191384 0
20.725000 0.165764 0
20.730000 0.136539 0
20.735000 0.105453 0
20.740000 0.074118 0
20.745000 0.043740 0
20.750000 0.014707 0
20.755000 -0.014005 0
20.760000 -0.045345 0
20.765000 -0.083752 0
20.770000 -0.132623 0
20.775000 -0.189665 0
20.780000 -0.242600 0
20.785000 -0.268966 2
20.790000 -0.241013 0
20.795000 -0.132825 0
20.800000 0.071872 0
20.805000 0.367777 0
20.810000 0.711925 0
20.815000 1.018571 0
20.820000 1.185357 3
20.825000 1.142815 0
20.830000 0.902409 0
20.835000 0.550229 0
20.840000 0.192772 0
20.845000 -0.091979 0
20.850000 -0.269197 0
20.855000 -0.337889 4
20.860000 -0.319330 0
20.865000 -0.248189 0
20.870000 -0.161037 0
20.875000 -0.083910 0
20.880000 -0.026715 0
20.885000 0.013051 0
20.890000 0.042586 0
20.895000 0.068180 0
20.900000 0.093458 0
20.905000 0.119906 0
20.910000 0.147853 0
20.915000 0.177114 0
20.920000 0.207285 0
20.925000 0.237841 0
20.930000 0.268175 0
20.935000 0.297622 0
20.940000 0.325479 0
20.945000 0.351034 0
20.950000 0.373598 0
20.955000 0.392529 0
20.960000 0.407264 0
20.965000 0.417351 0
20.970000 0.422463 5
20.975000 0.422420 0
20.980000 0.417199 0
20.985000 0.406932 0
20.990000 0.391902 0
20.995000 0.372532 0
21.000000 0.349358 0
21.005000 0.323011 0
21.010000 0.294183 0
21.015000 0.263599 0
21.020000 0.231984 0
21.025000 0.200040 0
21.030000 0.168415 0
21.035000 0.137686 0
21.040000 0.108346 0
21.045000 0.080791 0
21.050000 0.055317 0
21.055000 0.032125 0
21.060000 0.011322 0
21.065000 -0.007064 0
21.070000 -0.023078 0
21.075000 -0.036823 0
21.080000 -0.048444 0
21.085000 -0.058118 0
21.090000 -0.066040 0
21.095000 -0.072412 0
21.100000 -0.077438 0
21.105000 -0.081311 0
21.110000 -0.084212 0
21.115000 -0.086306 0
21.120000 -0.087740 0
21.125000 -0.088641 0
21.130000 -0.088036 0
21.135000 -0.087181 0
21.140000 -0.086330 0
21.145000 -0.085483 0
21.150000 -0.084640 0
21.155000 -0.083801 0
21.160000 -0.082966 0
21.165000 -0.082135 0
21.170000 -0.081306 0
21.175000 -0.080479 0
21.180000 -0.079651 0
21.185000 -0.078817 0
21.190000 -0.077969 0
21.195000 -0.077093 0
21.200000 -0.076164 0
21.205000 -0.075144 0
21.210000 -0.073970 0
21.215000 -0.072551 0
21.220000 -0.070751 0
21.225000 -0.068382 0
21.230000 -0.065190 0
21.235000 -0.060851 0
21.240000 -0.054967 0
21.245000 -0.047086 0
21.250000 -0.036722 0
21.255000 -0.023407 0
21.260000 -0.006754 0
21.265000 0.013465 0
21.270000 0.037233 0
21.275000 0.064212 0
21.280000 0.093690 0
21.285000 0.124567 0
21.290000 0.155389 0
21.295000 0.184452 0
21.300000 0.209939 0
21.305000 0.230110 0
21.310000 0.243494 0
21.315000 0.249066 1
21.320000 0.246378 0
21.325000 0.235612 0
21.330000 0.217568 0
21.335000 0.193557 0
21.340000 0.165246 0
21.345000 0.134459 0
21.350000 0.102951 0
21.355000 0.072141 0
21.360000 0.042710 0
21.365000 0.013994 0
21.370000 -0.016651 0
21.375000 -0.053692 0
21.380000 -0.101140 0
21.385000 -0.157738 0
21.390000 -0.211983 0
21.395000 -0.241230 2
21.400000 -0.216592 0
21.405000 -0.110684 0
21.410000 0.093853 0
21.415000 0.391378 0
21.420000 0.735754 0
21.425000 1.035563 0
21.430000 1.184614 3
21.435000 1.117846 0
21.440000 0.857413 0
21.445000 0.498280 0
21.450000 0.148522 0
21.455000 -0.118399 0
21.460000 -0.273672 0
21.465000 -0.321530 4
21.470000 -0.287669 0
21.475000 -0.209533 0
21.480000 -0.123252 0
21.485000 -0.051470 0
21.490000 -0.000146 0
21.495000 0.035540 0
21.500000 0.063145 0
21.505000 0.088294 0
21.510000 0.113855 0
21.515000 0.140823 0
21.520000 0.169283 0
21.525000 0.198933 0
21.530000 0.229296 0
21.535000 0.259790 0
21.540000 0.289755 0
21.545000 0.318484 0
21.550000 0.345241 0
21.555000 0.369298 0
21.560000 0.389962 0
21.565000 0.406611 0
21.570000 0.418722 0
21.575000 0.425897 0
21.580000 0.427887 5
21.585000 0.424601 0
21.590000 0.416116 0
21.595000 0.402668 0
21.600000 0.384645 0
21.605000 0.362567 0
21.610000 0.337058 0
21.615000 0.308816 0
21.620000 0.278586 0
21.625000 0.247121 0
21.630000 0.215154 0
21.635000 0.183370 0
21.640000 0.152384 0
21.645000 0.122721 0
21.650000 0.094811 0
21.655000 0.068975 0
21.660000 0.045437 0
21.665000 0.024319 0
21.670000 0.005656 0
21.675000 -0.010589 0
21.680000 -0.024519 0
21.685000 -0.036282 0
21.690000 -0.046059 0
21.695000 -0.054052 0
21.700000 -0.060470 0
21.705000 -0.065522 0
21.710000 -0.069409 0
21.715000 -0.072317 0
21.720000 -0.074415 0
21.725000 -0.075853 0
21.730000 -0.076761 0
21.735000 -0.076208 0
21.740000 -0.075411 0
21.745000 -0.074619 0
21.750000 -0.073830 0
21.755000 -0.073045 0
21.760000 -0.072264 0
21.765000 -0.071487 0
21.770000 -0.070712 0
21.775000 -0.069940 0
21.780000 -0.069169 0
21.785000 -0.068395 0
21.790000 -0.067613 0
21.795000 -0.066812 0
21.800000 -0.065975 0
21.805000 -0.065071 0
21.810000 -0.064054 0
21.815000 -0.062849 0
21.820000 -0.061342 0
21.825000 -0.059374 0
21.830000 -0.056720 0
21.835000 -0.053087 0
21.840000 -0.048101 0
21.845000 -0.041323 0
21.850000 -0.032262 0
21.855000 -0.020417 0
21.860000 -0.005342 0
21.865000 0.013286 0
21.870000 0.035566 0
21.875000 0.061296 0
21.880000 0.089897 0
21.885000 0.120380 0
21.890000 0.151369 0
21.895000 0.181175 0
21.900000 0.207938 0
21.905000 0.229814 0
21.910000 0.245179 0
21.915000 0.252829 1
21.920000 0.252135 0
21.925000 0.243128 0
21.930000 0.226492 0
21.935000 0.203486 0
21.940000 0.175775 0
21.945000 0.145231 0
21.950000 0.113698 0
21.955000 0.082712 0
21.960000 0.053098 0
21.965000 0.024350 0
21.970000 -0.006064 0
21.975000 -0.042663 0
21.980000 -0.089714 0
21.985000 -0.146222 0
21.990000 -0.200559 0
21.995000 -0.229384 2
22.000000 -0.202826 0
22.005000 -0.092756 0
22.010000 0.118001 0
22.015000 0.421454 0
22.020000 0.765986 0
22.025000 1.053701 0
22.030000 1.176957 3
22.035000 1.082800 0
22.040000 0.807386 0
22.045000 0.445347 0
22.050000 0.098381 0
22.055000 -0.165822 0
22.060000 -0.320909 0
22.065000 -0.370971 4
22.070000 -0.340079 0
22.075000 -0.263615 0
22.080000 -0.176564 0
22.085000 -0.102082 0
22.090000 -0.047615 0
22.095000 -0.009548 0
22.100000 0.019318 0
22.105000 0.044866 0
22.110000 0.070358 0
22.115000 0.097083 0
22.120000 0.125291 0
22.125000 0.154771 0
22.130000 0.185114 0
22.135000 0.215796 0
22.140000 0.246217 0
22.145000 0.275718 0
22.150000 0.303609 0
22.155000 0.329191 0
22.160000 0.351786 0
22.165000 0.370765 0
22.170000 0.385578 0
22.175000 0.395780 0
22.180000 0.401049 0
22.185000 0.401209 5
22.190000 0.396232 0
22.195000 0.386246 0
22.200000 0.371525 0
22.205000 0.352476 0
22.210000 0.329624 0
22.215000 0.303583 0
22.220000 0.275031 0
22.225000 0.244678 0
22.230000 0.213239 0
22.235000 0.181408 0
22.240000 0.149827 0
22.245000 0.119073 0
22.250000 0.089640 0
22.255000 0.061931 0
22.260000 0.036250 0
22.265000 0.012808 0
22.270000 -0.008275 0
22.275000 -0.026962 0
22.280000 -0.043285 0
22.285000 -0.057335 0
22.290000 -0.069249 0
22.295000 -0.079194 0
22.300000 -0.087361 0
22.305000 -0.093948 0
22.310000 -0.099155 0
22.315000 -0.103174 0
22.320000 -0.106188 0
22.325000 -0.108363 0
22.330000 -0.109847 0
22.335000 -0.110771 0
22.340000 -0.111037 0
22.345000 -0.110067 0
22.350000 -0.109101 0
22.355000 -0.108141 0
22.360000 -0.107185 0
22.365000 -0.106234 0
22.370000 -0.105287 0
22.375000 -0.104344 0
22.380000 -0.103406 0
22.385000 -0.102470 0
22.390000 -0.101534 0
22.395000 -0.100596 0
22.400000 -0.099648 0
22.405000 -0.098678 0
22.410000 -0.097669 0
22.415000 -0.096587 0
22.420000 -0.095382 0
22.425000 -0.093978 0
22.430000 -0.092261 0
22.435000 -0.090071 0
22.440000 -0.087187 0
22.445000 -0.083323 0
22.450000 -0.078121 0
22.455000 -0.071159 0
22.460000 -0.061972 0
22.465000 -0.050082 0
22.470000 -0.035063 0
22.475000 -0.016599 0
22.480000 0.005427 0
22.485000 0.030856 0
22.490000 0.059188 0
22.495000 0.089546 0
22.500000 0.120685 0
22.505000 0.151052 0
22.510000 0.178902 0
22.515000 0.202459 0
22.520000 0.220099 0
22.525000 0.230537 0
22.530000 0.232978 1
22.535000 0.227224 0
22.540000 0.213693 0
22.545000 0.193374 0
22.550000 0.167704 0
22.555000 0.138403 0
22.560000 0.107266 0
22.565000 0.075941 0
22.570000 0.045637 0
22.575000 0.016671 0
22.580000 -0.012165 0
22.585000 -0.044104 0
22.590000 -0.083768 0
22.595000 -0.134181 0
22.600000 -0.191697 0
22.605000 -0.241875 0
22.610000 -0.260175 2
22.615000 -0.217819 0
22.620000 -0.089442 0
22.625000 0.138104 0
22.630000 0.451687 0
22.635000 0.795623 0
22.640000 1.073064 0
22.645000 1.183316 3
22.650000 1.079326 0
22.655000 0.797891 0
22.660000 0.434588 0
22.665000 0.089710 0
22.670000 -0.171055 0
22.675000 -0.322763 0
22.680000 -0.370223 4
22.685000 -0.337791 0
22.690000 -0.260768 0
22.695000 -0.173785 0
22.700000 -0.099581 0
22.705000 -0.045341 0
22.710000 -0.007389 0
22.715000 0.021439 0
22.720000 0.046973 0
22.725000 0.072453 0
22.730000 0.099160 0
22.735000 0.127345 0
22.740000 0.156801 0
22.745000 0.187123 0
22.750000 0.217791 0
22.755000 0.248211 0
22.760000 0.277729 0
22.765000 0.305660 0
22.770000 0.331308 0
22.775000 0.354000 0
22.780000 0.373108 0
22.785000 0.388083 0
22.790000 0.398476 0
22.795000 0.403965 0
22.800000 0.404366 5
22.805000 0.399644 0
22.810000 0.389919 0
22.815000 0.375454 0
22.820000 0.356648 0
22.825000 0.334014 0
22.830000 0.308158 0
22.835000 0.279750 0
22.840000 0.249495 0
22.845000 0.218105 0
22.850000 0.186269 0
22.855000 0.154632 0
22.860000 0.123774 0
22.865000 0.094192 0
22.870000 0.066296 0
22.875000 0.040397 0
22.880000 0.016714 0
22.885000 -0.004627 0
22.890000 -0.023578 0
22.895000 -0.040167 0
22.900000 -0.054477 0
22.905000 -0.066639 0
22.910000 -0.076818 0
22.915000 -0.085200 0
22.920000 -0.091983 0
22.925000 -0.097363 0
22.930000 -0.101536 0
22.935000 -0.104683 0
22.940000 -0.106971 0
22.945000 -0.108551 0
22.950000 -0.109555 0
22.955000 -0.109878 0
22.960000 -0.108913 0
22.965000 -0.107954 0
22.970000 -0.106999 0
22.975000 -0.106049 0
22.980000 -0.105103 0
22.985000 -0.104162 0
22.990000 -0.103225 0
22.995000 -0.102292 0
23.000000 -0.101362 0
23.005000 -0.100433 0
23.010000 -0.099502 0
23.015000 -0.098563 0
23.020000 -0.097605 0
23.025000 -0.096612 0
23.030000 -0.095554 0
23.035000 -0.094385 0
23.040000 -0.093036 0
23.045000 -0.091402 0
23.050000 -0.089333 0
23.055000 -0.086625 0
23.060000 -0.083008 0
23.065000 -0.078141 0
23.070000 -0.071617 0
23.075000 -0.062982 0
23.080000 -0.051760 0
23.085000 -0.037510 0
23.090000 -0.019884 0
23.095000 0.001285 0
23.100000 0.025914 0
23.105000 0.053591 0
23.110000 0.083540 0
23.115000 0.114610 0
23.120000 0.145326 0
23.125000 0.173989 0
23.130000 0.198826 0
23.135000 0.218165 0
23.140000 0.230623 0
23.145000 0.235269 1
23.150000 0.231737 0
23.155000 0.220278 0
23.160000 0.201726 0
23.165000 0.177400 0
23.170000 0.148948 0
23.175000 0.118154 0
23.180000 0.086724 0
23.185000 0.056024 0
23.190000 0.026694 0
23.195000 -0.001942 0
23.200000 -0.032475 0
23.205000 -0.069264 0
23.210000 -0.116287 0
23.215000 -0.172571 0
23.220000 -0.227367 0
23.225000 -0.259054 2
23.230000 -0.239576 0
23.235000 -0.141777 0
23.240000 0.052616 0
23.245000 0.341179 0
23.250000 0.684034 0
23.255000 0.996521 0
23.260000 1.173628 3
23.265000 1.142843 0
23.270000 0.910069 0
23.275000 0.560219 0
23.280000 0.201619 0
23.285000 -0.085294 0
23.290000 -0.264203 0
23.295000 -0.333657 4
23.300000 -0.315108 0
23.305000 -0.243739 0
23.310000 -0.156616 0
23.315000 -0.079923 0
23.320000 -0.023361 0
23.325000 0.015864 0
23.330000 0.045092 0
23.335000 0.070597 0
23.340000 0.095917 0
23.345000 0.122465 0
23.350000 0.150521 0
23.355000 0.179875 0
23.360000 0.210105 0
23.365000 0.240668 0
23.370000 0.270941 0
23.375000 0.300244 0
23.380000 0.327859 0
23.385000 0.353067 0
23.390000 0.375169 0
23.395000 0.393526 0
23.400000 0.407579 0
23.405000 0.416888 0
23.410000 0.421143 5
23.415000 0.420189 0
23.420000 0.414030 0
23.425000 0.402828 0
23.430000 0.386900 0
23.435000 0.366699 0
23.440000 0.342792 0
23.445000 0.315834 0
23.450000 0.286540 0
23.455000 0.255647 0
23.460000 0.223890 0
23.465000 0.191968 0
23.470000 0.160524 0
23.475000 0.130123 0
23.480000 0.101238 0
23.485000 0.074244 0
23.490000 0.049415 0
23.495000 0.026926 0
23.500000 0.006860 0
23.505000 -0.010778 0
23.510000 -0.026055 0
23.515000 -0.039089 0
23.520000 -0.050040 0
23.525000 -0.059095 0
23.530000 -0.066456 0
23.535000 -0.072329 0
23.540000 -0.076917 0
23.545000 -0.080414 0
23.550000 -0.082998 0
23.555000 -0.084827 0
23.560000 -0.086045 0
23.565000 -0.086543 0
23.570000 -0.085695 0
23.575000 -0.084851 0
23.580000 -0.084011 0
23.585000 -0.083176 0
23.590000 -0.082345 0
23.595000 -0.081517 0
23.600000 -0.080693 0
23.605000 -0.079873 0
23.610000 -0.079054 0
23.615000 -0.078237 0
23.620000 -0.077416 0
23.625000 -0.076585 0
23.630000 -0.075734 0
23.635000 -0.074844 0
23.640000 -0.073882 0
23.645000 -0.072798 0
23.650000 -0.071515 0
23.655000 -0.069917 0
23.660000 -0.067838 0
23.665000 -0.065051 0
23.670000 -0.061259 0
23.675000 -0.056089 0
23.680000 -0.049105 0
23.685000 -0.039820 0
23.690000 -0.027747 0
23.695000 -0.012450 0
23.700000 0.006376 0
23.705000 0.028820 0
23.710000 0.054669 0
23.715000 0.083346 0
23.720000 0.113873 0
23.725000 0.144896 0
23.730000 0.174757 0
23.735000 0.201631 0
23.740000 0.223703 0
23.745000 0.239371 0
23.750000 0.247434 1
23.755000 0.247244 0
23.760000 0.238795 0
23.765000 0.222719 0
23.770000 0.200214 0
23.775000 0.172890 0
23.780000 0.142577 0
23.785000 0.111100 0
23.790000 0.080016 0
23.795000 0.050250 0
23.800000 0.021518 0
23.805000 -0.008363 0
23.810000 -0.043615 0
23.815000 -0.088741 0
23.820000 -0.144047 0
23.825000 -0.200203 0
23.830000 -0.236185 2
23.835000 -0.223285 0
23.840000 -0.132848 0
23.845000 0.055209 0
23.850000 0.340116 0
23.855000 0.682343 0
23.860000 0.994937 0
23.865000 1.168996 3
23.870000 1.133233 0
23.875000 0.899761 0
23.880000 0.550763 0
23.885000 0.190871 0
23.890000 -0.101037 0
23.895000 -0.287925 0
23.900000 -0.366488 4
23.905000 -0.355793 0
23.910000 -0.288800 0
23.915000 -0.201770 0
23.920000 -0.122063 0
23.925000 -0.061579 0
23.930000 -0.019249 0
23.935000 0.011701 0
23.940000 0.037806 0
23.945000 0.063099 0
23.950000 0.089370 0
23.955000 0.117109 0
23.960000 0.146213 0
23.965000 0.176324 0
23.970000 0.206952 0
23.975000 0.237523 0
23.980000 0.267399 0
23.985000 0.295901 0
23.990000 0.322334 0
23.995000 0.346013 0
24.000000 0.366294 0
24.005000 0.382598 0
24.010000 0.394445 0
24.015000 0.401470 0
24.020000 0.403445 5
24.025000 0.400290 0
24.030000 0.392077 0
24.035000 0.379026 0
24.040000 0.361498 0
24.045000 0.339973 0
24.050000 0.315033 0
24.055000 0.287332 0
24.060000 0.257567 0
24.065000 0.226451 0
24.070000 0.194685 0
24.075000 0.162930 0
24.080000 0.131787 0
24.085000 0.101781 0
24.090000 0.073347 0
24.095000 0.046828 0
24.100000 0.022470 0
24.105000 0.000427 0
24.110000 -0.019233 0
24.115000 -0.036513 0
24.120000 -0.051484 0
24.125000 -0.064263 0
24.130000 -0.075007 0
24.135000 -0.083896 0
24.140000 -0.091126 0
24.145000 -0.096895 0
24.150000 -0.101399 0
24.155000 -0.104825 0
24.160000 -0.107345 0
24.165000 -0.109113 0
24.170000 -0.110269 0
24.175000 -0.110930 0
24.180000 -0.110196 0
24.185000 -0.109230 0
24.190000 -0.108269 0
24.195000 -0.107312 0
24.200000 -0.106360 0
24.205000 -0.105413 0
24.210000 -0.104470 0
24.215000 -0.103532 0
24.220000 -0.102596 0
24.225000 -0.101662 0
24.230000 -0.100727 0
24.235000 -0.099786 0
24.240000 -0.098831 0
24.245000 -0.097845 0
24.250000 -0.096805 0
24.255000 -0.095669 0
24.260000 -0.094376 0
24.265000 -0.092831 0
24.270000 -0.090900 0
24.275000 -0.088393 0
24.280000 -0.085061 0
24.285000 -0.080582 0
24.290000 -0.074567 0
24.295000 -0.066572 0
24.300000 -0.056122 0
24.305000 -0.042760 0
24.310000 -0.026106 0
24.315000 -0.005931 0
24.320000 0.017759 0
24.325000 0.044650 0
24.330000 0.074069 0
24.335000 0.104967 0
24.340000 0.135949 0
24.345000 0.165366 0
24.350000 0.191446 0
24.355000 0.212469 0
24.360000 0.226953 0
24.365000 0.233825 1
24.370000 0.232557 0
24.375000 0.223228 0
24.380000 0.206519 0
24.385000 0.183631 0
24.390000 0.156140 0
24.395000 0.125815 0
24.400000 0.094407 0
24.405000 0.063410 0
24.410000 0.033709 0
24.415000 0.005057 0
24.420000 -0.024581 0
24.425000 -0.059194 0
24.430000 -0.103231 0
24.435000 -0.157593 0
24.440000 -0.214502 0
24.445000 -0.255033 2
24.450000 -0.252169 0
24.455000 -0.177742 0
24.460000 -0.010167 0
24.465000 0.255231 0
24.470000 0.590122 0
24.475000 0.920979 0
24.480000 1.143608 0
24.485000 1.172101 3
24.490000 0.991876 0
24.495000 0.667819 0
24.500000 0.300765 0
24.505000 -0.021012 0
24.510000 -0.247734 0
24.515000 -0.365846 0
24.520000 -0.386726 4
24.525000 -0.338094 0
24.530000 -0.255321 0
24.535000 -0.169885 0
24.540000 -0.100100 0
24.545000 -0.049863 0
24.550000 -0.014272 0
24.555000 0.013633 0
24.560000 0.039052 0
24.565000 0.064733 0
24.570000 0.091707 0
24.575000 0.120125 0
24.580000 0.149754 0
24.585000 0.180184 0
24.590000 0.210903 0
24.595000 0.241328 0
24.600000 0.270824 0
24.605000 0.298722 0
24.610000 0.324350 0
24.615000 0.347053 0
24.620000 0.366225 0
24.625000 0.381330 0
24.630000 0.391932 0
24.635000 0.397713 0
24.640000 0.398488 5
24.645000 0.394214 0
24.650000 0.384994 0
24.655000 0.371072 0
24.660000 0.352821 0
24.665000 0.330728 0
24.670000 0.305368 0
24.675000 0.277385 0
24.680000 0.247459 0
24.685000 0.216280 0
24.690000 0.184527 0
24.695000 0.152834 0
24.700000 0.121782 0
24.705000 0.091873 0
24.710000 0.063527 0
24.715000 0.037073 0
24.720000 0.012749 0
24.725000 -0.009295 0
24.730000 -0.028992 0
24.735000 -0.046343 0
24.740000 -0.061413 0
24.745000 -0.074314 0
24.750000 -0.085195 0
24.755000 -0.094229 0
24.760000 -0.101606 0
24.765000 -0.107517 0
24.770000 -0.112154 0
24.775000 -0.115699 0
24.780000 -0.118321 0
24.785000 -0.120176 0
24.790000 -0.121399 0
24.795000 -0.122111 0
24.800000 -0.121338 0
24.805000 -0.120316 0
24.810000 -0.119299 0
24.815000 -0.118288 0
24.820000 -0.117281 0
24.825000 -0.116280 0
24.830000 -0.115283 0
24.835000 -0.114291 0
24.840000 -0.113302 0
24.845000 -0.112316 0
24.850000 -0.111331 0
24.855000 -0.110342 0
24.860000 -0.109344 0
24.865000 -0.108324 0
24.870000 -0.107263 0
24.875000 -0.106130 0
24.880000 -0.104876 0
24.885000 -0.103425 0
24.890000 -0.101670 0
24.895000 -0.099455 0
24.900000 -0.096573 0
24.905000 -0.092749 0
24.910000 -0.087645 0
24.915000 -0.080858 0
24.920000 -0.071944 0
24.925000 -0.060441 0
24.930000 -0.045926 0
24.935000 -0.028072 0
24.940000 -0.006725 0
24.945000 0.018020 0
24.950000 0.045759 0
24.955000 0.075734 0
24.960000 0.106831 0
24.965000 0.137625 0
24.970000 0.166472 0
24.975000 0.191652 0
24.980000 0.211528 0
24.985000 0.224729 0
24.990000 0.230304 1
24.995000 0.227833 0
25.000000 0.217484 0
25.005000 0.199992 0
25.010000 0.176572 0
25.015000 0.148782 0
25.020000 0.118345 0
25.025000 0.086951 0
25.030000 0.056025 0
25.035000 0.026395 0
25.040000 -0.002216 0
25.045000 -0.031800 0
25.050000 -0.066223 0
25.055000 -0.109834 0
25.060000 -0.163733 0
25.065000 -0.220912 0
25.070000 -0.263692 0
25.075000 -0.266266 2
25.080000 -0.201086 0
25.085000 -0.046076 0
25.090000 0.206198 0
25.095000 0.533914 0
25.100000 0.872656 0
25.105000 1.123748 0
25.110000 1.195897 3
25.115000 1.055551 0
25.120000 0.749889 0
25.125000 0.382939 0
25.130000 0.052913 0
25.135000 -0.182325 0
25.140000 -0.305634 0
25.145000 -0.328054 4
25.150000 -0.278848 0
25.155000 -0.195629 0
25.160000 -0.111317 0
25.165000 -0.044068 0
25.170000 0.003367 0
25.175000 0.036878 0
25.180000 0.063698 0
25.185000 0.088798 0
25.190000 0.114572 0
25.195000 0.141791 0
25.200000 0.170456 0
25.205000 0.200239 0
25.210000 0.230660 0
25.215000 0.261140 0
25.220000 0.291030 0
25.225000 0.319634 0
25.230000 0.346234 0
25.235000 0.370120 0
25.240000 0.390620 0
25.245000 0.407129 0
25.250000 0.419140 0
25.255000 0.426269 0
25.260000 0.428274 5
25.265000 0.425066 0
25.270000 0.416717 0
25.275000 0.403454 0
25.280000 0.385652 0
25.285000 0.363812 0
25.290000 0.338537 0
25.295000 0.310506 0
25.300000 0.280444 0
25.305000 0.249086 0
25.310000 0.217151 0
25.315000 0.185316 0
25.320000 0.154190 0
25.325000 0.124302 0
25.330000 0.096084 0
25.335000 0.069870 0
25.340000 0.045893 0
25.345000 0.024293 0
25.350000 0.005119 0
25.355000 -0.011651 0
25.360000 -0.026105 0
25.365000 -0.038376 0
25.370000 -0.048636 0
25.375000 -0.057077 0
25.380000 -0.063902 0
25.385000 -0.069318 0
25.390000 -0.073522 0
25.395000 -0.076702 0
25.400000 -0.079029 0
25.405000 -0.080655 0
25.410000 -0.081714 0
25.415000 -0.082114 0
25.420000 -0.081288 0
25.425000 -0.080466 0
25.430000 -0.079648 0
25.435000 -0.078834 0
25.440000 -0.078025 0
25.445000 -0.077219 0
25.450000 -0.076416 0
25.455000 -0.075616 0
25.460000 -0.074818 0
25.465000 -0.074020 0
25.470000 -0.073217 0
25.475000 -0.072401 0
25.480000 -0.071560 0
25.485000 -0.070672 0
25.490000 -0.069699 0
25.495000 -0.068586 0
25.500000 -0.067244 0
25.505000 -0.065545 0
25.510000 -0.063308 0
25.515000 -0.060288 0
25.520000 -0.056169 0
25.525000 -0.050560 0
25.530000 -0.043010 0
25.535000 -0.033031 0
25.540000 -0.020145 0
25.545000 -0.003947 0
25.550000 0.015819 0
25.555000 0.039168 0
25.560000 0.065800 0
25.565000 0.095040 0
25.570000 0.125814 0
25.575000 0.156690 0
25.580000 0.185964 0
25.585000 0.211805 0
25.590000 0.232442 0
25.595000 0.246361 0
25.600000 0.252487 1
25.605000 0.250324 0
25.610000 0.240015 0
25.615000 0.222330 0
25.620000 0.198568 0
25.625000 0.170397 0
25.630000 0.139657 0
25.635000 0.108128 0
25.640000 0.077260 0
25.645000 0.047772 0
25.650000 0.019037 0
25.655000 -0.011566 0
25.660000 -0.048524 0
25.665000 -0.095912 0
25.670000 -0.152517 0
25.675000 -0.206753 0
25.680000 -0.235738 2
25.685000 -0.210296 0
25.690000 -0.102852 0
25.695000 0.103848 0
25.700000 0.403386 0
25.705000 0.747905 0
25.710000 1.043990 0
25.715000 1.184998 3
25.720000 1.110120 0
25.725000 0.844573 0
25.730000 0.484217 0
25.735000 0.135932 0
25.740000 -0.128522 0
25.745000 -0.281472 0
25.750000 -0.327658 4
25.755000 -0.292898 0
25.760000 -0.214474 0
25.765000 -0.128201 0
25.770000 -0.056459 0
25.775000 -0.005115 0
25.780000 0.030631 0
25.785000 0.058290 0
25.790000 0.083468 0
25.795000 0.109036 0
25.800000 0.136000 0
25.805000 0.164454 0
25.810000 0.194102 0
25.815000 0.224474 0
25.820000 0.254992 0
25.825000 0.285005 0
25.830000 0.313810 0
25.835000 0.340679 0
25.840000 0.364884 0
25.845000 0.385738 0
25.850000 0.402618 0
25.855000 0.414998 0
25.860000 0.422477 0
25.865000 0.424798 5
25.870000 0.421861 0
25.875000 0.413732 0
25.880000 0.400636 0
25.885000 0.382949 0
25.890000 0.361177 0
25.895000 0.335933 0
25.900000 0.307908 0
25.905000 0.277838 0
25.910000 0.246471 0
25.915000 0.214538 0
25.920000 0.182727 0
25.925000 0.151654 0
25.930000 0.121852 0
25.935000 0.093757 0
25.940000 0.067701 0
25.945000 0.043914 0
25.950000 0.022531 0
25.955000 0.003595 0
25.960000 -0.012923 0
25.965000 -0.027118 0
25.970000 -0.039132 0
25.975000 -0.049141 0
25.980000 -0.057344 0
25.985000 -0.063949 0
25.990000 -0.069162 0
25.995000 -0.073187 0
26.000000 -0.076209 0
26.005000 -0.078400 0
26.010000 -0.079911 0
26.015000 -0.080875 0
26.020000 -0.080312 0
26.025000 -0.079495 0
26.030000 -0.078682 0
26.035000 -0.077873 0
26.040000 -0.077068 0
26.045000 -0.076267 0
26.050000 -0.075470 0
26.055000 -0.074676 0
26.060000 -0.073885 0
26.065000 -0.073094 0
26.070000 -0.072302 0
26.075000 -0.071504 0
26.080000 -0.070689 0
26.085000 -0.069843 0
26.090000 -0.068939 0
26.095000 -0.067933 0
26.100000 -0.066758 0
26.105000 -0.065311 0
26.110000 -0.063446 0
26.115000 -0.060953 0
26.120000 -0.057557 0
26.125000 -0.052908 0
26.130000 -0.046580 0
26.135000 -0.038096 0
26.140000 -0.026958 0
26.145000 -0.012700 0
26.150000 0.005035 0
26.155000 0.026411 0
26.160000 0.051309 0
26.165000 0.079256 0
26.170000 0.109376 0
26.175000 0.140399 0
26.180000 0.170717 0
26.185000 0.198514 0
26.190000 0.221933 0
26.195000 0.239278 0
26.200000 0.249219 0
26.205000 0.250958 1
26.210000 0.244333 0
26.215000 0.229842 0
26.220000 0.208580 0
26.225000 0.182102 0
26.230000 0.152229 0
26.235000 0.120829 0
26.240000 0.089554 0
26.245000 0.059500 0
26.250000 0.030659 0
26.255000 0.001210 0
26.260000 -0.032813 0
26.265000 -0.076159 0
26.270000 -0.130209 0
26.275000 -0.187327 0
26.280000 -0.227918 2
26.285000 -0.223628 0
26.290000 -0.144970 0
26.295000 0.030086 0
26.300000 0.304367 0
26.305000 0.643528 0
26.310000 0.964675 0
26.315000 1.157621 3
26.320000 1.143972 0
26.325000 0.927551 0
26.330000 0.585279 0
26.335000 0.222325 0
26.340000 -0.078440 0
26.345000 -0.275975 0
26.350000 -0.364269 4
26.355000 -0.360683 0
26.360000 -0.297332 0
26.365000 -0.210785 0
26.370000 -0.129687 0
26.375000 -0.067382 0
26.380000 -0.023687 0
26.385000 0.007970 0
26.390000 0.034301 0
26.395000 0.059576 0
26.400000 0.085741 0
26.405000 0.113365 0
26.410000 0.142376 0
26.415000 0.172430 0
26.420000 0.203045 0
26.425000 0.233650 0
26.430000 0.263610 0
26.435000 0.292249 0
26.440000 0.318868 0
26.445000 0.342779 0
26.450000 0.363334 0
26.455000 0.379946 0
26.460000 0.392126 0
26.465000 0.399500 0
26.470000 0.401829 5
26.475000 0.399023 0
26.480000 0.391144 0
26.485000 0.378403 0
26.490000 0.361153 0
26.495000 0.339868 0
26.500000 0.315126 0
26.505000 0.287577 0
26.510000 0.257921 0
26.515000 0.226871 0
26.520000 0.195130 0
26.525000 0.163365 0
26.530000 0.132181 0
26.535000 0.102109 0
26.540000 0.073590 0
26.545000 0.046973 0
26.550000 0.022509 0
26.555000 0.000357 0
26.560000 -0.019411 0
26.565000 -0.036795 0
26.570000 -0.051862 0
26.575000 -0.064730 0
26.580000 -0.075553 0
26.585000 -0.084511 0
26.590000 -0.091799 0
26.595000 -0.097618 0
26.600000 -0.102163 0
26.605000 -0.105621 0
26.610000 -0.108166 0
26.615000 -0.109954 0
26.620000 -0.111123 0
26.625000 -0.111795 0
26.630000 -0.111058 0
26.635000 -0.110088 0
26.640000 -0.109123 0
26.645000 -0.108162 0
26.650000 -0.107206 0
26.655000 -0.106254 0
26.660000 -0.105308 0
26.665000 -0.104365 0
26.670000 -0.103425 0
26.675000 -0.102487 0
26.680000 -0.101548 0
26.685000 -0.100603 0
26.690000 -0.099644 0
26.695000 -0.098655 0
26.700000 -0.097612 0
26.705000 -0.096474 0
26.710000 -0.095179 0
26.715000 -0.093635 0
26.720000 -0.091705 0
26.725000 -0.089201 0
26.730000 -0.085874 0
26.735000 -0.081401 0
26.740000 -0.075394 0
26.745000 -0.067407 0
26.750000 -0.056966 0
26.755000 -0.043610 0
26.760000 -0.026959 0
26.765000 -0.006784 0
26.770000 0.016910 0
26.775000 0.043809 0
26.780000 0.073237 0
26.785000 0.104142 0
26.790000 0.135126 0
26.795000 0.164534 0
26.800000 0.190590 0
26.805000 0.211572 0
26.810000 0.225995 0
26.815000 0.232791 1
26.820000 0.231436 0
26.825000 0.222015 0
26.830000 0.205218 0
26.835000 0.182255 0
26.840000 0.154710 0
26.845000 0.124357 0
26.850000 0.092950 0
26.855000 0.061976 0
26.860000 0.032308 0
26.865000 0.003667 0
26.870000 -0.026030 0
26.875000 -0.060817 0
26.880000 -0.105122 0
26.885000 -0.159693 0
26.890000 -0.216450 0
26.895000 -0.256145 2
26.900000 -0.251560 0
26.905000 -0.174549 0
26.910000 -0.003818 0
26.915000 0.264538 0
26.920000 0.600753 0
26.925000 0.929641 0
26.930000 1.146449 0
26.935000 1.166868 3
26.940000 0.978122 0
26.945000 0.647646 0
26.950000 0.281767 0
26.955000 -0.030195 0
26.960000 -0.241070 0
26.965000 -0.341130 0
26.970000 -0.345821 4
26.975000 -0.286650 0
26.980000 -0.200894 0
26.985000 -0.118780 0
26.990000 -0.055139 0
26.995000 -0.010546 0
27.000000 0.021488 0
27.005000 0.047874 0
27.010000 0.073071 0
27.015000 0.099130 0
27.020000 0.126657 0
27.025000 0.155587 0
27.030000 0.185573 0
27.035000 0.216125 0
27.040000 0.246662 0
27.045000 0.276537 0
27.050000 0.305061 0
27.055000 0.331525 0
27.060000 0.355229 0
27.065000 0.375516 0
27.070000 0.391796 0
27.075000 0.403576 0
27.080000 0.410486 0
27.085000 0.412296 5
27.090000 0.408927 0
27.095000 0.400457 0
27.100000 0.387117 0
27.105000 0.369282 0
27.110000 0.347447 0
27.115000 0.322212 0
27.120000 0.294247 0
27.125000 0.264266 0
27.130000 0.232995 0
27.135000 0.201146 0
27.140000 0.169385 0
27.145000 0.138317 0
27.150000 0.108463 0
27.155000 0.080255 0
27.160000 0.054026 0
27.165000 0.030011 0
27.170000 0.008350 0
27.175000 -0.010899 0
27.180000 -0.027758 0
27.185000 -0.042306 0
27.190000 -0.054674 0
27.195000 -0.065027 0
27.200000 -0.073555 0
27.205000 -0.080457 0
27.210000 -0.085937 0
27.215000 -0.090190 0
27.220000 -0.093405 0
27.225000 -0.095751 0
27.230000 -0.097382 0
27.235000 -0.098433 0
27.240000 -0.098802 0
27.245000 -0.097892 0
27.250000 -0.096988 0
27.255000 -0.096088 0
27.260000 -0.095192 0
27.265000 -0.094300 0
27.270000 -0.093413 0
27.275000 -0.092530 0
27.280000 -0.091650 0
27.285000 -0.090773 0
27.290000 -0.089896 0
27.295000 -0.089016 0
27.300000 -0.088127 0
27.305000 -0.087216 0
27.310000 -0.086265 0
27.315000 -0.085242 0
27.320000 -0.084096 0
27.325000 -0.082750 0
27.330000 -0.081089 0
27.335000 -0.078949 0
27.340000 -0.076109 0
27.345000 -0.072275 0
27.350000 -0.067085 0
27.355000 -0.060108 0
27.360000 -0.050872 0
27.365000 -0.038894 0
27.370000 -0.023745 0
27.375000 -0.005114 0
27.380000 0.017103 0
27.385000 0.042722 0
27.390000 0.071209 0
27.395000 0.101644 0
27.400000 0.132734 0
27.405000 0.162881 0
27.410000 0.190305 0
27.415000 0.213212 0
27.420000 0.229989 0
27.425000 0.239384 0
27.430000 0.240669 1
27.435000 0.233724 0
27.440000 0.219063 0
27.445000 0.197763 0
27.450000 0.171339 0
27.455000 0.141559 0
27.460000 0.110236 0
27.465000 0.078984 0
27.470000 0.048902 0
27.475000 0.020071 0
27.480000 -0.009116 0
27.485000 -0.042337 0
27.490000 -0.084274 0
27.495000 -0.136983 0
27.500000 -0.194552 0
27.505000 -0.239696 0
27.510000 -0.245864 2
27.515000 -0.184022 0
27.520000 -0.030615 0
27.525000 0.222431 0
27.530000 0.551706 0
27.535000 0.887946 0
27.540000 1.126641 0
27.545000 1.175568 3
27.550000 1.010135 0
27.555000 0.690253 0
27.560000 0.323362 0
27.565000 0.004287 0
27.570000 -0.214856 0
27.575000 -0.321672 0
27.580000 -0.330636 4
27.585000 -0.273357 0
27.590000 -0.187970 0
27.595000 -0.105735 0
27.600000 -0.042095 0
27.605000 0.002302 0
27.610000 0.034104 0
27.615000 0.060342 0
27.620000 0.085494 0
27.625000 0.111574 0
27.630000 0.139149 0
27.635000 0.168127 0
27.640000 0.198137 0
27.645000 0.228668 0
27.650000 0.259117 0
27.655000 0.288816 0
27.660000 0.317055 0
27.665000 0.343108 0
27.670000 0.366263 0
27.675000 0.385855 0
27.680000 0.401297 0
27.685000 0.412105 0
27.690000 0.417927 0
27.695000 0.418559 5
27.700000 0.413955 0
27.705000 0.404232 0
27.710000 0.389664 0
27.715000 0.370666 0
27.720000 0.347779 0
27.725000 0.321638 0
27.730000 0.292945 0
27.735000 0.262440 0
27.740000 0.230862 0
27.745000 0.198928 0
27.750000 0.167301 0
27.755000 0.136572 0
27.760000 0.107243 0
27.765000 0.079718 0
27.770000 0.054298 0
27.775000 0.031185 0
27.780000 0.010488 0
27.785000 -0.007772 0
27.790000 -0.023641 0
27.795000 -0.037228 0
27.800000 -0.048684 0
27.805000 -0.058190 0
27.810000 -0.065947 0
27.815000 -0.072162 0
27.820000 -0.077040 0
27.825000 -0.080779 0
27.830000 -0.083560 0
27.835000 -0.085550 0
27.840000 -0.086894 0
27.845000 -0.087720 0
27.850000 -0.087108 0
27.855000 -0.086257 0
27.860000 -0.085410 0
27.865000 -0.084568 0
27.870000 -0.083729 0
27.875000 -0.082895 0
27.880000 -0.082065 0
27.885000 -0.081237 0
27.890000 -0.080413 0
27.895000 -0.079589 0
27.900000 -0.078763 0
27.905000 -0.077930 0
27.910000 -0.077078 0
27.915000 -0.076192 0
27.920000 -0.075242 0
27.925000 -0.074182 0
27.930000 -0.072939 0
27.935000 -0.071407 0
27.940000 -0.069429 0
27.945000 -0.066789 0
27.950000 -0.063204 0
27.955000 -0.058312 0
27.960000 -0.051685 0
27.965000 -0.042842 0
27.970000 -0.031289 0
27.975000 -0.016575 0
27.980000 0.001638 0
27.985000 0.023479 0
27.990000 0.048795 0
27.995000 0.077067 0
28.000000 0.107383 0
28.005000 0.138438 0
28.010000 0.168610 0
28.015000 0.196081 0
28.020000 0.219013 0
28.025000 0.235749 0
28.030000 0.245013 0
28.035000 0.246063 1
28.040000 0.238794 0
28.045000 0.223754 0
28.050000 0.202070 0
28.055000 0.175314 0
28.060000 0.145306 0
28.065000 0.113892 0
28.070000 0.082692 0
28.075000 0.052746 0
28.080000 0.023964 0
28.085000 -0.005574 0
28.090000 -0.039896 0
28.095000 -0.083680 0
28.100000 -0.138038 0
28.105000 -0.194954 0
28.110000 -0.234575 2
28.115000 -0.228583 0
28.120000 -0.147782 0
28.125000 0.029412 0
28.130000 0.305253 0
28.135000 0.644869 0
28.140000 0.965335 0
28.145000 1.157175 3
28.150000 1.143284 0
28.155000 0.928169 0
28.160000 0.587072 0
28.165000 0.223423 0
28.170000 -0.080384 0
28.175000 -0.282666 0
28.180000 -0.376319 0
28.185000 -0.377440 4
28.190000 -0.316967 0
28.195000 -0.230948 0
28.200000 -0.148528 0
28.205000 -0.084187 0
28.210000 -0.038738 0
28.215000 -0.006029 0
28.220000 0.020723 0
28.225000 0.046034 0
28.230000 0.072066 0
28.235000 0.099514 0
28.240000 0.128370 0
28.245000 0.158325 0
28.250000 0.188924 0
28.255000 0.219619 0
28.260000 0.249798 0
28.265000 0.278801 0
28.270000 0.305945 0
28.275000 0.330550 0
28.280000 0.351967 0
28.285000 0.369604 0
28.290000 0.382956 0
28.295000 0.391625 0
28.300000 0.395342 5
28.305000 0.393978 0
28.310000 0.387553 0
28.315000 0.376235 0
28.320000 0.360330 0
28.325000 0.340272 0
28.330000 0.316598 0
28.335000 0.289929 0
28.340000 0.260938 0
28.345000 0.230326 0
28.350000 0.198789 0
28.355000 0.166998 0
28.360000 0.135572 0
28.365000 0.105060 0
28.370000 0.075931 0
28.375000 0.048564 0
28.380000 0.023242 0
28.385000 0.000158 0
28.390000 -0.020582 0
28.395000 -0.038950 0
28.400000 -0.054986 0
