0.000000 1.132691 3
0.005000 1.048679 0
0.010000 0.834303 0
0.015000 0.543834 0
0.020000 0.240591 0
0.025000 -0.024626 0
0.030000 -0.222539 0
0.035000 -0.343379 0
0.040000 -0.391404 4
0.045000 -0.380685 0
0.050000 -0.331622 0
0.055000 -0.266203 0
0.060000 -0.202503 0
0.065000 -0.150990 0
0.070000 -0.114330 0
0.075000 -0.090000 0
0.080000 -0.073598 0
0.085000 -0.061133 0
0.090000 -0.049897 0
0.095000 -0.038381 0
0.100000 -0.025855 0
0.105000 -0.011996 0
0.110000 0.003328 0
0.115000 0.020166 0
0.120000 0.038515 0
0.125000 0.058331 0
0.130000 0.079527 0
0.135000 0.101971 0
0.140000 0.125487 0
0.145000 0.149850 0
0.150000 0.174791 0
0.155000 0.199998 0
0.160000 0.225121 0
0.165000 0.249783 0
0.170000 0.273582 0
0.175000 0.296106 0
0.180000 0.316944 0
0.185000 0.335696 0
0.190000 0.351987 0
0.195000 0.365481 0
0.200000 0.375887 0
0.205000 0.382975 0
0.210000 0.386580 0
0.215000 0.386611 5
0.220000 0.383053 0
0.225000 0.375966 0
0.230000 0.365489 0
0.235000 0.351826 0
0.240000 0.335250 0
0.245000 0.316084 0
0.250000 0.294698 0
0.255000 0.271491 0
0.260000 0.246881 0
0.265000 0.221296 0
0.270000 0.195154 0
0.275000 0.168858 0
0.280000 0.142786 0
0.285000 0.117278 0
0.290000 0.092635 0
0.295000 0.069112 0
0.300000 0.046915 0
0.305000 0.026203 0
0.310000 0.007087 0
0.315000 -0.010368 0
0.320000 -0.026136 0
0.325000 -0.040231 0
0.330000 -0.052693 0
0.335000 -0.063593 0
0.340000 -0.073018 0
0.345000 -0.081072 0
0.350000 -0.087869 0
0.355000 -0.093526 0
0.360000 -0.098162 0
0.365000 -0.101896 0
0.370000 -0.104840 0
0.375000 -0.107100 0
0.380000 -0.108773 0
0.385000 -0.109950 0
0.390000 -0.110710 0
0.395000 -0.111124 0
0.400000 -0.111252 0
0.405000 -0.111148 0
0.410000 -0.110858 0
0.415000 -0.110418 0
0.420000 -0.109860 0
0.425000 -0.109210 0
0.430000 -0.108456 0
0.435000 -0.107508 0
0.440000 -0.106564 0
0.445000 -0.105625 0
0.450000 -0.104691 0
0.455000 -0.103762 0
0.460000 -0.102837 0
0.465000 -0.101916 0
0.470000 -0.101001 0
0.475000 -0.100090 0
0.480000 -0.099183 0
0.485000 -0.098281 0
0.490000 -0.097383 0
0.495000 -0.096490 0
0.500000 -0.095602 0
0.505000 -0.094717 0
0.510000 -0.093838 0
0.515000 -0.092962 0
0.520000 -0.092091 0
0.525000 -0.091223 0
0.530000 -0.090360 0
0.535000 -0.089500 0
0.540000 -0.088643 0
0.545000 -0.087786 0
0.550000 -0.086930 0
0.555000 -0.086068 0
0.560000 -0.085196 0
0.565000 -0.084305 0
0.570000 -0.083381 0
0.575000 -0.082403 0
0.580000 -0.081339 0
0.585000 -0.080145 0
0.590000 -0.078760 0
0.595000 -0.077100 0
0.600000 -0.075053 0
0.605000 -0.072477 0
0.610000 -0.069195 0
0.615000 -0.064995 0
0.620000 -0.059630 0
0.625000 -0.052833 0
0.630000 -0.044319 0
0.635000 -0.033816 0
0.640000 -0.021083 0
0.645000 -0.005946 0
0.650000 0.011669 0
0.655000 0.031701 0
0.660000 0.053928 0
0.665000 0.077941 0
0.670000 0.103139 0
0.675000 0.128744 0
0.680000 0.153828 0
0.685000 0.177365 0
0.690000 0.198295 0
0.695000 0.215607 0
0.700000 0.228414 0
0.705000 0.236030 0
0.710000 0.238031 1
0.715000 0.234296 0
0.720000 0.225012 0
0.725000 0.210668 0
0.730000 0.192002 0
0.735000 0.169947 0
0.740000 0.145547 0
0.745000 0.119881 0
0.750000 0.093980 0
0.755000 0.068760 0
0.760000 0.044963 0
0.765000 0.023090 0
0.770000 0.003306 0
0.775000 -0.014726 0
0.780000 -0.032092 0
0.785000 -0.050842 0
0.790000 -0.073876 0
0.795000 -0.104075 0
0.800000 -0.142470 0
0.805000 -0.185937 0
0.810000 -0.225647 0
0.815000 -0.247472 2
0.820000 -0.234415 0
0.825000 -0.169873 0
0.830000 -0.040938 0
0.835000 0.157242 0
0.840000 0.414647 0
0.845000 0.699232 0
0.850000 0.956543 0
0.855000 1.122909 0
0.860000 1.149933 3
0.865000 1.027913 0
0.870000 0.788453 0
0.875000 0.489228 0
0.880000 0.190758 0
0.885000 -0.061796 0
0.890000 -0.244347 0
0.895000 -0.350584 0
0.900000 -0.386782 4
0.905000 -0.368082 0
0.910000 -0.315055 0
0.915000 -0.248939 0
0.920000 -0.186476 0
0.925000 -0.136806 0
0.930000 -0.101736 0
0.935000 -0.078440 0
0.940000 -0.062574 0
0.945000 -0.050330 0
0.950000 -0.039162 0
0.955000 -0.027658 0
0.960000 -0.015135 0
0.965000 -0.001288 0
0.970000 0.014009 0
0.975000 0.030802 0
0.980000 0.049087 0
0.985000 0.068822 0
0.990000 0.089923 0
0.995000 0.112262 0
1.000000 0.135669 0
1.005000 0.159926 0
1.010000 0.184774 0
1.015000 0.209910 0
1.020000 0.234997 0
1.025000 0.259667 0
1.030000 0.283531 0
1.035000 0.306186 0
1.040000 0.327231 0
1.045000 0.346273 0
1.050000 0.362940 0
1.055000 0.376898 0
1.060000 0.387853 0
1.065000 0.395568 0
1.070000 0.399870 0
1.075000 0.400653 5
1.080000 0.397886 0
1.085000 0.391610 0
1.090000 0.381941 0
1.095000 0.369064 0
1.100000 0.353227 0
1.105000 0.334734 0
1.110000 0.313933 0
1.115000 0.291205 0
1.120000 0.266957 0
1.125000 0.241603 0
1.130000 0.215556 0
1.135000 0.189218 0
1.140000 0.162967 0
1.145000 0.137149 0
1.150000 0.112075 0
1.155000 0.088012 0
1.160000 0.065182 0
1.165000 0.043759 0
1.170000 0.023872 0
1.175000 0.005603 0
1.180000 -0.011004 0
1.185000 -0.025945 0
1.190000 -0.039249 0
1.195000 -0.050970 0
1.200000 -0.061185 0
1.205000 -0.069990 0
1.210000 -0.077490 0
1.215000 -0.083799 0
1.220000 -0.089032 0
1.225000 -0.093307 0
1.230000 -0.096736 0
1.235000 -0.099427 0
1.240000 -0.101481 0
1.245000 -0.102990 0
1.250000 -0.104038 0
1.255000 -0.104699 0
1.260000 -0.105040 0
1.265000 -0.105118 0
1.270000 -0.104981 0
1.275000 -0.104672 0
1.280000 -0.104224 0
1.285000 -0.103668 0
1.290000 -0.103028 0
1.295000 -0.102290 0
1.300000 -0.101373 0
1.305000 -0.100460 0
1.310000 -0.099551 0
1.315000 -0.098648 0
1.320000 -0.097748 0
1.325000 -0.096853 0
1.330000 -0.095963 0
1.335000 -0.095077 0
1.340000 -0.094195 0
1.345000 -0.093318 0
1.350000 -0.092445 0
1.355000 -0.091577 0
1.360000 -0.090713 0
1.365000 -0.089853 0
1.370000 -0.088997 0
1.375000 -0.088146 0
1.380000 -0.087299 0
1.385000 -0.086456 0
1.390000 -0.085617 0
1.395000 -0.084781 0
1.400000 -0.083949 0
1.405000 -0.083119 0
1.410000 -0.082291 0
1.415000 -0.081461 0
1.420000 -0.080627 0
1.425000 -0.079784 0
1.430000 -0.078922 0
1.435000 -0.078027 0
1.440000 -0.077081 0
1.445000 -0.076054 0
1.450000 -0.074903 0
1.455000 -0.073571 0
1.460000 -0.071979 0
1.465000 -0.070020 0
1.470000 -0.067561 0
1.475000 -0.064434 0
1.480000 -0.060437 0
1.485000 -0.055336 0
1.490000 -0.048870 0
1.495000 -0.040766 0
1.500000 -0.030752 0
1.505000 -0.018584 0
1.510000 -0.004074 0
1.515000 0.012878 0
1.520000 0.032249 0
1.525000 0.053866 0
1.530000 0.077380 0
1.535000 0.102261 0
1.540000 0.127798 0
1.545000 0.153125 0
1.550000 0.177264 0
1.555000 0.199185 0
1.560000 0.217873 0
1.565000 0.232408 0
1.570000 0.242041 0
1.575000 0.246254 1
1.580000 0.244808 0
1.585000 0.237764 0
1.590000 0.225480 0
1.595000 0.208580 0
1.600000 0.187900 0
1.605000 0.164420 0
1.610000 0.139190 0
1.615000 0.113246 0
1.620000 0.087547 0
1.625000 0.062911 0
1.630000 0.039956 0
1.635000 0.019032 0
1.640000 0.000097 0
1.645000 -0.017477 0
1.650000 -0.035149 0
1.655000 -0.055326 0
1.660000 -0.080993 0
1.665000 -0.114500 0
1.670000 -0.155521 0
1.675000 -0.198964 0
1.680000 -0.234116 0
1.685000 -0.245817 2
1.690000 -0.217224 0
1.695000 -0.132953 0
1.700000 0.017631 0
1.705000 0.235568 0
1.710000 0.505209 0
1.715000 0.788441 0
1.720000 1.027616 0
1.725000 1.161889 3
1.730000 1.151919 0
1.735000 0.998052 0
1.740000 0.739129 0
1.745000 0.435035 0
1.750000 0.143454 0
1.755000 -0.095426 0
1.760000 -0.261992 0
1.765000 -0.353019 0
1.770000 -0.376788 4
1.775000 -0.349685 0
1.780000 -0.292631 0
1.785000 -0.226178 0
1.790000 -0.165644 0
1.795000 -0.118647 0
1.800000 -0.085932 0
1.805000 -0.064237 0
1.810000 -0.049242 0
1.815000 -0.037359 0
1.820000 -0.026265 0
1.825000 -0.014698 0
1.830000 -0.002055 0
1.835000 0.011929 0
1.840000 0.027367 0
1.845000 0.044294 0
1.850000 0.062704 0
1.855000 0.082548 0
1.860000 0.103739 0
1.865000 0.126146 0
1.870000 0.149594 0
1.875000 0.173863 0
1.880000 0.198693 0
1.885000 0.223781 0
1.890000 0.248789 0
1.895000 0.273351 0
1.900000 0.297080 0
1.905000 0.319578 0
1.910000 0.340447 0
1.915000 0.359299 0
1.920000 0.375768 0
1.925000 0.389524 0
1.930000 0.400279 0
1.935000 0.407803 0
1.940000 0.411924 0
1.945000 0.412542 5
1.950000 0.409628 0
1.955000 0.403224 0
1.960000 0.393446 0
1.965000 0.380480 0
1.970000 0.364571 0
1.975000 0.346020 0
1.980000 0.325172 0
1.985000 0.302406 0
1.990000 0.278123 0
1.995000 0.252732 0
2.000000 0.226645 0
2.005000 0.200258 0
2.010000 0.173947 0
2.015000 0.148057 0
2.020000 0.122895 0
2.025000 0.098730 0
2.030000 0.075782 0
2.035000 0.054227 0
2.040000 0.034193 0
2.045000 0.015768 0
2.050000 -0.001005 0
2.055000 -0.016120 0
2.060000 -0.029600 0
2.065000 -0.041500 0
2.070000 -0.051893 0
2.075000 -0.060872 0
2.080000 -0.068542 0
2.085000 -0.075014 0
2.090000 -0.080402 0
2.095000 -0.084823 0
2.100000 -0.088390 0
2.105000 -0.091208 0
2.110000 -0.093380 0
2.115000 -0.094997 0
2.120000 -0.096145 0
2.125000 -0.096897 0
2.130000 -0.097321 0
2.135000 -0.097475 0
2.140000 -0.097407 0
2.145000 -0.097162 0
2.150000 -0.096774 0
2.155000 -0.096273 0
2.160000 -0.095683 0
2.165000 -0.094992 0
2.170000 -0.094111 0
2.175000 -0.093234 0
2.180000 -0.092362 0
2.185000 -0.091494 0
2.190000 -0.090630 0
2.195000 -0.089771 0
2.200000 -0.088916 0
2.205000 -0.088065 0
2.210000 -0.087218 0
2.215000 -0.086376 0
2.220000 -0.085538 0
2.225000 -0.084704 0
2.230000 -0.083874 0
2.235000 -0.083048 0
2.240000 -0.082226 0
2.245000 -0.081409 0
2.250000 -0.080595 0
2.255000 -0.079786 0
2.260000 -0.078980 0
2.265000 -0.078178 0
2.270000 -0.077379 0
2.275000 -0.076582 0
2.280000 -0.075788 0
2.285000 -0.074992 0
2.290000 -0.074194 0
2.295000 -0.073388 0
2.300000 -0.072566 0
2.305000 -0.071717 0
2.310000 -0.070823 0
2.315000 -0.069860 0
2.320000 -0.068789 0
2.325000 -0.067559 0
2.330000 -0.066100 0
2.335000 -0.064316 0
2.340000 -0.062085 0
2.345000 -0.059253 0
2.350000 -0.055633 0
2.355000 -0.051003 0
2.360000 -0.045114 0
2.365000 -0.037699 0
2.370000 -0.028485 0
2.375000 -0.017217 0
2.380000 -0.003683 0
2.385000 0.012253 0
2.390000 0.030622 0
2.395000 0.051316 0
2.400000 0.074063 0
2.405000 0.098413 0
2.410000 0.123735 0
2.415000 0.149232 0
2.420000 0.173978 0
2.425000 0.196967 0
2.430000 0.217178 0
2.435000 0.233649 0
2.440000 0.245553 0
2.445000 0.252266 0
2.450000 0.253421 1
2.455000 0.248940 0
2.460000 0.239041 0
2.465000 0.224223 0
2.470000 0.205221 0
2.475000 0.182947 0
2.480000 0.158414 0
2.485000 0.132667 0
2.490000 0.106700 0
2.495000 0.081402 0
2.500000 0.057492 0
2.505000 0.035463 0
2.510000 0.015495 0
2.515000 -0.002701 0
2.520000 -0.020108 0
2.525000 -0.038612 0
2.530000 -0.060955 0
2.535000 -0.090013 0
2.540000 -0.127194 0
2.545000 -0.170278 0
2.550000 -0.211749 0
2.555000 -0.238804 2
2.560000 -0.235323 0
2.565000 -0.184871 0
2.570000 -0.073756 0
2.575000 0.105312 0
2.580000 0.347451 0
2.585000 0.628456 0
2.590000 0.901689 0
2.595000 1.106141 0
2.600000 1.186916 3
2.605000 1.118353 0
2.610000 0.916230 0
2.615000 0.631328 0
2.620000 0.326171 0
2.625000 0.053129 0
2.630000 -0.156013 0
2.635000 -0.289164 0
2.640000 -0.348677 4
2.645000 -0.347024 0
2.650000 -0.303474 0
2.655000 -0.239776 0
2.660000 -0.174817 0
2.665000 -0.120510 0
2.670000 -0.080919 0
2.675000 -0.054378 0
2.680000 -0.036722 0
2.685000 -0.023806 0
2.690000 -0.012646 0
2.695000 -0.001497 0
2.700000 0.010514 0
2.705000 0.023786 0
2.710000 0.038485 0
2.715000 0.054677 0
2.720000 0.072373 0
2.725000 0.091542 0
2.730000 0.112111 0
2.735000 0.133965 0
2.740000 0.156944 0
2.745000 0.180845 0
2.750000 0.205417 0
2.755000 0.230368 0
2.760000 0.255367 0
2.765000 0.280053 0
2.770000 0.304037 0
2.775000 0.326919 0
2.780000 0.348292 0
2.785000 0.367757 0
2.790000 0.384934 0
2.795000 0.399475 0
2.800000 0.411075 0
2.805000 0.419478 0
2.810000 0.424495 0
2.815000 0.426001 5
2.820000 0.423948 0
2.825000 0.418359 0
2.830000 0.409333 0
2.835000 0.397042 0
2.840000 0.381721 0
2.845000 0.363663 0
2.850000 0.343209 0
2.855000 0.320740 0
2.860000 0.296656 0
2.865000 0.271376 0
2.870000 0.245317 0
2.875000 0.218884 0
2.880000 0.192465 0
2.885000 0.166415 0
2.890000 0.141054 0
2.895000 0.116660 0
2.900000 0.093464 0
2.905000 0.071652 0
2.910000 0.051359 0
2.915000 0.032680 0
2.920000 0.015662 0
2.925000 0.000318 0
2.930000 -0.013377 0
2.935000 -0.025472 0
2.940000 -0.036043 0
2.945000 -0.045182 0
2.950000 -0.052995 0
2.955000 -0.059594 0
2.960000 -0.065097 0
2.965000 -0.069620 0
2.970000 -0.073279 0
2.975000 -0.076182 0
2.980000 -0.078431 0
2.985000 -0.080121 0
2.990000 -0.081338 0
2.995000 -0.082158 0
3.000000 -0.082647 0
3.005000 -0.082866 0
3.010000 -0.082863 0
3.015000 -0.082681 0
3.020000 -0.082358 0
3.025000 -0.081922 0
3.030000 -0.081398 0
3.035000 -0.080774 0
3.040000 -0.079964 0
3.045000 -0.079157 0
3.050000 -0.078355 0
3.055000 -0.077557 0
3.060000 -0.076763 0
3.065000 -0.075973 0
3.070000 -0.075186 0
3.075000 -0.074404 0
3.080000 -0.073625 0
3.085000 -0.072851 0
3.090000 -0.072080 0
3.095000 -0.071313 0
3.100000 -0.070550 0
3.105000 -0.069791 0
3.110000 -0.069035 0
3.115000 -0.068284 0
3.120000 -0.067536 0
3.125000 -0.066791 0
3.130000 -0.066050 0
3.135000 -0.065312 0
3.140000 -0.064577 0
3.145000 -0.063844 0
3.150000 -0.063112 0
3.155000 -0.062378 0
3.160000 -0.061640 0
3.165000 -0.060891 0
3.170000 -0.060124 0
3.175000 -0.059324 0
3.180000 -0.058472 0
3.185000 -0.057538 0
3.190000 -0.056481 0
3.195000 -0.055241 0
3.200000 -0.053739 0
3.205000 -0.051869 0
3.210000 -0.049496 0
3.215000 -0.046451 0
3.220000 -0.042530 0
3.225000 -0.037496 0
3.230000 -0.031089 0
3.235000 -0.023031 0
3.240000 -0.013050 0
3.245000 -0.000901 0
3.250000 0.013602 0
3.255000 0.030556 0
3.260000 0.049934 0
3.265000 0.071555 0
3.270000 0.095061 0
3.275000 0.119909 0
3.280000 0.145375 0
3.285000 0.170582 0
3.290000 0.194542 0
3.295000 0.216214 0
3.300000 0.234584 0
3.305000 0.248733 0
3.310000 0.257922 0
3.315000 0.261647 1
3.320000 0.259689 0
3.325000 0.252135 0
3.330000 0.239366 0
3.335000 0.222030 0
3.340000 0.200984 0
3.345000 0.177223 0
3.350000 0.151805 0
3.355000 0.125770 0
3.360000 0.100069 0
3.365000 0.075509 0
3.370000 0.052686 0
3.375000 0.031918 0
3.380000 0.013108 0
3.385000 -0.004460 0
3.390000 -0.022364 0
3.395000 -0.043131 0
3.400000 -0.069771 0
3.405000 -0.104430 0
3.410000 -0.146262 0
3.415000 -0.189401 0
3.420000 -0.222340 0
3.425000 -0.229403 2
3.430000 -0.193663 0
3.435000 -0.100114 0
3.440000 0.060878 0
3.445000 0.288297 0
3.450000 0.563148 0
3.455000 0.843450 0
3.460000 1.069238 0
3.465000 1.181091 3
3.470000 1.144166 0
3.475000 0.964839 0
3.480000 0.690147 0
3.485000 0.384279 0
3.490000 0.104060 0
3.495000 -0.114439 0
3.500000 -0.256361 0
3.505000 -0.322694 0
3.510000 -0.325440 4
3.515000 -0.284057 0
3.520000 -0.220984 0
3.525000 -0.155963 0
3.530000 -0.101552 0
3.535000 -0.062072 0
3.540000 -0.035811 0
3.545000 -0.018462 0
3.550000 -0.005777 0
3.555000 0.005256 0
3.560000 0.016368 0
3.565000 0.028409 0
3.570000 0.041757 0
3.575000 0.056570 0
3.580000 0.072906 0
3.585000 0.090770 0
3.590000 0.110123 0
3.595000 0.130881 0
3.600000 0.152919 0
3.605000 0.176060 0
3.610000 0.200084 0
3.615000 0.224720 0
3.620000 0.249657 0
3.625000 0.274543 0
3.630000 0.298995 0
3.635000 0.322608 0
3.640000 0.344965 0
3.645000 0.365646 0
3.650000 0.384245 0
3.655000 0.400381 0
3.660000 0.413710 0
3.665000 0.423935 0
3.670000 0.430822 0
3.675000 0.434203 5
3.680000 0.433983 0
3.685000 0.430148 0
3.690000 0.422762 0
3.695000 0.411962 0
3.700000 0.397963 0
3.705000 0.381040 0
3.710000 0.361524 0
3.715000 0.339791 0
3.720000 0.316250 0
3.725000 0.291325 0
3.730000 0.265448 0
3.735000 0.239046 0
3.740000 0.212525 0
3.745000 0.186264 0
3.750000 0.160606 0
3.755000 0.135852 0
3.760000 0.112253 0
3.765000 0.090015 0
3.770000 0.069290 0
3.775000 0.050186 0
3.780000 0.032763 0
3.785000 0.017040 0
3.790000 0.002999 0
3.795000 -0.009408 0
3.800000 -0.020254 0
3.805000 -0.029633 0
3.810000 -0.037651 0
3.815000 -0.044425 0
3.820000 -0.050075 0
3.825000 -0.054723 0
3.830000 -0.058487 0
3.835000 -0.061479 0
3.840000 -0.063805 0
3.845000 -0.065563 0
3.850000 -0.066841 0
3.855000 -0.067718 0
3.860000 -0.068262 0
3.865000 -0.068534 0
3.870000 -0.068585 0
3.875000 -0.068458 0
3.880000 -0.068190 0
3.885000 -0.067810 0
3.890000 -0.067344 0
3.895000 -0.066782 0
3.900000 -0.066041 0
3.905000 -0.065304 0
3.910000 -0.064571 0
3.915000 -0.063842 0
3.920000 -0.063116 0
3.925000 -0.062394 0
3.930000 -0.061675 0
3.935000 -0.060960 0
3.940000 -0.060249 0
3.945000 -0.059541 0
3.950000 -0.058837 0
3.955000 -0.058136 0
3.960000 -0.057439 0
3.965000 -0.056745 0
3.970000 -0.056054 0
3.975000 -0.055367 0
3.980000 -0.054683 0
3.985000 -0.054003 0
3.990000 -0.053325 0
3.995000 -0.052651 0
4.000000 -0.051978 0
4.005000 -0.051306 0
4.010000 -0.050634 0
4.015000 -0.049959 0
4.020000 -0.049275 0
4.025000 -0.048576 0
4.030000 -0.047850 0
4.035000 -0.047079 0
4.040000 -0.046236 0
4.045000 -0.045284 0
4.050000 -0.044168 0
4.055000 -0.042814 0
4.060000 -0.041120 0
4.065000 -0.038956 0
4.070000 -0.036158 0
4.075000 -0.032523 0
4.080000 -0.027816 0
4.085000 -0.021771 0
4.090000 -0.014105 0
4.095000 -0.004533 0
4.100000 0.007204 0
4.105000 0.021311 0
4.110000 0.037904 0
4.115000 0.056972 0
4.120000 0.078348 0
4.125000 0.101680 0
4.130000 0.126422 0
4.135000 0.151839 0
4.140000 0.177030 0
4.145000 0.200978 0
4.150000 0.222609 0
4.155000 0.240874 0
4.160000 0.254829 0
4.165000 0.263716 0
4.170000 0.267030 1
4.175000 0.264567 0
4.180000 0.256439 0
4.185000 0.243071 0
4.190000 0.225160 0
4.195000 0.203614 0
4.200000 0.179474 0
4.205000 0.153835 0
4.210000 0.127760 0
4.215000 0.102206 0
4.220000 0.077963 0
4.225000 0.055591 0
4.230000 0.035326 0
4.235000 0.016923 0
4.240000 -0.000583 0
4.245000 -0.019122 0
4.250000 -0.041543 0
4.255000 -0.070861 0
4.260000 -0.108484 0
4.265000 -0.151854 0
4.270000 -0.192677 0
4.275000 -0.217088 2
4.280000 -0.207978 0
4.285000 -0.148326 0
4.290000 -0.024590 0
4.295000 0.168955 0
4.300000 0.423379 0
4.305000 0.707584 0
4.310000 0.967284 0
4.315000 1.137826 0
4.320000 1.169100 3
4.325000 1.048345 0
4.330000 0.806824 0
4.335000 0.506130 0
4.340000 0.210092 0
4.345000 -0.035117 0
4.350000 -0.206343 0
4.355000 -0.299178 0
4.360000 -0.322275 4
4.365000 -0.293335 0
4.370000 -0.234939 0
4.375000 -0.168834 0
4.380000 -0.110487 0
4.385000 -0.066738 0
4.390000 -0.037263 0
4.395000 -0.018054 0
4.400000 -0.004565 0
4.405000 0.006641 0
4.410000 0.017620 0
4.415000 0.029406 0
4.420000 0.042462 0
4.425000 0.056982 0
4.430000 0.073040 0
4.435000 0.090648 0
4.440000 0.109773 0
4.445000 0.130338 0
4.450000 0.152218 0
4.455000 0.175241 0
4.460000 0.199183 0
4.465000 0.223774 0
4.470000 0.248696 0
4.475000 0.273592 0
4.480000 0.298071 0
4.485000 0.321719 0
4.490000 0.344106 0
4.495000 0.364804 0
4.500000 0.383396 0
4.505000 0.399491 0
4.510000 0.412735 0
4.515000 0.422828 0
4.520000 0.429530 0
4.525000 0.432674 5
4.530000 0.432169 0
4.535000 0.428005 0
4.540000 0.420255 0
4.545000 0.409069 0
4.550000 0.394674 0
4.555000 0.377360 0
4.560000 0.357474 0
4.565000 0.335408 0
4.570000 0.311584 0
4.575000 0.286439 0
4.580000 0.260418 0
4.585000 0.233952 0
4.590000 0.207453 0
4.595000 0.181304 0
4.600000 0.155844 0
4.605000 0.131370 0
4.610000 0.108127 0
4.615000 0.086310 0
4.620000 0.066063 0
4.625000 0.047480 0
4.630000 0.030608 0
4.635000 0.015454 0
4.640000 0.001990 0
4.645000 -0.009845 0
4.650000 -0.020134 0
4.655000 -0.028979 0
4.660000 -0.036493 0
4.665000 -0.042798 0
4.670000 -0.048018 0
4.675000 -0.052277 0
4.680000 -0.055693 0
4.685000 -0.058378 0
4.690000 -0.060439 0
4.695000 -0.061969 0
4.700000 -0.063054 0
4.705000 -0.063770 0
4.710000 -0.064182 0
4.715000 -0.064348 0
4.720000 -0.064315 0
4.725000 -0.064124 0
4.730000 -0.063808 0
4.735000 -0.063395 0
4.740000 -0.062873 0
4.745000 -0.062152 0
4.750000 -0.061435 0
4.755000 -0.060721 0
4.760000 -0.060011 0
4.765000 -0.059304 0
4.770000 -0.058601 0
4.775000 -0.057901 0
4.780000 -0.057205 0
4.785000 -0.056512 0
4.790000 -0.055823 0
4.795000 -0.055137 0
4.800000 -0.054455 0
4.805000 -0.053776 0
4.810000 -0.053100 0
4.815000 -0.052428 0
4.820000 -0.051759 0
4.825000 -0.051093 0
4.830000 -0.050431 0
4.835000 -0.049771 0
4.840000 -0.049114 0
4.845000 -0.048460 0
4.850000 -0.047806 0
4.855000 -0.047152 0
4.860000 -0.046494 0
4.865000 -0.045829 0
4.870000 -0.045148 0
4.875000 -0.044441 0
4.880000 -0.043689 0
4.885000 -0.042865 0
4.890000 -0.041931 0
4.895000 -0.040831 0
4.900000 -0.039488 0
4.905000 -0.037798 0
4.910000 -0.035627 0
4.915000 -0.032803 0
4.920000 -0.029118 0
4.925000 -0.024328 0
4.930000 -0.018159 0
4.935000 -0.010318 0
4.940000 -0.000515 0
4.945000 0.011510 0
4.950000 0.025959 0
4.955000 0.042933 0
4.960000 0.062399 0
4.965000 0.084154 0
4.970000 0.107802 0
4.975000 0.132744 0
4.980000 0.158189 0
4.985000 0.183182 0
4.990000 0.206659 0
4.995000 0.227519 0
5.000000 0.244705 0
5.005000 0.257294 0
5.010000 0.264575 0
5.015000 0.266117 1
5.020000 0.261810 0
5.025000 0.251875 0
5.030000 0.236845 0
5.035000 0.217517 0
5.040000 0.194881 0
5.045000 0.170036 0
5.050000 0.144098 0
5.055000 0.118125 0
5.060000 0.093035 0
5.065000 0.069547 0
5.070000 0.048104 0
5.075000 0.028752 0
5.080000 0.010935 0
5.085000 -0.006782 0
5.090000 -0.026877 0
5.095000 -0.052513 0
5.100000 -0.086216 0
5.105000 -0.127596 0
5.110000 -0.170992 0
5.115000 -0.204591 0
5.120000 -0.211922 2
5.125000 -0.175072 0
5.130000 -0.078252 0
5.135000 0.088286 0
5.140000 0.322175 0
5.145000 0.600724 0
5.150000 0.876227 0
5.155000 1.083713 0
5.160000 1.163712 3
5.165000 1.089201 0
5.170000 0.879200 0
5.175000 0.589434 0
5.180000 0.286155 0
5.185000 0.022411 0
5.190000 -0.171771 0
5.195000 -0.287038 0
5.200000 -0.328739 4
5.205000 -0.312431 0
5.210000 -0.259961 0
5.215000 -0.194073 0
5.220000 -0.132503 0
5.225000 -0.084529 0
5.230000 -0.051481 0
5.235000 -0.029966 0
5.240000 -0.015327 0
5.245000 -0.003739 0
5.250000 0.007206 0
5.255000 0.018766 0
5.260000 0.031517 0
5.265000 0.045704 0
5.270000 0.061422 0
5.275000 0.078697 0
5.280000 0.097506 0
5.285000 0.117782 0
5.290000 0.139411 0
5.295000 0.162230 0
5.300000 0.186026 0
5.305000 0.210538 0
5.310000 0.235457 0
5.315000 0.260429 0
5.320000 0.285070 0
5.325000 0.308965 0
5.330000 0.331686 0
5.335000 0.352799 0
5.340000 0.371881 0
5.345000 0.388532 0
5.350000 0.402388 0
5.355000 0.413137 0
5.360000 0.420524 0
5.365000 0.424366 0
5.370000 0.424557 5
5.375000 0.421074 0
5.380000 0.413974 0
5.385000 0.403396 0
5.390000 0.389554 0
5.395000 0.372732 0
5.400000 0.353270 0
5.405000 0.331556 0
5.410000 0.308010 0
5.415000 0.283071 0
5.420000 0.257187 0
5.425000 0.230794 0
5.430000 0.204311 0
5.435000 0.178126 0
5.440000 0.152589 0
5.445000 0.128003 0
5.450000 0.104623 0
5.455000 0.082652 0
5.460000 0.062240 0
5.465000 0.043487 0
5.470000 0.026448 0
5.475000 0.011133 0
5.480000 -0.002483 0
5.485000 -0.014457 0
5.490000 -0.024871 0
5.495000 -0.033825 0
5.500000 -0.041433 0
5.505000 -0.047816 0
5.510000 -0.053100 0
5.515000 -0.057409 0
5.520000 -0.060863 0
5.525000 -0.063576 0
5.530000 -0.065654 0
5.535000 -0.067193 0
5.540000 -0.068280 0
5.545000 -0.068992 0
5.550000 -0.069396 0
5.555000 -0.069549 0
5.560000 -0.069500 0
5.565000 -0.069291 0
5.570000 -0.068955 0
5.575000 -0.068520 0
5.580000 -0.067975 0
5.585000 -0.067229 0
5.590000 -0.066486 0
5.595000 -0.065747 0
5.600000 -0.065012 0
5.605000 -0.064280 0
5.610000 -0.063552 0
5.615000 -0.062828 0
5.620000 -0.062107 0
5.625000 -0.061390 0
5.630000 -0.060677 0
5.635000 -0.059966 0
5.640000 -0.059260 0
5.645000 -0.058557 0
5.650000 -0.057858 0
5.655000 -0.057162 0
5.660000 -0.056469 0
5.665000 -0.055780 0
5.670000 -0.055094 0
5.675000 -0.054411 0
5.680000 -0.053731 0
5.685000 -0.053053 0
5.690000 -0.052376 0
5.695000 -0.051699 0
5.700000 -0.051019 0
5.705000 -0.050330 0
5.710000 -0.049626 0
5.715000 -0.048895 0
5.720000 -0.048118 0
5.725000 -0.047267 0
5.730000 -0.046304 0
5.735000 -0.045170 0
5.740000 -0.043788 0
5.745000 -0.042051 0
5.750000 -0.039821 0
5.755000 -0.036923 0
5.760000 -0.033146 0
5.765000 -0.028241 0
5.770000 -0.021930 0
5.775000 -0.013918 0
5.780000 -0.003915 0
5.785000 0.008339 0
5.790000 0.023037 0
5.795000 0.040271 0
5.800000 0.059994 0
5.805000 0.081984 0
5.810000 0.105820 0
5.815000 0.130880 0
5.820000 0.156347 0
5.825000 0.181246 0
5.830000 0.204498 0
5.835000 0.224995 0
5.840000 0.241685 0
5.845000 0.253661 0
5.850000 0.260240 0
5.855000 0.261028 1
5.860000 0.255960 0
5.865000 0.245301 0
5.870000 0.229628 0
5.875000 0.209776 0
5.880000 0.186763 0
5.885000 0.161702 0
5.890000 0.135715 0
5.895000 0.109846 0
5.900000 0.084993 0
5.905000 0.061841 0
5.910000 0.040780 0
5.915000 0.021771 0
5.920000 0.004122 0
5.925000 -0.013791 0
5.930000 -0.034632 0
5.935000 -0.061599 0
5.940000 -0.096885 0
5.945000 -0.139258 0
5.950000 -0.181839 0
5.955000 -0.211640 2
5.960000 -0.211515 0
5.965000 -0.163586 0
5.970000 -0.052838 0
5.975000 0.128612 0
5.980000 0.374778 0
5.985000 0.657549 0
5.990000 0.923935 0
5.995000 1.107410 0
6.000000 1.153298 3
6.005000 1.044932 0
6.010000 0.811825 0
6.015000 0.513781 0
6.020000 0.215111 0
6.025000 -0.036182 0
6.030000 -0.214992 0
6.035000 -0.315387 0
6.040000 -0.344871 4
6.045000 -0.320296 0
6.050000 -0.263862 0
6.055000 -0.197588 0
6.060000 -0.137744 0
6.065000 -0.092098 0
6.070000 -0.060993 0
6.075000 -0.040685 0
6.080000 -0.026600 0
6.085000 -0.015143 0
6.090000 -0.004108 0
6.095000 0.007637 0
6.100000 0.020607 0
6.105000 0.035019 0
6.110000 0.050958 0
6.115000 0.068444 0
6.120000 0.087449 0
6.125000 0.107905 0
6.130000 0.129692 0
6.135000 0.152648 0
6.140000 0.176558 0
6.145000 0.201160 0
6.150000 0.226145 0
6.155000 0.251163 0
6.160000 0.275832 0
6.165000 0.299740 0
6.170000 0.322465 0
6.175000 0.343577 0
6.180000 0.362660 0
6.185000 0.379319 0
6.190000 0.393194 0
6.195000 0.403976 0
6.200000 0.411416 0
6.205000 0.415332 0
6.210000 0.415620 5
6.215000 0.412253 0
6.220000 0.405288 0
6.225000 0.394861 0
6.230000 0.381181 0
6.235000 0.364525 0
6.240000 0.345228 0
6.245000 0.323672 0
6.250000 0.300270 0
6.255000 0.275457 0
6.260000 0.249673 0
6.265000 0.223352 0
6.270000 0.196909 0
6.275000 0.170731 0
6.280000 0.145167 0
6.285000 0.120522 0
6.290000 0.097052 0
6.295000 0.074964 0
6.300000 0.054411 0
6.305000 0.035499 0
6.310000 0.018286 0
6.315000 0.002788 0
6.320000 -0.011015 0
6.325000 -0.023175 0
6.330000 -0.033771 0
6.335000 -0.042898 0
6.340000 -0.050669 0
6.345000 -0.057201 0
6.350000 -0.062619 0
6.355000 -0.067045 0
6.360000 -0.070600 0
6.365000 -0.073397 0
6.370000 -0.075543 0
6.375000 -0.077134 0
6.380000 -0.078260 0
6.385000 -0.078997 0
6.390000 -0.079414 0
6.395000 -0.079569 0
6.400000 -0.079514 0
6.405000 -0.079290 0
6.410000 -0.078933 0
6.415000 -0.078472 0
6.420000 -0.077930 0
6.425000 -0.077171 0
6.430000 -0.076379 0
6.435000 -0.075590 0
6.440000 -0.074806 0
6.445000 -0.074025 0
6.450000 -0.073249 0
6.455000 -0.072476 0
6.460000 -0.071707 0
6.465000 -0.070942 0
6.470000 -0.070181 0
6.475000 -0.069424 0
6.480000 -0.068670 0
6.485000 -0.067920 0
6.490000 -0.067174 0
6.495000 -0.066432 0
6.500000 -0.065693 0
6.505000 -0.064958 0
6.510000 -0.064226 0
6.515000 -0.063498 0
6.520000 -0.062773 0
6.525000 -0.062050 0
6.530000 -0.061330 0
6.535000 -0.060610 0
6.540000 -0.059888 0
6.545000 -0.059161 0
6.550000 -0.058421 0
6.555000 -0.057661 0
6.560000 -0.056864 0
6.565000 -0.056007 0
6.570000 -0.055057 0
6.575000 -0.053965 0
6.580000 -0.052664 0
6.585000 -0.051061 0
6.590000 -0.049035 0
6.595000 -0.046430 0
6.600000 -0.043055 0
6.605000 -0.038679 0
6.610000 -0.033040 0
6.615000 -0.025854 0
6.620000 -0.016829 0
6.625000 -0.005688 0
6.630000 0.007796 0
6.635000 0.023770 0
6.640000 0.042262 0
6.645000 0.063144 0
6.650000 0.086105 0
6.655000 0.110637 0
6.660000 0.136030 0
6.665000 0.161400 0
6.670000 0.185728 0
6.675000 0.207925 0
6.680000 0.226910 0
6.685000 0.241695 0
6.690000 0.251470 0
6.695000 0.255676 1
6.700000 0.254057 0
6.705000 0.246683 0
6.710000 0.233949 0
6.715000 0.216536 0
6.720000 0.195349 0
6.725000 0.171443 0
6.730000 0.145931 0
6.735000 0.119902 0
6.740000 0.094342 0
6.745000 0.070070 0
6.750000 0.047667 0
6.755000 0.027389 0
6.760000 0.009001 0
6.765000 -0.008468 0
6.770000 -0.026977 0
6.775000 -0.049438 0
6.780000 -0.078908 0
6.785000 -0.116757 0
6.790000 -0.160193 0
6.795000 -0.200490 0
6.800000 -0.223261 2
6.805000 -0.210962 0
6.810000 -0.146378 0
6.815000 -0.016171 0
6.820000 0.184427 0
6.825000 0.444273 0
6.830000 0.728804 0
6.835000 0.980356 0
6.840000 1.133405 0
6.845000 1.141231 3
6.850000 0.999100 0
6.855000 0.745826 0
6.860000 0.442674 0
6.865000 0.150003 0
6.870000 -0.089809 0
6.875000 -0.256103 0
6.880000 -0.345558 0
6.885000 -0.366965 4
6.890000 -0.337567 0
6.895000 -0.279163 0
6.900000 -0.212787 0
6.905000 -0.153603 0
6.910000 -0.108604 0
6.915000 -0.077834 0
6.920000 -0.057585 0
6.925000 -0.043424 0
6.930000 -0.031866 0
6.935000 -0.020760 0
6.940000 -0.008982 0
6.945000 0.003982 0
6.950000 0.018355 0
6.955000 0.034225 0
6.960000 0.051617 0
6.965000 0.070508 0
6.970000 0.090836 0
6.975000 0.112493 0
6.980000 0.135328 0
6.985000 0.159142 0
6.990000 0.183689 0
6.995000 0.208679 0
7.000000 0.233781 0
7.005000 0.258631 0
7.010000 0.282837 0
7.015000 0.305992 0
7.020000 0.327679 0
7.025000 0.347491 0
7.030000 0.365037 0
7.035000 0.379956 0
7.040000 0.391931 0
7.045000 0.400699 0
7.050000 0.406057 0
7.055000 0.407875 5
7.060000 0.406097 0
7.065000 0.400744 0
7.070000 0.391913 0
7.075000 0.379777 0
7.080000 0.364575 0
7.085000 0.346605 0
7.090000 0.326215 0
7.095000 0.303792 0
7.100000 0.279748 0
7.105000 0.254509 0
7.110000 0.228498 0
7.115000 0.202132 0
7.120000 0.175802 0
7.125000 0.149870 0
7.130000 0.124657 0
7.135000 0.100445 0
7.140000 0.077464 0
7.145000 0.055897 0
7.150000 0.035879 0
7.155000 0.017498 0
7.160000 0.000799 0
7.165000 -0.014212 0
7.170000 -0.027565 0
7.175000 -0.039315 0
7.180000 -0.049542 0
7.185000 -0.058344 0
7.190000 -0.065830 0
7.195000 -0.072116 0
7.200000 -0.077322 0
7.205000 -0.081568 0
7.210000 -0.084969 0
7.215000 -0.087634 0
7.220000 -0.089667 0
7.225000 -0.091160 0
7.230000 -0.092198 0
7.235000 -0.092857 0
7.240000 -0.093202 0
7.245000 -0.093291 0
7.250000 -0.093171 0
7.255000 -0.092885 0
7.260000 -0.092467 0
7.265000 -0.091945 0
7.270000 -0.091342 0
7.275000 -0.090517 0
7.280000 -0.089658 0
7.285000 -0.088803 0
7.290000 -0.087953 0
7.295000 -0.087107 0
7.300000 -0.086265 0
7.305000 -0.085428 0
7.310000 -0.084594 0
7.315000 -0.083765 0
7.320000 -0.082940 0
7.325000 -0.082119 0
7.330000 -0.081302 0
7.335000 -0.080489 0
7.340000 -0.079680 0
7.345000 -0.078875 0
7.350000 -0.078074 0
7.355000 -0.077277 0
7.360000 -0.076484 0
7.365000 -0.075695 0
7.370000 -0.074909 0
7.375000 -0.074127 0
7.380000 -0.073347 0
7.385000 -0.072569 0
7.390000 -0.071790 0
7.395000 -0.071008 0
7.400000 -0.070219 0
7.405000 -0.069414 0
7.410000 -0.068581 0
7.415000 -0.067704 0
7.420000 -0.066755 0
7.425000 -0.065696 0
7.430000 -0.064473 0
7.435000 -0.063010 0
7.440000 -0.061209 0
7.445000 -0.058939 0
7.450000 -0.056037 0
7.455000 -0.052304 0
7.460000 -0.047506 0
7.465000 -0.041382 0
7.470000 -0.033651 0
7.475000 -0.024033 0
7.480000 -0.012270 0
7.485000 0.001844 0
7.490000 0.018425 0
7.495000 0.037469 0
7.500000 0.058820 0
7.505000 0.082139 0
7.510000 0.106899 0
7.515000 0.132384 0
7.520000 0.157716 0
7.525000 0.181895 0
7.530000 0.203863 0
7.535000 0.222576 0
7.540000 0.237090 0
7.545000 0.246632 0
7.550000 0.250676 1
7.555000 0.248982 0
7.560000 0.241626 0
7.565000 0.228991 0
7.570000 0.211733 0
7.575000 0.190725 0
7.580000 0.166983 0
7.585000 0.141586 0
7.590000 0.115594 0
7.595000 0.089974 0
7.600000 0.065541 0
7.605000 0.042890 0
7.610000 0.022321 0
7.615000 0.003696 0
7.620000 -0.013783 0
7.625000 -0.031823 0
7.630000 -0.053089 0
7.635000 -0.080638 0
7.640000 -0.116396 0
7.645000 -0.158893 0
7.650000 -0.201281 0
7.655000 -0.230994 0
7.660000 -0.231598 2
7.665000 -0.185939 0
7.670000 -0.079441 0
7.675000 0.096065 0
7.680000 0.336327 0
7.685000 0.617000 0
7.690000 0.890077 0
7.695000 1.092367 0
7.700000 1.167464 3
7.705000 1.091824 0
7.710000 0.885629 0
7.715000 0.599470 0
7.720000 0.294542 0
7.725000 0.021828 0
7.730000 -0.187677 0
7.735000 -0.322046 0
7.740000 -0.383385 0
7.745000 -0.383659 4
7.750000 -0.341531 0
7.755000 -0.278292 0
7.760000 -0.212743 0
7.765000 -0.157110 0
7.770000 -0.115961 0
7.775000 -0.088056 0
7.780000 -0.069435 0
7.785000 -0.055954 0
7.790000 -0.044528 0
7.795000 -0.033300 0
7.800000 -0.021315 0
7.805000 -0.008130 0
7.810000 0.006446 0
7.815000 0.022490 0
7.820000 0.040021 0
7.825000 0.059017 0
7.830000 0.079414 0
7.835000 0.101112 0
7.840000 0.123964 0
7.845000 0.147780 0
7.850000 0.172329 0
7.855000 0.197335 0
7.860000 0.222485 0
7.865000 0.247432 0
7.870000 0.271806 0
7.875000 0.295216 0
7.880000 0.317265 0
7.885000 0.337561 0
7.890000 0.355723 0
7.895000 0.371398 0
7.900000 0.384271 0
7.905000 0.394072 0
7.910000 0.400591 0
7.915000 0.403679 5
7.920000 0.403257 0
7.925000 0.399319 0
7.930000 0.391929 0
7.935000 0.381225 0
7.940000 0.367408 0
7.945000 0.350739 0
7.950000 0.331533 0
7.955000 0.310142 0
7.960000 0.286950 0
7.965000 0.262360 0
7.970000 0.236781 0
7.975000 0.210617 0
7.980000 0.184259 0
7.985000 0.158073 0
7.990000 0.132391 0
7.995000 0.107510 0
8.000000 0.083684 0
8.005000 0.061121 0
8.010000 0.039983 0
8.015000 0.020388 0
8.020000 0.002411 0
8.025000 -0.013915 0
8.030000 -0.028590 0
8.035000 -0.041646 0
8.040000 -0.053142 0
8.045000 -0.063156 0
8.050000 -0.071784 0
8.055000 -0.079130 0
8.060000 -0.085308 0
8.065000 -0.090431 0
8.070000 -0.094615 0
8.075000 -0.097969 0
8.080000 -0.100601 0
8.085000 -0.102607 0
8.090000 -0.104079 0
8.095000 -0.105098 0
8.100000 -0.105737 0
8.105000 -0.106061 0
8.110000 -0.106126 0
8.115000 -0.105979 0
8.120000 -0.105662 0
8.125000 -0.105209 0
8.130000 -0.104648 0
8.135000 -0.104003 0
8.140000 -0.103261 0
8.145000 -0.102339 0
8.150000 -0.101421 0
8.155000 -0.100508 0
8.160000 -0.099599 0
8.165000 -0.098695 0
8.170000 -0.097796 0
8.175000 -0.096900 0
8.180000 -0.096010 0
8.185000 -0.095124 0
8.190000 -0.094242 0
8.195000 -0.093364 0
8.200000 -0.092491 0
8.205000 -0.091623 0
8.210000 -0.090758 0
8.215000 -0.089898 0
8.220000 -0.089042 0
8.225000 -0.088191 0
8.230000 -0.087343 0
8.235000 -0.086500 0
8.240000 -0.085660 0
8.245000 -0.084824 0
8.250000 -0.083990 0
8.255000 -0.083158 0
8.260000 -0.082325 0
8.265000 -0.081489 0
8.270000 -0.080645 0
8.275000 -0.079785 0
8.280000 -0.078896 0
8.285000 -0.077962 0
8.290000 -0.076956 0
8.295000 -0.075839 0
8.300000 -0.074560 0
8.305000 -0.073046 0
8.310000 -0.071201 0
8.315000 -0.068902 0
8.320000 -0.065994 0
8.325000 -0.062287 0
8.330000 -0.057561 0
8.335000 -0.051566 0
8.340000 -0.044037 0
8.345000 -0.034702 0
8.350000 -0.023310 0
8.355000 -0.009652 0
8.360000 0.006404 0
8.365000 0.024884 0
8.370000 0.045676 0
8.375000 0.068503 0
8.380000 0.092915 0
8.385000 0.118279 0
8.390000 0.143801 0
8.395000 0.168558 0
8.400000 0.191550 0
8.405000 0.211762 0
8.410000 0.228239 0
8.415000 0.240161 0
8.420000 0.246906 0
8.425000 0.248111 1
8.430000 0.243697 0
8.435000 0.233878 0
8.440000 0.219148 0
8.445000 0.200234 0
8.450000 0.178041 0
8.455000 0.153575 0
8.460000 0.127873 0
8.465000 0.101927 0
8.470000 0.076623 0
8.475000 0.052683 0
8.480000 0.030605 0
8.485000 0.010583 0
8.490000 -0.007648 0
8.495000 -0.025028 0
8.500000 -0.043388 0
8.505000 -0.065419 0
8.510000 -0.094007 0
8.515000 -0.130692 0
8.520000 -0.173539 0
8.525000 -0.215430 0
8.530000 -0.243943 2
8.535000 -0.243191 0
8.540000 -0.196757 0
8.545000 -0.090718 0
8.550000 0.082842 0
8.555000 0.320324 0
8.560000 0.599519 0
8.565000 0.875891 0
8.570000 1.089396 0
8.575000 1.183835 3
8.580000 1.130905 0
8.585000 0.943154 0
8.590000 0.666342 0
8.595000 0.360429 0
8.600000 0.078384 0
8.605000 -0.145434 0
8.610000 -0.295932 0
8.615000 -0.372678 0
8.620000 -0.385559 4
8.625000 -0.351678 0
8.630000 -0.291761 0
8.635000 -0.225333 0
8.640000 -0.166302 0
8.645000 -0.121082 0
8.650000 -0.089742 0
8.655000 -0.068855 0
8.660000 -0.054216 0
8.665000 -0.042425 0
8.670000 -0.031303 0
8.675000 -0.019668 0
8.680000 -0.006957 0
8.685000 0.007084 0
8.690000 0.022559 0
8.695000 0.039505 0
8.700000 0.057914 0
8.705000 0.077739 0
8.710000 0.098896 0
8.715000 0.121260 0
8.720000 0.144662 0
8.725000 0.168891 0
8.730000 0.193696 0
8.735000 0.218784 0
8.740000 0.243830 0
8.745000 0.268481 0
8.750000 0.292359 0
8.755000 0.315080 0
8.760000 0.336253 0
8.765000 0.355497 0
8.770000 0.372453 0
8.775000 0.386789 0
8.780000 0.398218 0
8.785000 0.406501 0
8.790000 0.411457 0
8.795000 0.412972 5
8.800000 0.410999 0
8.805000 0.405562 0
8.810000 0.396754 0
8.815000 0.384737 0
8.820000 0.369733 0
8.825000 0.352020 0
8.830000 0.331920 0
8.835000 0.309795 0
8.840000 0.286027 0
8.845000 0.261016 0
8.850000 0.235163 0
8.855000 0.208861 0
8.860000 0.182486 0
8.865000 0.156387 0
8.870000 0.130883 0
8.875000 0.106250 0
8.880000 0.082725 0
8.885000 0.060501 0
8.890000 0.039724 0
8.895000 0.020500 0
8.900000 0.002890 0
8.905000 -0.013080 0
8.910000 -0.027419 0
8.915000 -0.040164 0
8.920000 -0.051377 0
8.925000 -0.061140 0
8.930000 -0.069547 0
8.935000 -0.076703 0
8.940000 -0.082721 0
8.945000 -0.087711 0
8.950000 -0.091787 0
8.955000 -0.095056 0
8.960000 -0.097622 0
8.965000 -0.099579 0
8.970000 -0.101016 0
8.975000 -0.102012 0
8.980000 -0.102638 0
8.985000 -0.102956 0
8.990000 -0.103021 0
8.995000 -0.102879 0
9.000000 -0.102570 0
9.005000 -0.102127 0
9.010000 -0.101579 0
9.015000 -0.100948 0
9.020000 -0.100221 0
9.025000 -0.099314 0
9.030000 -0.098411 0
9.035000 -0.097513 0
9.040000 -0.096619 0
9.045000 -0.095730 0
9.050000 -0.094845 0
9.055000 -0.093965 0
9.060000 -0.093089 0
9.065000 -0.092217 0
9.070000 -0.091350 0
9.075000 -0.090487 0
9.080000 -0.089628 0
9.085000 -0.088774 0
9.090000 -0.087924 0
9.095000 -0.087078 0
9.100000 -0.086236 0
9.105000 -0.085398 0
9.110000 -0.084565 0
9.115000 -0.083735 0
9.120000 -0.082909 0
9.125000 -0.082087 0
9.130000 -0.081267 0
9.135000 -0.080449 0
9.140000 -0.079631 0
9.145000 -0.078811 0
9.150000 -0.077984 0
9.155000 -0.077143 0
9.160000 -0.076277 0
9.165000 -0.075372 0
9.170000 -0.074403 0
9.175000 -0.073336 0
9.180000 -0.072126 0
9.185000 -0.070707 0
9.190000 -0.068992 0
9.195000 -0.066870 0
9.200000 -0.064198 0
9.205000 -0.060803 0
9.210000 -0.056477 0
9.215000 -0.050987 0
9.220000 -0.044074 0
9.225000 -0.035473 0
9.230000 -0.024927 0
9.235000 -0.012211 0
9.240000 0.002837 0
9.245000 0.020290 0
9.250000 0.040097 0
9.255000 0.062060 0
9.260000 0.085811 0
9.265000 0.110809 0
9.270000 0.136344 0
9.275000 0.161564 0
9.280000 0.185517 0
9.285000 0.207205 0
9.290000 0.225652 0
9.295000 0.239980 0
9.300000 0.249470 0
9.305000 0.253629 1
9.310000 0.252226 0
9.315000 0.245318 0
9.320000 0.233243 0
9.325000 0.216590 0
9.330000 0.196157 0
9.335000 0.172882 0
9.340000 0.147774 0
9.345000 0.121841 0
9.350000 0.096024 0
9.355000 0.071135 0
9.360000 0.047809 0
9.365000 0.026439 0
9.370000 0.007076 0
9.375000 -0.010737 0
9.380000 -0.028199 0
9.385000 -0.047405 0
9.390000 -0.071167 0
9.395000 -0.102115 0
9.400000 -0.140978 0
9.405000 -0.184527 0
9.410000 -0.224261 0
9.415000 -0.246833 2
9.420000 -0.236228 0
9.425000 -0.176667 0
9.430000 -0.055532 0
9.435000 0.132931 0
9.440000 0.381779 0
9.445000 0.664668 0
9.450000 0.933862 0
9.455000 1.129349 0
9.460000 1.199226 3
9.465000 1.120339 0
9.470000 0.911201 0
9.475000 0.623430 0
9.480000 0.318720 0
9.485000 0.047901 0
9.490000 -0.158574 0
9.495000 -0.289404 0
9.500000 -0.347276 4
9.505000 -0.344710 0
9.510000 -0.300818 0
9.515000 -0.237077 0
9.520000 -0.172114 0
9.525000 -0.117705 0
9.530000 -0.077917 0
9.535000 -0.051159 0
9.540000 -0.033338 0
9.545000 -0.020338 0
9.550000 -0.009168 0
9.555000 0.001935 0
9.560000 0.013868 0
9.565000 0.027037 0
9.570000 0.041617 0
9.575000 0.057679 0
9.580000 0.075235 0
9.585000 0.094257 0
9.590000 0.114678 0
9.595000 0.136388 0
9.600000 0.159235 0
9.605000 0.183020 0
9.610000 0.207502 0
9.615000 0.232397 0
9.620000 0.257384 0
9.625000 0.282108 0
9.630000 0.306190 0
9.635000 0.329236 0
9.640000 0.350843 0
9.645000 0.370617 0
9.650000 0.388178 0
9.655000 0.403178 0
9.660000 0.415304 0
9.665000 0.424298 0
9.670000 0.429958 0
9.675000 0.432150 5
9.680000 0.430808 0
9.685000 0.425942 0
9.690000 0.417635 0
9.695000 0.406040 0
9.700000 0.391375 0
9.705000 0.373918 0
9.710000 0.353995 0
9.715000 0.331972 0
9.720000 0.308243 0
9.725000 0.283216 0
9.730000 0.257304 0
9.735000 0.230912 0
9.740000 0.204428 0
9.745000 0.178214 0
9.750000 0.152596 0
9.755000 0.127861 0
9.760000 0.104251 0
9.765000 0.081963 0
9.770000 0.061148 0
9.775000 0.041910 0
9.780000 0.024313 0
9.785000 0.008379 0
9.790000 -0.005904 0
9.795000 -0.018576 0
9.800000 -0.029705 0
9.805000 -0.039375 0
9.810000 -0.047687 0
9.815000 -0.054749 0
9.820000 -0.060677 0
9.825000 -0.065585 0
9.830000 -0.069590 0
9.835000 -0.072800 0
9.840000 -0.075320 0
9.845000 -0.077246 0
9.850000 -0.078667 0
9.855000 -0.079661 0
9.860000 -0.080299 0
9.865000 -0.080643 0
9.870000 -0.080745 0
9.875000 -0.080652 0
9.880000 -0.080401 0
9.885000 -0.080026 0
9.890000 -0.079552 0
9.895000 -0.079001 0
9.900000 -0.078236 0
9.905000 -0.077439 0
9.910000 -0.076645 0
9.915000 -0.075856 0
9.920000 -0.075070 0
9.925000 -0.074288 0
9.930000 -0.073510 0
9.935000 -0.072736 0
9.940000 -0.071966 0
9.945000 -0.071200 0
9.950000 -0.070437 0
9.955000 -0.069678 0
9.960000 -0.068924 0
9.965000 -0.068172 0
9.970000 -0.067425 0
9.975000 -0.066681 0
9.980000 -0.065941 0
9.985000 -0.065205 0
9.990000 -0.064472 0
9.995000 -0.063742 0
10.000000 -0.063016 0
10.005000 -0.062291 0
10.010000 -0.061569 0
10.015000 -0.060847 0
10.020000 -0.060122 0
10.025000 -0.059391 0
10.030000 -0.058647 0
10.035000 -0.057880 0
10.040000 -0.057076 0
10.045000 -0.056211 0
10.050000 -0.055254 0
10.055000 -0.054157 0
10.060000 -0.052858 0
10.065000 -0.051270 0
10.070000 -0.049281 0
10.075000 -0.046747 0
10.080000 -0.043493 0
10.085000 -0.039307 0
10.090000 -0.033950 0
10.095000 -0.027158 0
10.100000 -0.018656 0
10.105000 -0.008181 0
10.110000 0.004499 0
10.115000 0.019549 0
10.120000 0.037040 0
10.125000 0.056913 0
10.130000 0.078954 0
10.135000 0.102770 0
10.140000 0.127789 0
10.145000 0.153263 0
10.150000 0.178301 0
10.155000 0.201914 0
10.160000 0.223073 0
10.165000 0.240788 0
10.170000 0.254176 0
10.175000 0.262540 0
10.180000 0.265424 1
10.185000 0.262656 0
10.190000 0.254362 0
10.195000 0.240957 0
10.200000 0.223110 0
10.205000 0.201686 0
10.210000 0.177681 0
10.215000 0.152139 0
10.220000 0.126082 0
10.225000 0.100439 0
10.230000 0.075988 0
10.235000 0.053301 0
10.240000 0.032665 0
10.245000 0.013951 0
10.250000 -0.003593 0
10.255000 -0.021579 0
10.260000 -0.042541 0
10.265000 -0.069450 0
10.270000 -0.104361 0
10.275000 -0.146319 0
10.280000 -0.189406 0
10.285000 -0.222176 0
10.290000 -0.229119 2
10.295000 -0.193526 0
10.300000 -0.100569 0
10.305000 0.059335 0
10.310000 0.285411 0
10.315000 0.559381 0
10.320000 0.840439 0
10.325000 1.069746 0
10.330000 1.188095 3
10.335000 1.157801 0
10.340000 0.983749 0
10.345000 0.711739 0
10.350000 0.405874 0
10.355000 0.123734 0
10.360000 -0.097639 0
10.365000 -0.242621 0
10.370000 -0.311689 0
10.375000 -0.316516 4
10.380000 -0.276385 0
10.385000 -0.213758 0
10.390000 -0.148595 0
10.395000 -0.093763 0
10.400000 -0.053843 0
10.405000 -0.027267 0
10.410000 -0.009755 0
10.415000 0.002974 0
10.420000 0.013981 0
10.425000 0.025030 0
10.430000 0.036994 0
10.435000 0.050260 0
10.440000 0.064989 0
10.445000 0.081242 0
10.450000 0.099025 0
10.455000 0.118300 0
10.460000 0.138984 0
10.465000 0.160952 0
10.470000 0.184030 0
10.475000 0.207996 0
10.480000 0.232581 0
10.485000 0.257474 0
10.490000 0.282322 0
10.495000 0.306745 0
10.500000 0.330334 0
10.505000 0.352673 0
10.510000 0.373342 0
10.515000 0.391934 0
10.520000 0.408065 0
10.525000 0.421391 0
10.530000 0.431615 0
10.535000 0.438500 0
10.540000 0.441877 5
10.545000 0.441653 0
10.550000 0.437810 0
10.555000 0.430411 0
10.560000 0.419596 0
10.565000 0.405577 0
10.570000 0.388630 0
10.575000 0.369087 0
10.580000 0.347324 0
10.585000 0.323749 0
10.590000 0.298789 0
10.595000 0.272877 0
10.600000 0.246438 0
10.605000 0.219880 0
10.610000 0.193582 0
10.615000 0.167890 0
10.620000 0.143101 0
10.625000 0.119471 0
10.630000 0.097203 0
10.635000 0.076451 0
10.640000 0.057321 0
10.645000 0.039874 0
10.650000 0.024128 0
10.655000 0.010066 0
10.660000 -0.002362 0
10.665000 -0.013228 0
10.670000 -0.022626 0
10.675000 -0.030664 0
10.680000 -0.037458 0
10.685000 -0.043129 0
10.690000 -0.047798 0
10.695000 -0.051584 0
10.700000 -0.054599 0
10.705000 -0.056950 0
10.710000 -0.058733 0
10.715000 -0.060037 0
10.720000 -0.060941 0
10.725000 -0.061513 0
10.730000 -0.061813 0
10.735000 -0.061893 0
10.740000 -0.061796 0
10.745000 -0.061558 0
10.750000 -0.061209 0
10.755000 -0.060775 0
10.760000 -0.060243 0
10.765000 -0.059535 0
10.770000 -0.058831 0
10.775000 -0.058130 0
10.780000 -0.057433 0
10.785000 -0.056739 0
10.790000 -0.056049 0
10.795000 -0.055362 0
10.800000 -0.054678 0
10.805000 -0.053998 0
10.810000 -0.053322 0
10.815000 -0.052648 0
10.820000 -0.051978 0
10.825000 -0.051312 0
10.830000 -0.050648 0
10.835000 -0.049988 0
10.840000 -0.049331 0
10.845000 -0.048678 0
10.850000 -0.048027 0
10.855000 -0.047380 0
10.860000 -0.046734 0
10.865000 -0.046091 0
10.870000 -0.045449 0
10.875000 -0.044806 0
10.880000 -0.044159 0
10.885000 -0.043503 0
10.890000 -0.042832 0
10.895000 -0.042132 0
10.900000 -0.041387 0
10.905000 -0.040568 0
10.910000 -0.039638 0
10.915000 -0.038540 0
10.920000 -0.037198 0
10.925000 -0.035510 0
10.930000 -0.033345 0
10.935000 -0.030533 0
10.940000 -0.026873 0
10.945000 -0.022125 0
10.950000 -0.016023 0
10.955000 -0.008281 0
10.960000 0.001384 0
10.965000 0.013230 0
10.970000 0.027458 0
10.975000 0.044178 0
10.980000 0.063370 0
10.985000 0.084855 0
10.990000 0.108269 0
10.995000 0.133053 0
11.000000 0.158459 0
11.005000 0.183576 0
11.010000 0.207379 0
11.015000 0.228791 0
11.020000 0.246765 0
11.025000 0.260368 0
11.030000 0.268855 0
11.035000 0.271741 1
11.040000 0.268841 0
11.045000 0.260293 0
11.050000 0.246544 0
11.055000 0.228307 0
11.060000 0.206507 0
11.065000 0.182192 0
11.070000 0.156461 0
11.075000 0.130370 0
11.080000 0.104869 0
11.085000 0.080735 0
11.090000 0.058504 0
11.095000 0.038382 0
11.100000 0.020077 0
11.105000 0.002549 0
11.110000 -0.016216 0
11.115000 -0.039130 0
11.120000 -0.069157 0
11.125000 -0.107467 0
11.130000 -0.151054 0
11.135000 -0.191089 0
11.140000 -0.213287 2
11.145000 -0.200380 0
11.150000 -0.135491 0
11.155000 -0.005551 0
11.160000 0.194171 0
11.165000 0.452984 0
11.170000 0.737478 0
11.175000 0.991540 0
11.180000 1.150616 0
11.185000 1.167272 3
11.190000 1.032288 0
11.195000 0.781607 0
11.200000 0.478585 0
11.205000 0.186187 0
11.210000 -0.051657 0
11.215000 -0.214041 0
11.220000 -0.298262 0
11.225000 -0.314238 4
11.230000 -0.280577 0
11.235000 -0.220192 0
11.240000 -0.154417 0
11.245000 -0.097757 0
11.250000 -0.056024 0
11.255000 -0.028203 0
11.260000 -0.010042 0
11.265000 0.002934 0
11.270000 0.013985 0
11.275000 0.025005 0
11.280000 0.036926 0
11.285000 0.050160 0
11.290000 0.064879 0
11.295000 0.081145 0
11.300000 0.098963 0
11.305000 0.118293 0
11.310000 0.139051 0
11.315000 0.161103 0
11.320000 0.184267 0
11.325000 0.208312 0
11.330000 0.232957 0
11.335000 0.257877 0
11.340000 0.282705 0
11.345000 0.307045 0
11.350000 0.330475 0
11.355000 0.352564 0
11.360000 0.372883 0
11.365000 0.391015 0
11.370000 0.406575 0
11.375000 0.419216 0
11.380000 0.428646 0
11.385000 0.434640 0
11.390000 0.437042 5
11.395000 0.435778 0
11.400000 0.430854 0
11.405000 0.422359 0
11.410000 0.410462 0
11.415000 0.395403 0
11.420000 0.377488 0
11.425000 0.357076 0
11.430000 0.334567 0
11.435000 0.310391 0
11.440000 0.284991 0
11.445000 0.258810 0
11.450000 0.232279 0
11.455000 0.205807 0
11.460000 0.179767 0
11.465000 0.154492 0
11.470000 0.130268 0
11.475000 0.107330 0
11.480000 0.085861 0
11.485000 0.065993 0
11.490000 0.047808 0
11.495000 0.031344 0
11.500000 0.016599 0
11.505000 0.003534 0
11.510000 -0.007917 0
11.515000 -0.017843 0
11.520000 -0.026350 0
11.525000 -0.033555 0
11.530000 -0.039580 0
11.535000 -0.044552 0
11.540000 -0.048592 0
11.545000 -0.051820 0
11.550000 -0.054345 0
11.555000 -0.056271 0
11.560000 -0.057690 0
11.565000 -0.058686 0
11.570000 -0.059331 0
11.575000 -0.059689 0
11.580000 -0.059815 0
11.585000 -0.059754 0
11.590000 -0.059545 0
11.595000 -0.059220 0
11.600000 -0.058804 0
11.605000 -0.058288 0
11.610000 -0.057590 0
11.615000 -0.056896 0
11.620000 -0.056204 0
11.625000 -0.055517 0
11.630000 -0.054832 0
11.635000 -0.054152 0
11.640000 -0.053474 0
11.645000 -0.052800 0
11.650000 -0.052129 0
11.655000 -0.051462 0
11.660000 -0.050798 0
11.665000 -0.050137 0
11.670000 -0.049480 0
11.675000 -0.048826 0
11.680000 -0.048175 0
11.685000 -0.047527 0
11.690000 -0.046882 0
11.695000 -0.046241 0
11.700000 -0.045602 0
11.705000 -0.044965 0
11.710000 -0.044330 0
11.715000 -0.043696 0
11.720000 -0.043061 0
11.725000 -0.042420 0
11.730000 -0.041769 0
11.735000 -0.041099 0
11.740000 -0.040397 0
11.745000 -0.039640 0
11.750000 -0.038799 0
11.755000 -0.037828 0
11.760000 -0.036664 0
11.765000 -0.035220 0
11.770000 -0.033380 0
11.775000 -0.030996 0
11.780000 -0.027880 0
11.785000 -0.023809 0
11.790000 -0.018523 0
11.795000 -0.011740 0
11.800000 -0.003163 0
11.805000 0.007492 0
11.810000 0.020466 0
11.815000 0.035925 0
11.820000 0.053920 0
11.825000 0.074353 0
11.830000 0.096939 0
11.835000 0.121198 0
11.840000 0.146444 0
11.845000 0.171806 0
11.850000 0.196273 0
11.855000 0.218749 0
11.860000 0.238135 0
11.865000 0.253417 0
11.870000 0.263750 0
11.875000 0.268537 1
11.880000 0.267481 0
11.885000 0.260619 0
11.890000 0.248317 0
11.895000 0.231235 0
11.900000 0.210272 0
11.905000 0.186481 0
11.910000 0.160988 0
11.915000 0.134896 0
11.920000 0.109213 0
11.925000 0.084776 0
11.930000 0.062191 0
11.935000 0.041737 0
11.940000 0.023209 0
11.945000 0.005666 0
11.950000 -0.012829 0
11.955000 -0.035189 0
11.960000 -0.064521 0
11.965000 -0.102275 0
11.970000 -0.145741 0
11.975000 -0.186198 0
11.980000 -0.209162 2
11.985000 -0.196920 0
11.990000 -0.132084 0
11.995000 -0.001215 0
12.000000 0.200372 0
12.005000 0.461094 0
12.010000 0.745506 0
12.015000 0.994905 0
12.020000 1.143283 0
12.025000 1.144661 3
12.030000 0.995049 0
12.035000 0.735261 0
12.040000 0.430573 0
12.045000 0.143039 0
12.050000 -0.085836 0
12.055000 -0.237615 0
12.060000 -0.311534 0
12.065000 -0.319047 4
12.070000 -0.279891 0
12.075000 -0.217376 0
12.080000 -0.152275 0
12.085000 -0.097862 0
12.090000 -0.058667 0
12.095000 -0.032845 0
12.100000 -0.015885 0
12.105000 -0.003428 0
12.110000 0.007550 0
12.115000 0.018739 0
12.120000 0.030946 0
12.125000 0.044523 0
12.130000 0.059612 0
12.135000 0.076262 0
12.140000 0.094467 0
12.145000 0.114178 0
12.150000 0.135297 0
12.155000 0.157679 0
12.160000 0.181127 0
12.165000 0.205396 0
12.170000 0.230190 0
12.175000 0.255169 0
12.180000 0.279953 0
12.185000 0.304134 0
12.190000 0.327283 0
12.195000 0.348963 0
12.200000 0.368741 0
12.205000 0.386205 0
12.210000 0.400975 0
12.215000 0.412716 0
12.220000 0.421152 0
12.225000 0.426077 0
12.230000 0.427357 5
12.235000 0.424945 0
12.240000 0.418874 0
12.245000 0.409260 0
12.250000 0.396299 0
12.255000 0.380258 0
12.260000 0.361466 0
12.265000 0.340301 0
12.270000 0.317181 0
12.275000 0.292545 0
12.280000 0.266844 0
12.285000 0.240522 0
12.290000 0.214008 0
12.295000 0.187702 0
12.300000 0.161966 0
12.305000 0.137118 0
12.310000 0.113427 0
12.315000 0.091110 0
12.320000 0.070330 0
12.325000 0.051199 0
12.330000 0.033782 0
12.335000 0.018097 0
12.340000 0.004127 0
12.345000 -0.008181 0
12.350000 -0.018904 0
12.355000 -0.028140 0
12.360000 -0.036003 0
12.365000 -0.042614 0
12.370000 -0.048098 0
12.375000 -0.052582 0
12.380000 -0.056188 0
12.385000 -0.059031 0
12.390000 -0.061220 0
12.395000 -0.062854 0
12.400000 -0.064022 0
12.405000 -0.064802 0
12.410000 -0.065265 0
12.415000 -0.065468 0
12.420000 -0.065462 0
12.425000 -0.065290 0
12.430000 -0.064988 0
12.435000 -0.064583 0
12.440000 -0.064099 0
12.445000 -0.063408 0
12.450000 -0.062684 0
12.455000 -0.061964 0
12.460000 -0.061247 0
12.465000 -0.060535 0
12.470000 -0.059825 0
12.475000 -0.059120 0
12.480000 -0.058417 0
12.485000 -0.057719 0
12.490000 -0.057023 0
12.495000 -0.056332 0
12.500000 -0.055643 0
12.505000 -0.054958 0
12.510000 -0.054277 0
12.515000 -0.053599 0
12.520000 -0.052924 0
12.525000 -0.052252 0
12.530000 -0.051584 0
12.535000 -0.050919 0
12.540000 -0.050256 0
12.545000 -0.049595 0
12.550000 -0.048936 0
12.555000 -0.048276 0
12.560000 -0.047613 0
12.565000 -0.046941 0
12.570000 -0.046254 0
12.575000 -0.045538 0
12.580000 -0.044777 0
12.585000 -0.043940 0
12.590000 -0.042989 0
12.595000 -0.041864 0
12.600000 -0.040486 0
12.605000 -0.038746 0
12.610000 -0.036503 0
12.615000 -0.033579 0
12.620000 -0.029759 0
12.625000 -0.024788 0
12.630000 -0.018386 0
12.635000 -0.010254 0
12.640000 -0.000100 0
12.645000 0.012333 0
12.650000 0.027234 0
12.655000 0.044686 0
12.660000 0.064625 0
12.665000 0.086809 0
12.670000 0.110794 0
12.675000 0.135930 0
12.680000 0.161373 0
12.685000 0.186124 0
12.690000 0.209086 0
12.695000 0.229143 0
12.700000 0.245248 0
12.705000 0.256510 0
12.710000 0.262278 1
12.715000 0.262198 0
12.720000 0.256253 0
12.725000 0.244762 0
12.730000 0.228350 0
12.735000 0.207896 0
12.740000 0.184448 0
12.745000 0.159138 0
12.750000 0.133088 0
12.755000 0.107333 0
12.760000 0.082744 0
12.765000 0.059963 0
12.770000 0.039313 0
12.775000 0.020647 0
12.780000 0.003099 0
12.785000 -0.015193 0
12.790000 -0.037101 0
12.795000 -0.065802 0
12.800000 -0.102974 0
12.805000 -0.146245 0
12.810000 -0.187214 0
12.815000 -0.211539 2
12.820000 -0.201408 0
12.825000 -0.139150 0
12.830000 -0.010929 0
12.835000 0.188439 0
12.840000 0.447912 0
12.845000 0.732374 0
12.850000 0.982917 0
12.855000 1.132776 0
12.860000 1.135124 3
12.865000 0.986306 0
12.870000 0.727160 0
12.875000 0.422628 0
12.880000 0.134654 0
12.885000 -0.095153 0
12.890000 -0.248147 0
12.895000 -0.323338 0
12.900000 -0.331950 4
12.905000 -0.293516 0
12.910000 -0.231235 0
12.915000 -0.165930 0
12.920000 -0.111050 0
12.925000 -0.071334 0
12.930000 -0.045083 0
12.935000 -0.027837 0
12.940000 -0.015219 0
12.945000 -0.004167 0
12.950000 0.007049 0
12.955000 0.019259 0
12.960000 0.032825 0
12.965000 0.047895 0
12.970000 0.064522 0
12.975000 0.082702 0
12.980000 0.102387 0
12.985000 0.123484 0
12.990000 0.145850 0
12.995000 0.169294 0
13.000000 0.193571 0
13.005000 0.218392 0
13.010000 0.243421 0
13.015000 0.268281 0
13.020000 0.292568 0
13.025000 0.315856 0
13.030000 0.337709 0
13.035000 0.357697 0
13.040000 0.375406 0
13.045000 0.390454 0
13.050000 0.402506 0
13.055000 0.411279 0
13.060000 0.416563 0
13.065000 0.418219 5
13.070000 0.416190 0
13.075000 0.410503 0
13.080000 0.401267 0
13.085000 0.388668 0
13.090000 0.372966 0
13.095000 0.354483 0
13.100000 0.333591 0
13.105000 0.310703 0
13.110000 0.286256 0
13.115000 0.260695 0
13.120000 0.234467 0
13.125000 0.207999 0
13.130000 0.181694 0
13.135000 0.155918 0
13.140000 0.130993 0
13.145000 0.107193 0
13.150000 0.084739 0
13.155000 0.063802 0
13.160000 0.044499 0
13.165000 0.026899 0
13.170000 0.011029 0
13.175000 -0.003126 0
13.180000 -0.015613 0
13.185000 -0.026507 0
13.190000 -0.035903 0
13.195000 -0.043911 0
13.200000 -0.050652 0
13.205000 -0.056251 0
13.210000 -0.060833 0
13.215000 -0.064520 0
13.220000 -0.067430 0
13.225000 -0.069671 0
13.230000 -0.071343 0
13.235000 -0.072537 0
13.240000 -0.073332 0
13.245000 -0.073799 0
13.250000 -0.073999 0
13.255000 -0.073983 0
13.260000 -0.073795 0
13.265000 -0.073470 0
13.270000 -0.073039 0
13.275000 -0.072527 0
13.280000 -0.071795 0
13.285000 -0.071029 0
13.290000 -0.070268 0
13.295000 -0.069510 0
13.300000 -0.068756 0
13.305000 -0.068005 0
13.310000 -0.067259 0
13.315000 -0.066516 0
13.320000 -0.065777 0
13.325000 -0.065041 0
13.330000 -0.064310 0
13.335000 -0.063581 0
13.340000 -0.062857 0
13.345000 -0.062136 0
13.350000 -0.061419 0
13.355000 -0.060705 0
13.360000 -0.059995 0
13.365000 -0.059288 0
13.370000 -0.058584 0
13.375000 -0.057883 0
13.380000 -0.057185 0
13.385000 -0.056488 0
13.390000 -0.055792 0
13.395000 -0.055093 0
13.400000 -0.054387 0
13.405000 -0.053668 0
13.410000 -0.052924 0
13.415000 -0.052140 0
13.420000 -0.051289 0
13.425000 -0.050334 0
13.430000 -0.049222 0
13.435000 -0.047880 0
13.440000 -0.046206 0
13.445000 -0.044068 0
13.450000 -0.041300 0
13.455000 -0.037694 0
13.460000 -0.033009 0
13.465000 -0.026969 0
13.470000 -0.019281 0
13.475000 -0.009650 0
13.480000 0.002194 0
13.485000 0.016459 0
13.490000 0.033260 0
13.495000 0.052576 0
13.500000 0.074217 0
13.505000 0.097795 0
13.510000 0.122721 0
13.515000 0.148204 0
13.520000 0.173287 0
13.525000 0.196898 0
13.530000 0.217923 0
13.535000 0.235290 0
13.540000 0.248059 0
13.545000 0.255504 0
13.550000 0.257183 1
13.555000 0.252979 0
13.560000 0.243111 0
13.565000 0.228119 0
13.570000 0.208807 0
13.575000 0.186178 0
13.580000 0.161344 0
13.585000 0.135434 0
13.590000 0.109515 0
13.595000 0.084509 0
13.600000 0.061137 0
13.605000 0.039832 0
13.610000 0.020618 0
13.615000 0.002891 0
13.620000 -0.014861 0
13.625000 -0.035206 0
13.630000 -0.061354 0
13.635000 -0.095723 0
13.640000 -0.137558 0
13.645000 -0.180597 0
13.650000 -0.212353 0
13.655000 -0.215867 2
13.660000 -0.173084 0
13.665000 -0.068494 0
13.670000 0.106710 0
13.675000 0.348077 0
13.680000 0.629518 0
13.685000 0.899664 0
13.690000 1.091957 0
13.695000 1.149479 3
13.700000 1.053445 0
13.705000 0.829677 0
13.710000 0.535178 0
13.715000 0.233821 0
13.720000 -0.024900 0
13.725000 -0.213717 0
13.730000 -0.324721 0
13.735000 -0.363734 4
13.740000 -0.346168 0
13.745000 -0.293324 0
13.750000 -0.227276 0
13.755000 -0.165300 0
13.760000 -0.116589 0
13.765000 -0.082667 0
13.770000 -0.060376 0
13.775000 -0.045191 0
13.780000 -0.033293 0
13.785000 -0.022217 0
13.790000 -0.010639 0
13.795000 0.002060 0
13.800000 0.016146 0
13.805000 0.031731 0
13.810000 0.048846 0
13.815000 0.067478 0
13.820000 0.087570 0
13.825000 0.109023 0
13.830000 0.131688 0
13.835000 0.155373 0
13.840000 0.179835 0
13.845000 0.204786 0
13.850000 0.229897 0
13.855000 0.254802 0
13.860000 0.279107 0
13.865000 0.302400 0
13.870000 0.324261 0
13.875000 0.344275 0
13.880000 0.362043 0
13.885000 0.377196 0
13.890000 0.389411 0
13.895000 0.398413 0
13.900000 0.403995 0
13.905000 0.406019 5
13.910000 0.404425 0
13.915000 0.399229 0
13.920000 0.390527 0
13.925000 0.378491 0
13.930000 0.363362 0
13.935000 0.345439 0
13.940000 0.325076 0
13.945000 0.302663 0
13.950000 0.278619 0
13.955000 0.253373 0
13.960000 0.227356 0
13.965000 0.200989 0
13.970000 0.174668 0
13.975000 0.148758 0
13.980000 0.123584 0
13.985000 0.099428 0
13.990000 0.076522 0
13.995000 0.055048 0
14.000000 0.035140 0
14.005000 0.016884 0
14.010000 0.000322 0
14.015000 -0.014543 0
14.020000 -0.027743 0
14.025000 -0.039337 0
14.030000 -0.049408 0
14.035000 -0.058057 0
14.040000 -0.065395 0
14.045000 -0.071541 0
14.050000 -0.076617 0
14.055000 -0.080742 0
14.060000 -0.084032 0
14.065000 -0.086599 0
14.070000 -0.088545 0
14.075000 -0.089962 0
14.080000 -0.090936 0
14.085000 -0.091540 0
14.090000 -0.091840 0
14.095000 -0.091891 0
14.100000 -0.091741 0
14.105000 -0.091432 0
14.110000 -0.090996 0
14.115000 -0.090461 0
14.120000 -0.089849 0
14.125000 -0.089029 0
14.130000 -0.088178 0
14.135000 -0.087330 0
14.140000 -0.086488 0
14.145000 -0.085649 0
14.150000 -0.084814 0
14.155000 -0.083984 0
14.160000 -0.083158 0
14.165000 -0.082335 0
14.170000 -0.081517 0
14.175000 -0.080703 0
14.180000 -0.079894 0
14.185000 -0.079088 0
14.190000 -0.078286 0
14.195000 -0.077488 0
14.200000 -0.076694 0
14.205000 -0.075904 0
14.210000 -0.075118 0
14.215000 -0.074335 0
14.220000 -0.073556 0
14.225000 -0.072780 0
14.230000 -0.072006 0
14.235000 -0.071233 0
14.240000 -0.070459 0
14.245000 -0.069680 0
14.250000 -0.068890 0
14.255000 -0.068081 0
14.260000 -0.067237 0
14.265000 -0.066339 0
14.270000 -0.065353 0
14.275000 -0.064235 0
14.280000 -0.062922 0
14.285000 -0.061327 0
14.290000 -0.059336 0
14.295000 -0.056802 0
14.300000 -0.053543 0
14.305000 -0.049342 0
14.310000 -0.043946 0
14.315000 -0.037080 0
14.320000 -0.028457 0
14.325000 -0.017800 0
14.330000 -0.004872 0
14.335000 0.010496 0
14.340000 0.028364 0
14.345000 0.048651 0
14.350000 0.071102 0
14.355000 0.095276 0
14.360000 0.120532 0
14.365000 0.146052 0
14.370000 0.170870 0
14.375000 0.193933 0
14.380000 0.214167 0
14.385000 0.230560 0
14.390000 0.242249 0
14.395000 0.248589 0
14.400000 0.249214 1
14.405000 0.244072 0
14.410000 0.233429 0
14.415000 0.217849 0
14.420000 0.198139 0
14.425000 0.175285 0
14.430000 0.150365 0
14.435000 0.124470 0
14.440000 0.098621 0
14.445000 0.073702 0
14.450000 0.050403 0
14.455000 0.029137 0
14.460000 0.009933 0
14.465000 -0.007774 0
14.470000 -0.025401 0
14.475000 -0.045372 0
14.480000 -0.070776 0
14.485000 -0.104119 0
14.490000 -0.145150 0
14.495000 -0.188599 0
14.500000 -0.223240 0
14.505000 -0.233194 2
14.510000 -0.200948 0
14.515000 -0.110749 0
14.520000 0.047758 0
14.525000 0.274023 0
14.530000 0.548807 0
14.535000 0.828779 0
14.540000 1.051851 0
14.545000 1.157122 3
14.550000 1.114025 0
14.555000 0.932958 0
14.560000 0.659071 0
14.565000 0.353329 0
14.570000 0.070273 0
14.575000 -0.154515 0
14.580000 -0.305349 0
14.585000 -0.381712 0
14.590000 -0.393720 4
14.595000 -0.358901 0
14.600000 -0.298418 0
14.605000 -0.232042 0
14.610000 -0.173630 0
14.615000 -0.129316 0
14.620000 -0.098851 0
14.625000 -0.078599 0
14.630000 -0.064302 0
14.635000 -0.052605 0
14.640000 -0.041411 0
14.645000 -0.029605 0
14.650000 -0.016665 0
14.655000 -0.002361 0
14.660000 0.013402 0
14.665000 0.030651 0
14.670000 0.049374 0
14.675000 0.069516 0
14.680000 0.090982 0
14.685000 0.113638 0
14.690000 0.137301 0
14.695000 0.161748 0
14.700000 0.186712 0
14.705000 0.211887 0
14.710000 0.236932 0
14.715000 0.261481 0
14.720000 0.285146 0
14.725000 0.307530 0
14.730000 0.328238 0
14.735000 0.346887 0
14.740000 0.363116 0
14.745000 0.376601 0
14.750000 0.387063 0
14.755000 0.394278 0
14.760000 0.398084 0
14.765000 0.398389 5
14.770000 0.395171 0
14.775000 0.388482 0
14.780000 0.378443 0
14.785000 0.365246 0
14.790000 0.349140 0
14.795000 0.330429 0
14.800000 0.309461 0
14.805000 0.286614 0
14.810000 0.262288 0
14.815000 0.236894 0
14.820000 0.210837 0
14.825000 0.184511 0
14.830000 0.158289 0
14.835000 0.132510 0
14.840000 0.107478 0
14.845000 0.083457 0
14.850000 0.060662 0
14.855000 0.039266 0
14.860000 0.019394 0
14.865000 0.001130 0
14.870000 -0.015486 0
14.875000 -0.030447 0
14.880000 -0.043781 0
14.885000 -0.055542 0
14.890000 -0.065804 0
14.895000 -0.074660 0
14.900000 -0.082214 0
14.905000 -0.088578 0
14.910000 -0.093866 0
14.915000 -0.098193 0
14.920000 -0.101671 0
14.925000 -0.104406 0
14.930000 -0.106499 0
14.935000 -0.108041 0
14.940000 -0.109115 0
14.945000 -0.109798 0
14.950000 -0.110154 0
14.955000 -0.110241 0
14.960000 -0.110109 0
14.965000 -0.109799 0
14.970000 -0.109348 0
14.975000 -0.108784 0
14.980000 -0.108132 0
14.985000 -0.107380 0
14.990000 -0.106437 0
14.995000 -0.105499 0
15.000000 -0.104565 0
15.005000 -0.103636 0
15.010000 -0.102712 0
15.015000 -0.101792 0
15.020000 -0.100877 0
15.025000 -0.099967 0
15.030000 -0.099061 0
15.035000 -0.098159 0
15.040000 -0.097262 0
15.045000 -0.096370 0
15.050000 -0.095482 0
15.055000 -0.094598 0
15.060000 -0.093719 0
15.065000 -0.092844 0
15.070000 -0.091973 0
15.075000 -0.091107 0
15.080000 -0.090245 0
15.085000 -0.089387 0
15.090000 -0.088532 0
15.095000 -0.087680 0
15.100000 -0.086830 0
15.105000 -0.085980 0
15.110000 -0.085127 0
15.115000 -0.084268 0
15.120000 -0.083393 0
15.125000 -0.082493 0
15.130000 -0.081551 0
15.135000 -0.080541 0
15.140000 -0.079429 0
15.145000 -0.078163 0
15.150000 -0.076676 0
15.155000 -0.074876 0
15.160000 -0.072643 0
15.165000 -0.069827 0
15.170000 -0.066246 0
15.175000 -0.061681 0
15.180000 -0.055890 0
15.185000 -0.048606 0
15.190000 -0.039558 0
15.195000 -0.028488 0
15.200000 -0.015181 0
15.205000 0.000511 0
15.210000 0.018632 0
15.215000 0.039093 0
15.220000 0.061646 0
15.225000 0.085865 0
15.230000 0.111146 0
15.235000 0.136717 0
15.240000 0.161671 0
15.245000 0.185015 0
15.250000 0.205730 0
15.255000 0.222847 0
15.260000 0.235519 0
15.265000 0.243092 0
15.270000 0.245158 1
15.275000 0.241595 0
15.280000 0.232575 0
15.285000 0.218551 0
15.290000 0.200220 0
15.295000 0.178465 0
15.300000 0.154284 0
15.305000 0.128715 0
15.310000 0.102761 0
15.315000 0.077328 0
15.320000 0.053167 0
15.325000 0.030813 0
15.330000 0.010511 0
15.335000 -0.007925 0
15.340000 -0.025322 0
15.345000 -0.043380 0
15.350000 -0.064689 0
15.355000 -0.092184 0
15.360000 -0.127721 0
15.365000 -0.169985 0
15.370000 -0.212638 0
15.375000 -0.243923 0
15.380000 -0.248258 2
15.385000 -0.209102 0
15.390000 -0.111986 0
15.395000 0.052121 0
15.400000 0.281629 0
15.405000 0.557252 0
15.410000 0.837379 0
15.415000 1.063132 0
15.420000 1.176297 3
15.425000 1.144322 0
15.430000 0.973643 0
15.435000 0.706055 0
15.440000 0.400743 0
15.445000 0.112559 0
15.450000 -0.121250 0
15.455000 -0.283028 0
15.460000 -0.370475 0
15.465000 -0.392107 4
15.470000 -0.364085 0
15.475000 -0.306815 0
15.480000 -0.240281 0
15.485000 -0.179437 0
15.490000 -0.131852 0
15.495000 -0.098434 0
15.500000 -0.076120 0
15.505000 -0.060701 0
15.510000 -0.048601 0
15.515000 -0.037450 0
15.520000 -0.025932 0
15.525000 -0.013405 0
15.530000 0.000419 0
15.535000 0.015664 0
15.540000 0.032375 0
15.545000 0.050550 0
15.550000 0.070151 0
15.555000 0.091099 0
15.560000 0.113277 0
15.565000 0.136526 0
15.570000 0.160641 0
15.575000 0.185380 0
15.580000 0.210458 0
15.585000 0.235556 0
15.590000 0.260327 0
15.595000 0.284398 0
15.600000 0.307387 0
15.605000 0.328903 0
15.610000 0.348566 0
15.615000 0.366010 0
15.620000 0.380901 0
15.625000 0.392940 0
15.630000 0.401881 0
15.635000 0.407530 0
15.640000 0.409760 5
15.645000 0.408511 0
15.650000 0.403792 0
15.655000 0.395683 0
15.660000 0.384329 0
15.665000 0.369943 0
15.670000 0.352788 0
15.675000 0.333180 0
15.680000 0.311469 0
15.685000 0.288036 0
15.690000 0.263275 0
15.695000 0.237587 0
15.700000 0.211366 0
15.705000 0.184993 0
15.710000 0.158821 0
15.715000 0.133176 0
15.720000 0.108342 0
15.725000 0.084566 0
15.730000 0.062050 0
15.735000 0.040949 0
15.740000 0.021378 0
15.745000 0.003409 0
15.750000 -0.012925 0
15.755000 -0.027626 0
15.760000 -0.040724 0
15.765000 -0.052275 0
15.770000 -0.062357 0
15.775000 -0.071062 0
15.780000 -0.078493 0
15.785000 -0.084759 0
15.790000 -0.089972 0
15.795000 -0.094245 0
15.800000 -0.097686 0
15.805000 -0.100399 0
15.810000 -0.102483 0
15.815000 -0.104026 0
15.820000 -0.105109 0
15.825000 -0.105806 0
15.830000 -0.106181 0
15.835000 -0.106289 0
15.840000 -0.106180 0
15.845000 -0.105895 0
15.850000 -0.105468 0
15.855000 -0.104929 0
15.860000 -0.104302 0
15.865000 -0.103572 0
15.870000 -0.102648 0
15.875000 -0.101729 0
15.880000 -0.100814 0
15.885000 -0.099904 0
15.890000 -0.098998 0
15.895000 -0.098097 0
15.900000 -0.097200 0
15.905000 -0.096308 0
15.910000 -0.095421 0
15.915000 -0.094537 0
15.920000 -0.093658 0
15.925000 -0.092784 0
15.930000 -0.091914 0
15.935000 -0.091048 0
15.940000 -0.090186 0
15.945000 -0.089329 0
15.950000 -0.088476 0
15.955000 -0.087627 0
15.960000 -0.086782 0
15.965000 -0.085942 0
15.970000 -0.085104 0
15.975000 -0.084270 0
15.980000 -0.083438 0
15.985000 -0.082607 0
15.990000 -0.081774 0
15.995000 -0.080936 0
16.000000 -0.080086 0
16.005000 -0.079216 0
16.010000 -0.078312 0
16.015000 -0.077352 0
16.020000 -0.076307 0
16.025000 -0.075134 0
16.030000 -0.073774 0
16.035000 -0.072150 0
16.040000 -0.070156 0
16.045000 -0.067662 0
16.050000 -0.064503 0
16.055000 -0.060485 0
16.060000 -0.055381 0
16.065000 -0.048940 0
16.070000 -0.040899 0
16.075000 -0.030996 0
16.080000 -0.018994 0
16.085000 -0.004708 0
16.090000 0.011968 0
16.095000 0.031027 0
16.100000 0.052322 0
16.105000 0.075543 0
16.110000 0.100207 0
16.115000 0.125662 0
16.120000 0.151100 0
16.125000 0.175602 0
16.130000 0.198178 0
16.135000 0.217843 0
16.140000 0.233677 0
16.145000 0.244903 0
16.150000 0.250946 0
16.155000 0.251483 1
16.160000 0.246471 0
16.165000 0.236150 0
16.170000 0.221027 0
16.175000 0.201829 0
16.180000 0.179453 0
16.185000 0.154886 0
16.190000 0.129144 0
16.195000 0.103194 0
16.200000 0.077899 0
16.205000 0.053962 0
16.210000 0.031869 0
16.215000 0.011811 0
16.220000 -0.006461 0
16.225000 -0.023846 0
16.230000 -0.042102 0
16.235000 -0.063832 0
16.240000 -0.091883 0
16.245000 -0.127924 0
16.250000 -0.170419 0
16.255000 -0.212902 0
16.260000 -0.243696 0
16.265000 -0.247497 2
16.270000 -0.208142 0
16.275000 -0.111498 0
16.280000 0.051326 0
16.285000 0.279045 0
16.290000 0.553433 0
16.295000 0.834695 0
16.300000 1.065787 0
16.305000 1.189002 3
16.310000 1.167447 0
16.315000 1.003711 0
16.320000 0.739028 0
16.325000 0.433907 0
16.330000 0.145086 0
16.335000 -0.088840 0
16.340000 -0.249693 0
16.345000 -0.335279 0
16.350000 -0.354608 4
16.355000 -0.324555 0
16.360000 -0.266203 0
16.365000 -0.199860 0
16.370000 -0.140300 0
16.375000 -0.094550 0
16.380000 -0.062931 0
16.385000 -0.042006 0
16.390000 -0.027466 0
16.395000 -0.015815 0
16.400000 -0.004821 0
16.405000 0.006710 0
16.410000 0.019348 0
16.415000 0.033340 0
16.420000 0.048790 0
16.425000 0.065733 0
16.430000 0.084156 0
16.435000 0.104008 0
16.440000 0.125200 0
16.445000 0.147595 0
16.450000 0.171017 0
16.455000 0.195243 0
16.460000 0.220007 0
16.465000 0.245004 0
16.470000 0.269895 0
16.475000 0.294311 0
16.480000 0.317863 0
16.485000 0.340154 0
16.490000 0.360785 0
16.495000 0.379369 0
16.500000 0.395545 0
16.505000 0.408983 0
16.510000 0.419401 0
16.515000 0.426571 0
16.520000 0.430329 0
16.525000 0.430580 5
16.530000 0.427298 0
16.535000 0.420534 0
16.540000 0.410409 0
16.545000 0.397112 0
16.550000 0.380895 0
16.555000 0.362062 0
16.560000 0.340961 0
16.565000 0.317973 0
16.570000 0.293500 0
16.575000 0.267953 0
16.580000 0.241742 0
16.585000 0.215262 0
16.590000 0.188887 0
16.595000 0.162959 0
16.600000 0.137783 0
16.605000 0.113623 0
16.610000 0.090696 0
16.615000 0.069174 0
16.620000 0.049183 0
16.625000 0.030806 0
16.630000 0.014083 0
16.635000 -0.000982 0
16.640000 -0.014415 0
16.645000 -0.026272 0
16.650000 -0.036629 0
16.655000 -0.045580 0
16.660000 -0.053229 0
16.665000 -0.059689 0
16.670000 -0.065074 0
16.675000 -0.069501 0
16.680000 -0.073082 0
16.685000 -0.075922 0
16.690000 -0.078123 0
16.695000 -0.079777 0
16.700000 -0.080966 0
16.705000 -0.081766 0
16.710000 -0.082242 0
16.715000 -0.082451 0
16.720000 -0.082443 0
16.725000 -0.082259 0
16.730000 -0.081935 0
16.735000 -0.081500 0
16.740000 -0.080978 0
16.745000 -0.080356 0
16.750000 -0.079548 0
16.755000 -0.078744 0
16.760000 -0.077943 0
16.765000 -0.077147 0
16.770000 -0.076355 0
16.775000 -0.075567 0
16.780000 -0.074783 0
16.785000 -0.074002 0
16.790000 -0.073226 0
16.795000 -0.072453 0
16.800000 -0.071684 0
16.805000 -0.070920 0
16.810000 -0.070158 0
16.815000 -0.069401 0
16.820000 -0.068648 0
16.825000 -0.067898 0
16.830000 -0.067152 0
16.835000 -0.066409 0
16.840000 -0.065670 0
16.845000 -0.064934 0
16.850000 -0.064201 0
16.855000 -0.063470 0
16.860000 -0.062741 0
16.865000 -0.062010 0
16.870000 -0.061276 0
16.875000 -0.060532 0
16.880000 -0.059772 0
16.885000 -0.058984 0
16.890000 -0.058149 0
16.895000 -0.057241 0
16.900000 -0.056222 0
16.905000 -0.055038 0
16.910000 -0.053618 0
16.915000 -0.051864 0
16.920000 -0.049651 0
16.925000 -0.046822 0
16.930000 -0.043187 0
16.935000 -0.038522 0
16.940000 -0.032577 0
16.945000 -0.025082 0
16.950000 -0.015766 0
16.955000 -0.004375 0
16.960000 0.009296 0
16.965000 0.025377 0
16.970000 0.043888 0
16.975000 0.064709 0
16.980000 0.087552 0
16.985000 0.111953 0
16.990000 0.137265 0
16.995000 0.162679 0
17.000000 0.187261 0
17.005000 0.209999 0
17.010000 0.229876 0
17.015000 0.245936 0
17.020000 0.257369 0
17.025000 0.263570 0
17.030000 0.264194 1
17.035000 0.259189 0
17.040000 0.248798 0
17.045000 0.233542 0
17.050000 0.214173 0
17.055000 0.191614 0
17.060000 0.166885 0
17.065000 0.141029 0
17.070000 0.115034 0
17.075000 0.089776 0
17.080000 0.065957 0
17.085000 0.044050 0
17.090000 0.024200 0
17.095000 0.006069 0
17.100000 -0.011395 0
17.105000 -0.030161 0
17.110000 -0.053022 0
17.115000 -0.082804 0
17.120000 -0.120692 0
17.125000 -0.164062 0
17.130000 -0.204916 0
17.135000 -0.230067 2
17.140000 -0.223245 0
17.145000 -0.168126 0
17.150000 -0.051402 0
17.155000 0.133438 0
17.160000 0.380128 0
17.165000 0.662545 0
17.170000 0.932301 0
17.175000 1.127964 0
17.180000 1.196321 3
17.185000 1.113694 0
17.190000 0.900061 0
17.195000 0.609645 0
17.200000 0.305988 0
17.205000 0.040179 0
17.210000 -0.158298 0
17.215000 -0.279585 0
17.220000 -0.327931 4
17.225000 -0.317452 0
17.230000 -0.268619 0
17.235000 -0.203484 0
17.240000 -0.140151 0
17.245000 -0.089067 0
17.250000 -0.052852 0
17.255000 -0.028943 0
17.260000 -0.012918 0
17.265000 -0.000789 0
17.270000 0.010143 0
17.275000 0.021374 0
17.280000 0.033627 0
17.285000 0.047220 0
17.290000 0.062285 0
17.295000 0.078868 0
17.300000 0.096966 0
17.305000 0.116533 0
17.310000 0.137480 0
17.315000 0.159675 0
17.320000 0.182939 0
17.325000 0.207044 0
17.330000 0.231719 0
17.335000 0.256650 0
17.340000 0.281485 0
17.345000 0.305843 0
17.350000 0.329321 0
17.355000 0.351507 0
17.360000 0.371986 0
17.365000 0.390360 0
17.370000 0.406254 0
17.375000 0.419330 0
17.380000 0.429303 0
17.385000 0.435942 0
17.390000 0.439088 5
17.395000 0.438652 0
17.400000 0.434623 0
17.405000 0.427068 0
17.410000 0.416128 0
17.415000 0.402015 0
17.420000 0.385004 0
17.425000 0.365423 0
17.430000 0.343646 0
17.435000 0.320074 0
17.440000 0.295130 0
17.445000 0.269239 0
17.450000 0.242823 0
17.455000 0.216284 0
17.460000 0.189997 0
17.465000 0.164302 0
17.470000 0.139497 0
17.475000 0.115834 0
17.480000 0.093515 0
17.485000 0.072696 0
17.490000 0.053484 0
17.495000 0.035941 0
17.500000 0.020088 0
17.505000 0.005911 0
17.510000 -0.006637 0
17.515000 -0.017625 0
17.520000 -0.027146 0
17.525000 -0.035302 0
17.530000 -0.042210 0
17.535000 -0.047987 0
17.540000 -0.052754 0
17.545000 -0.056627 0
17.550000 -0.059720 0
17.555000 -0.062137 0
17.560000 -0.063977 0
17.565000 -0.065327 0
17.570000 -0.066267 0
17.575000 -0.066866 0
17.580000 -0.067186 0
17.585000 -0.067277 0
17.590000 -0.067185 0
17.595000 -0.066947 0
17.600000 -0.066593 0
17.605000 -0.066148 0
17.610000 -0.065602 0
17.615000 -0.064868 0
17.620000 -0.064137 0
17.625000 -0.063409 0
17.630000 -0.062686 0
17.635000 -0.061966 0
17.640000 -0.061249 0
17.645000 -0.060536 0
17.650000 -0.059827 0
17.655000 -0.059121 0
17.660000 -0.058419 0
17.665000 -0.057720 0
17.670000 -0.057025 0
17.675000 -0.056333 0
17.680000 -0.055645 0
17.685000 -0.054960 0
17.690000 -0.054278 0
17.695000 -0.053600 0
17.700000 -0.052925 0
17.705000 -0.052253 0
17.710000 -0.051584 0
17.715000 -0.050917 0
17.720000 -0.050252 0
17.725000 -0.049587 0
17.730000 -0.048919 0
17.735000 -0.048245 0
17.740000 -0.047559 0
17.745000 -0.046850 0
17.750000 -0.046104 0
17.755000 -0.045298 0
17.760000 -0.044399 0
17.765000 -0.043360 0
17.770000 -0.042115 0
17.775000 -0.040575 0
17.780000 -0.038623 0
17.785000 -0.036111 0
17.790000 -0.032853 0
17.795000 -0.028631 0
17.800000 -0.023193 0
17.805000 -0.016265 0
17.810000 -0.007563 0
17.815000 0.003183 0
17.820000 0.016203 0
17.825000 0.031656 0
17.830000 0.049591 0
17.835000 0.069919 0
17.840000 0.092378 0
17.845000 0.116520 0
17.850000 0.141704 0
17.855000 0.167116 0
17.860000 0.191798 0
17.865000 0.214709 0
17.870000 0.234789 0
17.875000 0.251043 0
17.880000 0.262618 0
17.885000 0.268879 0
17.890000 0.269465 1
17.895000 0.264319 0
17.900000 0.253701 0
17.905000 0.238159 0
17.910000 0.218486 0
17.915000 0.195648 0
17.920000 0.170709 0
17.925000 0.144746 0
17.930000 0.118772 0
17.935000 0.093673 0
17.940000 0.070141 0
17.945000 0.048612 0
17.950000 0.029149 0
17.955000 0.011258 0
17.960000 -0.006368 0
17.965000 -0.026023 0
17.970000 -0.050731 0
17.975000 -0.083127 0
17.980000 -0.123430 0
17.985000 -0.167164 0
17.990000 -0.204013 0
17.995000 -0.218794 2
18.000000 -0.194239 0
18.005000 -0.114315 0
18.010000 0.032356 0
18.015000 0.247537 0
18.020000 0.515998 0
18.025000 0.799272 0
18.030000 1.038410 0
18.035000 1.170990 3
18.040000 1.155711 0
18.045000 0.993607 0
18.050000 0.727826 0
18.055000 0.422433 0
18.060000 0.136773 0
18.065000 -0.089966 0
18.070000 -0.240544 0
18.075000 -0.314460 0
18.080000 -0.322833 4
18.085000 -0.284729 0
18.090000 -0.222755 0
18.095000 -0.157314 0
18.100000 -0.101809 0
18.105000 -0.061223 0
18.110000 -0.034173 0
18.115000 -0.016394 0
18.120000 -0.003540 0
18.125000 0.007516 0
18.130000 0.018584 0
18.135000 0.030559 0
18.140000 0.043836 0
18.145000 0.058583 0
18.150000 0.074860 0
18.155000 0.092673 0
18.160000 0.111984 0
18.165000 0.132710 0
18.170000 0.154725 0
18.175000 0.177851 0
18.180000 0.201864 0
18.185000 0.226494 0
18.190000 0.251424 0
18.195000 0.276300 0
18.200000 0.300733 0
18.205000 0.324315 0
18.210000 0.346623 0
18.215000 0.367235 0
18.220000 0.385741 0
18.225000 0.401757 0
18.230000 0.414936 0
18.235000 0.424984 0
18.240000 0.431665 0
18.245000 0.434815 5
18.250000 0.434344 0
18.255000 0.430241 0
18.260000 0.422576 0
18.265000 0.411497 0
18.270000 0.397222 0
18.275000 0.380037 0
18.280000 0.360281 0
18.285000 0.338337 0
18.290000 0.314620 0
18.295000 0.289559 0
18.300000 0.263592 0
18.305000 0.237147 0
18.310000 0.210631 0
18.315000 0.184424 0
18.320000 0.158866 0
18.325000 0.134254 0
18.330000 0.110836 0
18.335000 0.088810 0
18.340000 0.068326 0
18.345000 0.049483 0
18.350000 0.032334 0
18.355000 0.016892 0
18.360000 0.003135 0
18.365000 -0.008992 0
18.370000 -0.019567 0
18.375000 -0.028687 0
18.380000 -0.036462 0
18.385000 -0.043012 0
18.390000 -0.048457 0
18.395000 -0.052919 0
18.400000 -0.056518 0
18.405000 -0.059367 0
18.410000 -0.061569 0
18.415000 -0.063221 0
18.420000 -0.064410 0
18.425000 -0.065213 0
18.430000 -0.065698 0
18.435000 -0.065923 0
18.440000 -0.065937 0
18.445000 -0.065783 0
18.450000 -0.065495 0
18.455000 -0.065103 0
18.460000 -0.064629 0
18.465000 -0.063937 0
18.470000 -0.063211 0
18.475000 -0.062488 0
18.480000 -0.061769 0
18.485000 -0.061053 0
18.490000 -0.060342 0
18.495000 -0.059633 0
18.500000 -0.058928 0
18.505000 -0.058227 0
18.510000 -0.057529 0
18.515000 -0.056835 0
18.520000 -0.056144 0
18.525000 -0.055457 0
18.530000 -0.054773 0
18.535000 -0.054092 0
18.540000 -0.053415 0
18.545000 -0.052741 0
18.550000 -0.052070 0
18.555000 -0.051403 0
18.560000 -0.050738 0
18.565000 -0.050076 0
18.570000 -0.049415 0
18.575000 -0.048755 0
18.580000 -0.048094 0
18.585000 -0.047427 0
18.590000 -0.046749 0
18.595000 -0.046052 0
18.600000 -0.045320 0
18.605000 -0.044534 0
18.610000 -0.043661 0
18.615000 -0.042657 0
18.620000 -0.041458 0
18.625000 -0.039978 0
18.630000 -0.038103 0
18.635000 -0.035685 0
18.640000 -0.032542 0
18.645000 -0.028453 0
18.650000 -0.023166 0
18.655000 -0.016401 0
18.660000 -0.007870 0
18.665000 0.002706 0
18.670000 0.015568 0
18.675000 0.030882 0
18.680000 0.048707 0
18.685000 0.068958 0
18.690000 0.091374 0
18.695000 0.115502 0
18.700000 0.140690 0
18.705000 0.166105 0
18.710000 0.190768 0
18.715000 0.213613 0
18.720000 0.233559 0
18.725000 0.249593 0
18.730000 0.260853 0
18.735000 0.266707 0
18.740000 0.266808 1
18.745000 0.261126 0
18.750000 0.249957 0
18.755000 0.233889 0
18.760000 0.213757 0
18.765000 0.190567 0
18.770000 0.165412 0
18.775000 0.139387 0
18.780000 0.113512 0
18.785000 0.088659 0
18.790000 0.065496 0
18.795000 0.044403 0
18.800000 0.025346 0
18.805000 0.007663 0
18.810000 -0.010208 0
18.815000 -0.030839 0
18.820000 -0.057363 0
18.825000 -0.092054 0
18.830000 -0.134032 0
18.835000 -0.177071 0
18.840000 -0.208962 0
18.845000 -0.213196 2
18.850000 -0.172171 0
18.855000 -0.070641 0
18.860000 0.100391 0
18.865000 0.337590 0
18.870000 0.617292 0
18.875000 0.891380 0
18.880000 1.095525 0
18.885000 1.171761 3
18.890000 1.093647 0
18.895000 0.881066 0
18.900000 0.590246 0
18.905000 0.287302 0
18.910000 0.024778 0
18.915000 -0.167824 0
18.920000 -0.281528 0
18.925000 -0.321926 4
18.930000 -0.304726 0
18.935000 -0.251831 0
18.940000 -0.185919 0
18.945000 -0.124574 0
18.950000 -0.076903 0
18.955000 -0.044123 0
18.960000 -0.022794 0
18.965000 -0.008266 0
18.970000 0.003263 0
18.975000 0.014176 0
18.980000 0.025716 0
18.985000 0.038453 0
18.990000 0.052626 0
18.995000 0.068331 0
19.000000 0.085592 0
19.005000 0.104387 0
19.010000 0.124646 0
19.015000 0.146256 0
19.020000 0.169054 0
19.025000 0.192827 0
19.030000 0.217312 0
19.035000 0.242199 0
19.040000 0.267139 0
19.045000 0.291742 0
19.050000 0.315598 0
19.055000 0.338276 0
19.060000 0.359344 0
19.065000 0.378379 0
19.070000 0.394983 0
19.075000 0.408792 0
19.080000 0.419492 0
19.085000 0.426832 0
19.090000 0.430628 0
19.095000 0.430776 5
19.100000 0.427250 0
19.105000 0.420110 0
19.110000 0.409494 0
19.115000 0.395617 0
19.120000 0.378761 0
19.125000 0.359268 0
19.130000 0.337523 0
19.135000 0.313948 0
19.140000 0.288981 0
19.145000 0.263068 0
19.150000 0.236646 0
19.155000 0.210134 0
19.160000 0.183919 0
19.165000 0.158351 0
19.170000 0.133733 0
19.175000 0.110319 0
19.180000 0.088313 0
19.185000 0.067865 0
19.190000 0.049075 0
19.195000 0.031998 0
19.200000 0.016645 0
19.205000 0.002990 0
19.210000 -0.009023 0
19.215000 -0.019475 0
19.220000 -0.028468 0
19.225000 -0.036114 0
19.230000 -0.042535 0
19.235000 -0.047855 0
19.240000 -0.052200 0
19.245000 -0.055688 0
19.250000 -0.058434 0
19.255000 -0.060544 0
19.260000 -0.062115 0
19.265000 -0.063233 0
19.270000 -0.063974 0
19.275000 -0.064407 0
19.280000 -0.064588 0
19.285000 -0.064567 0
19.290000 -0.064384 0
19.295000 -0.064075 0
19.300000 -0.063666 0
19.305000 -0.063146 0
19.310000 -0.062424 0
19.315000 -0.061705 0
19.320000 -0.060990 0
19.325000 -0.060278 0
19.330000 -0.059570 0
19.335000 -0.058866 0
19.340000 -0.058165 0
19.345000 -0.057467 0
19.350000 -0.056773 0
19.355000 -0.056083 0
19.360000 -0.055396 0
19.365000 -0.054712 0
19.370000 -0.054032 0
19.375000 -0.053355 0
19.380000 -0.052681 0
19.385000 -0.052011 0
19.390000 -0.051344 0
19.395000 -0.050680 0
19.400000 -0.050019 0
19.405000 -0.049361 0
19.410000 -0.048705 0
19.415000 -0.048050 0
19.420000 -0.047395 0
19.425000 -0.046736 0
19.430000 -0.046070 0
19.435000 -0.045387 0
19.440000 -0.044678 0
19.445000 -0.043924 0
19.450000 -0.043097 0
19.455000 -0.042159 0
19.460000 -0.041053 0
19.465000 -0.039701 0
19.470000 -0.037998 0
19.475000 -0.035807 0
19.480000 -0.032956 0
19.485000 -0.029233 0
19.490000 -0.024392 0
19.495000 -0.018155 0
19.500000 -0.010228 0
19.505000 -0.000322 0
19.510000 0.011825 0
19.515000 0.026410 0
19.520000 0.043530 0
19.525000 0.063142 0
19.530000 0.085030 0
19.535000 0.108786 0
19.540000 0.133792 0
19.545000 0.159241 0
19.550000 0.184164 0
19.555000 0.207485 0
19.560000 0.228098 0
19.565000 0.244948 0
19.570000 0.257120 0
19.575000 0.263921 0
19.580000 0.264945 1
19.585000 0.260110 0
19.590000 0.249669 0
19.595000 0.234186 0
19.600000 0.214484 0
19.605000 0.191573 0
19.610000 0.166563 0
19.615000 0.140576 0
19.620000 0.114662 0
19.625000 0.089726 0
19.630000 0.066462 0
19.635000 0.045278 0
19.640000 0.026161 0
19.645000 0.008457 0
19.650000 -0.009405 0
19.655000 -0.030038 0
19.660000 -0.056639 0
19.665000 -0.091504 0
19.670000 -0.133640 0
19.675000 -0.176500 0
19.680000 -0.207402 0
19.685000 -0.209355 2
19.690000 -0.164443 0
19.695000 -0.057421 0
19.700000 0.120125 0
19.705000 0.363192 0
19.710000 0.645089 0
19.715000 0.914121 0
19.720000 1.104002 0
19.725000 1.158657 3
19.730000 1.058197 0
19.735000 0.829549 0
19.740000 0.532679 0
19.745000 0.233285 0
19.750000 -0.019179 0
19.755000 -0.198742 0
19.760000 -0.299202 0
19.765000 -0.328191 4
19.770000 -0.302926 0
19.775000 -0.246044 0
19.780000 -0.179856 0
19.785000 -0.120631 0
19.790000 -0.075891 0
19.795000 -0.045669 0
19.800000 -0.026023 0
19.805000 -0.012331 0
19.810000 -0.001047 0
19.815000 0.009957 0
19.820000 0.021753 0
19.825000 0.034822 0
19.830000 0.049361 0
19.835000 0.065448 0
19.840000 0.083096 0
19.845000 0.102271 0
19.850000 0.122893 0
19.855000 0.144838 0
19.860000 0.167927 0
19.865000 0.191936 0
19.870000 0.216587 0
19.875000 0.241557 0
19.880000 0.266483 0
19.885000 0.290968 0
19.890000 0.314590 0
19.895000 0.336915 0
19.900000 0.357510 0
19.905000 0.375952 0
19.910000 0.391848 0
19.915000 0.404846 0
19.920000 0.414647 0
19.925000 0.421014 0
19.930000 0.423785 5
19.935000 0.422880 0
19.940000 0.418296 0
19.945000 0.410118 0
19.950000 0.398510 0
19.955000 0.383710 0
19.960000 0.366020 0
19.965000 0.345801 0
19.970000 0.323455 0
19.975000 0.299411 0
19.980000 0.274117 0
19.985000 0.248019 0
19.990000 0.221552 0
19.995000 0.195130 0
20.000000 0.169129 0
20.005000 0.143888 0
20.010000 0.119694 0
20.015000 0.096786 0
20.020000 0.075350 0
20.025000 0.055518 0
20.030000 0.037375 0
20.035000 0.020960 0
20.040000 0.006268 0
20.045000 -0.006737 0
20.050000 -0.018123 0
20.055000 -0.027979 0
20.060000 -0.036413 0
20.065000 -0.043543 0
20.070000 -0.049492 0
20.075000 -0.054387 0
20.080000 -0.058351 0
20.085000 -0.061503 0
20.090000 -0.063955 0
20.095000 -0.065809 0
20.100000 -0.067159 0
20.105000 -0.068088 0
20.110000 -0.068669 0
20.115000 -0.068966 0
20.120000 -0.069032 0
20.125000 -0.068915 0
20.130000 -0.068651 0
20.135000 -0.068272 0
20.140000 -0.067805 0
20.145000 -0.067240 0
20.150000 -0.066497 0
20.155000 -0.065758 0
20.160000 -0.065023 0
20.165000 -0.064291 0
20.170000 -0.063563 0
20.175000 -0.062839 0
20.180000 -0.062118 0
20.185000 -0.061401 0
20.190000 -0.060687 0
20.195000 -0.059977 0
20.200000 -0.059271 0
20.205000 -0.058568 0
20.210000 -0.057868 0
20.215000 -0.057172 0
20.220000 -0.056480 0
20.225000 -0.055790 0
20.230000 -0.055104 0
20.235000 -0.054422 0
20.240000 -0.053742 0
20.245000 -0.053065 0
20.250000 -0.052389 0
20.255000 -0.051714 0
20.260000 -0.051037 0
20.265000 -0.050355 0
20.270000 -0.049662 0
20.275000 -0.048947 0
20.280000 -0.048196 0
20.285000 -0.047387 0
20.290000 -0.046485 0
20.295000 -0.045442 0
20.300000 -0.044191 0
20.305000 -0.042637 0
20.310000 -0.040657 0
20.315000 -0.038095 0
20.320000 -0.034753 0
20.325000 -0.030398 0
20.330000 -0.024763 0
20.335000 -0.017556 0
20.340000 -0.008481 0
20.345000 0.002741 0
20.350000 0.016340 0
20.355000 0.032458 0
20.360000 0.051113 0
20.365000 0.072161 0
20.370000 0.095269 0
20.375000 0.119897 0
20.380000 0.145304 0
20.385000 0.170570 0
20.390000 0.194645 0
20.395000 0.216418 0
20.400000 0.234795 0
20.405000 0.248793 0
20.410000 0.257623 0
20.415000 0.260767 1
20.420000 0.258022 0
20.425000 0.249524 0
20.430000 0.235734 0
20.435000 0.217399 0
20.440000 0.195480 0
20.445000 0.171072 0
20.450000 0.145309 0
20.455000 0.119282 0
20.460000 0.093958 0
20.465000 0.070113 0
20.470000 0.048262 0
20.475000 0.028544 0
20.480000 0.010537 0
20.485000 -0.007029 0
20.490000 -0.026473 0
20.495000 -0.050941 0
20.500000 -0.083238 0
20.505000 -0.123622 0
20.510000 -0.167304 0
20.515000 -0.203219 0
20.520000 -0.215189 2
20.525000 -0.185066 0
20.530000 -0.096377 0
20.535000 0.061775 0
20.540000 0.288844 0
20.545000 0.564520 0
20.550000 0.843076 0
20.555000 1.059661 0
20.560000 1.152362 3
20.565000 1.091782 0
20.570000 0.893471 0
20.575000 0.609373 0
20.580000 0.304492 0
20.585000 0.033146 0
20.590000 -0.172220 0
20.595000 -0.299872 0
20.600000 -0.353114 4
20.605000 -0.345710 0
20.610000 -0.298250 0
20.615000 -0.233282 0
20.620000 -0.169546 0
20.625000 -0.117987 0
20.630000 -0.081446 0
20.635000 -0.057366 0
20.640000 -0.041239 0
20.645000 -0.029005 0
20.650000 -0.017938 0
20.655000 -0.006535 0
20.660000 0.005921 0
20.665000 0.019740 0
20.670000 0.035051 0
20.675000 0.051896 0
20.680000 0.070270 0
20.685000 0.090121 0
20.690000 0.111356 0
20.695000 0.133832 0
20.700000 0.157363 0
20.705000 0.181709 0
20.710000 0.206588 0
20.715000 0.231673 0
20.720000 0.256600 0
20.725000 0.280975 0
20.730000 0.304385 0
20.735000 0.326406 0
20.740000 0.346620 0
20.745000 0.364622 0
20.750000 0.380037 0
20.755000 0.392533 0
20.760000 0.401830 0
20.765000 0.407711 0
20.770000 0.410031 5
20.775000 0.408721 0
20.780000 0.403793 0
20.785000 0.395335 0
20.790000 0.383516 0
20.795000 0.368573 0
20.800000 0.350804 0
20.805000 0.330561 0
20.810000 0.308237 0
20.815000 0.284250 0
20.820000 0.259033 0
20.825000 0.233022 0
20.830000 0.206640 0
20.835000 0.180286 0
20.840000 0.154332 0
20.845000 0.129106 0
20.850000 0.104892 0
20.855000 0.081926 0
20.860000 0.060394 0
20.865000 0.040430 0
20.870000 0.022124 0
20.875000 0.005517 0
20.880000 -0.009387 0
20.885000 -0.022619 0
20.890000 -0.034240 0
20.895000 -0.044332 0
20.900000 -0.052998 0
20.905000 -0.060349 0
20.910000 -0.066505 0
20.915000 -0.071589 0
20.920000 -0.075721 0
20.925000 -0.079018 0
20.930000 -0.081591 0
20.935000 -0.083544 0
20.940000 -0.084970 0
20.945000 -0.085952 0
20.950000 -0.086567 0
20.955000 -0.086879 0
20.960000 -0.086944 0
20.965000 -0.086810 0
20.970000 -0.086517 0
20.975000 -0.086098 0
20.980000 -0.085582 0
20.985000 -0.084990 0
20.990000 -0.084193 0
20.995000 -0.083366 0
21.000000 -0.082543 0
21.005000 -0.081724 0
21.010000 -0.080909 0
21.015000 -0.080098 0
21.020000 -0.079291 0
21.025000 -0.078488 0
21.030000 -0.077689 0
21.035000 -0.076894 0
21.040000 -0.076103 0
21.045000 -0.075317 0
21.050000 -0.074533 0
21.055000 -0.073754 0
21.060000 -0.072979 0
21.065000 -0.072208 0
21.070000 -0.071440 0
21.075000 -0.070676 0
21.080000 -0.069916 0
21.085000 -0.069158 0
21.090000 -0.068404 0
21.095000 -0.067652 0
21.100000 -0.066900 0
21.105000 -0.066146 0
21.110000 -0.065387 0
21.115000 -0.064615 0
21.120000 -0.063822 0
21.125000 -0.062992 0
21.130000 -0.062101 0
21.135000 -0.061116 0
21.140000 -0.059988 0
21.145000 -0.058650 0
21.150000 -0.057010 0
21.155000 -0.054947 0
21.160000 -0.052307 0
21.165000 -0.048899 0
21.170000 -0.044497 0
21.175000 -0.038840 0
21.180000 -0.031649 0
21.185000 -0.022633 0
21.190000 -0.011520 0
21.195000 0.001917 0
21.200000 0.017827 0
21.205000 0.036241 0
21.210000 0.057040 0
21.215000 0.079928 0
21.220000 0.104409 0
21.225000 0.129794 0
21.230000 0.155221 0
21.235000 0.179687 0
21.240000 0.202120 0
21.245000 0.221446 0
21.250000 0.236677 0
21.255000 0.246993 0
21.260000 0.251814 1
21.265000 0.250854 0
21.270000 0.244148 0
21.275000 0.232049 0
21.280000 0.215201 0
21.285000 0.194474 0
21.290000 0.170896 0
21.295000 0.145566 0
21.300000 0.119568 0
21.305000 0.093899 0
21.310000 0.069396 0
21.315000 0.046678 0
21.320000 0.026058 0
21.325000 0.007405 0
21.330000 -0.010092 0
21.335000 -0.028180 0
21.340000 -0.049591 0
21.345000 -0.077435 0
21.350000 -0.113590 0
21.355000 -0.156336 0
21.360000 -0.198346 0
21.365000 -0.226459 2
21.370000 -0.223733 0
21.375000 -0.172762 0
21.380000 -0.059119 0
21.385000 0.124508 0
21.390000 0.371752 0
21.395000 0.654695 0
21.400000 0.921372 0
21.405000 1.106708 0
21.410000 1.156799 3
21.415000 1.055861 0
21.420000 0.830410 0
21.425000 0.535893 0
21.430000 0.234081 0
21.435000 -0.026825 0
21.440000 -0.219737 0
21.445000 -0.336180 0
21.450000 -0.381000 4
21.455000 -0.368403 0
21.460000 -0.318578 0
21.465000 -0.253079 0
21.470000 -0.189526 0
21.475000 -0.138101 0
21.480000 -0.101399 0
21.485000 -0.076966 0
21.490000 -0.060481 0
21.495000 -0.047999 0
21.500000 -0.036817 0
21.505000 -0.025409 0
21.510000 -0.013029 0
21.515000 0.000657 0
21.520000 0.015788 0
21.525000 0.032416 0
21.530000 0.050543 0
21.535000 0.070129 0
21.540000 0.091094 0
21.545000 0.113314 0
21.550000 0.136621 0
21.555000 0.160801 0
21.560000 0.185596 0
21.565000 0.210707 0
21.570000 0.235797 0
21.575000 0.260498 0
21.580000 0.284421 0
21.585000 0.307162 0
21.590000 0.328318 0
21.595000 0.347491 0
21.600000 0.364308 0
21.605000 0.378429 0
21.610000 0.389557 0
21.615000 0.397450 0
21.620000 0.401930 0
21.625000 0.402887 5
21.630000 0.400285 0
21.635000 0.394162 0
21.640000 0.384632 0
21.645000 0.371877 0
21.650000 0.356144 0
21.655000 0.337735 0
21.660000 0.316999 0
21.665000 0.294318 0
21.670000 0.270100 0
21.675000 0.244760 0
21.680000 0.218714 0
21.685000 0.192366 0
21.690000 0.166096 0
21.695000 0.140253 0
21.700000 0.115151 0
21.705000 0.091058 0
21.710000 0.068197 0
21.715000 0.046745 0
21.720000 0.026830 0
21.725000 0.008538 0
21.730000 -0.008090 0
21.735000 -0.023048 0
21.740000 -0.036364 0
21.745000 -0.048095 0
21.750000 -0.058317 0
21.755000 -0.067126 0
21.760000 -0.074628 0
21.765000 -0.080937 0
21.770000 -0.086170 0
21.775000 -0.090444 0
21.780000 -0.093872 0
21.785000 -0.096563 0
21.790000 -0.098617 0
21.795000 -0.100127 0
21.800000 -0.101178 0
21.805000 -0.101843 0
21.810000 -0.102189 0
21.815000 -0.102272 0
21.820000 -0.102142 0
21.825000 -0.101840 0
21.830000 -0.101402 0
21.835000 -0.100856 0
21.840000 -0.100225 0
21.845000 -0.099500 0
21.850000 -0.098596 0
21.855000 -0.097697 0
21.860000 -0.096802 0
21.865000 -0.095912 0
21.870000 -0.095026 0
21.875000 -0.094145 0
21.880000 -0.093268 0
21.885000 -0.092395 0
21.890000 -0.091527 0
21.895000 -0.090663 0
21.900000 -0.089804 0
21.905000 -0.088949 0
21.910000 -0.088098 0
21.915000 -0.087251 0
21.920000 -0.086408 0
21.925000 -0.085570 0
21.930000 -0.084735 0
21.935000 -0.083905 0
21.940000 -0.083079 0
21.945000 -0.082256 0
21.950000 -0.081436 0
21.955000 -0.080619 0
21.960000 -0.079802 0
21.965000 -0.078984 0
21.970000 -0.078162 0
21.975000 -0.077328 0
21.980000 -0.076475 0
21.985000 -0.075588 0
21.990000 -0.074646 0
21.995000 -0.073618 0
22.000000 -0.072460 0
22.005000 -0.071112 0
22.010000 -0.069491 0
22.015000 -0.067488 0
22.020000 -0.064963 0
22.025000 -0.061744 0
22.030000 -0.057623 0
22.035000 -0.052362 0
22.040000 -0.045695 0
22.045000 -0.037346 0
22.050000 -0.027046 0
22.055000 -0.014555 0
22.060000 0.000304 0
22.065000 0.017616 0
22.070000 0.037337 0
22.075000 0.059268 0
22.080000 0.083029 0
22.085000 0.108058 0
22.090000 0.133615 0
22.095000 0.158808 0
22.100000 0.182640 0
22.105000 0.204075 0
22.110000 0.222104 0
22.115000 0.235827 0
22.120000 0.244526 0
22.125000 0.247730 1
22.130000 0.245250 0
22.135000 0.237203 0
22.140000 0.224002 0
22.145000 0.206315 0
22.150000 0.185016 0
22.155000 0.161110 0
22.160000 0.135653 0
22.165000 0.109678 0
22.170000 0.084124 0
22.175000 0.059777 0
22.180000 0.037210 0
22.185000 0.016707 0
22.190000 -0.001877 0
22.195000 -0.019327 0
22.200000 -0.037311 0
22.205000 -0.058427 0
22.210000 -0.085671 0
22.215000 -0.121009 0
22.220000 -0.163217 0
22.225000 -0.205929 0
22.230000 -0.237202 0
22.235000 -0.241146 2
22.240000 -0.200906 0
22.245000 -0.101810 0
22.250000 0.065094 0
22.255000 0.297574 0
22.260000 0.574851 0
22.265000 0.853150 0
22.270000 1.071783 0
22.275000 1.172569 3
22.280000 1.124804 0
22.285000 0.939632 0
22.290000 0.663395 0
22.295000 0.357548 0
22.300000 0.076358 0
22.305000 -0.145284 0
22.310000 -0.292420 0
22.315000 -0.365147 0
22.320000 -0.374115 4
22.325000 -0.337275 0
22.330000 -0.275986 0
22.335000 -0.209883 0
22.340000 -0.152419 0
22.345000 -0.109254 0
22.350000 -0.079787 0
22.355000 -0.060232 0
22.360000 -0.046339 0
22.365000 -0.034833 0
22.370000 -0.023702 0
22.375000 -0.011892 0
22.380000 0.001087 0
22.385000 0.015448 0
22.390000 0.031278 0
22.395000 0.048600 0
22.400000 0.067397 0
22.405000 0.087610 0
22.410000 0.109140 0
22.415000 0.131845 0
22.420000 0.155537 0
22.425000 0.179986 0
22.430000 0.204918 0
22.435000 0.230021 0
22.440000 0.254949 0
22.445000 0.279328 0
22.450000 0.302768 0
22.455000 0.324867 0
22.460000 0.345230 0
22.465000 0.363473 0
22.470000 0.379239 0
22.475000 0.392206 0
22.480000 0.402103 0
22.485000 0.408713 0
22.490000 0.411885 5
22.495000 0.411536 0
22.500000 0.407656 0
22.505000 0.400311 0
22.510000 0.389635 0
22.515000 0.375830 0
22.520000 0.359159 0
22.525000 0.339936 0
22.530000 0.318517 0
22.535000 0.295289 0
22.540000 0.270657 0
22.545000 0.245033 0
22.550000 0.218824 0
22.555000 0.192424 0
22.560000 0.166200 0
22.565000 0.140488 0
22.570000 0.115585 0
22.575000 0.091746 0
22.580000 0.069179 0
22.585000 0.048047 0
22.590000 0.028467 0
22.595000 0.010511 0
22.600000 -0.005785 0
22.605000 -0.020426 0
22.610000 -0.033445 0
22.615000 -0.044901 0
22.620000 -0.054876 0
22.625000 -0.063464 0
22.630000 -0.070774 0
22.635000 -0.076919 0
22.640000 -0.082014 0
22.645000 -0.086174 0
22.650000 -0.089510 0
22.655000 -0.092128 0
22.660000 -0.094127 0
22.665000 -0.095598 0
22.670000 -0.096621 0
22.675000 -0.097269 0
22.680000 -0.097606 0
22.685000 -0.097689 0
22.690000 -0.097564 0
22.695000 -0.097271 0
22.700000 -0.096846 0
22.705000 -0.096315 0
22.710000 -0.095702 0
22.715000 -0.094857 0
22.720000 -0.093977 0
22.725000 -0.093100 0
22.730000 -0.092229 0
22.735000 -0.091361 0
22.740000 -0.090498 0
22.745000 -0.089640 0
22.750000 -0.088785 0
22.755000 -0.087935 0
22.760000 -0.087089 0
22.765000 -0.086247 0
22.770000 -0.085410 0
22.775000 -0.084576 0
22.780000 -0.083747 0
22.785000 -0.082922 0
22.790000 -0.082101 0
22.795000 -0.081284 0
22.800000 -0.080471 0
22.805000 -0.079662 0
22.810000 -0.078857 0
22.815000 -0.078055 0
22.820000 -0.077256 0
22.825000 -0.076460 0
22.830000 -0.075665 0
22.835000 -0.074868 0
22.840000 -0.074067 0
22.845000 -0.073256 0
22.850000 -0.072427 0
22.855000 -0.071565 0
22.860000 -0.070652 0
22.865000 -0.069659 0
22.870000 -0.068544 0
22.875000 -0.067250 0
22.880000 -0.065699 0
22.885000 -0.063787 0
22.890000 -0.061383 0
22.895000 -0.058321 0
22.900000 -0.054404 0
22.905000 -0.049399 0
22.910000 -0.043051 0
22.915000 -0.035088 0
22.920000 -0.025240 0
22.925000 -0.013263 0
22.930000 0.001035 0
22.935000 0.017760 0
22.940000 0.036901 0
22.945000 0.058299 0
22.950000 0.081625 0
22.955000 0.106369 0
22.960000 0.131844 0
22.965000 0.157204 0
22.970000 0.181491 0
22.975000 0.203683 0
22.980000 0.222770 0
22.985000 0.237826 0
22.990000 0.248082 0
22.995000 0.252993 1
23.000000 0.252285 0
23.005000 0.245976 0
23.010000 0.234383 0
23.015000 0.218089 0
23.020000 0.197893 0
23.025000 0.174754 0
23.030000 0.149703 0
23.035000 0.123776 0
23.040000 0.097943 0
23.045000 0.073040 0
23.050000 0.049720 0
23.055000 0.028383 0
23.060000 0.009073 0
23.065000 -0.008705 0
23.070000 -0.026222 0
23.075000 -0.045688 0
23.080000 -0.070013 0
23.085000 -0.101803 0
23.090000 -0.141481 0
23.095000 -0.185145 0
23.100000 -0.223364 0
23.105000 -0.241888 2
23.110000 -0.224123 0
23.115000 -0.154207 0
23.120000 -0.020138 0
23.125000 0.181980 0
23.130000 0.441374 0
23.135000 0.726001 0
23.140000 0.982600 0
23.145000 1.149443 0
23.150000 1.179460 3
23.155000 1.061092 0
23.160000 0.823868 0
23.165000 0.525211 0
23.170000 0.225996 0
23.175000 -0.028030 0
23.180000 -0.212269 0
23.185000 -0.320082 0
23.190000 -0.357558 4
23.195000 -0.339748 0
23.200000 -0.287221 0
23.205000 -0.221301 0
23.210000 -0.158864 0
23.215000 -0.109173 0
23.220000 -0.074110 0
23.225000 -0.050872 0
23.230000 -0.035107 0
23.235000 -0.022988 0
23.240000 -0.011956 0
23.245000 -0.000590 0
23.250000 0.011797 0
23.255000 0.025509 0
23.260000 0.040674 0
23.265000 0.057337 0
23.270000 0.075496 0
23.275000 0.095108 0
23.280000 0.116086 0
23.285000 0.138305 0
23.290000 0.161592 0
23.295000 0.185729 0
23.300000 0.210454 0
23.305000 0.235466 0
23.310000 0.260424 0
23.315000 0.284959 0
23.320000 0.308681 0
23.325000 0.331187 0
23.330000 0.352073 0
23.335000 0.370946 0
23.340000 0.387435 0
23.345000 0.401203 0
23.350000 0.411959 0
23.355000 0.419466 0
23.360000 0.423552 0
23.365000 0.424114 5
23.370000 0.421120 0
23.375000 0.414617 0
23.380000 0.404721 0
23.385000 0.391621 0
23.390000 0.375568 0
23.395000 0.356867 0
23.400000 0.335870 0
23.405000 0.312960 0
23.410000 0.288544 0
23.415000 0.263039 0
23.420000 0.236859 0
23.425000 0.210404 0
23.430000 0.184053 0
23.435000 0.158154 0
23.440000 0.133013 0
23.445000 0.108897 0
23.450000 0.086027 0
23.455000 0.064573 0
23.460000 0.044663 0
23.465000 0.026379 0
23.470000 0.009759 0
23.475000 -0.005193 0
23.480000 -0.018507 0
23.485000 -0.030240 0
23.490000 -0.040471 0
23.495000 -0.049295 0
23.500000 -0.056819 0
23.505000 -0.063157 0
23.510000 -0.068426 0
23.515000 -0.072742 0
23.520000 -0.076220 0
23.525000 -0.078965 0
23.530000 -0.081078 0
23.535000 -0.082652 0
23.540000 -0.083770 0
23.545000 -0.084506 0
23.550000 -0.084925 0
23.555000 -0.085084 0
23.560000 -0.085031 0
23.565000 -0.084808 0
23.570000 -0.084450 0
23.575000 -0.083984 0
23.580000 -0.083435 0
23.585000 -0.082791 0
23.590000 -0.081971 0
23.595000 -0.081154 0
23.600000 -0.080342 0
23.605000 -0.079534 0
23.610000 -0.078730 0
23.615000 -0.077930 0
23.620000 -0.077134 0
23.625000 -0.076342 0
23.630000 -0.075554 0
23.635000 -0.074770 0
23.640000 -0.073989 0
23.645000 -0.073213 0
23.650000 -0.072440 0
23.655000 -0.071672 0
23.660000 -0.070907 0
23.665000 -0.070146 0
23.670000 -0.069388 0
23.675000 -0.068634 0
23.680000 -0.067884 0
23.685000 -0.067137 0
23.690000 -0.066393 0
23.695000 -0.065650 0
23.700000 -0.064908 0
23.705000 -0.064165 0
23.710000 -0.063416 0
23.715000 -0.062656 0
23.720000 -0.061875 0
23.725000 -0.061060 0
23.730000 -0.060190 0
23.735000 -0.059233 0
23.740000 -0.058145 0
23.745000 -0.056867 0
23.750000 -0.055315 0
23.755000 -0.053379 0
23.760000 -0.050922 0
23.765000 -0.047769 0
23.770000 -0.043715 0
23.775000 -0.038519 0
23.780000 -0.031919 0
23.785000 -0.023638 0
23.790000 -0.013407 0
23.795000 -0.000988 0
23.800000 0.013798 0
23.805000 0.031035 0
23.810000 0.050679 0
23.815000 0.072531 0
23.820000 0.096216 0
23.825000 0.121172 0
23.830000 0.146661 0
23.835000 0.171795 0
23.840000 0.195581 0
23.845000 0.216982 0
23.850000 0.234992 0
23.855000 0.248710 0
23.860000 0.257418 0
23.865000 0.260641 1
23.870000 0.258186 0
23.875000 0.250166 0
23.880000 0.236987 0
23.885000 0.219313 0
23.890000 0.198013 0
23.895000 0.174087 0
23.900000 0.148590 0
23.905000 0.122554 0
23.910000 0.096919 0
23.915000 0.072474 0
23.920000 0.049797 0
23.925000 0.029179 0
23.930000 0.010490 0
23.935000 -0.007033 0
23.940000 -0.025027 0
23.945000 -0.046062 0
23.950000 -0.073132 0
23.955000 -0.108264 0
23.960000 -0.150372 0
23.965000 -0.193292 0
23.970000 -0.225276 0
23.975000 -0.230557 2
23.980000 -0.192289 0
23.985000 -0.095694 0
23.990000 0.068466 0
23.995000 0.298531 0
24.000000 0.574628 0
24.005000 0.853977 0
24.010000 1.076399 0
24.015000 1.183197 3
24.020000 1.141550 0
24.025000 0.960019 0
24.030000 0.685001 0
24.035000 0.379110 0
24.040000 0.097874 0
24.045000 -0.123095 0
24.050000 -0.268708 0
24.055000 -0.339323 0
24.060000 -0.346091 4
24.065000 -0.307567 0
24.070000 -0.245584 0
24.075000 -0.179892 0
24.080000 -0.123648 0
24.085000 -0.082000 0
24.090000 -0.053895 0
24.095000 -0.035313 0
24.100000 -0.021986 0
24.105000 -0.010737 0
24.110000 0.000335 0
24.115000 0.012196 0
24.120000 0.025287 0
24.125000 0.039797 0
24.130000 0.055802 0
24.135000 0.073315 0
24.140000 0.092311 0
24.145000 0.112722 0
24.150000 0.134436 0
24.155000 0.157297 0
24.160000 0.181106 0
24.165000 0.205613 0
24.170000 0.230530 0
24.175000 0.255528 0
24.180000 0.280243 0
24.185000 0.304289 0
24.190000 0.327263 0
24.195000 0.348756 0
24.200000 0.368366 0
24.205000 0.385708 0
24.210000 0.400430 0
24.215000 0.412220 0
24.220000 0.420820 0
24.225000 0.426034 0
24.230000 0.427732 5
24.235000 0.425860 0
24.240000 0.420440 0
24.245000 0.411566 0
24.250000 0.399408 0
24.255000 0.384199 0
24.260000 0.366233 0
24.265000 0.345850 0
24.270000 0.323431 0
24.275000 0.299381 0
24.280000 0.274118 0
24.285000 0.248062 0
24.290000 0.221622 0
24.295000 0.195188 0
24.300000 0.169119 0
24.305000 0.143736 0
24.310000 0.119319 0
24.315000 0.096102 0
24.320000 0.074271 0
24.325000 0.053964 0
24.330000 0.035274 0
24.335000 0.018252 0
24.340000 0.002907 0
24.345000 -0.010784 0
24.350000 -0.022872 0
24.355000 -0.033432 0
24.360000 -0.042559 0
24.365000 -0.050357 0
24.370000 -0.056941 0
24.375000 -0.062429 0
24.380000 -0.066937 0
24.385000 -0.070582 0
24.390000 -0.073473 0
24.395000 -0.075713 0
24.400000 -0.077395 0
24.405000 -0.078606 0
24.410000 -0.079422 0
24.415000 -0.079910 0
24.420000 -0.080129 0
24.425000 -0.080128 0
24.430000 -0.079951 0
24.435000 -0.079633 0
24.440000 -0.079204 0
24.445000 -0.078688 0
24.450000 -0.078074 0
24.455000 -0.077277 0
24.460000 -0.076484 0
24.465000 -0.075695 0
24.470000 -0.074910 0
24.475000 -0.074129 0
24.480000 -0.073352 0
24.485000 -0.072579 0
24.490000 -0.071810 0
24.495000 -0.071044 0
24.500000 -0.070282 0
24.505000 -0.069525 0
24.510000 -0.068770 0
24.515000 -0.068020 0
24.520000 -0.067273 0
24.525000 -0.066530 0
24.530000 -0.065791 0
24.535000 -0.065055 0
24.540000 -0.064323 0
24.545000 -0.063595 0
24.550000 -0.062869 0
24.555000 -0.062146 0
24.560000 -0.061425 0
24.565000 -0.060704 0
24.570000 -0.059981 0
24.575000 -0.059253 0
24.580000 -0.058514 0
24.585000 -0.057754 0
24.590000 -0.056959 0
24.595000 -0.056107 0
24.600000 -0.055168 0
24.605000 -0.054096 0
24.610000 -0.052830 0
24.615000 -0.051285 0
24.620000 -0.049351 0
24.625000 -0.046884 0
24.630000 -0.043710 0
24.635000 -0.039617 0
24.640000 -0.034363 0
24.645000 -0.027679 0
24.650000 -0.019288 0
24.655000 -0.008919 0
24.660000 0.003666 0
24.665000 0.018640 0
24.670000 0.036078 0
24.675000 0.055924 0
24.680000 0.077961 0
24.685000 0.101791 0
24.690000 0.126828 0
24.695000 0.152310 0
24.700000 0.177325 0
24.705000 0.200862 0
24.710000 0.221874 0
24.715000 0.239355 0
24.720000 0.252417 0
24.725000 0.260363 0
24.730000 0.262752 1
24.735000 0.259435 0
24.740000 0.250570 0
24.745000 0.236611 0
24.750000 0.218265 0
24.755000 0.196437 0
24.760000 0.172150 0
24.765000 0.146470 0
24.770000 0.120428 0
24.775000 0.094949 0
24.780000 0.070793 0
24.785000 0.048496 0
24.790000 0.028281 0
24.795000 0.009905 0
24.800000 -0.007565 0
24.805000 -0.025988 0
24.810000 -0.048123 0
24.815000 -0.076929 0
24.820000 -0.113942 0
24.825000 -0.157025 0
24.830000 -0.198598 0
24.835000 -0.225614 2
24.840000 -0.221596 0
24.845000 -0.169769 0
24.850000 -0.056263 0
24.855000 0.126022 0
24.860000 0.371288 0
24.865000 0.653444 0
24.870000 0.923380 0
24.875000 1.118394 0
24.880000 1.184294 3
24.885000 1.099113 0
24.890000 0.883778 0
24.895000 0.592751 0
24.900000 0.289374 0
24.905000 0.024343 0
24.910000 -0.173207 0
24.915000 -0.293638 0
24.920000 -0.341310 4
24.925000 -0.330380 0
24.930000 -0.281301 0
24.935000 -0.216067 0
24.940000 -0.152703 0
24.945000 -0.101598 0
24.950000 -0.065343 0
24.955000 -0.041377 0
24.960000 -0.025286 0
24.965000 -0.013091 0
24.970000 -0.002098 0
24.975000 0.009191 0
24.980000 0.021498 0
24.985000 0.035141 0
24.990000 0.050253 0
24.995000 0.066881 0
25.000000 0.085022 0
25.005000 0.104630 0
25.010000 0.125618 0
25.015000 0.147854 0
25.020000 0.171160 0
25.025000 0.195310 0
25.030000 0.220034 0
25.035000 0.245019 0
25.040000 0.269915 0
25.045000 0.294343 0
25.050000 0.317901 0
25.055000 0.340177 0
25.060000 0.360758 0
25.065000 0.379247 0
25.070000 0.395267 0
25.075000 0.408482 0
25.080000 0.418605 0
25.085000 0.425404 0
25.090000 0.428718 5
25.095000 0.428455 0
25.100000 0.424604 0
25.105000 0.417226 0
25.110000 0.406461 0
25.115000 0.392516 0
25.120000 0.375666 0
25.125000 0.356235 0
25.130000 0.334593 0
25.135000 0.311141 0
25.140000 0.286299 0
25.145000 0.260493 0
25.150000 0.234142 0
25.155000 0.207650 0
25.160000 0.181391 0
25.165000 0.155708 0
25.170000 0.130899 0
25.175000 0.107218 0
25.180000 0.084871 0
25.185000 0.064014 0
25.190000 0.044757 0
25.195000 0.027164 0
25.200000 0.011259 0
25.205000 -0.002971 0
25.210000 -0.015569 0
25.215000 -0.026606 0
25.220000 -0.036170 0
25.225000 -0.044365 0
25.230000 -0.051305 0
25.235000 -0.057108 0
25.240000 -0.061894 0
25.245000 -0.065780 0
25.250000 -0.068878 0
25.255000 -0.071294 0
25.260000 -0.073127 0
25.265000 -0.074466 0
25.270000 -0.075389 0
25.275000 -0.075966 0
25.280000 -0.076260 0
25.285000 -0.076323 0
25.290000 -0.076200 0
25.295000 -0.075927 0
25.300000 -0.075537 0
25.305000 -0.075055 0
25.310000 -0.074469 0
25.315000 -0.073691 0
25.320000 -0.072916 0
25.325000 -0.072145 0
25.330000 -0.071377 0
25.335000 -0.070614 0
25.340000 -0.069854 0
25.345000 -0.069099 0
25.350000 -0.068347 0
25.355000 -0.067598 0
25.360000 -0.066854 0
25.365000 -0.066113 0
25.370000 -0.065376 0
25.375000 -0.064642 0
25.380000 -0.063913 0
25.385000 -0.063187 0
25.390000 -0.062464 0
25.395000 -0.061745 0
25.400000 -0.061029 0
25.405000 -0.060317 0
25.410000 -0.059608 0
25.415000 -0.058901 0
25.420000 -0.058196 0
25.425000 -0.057492 0
25.430000 -0.056785 0
25.435000 -0.056074 0
25.440000 -0.055351 0
25.445000 -0.054607 0
25.450000 -0.053828 0
25.455000 -0.052993 0
25.460000 -0.052070 0
25.465000 -0.051014 0
25.470000 -0.049762 0
25.475000 -0.048228 0
25.480000 -0.046300 0
25.485000 -0.043833 0
25.490000 -0.040648 0
25.495000 -0.036530 0
25.500000 -0.031234 0
25.505000 -0.024486 0
25.510000 -0.016006 0
25.515000 -0.005520 0
25.520000 0.007210 0
25.525000 0.022353 0
25.530000 0.039976 0
25.535000 0.060010 0
25.540000 0.082221 0
25.545000 0.106189 0
25.550000 0.131302 0
25.555000 0.156770 0
25.560000 0.181658 0
25.565000 0.204934 0
25.570000 0.225539 0
25.575000 0.242465 0
25.580000 0.254835 0
25.585000 0.261979 0
25.590000 0.263489 1
25.595000 0.259264 0
25.600000 0.249511 0
25.605000 0.234737 0
25.610000 0.215696 0
25.615000 0.193330 0
25.620000 0.168689 0
25.625000 0.142853 0
25.630000 0.116847 0
25.635000 0.091579 0
25.640000 0.067777 0
25.645000 0.045923 0
25.650000 0.026156 0
25.655000 0.008094 0
25.660000 -0.009410 0
25.665000 -0.028477 0
25.670000 -0.052045 0
25.675000 -0.082939 0
25.680000 -0.121975 0
25.685000 -0.165654 0
25.690000 -0.204721 0
25.695000 -0.224737 2
25.700000 -0.208606 0
25.705000 -0.139866 0
25.710000 -0.006015 0
25.715000 0.196976 0
25.720000 0.457673 0
25.725000 0.742221 0
25.730000 0.994799 0
25.735000 1.151907 0
25.740000 1.167302 3
25.745000 1.033112 0
25.750000 0.783943 0
25.755000 0.481482 0
25.760000 0.187583 0
25.765000 -0.053918 0
25.770000 -0.221502 0
25.775000 -0.311557 0
25.780000 -0.332961 4
25.785000 -0.303271 0
25.790000 -0.244685 0
25.795000 -0.178515 0
25.800000 -0.119961 0
25.805000 -0.075829 0
25.810000 -0.045914 0
25.815000 -0.026337 0
25.820000 -0.012616 0
25.825000 -0.001307 0
25.830000 0.009679 0
25.835000 0.021413 0
25.840000 0.034378 0
25.845000 0.048780 0
25.850000 0.064701 0
25.855000 0.082156 0
25.860000 0.101120 0
25.865000 0.121521 0
25.870000 0.143244 0
25.875000 0.166127 0
25.880000 0.189959 0
25.885000 0.214481 0
25.890000 0.239391 0
25.895000 0.264345 0
25.900000 0.288964 0
25.905000 0.312847 0
25.910000 0.335576 0
25.915000 0.356727 0
25.920000 0.375889 0
25.925000 0.392671 0
25.930000 0.406716 0
25.935000 0.417714 0
25.940000 0.425413 0
25.945000 0.429628 0
25.950000 0.430248 5
25.955000 0.427238 0
25.960000 0.420646 0
25.965000 0.410594 0
25.970000 0.397281 0
25.975000 0.380971 0
25.980000 0.361987 0
25.985000 0.340699 0
25.990000 0.317509 0
25.995000 0.292845 0
26.000000 0.267141 0
26.005000 0.240826 0
26.010000 0.214314 0
26.015000 0.187992 0
26.020000 0.162213 0
26.025000 0.137288 0
26.030000 0.113478 0
26.035000 0.090999 0
26.040000 0.070015 0
26.045000 0.050639 0
26.050000 0.032942 0
26.055000 0.016948 0
26.060000 0.002647 0
26.065000 -0.010006 0
26.070000 -0.021081 0
26.075000 -0.030669 0
26.080000 -0.038876 0
26.085000 -0.045817 0
26.090000 -0.051613 0
26.095000 -0.056387 0
26.100000 -0.060257 0
26.105000 -0.063338 0
26.110000 -0.065738 0
26.115000 -0.067555 0
26.120000 -0.068880 0
26.125000 -0.069793 0
26.130000 -0.070364 0
26.135000 -0.070656 0
26.140000 -0.070719 0
26.145000 -0.070600 0
26.150000 -0.070336 0
26.155000 -0.069957 0
26.160000 -0.069489 0
26.165000 -0.068921 0
26.170000 -0.068170 0
26.175000 -0.067422 0
26.180000 -0.066679 0
26.185000 -0.065939 0
26.190000 -0.065202 0
26.195000 -0.064470 0
26.200000 -0.063741 0
26.205000 -0.063016 0
26.210000 -0.062294 0
26.215000 -0.061576 0
26.220000 -0.060861 0
26.225000 -0.060150 0
26.230000 -0.059443 0
26.235000 -0.058739 0
26.240000 -0.058039 0
26.245000 -0.057342 0
26.250000 -0.056648 0
26.255000 -0.055958 0
26.260000 -0.055271 0
26.265000 -0.054586 0
26.270000 -0.053904 0
26.275000 -0.053223 0
26.280000 -0.052542 0
26.285000 -0.051857 0
26.290000 -0.051164 0
26.295000 -0.050456 0
26.300000 -0.049722 0
26.305000 -0.048943 0
26.310000 -0.048093 0
26.315000 -0.047135 0
26.320000 -0.046013 0
26.325000 -0.044653 0
26.330000 -0.042955 0
26.335000 -0.040786 0
26.340000 -0.037982 0
26.345000 -0.034341 0
26.350000 -0.029624 0
26.355000 -0.023566 0
26.360000 -0.015880 0
26.365000 -0.006281 0
26.370000 0.005492 0
26.375000 0.019645 0
26.380000 0.036291 0
26.385000 0.055418 0
26.390000 0.076853 0
26.395000 0.100240 0
26.400000 0.125023 0
26.405000 0.150458 0
26.410000 0.175635 0
26.415000 0.199527 0
26.420000 0.221054 0
26.425000 0.239165 0
26.430000 0.252915 0
26.435000 0.261553 0
26.440000 0.264586 1
26.445000 0.261822 0
26.450000 0.253394 0
26.455000 0.239744 0
26.460000 0.221589 0
26.465000 0.199851 0
26.470000 0.175585 0
26.475000 0.149892 0
26.480000 0.123834 0
26.485000 0.098365 0
26.490000 0.074264 0
26.495000 0.052071 0
26.500000 0.031991 0
26.505000 0.013727 0
26.510000 -0.003771 0
26.515000 -0.022534 0
26.520000 -0.045493 0
26.525000 -0.075613 0
26.530000 -0.114022 0
26.535000 -0.157613 0
26.540000 -0.197406 0
26.545000 -0.218965 2
26.550000 -0.204926 0
26.555000 -0.138396 0
26.560000 -0.006413 0
26.565000 0.195434 0
26.570000 0.455796 0
26.575000 0.740305 0
26.580000 0.992002 0
26.585000 1.146229 0
26.590000 1.156582 3
26.595000 1.016815 0
26.600000 0.763948 0
26.605000 0.460633 0
26.610000 0.168591 0
26.615000 -0.069190 0
26.620000 -0.232175 0
26.625000 -0.317591 0
26.630000 -0.335019 4
26.635000 -0.302583 0
26.640000 -0.242765 0
26.645000 -0.176732 0
26.650000 -0.119175 0
26.655000 -0.076296 0
26.660000 -0.047443 0
26.665000 -0.028554 0
26.670000 -0.015167 0
26.675000 -0.003942 0
26.680000 0.007103 0
26.685000 0.018969 0
26.690000 0.032102 0
26.695000 0.046691 0
26.700000 0.062809 0
26.705000 0.080466 0
26.710000 0.099630 0
26.715000 0.120226 0
26.720000 0.142130 0
26.725000 0.165174 0
26.730000 0.189137 0
26.735000 0.213754 0
26.740000 0.238714 0
26.745000 0.263664 0
26.750000 0.288221 0
26.755000 0.311975 0
26.760000 0.334504 0
26.765000 0.355383 0
26.770000 0.374200 0
26.775000 0.390566 0
26.780000 0.404128 0
26.785000 0.414584 0
26.790000 0.421691 0
26.795000 0.425276 5
26.800000 0.425240 0
26.805000 0.421565 0
26.810000 0.414311 0
26.815000 0.403619 0
26.820000 0.389702 0
26.825000 0.372838 0
26.830000 0.353363 0
26.835000 0.331658 0
26.840000 0.308136 0
26.845000 0.283227 0
26.850000 0.257369 0
26.855000 0.230993 0
26.860000 0.204510 0
26.865000 0.178304 0
26.870000 0.152718 0
26.875000 0.128056 0
26.880000 0.104571 0
26.885000 0.082465 0
26.890000 0.061892 0
26.895000 0.042955 0
26.900000 0.025712 0
26.905000 0.010179 0
26.910000 -0.003665 0
26.915000 -0.015871 0
26.920000 -0.026517 0
26.925000 -0.035699 0
26.930000 -0.043526 0
26.935000 -0.050118 0
26.940000 -0.055595 0
26.945000 -0.060081 0
26.950000 -0.063695 0
26.955000 -0.066550 0
26.960000 -0.068752 0
26.965000 -0.070398 0
26.970000 -0.071576 0
26.975000 -0.072364 0
26.980000 -0.072828 0
26.985000 -0.073030 0
26.990000 -0.073019 0
26.995000 -0.072837 0
27.000000 -0.072520 0
27.005000 -0.072097 0
27.010000 -0.071592 0
27.015000 -0.070866 0
27.020000 -0.070105 0
27.025000 -0.069348 0
27.030000 -0.068595 0
27.035000 -0.067845 0
27.040000 -0.067099 0
27.045000 -0.066357 0
27.050000 -0.065619 0
27.055000 -0.064884 0
27.060000 -0.064153 0
27.065000 -0.063426 0
27.070000 -0.062702 0
27.075000 -0.061982 0
27.080000 -0.061266 0
27.085000 -0.060553 0
27.090000 -0.059843 0
27.095000 -0.059137 0
27.100000 -0.058435 0
27.105000 -0.057735 0
27.110000 -0.057039 0
27.115000 -0.056345 0
27.120000 -0.055654 0
27.125000 -0.054962 0
27.130000 -0.054270 0
27.135000 -0.053572 0
27.140000 -0.052864 0
27.145000 -0.052137 0
27.150000 -0.051375 0
27.155000 -0.050559 0
27.160000 -0.049657 0
27.165000 -0.048623 0
27.170000 -0.047395 0
27.175000 -0.045885 0
27.180000 -0.043979 0
27.185000 -0.041530 0
27.190000 -0.038353 0
27.195000 -0.034229 0
27.200000 -0.028902 0
27.205000 -0.022094 0
27.210000 -0.013514 0
27.215000 -0.002883 0
27.220000 0.010039 0
27.225000 0.025419 0
27.230000 0.043313 0
27.235000 0.063634 0
27.240000 0.086116 0
27.245000 0.110301 0
27.250000 0.135532 0
27.255000 0.160970 0
27.260000 0.185629 0
27.265000 0.208441 0
27.270000 0.228320 0
27.275000 0.244255 0
27.280000 0.255387 0
27.285000 0.261089 1
27.290000 0.261024 0
27.295000 0.255173 0
27.300000 0.243842 0
27.305000 0.227632 0
27.310000 0.207389 0
27.315000 0.184125 0
27.320000 0.158939 0
27.325000 0.132927 0
27.330000 0.107106 0
27.335000 0.082345 0
27.340000 0.059301 0
27.345000 0.038338 0
27.350000 0.019398 0
27.355000 0.001777 0
27.360000 -0.016143 0
27.365000 -0.036992 0
27.370000 -0.063909 0
27.375000 -0.099064 0
27.380000 -0.141314 0
27.385000 -0.184056 0
27.390000 -0.214716 0
27.395000 -0.216568 2
27.400000 -0.172011 0
27.405000 -0.066029 0
27.410000 0.109800 0
27.415000 0.351001 0
27.420000 0.632180 0
27.425000 0.903482 0
27.430000 1.099968 0
27.435000 1.165087 3
27.440000 1.076844 0
27.445000 0.858526 0
27.450000 0.566045 0
27.455000 0.263556 0
27.460000 0.001648 0
27.465000 -0.191245 0
27.470000 -0.306343 0
27.475000 -0.348869 4
27.480000 -0.333823 0
27.485000 -0.282319 0
27.490000 -0.216540 0
27.495000 -0.154126 0
27.500000 -0.104712 0
27.505000 -0.070153 0
27.510000 -0.047447 0
27.515000 -0.032073 0
27.520000 -0.020147 0
27.525000 -0.009137 0
27.530000 0.002328 0
27.535000 0.014894 0
27.540000 0.028841 0
27.545000 0.044282 0
27.550000 0.061254 0
27.555000 0.079745 0
27.560000 0.099701 0
27.565000 0.121024 0
27.570000 0.143569 0
27.575000 0.167144 0
27.580000 0.191509 0
27.585000 0.216379 0
27.590000 0.241427 0
27.595000 0.266287 0
27.600000 0.290567 0
27.605000 0.313856 0
27.610000 0.335733 0
27.615000 0.355782 0
27.620000 0.373604 0
27.625000 0.388829 0
27.630000 0.401128 0
27.635000 0.410226 0
27.640000 0.415913 0
27.645000 0.418046 5
27.650000 0.416561 0
27.655000 0.411473 0
27.660000 0.402872 0
27.665000 0.390927 0
27.670000 0.375875 0
27.675000 0.358016 0
27.680000 0.337698 0
27.685000 0.315312 0
27.690000 0.291275 0
27.695000 0.266017 0
27.700000 0.239969 0
27.705000 0.213552 0
27.710000 0.187164 0
27.715000 0.161172 0
27.720000 0.135903 0
27.725000 0.111640 0
27.730000 0.088618 0
27.735000 0.067022 0
27.740000 0.046987 0
27.745000 0.028602 0
27.750000 0.011911 0
27.755000 -0.003082 0
27.760000 -0.016408 0
27.765000 -0.028124 0
27.770000 -0.038313 0
27.775000 -0.047074 0
27.780000 -0.054519 0
27.785000 -0.060767 0
27.790000 -0.065938 0
27.795000 -0.070153 0
27.800000 -0.073529 0
27.805000 -0.076176 0
27.810000 -0.078198 0
27.815000 -0.079687 0
27.820000 -0.080728 0
27.825000 -0.081397 0
27.830000 -0.081759 0
27.835000 -0.081869 0
27.840000 -0.081778 0
27.845000 -0.081524 0
27.850000 -0.081142 0
27.855000 -0.080659 0
27.860000 -0.080099 0
27.865000 -0.079328 0
27.870000 -0.078525 0
27.875000 -0.077726 0
27.880000 -0.076931 0
27.885000 -0.076140 0
27.890000 -0.075353 0
27.895000 -0.074570 0
27.900000 -0.073791 0
27.905000 -0.073015 0
27.910000 -0.072244 0
27.915000 -0.071476 0
27.920000 -0.070712 0
27.925000 -0.069952 0
27.930000 -0.069196 0
27.935000 -0.068443 0
27.940000 -0.067694 0
27.945000 -0.066949 0
27.950000 -0.066208 0
27.955000 -0.065470 0
27.960000 -0.064735 0
27.965000 -0.064003 0
27.970000 -0.063273 0
27.975000 -0.062543 0
27.980000 -0.061813 0
27.985000 -0.061077 0
27.990000 -0.060331 0
27.995000 -0.059565 0
28.000000 -0.058766 0
28.005000 -0.057912 0
28.010000 -0.056973 0
28.015000 -0.055903 0
28.020000 -0.054640 0
28.025000 -0.053098 0
28.030000 -0.051164 0
28.035000 -0.048694 0
28.040000 -0.045505 0
28.045000 -0.041382 0
28.050000 -0.036073 0
28.055000 -0.029304 0
28.060000 -0.020786 0
28.065000 -0.010244 0
28.070000 0.002564 0
28.075000 0.017807 0
28.080000 0.035551 0
28.085000 0.055719 0
28.090000 0.078065 0
28.095000 0.102152 0
28.100000 0.127346 0
28.105000 0.152833 0
28.110000 0.177653 0
28.115000 0.200753 0
28.120000 0.221059 0
28.125000 0.237556 0
28.130000 0.249372 0
28.135000 0.255856 0
28.140000 0.256631 1
28.145000 0.251635 0
28.150000 0.241125 0
28.155000 0.225654 0
28.160000 0.206025 0
28.165000 0.183218 0
28.170000 0.158311 0
28.175000 0.132394 0
28.180000 0.106494 0
28.185000 0.081500 0
28.190000 0.058107 0
28.195000 0.036742 0
28.200000 0.017444 0
28.205000 -0.000327 0
28.210000 -0.017960 0
28.215000 -0.037851 0
28.220000 -0.063083 0
28.225000 -0.096208 0
28.230000 -0.137092 0
28.235000 -0.180636 0
28.240000 -0.215777 0
28.245000 -0.226733 2
28.250000 -0.195983 0
28.255000 -0.107671 0
28.260000 0.048780 0
28.265000 0.273235 0
28.270000 0.547090 0
28.275000 0.827681 0
28.280000 1.053221 0
28.285000 1.162391 3
28.290000 1.121061 0
28.295000 0.938778 0
28.300000 0.662900 0
28.305000 0.357131 0
28.310000 0.077537 0
28.315000 -0.140386 0
28.320000 -0.282044 0
28.325000 -0.348444 0
28.330000 -0.351460 4
28.335000 -0.310337 0
28.340000 -0.247314 0
28.345000 -0.182044 0
