0.000000 1.120577 3
0.005000 1.049041 0
0.010000 0.865972 0
0.015000 0.612780 0
0.020000 0.339802 0
0.025000 0.090197 0
0.030000 -0.108324 0
0.035000 -0.243559 0
0.040000 -0.315122 0
0.045000 -0.331020 4
0.050000 -0.305238 0
0.055000 -0.255003 0
0.060000 -0.197062 0
0.065000 -0.144044 0
0.070000 -0.102578 0
0.075000 -0.073774 0
0.080000 -0.055295 0
0.085000 -0.043638 0
0.090000 -0.035669 0
0.095000 -0.029209 0
0.100000 -0.022979 0
0.105000 -0.016313 0
0.110000 -0.008881 0
0.115000 -0.000509 0
0.120000 0.008913 0
0.125000 0.019464 0
0.130000 0.031208 0
0.135000 0.044190 0
0.140000 0.058438 0
0.145000 0.073957 0
0.150000 0.090727 0
0.155000 0.108700 0
0.160000 0.127794 0
0.165000 0.147896 0
0.170000 0.168859 0
0.175000 0.190499 0
0.180000 0.212601 0
0.185000 0.234918 0
0.190000 0.257177 0
0.195000 0.279079 0
0.200000 0.300312 0
0.205000 0.320553 0
0.210000 0.339476 0
0.215000 0.356763 0
0.220000 0.372111 0
0.225000 0.385241 0
0.230000 0.395904 0
0.235000 0.403894 0
0.240000 0.409047 0
0.245000 0.411254 5
0.250000 0.410458 0
0.255000 0.406659 0
0.260000 0.399916 0
0.265000 0.390341 0
0.270000 0.378099 0
0.275000 0.363402 0
0.280000 0.346502 0
0.285000 0.327685 0
0.290000 0.307262 0
0.295000 0.285560 0
0.300000 0.262914 0
0.305000 0.239658 0
0.310000 0.216117 0
0.315000 0.192598 0
0.320000 0.169389 0
0.325000 0.146747 0
0.330000 0.124897 0
0.335000 0.104032 0
0.340000 0.084306 0
0.345000 0.065841 0
0.350000 0.048721 0
0.355000 0.032996 0
0.360000 0.018689 0
0.365000 0.005793 0
0.370000 -0.005723 0
0.375000 -0.015907 0
0.380000 -0.024827 0
0.385000 -0.032560 0
0.390000 -0.039193 0
0.395000 -0.044818 0
0.400000 -0.049529 0
0.405000 -0.053420 0
0.410000 -0.056582 0
0.415000 -0.059104 0
0.420000 -0.061068 0
0.425000 -0.062550 0
0.430000 -0.063620 0
0.435000 -0.064340 0
0.440000 -0.064767 0
0.445000 -0.064949 0
0.450000 -0.064930 0
0.455000 -0.064745 0
0.460000 -0.064426 0
0.465000 -0.064000 0
0.470000 -0.063489 0
0.475000 -0.062910 0
0.480000 -0.062279 0
0.485000 -0.061608 0
0.490000 -0.060906 0
0.495000 -0.060182 0
0.500000 -0.059433 0
0.505000 -0.058636 0
0.510000 -0.057844 0
0.515000 -0.057056 0
0.520000 -0.056272 0
0.525000 -0.055491 0
0.530000 -0.054715 0
0.535000 -0.053942 0
0.540000 -0.053174 0
0.545000 -0.052409 0
0.550000 -0.051648 0
0.555000 -0.050890 0
0.560000 -0.050137 0
0.565000 -0.049387 0
0.570000 -0.048641 0
0.575000 -0.047899 0
0.580000 -0.047160 0
0.585000 -0.046425 0
0.590000 -0.045694 0
0.595000 -0.044966 0
0.600000 -0.044242 0
0.605000 -0.043522 0
0.610000 -0.042805 0
0.615000 -0.042092 0
0.620000 -0.041382 0
0.625000 -0.040676 0
0.630000 -0.039973 0
0.635000 -0.039273 0
0.640000 -0.038576 0
0.645000 -0.037882 0
0.650000 -0.037190 0
0.655000 -0.036498 0
0.660000 -0.035806 0
0.665000 -0.035109 0
0.670000 -0.034404 0
0.675000 -0.033683 0
0.680000 -0.032936 0
0.685000 -0.032147 0
0.690000 -0.031295 0
0.695000 -0.030347 0
0.700000 -0.029260 0
0.705000 -0.027975 0
0.710000 -0.026416 0
0.715000 -0.024484 0
0.720000 -0.022055 0
0.725000 -0.018980 0
0.730000 -0.015084 0
0.735000 -0.010170 0
0.740000 -0.004021 0
0.745000 0.003584 0
0.750000 0.012860 0
0.755000 0.023996 0
0.760000 0.037133 0
0.765000 0.052340 0
0.770000 0.069592 0
0.775000 0.088744 0
0.780000 0.109520 0
0.785000 0.131502 0
0.790000 0.154133 0
0.795000 0.176735 0
0.800000 0.198536 0
0.805000 0.218710 0
0.810000 0.236427 0
0.815000 0.250912 0
0.820000 0.261497 0
0.825000 0.267671 0
0.830000 0.269123 1
0.835000 0.265768 0
0.840000 0.257749 0
0.845000 0.245434 0
0.850000 0.229380 0
0.855000 0.210298 0
0.860000 0.188995 0
0.865000 0.166318 0
0.870000 0.143105 0
0.875000 0.120124 0
0.880000 0.098044 0
0.885000 0.077399 0
0.890000 0.058565 0
0.895000 0.041733 0
0.900000 0.026860 0
0.905000 0.013565 0
0.910000 0.000969 0
0.915000 -0.012468 0
0.920000 -0.028952 0
0.925000 -0.050935 0
0.930000 -0.080069 0
0.935000 -0.115640 0
0.940000 -0.153105 0
0.945000 -0.183584 0
0.950000 -0.194803 2
0.955000 -0.173129 0
0.960000 -0.105872 0
0.965000 0.016379 0
0.970000 0.196494 0
0.975000 0.425839 0
0.980000 0.679276 0
0.985000 0.914743 0
0.990000 1.081790 0
0.995000 1.138263 3
1.000000 1.067936 0
1.005000 0.886465 0
1.010000 0.634342 0
1.015000 0.361164 0
1.020000 0.109870 0
1.025000 -0.091585 0
1.030000 -0.230524 0
1.035000 -0.306024 0
1.040000 -0.325523 4
1.045000 -0.302456 0
1.050000 -0.253668 0
1.055000 -0.195853 0
1.060000 -0.141954 0
1.065000 -0.099116 0
1.070000 -0.068941 0
1.075000 -0.049397 0
1.080000 -0.037073 0
1.085000 -0.028782 0
1.090000 -0.022239 0
1.095000 -0.016068 0
1.100000 -0.009543 0
1.105000 -0.002297 0
1.110000 0.005858 0
1.115000 0.015038 0
1.120000 0.025325 0
1.125000 0.036783 0
1.130000 0.049463 0
1.135000 0.063394 0
1.140000 0.078587 0
1.145000 0.095029 0
1.150000 0.112677 0
1.155000 0.131460 0
1.160000 0.151275 0
1.165000 0.171985 0
1.170000 0.193417 0
1.175000 0.215370 0
1.180000 0.237607 0
1.185000 0.259867 0
1.190000 0.281862 0
1.195000 0.303289 0
1.200000 0.323831 0
1.205000 0.343168 0
1.210000 0.360983 0
1.215000 0.376973 0
1.220000 0.390852 0
1.225000 0.402366 0
1.230000 0.411295 0
1.235000 0.417463 0
1.240000 0.420742 0
1.245000 0.421055 5
1.250000 0.418383 0
1.255000 0.412759 0
1.260000 0.404273 0
1.265000 0.393069 0
1.270000 0.379335 0
1.275000 0.363304 0
1.280000 0.345245 0
1.285000 0.325454 0
1.290000 0.304247 0
1.295000 0.281952 0
1.300000 0.258900 0
1.305000 0.235414 0
1.310000 0.211808 0
1.315000 0.188374 0
1.320000 0.165381 0
1.325000 0.143067 0
1.330000 0.121638 0
1.335000 0.101265 0
1.340000 0.082086 0
1.345000 0.064201 0
1.350000 0.047679 0
1.355000 0.032556 0
1.360000 0.018841 0
1.365000 0.006516 0
1.370000 -0.004457 0
1.375000 -0.014135 0
1.380000 -0.022588 0
1.385000 -0.029896 0
1.390000 -0.036148 0
1.395000 -0.041436 0
1.400000 -0.045852 0
1.405000 -0.049489 0
1.410000 -0.052435 0
1.415000 -0.054775 0
1.420000 -0.056588 0
1.425000 -0.057948 0
1.430000 -0.058920 0
1.435000 -0.059564 0
1.440000 -0.059933 0
1.445000 -0.060073 0
1.450000 -0.060024 0
1.455000 -0.059822 0
1.460000 -0.059494 0
1.465000 -0.059066 0
1.470000 -0.058559 0
1.475000 -0.057989 0
1.480000 -0.057370 0
1.485000 -0.056714 0
1.490000 -0.056030 0
1.495000 -0.055325 0
1.500000 -0.054560 0
1.505000 -0.053788 0
1.510000 -0.053020 0
1.515000 -0.052256 0
1.520000 -0.051495 0
1.525000 -0.050739 0
1.530000 -0.049986 0
1.535000 -0.049237 0
1.540000 -0.048492 0
1.545000 -0.047750 0
1.550000 -0.047012 0
1.555000 -0.046278 0
1.560000 -0.045548 0
1.565000 -0.044821 0
1.570000 -0.044097 0
1.575000 -0.043378 0
1.580000 -0.042662 0
1.585000 -0.041949 0
1.590000 -0.041240 0
1.595000 -0.040535 0
1.600000 -0.039833 0
1.605000 -0.039135 0
1.610000 -0.038440 0
1.615000 -0.037748 0
1.620000 -0.037060 0
1.625000 -0.036375 0
1.630000 -0.035694 0
1.635000 -0.035016 0
1.640000 -0.034340 0
1.645000 -0.033667 0
1.650000 -0.032996 0
1.655000 -0.032325 0
1.660000 -0.031653 0
1.665000 -0.030978 0
1.670000 -0.030293 0
1.675000 -0.029594 0
1.680000 -0.028869 0
1.685000 -0.028104 0
1.690000 -0.027277 0
1.695000 -0.026358 0
1.700000 -0.025304 0
1.705000 -0.024060 0
1.710000 -0.022552 0
1.715000 -0.020684 0
1.720000 -0.018337 0
1.725000 -0.015368 0
1.730000 -0.011607 0
1.735000 -0.006862 0
1.740000 -0.000922 0
1.745000 0.006431 0
1.750000 0.015410 0
1.755000 0.026207 0
1.760000 0.038970 0
1.765000 0.053782 0
1.770000 0.070635 0
1.775000 0.089410 0
1.780000 0.109863 0
1.785000 0.131608 0
1.790000 0.154127 0
1.795000 0.176776 0
1.800000 0.198811 0
1.805000 0.219427 0
1.810000 0.237804 0
1.815000 0.253160 0
1.820000 0.264803 0
1.825000 0.272187 0
1.830000 0.274949 1
1.835000 0.272941 0
1.840000 0.266240 0
1.845000 0.255145 0
1.850000 0.240153 0
1.855000 0.221922 0
1.860000 0.201223 0
1.865000 0.178884 0
1.870000 0.155738 0
1.875000 0.132572 0
1.880000 0.110081 0
1.885000 0.088840 0
1.890000 0.069281 0
1.895000 0.051662 0
1.900000 0.036038 0
1.905000 0.022177 0
1.910000 0.009429 0
1.915000 -0.003447 0
1.920000 -0.018374 0
1.925000 -0.037755 0
1.930000 -0.063721 0
1.935000 -0.096781 0
1.940000 -0.134259 0
1.945000 -0.169292 0
1.950000 -0.191111 2
1.955000 -0.186624 0
1.960000 -0.142617 0
1.965000 -0.047961 0
1.970000 0.103811 0
1.975000 0.310490 0
1.980000 0.555932 0
1.985000 0.806757 0
1.990000 1.015872 0
1.995000 1.135140 3
2.000000 1.133994 0
2.005000 1.012106 0
2.010000 0.795985 0
2.015000 0.529916 0
2.020000 0.260312 0
2.025000 0.023460 0
2.030000 -0.159144 0
2.035000 -0.279349 0
2.040000 -0.338876 0
2.045000 -0.346551 4
2.050000 -0.316248 0
2.055000 -0.264334 0
2.060000 -0.206293 0
2.065000 -0.153611 0
2.070000 -0.112252 0
2.075000 -0.083188 0
2.080000 -0.064244 0
2.085000 -0.052133 0
2.090000 -0.043847 0
2.095000 -0.037235 0
2.100000 -0.030994 0
2.105000 -0.024420 0
2.110000 -0.017157 0
2.115000 -0.009017 0
2.120000 0.000111 0
2.125000 0.010311 0
2.130000 0.021644 0
2.135000 0.034161 0
2.140000 0.047894 0
2.145000 0.062857 0
2.150000 0.079042 0
2.155000 0.096417 0
2.160000 0.114921 0
2.165000 0.134466 0
2.170000 0.154930 0
2.175000 0.176162 0
2.180000 0.197979 0
2.185000 0.220168 0
2.190000 0.242490 0
2.195000 0.264681 0
2.200000 0.286458 0
2.205000 0.307525 0
2.210000 0.327577 0
2.215000 0.346310 0
2.220000 0.363427 0
2.225000 0.378644 0
2.230000 0.391700 0
2.235000 0.402364 0
2.240000 0.410441 0
2.245000 0.415777 0
2.250000 0.418265 5
2.255000 0.417846 0
2.260000 0.414515 0
2.265000 0.408317 0
2.270000 0.399349 0
2.275000 0.387754 0
2.280000 0.373721 0
2.285000 0.357477 0
2.290000 0.339281 0
2.295000 0.319418 0
2.300000 0.298190 0
2.305000 0.275911 0
2.310000 0.252894 0
2.315000 0.229451 0
2.320000 0.205880 0
2.325000 0.182461 0
2.330000 0.159451 0
2.335000 0.137081 0
2.340000 0.115552 0
2.345000 0.095032 0
2.350000 0.075657 0
2.355000 0.057530 0
2.360000 0.040723 0
2.365000 0.025277 0
2.370000 0.011207 0
2.375000 -0.001496 0
2.380000 -0.012863 0
2.385000 -0.022944 0
2.390000 -0.031800 0
2.395000 -0.039506 0
2.400000 -0.046143 0
2.405000 -0.051798 0
2.410000 -0.056558 0
2.415000 -0.060513 0
2.420000 -0.063750 0
2.425000 -0.066350 0
2.430000 -0.068394 0
2.435000 -0.069953 0
2.440000 -0.071095 0
2.445000 -0.071882 0
2.450000 -0.072366 0
2.455000 -0.072597 0
2.460000 -0.072617 0
2.465000 -0.072463 0
2.470000 -0.072167 0
2.475000 -0.071754 0
2.480000 -0.071248 0
2.485000 -0.070668 0
2.490000 -0.070030 0
2.495000 -0.069346 0
2.500000 -0.068627 0
2.505000 -0.067881 0
2.510000 -0.067116 0
2.515000 -0.066292 0
2.520000 -0.065462 0
2.525000 -0.064635 0
2.530000 -0.063813 0
2.535000 -0.062995 0
2.540000 -0.062182 0
2.545000 -0.061372 0
2.550000 -0.060566 0
2.555000 -0.059764 0
2.560000 -0.058966 0
2.565000 -0.058172 0
2.570000 -0.057383 0
2.575000 -0.056597 0
2.580000 -0.055815 0
2.585000 -0.055037 0
2.590000 -0.054262 0
2.595000 -0.053492 0
2.600000 -0.052726 0
2.605000 -0.051963 0
2.610000 -0.051204 0
2.615000 -0.050449 0
2.620000 -0.049698 0
2.625000 -0.048950 0
2.630000 -0.048206 0
2.635000 -0.047466 0
2.640000 -0.046729 0
2.645000 -0.045996 0
2.650000 -0.045267 0
2.655000 -0.044541 0
2.660000 -0.043817 0
2.665000 -0.043097 0
2.670000 -0.042378 0
2.675000 -0.041659 0
2.680000 -0.040939 0
2.685000 -0.040215 0
2.690000 -0.039482 0
2.695000 -0.038733 0
2.700000 -0.037957 0
2.705000 -0.037140 0
2.710000 -0.036259 0
2.715000 -0.035286 0
2.720000 -0.034179 0
2.725000 -0.032884 0
2.730000 -0.031329 0
2.735000 -0.029425 0
2.740000 -0.027057 0
2.745000 -0.024090 0
2.750000 -0.020364 0
2.755000 -0.015697 0
2.760000 -0.009890 0
2.765000 -0.002736 0
2.770000 0.005971 0
2.775000 0.016418 0
2.780000 0.028756 0
2.785000 0.043081 0
2.790000 0.059409 0
2.795000 0.077658 0
2.800000 0.097632 0
2.805000 0.119006 0
2.810000 0.141331 0
2.815000 0.164033 0
2.820000 0.186438 0
2.825000 0.207797 0
2.830000 0.227329 0
2.835000 0.244265 0
2.840000 0.257897 0
2.845000 0.267627 0
2.850000 0.273013 0
2.855000 0.273795 1
2.860000 0.269923 0
2.865000 0.261556 0
2.870000 0.249052 0
2.875000 0.232944 0
2.880000 0.213899 0
2.885000 0.192676 0
2.890000 0.170070 0
2.895000 0.146869 0
2.900000 0.123807 0
2.905000 0.101526 0
2.910000 0.080550 0
2.915000 0.061266 0
2.920000 0.043899 0
2.925000 0.028473 0
2.930000 0.014741 0
2.935000 0.002053 0
2.940000 -0.010799 0
2.945000 -0.025659 0
2.950000 -0.044819 0
2.955000 -0.070344 0
2.960000 -0.102852 0
2.965000 -0.140083 0
2.970000 -0.175915 0
2.975000 -0.200479 0
2.980000 -0.201486 2
2.985000 -0.166200 0
2.990000 -0.083441 0
2.995000 0.054218 0
3.000000 0.247154 0
3.005000 0.484022 0
3.010000 0.737801 0
3.015000 0.966750 0
3.020000 1.123421 0
3.025000 1.170032 3
3.030000 1.092123 0
3.035000 0.904960 0
3.040000 0.650044 0
3.045000 0.376931 0
3.050000 0.127782 0
3.055000 -0.070415 0
3.060000 -0.205786 0
3.065000 -0.277968 0
3.070000 -0.294797 4
3.075000 -0.269967 0
3.080000 -0.220404 0
3.085000 -0.162666 0
3.090000 -0.109395 0
3.095000 -0.067401 0
3.100000 -0.038025 0
3.105000 -0.019108 0
3.110000 -0.007221 0
3.115000 0.000782 0
3.120000 0.007133 0
3.125000 0.013163 0
3.130000 0.019575 0
3.135000 0.026721 0
3.140000 0.034783 0
3.145000 0.043875 0
3.150000 0.054077 0
3.155000 0.065455 0
3.160000 0.078055 0
3.165000 0.091909 0
3.170000 0.107024 0
3.175000 0.123387 0
3.180000 0.140954 0
3.185000 0.159652 0
3.190000 0.179376 0
3.195000 0.199987 0
3.200000 0.221314 0
3.205000 0.243150 0
3.210000 0.265261 0
3.215000 0.287382 0
3.220000 0.309226 0
3.225000 0.330489 0
3.230000 0.350854 0
3.235000 0.370002 0
3.240000 0.387616 0
3.245000 0.403392 0
3.250000 0.417049 0
3.255000 0.428333 0
3.260000 0.437025 0
3.265000 0.442951 0
3.270000 0.445986 0
3.275000 0.446055 5
3.280000 0.443140 0
3.285000 0.437279 0
3.290000 0.428563 0
3.295000 0.417135 0
3.300000 0.403188 0
3.305000 0.386955 0
3.310000 0.368706 0
3.315000 0.348737 0
3.320000 0.327366 0
3.325000 0.304919 0
3.330000 0.281727 0
3.335000 0.258115 0
3.340000 0.234392 0
3.345000 0.210853 0
3.350000 0.187763 0
3.355000 0.165359 0
3.360000 0.143847 0
3.365000 0.123397 0
3.370000 0.104144 0
3.375000 0.086188 0
3.380000 0.069596 0
3.385000 0.054405 0
3.390000 0.040620 0
3.395000 0.028226 0
3.400000 0.017181 0
3.405000 0.007431 0
3.410000 -0.001097 0
3.415000 -0.008483 0
3.420000 -0.014815 0
3.425000 -0.020185 0
3.430000 -0.024686 0
3.435000 -0.028409 0
3.440000 -0.031444 0
3.445000 -0.033875 0
3.450000 -0.035780 0
3.455000 -0.037234 0
3.460000 -0.038300 0
3.465000 -0.039040 0
3.470000 -0.039506 0
3.475000 -0.039743 0
3.480000 -0.039792 0
3.485000 -0.039687 0
3.490000 -0.039457 0
3.495000 -0.039128 0
3.500000 -0.038718 0
3.505000 -0.038246 0
3.510000 -0.037725 0
3.515000 -0.037166 0
3.520000 -0.036579 0
3.525000 -0.035970 0
3.530000 -0.035302 0
3.535000 -0.034626 0
3.540000 -0.033954 0
3.545000 -0.033284 0
3.550000 -0.032619 0
3.555000 -0.031956 0
3.560000 -0.031297 0
3.565000 -0.030641 0
3.570000 -0.029989 0
3.575000 -0.029340 0
3.580000 -0.028694 0
3.585000 -0.028051 0
3.590000 -0.027411 0
3.595000 -0.026775 0
3.600000 -0.026142 0
3.605000 -0.025511 0
3.610000 -0.024884 0
3.615000 -0.024261 0
3.620000 -0.023640 0
3.625000 -0.023022 0
3.630000 -0.022408 0
3.635000 -0.021796 0
3.640000 -0.021188 0
3.645000 -0.020582 0
3.650000 -0.019980 0
3.655000 -0.019380 0
3.660000 -0.018784 0
3.665000 -0.018190 0
3.670000 -0.017598 0
3.675000 -0.017009 0
3.680000 -0.016420 0
3.685000 -0.015832 0
3.690000 -0.015243 0
3.695000 -0.014649 0
3.700000 -0.014046 0
3.705000 -0.013428 0
3.710000 -0.012783 0
3.715000 -0.012098 0
3.720000 -0.011351 0
3.725000 -0.010511 0
3.730000 -0.009536 0
3.735000 -0.008370 0
3.740000 -0.006940 0
3.745000 -0.005149 0
3.750000 -0.002880 0
3.755000 0.000011 0
3.760000 0.003695 0
3.765000 0.008363 0
3.770000 0.014224 0
3.775000 0.021498 0
3.780000 0.030398 0
3.785000 0.041115 0
3.790000 0.053797 0
3.795000 0.068526 0
3.800000 0.085297 0
3.805000 0.103991 0
3.810000 0.124363 0
3.815000 0.146030 0
3.820000 0.168473 0
3.825000 0.191051 0
3.830000 0.213021 0
3.835000 0.233578 0
3.840000 0.251904 0
3.845000 0.267215 0
3.850000 0.278822 0
3.855000 0.286174 0
3.860000 0.288909 1
3.865000 0.286877 0
3.870000 0.280152 0
3.875000 0.269031 0
3.880000 0.254010 0
3.885000 0.235743 0
3.890000 0.215000 0
3.895000 0.192608 0
3.900000 0.169401 0
3.905000 0.146163 0
3.910000 0.123593 0
3.915000 0.102266 0
3.920000 0.082615 0
3.925000 0.064902 0
3.930000 0.049184 0
3.935000 0.035236 0
3.940000 0.022413 0
3.945000 0.009490 0
3.950000 -0.005448 0
3.955000 -0.024796 0
3.960000 -0.050698 0
3.965000 -0.083705 0
3.970000 -0.121213 0
3.975000 -0.156442 0
3.980000 -0.178695 2
3.985000 -0.174913 0
3.990000 -0.131876 0
3.995000 -0.038401 0
4.000000 0.112107 0
4.005000 0.317669 0
4.010000 0.562504 0
4.015000 0.813625 0
4.020000 1.024175 0
4.025000 1.145890 0
4.030000 1.146659 3
4.035000 1.025979 0
4.040000 0.813324 0
4.045000 0.549494 0
4.050000 0.278064 0
4.055000 0.034294 0
4.060000 -0.159698 0
4.065000 -0.294227 0
4.070000 -0.369086 0
4.075000 -0.390935 4
4.080000 -0.371478 0
4.085000 -0.325485 0
4.090000 -0.268060 0
4.095000 -0.211696 0
4.100000 -0.164279 0
4.105000 -0.128780 0
4.110000 -0.104431 0
4.115000 -0.088529 0
4.120000 -0.078006 0
4.125000 -0.070334 0
4.130000 -0.063797 0
4.135000 -0.057379 0
4.140000 -0.050535 0
4.145000 -0.042981 0
4.150000 -0.034563 0
4.155000 -0.025182 0
4.160000 -0.014764 0
4.165000 -0.003253 0
4.170000 0.009397 0
4.175000 0.023215 0
4.180000 0.038216 0
4.185000 0.054393 0
4.190000 0.071718 0
4.195000 0.090139 0
4.200000 0.109577 0
4.205000 0.129927 0
4.210000 0.151054 0
4.215000 0.172797 0
4.220000 0.194967 0
4.225000 0.217350 0
4.230000 0.239710 0
4.235000 0.261790 0
4.240000 0.283320 0
4.245000 0.304022 0
4.250000 0.323611 0
4.255000 0.341807 0
4.260000 0.358338 0
4.265000 0.372948 0
4.270000 0.385403 0
4.275000 0.395498 0
4.280000 0.403061 0
4.285000 0.407957 0
4.290000 0.410095 5
4.295000 0.409429 0
4.300000 0.405957 0
4.305000 0.399726 0
4.310000 0.390828 0
4.315000 0.379395 0
4.320000 0.365601 0
4.325000 0.349656 0
4.330000 0.331796 0
4.335000 0.312284 0
4.340000 0.291398 0
4.345000 0.269427 0
4.350000 0.246665 0
4.355000 0.223401 0
4.360000 0.199917 0
4.365000 0.176480 0
4.370000 0.153338 0
4.375000 0.130718 0
4.380000 0.108818 0
4.385000 0.087812 0
4.390000 0.067841 0
4.395000 0.049019 0
4.400000 0.031430 0
4.405000 0.015133 0
4.410000 0.000156 0
4.415000 -0.013493 0
4.420000 -0.025827 0
4.425000 -0.036880 0
4.430000 -0.046699 0
4.435000 -0.055343 0
4.440000 -0.062882 0
4.445000 -0.069393 0
4.450000 -0.074956 0
4.455000 -0.079654 0
4.460000 -0.083567 0
4.465000 -0.086779 0
4.470000 -0.089366 0
4.475000 -0.091402 0
4.480000 -0.092956 0
4.485000 -0.094092 0
4.490000 -0.094869 0
4.495000 -0.095338 0
4.500000 -0.095548 0
4.505000 -0.095538 0
4.510000 -0.095346 0
4.515000 -0.095003 0
4.520000 -0.094536 0
4.525000 -0.093969 0
4.530000 -0.093320 0
4.535000 -0.092607 0
4.540000 -0.091842 0
4.545000 -0.091037 0
4.550000 -0.090202 0
4.555000 -0.089343 0
4.560000 -0.088468 0
4.565000 -0.087537 0
4.570000 -0.086600 0
4.575000 -0.085669 0
4.580000 -0.084742 0
4.585000 -0.083819 0
4.590000 -0.082902 0
4.595000 -0.081989 0
4.600000 -0.081080 0
4.605000 -0.080176 0
4.610000 -0.079276 0
4.615000 -0.078381 0
4.620000 -0.077491 0
4.625000 -0.076604 0
4.630000 -0.075723 0
4.635000 -0.074845 0
4.640000 -0.073972 0
4.645000 -0.073104 0
4.650000 -0.072239 0
4.655000 -0.071379 0
4.660000 -0.070523 0
4.665000 -0.069672 0
4.670000 -0.068825 0
4.675000 -0.067982 0
4.680000 -0.067143 0
4.685000 -0.066308 0
4.690000 -0.065478 0
4.695000 -0.064651 0
4.700000 -0.063829 0
4.705000 -0.063011 0
4.710000 -0.062196 0
4.715000 -0.061384 0
4.720000 -0.060576 0
4.725000 -0.059770 0
4.730000 -0.058965 0
4.735000 -0.058160 0
4.740000 -0.057351 0
4.745000 -0.056535 0
4.750000 -0.055705 0
4.755000 -0.054853 0
4.760000 -0.053966 0
4.765000 -0.053026 0
4.770000 -0.052008 0
4.775000 -0.050877 0
4.780000 -0.049589 0
4.785000 -0.048084 0
4.790000 -0.046287 0
4.795000 -0.044103 0
4.800000 -0.041418 0
4.805000 -0.038096 0
4.810000 -0.033980 0
4.815000 -0.028894 0
4.820000 -0.022652 0
4.825000 -0.015060 0
4.830000 -0.005929 0
4.835000 0.004909 0
4.840000 0.017586 0
4.845000 0.032181 0
4.850000 0.048701 0
4.855000 0.067063 0
4.860000 0.087081 0
4.865000 0.108455 0
4.870000 0.130770 0
4.875000 0.153503 0
4.880000 0.176037 0
4.885000 0.197684 0
4.890000 0.217723 0
4.895000 0.235430 0
4.900000 0.250132 0
4.905000 0.261237 0
4.910000 0.268283 0
4.915000 0.270965 1
4.920000 0.269156 0
4.925000 0.262919 0
4.930000 0.252502 0
4.935000 0.238321 0
4.940000 0.220932 0
4.945000 0.200998 0
4.950000 0.179240 0
4.955000 0.156403 0
4.960000 0.133206 0
4.965000 0.110311 0
4.970000 0.088291 0
4.975000 0.067610 0
4.980000 0.048604 0
4.985000 0.031462 0
4.990000 0.016188 0
4.995000 0.002538 0
5.000000 -0.010097 0
5.005000 -0.022825 0
5.010000 -0.037325 0
5.015000 -0.055710 0
5.020000 -0.079989 0
5.025000 -0.111068 0
5.030000 -0.147500 0
5.035000 -0.184500 0
5.040000 -0.213780 0
5.045000 -0.224432 2
5.050000 -0.204544 0
5.055000 -0.142952 0
5.060000 -0.030978 0
5.065000 0.135231 0
5.070000 0.351138 0
5.075000 0.599675 0
5.080000 0.849283 0
5.085000 1.057573 0
5.090000 1.181797 0
5.095000 1.192848 3
5.100000 1.083124 0
5.105000 0.871664 0
5.110000 0.605908 0
5.115000 0.336494 0
5.120000 0.102611 0
5.125000 -0.073375 0
5.130000 -0.183956 0
5.135000 -0.232397 4
5.140000 -0.229633 0
5.145000 -0.191769 0
5.150000 -0.136751 0
5.155000 -0.080279 0
5.160000 -0.032622 0
5.165000 0.002234 0
5.170000 0.025136 0
5.175000 0.039315 0
5.180000 0.048303 0
5.185000 0.054834 0
5.190000 0.060625 0
5.195000 0.066609 0
5.200000 0.073252 0
5.205000 0.080786 0
5.210000 0.089345 0
5.215000 0.099020 0
5.220000 0.109882 0
5.225000 0.121985 0
5.230000 0.135366 0
5.235000 0.150038 0
5.240000 0.165990 0
5.245000 0.183182 0
5.250000 0.201542 0
5.255000 0.220965 0
5.260000 0.241308 0
5.265000 0.262396 0
5.270000 0.284015 0
5.275000 0.305921 0
5.280000 0.327838 0
5.285000 0.349468 0
5.290000 0.370491 0
5.295000 0.390578 0
5.300000 0.409394 0
5.305000 0.426613 0
5.310000 0.441918 0
5.315000 0.455020 0
5.320000 0.465658 0
5.325000 0.473615 0
5.330000 0.478717 0
5.335000 0.480846 5
5.340000 0.479938 0
5.345000 0.475989 0
5.350000 0.469055 0
5.355000 0.459248 0
5.360000 0.446734 0
5.365000 0.431730 0
5.370000 0.414493 0
5.375000 0.395318 0
5.380000 0.374521 0
5.385000 0.352440 0
5.390000 0.329418 0
5.395000 0.305796 0
5.400000 0.281908 0
5.405000 0.258068 0
5.410000 0.234566 0
5.415000 0.211665 0
5.420000 0.189591 0
5.425000 0.168538 0
5.430000 0.148659 0
5.435000 0.130072 0
5.440000 0.112859 0
5.445000 0.097067 0
5.450000 0.082711 0
5.455000 0.069780 0
5.460000 0.058239 0
5.465000 0.048033 0
5.470000 0.039090 0
5.475000 0.031328 0
5.480000 0.024656 0
5.485000 0.018980 0
5.490000 0.014202 0
5.495000 0.010227 0
5.500000 0.006961 0
5.505000 0.004317 0
5.510000 0.002212 0
5.515000 0.000571 0
5.520000 -0.000676 0
5.525000 -0.001591 0
5.530000 -0.002227 0
5.535000 -0.002633 0
5.540000 -0.002849 0
5.545000 -0.002910 0
5.550000 -0.002848 0
5.555000 -0.002685 0
5.560000 -0.002444 0
5.565000 -0.002141 0
5.570000 -0.001789 0
5.575000 -0.001401 0
5.580000 -0.000985 0
5.585000 -0.000538 0
5.590000 -0.000036 0
5.595000 0.000464 0
5.600000 0.000962 0
5.605000 0.001456 0
5.610000 0.001949 0
5.615000 0.002439 0
5.620000 0.002926 0
5.625000 0.003412 0
5.630000 0.003894 0
5.635000 0.004375 0
5.640000 0.004852 0
5.645000 0.005328 0
5.650000 0.005801 0
5.655000 0.006272 0
5.660000 0.006740 0
5.665000 0.007206 0
5.670000 0.007670 0
5.675000 0.008132 0
5.680000 0.008591 0
5.685000 0.009048 0
5.690000 0.009502 0
5.695000 0.009955 0
5.700000 0.010405 0
5.705000 0.010853 0
5.710000 0.011298 0
5.715000 0.011742 0
5.720000 0.012184 0
5.725000 0.012624 0
5.730000 0.013062 0
5.735000 0.013500 0
5.740000 0.013939 0
5.745000 0.014380 0
5.750000 0.014826 0
5.755000 0.015282 0
5.760000 0.015755 0
5.765000 0.016255 0
5.770000 0.016799 0
5.775000 0.017410 0
5.780000 0.018121 0
5.785000 0.018975 0
5.790000 0.020035 0
5.795000 0.021382 0
5.800000 0.023117 0
5.805000 0.025370 0
5.810000 0.028298 0
5.815000 0.032082 0
5.820000 0.036928 0
5.825000 0.043060 0
5.830000 0.050704 0
5.835000 0.060078 0
5.840000 0.071368 0
5.845000 0.084707 0
5.850000 0.100149 0
5.855000 0.117640 0
5.860000 0.137004 0
5.865000 0.157922 0
5.870000 0.179927 0
5.875000 0.202414 0
5.880000 0.224654 0
5.885000 0.245836 0
5.890000 0.265105 0
5.895000 0.281623 0
5.900000 0.294623 0
5.905000 0.303473 0
5.910000 0.307717 1
5.915000 0.307120 0
5.920000 0.301685 0
5.925000 0.291653 0
5.930000 0.277485 0
5.935000 0.259824 0
5.940000 0.239449 0
5.945000 0.217213 0
5.950000 0.193988 0
5.955000 0.170603 0
5.960000 0.147803 0
5.965000 0.126207 0
5.970000 0.106281 0
5.975000 0.088318 0
5.980000 0.072394 0
5.985000 0.058288 0
5.990000 0.045345 0
5.995000 0.032289 0
6.000000 0.017117 0
6.005000 -0.002674 0
6.010000 -0.029258 0
6.015000 -0.063003 0
6.020000 -0.100792 0
6.025000 -0.135030 0
6.030000 -0.154106 2
6.035000 -0.144232 0
6.040000 -0.091856 0
6.045000 0.013949 0
6.050000 0.178460 0
6.055000 0.396578 0
6.060000 0.647217 0
6.065000 0.891106 0
6.070000 1.077250 0
6.075000 1.158944 3
6.080000 1.113693 0
6.085000 0.952706 0
6.090000 0.711723 0
6.095000 0.439013 0
6.100000 0.179298 0
6.105000 -0.036210 0
6.110000 -0.191639 0
6.115000 -0.283512 0
6.120000 -0.317223 4
6.125000 -0.304582 0
6.130000 -0.261510 0
6.135000 -0.204848 0
6.140000 -0.148726 0
6.145000 -0.102000 0
6.150000 -0.067822 0
6.155000 -0.045106 0
6.160000 -0.030735 0
6.165000 -0.021380 0
6.170000 -0.014455 0
6.175000 -0.008309 0
6.180000 -0.002028 0
6.185000 0.004857 0
6.190000 0.012581 0
6.195000 0.021280 0
6.200000 0.031044 0
6.205000 0.041944 0
6.210000 0.054035 0
6.215000 0.067355 0
6.220000 0.081923 0
6.225000 0.097738 0
6.230000 0.114770 0
6.235000 0.132965 0
6.240000 0.152235 0
6.245000 0.172462 0
6.250000 0.193495 0
6.255000 0.215151 0
6.260000 0.237213 0
6.265000 0.259437 0
6.270000 0.281555 0
6.275000 0.303276 0
6.280000 0.324296 0
6.285000 0.344301 0
6.290000 0.362977 0
6.295000 0.380018 0
6.300000 0.395132 0
6.305000 0.408050 0
6.310000 0.418535 0
6.315000 0.426387 0
6.320000 0.431450 0
6.325000 0.433617 5
6.330000 0.432831 0
6.335000 0.429093 0
6.340000 0.422454 0
6.345000 0.413021 0
6.350000 0.400947 0
6.355000 0.386435 0
6.360000 0.369723 0
6.365000 0.351085 0
6.370000 0.330817 0
6.375000 0.309235 0
6.380000 0.286661 0
6.385000 0.263419 0
6.390000 0.239827 0
6.395000 0.216186 0
6.400000 0.192779 0
6.405000 0.169864 0
6.410000 0.147668 0
6.415000 0.126387 0
6.420000 0.106182 0
6.425000 0.087181 0
6.430000 0.069478 0
6.435000 0.053135 0
6.440000 0.038182 0
6.445000 0.024623 0
6.450000 0.012440 0
6.455000 0.001590 0
6.460000 -0.007983 0
6.465000 -0.016349 0
6.470000 -0.023589 0
6.475000 -0.029790 0
6.480000 -0.035042 0
6.485000 -0.039437 0
6.490000 -0.043064 0
6.495000 -0.046011 0
6.500000 -0.048362 0
6.505000 -0.050192 0
6.510000 -0.051575 0
6.515000 -0.052574 0
6.520000 -0.053249 0
6.525000 -0.053651 0
6.530000 -0.053825 0
6.535000 -0.053812 0
6.540000 -0.053645 0
6.545000 -0.053352 0
6.550000 -0.052960 0
6.555000 -0.052487 0
6.560000 -0.051952 0
6.565000 -0.051367 0
6.570000 -0.050744 0
6.575000 -0.050092 0
6.580000 -0.049419 0
6.585000 -0.048683 0
6.590000 -0.047941 0
6.595000 -0.047202 0
6.600000 -0.046467 0
6.605000 -0.045735 0
6.610000 -0.045008 0
6.615000 -0.044283 0
6.620000 -0.043563 0
6.625000 -0.042846 0
6.630000 -0.042133 0
6.635000 -0.041423 0
6.640000 -0.040716 0
6.645000 -0.040014 0
6.650000 -0.039314 0
6.655000 -0.038619 0
6.660000 -0.037926 0
6.665000 -0.037237 0
6.670000 -0.036552 0
6.675000 -0.035870 0
6.680000 -0.035191 0
6.685000 -0.034516 0
6.690000 -0.033844 0
6.695000 -0.033176 0
6.700000 -0.032510 0
6.705000 -0.031848 0
6.710000 -0.031190 0
6.715000 -0.030534 0
6.720000 -0.029882 0
6.725000 -0.029232 0
6.730000 -0.028585 0
6.735000 -0.027940 0
6.740000 -0.027296 0
6.745000 -0.026651 0
6.750000 -0.026004 0
6.755000 -0.025350 0
6.760000 -0.024684 0
6.765000 -0.023998 0
6.770000 -0.023279 0
6.775000 -0.022510 0
6.780000 -0.021664 0
6.785000 -0.020706 0
6.790000 -0.019588 0
6.795000 -0.018246 0
6.800000 -0.016597 0
6.805000 -0.014538 0
6.810000 -0.011938 0
6.815000 -0.008645 0
6.820000 -0.004481 0
6.825000 0.000752 0
6.830000 0.007265 0
6.835000 0.015272 0
6.840000 0.024976 0
6.845000 0.036549 0
6.850000 0.050114 0
6.855000 0.065716 0
6.860000 0.083309 0
6.865000 0.102729 0
6.870000 0.123684 0
6.875000 0.145746 0
6.880000 0.168360 0
6.885000 0.190854 0
6.890000 0.212473 0
6.895000 0.232417 0
6.900000 0.249886 0
6.905000 0.264134 0
6.910000 0.274521 0
6.915000 0.280561 0
6.920000 0.281956 1
6.925000 0.278623 0
6.930000 0.270697 0
6.935000 0.258527 0
6.940000 0.242645 0
6.945000 0.223728 0
6.950000 0.202553 0
6.955000 0.179938 0
6.960000 0.156696 0
6.965000 0.133584 0
6.970000 0.111263 0
6.975000 0.090273 0
6.980000 0.071009 0
6.985000 0.053694 0
6.990000 0.038342 0
6.995000 0.024673 0
7.000000 0.011975 0
7.005000 -0.001060 0
7.010000 -0.016399 0
7.015000 -0.036425 0
7.020000 -0.063132 0
7.025000 -0.096778 0
7.030000 -0.134392 0
7.035000 -0.168892 0
7.040000 -0.189469 2
7.045000 -0.183189 0
7.050000 -0.137131 0
7.055000 -0.040506 0
7.060000 0.112815 0
7.065000 0.320369 0
7.070000 0.566021 0
7.075000 0.816832 0
7.080000 1.026529 0
7.085000 1.147738 0
7.090000 1.149269 3
7.095000 1.028871 0
7.100000 0.813118 0
7.105000 0.546927 0
7.110000 0.277432 0
7.115000 0.041359 0
7.120000 -0.139722 0
7.125000 -0.257834 0
7.130000 -0.315013 0
7.135000 -0.320490 4
7.140000 -0.288563 0
7.145000 -0.235906 0
7.150000 -0.178063 0
7.155000 -0.126304 0
7.160000 -0.086221 0
7.165000 -0.058419 0
7.170000 -0.040491 0
7.175000 -0.029077 0
7.180000 -0.021207 0
7.185000 -0.014812 0
7.190000 -0.008662 0
7.195000 -0.002108 0
7.200000 0.005178 0
7.205000 0.013370 0
7.210000 0.022576 0
7.215000 0.032875 0
7.220000 0.044329 0
7.225000 0.056984 0
7.230000 0.070871 0
7.235000 0.085999 0
7.240000 0.102356 0
7.245000 0.119902 0
7.250000 0.138570 0
7.255000 0.158260 0
7.260000 0.178844 0
7.265000 0.200158 0
7.270000 0.222008 0
7.275000 0.244171 0
7.280000 0.266395 0
7.285000 0.288407 0
7.290000 0.309914 0
7.295000 0.330612 0
7.300000 0.350191 0
7.305000 0.368342 0
7.310000 0.384766 0
7.315000 0.399184 0
7.320000 0.411340 0
7.325000 0.421009 0
7.330000 0.428009 0
7.335000 0.432200 0
7.340000 0.433492 5
7.345000 0.431845 0
7.350000 0.427275 0
7.355000 0.419847 0
7.360000 0.409682 0
7.365000 0.396943 0
7.370000 0.381841 0
7.375000 0.364621 0
7.380000 0.345559 0
7.385000 0.324953 0
7.390000 0.303117 0
7.395000 0.280370 0
7.400000 0.257032 0
7.405000 0.233411 0
7.410000 0.209804 0
7.415000 0.186483 0
7.420000 0.163698 0
7.425000 0.141668 0
7.430000 0.120578 0
7.435000 0.100583 0
7.440000 0.081803 0
7.445000 0.064325 0
7.450000 0.048204 0
7.455000 0.033467 0
7.460000 0.020115 0
7.465000 0.008124 0
7.470000 -0.002548 0
7.475000 -0.011959 0
7.480000 -0.020180 0
7.485000 -0.027291 0
7.490000 -0.033379 0
7.495000 -0.038533 0
7.500000 -0.042844 0
7.505000 -0.046399 0
7.510000 -0.049285 0
7.515000 -0.051583 0
7.520000 -0.053370 0
7.525000 -0.054716 0
7.530000 -0.055684 0
7.535000 -0.056331 0
7.540000 -0.056710 0
7.545000 -0.056864 0
7.550000 -0.056832 0
7.555000 -0.056648 0
7.560000 -0.056340 0
7.565000 -0.055933 0
7.570000 -0.055446 0
7.575000 -0.054896 0
7.580000 -0.054297 0
7.585000 -0.053661 0
7.590000 -0.052995 0
7.595000 -0.052309 0
7.600000 -0.051559 0
7.605000 -0.050802 0
7.610000 -0.050049 0
7.615000 -0.049300 0
7.620000 -0.048554 0
7.625000 -0.047812 0
7.630000 -0.047074 0
7.635000 -0.046340 0
7.640000 -0.045609 0
7.645000 -0.044882 0
7.650000 -0.044158 0
7.655000 -0.043438 0
7.660000 -0.042722 0
7.665000 -0.042009 0
7.670000 -0.041300 0
7.675000 -0.040594 0
7.680000 -0.039892 0
7.685000 -0.039193 0
7.690000 -0.038498 0
7.695000 -0.037806 0
7.700000 -0.037118 0
7.705000 -0.036433 0
7.710000 -0.035752 0
7.715000 -0.035074 0
7.720000 -0.034399 0
7.725000 -0.033728 0
7.730000 -0.033059 0
7.735000 -0.032394 0
7.740000 -0.031732 0
7.745000 -0.031073 0
7.750000 -0.030416 0
7.755000 -0.029760 0
7.760000 -0.029104 0
7.765000 -0.028446 0
7.770000 -0.027784 0
7.775000 -0.027111 0
7.780000 -0.026420 0
7.785000 -0.025702 0
7.790000 -0.024939 0
7.795000 -0.024108 0
7.800000 -0.023179 0
7.805000 -0.022108 0
7.810000 -0.020836 0
7.815000 -0.019290 0
7.820000 -0.017373 0
7.825000 -0.014966 0
7.830000 -0.011926 0
7.835000 -0.008087 0
7.840000 -0.003260 0
7.845000 0.002761 0
7.850000 0.010185 0
7.855000 0.019221 0
7.860000 0.030051 0
7.865000 0.042818 0
7.870000 0.057601 0
7.875000 0.074393 0
7.880000 0.093082 0
7.885000 0.113434 0
7.890000 0.135084 0
7.895000 0.157536 0
7.900000 0.180176 0
7.905000 0.202292 0
7.910000 0.223108 0
7.915000 0.241828 0
7.920000 0.257686 0
7.925000 0.269994 0
7.930000 0.278195 0
7.935000 0.281900 1
7.940000 0.280921 0
7.945000 0.275285 0
7.950000 0.265233 0
7.955000 0.251200 0
7.960000 0.233786 0
7.965000 0.213713 0
7.970000 0.191774 0
7.975000 0.168778 0
7.980000 0.145509 0
7.985000 0.122675 0
7.990000 0.100880 0
7.995000 0.080596 0
8.000000 0.062144 0
8.005000 0.045663 0
8.010000 0.031061 0
8.015000 0.017905 0
8.020000 0.005277 0
8.025000 -0.008375 0
8.030000 -0.025209 0
8.035000 -0.047556 0
8.040000 -0.076920 0
8.045000 -0.112543 0
8.050000 -0.150069 0
8.055000 -0.181088 0
8.060000 -0.193976 2
8.065000 -0.175730 0
8.070000 -0.114072 0
8.075000 0.000463 0
8.080000 0.171705 0
8.085000 0.393513 0
8.090000 0.644965 0
8.095000 0.888810 0
8.100000 1.077443 0
8.105000 1.166893 3
8.110000 1.133086 0
8.115000 0.981781 0
8.120000 0.746495 0
8.125000 0.474739 0
8.130000 0.211899 0
8.135000 -0.009400 0
8.140000 -0.171855 0
8.145000 -0.270843 0
8.150000 -0.310864 4
8.155000 -0.303021 0
8.160000 -0.262792 0
8.165000 -0.207001 0
8.170000 -0.150208 0
8.175000 -0.101964 0
8.180000 -0.066101 0
8.185000 -0.041984 0
8.190000 -0.026668 0
8.195000 -0.016796 0
8.200000 -0.009665 0
8.205000 -0.003504 0
8.210000 0.002689 0
8.215000 0.009430 0
8.220000 0.016979 0
8.225000 0.025482 0
8.230000 0.035033 0
8.235000 0.045707 0
8.240000 0.057558 0
8.245000 0.070629 0
8.250000 0.084943 0
8.255000 0.100501 0
8.260000 0.117280 0
8.265000 0.135230 0
8.270000 0.154272 0
8.275000 0.174292 0
8.280000 0.195149 0
8.285000 0.216665 0
8.290000 0.238632 0
8.295000 0.260814 0
8.300000 0.282948 0
8.305000 0.304749 0
8.310000 0.325918 0
8.315000 0.346145 0
8.320000 0.365116 0
8.325000 0.382526 0
8.330000 0.398079 0
8.335000 0.411504 0
8.340000 0.422556 0
8.345000 0.431027 0
8.350000 0.436752 0
8.355000 0.439611 5
8.360000 0.439536 0
8.365000 0.436513 0
8.370000 0.430581 0
8.375000 0.421831 0
8.380000 0.410405 0
8.385000 0.396491 0
8.390000 0.380317 0
8.395000 0.362147 0
8.400000 0.342269 0
8.405000 0.320993 0
8.410000 0.298639 0
8.415000 0.275528 0
8.420000 0.251978 0
8.425000 0.228295 0
8.430000 0.204765 0
8.435000 0.181653 0
8.440000 0.159193 0
8.445000 0.137590 0
8.450000 0.117015 0
8.455000 0.097605 0
8.460000 0.079463 0
8.465000 0.062661 0
8.470000 0.047238 0
8.475000 0.033207 0
8.480000 0.020556 0
8.485000 0.009250 0
8.490000 -0.000762 0
8.495000 -0.009546 0
8.500000 -0.017180 0
8.505000 -0.023748 0
8.510000 -0.029338 0
8.515000 -0.034041 0
8.520000 -0.037949 0
8.525000 -0.041148 0
8.530000 -0.043722 0
8.535000 -0.045752 0
8.540000 -0.047309 0
8.545000 -0.048462 0
8.550000 -0.049270 0
8.555000 -0.049787 0
8.560000 -0.050061 0
8.565000 -0.050133 0
8.570000 -0.050040 0
8.575000 -0.049811 0
8.580000 -0.049474 0
8.585000 -0.049049 0
8.590000 -0.048554 0
8.595000 -0.048006 0
8.600000 -0.047415 0
8.605000 -0.046792 0
8.610000 -0.046144 0
8.615000 -0.045470 0
8.620000 -0.044743 0
8.625000 -0.044020 0
8.630000 -0.043301 0
8.635000 -0.042585 0
8.640000 -0.041873 0
8.645000 -0.041165 0
8.650000 -0.040460 0
8.655000 -0.039758 0
8.660000 -0.039060 0
8.665000 -0.038366 0
8.670000 -0.037674 0
8.675000 -0.036987 0
8.680000 -0.036303 0
8.685000 -0.035622 0
8.690000 -0.034945 0
8.695000 -0.034271 0
8.700000 -0.033600 0
8.705000 -0.032933 0
8.710000 -0.032269 0
8.715000 -0.031608 0
8.720000 -0.030951 0
8.725000 -0.030297 0
8.730000 -0.029646 0
8.735000 -0.028998 0
8.740000 -0.028354 0
8.745000 -0.027712 0
8.750000 -0.027074 0
8.755000 -0.026439 0
8.760000 -0.025806 0
8.765000 -0.025175 0
8.770000 -0.024546 0
8.775000 -0.023917 0
8.780000 -0.023287 0
8.785000 -0.022652 0
8.790000 -0.022009 0
8.795000 -0.021350 0
8.800000 -0.020666 0
8.805000 -0.019941 0
8.810000 -0.019154 0
8.815000 -0.018277 0
8.820000 -0.017268 0
8.825000 -0.016072 0
8.830000 -0.014618 0
8.835000 -0.012815 0
8.840000 -0.010548 0
8.845000 -0.007678 0
8.850000 -0.004041 0
8.855000 0.000547 0
8.860000 0.006290 0
8.865000 0.013401 0
8.870000 0.022090 0
8.875000 0.032548 0
8.880000 0.044928 0
8.885000 0.059322 0
8.890000 0.075741 0
8.895000 0.094092 0
8.900000 0.114161 0
8.905000 0.135605 0
8.910000 0.157945 0
8.915000 0.180580 0
8.920000 0.202808 0
8.925000 0.223854 0
8.930000 0.242918 0
8.935000 0.259220 0
8.940000 0.272052 0
8.945000 0.280833 0
8.950000 0.285144 1
8.955000 0.284769 0
8.960000 0.279705 0
8.965000 0.270167 0
8.970000 0.256570 0
8.975000 0.239502 0
8.980000 0.219677 0
8.985000 0.197886 0
8.990000 0.174948 0
8.995000 0.151654 0
9.000000 0.128728 0
9.005000 0.106790 0
9.010000 0.086329 0
9.015000 0.067683 0
9.020000 0.051012 0
9.025000 0.036244 0
9.030000 0.022979 0
9.035000 0.010336 0
9.040000 -0.003197 0
9.045000 -0.019755 0
9.050000 -0.041698 0
9.055000 -0.070638 0
9.060000 -0.105994 0
9.065000 -0.143618 0
9.070000 -0.175258 0
9.075000 -0.189340 2
9.080000 -0.172788 0
9.085000 -0.113163 0
9.090000 -0.000773 0
9.095000 0.168524 0
9.100000 0.388972 0
9.105000 0.640015 0
9.110000 0.884563 0
9.115000 1.074803 0
9.120000 1.166221 3
9.125000 1.137992 0
9.130000 0.996019 0
9.135000 0.769220 0
9.140000 0.500333 0
9.145000 0.232188 0
9.150000 -0.002361 0
9.155000 -0.183926 0
9.160000 -0.305103 0
9.165000 -0.367391 0
9.170000 -0.378772 4
9.175000 -0.351915 0
9.180000 -0.302024 0
9.185000 -0.243928 0
9.190000 -0.189228 0
9.195000 -0.144639 0
9.200000 -0.112094 0
9.205000 -0.090174 0
9.210000 -0.075945 0
9.215000 -0.066401 0
9.220000 -0.059200 0
9.225000 -0.052815 0
9.230000 -0.046370 0
9.235000 -0.039404 0
9.240000 -0.031675 0
9.245000 -0.023049 0
9.250000 -0.013434 0
9.255000 -0.002762 0
9.260000 0.009022 0
9.265000 0.021958 0
9.270000 0.036072 0
9.275000 0.051373 0
9.280000 0.067848 0
9.285000 0.085463 0
9.290000 0.104156 0
9.295000 0.123841 0
9.300000 0.144404 0
9.305000 0.165700 0
9.310000 0.187558 0
9.315000 0.209780 0
9.320000 0.232144 0
9.325000 0.254404 0
9.330000 0.276299 0
9.335000 0.297552 0
9.340000 0.317881 0
9.345000 0.337001 0
9.350000 0.354632 0
9.355000 0.370504 0
9.360000 0.384367 0
9.365000 0.395995 0
9.370000 0.405191 0
9.375000 0.411796 0
9.380000 0.415690 0
9.385000 0.416795 5
9.390000 0.415082 0
9.395000 0.410567 0
9.400000 0.403313 0
9.405000 0.393427 0
9.410000 0.381059 0
9.415000 0.366398 0
9.420000 0.349665 0
9.425000 0.331109 0
9.430000 0.311002 0
9.435000 0.289627 0
9.440000 0.267279 0
9.445000 0.244251 0
9.450000 0.220832 0
9.455000 0.197302 0
9.460000 0.173921 0
9.465000 0.150931 0
9.470000 0.128549 0
9.475000 0.106964 0
9.480000 0.086337 0
9.485000 0.066800 0
9.490000 0.048454 0
9.495000 0.031373 0
9.500000 0.015602 0
9.505000 0.001162 0
9.510000 -0.011949 0
9.515000 -0.023754 0
9.520000 -0.034293 0
9.525000 -0.043619 0
9.530000 -0.051797 0
9.535000 -0.058900 0
9.540000 -0.065008 0
9.545000 -0.070202 0
9.550000 -0.074565 0
9.555000 -0.078180 0
9.560000 -0.081127 0
9.565000 -0.083482 0
9.570000 -0.085318 0
9.575000 -0.086701 0
9.580000 -0.087693 0
9.585000 -0.088350 0
9.590000 -0.088723 0
9.595000 -0.088854 0
9.600000 -0.088785 0
9.605000 -0.088549 0
9.610000 -0.088174 0
9.615000 -0.087688 0
9.620000 -0.087110 0
9.625000 -0.086460 0
9.630000 -0.085751 0
9.635000 -0.084997 0
9.640000 -0.084208 0
9.645000 -0.083391 0
9.650000 -0.082555 0
9.655000 -0.081695 0
9.660000 -0.080788 0
9.665000 -0.079885 0
9.670000 -0.078987 0
9.675000 -0.078094 0
9.680000 -0.077204 0
9.685000 -0.076320 0
9.690000 -0.075439 0
9.695000 -0.074563 0
9.700000 -0.073692 0
9.705000 -0.072824 0
9.710000 -0.071961 0
9.715000 -0.071103 0
9.720000 -0.070249 0
9.725000 -0.069398 0
9.730000 -0.068553 0
9.735000 -0.067711 0
9.740000 -0.066874 0
9.745000 -0.066040 0
9.750000 -0.065211 0
9.755000 -0.064386 0
9.760000 -0.063565 0
9.765000 -0.062749 0
9.770000 -0.061936 0
9.775000 -0.061127 0
9.780000 -0.060323 0
9.785000 -0.059522 0
9.790000 -0.058725 0
9.795000 -0.057932 0
9.800000 -0.057143 0
9.805000 -0.056357 0
9.810000 -0.055574 0
9.815000 -0.054794 0
9.820000 -0.054015 0
9.825000 -0.053236 0
9.830000 -0.052455 0
9.835000 -0.051668 0
9.840000 -0.050870 0
9.845000 -0.050053 0
9.850000 -0.049206 0
9.855000 -0.048313 0
9.860000 -0.047351 0
9.865000 -0.046289 0
9.870000 -0.045086 0
9.875000 -0.043688 0
9.880000 -0.042025 0
9.885000 -0.040008 0
9.890000 -0.037529 0
9.895000 -0.034459 0
9.900000 -0.030646 0
9.905000 -0.025920 0
9.910000 -0.020096 0
9.915000 -0.012980 0
9.920000 -0.004378 0
9.925000 0.005885 0
9.930000 0.017957 0
9.935000 0.031936 0
9.940000 0.047852 0
9.945000 0.065653 0
9.950000 0.085181 0
9.955000 0.106172 0
9.960000 0.128241 0
9.965000 0.150893 0
9.970000 0.173532 0
9.975000 0.195483 0
9.980000 0.216027 0
9.985000 0.234432 0
9.990000 0.250002 0
9.995000 0.262116 0
10.000000 0.270269 0
10.005000 0.274109 1
10.010000 0.273460 0
10.015000 0.268335 0
10.020000 0.258936 0
10.025000 0.245641 0
10.030000 0.228977 0
10.035000 0.209588 0
10.040000 0.188188 0
10.045000 0.165526 0
10.050000 0.142333 0
10.055000 0.119294 0
10.060000 0.097007 0
10.065000 0.075968 0
10.070000 0.056544 0
10.075000 0.038960 0
10.080000 0.023269 0
10.085000 0.009285 0
10.090000 -0.003513 0
10.095000 -0.016121 0
10.100000 -0.030110 0
10.105000 -0.047546 0
10.110000 -0.070536 0
10.115000 -0.100313 0
10.120000 -0.135985 0
10.125000 -0.173436 0
10.130000 -0.204966 0
10.135000 -0.219989 2
10.140000 -0.206572 0
10.145000 -0.153220 0
10.150000 -0.050611 0
10.155000 0.106210 0
10.160000 0.314447 0
10.165000 0.559319 0
10.170000 0.811448 0
10.175000 1.029429 0
10.180000 1.169390 0
10.185000 1.198992 3
10.190000 1.102659 0
10.195000 0.899711 0
10.200000 0.636858 0
10.205000 0.365969 0
10.210000 0.128217 0
10.215000 -0.052326 0
10.220000 -0.167089 0
10.225000 -0.218799 4
10.230000 -0.218190 0
10.235000 -0.181436 0
10.240000 -0.126764 0
10.245000 -0.070249 0
10.250000 -0.022468 0
10.255000 0.012432 0
10.260000 0.035279 0
10.265000 0.049353 0
10.270000 0.058234 0
10.275000 0.064682 0
10.280000 0.070420 0
10.285000 0.076377 0
10.290000 0.083012 0
10.295000 0.090554 0
10.300000 0.099136 0
10.305000 0.108849 0
10.310000 0.119764 0
10.315000 0.131934 0
10.320000 0.145395 0
10.325000 0.160158 0
10.330000 0.176210 0
10.335000 0.193505 0
10.340000 0.211968 0
10.345000 0.231485 0
10.350000 0.251909 0
10.355000 0.273055 0
10.360000 0.294701 0
10.365000 0.316593 0
10.370000 0.338448 0
10.375000 0.359958 0
10.380000 0.380795 0
10.385000 0.400624 0
10.390000 0.419105 0
10.395000 0.435908 0
10.400000 0.450717 0
10.405000 0.463243 0
10.410000 0.473231 0
10.415000 0.480469 0
10.420000 0.484796 0
10.425000 0.486103 5
10.430000 0.484343 0
10.435000 0.479528 0
10.440000 0.471729 0
10.445000 0.461077 0
10.450000 0.447758 0
10.455000 0.432004 0
10.460000 0.414088 0
10.465000 0.394319 0
10.470000 0.373026 0
10.475000 0.350554 0
10.480000 0.327253 0
10.485000 0.303468 0
10.490000 0.279530 0
10.495000 0.255751 0
10.500000 0.232417 0
10.505000 0.209779 0
10.510000 0.188056 0
10.515000 0.167427 0
10.520000 0.148036 0
10.525000 0.129984 0
10.530000 0.113341 0
10.535000 0.098140 0
10.540000 0.084384 0
10.545000 0.072052 0
10.550000 0.061096 0
10.555000 0.051454 0
10.560000 0.043047 0
10.565000 0.035787 0
10.570000 0.029580 0
10.575000 0.024327 0
10.580000 0.019930 0
10.585000 0.016295 0
10.590000 0.013327 0
10.595000 0.010942 0
10.600000 0.009058 0
10.605000 0.007602 0
10.610000 0.006508 0
10.615000 0.005719 0
10.620000 0.005182 0
10.625000 0.004853 0
10.630000 0.004693 0
10.635000 0.004671 0
10.640000 0.004759 0
10.645000 0.004935 0
10.650000 0.005179 0
10.655000 0.005477 0
10.660000 0.005816 0
10.665000 0.006187 0
10.670000 0.006581 0
10.675000 0.007037 0
10.680000 0.007501 0
10.685000 0.007964 0
10.690000 0.008424 0
10.695000 0.008881 0
10.700000 0.009337 0
10.705000 0.009790 0
10.710000 0.010241 0
10.715000 0.010689 0
10.720000 0.011136 0
10.725000 0.011580 0
10.730000 0.012022 0
10.735000 0.012462 0
10.740000 0.012899 0
10.745000 0.013335 0
10.750000 0.013768 0
10.755000 0.014199 0
10.760000 0.014628 0
10.765000 0.015054 0
10.770000 0.015479 0
10.775000 0.015902 0
10.780000 0.016322 0
10.785000 0.016740 0
10.790000 0.017157 0
10.795000 0.017571 0
10.800000 0.017983 0
10.805000 0.018394 0
10.810000 0.018803 0
10.815000 0.019211 0
10.820000 0.019618 0
10.825000 0.020026 0
10.830000 0.020435 0
10.835000 0.020851 0
10.840000 0.021275 0
10.845000 0.021717 0
10.850000 0.022185 0
10.855000 0.022697 0
10.860000 0.023275 0
10.865000 0.023951 0
10.870000 0.024772 0
10.875000 0.025798 0
10.880000 0.027111 0
10.885000 0.028816 0
10.890000 0.031042 0
10.895000 0.033950 0
10.900000 0.037724 0
10.905000 0.042574 0
10.910000 0.048728 0
10.915000 0.056414 0
10.920000 0.065855 0
10.925000 0.077237 0
10.930000 0.090690 0
10.935000 0.106263 0
10.940000 0.123893 0
10.945000 0.143390 0
10.950000 0.164416 0
10.955000 0.186482 0
10.960000 0.208958 0
10.965000 0.231095 0
10.970000 0.252058 0
10.975000 0.270978 0
10.980000 0.287010 0
10.985000 0.299393 0
10.990000 0.307507 0
10.995000 0.310923 1
11.000000 0.309444 0
11.005000 0.303115 0
11.010000 0.292225 0
11.015000 0.277280 0
11.020000 0.258966 0
11.025000 0.238096 0
11.030000 0.215545 0
11.035000 0.192192 0
11.040000 0.168866 0
11.045000 0.146294 0
11.050000 0.125069 0
11.055000 0.105623 0
11.060000 0.088198 0
11.065000 0.072799 0
11.070000 0.059098 0
11.075000 0.046262 0
11.080000 0.032779 0
11.085000 0.016411 0
11.090000 -0.005401 0
11.095000 -0.034465 0
11.100000 -0.070159 0
11.105000 -0.107833 0
11.110000 -0.138229 0
11.115000 -0.148510 2
11.120000 -0.124474 0
11.125000 -0.053051 0
11.130000 0.075132 0
11.135000 0.262044 0
11.140000 0.496735 0
11.145000 0.750259 0
11.150000 0.976466 0
11.155000 1.123026 0
11.160000 1.150350 3
11.165000 1.052230 0
11.170000 0.851972 0
11.175000 0.591919 0
11.180000 0.319724 0
11.185000 0.074634 0
11.190000 -0.118809 0
11.195000 -0.250170 0
11.200000 -0.319663 0
11.205000 -0.335131 4
11.210000 -0.309902 0
11.215000 -0.260324 0
11.220000 -0.202412 0
11.225000 -0.148522 0
11.230000 -0.105500 0
11.235000 -0.074934 0
11.240000 -0.054929 0
11.245000 -0.042211 0
11.250000 -0.033661 0
11.255000 -0.026995 0
11.260000 -0.020810 0
11.265000 -0.014343 0
11.270000 -0.007209 0
11.275000 0.000792 0
11.280000 0.009781 0
11.285000 0.019841 0
11.290000 0.031037 0
11.295000 0.043420 0
11.300000 0.057024 0
11.305000 0.071866 0
11.310000 0.087938 0
11.315000 0.105209 0
11.320000 0.123620 0
11.325000 0.143081 0
11.330000 0.163472 0
11.335000 0.184641 0
11.340000 0.206403 0
11.345000 0.228544 0
11.350000 0.250823 0
11.355000 0.272973 0
11.360000 0.294709 0
11.365000 0.315730 0
11.370000 0.335729 0
11.375000 0.354398 0
11.380000 0.371437 0
11.385000 0.386560 0
11.390000 0.399504 0
11.395000 0.410037 0
11.400000 0.417961 0
11.405000 0.423125 0
11.410000 0.425420 5
11.415000 0.424793 0
11.420000 0.421238 0
11.425000 0.414807 0
11.430000 0.405599 0
11.435000 0.393764 0
11.440000 0.379495 0
11.445000 0.363026 0
11.450000 0.344619 0
11.455000 0.324566 0
11.460000 0.303174 0
11.465000 0.280758 0
11.470000 0.257638 0
11.475000 0.234125 0
11.480000 0.210520 0
11.485000 0.187102 0
11.490000 0.164129 0
11.495000 0.141830 0
11.500000 0.120403 0
11.505000 0.100013 0
11.510000 0.080792 0
11.515000 0.062840 0
11.520000 0.046223 0
11.525000 0.030979 0
11.530000 0.017119 0
11.535000 0.004628 0
11.540000 -0.006529 0
11.545000 -0.016403 0
11.550000 -0.025060 0
11.555000 -0.032578 0
11.560000 -0.039039 0
11.565000 -0.044531 0
11.570000 -0.049144 0
11.575000 -0.052968 0
11.580000 -0.056089 0
11.585000 -0.058589 0
11.590000 -0.060548 0
11.595000 -0.062038 0
11.600000 -0.063124 0
11.605000 -0.063867 0
11.610000 -0.064320 0
11.615000 -0.064530 0
11.620000 -0.064538 0
11.625000 -0.064381 0
11.630000 -0.064088 0
11.635000 -0.063685 0
11.640000 -0.063195 0
11.645000 -0.062635 0
11.650000 -0.062020 0
11.655000 -0.061363 0
11.660000 -0.060673 0
11.665000 -0.059959 0
11.670000 -0.059217 0
11.675000 -0.058422 0
11.680000 -0.057631 0
11.685000 -0.056844 0
11.690000 -0.056061 0
11.695000 -0.055281 0
11.700000 -0.054506 0
11.705000 -0.053734 0
11.710000 -0.052967 0
11.715000 -0.052203 0
11.720000 -0.051443 0
11.725000 -0.050686 0
11.730000 -0.049934 0
11.735000 -0.049185 0
11.740000 -0.048440 0
11.745000 -0.047699 0
11.750000 -0.046961 0
11.755000 -0.046227 0
11.760000 -0.045497 0
11.765000 -0.044770 0
11.770000 -0.044047 0
11.775000 -0.043328 0
11.780000 -0.042612 0
11.785000 -0.041900 0
11.790000 -0.041191 0
11.795000 -0.040486 0
11.800000 -0.039784 0
11.805000 -0.039086 0
11.810000 -0.038390 0
11.815000 -0.037698 0
11.820000 -0.037009 0
11.825000 -0.036321 0
11.830000 -0.035634 0
11.835000 -0.034947 0
11.840000 -0.034258 0
11.845000 -0.033561 0
11.850000 -0.032851 0
11.855000 -0.032121 0
11.860000 -0.031356 0
11.865000 -0.030538 0
11.870000 -0.029642 0
11.875000 -0.028632 0
11.880000 -0.027458 0
11.885000 -0.026056 0
11.890000 -0.024345 0
11.895000 -0.022220 0
11.900000 -0.019553 0
11.905000 -0.016193 0
11.910000 -0.011964 0
11.915000 -0.006673 0
11.920000 -0.000111 0
11.925000 0.007931 0
11.930000 0.017653 0
11.935000 0.029223 0
11.940000 0.042762 0
11.945000 0.058320 0
11.950000 0.075853 0
11.955000 0.095207 0
11.960000 0.116102 0
11.965000 0.138128 0
11.970000 0.160748 0
11.975000 0.183312 0
11.980000 0.205087 0
11.985000 0.225288 0
11.990000 0.243129 0
11.995000 0.257868 0
12.000000 0.268862 0
12.005000 0.275608 0
12.010000 0.277785 1
12.015000 0.275275 0
12.020000 0.268178 0
12.025000 0.256798 0
12.030000 0.241625 0
12.035000 0.223302 0
12.040000 0.202573 0
12.045000 0.180237 0
12.050000 0.157097 0
12.055000 0.133913 0
12.060000 0.111361 0
12.065000 0.090002 0
12.070000 0.070263 0
12.075000 0.052414 0
12.080000 0.036531 0
12.085000 0.022436 0
12.090000 0.009577 0
12.095000 -0.003132 0
12.100000 -0.017421 0
12.105000 -0.035550 0
12.110000 -0.059734 0
12.115000 -0.090999 0
12.120000 -0.127718 0
12.125000 -0.164458 0
12.130000 -0.191864 0
12.135000 -0.197808 2
12.140000 -0.169350 0
12.145000 -0.094797 0
12.150000 0.034143 0
12.155000 0.219225 0
12.160000 0.451048 0
12.165000 0.704676 0
12.170000 0.939631 0
12.175000 1.107936 0
12.180000 1.169254 3
12.185000 1.105118 0
12.190000 0.928623 0
12.195000 0.679042 0
12.200000 0.405639 0
12.205000 0.151819 0
12.210000 -0.053613 0
12.215000 -0.197150 0
12.220000 -0.277193 0
12.225000 -0.300622 4
12.230000 -0.280425 0
12.235000 -0.233198 0
12.240000 -0.175695 0
12.245000 -0.121204 0
12.250000 -0.077353 0
12.255000 -0.046169 0
12.260000 -0.025868 0
12.265000 -0.013107 0
12.270000 -0.004650 0
12.275000 0.001875 0
12.280000 0.007918 0
12.285000 0.014258 0
12.290000 0.021287 0
12.295000 0.029206 0
12.300000 0.038135 0
12.305000 0.048160 0
12.310000 0.059347 0
12.315000 0.071745 0
12.320000 0.085389 0
12.325000 0.100292 0
12.330000 0.116443 0
12.335000 0.133804 0
12.340000 0.152311 0
12.345000 0.171863 0
12.350000 0.192329 0
12.355000 0.213545 0
12.360000 0.235314 0
12.365000 0.257406 0
12.370000 0.279564 0
12.375000 0.301507 0
12.380000 0.322936 0
12.385000 0.343537 0
12.390000 0.362992 0
12.395000 0.380986 0
12.400000 0.397213 0
12.405000 0.411386 0
12.410000 0.423247 0
12.415000 0.432569 0
12.420000 0.439169 0
12.425000 0.442909 0
12.430000 0.443705 5
12.435000 0.441523 0
12.440000 0.436389 0
12.445000 0.428379 0
12.450000 0.417625 0
12.455000 0.404306 0
12.460000 0.388644 0
12.465000 0.370900 0
12.470000 0.351363 0
12.475000 0.330342 0
12.480000 0.308163 0
12.485000 0.285152 0
12.490000 0.261637 0
12.495000 0.237929 0
12.500000 0.214326 0
12.505000 0.191101 0
12.510000 0.168497 0
12.515000 0.146729 0
12.520000 0.125976 0
12.525000 0.106381 0
12.530000 0.088055 0
12.535000 0.071073 0
12.540000 0.055481 0
12.545000 0.041293 0
12.550000 0.028499 0
12.555000 0.017065 0
12.560000 0.006941 0
12.565000 -0.001940 0
12.570000 -0.009657 0
12.575000 -0.016294 0
12.580000 -0.021943 0
12.585000 -0.026695 0
12.590000 -0.030642 0
12.595000 -0.033875 0
12.600000 -0.036478 0
12.605000 -0.038532 0
12.610000 -0.040112 0
12.615000 -0.041285 0
12.620000 -0.042113 0
12.625000 -0.042650 0
12.630000 -0.042944 0
12.635000 -0.043038 0
12.640000 -0.042967 0
12.645000 -0.042762 0
12.650000 -0.042449 0
12.655000 -0.042050 0
12.660000 -0.041583 0
12.665000 -0.041062 0
12.670000 -0.040500 0
12.675000 -0.039907 0
12.680000 -0.039290 0
12.685000 -0.038647 0
12.690000 -0.037954 0
12.695000 -0.037265 0
12.700000 -0.036580 0
12.705000 -0.035898 0
12.710000 -0.035219 0
12.715000 -0.034544 0
12.720000 -0.033872 0
12.725000 -0.033203 0
12.730000 -0.032538 0
12.735000 -0.031876 0
12.740000 -0.031217 0
12.745000 -0.030562 0
12.750000 -0.029909 0
12.755000 -0.029261 0
12.760000 -0.028615 0
12.765000 -0.027972 0
12.770000 -0.027333 0
12.775000 -0.026697 0
12.780000 -0.026064 0
12.785000 -0.025435 0
12.790000 -0.024808 0
12.795000 -0.024185 0
12.800000 -0.023564 0
12.805000 -0.022947 0
12.810000 -0.022333 0
12.815000 -0.021721 0
12.820000 -0.021113 0
12.825000 -0.020507 0
12.830000 -0.019903 0
12.835000 -0.019301 0
12.840000 -0.018701 0
12.845000 -0.018099 0
12.850000 -0.017495 0
12.855000 -0.016884 0
12.860000 -0.016261 0
12.865000 -0.015618 0
12.870000 -0.014941 0
12.875000 -0.014214 0
12.880000 -0.013410 0
12.885000 -0.012493 0
12.890000 -0.011415 0
12.895000 -0.010110 0
12.900000 -0.008495 0
12.905000 -0.006464 0
12.910000 -0.003885 0
12.915000 -0.000602 0
12.920000 0.003565 0
12.925000 0.008817 0
12.930000 0.015368 0
12.935000 0.023436 0
12.940000 0.033223 0
12.945000 0.044902 0
12.950000 0.058592 0
12.955000 0.074332 0
12.960000 0.092066 0
12.965000 0.111616 0
12.970000 0.132674 0
12.975000 0.154794 0
12.980000 0.177397 0
12.985000 0.199794 0
12.990000 0.221213 0
12.995000 0.240841 0
13.000000 0.257871 0
13.005000 0.271563 0
13.010000 0.281287 0
13.015000 0.286578 0
13.020000 0.287167 1
13.025000 0.283007 0
13.030000 0.274274 0
13.035000 0.261353 0
13.040000 0.244815 0
13.045000 0.225368 0
13.050000 0.203809 0
13.055000 0.180970 0
13.060000 0.157666 0
13.065000 0.134644 0
13.070000 0.112550 0
13.075000 0.091899 0
13.080000 0.073053 0
13.085000 0.056192 0
13.090000 0.041267 0
13.095000 0.027902 0
13.100000 0.015235 0
13.105000 0.001768 0
13.110000 -0.014649 0
13.115000 -0.036424 0
13.120000 -0.065238 0
13.125000 -0.100559 0
13.130000 -0.138205 0
13.135000 -0.169784 0
13.140000 -0.183488 2
13.145000 -0.165999 0
13.150000 -0.104689 0
13.155000 0.010167 0
13.160000 0.182439 0
13.165000 0.405566 0
13.170000 0.657539 0
13.175000 0.899496 0
13.180000 1.082417 0
13.185000 1.162170 3
13.190000 1.118799 0
13.195000 0.961435 0
13.200000 0.723694 0
13.205000 0.451687 0
13.210000 0.189043 0
13.215000 -0.032835 0
13.220000 -0.197094 0
13.225000 -0.298970 0
13.230000 -0.342459 4
13.235000 -0.337919 0
13.240000 -0.300041 0
13.245000 -0.245096 0
13.250000 -0.187577 0
13.255000 -0.137458 0
13.260000 -0.099249 0
13.265000 -0.072935 0
13.270000 -0.055931 0
13.275000 -0.044963 0
13.280000 -0.037231 0
13.285000 -0.030811 0
13.290000 -0.024569 0
13.295000 -0.017901 0
13.300000 -0.010503 0
13.305000 -0.002208 0
13.310000 0.007087 0
13.315000 0.017458 0
13.320000 0.028966 0
13.325000 0.041655 0
13.330000 0.055557 0
13.335000 0.070680 0
13.340000 0.087014 0
13.345000 0.104523 0
13.350000 0.123144 0
13.355000 0.142784 0
13.360000 0.163320 0
13.365000 0.184599 0
13.370000 0.206436 0
13.375000 0.228619 0
13.380000 0.250909 0
13.385000 0.273043 0
13.390000 0.294741 0
13.395000 0.315708 0
13.400000 0.335645 0
13.405000 0.354251 0
13.410000 0.371233 0
13.415000 0.386312 0
13.420000 0.399233 0
13.425000 0.409769 0
13.430000 0.417728 0
13.435000 0.422959 0
13.440000 0.425359 5
13.445000 0.424870 0
13.450000 0.421489 0
13.455000 0.415259 0
13.460000 0.406276 0
13.465000 0.394682 0
13.470000 0.380663 0
13.475000 0.364441 0
13.480000 0.346273 0
13.485000 0.326439 0
13.490000 0.305236 0
13.495000 0.282974 0
13.500000 0.259964 0
13.505000 0.236512 0
13.510000 0.212913 0
13.515000 0.189446 0
13.520000 0.166367 0
13.525000 0.143907 0
13.530000 0.122265 0
13.535000 0.101611 0
13.540000 0.082082 0
13.545000 0.063785 0
13.550000 0.046792 0
13.555000 0.031150 0
13.560000 0.016875 0
13.565000 0.003961 0
13.570000 -0.007620 0
13.575000 -0.017914 0
13.580000 -0.026980 0
13.585000 -0.034890 0
13.590000 -0.041723 0
13.595000 -0.047565 0
13.600000 -0.052502 0
13.605000 -0.056622 0
13.610000 -0.060010 0
13.615000 -0.062751 0
13.620000 -0.064921 0
13.625000 -0.066596 0
13.630000 -0.067842 0
13.635000 -0.068720 0
13.640000 -0.069287 0
13.645000 -0.069591 0
13.650000 -0.069675 0
13.655000 -0.069577 0
13.660000 -0.069330 0
13.665000 -0.068961 0
13.670000 -0.068493 0
13.675000 -0.067947 0
13.680000 -0.067338 0
13.685000 -0.066681 0
13.690000 -0.065986 0
13.695000 -0.065262 0
13.700000 -0.064517 0
13.705000 -0.063747 0
13.710000 -0.062929 0
13.715000 -0.062115 0
13.720000 -0.061306 0
13.725000 -0.060500 0
13.730000 -0.059699 0
13.735000 -0.058901 0
13.740000 -0.058108 0
13.745000 -0.057318 0
13.750000 -0.056533 0
13.755000 -0.055751 0
13.760000 -0.054973 0
13.765000 -0.054200 0
13.770000 -0.053430 0
13.775000 -0.052663 0
13.780000 -0.051901 0
13.785000 -0.051142 0
13.790000 -0.050388 0
13.795000 -0.049637 0
13.800000 -0.048889 0
13.805000 -0.048146 0
13.810000 -0.047406 0
13.815000 -0.046670 0
13.820000 -0.045937 0
13.825000 -0.045208 0
13.830000 -0.044483 0
13.835000 -0.043761 0
13.840000 -0.043043 0
13.845000 -0.042328 0
13.850000 -0.041616 0
13.855000 -0.040907 0
13.860000 -0.040200 0
13.865000 -0.039494 0
13.870000 -0.038788 0
13.875000 -0.038080 0
13.880000 -0.037365 0
13.885000 -0.036638 0
13.890000 -0.035891 0
13.895000 -0.035112 0
13.900000 -0.034283 0
13.905000 -0.033380 0
13.910000 -0.032369 0
13.915000 -0.031205 0
13.920000 -0.029827 0
13.925000 -0.028158 0
13.930000 -0.026099 0
13.935000 -0.023531 0
13.940000 -0.020310 0
13.945000 -0.016268 0
13.950000 -0.011221 0
13.955000 -0.004968 0
13.960000 0.002698 0
13.965000 0.011974 0
13.970000 0.023035 0
13.975000 0.036015 0
13.980000 0.050983 0
13.985000 0.067927 0
13.990000 0.086730 0
13.995000 0.107159 0
14.000000 0.128858 0
14.005000 0.151342 0
14.010000 0.174014 0
14.015000 0.196185 0
14.020000 0.217100 0
14.025000 0.235989 0
14.030000 0.252102 0
14.035000 0.264765 0
14.040000 0.273424 0
14.045000 0.277684 1
14.050000 0.277338 0
14.055000 0.272387 0
14.060000 0.263033 0
14.065000 0.249673 0
14.070000 0.232865 0
14.075000 0.213291 0
14.080000 0.191711 0
14.085000 0.168913 0
14.090000 0.145669 0
14.095000 0.122688 0
14.100000 0.100584 0
14.105000 0.079855 0
14.110000 0.060855 0
14.115000 0.043779 0
14.120000 0.028616 0
14.125000 0.015072 0
14.130000 0.002436 0
14.135000 -0.010567 0
14.140000 -0.025832 0
14.145000 -0.045646 0
14.150000 -0.071951 0
14.155000 -0.105118 0
14.160000 -0.142555 0
14.165000 -0.177835 0
14.170000 -0.200931 2
14.175000 -0.199591 0
14.180000 -0.161289 0
14.185000 -0.075172 0
14.190000 0.065763 0
14.195000 0.261359 0
14.200000 0.499694 0
14.205000 0.753358 0
14.210000 0.980689 0
14.215000 1.134874 0
14.220000 1.179054 3
14.225000 1.101602 0
14.230000 0.918777 0
14.235000 0.667913 0
14.240000 0.394449 0
14.245000 0.138528 0
14.250000 -0.072515 0
14.255000 -0.225015 0
14.260000 -0.316202 0
14.265000 -0.351181 4
14.270000 -0.340817 0
14.275000 -0.299781 0
14.280000 -0.243835 0
14.285000 -0.186656 0
14.290000 -0.137408 0
14.295000 -0.100038 0
14.300000 -0.074289 0
14.305000 -0.057568 0
14.310000 -0.046696 0
14.315000 -0.038974 0
14.320000 -0.032542 0
14.325000 -0.026297 0
14.330000 -0.019645 0
14.335000 -0.012283 0
14.340000 -0.004046 0
14.345000 0.005168 0
14.350000 0.015436 0
14.355000 0.026816 0
14.360000 0.039355 0
14.365000 0.053084 0
14.370000 0.068014 0
14.375000 0.084140 0
14.380000 0.101431 0
14.385000 0.119829 0
14.390000 0.139251 0
14.395000 0.159584 0
14.400000 0.180687 0
14.405000 0.202388 0
14.410000 0.224487 0
14.415000 0.246760 0
14.420000 0.268958 0
14.425000 0.290815 0
14.430000 0.312047 0
14.435000 0.332366 0
14.440000 0.351480 0
14.445000 0.369100 0
14.450000 0.384951 0
14.455000 0.398775 0
14.460000 0.410339 0
14.465000 0.419442 0
14.470000 0.425921 0
14.475000 0.429652 0
14.480000 0.430560 5
14.485000 0.428614 0
14.490000 0.423834 0
14.495000 0.416288 0
14.500000 0.406089 0
14.505000 0.393395 0
14.510000 0.378404 0
14.515000 0.361344 0
14.520000 0.342475 0
14.525000 0.322078 0
14.530000 0.300444 0
14.535000 0.277877 0
14.540000 0.254676 0
14.545000 0.231136 0
14.550000 0.207540 0
14.555000 0.184151 0
14.560000 0.161211 0
14.565000 0.138936 0
14.570000 0.117513 0
14.575000 0.097099 0
14.580000 0.077819 0
14.585000 0.059771 0
14.590000 0.043019 0
14.595000 0.027602 0
14.600000 0.013535 0
14.605000 0.000805 0
14.610000 -0.010614 0
14.615000 -0.020771 0
14.620000 -0.029725 0
14.625000 -0.037545 0
14.630000 -0.044309 0
14.635000 -0.050100 0
14.640000 -0.055003 0
14.645000 -0.059102 0
14.650000 -0.062481 0
14.655000 -0.065221 0
14.660000 -0.067398 0
14.665000 -0.069082 0
14.670000 -0.070341 0
14.675000 -0.071234 0
14.680000 -0.071815 0
14.685000 -0.072133 0
14.690000 -0.072230 0
14.695000 -0.072142 0
14.700000 -0.071904 0
14.705000 -0.071541 0
14.710000 -0.071078 0
14.715000 -0.070533 0
14.720000 -0.069925 0
14.725000 -0.069265 0
14.730000 -0.068567 0
14.735000 -0.067838 0
14.740000 -0.067086 0
14.745000 -0.066307 0
14.750000 -0.065477 0
14.755000 -0.064651 0
14.760000 -0.063828 0
14.765000 -0.063010 0
14.770000 -0.062196 0
14.775000 -0.061386 0
14.780000 -0.060581 0
14.785000 -0.059779 0
14.790000 -0.058981 0
14.795000 -0.058187 0
14.800000 -0.057397 0
14.805000 -0.056611 0
14.810000 -0.055829 0
14.815000 -0.055051 0
14.820000 -0.054277 0
14.825000 -0.053506 0
14.830000 -0.052740 0
14.835000 -0.051977 0
14.840000 -0.051218 0
14.845000 -0.050463 0
14.850000 -0.049711 0
14.855000 -0.048964 0
14.860000 -0.048220 0
14.865000 -0.047480 0
14.870000 -0.046743 0
14.875000 -0.046010 0
14.880000 -0.045281 0
14.885000 -0.044555 0
14.890000 -0.043832 0
14.895000 -0.043113 0
14.900000 -0.042396 0
14.905000 -0.041681 0
14.910000 -0.040967 0
14.915000 -0.040253 0
14.920000 -0.039535 0
14.925000 -0.038811 0
14.930000 -0.038074 0
14.935000 -0.037316 0
14.940000 -0.036524 0
14.945000 -0.035682 0
14.950000 -0.034763 0
14.955000 -0.033736 0
14.960000 -0.032554 0
14.965000 -0.031158 0
14.970000 -0.029473 0
14.975000 -0.027401 0
14.980000 -0.024828 0
14.985000 -0.021613 0
14.990000 -0.017595 0
14.995000 -0.012595 0
15.000000 -0.006418 0
15.005000 0.001136 0
15.010000 0.010259 0
15.015000 0.021124 0
15.020000 0.033865 0
15.025000 0.048559 0
15.030000 0.065206 0
15.035000 0.083708 0
15.040000 0.103860 0
15.045000 0.125338 0
15.050000 0.147696 0
15.055000 0.170376 0
15.060000 0.192728 0
15.065000 0.214032 0
15.070000 0.233541 0
15.075000 0.250516 0
15.080000 0.264279 0
15.085000 0.274252 0
15.090000 0.279999 0
15.095000 0.281258 1
15.100000 0.277955 0
15.105000 0.270220 0
15.110000 0.258367 0
15.115000 0.242881 0
15.120000 0.224379 0
15.125000 0.203573 0
15.130000 0.181222 0
15.135000 0.158087 0
15.140000 0.134888 0
15.145000 0.112271 0
15.150000 0.090777 0
15.155000 0.070823 0
15.160000 0.052685 0
15.165000 0.036467 0
15.170000 0.022050 0
15.175000 0.008997 0
15.180000 -0.003588 0
15.185000 -0.017185 0
15.190000 -0.033826 0
15.195000 -0.055721 0
15.200000 -0.084382 0
15.205000 -0.119354 0
15.210000 -0.156991 0
15.215000 -0.189918 0
15.220000 -0.207605 2
15.225000 -0.197896 0
15.230000 -0.148879 0
15.235000 -0.050705 0
15.240000 0.102185 0
15.245000 0.307621 0
15.250000 0.551279 0
15.255000 0.803747 0
15.260000 1.022914 0
15.265000 1.163768 0
15.270000 1.193021 3
15.275000 1.096110 0
15.280000 0.892985 0
15.285000 0.630165 0
15.290000 0.359261 0
15.295000 0.121282 0
15.300000 -0.059732 0
15.305000 -0.175151 0
15.310000 -0.227590 0
15.315000 -0.227644 4
15.320000 -0.191341 0
15.325000 -0.136817 0
15.330000 -0.080152 0
15.335000 -0.032020 0
15.340000 0.003298 0
15.345000 0.026519 0
15.350000 0.040869 0
15.355000 0.049924 0
15.360000 0.056468 0
15.365000 0.062252 0
15.370000 0.068227 0
15.375000 0.074863 0
15.380000 0.082395 0
15.385000 0.090959 0
15.390000 0.100647 0
15.395000 0.111529 0
15.400000 0.123661 0
15.405000 0.137079 0
15.410000 0.151794 0
15.415000 0.167796 0
15.420000 0.185043 0
15.425000 0.203460 0
15.430000 0.222938 0
15.435000 0.243333 0
15.440000 0.264462 0
15.445000 0.286110 0
15.450000 0.308026 0
15.455000 0.329929 0
15.460000 0.351516 0
15.465000 0.372462 0
15.470000 0.392434 0
15.475000 0.411095 0
15.480000 0.428113 0
15.485000 0.443174 0
15.490000 0.455985 0
15.495000 0.466291 0
15.500000 0.473874 0
15.505000 0.478569 0
15.510000 0.480261 5
15.515000 0.478896 0
15.520000 0.474479 0
15.525000 0.467075 0
15.530000 0.456805 0
15.535000 0.443848 0
15.540000 0.428430 0
15.545000 0.410817 0
15.550000 0.391312 0
15.555000 0.370241 0
15.560000 0.347945 0
15.565000 0.324772 0
15.570000 0.301067 0
15.575000 0.277161 0
15.580000 0.253369 0
15.585000 0.229978 0
15.590000 0.207245 0
15.595000 0.185393 0
15.600000 0.164605 0
15.605000 0.145031 0
15.610000 0.126779 0
15.615000 0.109923 0
15.620000 0.094501 0
15.625000 0.080523 0
15.630000 0.067970 0
15.635000 0.056801 0
15.640000 0.046954 0
15.645000 0.038354 0
15.650000 0.030915 0
15.655000 0.024544 0
15.660000 0.019144 0
15.665000 0.014618 0
15.670000 0.010868 0
15.675000 0.007804 0
15.680000 0.005336 0
15.685000 0.003385 0
15.690000 0.001875 0
15.695000 0.000740 0
15.700000 -0.000081 0
15.705000 -0.000639 0
15.710000 -0.000981 0
15.715000 -0.001146 0
15.720000 -0.001167 0
15.725000 -0.001072 0
15.730000 -0.000886 0
15.735000 -0.000628 0
15.740000 -0.000313 0
15.745000 0.000046 0
15.750000 0.000438 0
15.755000 0.000855 0
15.760000 0.001299 0
15.765000 0.001792 0
15.770000 0.002283 0
15.775000 0.002772 0
15.780000 0.003257 0
15.785000 0.003741 0
15.790000 0.004222 0
15.795000 0.004701 0
15.800000 0.005177 0
15.805000 0.005651 0
15.810000 0.006122 0
15.815000 0.006591 0
15.820000 0.007058 0
15.825000 0.007523 0
15.830000 0.007985 0
15.835000 0.008445 0
15.840000 0.008902 0
15.845000 0.009358 0
15.850000 0.009811 0
15.855000 0.010262 0
15.860000 0.010710 0
15.865000 0.011156 0
15.870000 0.011601 0
15.875000 0.012042 0
15.880000 0.012482 0
15.885000 0.012920 0
15.890000 0.013356 0
15.895000 0.013790 0
15.900000 0.014222 0
15.905000 0.014654 0
15.910000 0.015085 0
15.915000 0.015518 0
15.920000 0.015955 0
15.925000 0.016399 0
15.930000 0.016858 0
15.935000 0.017339 0
15.940000 0.017858 0
15.945000 0.018433 0
15.950000 0.019094 0
15.955000 0.019882 0
15.960000 0.020851 0
15.965000 0.022075 0
15.970000 0.023650 0
15.975000 0.025696 0
15.980000 0.028361 0
15.985000 0.031820 0
15.990000 0.036274 0
15.995000 0.041944 0
16.000000 0.049058 0
16.005000 0.057843 0
16.010000 0.068498 0
16.015000 0.081179 0
16.020000 0.095968 0
16.025000 0.112846 0
16.030000 0.131675 0
16.035000 0.152177 0
16.040000 0.173923 0
16.045000 0.196341 0
16.050000 0.218727 0
16.055000 0.240279 0
16.060000 0.260141 0
16.065000 0.277454 0
16.070000 0.291420 0
16.075000 0.301359 0
16.080000 0.306763 0
16.085000 0.307335 1
16.090000 0.303021 0
16.095000 0.294009 0
16.100000 0.280716 0
16.105000 0.263755 0
16.110000 0.243888 0
16.115000 0.221966 0
16.120000 0.198871 0
16.125000 0.175455 0
16.130000 0.152489 0
16.135000 0.130626 0
16.140000 0.110369 0
16.145000 0.092047 0
16.150000 0.075778 0
16.155000 0.061399 0
16.160000 0.048333 0
16.165000 0.035401 0
16.170000 0.020688 0
16.175000 0.001706 0
16.180000 -0.023869 0
16.185000 -0.056761 0
16.190000 -0.094366 0
16.195000 -0.129593 0
16.200000 -0.151125 2
16.205000 -0.145161 0
16.210000 -0.097860 0
16.215000 0.002220 0
16.220000 0.161167 0
16.225000 0.375064 0
16.230000 0.624229 0
16.235000 0.870421 0
16.240000 1.062568 0
16.245000 1.152495 3
16.250000 1.118228 0
16.255000 0.967585 0
16.260000 0.733323 0
16.265000 0.461961 0
16.270000 0.198227 0
16.275000 -0.025366 0
16.280000 -0.191214 0
16.285000 -0.294199 0
16.290000 -0.338239 4
16.295000 -0.333801 0
16.300000 -0.295795 0
16.305000 -0.240748 0
16.310000 -0.183326 0
16.315000 -0.133543 0
16.320000 -0.095823 0
16.325000 -0.070015 0
16.330000 -0.053428 0
16.335000 -0.042741 0
16.340000 -0.035160 0
16.345000 -0.028793 0
16.350000 -0.022539 0
16.355000 -0.015820 0
16.360000 -0.008342 0
16.365000 0.000052 0
16.370000 0.009464 0
16.375000 0.019970 0
16.380000 0.031628 0
16.385000 0.044483 0
16.390000 0.058564 0
16.395000 0.073876 0
16.400000 0.090405 0
16.405000 0.108111 0
16.410000 0.126923 0
16.415000 0.146742 0
16.420000 0.167439 0
16.425000 0.188849 0
16.430000 0.210781 0
16.435000 0.233012 0
16.440000 0.255293 0
16.445000 0.277354 0
16.450000 0.298905 0
16.455000 0.319646 0
16.460000 0.339270 0
16.465000 0.357474 0
16.470000 0.373963 0
16.475000 0.388460 0
16.480000 0.400713 0
16.485000 0.410499 0
16.490000 0.417638 0
16.495000 0.421990 0
16.500000 0.423464 5
16.505000 0.422020 0
16.510000 0.417668 0
16.515000 0.410473 0
16.520000 0.400549 0
16.525000 0.388054 0
16.530000 0.373194 0
16.535000 0.356206 0
16.540000 0.337362 0
16.545000 0.316955 0
16.550000 0.295291 0
16.555000 0.272687 0
16.560000 0.249457 0
16.565000 0.225909 0
16.570000 0.202336 0
16.575000 0.179013 0
16.580000 0.156187 0
16.585000 0.134079 0
16.590000 0.112880 0
16.595000 0.092744 0
16.600000 0.073798 0
16.605000 0.056132 0
16.610000 0.039807 0
16.615000 0.024853 0
16.620000 0.011278 0
16.625000 -0.000939 0
16.630000 -0.011835 0
16.635000 -0.021464 0
16.640000 -0.029894 0
16.645000 -0.037203 0
16.650000 -0.043474 0
16.655000 -0.048795 0
16.660000 -0.053256 0
16.665000 -0.056944 0
16.670000 -0.059945 0
16.675000 -0.062341 0
16.680000 -0.064208 0
16.685000 -0.065618 0
16.690000 -0.066635 0
16.695000 -0.067319 0
16.700000 -0.067720 0
16.705000 -0.067885 0
16.710000 -0.067854 0
16.715000 -0.067661 0
16.720000 -0.067338 0
16.725000 -0.066908 0
16.730000 -0.066392 0
16.735000 -0.065810 0
16.740000 -0.065174 0
16.745000 -0.064497 0
16.750000 -0.063789 0
16.755000 -0.063057 0
16.760000 -0.062298 0
16.765000 -0.061487 0
16.770000 -0.060681 0
16.775000 -0.059879 0
16.780000 -0.059080 0
16.785000 -0.058286 0
16.790000 -0.057496 0
16.795000 -0.056709 0
16.800000 -0.055927 0
16.805000 -0.055148 0
16.810000 -0.054373 0
16.815000 -0.053602 0
16.820000 -0.052835 0
16.825000 -0.052072 0
16.830000 -0.051313 0
16.835000 -0.050557 0
16.840000 -0.049805 0
16.845000 -0.049057 0
16.850000 -0.048313 0
16.855000 -0.047572 0
16.860000 -0.046835 0
16.865000 -0.046102 0
16.870000 -0.045372 0
16.875000 -0.044646 0
16.880000 -0.043924 0
16.885000 -0.043205 0
16.890000 -0.042489 0
16.895000 -0.041777 0
16.900000 -0.041069 0
16.905000 -0.040363 0
16.910000 -0.039660 0
16.915000 -0.038960 0
16.920000 -0.038260 0
16.925000 -0.037560 0
16.930000 -0.036857 0
16.935000 -0.036148 0
16.940000 -0.035427 0
16.945000 -0.034685 0
16.950000 -0.033910 0
16.955000 -0.033084 0
16.960000 -0.032181 0
16.965000 -0.031167 0
16.970000 -0.029995 0
16.975000 -0.028602 0
16.980000 -0.026907 0
16.985000 -0.024808 0
16.990000 -0.022183 0
16.995000 -0.018881 0
17.000000 -0.014731 0
17.005000 -0.009542 0
17.010000 -0.003109 0
17.015000 0.004777 0
17.020000 0.014316 0
17.025000 0.025679 0
17.030000 0.038993 0
17.035000 0.054316 0
17.040000 0.071617 0
17.045000 0.090758 0
17.050000 0.111478 0
17.055000 0.133387 0
17.060000 0.155968 0
17.065000 0.178592 0
17.070000 0.200540 0
17.075000 0.221038 0
17.080000 0.239304 0
17.085000 0.254590 0
17.090000 0.266240 0
17.095000 0.273729 0
17.100000 0.276707 1
17.105000 0.275021 0
17.110000 0.268731 0
17.115000 0.258106 0
17.120000 0.243600 0
17.125000 0.225826 0
17.130000 0.205508 0
17.135000 0.183431 0
17.140000 0.160397 0
17.145000 0.137171 0
17.150000 0.114443 0
17.155000 0.092798 0
17.160000 0.072688 0
17.165000 0.054417 0
17.170000 0.038107 0
17.175000 0.023647 0
17.180000 0.010585 0
17.185000 -0.002017 0
17.190000 -0.015726 0
17.195000 -0.032689 0
17.200000 -0.055201 0
17.205000 -0.084702 0
17.210000 -0.120374 0
17.215000 -0.157849 0
17.220000 -0.188786 0
17.225000 -0.201700 2
17.230000 -0.183760 0
17.235000 -0.122829 0
17.240000 -0.009504 0
17.245000 0.160164 0
17.250000 0.380476 0
17.255000 0.631360 0
17.260000 0.876669 0
17.265000 1.069629 0
17.270000 1.166185 3
17.275000 1.138568 0
17.280000 0.990347 0
17.285000 0.755649 0
17.290000 0.483774 0
17.295000 0.221795 0
17.300000 0.003155 0
17.305000 -0.154889 0
17.310000 -0.248295 0
17.315000 -0.282458 4
17.320000 -0.269548 0
17.325000 -0.226045 0
17.330000 -0.169317 0
17.335000 -0.113757 0
17.340000 -0.068142 0
17.345000 -0.035316 0
17.350000 -0.013864 0
17.355000 -0.000465 0
17.360000 0.008253 0
17.365000 0.014820 0
17.370000 0.020799 0
17.375000 0.027035 0
17.380000 0.033947 0
17.385000 0.041751 0
17.390000 0.050573 0
17.395000 0.060499 0
17.400000 0.071599 0
17.405000 0.083925 0
17.410000 0.097510 0
17.415000 0.112369 0
17.420000 0.128490 0
17.425000 0.145834 0
17.430000 0.164333 0
17.435000 0.183885 0
17.440000 0.204353 0
17.445000 0.225567 0
17.450000 0.247323 0
17.455000 0.269384 0
17.460000 0.291485 0
17.465000 0.313336 0
17.470000 0.334629 0
17.475000 0.355043 0
17.480000 0.374253 0
17.485000 0.391937 0
17.490000 0.407787 0
17.495000 0.421512 0
17.500000 0.432854 0
17.505000 0.441590 0
17.510000 0.447541 0
17.515000 0.450579 0
17.520000 0.450628 5
17.525000 0.447669 0
17.530000 0.441740 0
17.535000 0.432935 0
17.540000 0.421401 0
17.545000 0.407334 0
17.550000 0.390974 0
17.555000 0.372595 0
17.560000 0.352501 0
17.565000 0.331015 0
17.570000 0.308469 0
17.575000 0.285199 0
17.580000 0.261534 0
17.585000 0.237789 0
17.590000 0.214257 0
17.595000 0.191207 0
17.600000 0.168876 0
17.605000 0.147469 0
17.610000 0.127152 0
17.615000 0.108059 0
17.620000 0.090287 0
17.625000 0.073897 0
17.630000 0.058921 0
17.635000 0.045362 0
17.640000 0.033198 0
17.645000 0.022385 0
17.650000 0.012861 0
17.655000 0.004554 0
17.660000 -0.002621 0
17.665000 -0.008756 0
17.670000 -0.013943 0
17.675000 -0.018276 0
17.680000 -0.021849 0
17.685000 -0.024751 0
17.690000 -0.027066 0
17.695000 -0.028873 0
17.700000 -0.030244 0
17.705000 -0.031243 0
17.710000 -0.031929 0
17.715000 -0.032354 0
17.720000 -0.032562 0
17.725000 -0.032593 0
17.730000 -0.032478 0
17.735000 -0.032246 0
17.740000 -0.031921 0
17.745000 -0.031522 0
17.750000 -0.031065 0
17.755000 -0.030563 0
17.760000 -0.030027 0
17.765000 -0.029465 0
17.770000 -0.028874 0
17.775000 -0.028231 0
17.780000 -0.027590 0
17.785000 -0.026953 0
17.790000 -0.026319 0
17.795000 -0.025688 0
17.800000 -0.025060 0
17.805000 -0.024435 0
17.810000 -0.023814 0
17.815000 -0.023195 0
17.820000 -0.022580 0
17.825000 -0.021967 0
17.830000 -0.021358 0
17.835000 -0.020752 0
17.840000 -0.020149 0
17.845000 -0.019549 0
17.850000 -0.018951 0
17.855000 -0.018357 0
17.860000 -0.017766 0
17.865000 -0.017177 0
17.870000 -0.016592 0
17.875000 -0.016010 0
17.880000 -0.015430 0
17.885000 -0.014853 0
17.890000 -0.014279 0
17.895000 -0.013708 0
17.900000 -0.013140 0
17.905000 -0.012574 0
17.910000 -0.012011 0
17.915000 -0.011450 0
17.920000 -0.010890 0
17.925000 -0.010331 0
17.930000 -0.009770 0
17.935000 -0.009206 0
17.940000 -0.008635 0
17.945000 -0.008050 0
17.950000 -0.007443 0
17.955000 -0.006799 0
17.960000 -0.006099 0
17.965000 -0.005316 0
17.970000 -0.004409 0
17.975000 -0.003326 0
17.980000 -0.001997 0
17.985000 -0.000330 0
17.990000 0.001789 0
17.995000 0.004499 0
18.000000 0.007968 0
18.005000 0.012387 0
18.010000 0.017965 0
18.015000 0.024923 0
18.020000 0.033481 0
18.025000 0.043839 0
18.030000 0.056156 0
18.035000 0.070531 0
18.040000 0.086971 0
18.045000 0.105377 0
18.050000 0.125518 0
18.055000 0.147025 0
18.060000 0.169388 0
18.065000 0.191969 0
18.070000 0.214022 0
18.075000 0.234735 0
18.080000 0.253274 0
18.085000 0.268839 0
18.090000 0.280718 0
18.095000 0.288341 0
18.100000 0.291326 1
18.105000 0.289507 0
18.110000 0.282949 0
18.115000 0.271946 0
18.120000 0.256994 0
18.125000 0.238756 0
18.130000 0.218013 0
18.135000 0.195605 0
18.140000 0.172377 0
18.145000 0.149129 0
18.150000 0.126567 0
18.155000 0.105274 0
18.160000 0.085682 0
18.165000 0.068050 0
18.170000 0.052425 0
18.175000 0.038556 0
18.180000 0.025754 0
18.185000 0.012722 0
18.190000 -0.002539 0
18.195000 -0.022481 0
18.200000 -0.049189 0
18.205000 -0.082948 0
18.210000 -0.120650 0
18.215000 -0.154870 0
18.220000 -0.174307 2
18.225000 -0.165532 0
18.230000 -0.115278 0
18.235000 -0.012715 0
18.240000 0.147742 0
18.245000 0.362039 0
18.250000 0.611088 0
18.255000 0.858166 0
18.260000 1.054127 0
18.265000 1.151851 3
18.270000 1.129010 0
18.275000 0.990729 0
18.280000 0.765696 0
18.285000 0.497215 0
18.290000 0.228977 0
18.295000 -0.005467 0
18.300000 -0.186390 0
18.305000 -0.306354 0
18.310000 -0.367032 0
18.315000 -0.376708 4
18.320000 -0.348425 0
18.325000 -0.297708 0
18.330000 -0.239539 0
18.335000 -0.185433 0
18.340000 -0.141841 0
18.345000 -0.110378 0
18.350000 -0.089384 0
18.355000 -0.075811 0
18.360000 -0.066650 0
18.365000 -0.059618 0
18.370000 -0.053258 0
18.375000 -0.046750 0
18.380000 -0.039669 0
18.385000 -0.031791 0
18.390000 -0.022989 0
18.395000 -0.013175 0
18.400000 -0.002282 0
18.405000 0.009741 0
18.410000 0.022936 0
18.415000 0.037323 0
18.420000 0.052908 0
18.425000 0.069672 0
18.430000 0.087574 0
18.435000 0.106546 0
18.440000 0.126492 0
18.445000 0.147287 0
18.450000 0.168777 0
18.455000 0.190781 0
18.460000 0.213088 0
18.465000 0.235465 0
18.470000 0.257656 0
18.475000 0.279389 0
18.480000 0.300381 0
18.485000 0.320341 0
18.490000 0.338981 0
18.495000 0.356018 0
18.500000 0.371184 0
18.505000 0.384233 0
18.510000 0.394946 0
18.515000 0.403135 0
18.520000 0.408656 0
18.525000 0.411402 5
18.530000 0.411316 0
18.535000 0.408386 0
18.540000 0.402652 0
18.545000 0.394196 0
18.550000 0.383149 0
18.555000 0.369683 0
18.560000 0.354006 0
18.565000 0.336358 0
18.570000 0.317004 0
18.575000 0.296227 0
18.580000 0.274325 0
18.585000 0.251595 0
18.590000 0.228337 0
18.595000 0.204839 0
18.600000 0.181375 0
18.605000 0.158202 0
18.610000 0.135551 0
18.615000 0.113627 0
18.620000 0.092606 0
18.625000 0.072635 0
18.630000 0.053828 0
18.635000 0.036272 0
18.640000 0.020024 0
18.645000 0.005114 0
18.650000 -0.008454 0
18.655000 -0.020694 0
18.660000 -0.031641 0
18.665000 -0.041346 0
18.670000 -0.049872 0
18.675000 -0.057290 0
18.680000 -0.063679 0
18.685000 -0.069122 0
18.690000 -0.073704 0
18.695000 -0.077509 0
18.700000 -0.080619 0
18.705000 -0.083112 0
18.710000 -0.085065 0
18.715000 -0.086545 0
18.720000 -0.087618 0
18.725000 -0.088341 0
18.730000 -0.088766 0
18.735000 -0.088941 0
18.740000 -0.088905 0
18.745000 -0.088695 0
18.750000 -0.088341 0
18.755000 -0.087870 0
18.760000 -0.087304 0
18.765000 -0.086662 0
18.770000 -0.085959 0
18.775000 -0.085210 0
18.780000 -0.084423 0
18.785000 -0.083608 0
18.790000 -0.082773 0
18.795000 -0.081913 0
18.800000 -0.081005 0
18.805000 -0.080101 0
18.810000 -0.079202 0
18.815000 -0.078307 0
18.820000 -0.077417 0
18.825000 -0.076531 0
18.830000 -0.075650 0
18.835000 -0.074773 0
18.840000 -0.073900 0
18.845000 -0.073032 0
18.850000 -0.072168 0
18.855000 -0.071308 0
18.860000 -0.070453 0
18.865000 -0.069602 0
18.870000 -0.068755 0
18.875000 -0.067912 0
18.880000 -0.067074 0
18.885000 -0.066240 0
18.890000 -0.065410 0
18.895000 -0.064584 0
18.900000 -0.063762 0
18.905000 -0.062944 0
18.910000 -0.062130 0
18.915000 -0.061321 0
18.920000 -0.060515 0
18.925000 -0.059713 0
18.930000 -0.058916 0
18.935000 -0.058122 0
18.940000 -0.057331 0
18.945000 -0.056544 0
18.950000 -0.055761 0
18.955000 -0.054979 0
18.960000 -0.054198 0
18.965000 -0.053417 0
18.970000 -0.052634 0
18.975000 -0.051843 0
18.980000 -0.051039 0
18.985000 -0.050213 0
18.990000 -0.049353 0
18.995000 -0.048441 0
19.000000 -0.047451 0
19.005000 -0.046349 0
19.010000 -0.045090 0
19.015000 -0.043613 0
19.020000 -0.041842 0
19.025000 -0.039679 0
19.030000 -0.037008 0
19.035000 -0.033688 0
19.040000 -0.029558 0
19.045000 -0.024439 0
19.050000 -0.018137 0
19.055000 -0.010455 0
19.060000 -0.001199 0
19.065000 0.009799 0
19.070000 0.022671 0
19.075000 0.037490 0
19.080000 0.054254 0
19.085000 0.072863 0
19.090000 0.093109 0
19.095000 0.114666 0
19.100000 0.137091 0
19.105000 0.159826 0
19.110000 0.182224 0
19.115000 0.203569 0
19.120000 0.223119 0
19.125000 0.240140 0
19.130000 0.253958 0
19.135000 0.263998 0
19.140000 0.269828 0
19.145000 0.271184 1
19.150000 0.267994 0
19.155000 0.260381 0
19.160000 0.248656 0
19.165000 0.233298 0
19.170000 0.214917 0
19.175000 0.194218 0
19.180000 0.171956 0
19.185000 0.148886 0
19.190000 0.125727 0
19.195000 0.103124 0
19.200000 0.081619 0
19.205000 0.061633 0
19.210000 0.043447 0
19.215000 0.027175 0
19.220000 0.012713 0
19.225000 -0.000352 0
19.230000 -0.012879 0
19.235000 -0.026297 0
19.240000 -0.042596 0
19.245000 -0.063983 0
19.250000 -0.092052 0
19.255000 -0.126552 0
19.260000 -0.164148 0
19.265000 -0.197816 0
19.270000 -0.217315 2
19.275000 -0.210636 0
19.280000 -0.165839 0
19.285000 -0.072859 0
19.290000 0.074385 0
19.295000 0.274727 0
19.300000 0.515412 0
19.305000 0.768862 0
19.310000 0.994293 0
19.315000 1.146600 0
19.320000 1.190546 3
19.325000 1.112149 0
19.330000 0.926991 0
19.335000 0.674132 0
19.340000 0.400645 0
19.345000 0.147446 0
19.350000 -0.058310 0
19.355000 -0.203710 0
19.360000 -0.286973 0
19.365000 -0.314305 4
19.370000 -0.297719 0
19.375000 -0.252835 0
19.380000 -0.195819 0
19.385000 -0.140020 0
19.390000 -0.093698 0
19.395000 -0.059727 0
19.400000 -0.037009 0
19.405000 -0.022534 0
19.410000 -0.013077 0
19.415000 -0.006110 0
19.420000 0.000010 0
19.425000 0.006208 0
19.430000 0.012965 0
19.435000 0.020524 0
19.440000 0.029025 0
19.445000 0.038560 0
19.450000 0.049198 0
19.455000 0.060995 0
19.460000 0.073991 0
19.465000 0.088210 0
19.470000 0.103654 0
19.475000 0.120303 0
19.480000 0.138111 0
19.485000 0.157002 0
19.490000 0.176873 0
19.495000 0.197588 0
19.500000 0.218980 0
19.505000 0.240852 0
19.510000 0.262980 0
19.515000 0.285113 0
19.520000 0.306980 0
19.525000 0.328291 0
19.530000 0.348748 0
19.535000 0.368048 0
19.540000 0.385890 0
19.545000 0.401985 0
19.550000 0.416062 0
19.555000 0.427874 0
19.560000 0.437207 0
19.565000 0.443887 0
19.570000 0.447780 0
19.575000 0.448803 5
19.580000 0.446922 0
19.585000 0.442152 0
19.590000 0.434563 0
19.595000 0.424271 0
19.600000 0.411440 0
19.605000 0.396274 0
19.610000 0.379013 0
19.615000 0.359926 0
19.620000 0.339306 0
19.625000 0.317456 0
19.630000 0.294691 0
19.635000 0.271321 0
19.640000 0.247651 0
19.645000 0.223970 0
19.650000 0.200548 0
19.655000 0.177631 0
19.660000 0.155436 0
19.665000 0.134149 0
19.670000 0.113926 0
19.675000 0.094889 0
19.680000 0.077127 0
19.685000 0.060700 0
19.690000 0.045640 0
19.695000 0.031951 0
19.700000 0.019616 0
19.705000 0.008597 0
19.710000 -0.001160 0
19.715000 -0.009722 0
19.720000 -0.017164 0
19.725000 -0.023570 0
19.730000 -0.029028 0
19.735000 -0.033624 0
19.740000 -0.037446 0
19.745000 -0.040580 0
19.750000 -0.043107 0
19.755000 -0.045102 0
19.760000 -0.046637 0
19.765000 -0.047777 0
19.770000 -0.048579 0
19.775000 -0.049095 0
19.780000 -0.049373 0
19.785000 -0.049451 0
19.790000 -0.049366 0
19.795000 -0.049146 0
19.800000 -0.048817 0
19.805000 -0.048402 0
19.810000 -0.047916 0
19.815000 -0.047376 0
19.820000 -0.046793 0
19.825000 -0.046177 0
19.830000 -0.045537 0
19.835000 -0.044868 0
19.840000 -0.044144 0
19.845000 -0.043424 0
19.850000 -0.042708 0
19.855000 -0.041995 0
19.860000 -0.041286 0
19.865000 -0.040580 0
19.870000 -0.039878 0
19.875000 -0.039180 0
19.880000 -0.038485 0
19.885000 -0.037793 0
19.890000 -0.037105 0
19.895000 -0.036420 0
19.900000 -0.035739 0
19.905000 -0.035061 0
19.910000 -0.034386 0
19.915000 -0.033715 0
19.920000 -0.033047 0
19.925000 -0.032382 0
19.930000 -0.031721 0
19.935000 -0.031063 0
19.940000 -0.030409 0
19.945000 -0.029757 0
19.950000 -0.029109 0
19.955000 -0.028464 0
19.960000 -0.027822 0
19.965000 -0.027184 0
19.970000 -0.026548 0
19.975000 -0.025916 0
19.980000 -0.025286 0
19.985000 -0.024658 0
19.990000 -0.024033 0
19.995000 -0.023409 0
20.000000 -0.022784 0
20.005000 -0.022158 0
20.010000 -0.021526 0
20.015000 -0.020883 0
20.020000 -0.020223 0
20.025000 -0.019534 0
20.030000 -0.018800 0
20.035000 -0.018000 0
20.040000 -0.017102 0
20.045000 -0.016064 0
20.050000 -0.014829 0
20.055000 -0.013326 0
20.060000 -0.011460 0
20.065000 -0.009117 0
20.070000 -0.006160 0
20.075000 -0.002426 0
20.080000 0.002267 0
20.085000 0.008117 0
20.090000 0.015332 0
20.095000 0.024114 0
20.100000 0.034647 0
20.105000 0.047077 0
20.110000 0.061491 0
20.115000 0.077900 0
20.120000 0.096211 0
20.125000 0.116220 0
20.130000 0.137597 0
20.135000 0.159883 0
20.140000 0.182503 0
20.145000 0.204779 0
20.150000 0.225966 0
20.155000 0.245287 0
20.160000 0.261981 0
20.165000 0.275348 0
20.170000 0.284802 0
20.175000 0.289911 0
20.180000 0.290426 1
20.185000 0.286305 0
20.190000 0.277714 0
20.195000 0.265015 0
20.200000 0.248741 0
20.205000 0.229558 0
20.210000 0.208221 0
20.215000 0.185521 0
20.220000 0.162239 0
20.225000 0.139103 0
20.230000 0.116750 0
20.235000 0.095701 0
20.240000 0.076339 0
20.245000 0.058886 0
20.250000 0.043371 0
20.255000 0.029548 0
20.260000 0.016779 0
20.265000 0.003873 0
20.270000 -0.010989 0
20.275000 -0.030081 0
20.280000 -0.055472 0
20.285000 -0.087839 0
20.290000 -0.125053 0
20.295000 -0.161174 0
20.300000 -0.186531 0
20.305000 -0.188979 2
20.310000 -0.155844 0
20.315000 -0.075900 0
20.320000 0.058498 0
20.325000 0.248239 0
20.330000 0.482889 0
20.335000 0.736640 0
20.340000 0.968818 0
20.345000 1.132230 0
20.350000 1.188078 3
20.355000 1.117478 0
20.360000 0.934584 0
20.365000 0.681090 0
20.370000 0.407801 0
20.375000 0.158230 0
20.380000 -0.039796 0
20.385000 -0.174147 0
20.390000 -0.244619 0
20.395000 -0.259461 4
20.400000 -0.232930 0
20.405000 -0.182464 0
20.410000 -0.124869 0
20.415000 -0.072655 0
20.420000 -0.032219 0
20.425000 -0.004438 0
20.430000 0.013170 0
20.435000 0.024153 0
20.440000 0.031617 0
20.445000 0.037691 0
20.450000 0.043607 0
20.455000 0.050000 0
20.460000 0.057185 0
20.465000 0.065329 0
20.470000 0.074539 0
20.475000 0.084893 0
20.480000 0.096453 0
20.485000 0.109263 0
20.490000 0.123349 0
20.495000 0.138713 0
20.500000 0.155332 0
20.505000 0.173152 0
20.510000 0.192087 0
20.515000 0.212018 0
20.520000 0.232791 0
20.525000 0.254215 0
20.530000 0.276069 0
20.535000 0.298098 0
20.540000 0.320021 0
20.545000 0.341535 0
20.550000 0.362321 0
20.555000 0.382053 0
20.560000 0.400402 0
20.565000 0.417049 0
20.570000 0.431692 0
20.575000 0.444054 0
20.580000 0.453894 0
20.585000 0.461009 0
20.590000 0.465248 0
20.595000 0.466510 5
20.600000 0.464751 0
20.605000 0.459985 0
20.610000 0.452283 0
20.615000 0.441772 0
20.620000 0.428629 0
20.625000 0.413081 0
20.630000 0.395390 0
20.635000 0.375854 0
20.640000 0.354789 0
20.645000 0.332531 0
20.650000 0.309418 0
20.655000 0.285785 0
20.660000 0.261956 0
20.665000 0.238237 0
20.670000 0.214908 0
20.675000 0.192221 0
20.680000 0.170394 0
20.685000 0.149608 0
20.690000 0.130011 0
20.695000 0.111711 0
20.700000 0.094784 0
20.705000 0.079270 0
20.710000 0.065183 0
20.715000 0.052506 0
20.720000 0.041203 0
20.725000 0.031217 0
20.730000 0.022476 0
20.735000 0.014899 0
20.740000 0.008395 0
20.745000 0.002870 0
20.750000 -0.001770 0
20.755000 -0.005620 0
20.760000 -0.008771 0
20.765000 -0.011310 0
20.770000 -0.013318 0
20.775000 -0.014869 0
20.780000 -0.016031 0
20.785000 -0.016864 0
20.790000 -0.017422 0
20.795000 -0.017752 0
20.800000 -0.017894 0
20.805000 -0.017883 0
20.810000 -0.017748 0
20.815000 -0.017514 0
20.820000 -0.017201 0
20.825000 -0.016827 0
20.830000 -0.016405 0
20.835000 -0.015946 0
20.840000 -0.015459 0
20.845000 -0.014951 0
20.850000 -0.014387 0
20.855000 -0.013816 0
20.860000 -0.013247 0
20.865000 -0.012681 0
20.870000 -0.012118 0
20.875000 -0.011558 0
20.880000 -0.011001 0
20.885000 -0.010446 0
20.890000 -0.009894 0
20.895000 -0.009345 0
20.900000 -0.008799 0
20.905000 -0.008255 0
20.910000 -0.007714 0
20.915000 -0.007176 0
20.920000 -0.006641 0
20.925000 -0.006108 0
20.930000 -0.005578 0
20.935000 -0.005050 0
20.940000 -0.004525 0
20.945000 -0.004003 0
20.950000 -0.003483 0
20.955000 -0.002966 0
20.960000 -0.002452 0
20.965000 -0.001940 0
20.970000 -0.001430 0
20.975000 -0.000923 0
20.980000 -0.000418 0
20.985000 0.000084 0
20.990000 0.000585 0
20.995000 0.001085 0
21.000000 0.001585 0
21.005000 0.002085 0
21.010000 0.002590 0
21.015000 0.003102 0
21.020000 0.003628 0
21.025000 0.004177 0
21.030000 0.004762 0
21.035000 0.005404 0
21.040000 0.006130 0
21.045000 0.006981 0
21.050000 0.008009 0
21.055000 0.009286 0
21.060000 0.010905 0
21.065000 0.012981 0
21.070000 0.015656 0
21.075000 0.019100 0
21.080000 0.023506 0
21.085000 0.029086 0
21.090000 0.036064 0
21.095000 0.044661 0
21.100000 0.055077 0
21.105000 0.067472 0
21.110000 0.081937 0
21.115000 0.098475 0
21.120000 0.116976 0
21.125000 0.137197 0
21.130000 0.158752 0
21.135000 0.181116 0
21.140000 0.203631 0
21.145000 0.225538 0
21.150000 0.246012 0
21.155000 0.264211 0
21.160000 0.279334 0
21.165000 0.290677 0
21.170000 0.297685 0
21.175000 0.299999 1
21.180000 0.297482 0
21.185000 0.290231 0
21.190000 0.278573 0
21.195000 0.263036 0
21.200000 0.244311 0
21.205000 0.223200 0
21.210000 0.200555 0
21.215000 0.177226 0
21.220000 0.154006 0
21.225000 0.131589 0
21.230000 0.110537 0
21.235000 0.091257 0
21.240000 0.073974 0
21.245000 0.058684 0
21.250000 0.045060 0
21.255000 0.032294 0
21.260000 0.018929 0
21.265000 0.002811 0
21.270000 -0.018548 0
21.275000 -0.046986 0
21.280000 -0.082139 0
21.285000 -0.119895 0
21.290000 -0.151725 0
21.295000 -0.165501 2
21.300000 -0.147489 0
21.305000 -0.084699 0
21.310000 0.032761 0
21.315000 0.208478 0
21.320000 0.434808 0
21.325000 0.687648 0
21.330000 0.925504 0
21.335000 1.097549 0
21.340000 1.160263 3
21.345000 1.097405 0
21.350000 0.923171 0
21.355000 0.675423 0
21.360000 0.402117 0
21.365000 0.146099 0
21.370000 -0.063604 0
21.375000 -0.212809 0
21.380000 -0.299084 0
21.385000 -0.328404 4
21.390000 -0.312836 0
21.395000 -0.268266 0
21.400000 -0.211223 0
21.405000 -0.155375 0
21.410000 -0.109143 0
21.415000 -0.075398 0
21.420000 -0.052950 0
21.425000 -0.038692 0
21.430000 -0.029354 0
21.435000 -0.022403 0
21.440000 -0.016218 0
21.445000 -0.009900 0
21.450000 -0.002987 0
21.455000 0.004756 0
21.460000 0.013464 0
21.465000 0.023226 0
21.470000 0.034113 0
21.475000 0.046179 0
21.480000 0.059462 0
21.485000 0.073984 0
21.490000 0.089743 0
21.495000 0.106713 0
21.500000 0.124842 0
21.505000 0.144047 0
21.510000 0.164214 0
21.515000 0.185197 0
21.520000 0.206819 0
21.525000 0.228872 0
21.530000 0.251117 0
21.535000 0.273293 0
21.540000 0.295116 0
21.545000 0.316288 0
21.550000 0.336501 0
21.555000 0.355446 0
21.560000 0.372817 0
21.565000 0.388326 0
21.570000 0.401702 0
21.575000 0.412706 0
21.580000 0.421132 0
21.585000 0.426817 0
21.590000 0.429646 5
21.595000 0.429552 0
21.600000 0.426522 0
21.605000 0.420596 0
21.610000 0.411865 0
21.615000 0.400471 0
21.620000 0.386601 0
21.625000 0.370480 0
21.630000 0.352370 0
21.635000 0.332558 0
21.640000 0.311350 0
21.645000 0.289062 0
21.650000 0.266015 0
21.655000 0.242523 0
21.660000 0.218891 0
21.665000 0.195402 0
21.670000 0.172320 0
21.675000 0.149879 0
21.680000 0.128282 0
21.685000 0.107702 0
21.690000 0.088275 0
21.695000 0.070106 0
21.700000 0.053268 0
21.705000 0.037802 0
21.710000 0.023722 0
21.715000 0.011017 0
21.720000 -0.000344 0
21.725000 -0.010412 0
21.730000 -0.019251 0
21.735000 -0.026937 0
21.740000 -0.033553 0
21.745000 -0.039187 0
21.750000 -0.043929 0
21.755000 -0.047869 0
21.760000 -0.051093 0
21.765000 -0.053687 0
21.770000 -0.055728 0
21.775000 -0.057291 0
21.780000 -0.058442 0
21.785000 -0.059243 0
21.790000 -0.059748 0
21.795000 -0.060005 0
21.800000 -0.060055 0
21.805000 -0.059935 0
21.810000 -0.059677 0
21.815000 -0.059306 0
21.820000 -0.058846 0
21.825000 -0.058313 0
21.830000 -0.057725 0
21.835000 -0.057093 0
21.840000 -0.056427 0
21.845000 -0.055736 0
21.850000 -0.055017 0
21.855000 -0.054243 0
21.860000 -0.053472 0
21.865000 -0.052706 0
21.870000 -0.051944 0
21.875000 -0.051185 0
21.880000 -0.050430 0
21.885000 -0.049679 0
21.890000 -0.048931 0
21.895000 -0.048187 0
21.900000 -0.047447 0
21.905000 -0.046711 0
21.910000 -0.045978 0
21.915000 -0.045249 0
21.920000 -0.044524 0
21.925000 -0.043802 0
21.930000 -0.043084 0
21.935000 -0.042369 0
21.940000 -0.041658 0
21.945000 -0.040951 0
21.950000 -0.040247 0
21.955000 -0.039546 0
21.960000 -0.038849 0
21.965000 -0.038156 0
21.970000 -0.037466 0
21.975000 -0.036779 0
21.980000 -0.036096 0
21.985000 -0.035416 0
21.990000 -0.034739 0
21.995000 -0.034065 0
22.000000 -0.033393 0
22.005000 -0.032724 0
22.010000 -0.032055 0
22.015000 -0.031386 0
22.020000 -0.030714 0
22.025000 -0.030035 0
22.030000 -0.029344 0
22.035000 -0.028631 0
22.040000 -0.027884 0
22.045000 -0.027084 0
22.050000 -0.026205 0
22.055000 -0.025211 0
22.060000 -0.024053 0
22.065000 -0.022667 0
22.070000 -0.020970 0
22.075000 -0.018857 0
22.080000 -0.016199 0
22.085000 -0.012845 0
22.090000 -0.008617 0
22.095000 -0.003321 0
22.100000 0.003253 0
22.105000 0.011315 0
22.110000 0.021064 0
22.115000 0.032669 0
22.120000 0.046251 0
22.125000 0.061855 0
22.130000 0.079436 0
22.135000 0.098834 0
22.140000 0.119765 0
22.145000 0.141810 0
22.150000 0.164427 0
22.155000 0.186960 0
22.160000 0.208667 0
22.165000 0.228761 0
22.170000 0.246453 0
22.175000 0.261002 0
22.180000 0.271768 0
22.185000 0.278254 0
22.190000 0.280150 1
22.195000 0.277350 0
22.200000 0.269965 0
22.205000 0.258314 0
22.210000 0.242901 0
22.215000 0.224377 0
22.220000 0.203496 0
22.225000 0.181064 0
22.230000 0.157883 0
22.235000 0.134712 0
22.240000 0.112221 0
22.245000 0.090966 0
22.250000 0.071363 0
22.255000 0.053666 0
22.260000 0.037936 0
22.265000 0.023967 0
22.270000 0.011161 0
22.275000 -0.001626 0
22.280000 -0.016191 0
22.285000 -0.034834 0
22.290000 -0.059721 0
22.295000 -0.091683 0
22.300000 -0.128740 0
22.305000 -0.165012 0
22.310000 -0.190737 0
22.315000 -0.193550 2
22.320000 -0.160495 0
22.325000 -0.080098 0
22.330000 0.055408 0
22.335000 0.246745 0
22.340000 0.482820 0
22.345000 0.736585 0
22.350000 0.965871 0
22.355000 1.122541 0
22.360000 1.168269 3
22.365000 1.088405 0
22.370000 0.898666 0
22.375000 0.642051 0
22.380000 0.369287 0
22.385000 0.122867 0
22.390000 -0.070632 0
22.395000 -0.200107 0
22.400000 -0.266070 0
22.405000 -0.277283 4
22.410000 -0.248331 0
22.415000 -0.196732 0
22.420000 -0.139083 0
22.425000 -0.087479 0
22.430000 -0.047875 0
22.435000 -0.020829 0
22.440000 -0.003714 0
22.445000 0.007020 0
22.450000 0.014418 0
22.455000 0.020538 0
22.460000 0.026559 0
22.465000 0.033086 0
22.470000 0.040419 0
22.475000 0.048720 0
22.480000 0.058090 0
22.485000 0.068609 0
22.490000 0.080337 0
22.495000 0.093316 0
22.500000 0.107571 0
22.505000 0.123103 0
22.510000 0.139887 0
22.515000 0.157865 0
22.520000 0.176952 0
22.525000 0.197025 0
22.530000 0.217927 0
22.535000 0.239467 0
22.540000 0.261421 0
22.545000 0.283531 0
22.550000 0.305517 0
22.555000 0.327074 0
22.560000 0.347883 0
22.565000 0.367615 0
22.570000 0.385946 0
22.575000 0.402555 0
22.580000 0.417142 0
22.585000 0.429433 0
22.590000 0.439188 0
22.595000 0.446209 0
22.600000 0.450346 0
22.605000 0.451502 5
22.610000 0.449637 0
22.615000 0.444769 0
22.620000 0.436970 0
22.625000 0.426372 0
22.630000 0.413156 0
22.635000 0.397548 0
22.640000 0.379815 0
22.645000 0.360254 0
22.650000 0.339184 0
22.655000 0.316940 0
22.660000 0.293860 0
22.665000 0.270278 0
22.670000 0.246519 0
22.675000 0.222884 0
22.680000 0.199655 0
22.685000 0.177079 0
22.690000 0.155374 0
22.695000 0.134719 0
22.700000 0.115258 0
22.705000 0.097099 0
22.710000 0.080315 0
22.715000 0.064945 0
22.720000 0.051001 0
22.725000 0.038465 0
22.730000 0.027299 0
22.735000 0.017446 0
22.740000 0.008833 0
22.745000 0.001379 0
22.750000 -0.005007 0
22.755000 -0.010419 0
22.760000 -0.014952 0
22.765000 -0.018700 0
22.770000 -0.021754 0
22.775000 -0.024201 0
22.780000 -0.026121 0
22.785000 -0.027588 0
22.790000 -0.028670 0
22.795000 -0.029426 0
22.800000 -0.029909 0
22.805000 -0.030167 0
22.810000 -0.030239 0
22.815000 -0.030160 0
22.820000 -0.029959 0
22.825000 -0.029660 0
22.830000 -0.029283 0
22.835000 -0.028846 0
22.840000 -0.028362 0
22.845000 -0.027842 0
22.850000 -0.027295 0
22.855000 -0.026717 0
22.860000 -0.026084 0
22.865000 -0.025454 0
22.870000 -0.024828 0
22.875000 -0.024204 0
22.880000 -0.023584 0
22.885000 -0.022966 0
22.890000 -0.022352 0
22.895000 -0.021741 0
22.900000 -0.021133 0
22.905000 -0.020528 0
22.910000 -0.019926 0
22.915000 -0.019327 0
22.920000 -0.018731 0
22.925000 -0.018137 0
22.930000 -0.017547 0
22.935000 -0.016960 0
22.940000 -0.016376 0
22.945000 -0.015794 0
22.950000 -0.015216 0
22.955000 -0.014640 0
22.960000 -0.014067 0
22.965000 -0.013498 0
22.970000 -0.012931 0
22.975000 -0.012366 0
22.980000 -0.011805 0
22.985000 -0.011246 0
22.990000 -0.010690 0
22.995000 -0.010136 0
23.000000 -0.009584 0
23.005000 -0.009033 0
23.010000 -0.008483 0
23.015000 -0.007932 0
23.020000 -0.007377 0
23.025000 -0.006815 0
23.030000 -0.006239 0
23.035000 -0.005640 0
23.040000 -0.005004 0
23.045000 -0.004311 0
23.050000 -0.003533 0
23.055000 -0.002629 0
23.060000 -0.001546 0
23.065000 -0.000212 0
23.070000 0.001467 0
23.075000 0.003606 0
23.080000 0.006350 0
23.085000 0.009866 0
23.090000 0.014350 0
23.095000 0.020015 0
23.100000 0.027084 0
23.105000 0.035777 0
23.110000 0.046293 0
23.115000 0.058791 0
23.120000 0.073360 0
23.125000 0.090000 0
23.130000 0.108596 0
23.135000 0.128903 0
23.140000 0.150532 0
23.145000 0.172953 0
23.150000 0.195506 0
23.155000 0.217429 0
23.160000 0.237898 0
23.165000 0.256072 0
23.170000 0.271152 0
23.175000 0.282437 0
23.180000 0.289377 0
23.185000 0.291618 1
23.190000 0.289028 0
23.195000 0.281711 0
23.200000 0.269998 0
23.205000 0.254422 0
23.210000 0.235676 0
23.215000 0.214562 0
23.220000 0.191934 0
23.225000 0.168640 0
23.230000 0.145471 0
23.235000 0.123117 0
23.240000 0.102137 0
23.245000 0.082936 0
23.250000 0.065734 0
23.255000 0.050521 0
23.260000 0.036962 0
23.265000 0.024240 0
23.270000 0.010884 0
23.275000 -0.005269 0
23.280000 -0.026705 0
23.285000 -0.055236 0
23.290000 -0.090444 0
23.295000 -0.128144 0
23.300000 -0.159741 0
23.305000 -0.173068 2
23.310000 -0.154392 0
23.315000 -0.090762 0
23.320000 0.027636 0
23.325000 0.204257 0
23.330000 0.431243 0
23.335000 0.684237 0
23.340000 0.921551 0
23.345000 1.092360 0
23.350000 1.153409 3
23.355000 1.089392 0
23.360000 0.918370 0
23.365000 0.674567 0
23.370000 0.401866 0
23.375000 0.140710 0
23.380000 -0.080019 0
23.385000 -0.244735 0
23.390000 -0.348884 0
23.395000 -0.395960 4
23.400000 -0.395362 0
23.405000 -0.360625 0
23.410000 -0.307067 0
23.415000 -0.248823 0
23.420000 -0.196229 0
23.425000 -0.154639 0
23.430000 -0.124940 0
23.435000 -0.105168 0
23.440000 -0.092278 0
23.445000 -0.083403 0
23.450000 -0.076419 0
23.455000 -0.069986 0
23.460000 -0.063356 0
23.465000 -0.056134 0
23.470000 -0.048115 0
23.475000 -0.039178 0
23.480000 -0.029238 0
23.485000 -0.018233 0
23.490000 -0.006109 0
23.495000 0.007170 0
23.500000 0.021627 0
23.505000 0.037265 0
23.510000 0.054068 0
23.515000 0.071996 0
23.520000 0.090984 0
23.525000 0.110939 0
23.530000 0.131741 0
23.535000 0.153244 0
23.540000 0.175270 0
23.545000 0.197618 0
23.550000 0.220063 0
23.555000 0.242358 0
23.560000 0.264238 0
23.565000 0.285429 0
23.570000 0.305649 0
23.575000 0.324613 0
23.580000 0.342046 0
23.585000 0.357682 0
23.590000 0.371277 0
23.595000 0.382609 0
23.600000 0.391488 0
23.605000 0.397763 0
23.610000 0.401319 0
23.615000 0.402088 5
23.620000 0.400046 0
23.625000 0.395215 0
23.630000 0.387666 0
23.635000 0.377510 0
23.640000 0.364902 0
23.645000 0.350035 0
23.650000 0.333132 0
23.655000 0.314444 0
23.660000 0.294241 0
23.665000 0.272810 0
23.670000 0.250441 0
23.675000 0.227428 0
23.680000 0.204056 0
23.685000 0.180601 0
23.690000 0.157320 0
23.695000 0.134452 0
23.700000 0.112209 0
23.705000 0.090777 0
23.710000 0.070314 0
23.715000 0.050948 0
23.720000 0.032776 0
23.725000 0.015870 0
23.730000 0.000273 0
23.735000 -0.013996 0
23.740000 -0.026943 0
23.745000 -0.038589 0
23.750000 -0.048976 0
23.755000 -0.058158 0
23.760000 -0.066200 0
23.765000 -0.073175 0
23.770000 -0.079162 0
23.775000 -0.084242 0
23.780000 -0.088499 0
23.785000 -0.092014 0
23.790000 -0.094866 0
23.795000 -0.097132 0
23.800000 -0.098882 0
23.805000 -0.100184 0
23.810000 -0.101099 0
23.815000 -0.101681 0
23.820000 -0.101980 0
23.825000 -0.102042 0
23.830000 -0.101903 0
23.835000 -0.101599 0
23.840000 -0.101158 0
23.845000 -0.100606 0
23.850000 -0.099963 0
23.855000 -0.099248 0
23.860000 -0.098476 0
23.865000 -0.097659 0
23.870000 -0.096806 0
23.875000 -0.095927 0
23.880000 -0.095029 0
23.885000 -0.094107 0
23.890000 -0.093138 0
23.895000 -0.092174 0
23.900000 -0.091214 0
23.905000 -0.090259 0
23.910000 -0.089310 0
23.915000 -0.088364 0
23.920000 -0.087424 0
23.925000 -0.086488 0
23.930000 -0.085557 0
23.935000 -0.084631 0
23.940000 -0.083709 0
23.945000 -0.082792 0
23.950000 -0.081879 0
23.955000 -0.080971 0
23.960000 -0.080068 0
23.965000 -0.079168 0
23.970000 -0.078274 0
23.975000 -0.077384 0
23.980000 -0.076498 0
23.985000 -0.075617 0
23.990000 -0.074740 0
23.995000 -0.073868 0
24.000000 -0.072999 0
24.005000 -0.072136 0
24.010000 -0.071276 0
24.015000 -0.070421 0
24.020000 -0.069570 0
24.025000 -0.068723 0
24.030000 -0.067879 0
24.035000 -0.067040 0
24.040000 -0.066204 0
24.045000 -0.065371 0
24.050000 -0.064540 0
24.055000 -0.063709 0
24.060000 -0.062876 0
24.065000 -0.062039 0
24.070000 -0.061192 0
24.075000 -0.060327 0
24.080000 -0.059434 0
24.085000 -0.058497 0
24.090000 -0.057496 0
24.095000 -0.056400 0
24.100000 -0.055171 0
24.105000 -0.053756 0
24.110000 -0.052088 0
24.115000 -0.050082 0
24.120000 -0.047634 0
24.125000 -0.044618 0
24.130000 -0.040887 0
24.135000 -0.036275 0
24.140000 -0.030599 0
24.145000 -0.023668 0
24.150000 -0.015289 0
24.155000 -0.005282 0
24.160000 0.006505 0
24.165000 0.020180 0
24.170000 0.035786 0
24.175000 0.053288 0
24.180000 0.072549 0
24.185000 0.093328 0
24.190000 0.115265 0
24.195000 0.137888 0
24.200000 0.160623 0
24.205000 0.182815 0
24.210000 0.203753 0
24.215000 0.222709 0
24.220000 0.238980 0
24.225000 0.251929 0
24.230000 0.261027 0
24.235000 0.265888 0
24.240000 0.266296 1
24.245000 0.262221 0
24.250000 0.253823 0
24.255000 0.241437 0
24.260000 0.225557 0
24.265000 0.206798 0
24.270000 0.185857 0
24.275000 0.163475 0
24.280000 0.140387 0
24.285000 0.117287 0
24.290000 0.094796 0
24.295000 0.073433 0
24.300000 0.053598 0
24.305000 0.035555 0
24.310000 0.019405 0
24.315000 0.005034 0
24.320000 -0.007971 0
24.325000 -0.020460 0
24.330000 -0.033833 0
24.335000 -0.050032 0
24.340000 -0.071214 0
24.345000 -0.098971 0
24.350000 -0.133154 0
24.355000 -0.170686 0
24.360000 -0.204935 0
24.365000 -0.226094 2
24.370000 -0.222519 0
24.375000 -0.182465 0
24.380000 -0.095812 0
24.385000 0.044003 0
24.390000 0.237043 0
24.395000 0.472793 0
24.400000 0.726694 0
24.405000 0.960706 0
24.410000 1.130586 0
24.415000 1.198879 3
24.420000 1.146202 0
24.425000 0.979378 0
24.430000 0.735192 0
24.435000 0.461948 0
24.440000 0.203680 0
24.445000 -0.009300 0
24.450000 -0.161877 0
24.455000 -0.251079 0
24.460000 -0.282625 4
24.465000 -0.268519 0
24.470000 -0.224741 0
24.475000 -0.168035 0
24.480000 -0.112313 0
24.485000 -0.066183 0
24.490000 -0.032601 0
24.495000 -0.010380 0
24.500000 0.003620 0
24.505000 0.012704 0
24.510000 0.019421 0
24.515000 0.025393 0
24.520000 0.031517 0
24.525000 0.038251 0
24.530000 0.045828 0
24.535000 0.054381 0
24.540000 0.063999 0
24.545000 0.074754 0
24.550000 0.086698 0
24.555000 0.099870 0
24.560000 0.114289 0
24.565000 0.129953 0
24.570000 0.146833 0
24.575000 0.164874 0
24.580000 0.183988 0
24.585000 0.204059 0
24.590000 0.224934 0
24.595000 0.246431 0
24.600000 0.268336 0
24.605000 0.290404 0
24.610000 0.312369 0
24.615000 0.333940 0
24.620000 0.354815 0
24.625000 0.374681 0
24.630000 0.393225 0
24.635000 0.410142 0
24.640000 0.425140 0
24.645000 0.437952 0
24.650000 0.448339 0
24.655000 0.456103 0
24.660000 0.461086 0
24.665000 0.463180 5
24.670000 0.462330 0
24.675000 0.458531 0
24.680000 0.451835 0
24.685000 0.442345 0
24.690000 0.430216 0
24.695000 0.415644 0
24.700000 0.398869 0
24.705000 0.380159 0
24.710000 0.359812 0
24.715000 0.338139 0
24.720000 0.315463 0
24.725000 0.292107 0
24.730000 0.268387 0
24.735000 0.244605 0
24.740000 0.221044 0
24.745000 0.197962 0
24.750000 0.175587 0
24.755000 0.154116 0
24.760000 0.133712 0
24.765000 0.114504 0
24.770000 0.096589 0
24.775000 0.080027 0
24.780000 0.064854 0
24.785000 0.051074 0
24.790000 0.038670 0
24.795000 0.027601 0
24.800000 0.017812 0
24.805000 0.009234 0
24.810000 0.001787 0
24.815000 -0.004615 0
24.820000 -0.010062 0
24.825000 -0.014645 0
24.830000 -0.018454 0
24.835000 -0.021577 0
24.840000 -0.024096 0
24.845000 -0.026089 0
24.850000 -0.027629 0
24.855000 -0.028779 0
24.860000 -0.029600 0
24.865000 -0.030144 0
24.870000 -0.030455 0
24.875000 -0.030575 0
24.880000 -0.030538 0
24.885000 -0.030372 0
24.890000 -0.030104 0
24.895000 -0.029753 0
24.900000 -0.029337 0
24.905000 -0.028870 0
24.910000 -0.028363 0
24.915000 -0.027826 0
24.920000 -0.027266 0
24.925000 -0.026681 0
24.930000 -0.026049 0
24.935000 -0.025419 0
24.940000 -0.024792 0
24.945000 -0.024169 0
24.950000 -0.023549 0
24.955000 -0.022932 0
24.960000 -0.022318 0
24.965000 -0.021707 0
24.970000 -0.021099 0
24.975000 -0.020494 0
24.980000 -0.019892 0
24.985000 -0.019293 0
24.990000 -0.018697 0
24.995000 -0.018104 0
25.000000 -0.017514 0
25.005000 -0.016927 0
25.010000 -0.016343 0
25.015000 -0.015762 0
25.020000 -0.015183 0
25.025000 -0.014608 0
25.030000 -0.014035 0
25.035000 -0.013465 0
25.040000 -0.012899 0
25.045000 -0.012334 0
25.050000 -0.011773 0
25.055000 -0.011214 0
25.060000 -0.010658 0
25.065000 -0.010105 0
25.070000 -0.009553 0
25.075000 -0.009003 0
25.080000 -0.008454 0
25.085000 -0.007904 0
25.090000 -0.007351 0
25.095000 -0.006793 0
25.100000 -0.006223 0
25.105000 -0.005634 0
25.110000 -0.005014 0
25.115000 -0.004347 0
25.120000 -0.003608 0
25.125000 -0.002765 0
25.130000 -0.001771 0
25.135000 -0.000567 0
25.140000 0.000927 0
25.145000 0.002810 0
25.150000 0.005206 0
25.155000 0.008264 0
25.160000 0.012154 0
25.165000 0.017073 0
25.170000 0.023227 0
25.175000 0.030830 0
25.180000 0.040090 0
25.185000 0.051184 0
25.190000 0.064246 0
25.195000 0.079341 0
25.200000 0.096442 0
25.205000 0.115412 0
25.210000 0.135987 0
25.215000 0.157770 0
25.220000 0.180234 0
25.225000 0.202732 0
25.230000 0.224527 0
25.235000 0.244828 0
25.240000 0.262833 0
25.245000 0.277782 0
25.250000 0.289009 0
25.255000 0.295992 0
25.260000 0.298387 1
25.265000 0.296062 0
25.270000 0.289102 0
25.275000 0.277807 0
25.280000 0.262666 0
25.285000 0.244325 0
25.290000 0.223539 0
25.295000 0.201119 0
25.300000 0.177879 0
25.305000 0.154592 0
25.310000 0.131944 0
25.315000 0.110505 0
25.320000 0.090705 0
25.325000 0.072813 0
25.330000 0.056902 0
25.335000 0.042777 0
25.340000 0.029854 0
25.345000 0.016997 0
25.350000 0.002408 0
25.355000 -0.016232 0
25.360000 -0.041123 0
25.365000 -0.073130 0
25.370000 -0.110272 0
25.375000 -0.146610 0
25.380000 -0.172254 0
25.385000 -0.174684 2
25.390000 -0.140806 0
25.395000 -0.059071 0
25.400000 0.078229 0
25.405000 0.271510 0
25.410000 0.508981 0
25.415000 0.762536 0
25.420000 0.988942 0
25.425000 1.139633 0
25.430000 1.177029 3
25.435000 1.089306 0
25.440000 0.895431 0
25.445000 0.637649 0
25.450000 0.364894 0
25.455000 0.118049 0
25.460000 -0.077117 0
25.465000 -0.209551 0
25.470000 -0.279332 0
25.475000 -0.294483 4
25.480000 -0.268704 0
25.485000 -0.218775 0
25.490000 -0.161019 0
25.495000 -0.107851 0
25.500000 -0.065932 0
25.505000 -0.036561 0
25.510000 -0.017601 0
25.515000 -0.005662 0
25.520000 0.002377 0
25.525000 0.008739 0
25.530000 0.014757 0
25.535000 0.021140 0
25.540000 0.028242 0
25.545000 0.036250 0
25.550000 0.045276 0
25.555000 0.055404 0
25.560000 0.066695 0
25.565000 0.079200 0
25.570000 0.092949 0
25.575000 0.107952 0
25.580000 0.124197 0
25.585000 0.141644 0
25.590000 0.160224 0
25.595000 0.179835 0
25.600000 0.200344 0
25.605000 0.221585 0
25.610000 0.243358 0
25.615000 0.265433 0
25.620000 0.287554 0
25.625000 0.309438 0
25.630000 0.330787 0
25.635000 0.351289 0
25.640000 0.370629 0
25.645000 0.388492 0
25.650000 0.404576 0
25.655000 0.418597 0
25.660000 0.430300 0
25.665000 0.439463 0
25.670000 0.445904 0
25.675000 0.449490 0
25.680000 0.450138 5
25.685000 0.447818 0
25.690000 0.442556 0
25.695000 0.434432 0
25.700000 0.423577 0
25.705000 0.410169 0
25.710000 0.394433 0
25.715000 0.376625 0
25.720000 0.357035 0
25.725000 0.335971 0
25.730000 0.313755 0
25.735000 0.290713 0
25.740000 0.267169 0
25.745000 0.243434 0
25.750000 0.219803 0
25.755000 0.196547 0
25.760000 0.173910 0
25.765000 0.152103 0
25.770000 0.131306 0
25.775000 0.111661 0
25.780000 0.093280 0
25.785000 0.076238 0
25.790000 0.060581 0
25.795000 0.046324 0
25.800000 0.033457 0
25.805000 0.021949 0
25.810000 0.011748 0
25.815000 0.002790 0
25.820000 -0.005002 0
25.825000 -0.011715 0
25.830000 -0.017436 0
25.835000 -0.022258 0
25.840000 -0.026273 0
25.845000 -0.029569 0
25.850000 -0.032233 0
25.855000 -0.034343 0
25.860000 -0.035976 0
25.865000 -0.037198 0
25.870000 -0.038071 0
25.875000 -0.038650 0
25.880000 -0.038984 0
25.885000 -0.039113 0
25.890000 -0.039076 0
25.895000 -0.038902 0
25.900000 -0.038618 0
25.905000 -0.038246 0
25.910000 -0.037804 0
25.915000 -0.037308 0
25.920000 -0.036769 0
25.925000 -0.036198 0
25.930000 -0.035602 0
25.935000 -0.034979 0
25.940000 -0.034305 0
25.945000 -0.033634 0
25.950000 -0.032967 0
25.955000 -0.032303 0
25.960000 -0.031642 0
25.965000 -0.030984 0
25.970000 -0.030330 0
25.975000 -0.029679 0
25.980000 -0.029031 0
25.985000 -0.028387 0
25.990000 -0.027746 0
25.995000 -0.027107 0
26.000000 -0.026473 0
26.005000 -0.025841 0
26.010000 -0.025212 0
26.015000 -0.024587 0
26.020000 -0.023964 0
26.025000 -0.023345 0
26.030000 -0.022729 0
26.035000 -0.022116 0
26.040000 -0.021506 0
26.045000 -0.020899 0
26.050000 -0.020295 0
26.055000 -0.019694 0
26.060000 -0.019096 0
26.065000 -0.018501 0
26.070000 -0.017908 0
26.075000 -0.017319 0
26.080000 -0.016731 0
26.085000 -0.016145 0
26.090000 -0.015561 0
26.095000 -0.014976 0
26.100000 -0.014389 0
26.105000 -0.013796 0
26.110000 -0.013192 0
26.115000 -0.012571 0
26.120000 -0.011920 0
26.125000 -0.011222 0
26.130000 -0.010455 0
26.135000 -0.009586 0
26.140000 -0.008569 0
26.145000 -0.007344 0
26.150000 -0.005833 0
26.155000 -0.003935 0
26.160000 -0.001528 0
26.165000 0.001537 0
26.170000 0.005433 0
26.175000 0.010356 0
26.180000 0.016516 0
26.185000 0.024128 0
26.190000 0.033401 0
26.195000 0.044515 0
26.200000 0.057607 0
26.205000 0.072741 0
26.210000 0.089890 0
26.215000 0.108915 0
26.220000 0.129548 0
26.225000 0.151386 0
26.230000 0.173893 0
26.235000 0.196416 0
26.240000 0.218208 0
26.245000 0.238467 0
26.250000 0.256387 0
26.255000 0.271203 0
26.260000 0.282249 0
26.265000 0.289007 0
26.270000 0.291141 1
26.275000 0.288533 0
26.280000 0.281281 0
26.285000 0.269705 0
26.290000 0.254311 0
26.295000 0.235763 0
26.300000 0.214827 0
26.305000 0.192327 0
26.310000 0.169081 0
26.315000 0.145863 0
26.320000 0.123353 0
26.325000 0.102113 0
26.330000 0.082559 0
26.335000 0.064942 0
26.340000 0.049306 0
26.345000 0.035413 0
26.350000 0.022608 0
26.355000 0.009656 0
26.360000 -0.005350 0
26.365000 -0.024788 0
26.370000 -0.050763 0
26.375000 -0.083799 0
26.380000 -0.121306 0
26.385000 -0.156589 0
26.390000 -0.179094 2
26.395000 -0.175925 0
26.400000 -0.133995 0
26.405000 -0.042168 0
26.410000 0.106262 0
26.415000 0.309738 0
26.420000 0.553323 0
26.425000 0.805204 0
26.430000 1.019532 0
26.435000 1.148184 0
26.440000 1.157744 3
26.445000 1.043186 0
26.450000 0.830365 0
26.455000 0.564862 0
26.460000 0.295107 0
26.465000 0.058942 0
26.470000 -0.121492 0
26.475000 -0.238144 0
26.480000 -0.293302 0
26.485000 -0.296658 4
26.490000 -0.263059 0
26.495000 -0.209630 0
26.500000 -0.152067 0
26.505000 -0.101436 0
26.510000 -0.062894 0
26.515000 -0.036603 0
26.520000 -0.019874 0
26.525000 -0.009259 0
26.530000 -0.001839 0
26.535000 0.004355 0
26.540000 0.010455 0
26.545000 0.017049 0
26.550000 0.024430 0
26.555000 0.032759 0
26.560000 0.042135 0
26.565000 0.052637 0
26.570000 0.064322 0
26.575000 0.077236 0
26.580000 0.091403 0
26.585000 0.106828 0
26.590000 0.123489 0
26.595000 0.141336 0
26.600000 0.160291 0
26.605000 0.180241 0
26.610000 0.201041 0
26.615000 0.222512 0
26.620000 0.244445 0
26.625000 0.266597 0
26.630000 0.288701 0
26.635000 0.310468 0
26.640000 0.331592 0
26.645000 0.351756 0
26.650000 0.370644 0
26.655000 0.387941 0
26.660000 0.403350 0
26.665000 0.416595 0
26.670000 0.427429 0
26.675000 0.435643 0
26.680000 0.441072 0
26.685000 0.443600 5
26.690000 0.443164 0
26.695000 0.439754 0
26.700000 0.433417 0
26.705000 0.424254 0
26.710000 0.412414 0
26.715000 0.398097 0
26.720000 0.381541 0
26.725000 0.363019 0
26.730000 0.342830 0
26.735000 0.321291 0
26.740000 0.298729 0
26.745000 0.275471 0
26.750000 0.251838 0
26.755000 0.228139 0
26.760000 0.204661 0
26.765000 0.181664 0
26.770000 0.159382 0
26.775000 0.138013 0
26.780000 0.117722 0
26.785000 0.098639 0
26.790000 0.080860 0
26.795000 0.064447 0
26.800000 0.049433 0
26.805000 0.035822 0
26.810000 0.023594 0
26.815000 0.012707 0
26.820000 0.003103 0
26.825000 -0.005288 0
26.830000 -0.012550 0
26.835000 -0.018769 0
26.840000 -0.024037 0
26.845000 -0.028447 0
26.850000 -0.032090 0
26.855000 -0.035054 0
26.860000 -0.037421 0
26.865000 -0.039272 0
26.870000 -0.040676 0
26.875000 -0.041700 0
26.880000 -0.042403 0
26.885000 -0.042835 0
26.890000 -0.043042 0
26.895000 -0.043064 0
26.900000 -0.042934 0
26.905000 -0.042682 0
26.910000 -0.042331 0
26.915000 -0.041901 0
26.920000 -0.041410 0
26.925000 -0.040871 0
26.930000 -0.040295 0
26.935000 -0.039692 0
26.940000 -0.039067 0
26.945000 -0.038383 0
26.950000 -0.037691 0
26.955000 -0.037004 0
26.960000 -0.036319 0
26.965000 -0.035639 0
26.970000 -0.034961 0
26.975000 -0.034287 0
26.980000 -0.033616 0
26.985000 -0.032949 0
26.990000 -0.032285 0
26.995000 -0.031624 0
27.000000 -0.030967 0
27.005000 -0.030313 0
27.010000 -0.029662 0
27.015000 -0.029014 0
27.020000 -0.028370 0
27.025000 -0.027728 0
27.030000 -0.027090 0
27.035000 -0.026456 0
27.040000 -0.025824 0
27.045000 -0.025195 0
27.050000 -0.024570 0
27.055000 -0.023948 0
27.060000 -0.023329 0
27.065000 -0.022712 0
27.070000 -0.022099 0
27.075000 -0.021489 0
27.080000 -0.020882 0
27.085000 -0.020277 0
27.090000 -0.019674 0
27.095000 -0.019072 0
27.100000 -0.018471 0
27.105000 -0.017869 0
27.110000 -0.017262 0
27.115000 -0.016647 0
27.120000 -0.016017 0
27.125000 -0.015362 0
27.130000 -0.014668 0
27.135000 -0.013913 0
27.140000 -0.013068 0
27.145000 -0.012092 0
27.150000 -0.010930 0
27.155000 -0.009511 0
27.160000 -0.007741 0
27.165000 -0.005505 0
27.170000 -0.002661 0
27.175000 0.000957 0
27.180000 0.005539 0
27.185000 0.011291 0
27.190000 0.018431 0
27.195000 0.027172 0
27.200000 0.037708 0
27.205000 0.050190 0
27.210000 0.064710 0
27.215000 0.081271 0
27.220000 0.099768 0
27.225000 0.119974 0
27.230000 0.141522 0
27.235000 0.163913 0
27.240000 0.186522 0
27.245000 0.208620 0
27.250000 0.229414 0
27.255000 0.248087 0
27.260000 0.263853 0
27.265000 0.276009 0
27.270000 0.283989 0
27.275000 0.287402 1
27.280000 0.286068 0
27.285000 0.280029 0
27.290000 0.269549 0
27.295000 0.255092 0
27.300000 0.237289 0
27.305000 0.216892 0
27.310000 0.194717 0
27.315000 0.171595 0
27.320000 0.148319 0
27.325000 0.125601 0
27.330000 0.104034 0
27.335000 0.084076 0
27.340000 0.066018 0
27.345000 0.049958 0
27.350000 0.035729 0
27.355000 0.022781 0
27.360000 0.010012 0
27.365000 -0.004354 0
27.370000 -0.022647 0
27.375000 -0.047136 0
27.380000 -0.078807 0
27.385000 -0.115802 0
27.390000 -0.152245 0
27.395000 -0.178199 0
27.400000 -0.180990 2
27.405000 -0.147319 0
27.410000 -0.065444 0
27.415000 0.072447 0
27.420000 0.266674 0
27.425000 0.504996 0
27.430000 0.758445 0
27.435000 0.982753 0
27.440000 1.128742 0
27.445000 1.159250 3
27.450000 1.063772 0
27.455000 0.863172 0
27.460000 0.602042 0
27.465000 0.330438 0
27.470000 0.088903 0
27.475000 -0.098037 0
27.480000 -0.220792 0
27.485000 -0.280840 0
27.490000 -0.287541 4
27.495000 -0.255772 0
27.500000 -0.202992 0
27.505000 -0.145402 0
27.510000 -0.094534 0
27.515000 -0.055824 0
27.520000 -0.029513 0
27.525000 -0.012866 0
27.530000 -0.002360 0
27.535000 0.004970 0
27.540000 0.011111 0
27.545000 0.017194 0
27.550000 0.023799 0
27.555000 0.031215 0
27.560000 0.039598 0
27.565000 0.049050 0
27.570000 0.059646 0
27.575000 0.071447 0
27.580000 0.084495 0
27.585000 0.098813 0
27.590000 0.114402 0
27.595000 0.131235 0
27.600000 0.149259 0
27.605000 0.168385 0
27.610000 0.188494 0
27.615000 0.209429 0
27.620000 0.231002 0
27.625000 0.252990 0
27.630000 0.275140 0
27.635000 0.297172 0
27.640000 0.318786 0
27.645000 0.339665 0
27.650000 0.359485 0
27.655000 0.377921 0
27.660000 0.394657 0
27.665000 0.409395 0
27.670000 0.421859 0
27.675000 0.431811 0
27.680000 0.439051 0
27.685000 0.443428 0
27.690000 0.444841 5
27.695000 0.443246 0
27.700000 0.438657 0
27.705000 0.431141 0
27.710000 0.420824 0
27.715000 0.407881 0
27.720000 0.392533 0
27.725000 0.375041 0
27.730000 0.355695 0
27.735000 0.334812 0
27.740000 0.312721 0
27.745000 0.289758 0
27.750000 0.266256 0
27.755000 0.242536 0
27.760000 0.218904 0
27.765000 0.195640 0
27.770000 0.172994 0
27.775000 0.151186 0
27.780000 0.130401 0
27.785000 0.110785 0
27.790000 0.092452 0
27.795000 0.075479 0
27.800000 0.059910 0
27.805000 0.045760 0
27.810000 0.033018 0
27.815000 0.021648 0
27.820000 0.011597 0
27.825000 0.002796 0
27.830000 -0.004835 0
27.835000 -0.011385 0
27.840000 -0.016947 0
27.845000 -0.021614 0
27.850000 -0.025480 0
27.855000 -0.028637 0
27.860000 -0.031171 0
27.865000 -0.033164 0
27.870000 -0.034690 0
27.875000 -0.035817 0
27.880000 -0.036608 0
27.885000 -0.037115 0
27.890000 -0.037387 0
27.895000 -0.037465 0
27.900000 -0.037385 0
27.905000 -0.037176 0
27.910000 -0.036865 0
27.915000 -0.036471 0
27.920000 -0.036014 0
27.925000 -0.035506 0
27.930000 -0.034960 0
27.935000 -0.034385 0
27.940000 -0.033788 0
27.945000 -0.033130 0
27.950000 -0.032465 0
27.955000 -0.031804 0
27.960000 -0.031145 0
27.965000 -0.030490 0
27.970000 -0.029838 0
27.975000 -0.029190 0
27.980000 -0.028545 0
27.985000 -0.027902 0
27.990000 -0.027264 0
27.995000 -0.026628 0
28.000000 -0.025995 0
28.005000 -0.025366 0
28.010000 -0.024740 0
28.015000 -0.024117 0
28.020000 -0.023497 0
28.025000 -0.022880 0
28.030000 -0.022266 0
28.035000 -0.021655 0
28.040000 -0.021048 0
28.045000 -0.020443 0
28.050000 -0.019841 0
28.055000 -0.019242 0
28.060000 -0.018647 0
28.065000 -0.018054 0
28.070000 -0.017464 0
28.075000 -0.016877 0
28.080000 -0.016292 0
28.085000 -0.015710 0
28.090000 -0.015129 0
28.095000 -0.014550 0
28.100000 -0.013971 0
28.105000 -0.013389 0
28.110000 -0.012801 0
28.115000 -0.012204 0
28.120000 -0.011588 0
28.125000 -0.010942 0
28.130000 -0.010249 0
28.135000 -0.009485 0
28.140000 -0.008616 0
28.145000 -0.007594 0
28.150000 -0.006358 0
28.155000 -0.004825 0
28.160000 -0.002891 0
28.165000 -0.000426 0
28.170000 0.002726 0
28.175000 0.006746 0
28.180000 0.011836 0
28.185000 0.018216 0
28.190000 0.026106 0
28.195000 0.035717 0
28.200000 0.047229 0
28.205000 0.060768 0
28.210000 0.076382 0
28.215000 0.094017 0
28.220000 0.113500 0
28.225000 0.134517 0
28.230000 0.156617 0
28.235000 0.179211 0
28.240000 0.201593 0
28.245000 0.222973 0
28.250000 0.242519 0
28.255000 0.259409 0
28.260000 0.272889 0
28.265000 0.282323 0
28.270000 0.287250 0
28.275000 0.287410 1
28.280000 0.282776 0
28.285000 0.273549 0
28.290000 0.260148 0
28.295000 0.243172 0
28.300000 0.223363 0
28.305000 0.201544 0
28.310000 0.178565 0
28.315000 0.155251 0
28.320000 0.132350 0
28.325000 0.110498 0
28.330000 0.090193 0
28.335000 0.071767 0
28.340000 0.055359 0
28.345000 0.040852 0
28.350000 0.027754 0
28.355000 0.015032 0
28.360000 0.000963 0
28.365000 -0.016786 0
28.370000 -0.040590 0
28.375000 -0.071655 0
28.380000 -0.108404 0
28.385000 -0.145172 0
28.390000 -0.172053 0
28.395000 -0.176198 2
28.400000 -0.143992 0
28.405000 -0.063342 0
28.410000 0.073859 0
28.415000 0.268041 0
28.420000 0.506688 0
28.425000 0.759993 0
28.430000 0.982464 0
