0.000000 1.147689 3
0.005000 1.040810 0
0.010000 0.771502 0
0.015000 0.425003 0
0.020000 0.091215 0
0.025000 -0.168875 0
0.030000 -0.329756 0
0.035000 -0.392663 4
0.040000 -0.376698 0
0.045000 -0.311949 0
0.050000 -0.230452 0
0.055000 -0.156153 0
0.060000 -0.099666 0
0.065000 -0.060329 0
0.070000 -0.032214 0
0.075000 -0.009262 0
0.080000 0.012533 0
0.085000 0.035139 0
0.090000 0.059267 0
0.095000 0.085014 0
0.100000 0.112206 0
0.105000 0.140534 0
0.110000 0.169597 0
0.115000 0.198923 0
0.120000 0.227978 0
0.125000 0.256180 0
0.130000 0.282922 0
0.135000 0.307586 0
0.140000 0.329574 0
0.145000 0.348324 0
0.150000 0.363338 0
0.155000 0.374204 0
0.160000 0.380611 0
0.165000 0.382366 5
0.170000 0.379404 0
0.175000 0.371787 0
0.180000 0.359708 0
0.185000 0.343476 0
0.190000 0.323507 0
0.195000 0.300306 0
0.200000 0.274441 0
0.205000 0.246527 0
0.210000 0.217193 0
0.215000 0.187067 0
0.220000 0.156748 0
0.225000 0.126792 0
0.230000 0.097692 0
0.235000 0.069869 0
0.240000 0.043668 0
0.245000 0.019348 0
0.250000 -0.002910 0
0.255000 -0.023001 0
0.260000 -0.040891 0
0.265000 -0.056606 0
0.270000 -0.070221 0
0.275000 -0.081852 0
0.280000 -0.091645 0
0.285000 -0.099762 0
0.290000 -0.106378 0
0.295000 -0.111670 0
0.300000 -0.115811 0
0.305000 -0.118965 0
0.310000 -0.121286 0
0.315000 -0.122911 0
0.320000 -0.123963 0
0.325000 -0.124550 0
0.330000 -0.124764 0
0.335000 -0.123919 0
0.340000 -0.122898 0
0.345000 -0.121883 0
0.350000 -0.120873 0
0.355000 -0.119868 0
0.360000 -0.118867 0
0.365000 -0.117872 0
0.370000 -0.116882 0
0.375000 -0.115896 0
0.380000 -0.114915 0
0.385000 -0.113938 0
0.390000 -0.112964 0
0.395000 -0.111991 0
0.400000 -0.111017 0
0.405000 -0.110037 0
0.410000 -0.109041 0
0.415000 -0.108015 0
0.420000 -0.106934 0
0.425000 -0.105762 0
0.430000 -0.104441 0
0.435000 -0.102886 0
0.440000 -0.100977 0
0.445000 -0.098549 0
0.450000 -0.095381 0
0.455000 -0.091197 0
0.460000 -0.085658 0
0.465000 -0.078379 0
0.470000 -0.068941 0
0.475000 -0.056931 0
0.480000 -0.041987 0
0.485000 -0.023857 0
0.490000 -0.002466 0
0.495000 0.022019 0
0.500000 0.049140 0
0.505000 0.078116 0
0.510000 0.107857 0
0.515000 0.137007 0
0.520000 0.164039 0
0.525000 0.187380 0
0.530000 0.205563 0
0.535000 0.217377 0
0.540000 0.222003 1
0.545000 0.219106 0
0.550000 0.208877 0
0.555000 0.192013 0
0.560000 0.169636 0
0.565000 0.143174 0
0.570000 0.114204 0
0.575000 0.084293 0
0.580000 0.054817 0
0.585000 0.026746 0
0.590000 0.000299 0
0.595000 -0.025544 0
0.600000 -0.053491 0
0.605000 -0.087642 0
0.610000 -0.131473 0
0.615000 -0.183934 0
0.620000 -0.235480 0
0.625000 -0.267169 2
0.630000 -0.254243 0
0.635000 -0.172156 0
0.640000 -0.003024 0
0.645000 0.255365 0
0.650000 0.575879 0
0.655000 0.892426 0
0.660000 1.112425 0
0.665000 1.157201 3
0.670000 1.005657 0
0.675000 0.708462 0
0.680000 0.357405 0
0.685000 0.038255 0
0.690000 -0.196830 0
0.695000 -0.330223 0
0.700000 -0.368813 4
0.705000 -0.335764 0
0.710000 -0.263164 0
0.715000 -0.182012 0
0.720000 -0.112747 0
0.725000 -0.062148 0
0.730000 -0.027207 0
0.735000 -0.001456 0
0.740000 0.020673 0
0.745000 0.042488 0
0.750000 0.065466 0
0.755000 0.090057 0
0.760000 0.116238 0
0.765000 0.143775 0
0.770000 0.172319 0
0.775000 0.201435 0
0.780000 0.230621 0
0.785000 0.259313 0
0.790000 0.286912 0
0.795000 0.312795 0
0.800000 0.336341 0
0.805000 0.356955 0
0.810000 0.374095 0
0.815000 0.387287 0
0.820000 0.396157 0
0.825000 0.400441 5
0.830000 0.399998 0
0.835000 0.394819 0
0.840000 0.385029 0
0.845000 0.370878 0
0.850000 0.352731 0
0.855000 0.331055 0
0.860000 0.306395 0
0.865000 0.279352 0
0.870000 0.250558 0
0.875000 0.220654 0
0.880000 0.190264 0
0.885000 0.159973 0
0.890000 0.130314 0
0.895000 0.101749 0
0.900000 0.074664 0
0.905000 0.049363 0
0.910000 0.026064 0
0.915000 0.004908 0
0.920000 -0.014040 0
0.925000 -0.030781 0
0.930000 -0.045371 0
0.935000 -0.057911 0
0.940000 -0.068537 0
0.945000 -0.077408 0
0.950000 -0.084697 0
0.955000 -0.090582 0
0.960000 -0.095242 0
0.965000 -0.098846 0
0.970000 -0.101555 0
0.975000 -0.103514 0
0.980000 -0.104853 0
0.985000 -0.105687 0
0.990000 -0.106114 0
0.995000 -0.106067 0
1.000000 -0.105136 0
1.005000 -0.104209 0
1.010000 -0.103287 0
1.015000 -0.102369 0
1.020000 -0.101457 0
1.025000 -0.100548 0
1.030000 -0.099644 0
1.035000 -0.098744 0
1.040000 -0.097849 0
1.045000 -0.096957 0
1.050000 -0.096068 0
1.055000 -0.095181 0
1.060000 -0.094293 0
1.065000 -0.093400 0
1.070000 -0.092493 0
1.075000 -0.091559 0
1.080000 -0.090577 0
1.085000 -0.089513 0
1.090000 -0.088312 0
1.095000 -0.086897 0
1.100000 -0.085153 0
1.105000 -0.082923 0
1.110000 -0.079997 0
1.115000 -0.076103 0
1.120000 -0.070911 0
1.125000 -0.064038 0
1.130000 -0.055062 0
1.135000 -0.043563 0
1.140000 -0.029160 0
1.145000 -0.011578 0
1.150000 0.009289 0
1.155000 0.033310 0
1.160000 0.060063 0
1.165000 0.088798 0
1.170000 0.118445 0
1.175000 0.147659 0
1.180000 0.174905 0
1.185000 0.198589 0
1.190000 0.217208 0
1.195000 0.229506 0
1.200000 0.234618 1
1.205000 0.232166 0
1.210000 0.222307 0
1.215000 0.205717 0
1.220000 0.183512 0
1.225000 0.157125 0
1.230000 0.128152 0
1.235000 0.098183 0
1.240000 0.068620 0
1.245000 0.040455 0
1.250000 0.013929 0
1.255000 -0.011982 0
1.260000 -0.040015 0
1.265000 -0.074321 0
1.270000 -0.118393 0
1.275000 -0.171045 0
1.280000 -0.222378 0
1.285000 -0.252964 2
1.290000 -0.237629 0
1.295000 -0.151667 0
1.300000 0.022502 0
1.305000 0.285837 0
1.310000 0.608541 0
1.315000 0.921091 0
1.320000 1.129147 0
1.325000 1.156433 3
1.330000 0.989454 0
1.335000 0.684860 0
1.340000 0.333486 0
1.345000 0.017613 0
1.350000 -0.213672 0
1.355000 -0.344303 0
1.360000 -0.381547 4
1.365000 -0.348235 0
1.370000 -0.275749 0
1.375000 -0.194444 0
1.380000 -0.124563 0
1.385000 -0.073110 0
1.390000 -0.037420 0
1.395000 -0.011210 0
1.400000 0.011092 0
1.405000 0.032889 0
1.410000 0.055751 0
1.415000 0.080187 0
1.420000 0.106210 0
1.425000 0.133609 0
1.430000 0.162057 0
1.435000 0.191142 0
1.440000 0.220380 0
1.445000 0.249234 0
1.450000 0.277121 0
1.455000 0.303436 0
1.460000 0.327571 0
1.465000 0.348938 0
1.470000 0.366991 0
1.475000 0.381252 0
1.480000 0.391328 0
1.485000 0.396931 0
1.490000 0.397888 5
1.495000 0.394155 0
1.500000 0.385813 0
1.505000 0.373069 0
1.510000 0.356245 0
1.515000 0.335765 0
1.520000 0.312138 0
1.525000 0.285932 0
1.530000 0.257759 0
1.535000 0.228242 0
1.540000 0.198001 0
1.545000 0.167625 0
1.550000 0.137657 0
1.555000 0.108581 0
1.560000 0.080807 0
1.565000 0.054668 0
1.570000 0.030417 0
1.575000 0.008227 0
1.580000 -0.011803 0
1.585000 -0.029644 0
1.590000 -0.045322 0
1.595000 -0.058916 0
1.600000 -0.070541 0
1.605000 -0.080341 0
1.610000 -0.088479 0
1.615000 -0.095127 0
1.620000 -0.100460 0
1.625000 -0.104649 0
1.630000 -0.107858 0
1.635000 -0.110237 0
1.640000 -0.111923 0
1.645000 -0.113037 0
1.650000 -0.113687 0
1.655000 -0.113963 0
1.660000 -0.113173 0
1.665000 -0.112206 0
1.670000 -0.111244 0
1.675000 -0.110287 0
1.680000 -0.109335 0
1.685000 -0.108387 0
1.690000 -0.107444 0
1.695000 -0.106506 0
1.700000 -0.105572 0
1.705000 -0.104642 0
1.710000 -0.103716 0
1.715000 -0.102793 0
1.720000 -0.101872 0
1.725000 -0.100949 0
1.730000 -0.100021 0
1.735000 -0.099078 0
1.740000 -0.098106 0
1.745000 -0.097085 0
1.750000 -0.095977 0
1.755000 -0.094729 0
1.760000 -0.093263 0
1.765000 -0.091463 0
1.770000 -0.089174 0
1.775000 -0.086186 0
1.780000 -0.082235 0
1.785000 -0.076995 0
1.790000 -0.070092 0
1.795000 -0.061115 0
1.800000 -0.049651 0
1.805000 -0.035328 0
1.810000 -0.017873 0
1.815000 0.002827 0
1.820000 0.026660 0
1.825000 0.053234 0
1.830000 0.081845 0
1.835000 0.111476 0
1.840000 0.140837 0
1.845000 0.168446 0
1.850000 0.192745 0
1.855000 0.212243 0
1.860000 0.225669 0
1.865000 0.232106 1
1.870000 0.231097 0
1.875000 0.222696 0
1.880000 0.207465 0
1.885000 0.186414 0
1.890000 0.160886 0
1.895000 0.132416 0
1.900000 0.102575 0
1.905000 0.072799 0
1.910000 0.044194 0
1.915000 0.017245 0
1.920000 -0.008623 0
1.925000 -0.035546 0
1.930000 -0.067265 0
1.935000 -0.107766 0
1.940000 -0.157975 0
1.945000 -0.211561 0
1.950000 -0.252741 0
1.955000 -0.258377 2
1.960000 -0.203403 0
1.965000 -0.066981 0
1.970000 0.160025 0
1.975000 0.463068 0
1.980000 0.791159 0
1.985000 1.059132 0
1.990000 1.178044 3
1.995000 1.101218 0
2.000000 0.852196 0
2.005000 0.511237 0
2.010000 0.170378 0
2.015000 -0.103821 0
2.020000 -0.280742 0
2.025000 -0.358140 4
2.030000 -0.352791 0
2.035000 -0.293589 0
2.040000 -0.212970 0
2.045000 -0.136664 0
2.050000 -0.077386 0
2.055000 -0.035868 0
2.060000 -0.006596 0
2.065000 0.016689 0
2.070000 0.038344 0
2.075000 0.060610 0
2.080000 0.084341 0
2.085000 0.109700 0
2.090000 0.136543 0
2.095000 0.164576 0
2.100000 0.193413 0
2.105000 0.222591 0
2.110000 0.251584 0
2.115000 0.279817 0
2.120000 0.306685 0
2.125000 0.331571 0
2.130000 0.353872 0
2.135000 0.373018 0
2.140000 0.388501 0
2.145000 0.399893 0
2.150000 0.406867 0
2.155000 0.409212 5
2.160000 0.406841 0
2.165000 0.399798 0
2.170000 0.388256 0
2.175000 0.372506 0
2.180000 0.352950 0
2.185000 0.330079 0
2.190000 0.304455 0
2.195000 0.276685 0
2.200000 0.247399 0
2.205000 0.217227 0
2.210000 0.186773 0
2.215000 0.156601 0
2.220000 0.127215 0
2.225000 0.099047 0
2.230000 0.072453 0
2.235000 0.047707 0
2.240000 0.025002 0
2.245000 0.004452 0
2.250000 -0.013897 0
2.255000 -0.030062 0
2.260000 -0.044112 0
2.265000 -0.056159 0
2.270000 -0.066342 0
2.275000 -0.074823 0
2.280000 -0.081775 0
2.285000 -0.087376 0
2.290000 -0.091799 0
2.295000 -0.095211 0
2.300000 -0.097766 0
2.305000 -0.099604 0
2.310000 -0.100852 0
2.315000 -0.101618 0
2.320000 -0.101997 0
2.325000 -0.101927 0
2.330000 -0.101016 0
2.335000 -0.100110 0
2.340000 -0.099208 0
2.345000 -0.098311 0
2.350000 -0.097418 0
2.355000 -0.096530 0
2.360000 -0.095646 0
2.365000 -0.094766 0
2.370000 -0.093890 0
2.375000 -0.093018 0
2.380000 -0.092149 0
2.385000 -0.091281 0
2.390000 -0.090411 0
2.395000 -0.089536 0
2.400000 -0.088646 0
2.405000 -0.087728 0
2.410000 -0.086760 0
2.415000 -0.085707 0
2.420000 -0.084514 0
2.425000 -0.083101 0
2.430000 -0.081355 0
2.435000 -0.079117 0
2.440000 -0.076176 0
2.445000 -0.072264 0
2.450000 -0.067052 0
2.455000 -0.060159 0
2.460000 -0.051170 0
2.465000 -0.039670 0
2.470000 -0.025283 0
2.475000 -0.007738 0
2.480000 0.013071 0
2.485000 0.037017 0
2.490000 0.063689 0
2.495000 0.092356 0
2.500000 0.121969 0
2.505000 0.151210 0
2.510000 0.178569 0
2.515000 0.202470 0
2.520000 0.221421 0
2.525000 0.234164 0
2.530000 0.239812 1
2.535000 0.237954 0
2.540000 0.228702 0
2.545000 0.212681 0
2.550000 0.190957 0
2.555000 0.164919 0
2.560000 0.136135 0
2.565000 0.106183 0
2.570000 0.076481 0
2.575000 0.048076 0
2.580000 0.021329 0
2.585000 -0.004561 0
2.590000 -0.032040 0
2.595000 -0.065077 0
2.600000 -0.107452 0
2.605000 -0.159077 0
2.610000 -0.211837 0
2.615000 -0.248064 2
2.620000 -0.243503 0
2.625000 -0.173181 0
2.630000 -0.017754 0
2.635000 0.228101 0
2.640000 0.542521 0
2.645000 0.865140 0
2.650000 1.105310 0
2.655000 1.179126 3
2.660000 1.054224 0
2.665000 0.770639 0
2.670000 0.420808 0
2.675000 0.096126 0
2.680000 -0.145864 0
2.685000 -0.284639 0
2.690000 -0.326243 4
2.695000 -0.294228 0
2.700000 -0.221771 0
2.705000 -0.140946 0
2.710000 -0.072618 0
2.715000 -0.023294 0
2.720000 0.010508 0
2.725000 0.035528 0
2.730000 0.057326 0
2.735000 0.079076 0
2.740000 0.102124 0
2.745000 0.126836 0
2.750000 0.153138 0
2.755000 0.180762 0
2.760000 0.209324 0
2.765000 0.238357 0
2.770000 0.267322 0
2.775000 0.295623 0
2.780000 0.322630 0
2.785000 0.347693 0
2.790000 0.370176 0
2.795000 0.389475 0
2.800000 0.405050 0
2.805000 0.416448 0
2.810000 0.423322 0
2.815000 0.425449 5
2.820000 0.422741 0
2.825000 0.415253 0
2.830000 0.403174 0
2.835000 0.386824 0
2.840000 0.366637 0
2.845000 0.343141 0
2.850000 0.316938 0
2.855000 0.288671 0
2.860000 0.259005 0
2.865000 0.228596 0
2.870000 0.198069 0
2.875000 0.167999 0
2.880000 0.138891 0
2.885000 0.111173 0
2.890000 0.085186 0
2.895000 0.061183 0
2.900000 0.039331 0
2.905000 0.019717 0
2.910000 0.002356 0
2.915000 -0.012800 0
2.920000 -0.025846 0
2.925000 -0.036917 0
2.930000 -0.046175 0
2.935000 -0.053798 0
2.940000 -0.059972 0
2.945000 -0.064879 0
2.950000 -0.068699 0
2.955000 -0.071597 0
2.960000 -0.073725 0
2.965000 -0.075219 0
2.970000 -0.076197 0
2.975000 -0.076762 0
2.980000 -0.076851 0
2.985000 -0.076065 0
2.990000 -0.075283 0
2.995000 -0.074506 0
3.000000 -0.073732 0
3.005000 -0.072962 0
3.010000 -0.072195 0
3.015000 -0.071433 0
3.020000 -0.070674 0
3.025000 -0.069918 0
3.030000 -0.069165 0
3.035000 -0.068415 0
3.040000 -0.067664 0
3.045000 -0.066911 0
3.050000 -0.066150 0
3.055000 -0.065370 0
3.060000 -0.064557 0
3.065000 -0.063683 0
3.070000 -0.062706 0
3.075000 -0.061563 0
3.080000 -0.060157 0
3.085000 -0.058354 0
3.090000 -0.055966 0
3.095000 -0.052747 0
3.100000 -0.048388 0
3.105000 -0.042515 0
3.110000 -0.034709 0
3.115000 -0.024528 0
3.120000 -0.011550 0
3.125000 0.004566 0
3.130000 0.024011 0
3.135000 0.046754 0
3.140000 0.072478 0
3.145000 0.100530 0
3.150000 0.129910 0
3.155000 0.159308 0
3.160000 0.187178 0
3.165000 0.211870 0
3.170000 0.231784 0
3.175000 0.245538 0
3.180000 0.252131 1
3.185000 0.251056 0
3.190000 0.242368 0
3.195000 0.226676 0
3.200000 0.205075 0
3.205000 0.179013 0
3.210000 0.150134 0
3.215000 0.120094 0
3.220000 0.090372 0
3.225000 0.062032 0
3.230000 0.035363 0
3.235000 0.009345 0
3.240000 -0.018847 0
3.245000 -0.053521 0
3.250000 -0.098201 0
3.255000 -0.151286 0
3.260000 -0.201815 0
3.265000 -0.228930 2
3.270000 -0.206278 0
3.275000 -0.108772 0
3.280000 0.080075 0
3.285000 0.357147 0
3.290000 0.684367 0
3.295000 0.982376 0
3.300000 1.153137 3
3.305000 1.129437 0
3.310000 0.916126 0
3.315000 0.586970 0
3.320000 0.240080 0
3.325000 -0.047771 0
3.330000 -0.238456 0
3.335000 -0.326165 0
3.340000 -0.326736 4
3.345000 -0.269812 0
3.350000 -0.189574 0
3.355000 -0.113403 0
3.360000 -0.054723 0
3.365000 -0.014097 0
3.370000 0.014409 0
3.375000 0.037274 0
3.380000 0.058836 0
3.385000 0.081219 0
3.390000 0.105171 0
3.395000 0.130785 0
3.400000 0.157868 0
3.405000 0.186085 0
3.410000 0.215005 0
3.415000 0.244121 0
3.420000 0.272861 0
3.425000 0.300604 0
3.430000 0.326705 0
3.435000 0.350518 0
3.440000 0.371418 0
3.445000 0.388831 0
3.450000 0.402259 0
3.455000 0.411301 0
3.460000 0.415676 5
3.465000 0.415232 0
3.470000 0.409959 0
3.475000 0.399984 0
3.480000 0.385571 0
3.485000 0.367105 0
3.490000 0.345077 0
3.495000 0.320058 0
3.500000 0.292679 0
3.505000 0.263600 0
3.510000 0.233486 0
3.515000 0.202980 0
3.520000 0.172684 0
3.525000 0.143136 0
3.530000 0.114802 0
3.535000 0.088063 0
3.540000 0.063209 0
3.545000 0.040447 0
3.550000 0.019897 0
3.555000 0.001604 0
3.560000 -0.014453 0
3.565000 -0.028350 0
3.570000 -0.040209 0
3.575000 -0.050180 0
3.580000 -0.058438 0
3.585000 -0.065164 0
3.590000 -0.070546 0
3.595000 -0.074764 0
3.600000 -0.077992 0
3.605000 -0.080387 0
3.610000 -0.082092 0
3.615000 -0.083234 0
3.620000 -0.083921 0
3.625000 -0.084247 0
3.630000 -0.083590 0
3.635000 -0.082770 0
3.640000 -0.081955 0
3.645000 -0.081144 0
3.650000 -0.080337 0
3.655000 -0.079534 0
3.660000 -0.078735 0
3.665000 -0.077939 0
3.670000 -0.077148 0
3.675000 -0.076359 0
3.680000 -0.075574 0
3.685000 -0.074789 0
3.690000 -0.074004 0
3.695000 -0.073212 0
3.700000 -0.072408 0
3.705000 -0.071577 0
3.710000 -0.070697 0
3.715000 -0.069733 0
3.720000 -0.068629 0
3.725000 -0.067305 0
3.730000 -0.065640 0
3.735000 -0.063467 0
3.740000 -0.060563 0
3.745000 -0.056643 0
3.750000 -0.051354 0
3.755000 -0.044291 0
3.760000 -0.035015 0
3.765000 -0.023089 0
3.770000 -0.008135 0
3.775000 0.010104 0
3.780000 0.031689 0
3.785000 0.056412 0
3.790000 0.083745 0
3.795000 0.112811 0
3.800000 0.142403 0
3.805000 0.171043 0
3.810000 0.197097 0
3.815000 0.218922 0
3.820000 0.235036 0
3.825000 0.244283 0
3.830000 0.245968 1
3.835000 0.239944 0
3.840000 0.226633 0
3.845000 0.206972 0
3.850000 0.182309 0
3.855000 0.154244 0
3.860000 0.124454 0
3.865000 0.094506 0
3.870000 0.065642 0
3.875000 0.038471 0
3.880000 0.012481 0
3.885000 -0.014520 0
3.890000 -0.046487 0
3.895000 -0.087618 0
3.900000 -0.138575 0
3.905000 -0.191793 0
3.910000 -0.229371 2
3.915000 -0.225992 0
3.920000 -0.155317 0
3.925000 0.002941 0
3.930000 0.253639 0
3.935000 0.571514 0
3.940000 0.889546 0
3.945000 1.110870 0
3.950000 1.152452 3
3.955000 0.995040 0
3.960000 0.694247 0
3.965000 0.343024 0
3.970000 0.026711 0
3.975000 -0.203794 0
3.980000 -0.332115 0
3.985000 -0.366173 4
3.990000 -0.329975 0
3.995000 -0.256060 0
4.000000 -0.175219 0
4.005000 -0.107159 0
4.010000 -0.057857 0
4.015000 -0.023839 0
4.020000 0.001451 0
4.025000 0.023455 0
4.030000 0.045327 0
4.035000 0.068437 0
4.040000 0.093176 0
4.045000 0.119496 0
4.050000 0.147148 0
4.055000 0.175769 0
4.060000 0.204916 0
4.065000 0.234074 0
4.070000 0.262672 0
4.075000 0.290102 0
4.080000 0.315735 0
4.085000 0.338949 0
4.090000 0.359150 0
4.095000 0.375798 0
4.100000 0.388429 0
4.105000 0.396680 0
4.110000 0.400300 5
4.115000 0.399168 0
4.120000 0.393294 0
4.125000 0.382822 0
4.130000 0.368023 0
4.135000 0.349281 0
4.140000 0.327081 0
4.145000 0.301982 0
4.150000 0.274596 0
4.155000 0.245563 0
4.160000 0.215527 0
4.165000 0.185112 0
4.170000 0.154897 0
4.175000 0.125407 0
4.180000 0.097095 0
4.185000 0.070333 0
4.190000 0.045409 0
4.195000 0.022529 0
4.200000 0.001818 0
4.205000 -0.016673 0
4.210000 -0.032956 0
4.215000 -0.047100 0
4.220000 -0.059213 0
4.225000 -0.069440 0
4.230000 -0.077943 0
4.235000 -0.084900 0
4.240000 -0.090490 0
4.245000 -0.094891 0
4.250000 -0.098273 0
4.255000 -0.100793 0
4.260000 -0.102593 0
4.265000 -0.103802 0
4.270000 -0.104530 0
4.275000 -0.104872 0
4.280000 -0.104130 0
4.285000 -0.103208 0
4.290000 -0.102291 0
4.295000 -0.101379 0
4.300000 -0.100471 0
4.305000 -0.099567 0
4.310000 -0.098668 0
4.315000 -0.097774 0
4.320000 -0.096883 0
4.325000 -0.095997 0
4.330000 -0.095114 0
4.335000 -0.094234 0
4.340000 -0.093355 0
4.345000 -0.092473 0
4.350000 -0.091584 0
4.355000 -0.090678 0
4.360000 -0.089740 0
4.365000 -0.088743 0
4.370000 -0.087649 0
4.375000 -0.086396 0
4.380000 -0.084893 0
4.385000 -0.083014 0
4.390000 -0.080581 0
4.395000 -0.077363 0
4.400000 -0.073068 0
4.405000 -0.067341 0
4.410000 -0.059781 0
4.415000 -0.049959 0
4.420000 -0.037460 0
4.425000 -0.021931 0
4.430000 -0.003149 0
4.435000 0.018912 0
4.440000 0.044017 0
4.445000 0.071620 0
4.450000 0.100841 0
4.455000 0.130490 0
4.460000 0.159126 0
4.465000 0.185161 0
4.470000 0.207009 0
4.475000 0.223235 0
4.480000 0.232718 0
4.485000 0.234773 1
4.490000 0.229237 0
4.495000 0.216487 0
4.500000 0.197399 0
4.505000 0.173248 0
4.510000 0.145565 0
4.515000 0.115977 0
4.520000 0.086025 0
4.525000 0.056978 0
4.530000 0.029558 0
4.535000 0.003518 0
4.540000 -0.022898 0
4.545000 -0.053203 0
4.550000 -0.091669 0
4.555000 -0.140252 0
4.560000 -0.194143 0
4.565000 -0.238781 0
4.570000 -0.251227 2
4.575000 -0.205546 0
4.580000 -0.079327 0
4.585000 0.138733 0
4.590000 0.436696 0
4.595000 0.765412 0
4.600000 1.038933 0
4.605000 1.164739 3
4.610000 1.092387 0
4.615000 0.844458 0
4.620000 0.503267 0
4.625000 0.163467 0
4.630000 -0.107214 0
4.635000 -0.278525 0
4.640000 -0.349408 4
4.645000 -0.338246 0
4.650000 -0.275508 0
4.655000 -0.194361 0
4.660000 -0.119940 0
4.665000 -0.063508 0
4.670000 -0.024470 0
4.675000 0.003285 0
4.680000 0.025963 0
4.685000 0.047599 0
4.690000 0.070134 0
4.695000 0.094240 0
4.700000 0.119984 0
4.705000 0.147168 0
4.710000 0.175463 0
4.715000 0.204443 0
4.720000 0.233613 0
4.725000 0.262410 0
4.730000 0.290231 0
4.735000 0.316443 0
4.740000 0.340412 0
4.745000 0.361528 0
4.750000 0.379224 0
4.755000 0.393009 0
4.760000 0.402482 0
4.765000 0.407357 0
4.770000 0.407475 5
4.775000 0.402808 0
4.780000 0.393468 0
4.785000 0.379696 0
4.790000 0.361852 0
4.795000 0.340404 0
4.800000 0.315899 0
4.805000 0.288947 0
4.810000 0.260191 0
4.815000 0.230281 0
4.820000 0.199856 0
4.825000 0.169512 0
4.830000 0.139793 0
4.835000 0.111172 0
4.840000 0.084042 0
4.845000 0.058711 0
4.850000 0.035403 0
4.855000 0.014259 0
4.860000 -0.004658 0
4.865000 -0.021349 0
4.870000 -0.035875 0
4.875000 -0.048339 0
4.880000 -0.058883 0
4.885000 -0.067669 0
4.890000 -0.074875 0
4.895000 -0.080682 0
4.900000 -0.085271 0
4.905000 -0.088814 0
4.910000 -0.091471 0
4.915000 -0.093390 0
4.920000 -0.094701 0
4.925000 -0.095517 0
4.930000 -0.095937 0
4.935000 -0.095900 0
4.940000 -0.095020 0
4.945000 -0.094144 0
4.950000 -0.093272 0
4.955000 -0.092404 0
4.960000 -0.091541 0
4.965000 -0.090682 0
4.970000 -0.089827 0
4.975000 -0.088976 0
4.980000 -0.088129 0
4.985000 -0.087286 0
4.990000 -0.086445 0
4.995000 -0.085604 0
5.000000 -0.084762 0
5.005000 -0.083911 0
5.010000 -0.083044 0
5.015000 -0.082144 0
5.020000 -0.081185 0
5.025000 -0.080127 0
5.030000 -0.078907 0
5.035000 -0.077436 0
5.040000 -0.075581 0
5.045000 -0.073164 0
5.050000 -0.069948 0
5.055000 -0.065635 0
5.060000 -0.059864 0
5.065000 -0.052228 0
5.070000 -0.042294 0
5.075000 -0.029642 0
5.080000 -0.013924 0
5.085000 0.005075 0
5.090000 0.027364 0
5.095000 0.052681 0
5.100000 0.080443 0
5.105000 0.109733 0
5.110000 0.139318 0
5.115000 0.167720 0
5.120000 0.193328 0
5.125000 0.214546 0
5.130000 0.229955 0
5.135000 0.238469 0
5.140000 0.239462 1
5.145000 0.232844 0
5.150000 0.219070 0
5.155000 0.199094 0
5.160000 0.174252 0
5.165000 0.146120 0
5.170000 0.116340 0
5.175000 0.086439 0
5.180000 0.057625 0
5.185000 0.030488 0
5.190000 0.004536 0
5.195000 -0.022350 0
5.200000 -0.054009 0
5.205000 -0.094603 0
5.210000 -0.145059 0
5.215000 -0.198544 0
5.220000 -0.238196 0
5.225000 -0.239592 2
5.230000 -0.176756 0
5.235000 -0.028877 0
5.240000 0.211143 0
5.245000 0.523074 0
5.250000 0.846796 0
5.255000 1.089606 0
5.260000 1.164501 3
5.265000 1.038607 0
5.270000 0.754205 0
5.275000 0.404295 0
5.280000 0.080434 0
5.285000 -0.160064 0
5.290000 -0.297046 0
5.295000 -0.336936 4
5.300000 -0.303652 0
5.305000 -0.230610 0
5.310000 -0.149857 0
5.315000 -0.081980 0
5.320000 -0.033154 0
5.325000 0.000313 0
5.330000 0.025198 0
5.335000 0.047008 0
5.340000 0.068848 0
5.345000 0.092018 0
5.350000 0.116859 0
5.355000 0.143284 0
5.360000 0.171018 0
5.365000 0.199671 0
5.370000 0.228770 0
5.375000 0.257770 0
5.380000 0.286071 0
5.385000 0.313036 0
5.390000 0.338014 0
5.395000 0.360366 0
5.400000 0.379490 0
5.405000 0.394849 0
5.410000 0.405993 0
5.415000 0.412581 0
5.420000 0.414401 5
5.425000 0.411375 0
5.430000 0.403567 0
5.435000 0.391178 0
5.440000 0.374541 0
5.445000 0.354099 0
5.450000 0.330391 0
5.455000 0.304026 0
5.460000 0.275652 0
5.465000 0.245938 0
5.470000 0.215542 0
5.475000 0.185086 0
5.480000 0.155141 0
5.485000 0.126209 0
5.490000 0.098709 0
5.495000 0.072975 0
5.500000 0.049251 0
5.505000 0.027697 0
5.510000 0.008390 0
5.515000 -0.008663 0
5.520000 -0.023513 0
5.525000 -0.036265 0
5.530000 -0.047056 0
5.535000 -0.056053 0
5.540000 -0.063435 0
5.545000 -0.069388 0
5.550000 -0.074097 0
5.555000 -0.077739 0
5.560000 -0.080479 0
5.565000 -0.082468 0
5.570000 -0.083839 0
5.575000 -0.084709 0
5.580000 -0.085178 0
5.585000 -0.085190 0
5.590000 -0.084363 0
5.595000 -0.083539 0
5.600000 -0.082720 0
5.605000 -0.081906 0
5.610000 -0.081095 0
5.615000 -0.080288 0
5.620000 -0.079485 0
5.625000 -0.078686 0
5.630000 -0.077890 0
5.635000 -0.077097 0
5.640000 -0.076307 0
5.645000 -0.075516 0
5.650000 -0.074722 0
5.655000 -0.073919 0
5.660000 -0.073095 0
5.665000 -0.072233 0
5.670000 -0.071305 0
5.675000 -0.070263 0
5.680000 -0.069039 0
5.685000 -0.067530 0
5.690000 -0.065590 0
5.695000 -0.063020 0
5.700000 -0.059561 0
5.705000 -0.054888 0
5.710000 -0.048616 0
5.715000 -0.040315 0
5.720000 -0.029542 0
5.725000 -0.015885 0
5.730000 0.000972 0
5.735000 0.021181 0
5.740000 0.044653 0
5.745000 0.070997 0
5.750000 0.099482 0
5.755000 0.129028 0
5.760000 0.158258 0
5.765000 0.185582 0
5.770000 0.209339 0
5.775000 0.227957 0
5.780000 0.240127 0
5.785000 0.244949 1
5.790000 0.242048 0
5.795000 0.231615 0
5.800000 0.214390 0
5.805000 0.191574 0
5.810000 0.164686 0
5.815000 0.135397 0
5.820000 0.105345 0
5.825000 0.075935 0
5.830000 0.048077 0
5.835000 0.021778 0
5.840000 -0.004428 0
5.845000 -0.033864 0
5.850000 -0.070968 0
5.855000 -0.118381 0
5.860000 -0.172272 0
5.865000 -0.218752 0
5.870000 -0.234743 2
5.875000 -0.193433 0
5.880000 -0.071229 0
5.885000 0.144259 0
5.890000 0.441480 0
5.895000 0.769998 0
5.900000 1.040813 0
5.905000 1.158866 3
5.910000 1.076510 0
5.915000 0.822727 0
5.920000 0.480098 0
5.925000 0.141409 0
5.930000 -0.127639 0
5.935000 -0.297907 0
5.940000 -0.368593 4
5.945000 -0.357809 0
5.950000 -0.295492 0
5.955000 -0.214332 0
5.960000 -0.139352 0
5.965000 -0.082067 0
5.970000 -0.042234 0
5.975000 -0.013946 0
5.980000 0.008987 0
5.985000 0.030688 0
5.990000 0.053188 0
5.995000 0.077219 0
6.000000 0.102882 0
6.005000 0.130000 0
6.010000 0.158257 0
6.015000 0.187248 0
6.020000 0.216491 0
6.025000 0.245441 0
6.030000 0.273508 0
6.035000 0.300074 0
6.040000 0.324514 0
6.045000 0.346221 0
6.050000 0.364630 0
6.055000 0.379241 0
6.060000 0.389643 0
6.065000 0.395531 0
6.070000 0.396723 5
6.075000 0.393163 0
6.080000 0.384932 0
6.085000 0.372238 0
6.090000 0.355410 0
6.095000 0.334883 0
6.100000 0.311179 0
6.105000 0.284883 0
6.110000 0.256621 0
6.115000 0.227035 0
6.120000 0.196757 0
6.125000 0.166390 0
6.130000 0.136484 0
6.135000 0.107529 0
6.140000 0.079936 0
6.145000 0.054037 0
6.150000 0.030079 0
6.155000 0.008228 0
6.160000 -0.011428 0
6.165000 -0.028868 0
6.170000 -0.044132 0
6.175000 -0.057307 0
6.180000 -0.068520 0
6.185000 -0.077923 0
6.190000 -0.085686 0
6.195000 -0.091987 0
6.200000 -0.097005 0
6.205000 -0.100914 0
6.210000 -0.103877 0
6.215000 -0.106044 0
6.220000 -0.107551 0
6.225000 -0.108519 0
6.230000 -0.109049 0
6.235000 -0.109231 0
6.240000 -0.108447 0
6.245000 -0.107504 0
6.250000 -0.106566 0
6.255000 -0.105632 0
6.260000 -0.104702 0
6.265000 -0.103778 0
6.270000 -0.102858 0
6.275000 -0.101942 0
6.280000 -0.101031 0
6.285000 -0.100124 0
6.290000 -0.099219 0
6.295000 -0.098318 0
6.300000 -0.097416 0
6.305000 -0.096510 0
6.310000 -0.095595 0
6.315000 -0.094657 0
6.320000 -0.093679 0
6.325000 -0.092630 0
6.330000 -0.091463 0
6.335000 -0.090109 0
6.340000 -0.088464 0
6.345000 -0.086386 0
6.350000 -0.083678 0
6.355000 -0.080091 0
6.360000 -0.075309 0
6.365000 -0.068962 0
6.370000 -0.060639 0
6.375000 -0.049912 0
6.380000 -0.036384 0
6.385000 -0.019740 0
6.390000 0.000181 0
6.395000 0.023326 0
6.400000 0.049360 0
6.405000 0.077630 0
6.410000 0.107154 0
6.415000 0.136658 0
6.420000 0.164648 0
6.425000 0.189529 0
6.430000 0.209754 0
6.435000 0.223979 0
6.440000 0.231213 1
6.445000 0.230932 0
6.450000 0.223139 0
6.455000 0.208369 0
6.460000 0.187626 0
6.465000 0.162271 0
6.470000 0.133873 0
6.475000 0.104042 0
6.480000 0.074256 0
6.485000 0.045651 0
6.490000 0.018720 0
6.495000 -0.007153 0
6.500000 -0.034214 0
6.505000 -0.066346 0
6.510000 -0.107560 0
6.515000 -0.158415 0
6.520000 -0.211656 0
6.525000 -0.250237 2
6.530000 -0.249938 0
6.535000 -0.185253 0
6.540000 -0.035906 0
6.545000 0.204808 0
6.550000 0.516764 0
6.555000 0.840851 0
6.560000 1.085966 0
6.565000 1.165895 3
6.570000 1.048532 0
6.575000 0.774390 0
6.580000 0.427113 0
6.585000 0.093462 0
6.590000 -0.167724 0
6.595000 -0.331451 0
6.600000 -0.398368 4
6.605000 -0.386352 0
6.610000 -0.324120 0
6.615000 -0.242931 0
6.620000 -0.167034 0
6.625000 -0.108130 0
6.630000 -0.066644 0
6.635000 -0.037185 0
6.640000 -0.013683 0
6.645000 0.008126 0
6.650000 0.030471 0
6.655000 0.054230 0
6.660000 0.079590 0
6.665000 0.106427 0
6.670000 0.134470 0
6.675000 0.163354 0
6.680000 0.192641 0
6.685000 0.221830 0
6.690000 0.250372 0
6.695000 0.277687 0
6.700000 0.303177 0
6.705000 0.326255 0
6.710000 0.346360 0
6.715000 0.362984 0
6.720000 0.375690 0
6.725000 0.384133 0
6.730000 0.388073 5
6.735000 0.387388 0
6.740000 0.382079 0
6.745000 0.372268 0
6.750000 0.358199 0
6.755000 0.340220 0
6.760000 0.318774 0
6.765000 0.294380 0
6.770000 0.267609 0
6.775000 0.239062 0
6.780000 0.209354 0
6.785000 0.179082 0
6.790000 0.148813 0
6.795000 0.119067 0
6.800000 0.090300 0
6.805000 0.062898 0
6.810000 0.037170 0
6.815000 0.013348 0
6.820000 -0.008412 0
6.825000 -0.028026 0
6.830000 -0.045475 0
6.835000 -0.060793 0
6.840000 -0.074062 0
6.845000 -0.085400 0
6.850000 -0.094950 0
6.855000 -0.102873 0
6.860000 -0.109337 0
6.865000 -0.114514 0
6.870000 -0.118572 0
6.875000 -0.121668 0
6.880000 -0.123950 0
6.885000 -0.125551 0
6.890000 -0.126589 0
6.895000 -0.127170 0
6.900000 -0.127381 0
6.905000 -0.126525 0
6.910000 -0.125491 0
6.915000 -0.124463 0
6.920000 -0.123440 0
6.925000 -0.122422 0
6.930000 -0.121409 0
6.935000 -0.120401 0
6.940000 -0.119398 0
6.945000 -0.118400 0
6.950000 -0.117406 0
6.955000 -0.116417 0
6.960000 -0.115431 0
6.965000 -0.114447 0
6.970000 -0.113463 0
6.975000 -0.112474 0
6.980000 -0.111473 0
6.985000 -0.110448 0
6.990000 -0.109379 0
6.995000 -0.108234 0
7.000000 -0.106964 0
7.005000 -0.105500 0
7.010000 -0.103738 0
7.015000 -0.101537 0
7.020000 -0.098707 0
7.025000 -0.095003 0
7.030000 -0.090125 0
7.035000 -0.083719 0
7.040000 -0.075391 0
7.045000 -0.064736 0
7.050000 -0.051370 0
7.055000 -0.034987 0
7.060000 -0.015412 0
7.065000 0.007330 0
7.070000 0.032964 0
7.075000 0.060921 0
7.080000 0.090324 0
7.085000 0.120014 0
7.090000 0.148609 0
7.095000 0.174598 0
7.100000 0.196479 0
7.105000 0.212893 0
7.110000 0.222767 0
7.115000 0.225432 1
7.120000 0.220695 0
7.125000 0.208864 0
7.130000 0.190717 0
7.135000 0.167414 0
7.140000 0.140376 0
7.145000 0.111140 0
7.150000 0.081206 0
7.155000 0.051863 0
7.160000 0.023978 0
7.165000 -0.002340 0
7.170000 -0.028220 0
7.175000 -0.056416 0
7.180000 -0.090940 0
7.185000 -0.135064 0
7.190000 -0.187594 0
7.195000 -0.239178 0
7.200000 -0.271506 2
7.205000 -0.260663 0
7.210000 -0.182773 0
7.215000 -0.019988 0
7.220000 0.231318 0
7.225000 0.547910 0
7.230000 0.869604 0
7.235000 1.108118 0
7.240000 1.182524 3
7.245000 1.062105 0
7.250000 0.784856 0
7.255000 0.436633 0
7.260000 0.105210 0
7.265000 -0.151035 0
7.270000 -0.308313 0
7.275000 -0.368638 4
7.280000 -0.351288 0
7.285000 -0.286122 0
7.290000 -0.204712 0
7.295000 -0.130577 0
7.300000 -0.074145 0
7.305000 -0.034787 0
7.310000 -0.006667 0
7.315000 0.016221 0
7.320000 0.037881 0
7.325000 0.060308 0
7.330000 0.084233 0
7.335000 0.109769 0
7.340000 0.136754 0
7.345000 0.164889 0
7.350000 0.193783 0
7.355000 0.222976 0
7.360000 0.251943 0
7.365000 0.280116 0
7.370000 0.306896 0
7.375000 0.331674 0
7.380000 0.353856 0
7.385000 0.372884 0
7.390000 0.388257 0
7.395000 0.399557 0
7.400000 0.406463 0
7.405000 0.408770 5
7.410000 0.406392 0
7.415000 0.399374 0
7.420000 0.387885 0
7.425000 0.372213 0
7.430000 0.352751 0
7.435000 0.329982 0
7.440000 0.304458 0
7.445000 0.276778 0
7.450000 0.247563 0
7.455000 0.217434 0
7.460000 0.186990 0
7.465000 0.156789 0
7.470000 0.127333 0
7.475000 0.099057 0
7.480000 0.072316 0
7.485000 0.047389 0
7.490000 0.024473 0
7.495000 0.003691 0
7.500000 -0.014907 0
7.505000 -0.031331 0
7.510000 -0.045642 0
7.515000 -0.057946 0
7.520000 -0.068376 0
7.525000 -0.077091 0
7.530000 -0.084260 0
7.535000 -0.090058 0
7.540000 -0.094656 0
7.545000 -0.098222 0
7.550000 -0.100908 0
7.555000 -0.102858 0
7.560000 -0.104198 0
7.565000 -0.105038 0
7.570000 -0.105476 0
7.575000 -0.105440 0
7.580000 -0.104512 0
7.585000 -0.103588 0
7.590000 -0.102669 0
7.595000 -0.101755 0
7.600000 -0.100845 0
7.605000 -0.099940 0
7.610000 -0.099039 0
7.615000 -0.098142 0
7.620000 -0.097250 0
7.625000 -0.096361 0
7.630000 -0.095476 0
7.635000 -0.094592 0
7.640000 -0.093708 0
7.645000 -0.092820 0
7.650000 -0.091922 0
7.655000 -0.091000 0
7.660000 -0.090037 0
7.665000 -0.089004 0
7.670000 -0.087853 0
7.675000 -0.086516 0
7.680000 -0.084893 0
7.685000 -0.082845 0
7.690000 -0.080184 0
7.695000 -0.076668 0
7.700000 -0.071994 0
7.705000 -0.065806 0
7.710000 -0.057705 0
7.715000 -0.047276 0
7.720000 -0.034127 0
7.725000 -0.017938 0
7.730000 0.001471 0
7.735000 0.024083 0
7.740000 0.049620 0
7.745000 0.077503 0
7.750000 0.106839 0
7.755000 0.136440 0
7.760000 0.164890 0
7.765000 0.190651 0
7.770000 0.212191 0
7.775000 0.228138 0
7.780000 0.237420 0
7.785000 0.239390 1
7.790000 0.233893 0
7.795000 0.221291 0
7.800000 0.202421 0
7.805000 0.178503 0
7.810000 0.151010 0
7.815000 0.121512 0
7.820000 0.091519 0
7.825000 0.062295 0
7.830000 0.034626 0
7.835000 0.008438 0
7.840000 -0.017704 0
7.845000 -0.046925 0
7.850000 -0.083390 0
7.855000 -0.129813 0
7.860000 -0.183379 0
7.865000 -0.232340 0
7.870000 -0.256189 2
7.875000 -0.229992 0
7.880000 -0.130409 0
7.885000 0.057813 0
7.890000 0.332049 0
7.895000 0.658123 0
7.900000 0.963797 0
7.905000 1.156581 0
7.910000 1.166471 3
7.915000 0.985528 0
7.920000 0.672974 0
7.925000 0.321810 0
7.930000 0.012892 0
7.935000 -0.207725 0
7.940000 -0.326812 0
7.945000 -0.353925 4
7.950000 -0.313720 0
7.955000 -0.238489 0
7.960000 -0.158048 0
7.965000 -0.090977 0
7.970000 -0.042526 0
7.975000 -0.009003 0
7.980000 0.016062 0
7.985000 0.037968 0
7.990000 0.059777 0
7.995000 0.082819 0
8.000000 0.107477 0
8.005000 0.133705 0
8.010000 0.161258 0
8.015000 0.189783 0
8.020000 0.218844 0
8.025000 0.247938 0
8.030000 0.276505 0
8.035000 0.303948 0
8.040000 0.329649 0
8.045000 0.352994 0
8.050000 0.373397 0
8.055000 0.390320 0
8.060000 0.403300 0
8.065000 0.411968 0
8.070000 0.416065 5
8.075000 0.415456 0
8.080000 0.410135 0
8.085000 0.400226 0
8.090000 0.385979 0
8.095000 0.367756 0
8.100000 0.346020 0
8.105000 0.321310 0
8.110000 0.294222 0
8.115000 0.265383 0
8.120000 0.235426 0
8.125000 0.204971 0
8.130000 0.174600 0
8.135000 0.144842 0
8.140000 0.116157 0
8.145000 0.088932 0
8.150000 0.063470 0
8.155000 0.039993 0
8.160000 0.018644 0
8.165000 -0.000508 0
8.170000 -0.017461 0
8.175000 -0.032266 0
8.180000 -0.045021 0
8.185000 -0.055859 0
8.190000 -0.064934 0
8.195000 -0.072419 0
8.200000 -0.078490 0
8.205000 -0.083323 0
8.210000 -0.087088 0
8.215000 -0.089945 0
8.220000 -0.092039 0
8.225000 -0.093502 0
8.230000 -0.094449 0
8.235000 -0.094978 0
8.240000 -0.095020 0
8.245000 -0.094143 0
8.250000 -0.093272 0
8.255000 -0.092404 0
8.260000 -0.091541 0
8.265000 -0.090682 0
8.270000 -0.089827 0
8.275000 -0.088977 0
8.280000 -0.088130 0
8.285000 -0.087288 0
8.290000 -0.086449 0
8.295000 -0.085613 0
8.300000 -0.084779 0
8.305000 -0.083944 0
8.310000 -0.083104 0
8.315000 -0.082253 0
8.320000 -0.081378 0
8.325000 -0.080461 0
8.330000 -0.079469 0
8.335000 -0.078356 0
8.340000 -0.077049 0
8.345000 -0.075443 0
8.350000 -0.073395 0
8.355000 -0.070707 0
8.360000 -0.067127 0
8.365000 -0.062341 0
8.370000 -0.055980 0
8.375000 -0.047636 0
8.380000 -0.036885 0
8.385000 -0.023337 0
8.390000 -0.006685 0
8.395000 0.013230 0
8.400000 0.036349 0
8.405000 0.062336 0
8.410000 0.090543 0
8.415000 0.120000 0
8.420000 0.149446 0
8.425000 0.177405 0
8.430000 0.202299 0
8.435000 0.222594 0
8.440000 0.236954 0
8.445000 0.244386 1
8.450000 0.244354 0
8.455000 0.236838 0
8.460000 0.222344 0
8.465000 0.201845 0
8.470000 0.176670 0
8.475000 0.148365 0
8.480000 0.118524 0
8.485000 0.088626 0
8.490000 0.059831 0
8.495000 0.032697 0
8.500000 0.006735 0
8.505000 -0.020109 0
8.510000 -0.051550 0
8.515000 -0.091682 0
8.520000 -0.141663 0
8.525000 -0.195392 0
8.530000 -0.237132 0
8.535000 -0.243525 2
8.540000 -0.189132 0
8.545000 -0.052766 0
8.550000 0.174821 0
8.555000 0.478615 0
8.560000 0.806295 0
8.565000 1.070985 0
8.570000 1.183124 3
8.575000 1.099144 0
8.580000 0.847116 0
8.585000 0.505794 0
8.590000 0.164538 0
8.595000 -0.111745 0
8.600000 -0.292601 0
8.605000 -0.375008 4
8.610000 -0.374443 0
8.615000 -0.318385 0
8.620000 -0.238443 0
8.625000 -0.160634 0
8.630000 -0.098820 0
8.635000 -0.054929 0
8.640000 -0.024088 0
8.645000 -0.000077 0
8.650000 0.021719 0
8.655000 0.043816 0
8.660000 0.067252 0
8.665000 0.092290 0
8.670000 0.118839 0
8.675000 0.146643 0
8.680000 0.175348 0
8.685000 0.204525 0
8.690000 0.233680 0
8.695000 0.262270 0
8.700000 0.289714 0
8.705000 0.315415 0
8.710000 0.338781 0
8.715000 0.359245 0
8.720000 0.376289 0
8.725000 0.389463 0
8.730000 0.398408 0
8.735000 0.402870 5
8.740000 0.402709 0
8.745000 0.397910 0
8.750000 0.388582 0
8.755000 0.374953 0
8.760000 0.357360 0
8.765000 0.336237 0
8.770000 0.312094 0
8.775000 0.285501 0
8.780000 0.257059 0
8.785000 0.227381 0
8.790000 0.197071 0
8.795000 0.166703 0
8.800000 0.136802 0
8.805000 0.107835 0
8.810000 0.080195 0
8.815000 0.054203 0
8.820000 0.030099 0
8.825000 0.008047 0
8.830000 -0.011862 0
8.835000 -0.029601 0
8.840000 -0.045200 0
8.845000 -0.058738 0
8.850000 -0.070328 0
8.855000 -0.080113 0
8.860000 -0.088252 0
8.865000 -0.094914 0
8.870000 -0.100272 0
8.875000 -0.104492 0
8.880000 -0.107736 0
8.885000 -0.110152 0
8.890000 -0.111874 0
8.895000 -0.113024 0
8.900000 -0.113706 0
8.905000 -0.114011 0
8.910000 -0.113875 0
8.915000 -0.112904 0
8.920000 -0.111939 0
8.925000 -0.110978 0
8.930000 -0.110022 0
8.935000 -0.109071 0
8.940000 -0.108125 0
8.945000 -0.107183 0
8.950000 -0.106246 0
8.955000 -0.105313 0
8.960000 -0.104384 0
8.965000 -0.103458 0
8.970000 -0.102534 0
8.975000 -0.101610 0
8.980000 -0.100681 0
8.985000 -0.099740 0
8.990000 -0.098776 0
8.995000 -0.097768 0
9.000000 -0.096686 0
9.005000 -0.095483 0
9.010000 -0.094088 0
9.015000 -0.092402 0
9.020000 -0.090282 0
9.025000 -0.087543 0
9.030000 -0.083942 0
9.035000 -0.079179 0
9.040000 -0.072901 0
9.045000 -0.064716 0
9.050000 -0.054215 0
9.055000 -0.041014 0
9.060000 -0.024800 0
9.065000 -0.005393 0
9.070000 0.017192 0
9.075000 0.042686 0
9.080000 0.070529 0
9.085000 0.099853 0
9.090000 0.129501 0
9.095000 0.158093 0
9.100000 0.184116 0
9.105000 0.206061 0
9.110000 0.222559 0
9.115000 0.232529 0
9.120000 0.235288 1
9.125000 0.230634 0
9.130000 0.218867 0
9.135000 0.200759 0
9.140000 0.177469 0
9.145000 0.150419 0
9.150000 0.121150 0
9.155000 0.091168 0
9.160000 0.061767 0
9.165000 0.033824 0
9.170000 0.007450 0
9.175000 -0.018476 0
9.180000 -0.046711 0
9.185000 -0.081278 0
9.190000 -0.125458 0
9.195000 -0.178047 0
9.200000 -0.229646 0
9.205000 -0.261864 2
9.210000 -0.250705 0
9.215000 -0.172245 0
9.220000 -0.008662 0
9.225000 0.243487 0
9.230000 0.560533 0
9.235000 0.881668 0
9.240000 1.118173 0
9.245000 1.189377 3
9.250000 1.065837 0
9.255000 0.787264 0
9.260000 0.438861 0
9.265000 0.107361 0
9.270000 -0.149493 0
9.275000 -0.307999 0
9.280000 -0.369912 4
9.285000 -0.354055 0
9.290000 -0.289801 0
9.295000 -0.208476 0
9.300000 -0.133743 0
9.305000 -0.076439 0
9.310000 -0.036320 0
9.315000 -0.007733 0
9.320000 0.015340 0
9.325000 0.036998 0
9.330000 0.059326 0
9.335000 0.083117 0
9.340000 0.108513 0
9.345000 0.135370 0
9.350000 0.163401 0
9.355000 0.192230 0
9.360000 0.221407 0
9.365000 0.250420 0
9.370000 0.278711 0
9.375000 0.305690 0
9.380000 0.330756 0
9.385000 0.353318 0
9.390000 0.372818 0
9.395000 0.388752 0
9.400000 0.400693 0
9.405000 0.408309 0
9.410000 0.411376 5
9.415000 0.409791 0
9.420000 0.403575 0
9.425000 0.392874 0
9.430000 0.377953 0
9.435000 0.359181 0
9.440000 0.337021 0
9.445000 0.312007 0
9.450000 0.284722 0
9.455000 0.255779 0
9.460000 0.225792 0
9.465000 0.195362 0
9.470000 0.165050 0
9.475000 0.135368 0
9.480000 0.106761 0
9.485000 0.079600 0
9.490000 0.054181 0
9.495000 0.030719 0
9.500000 0.009354 0
9.505000 -0.009847 0
9.510000 -0.026876 0
9.515000 -0.041782 0
9.520000 -0.054658 0
9.525000 -0.065629 0
9.530000 -0.074845 0
9.535000 -0.082472 0
9.540000 -0.088680 0
9.545000 -0.093642 0
9.550000 -0.097525 0
9.555000 -0.100485 0
9.560000 -0.102666 0
9.565000 -0.104200 0
9.570000 -0.105201 0
9.575000 -0.105769 0
9.580000 -0.105990 0
9.585000 -0.105226 0
9.590000 -0.104299 0
9.595000 -0.103376 0
9.600000 -0.102458 0
9.605000 -0.101545 0
9.610000 -0.100636 0
9.615000 -0.099732 0
9.620000 -0.098832 0
9.625000 -0.097936 0
9.630000 -0.097044 0
9.635000 -0.096156 0
9.640000 -0.095271 0
9.645000 -0.094386 0
9.650000 -0.093499 0
9.655000 -0.092605 0
9.660000 -0.091694 0
9.665000 -0.090751 0
9.670000 -0.089754 0
9.675000 -0.088664 0
9.680000 -0.087424 0
9.685000 -0.085952 0
9.690000 -0.084130 0
9.695000 -0.081796 0
9.700000 -0.078738 0
9.705000 -0.074687 0
9.710000 -0.069316 0
9.715000 -0.062250 0
9.720000 -0.053082 0
9.725000 -0.041409 0
9.730000 -0.026868 0
9.735000 -0.009202 0
9.740000 0.011687 0
9.745000 0.035670 0
9.750000 0.062342 0
9.755000 0.090990 0
9.760000 0.120598 0
9.765000 0.149885 0
9.770000 0.177383 0
9.775000 0.201557 0
9.780000 0.220940 0
9.785000 0.234282 0
9.790000 0.240681 1
9.795000 0.239686 0
9.800000 0.231348 0
9.805000 0.216215 0
9.810000 0.195272 0
9.815000 0.169837 0
9.820000 0.141422 0
9.825000 0.111575 0
9.830000 0.081725 0
9.835000 0.052985 0
9.840000 0.025889 0
9.845000 -0.000041 0
9.850000 -0.026777 0
9.855000 -0.057900 0
9.860000 -0.097433 0
9.865000 -0.146784 0
9.870000 -0.200640 0
9.875000 -0.244472 0
9.880000 -0.256087 2
9.885000 -0.210664 0
9.890000 -0.086725 0
9.895000 0.126984 0
9.900000 0.420516 0
9.905000 0.749643 0
9.910000 1.034539 0
9.915000 1.184899 3
9.920000 1.140247 0
9.925000 0.911755 0
9.930000 0.576921 0
9.935000 0.232390 0
9.940000 -0.048937 0
9.945000 -0.232260 0
9.950000 -0.313696 4
9.955000 -0.310013 0
9.960000 -0.251066 0
9.965000 -0.170562 0
9.970000 -0.095017 0
9.975000 -0.037094 0
9.980000 0.003004 0
9.985000 0.031231 0
9.990000 0.053962 0
9.995000 0.075442 0
10.000000 0.097748 0
10.005000 0.121615 0
10.010000 0.147134 0
10.015000 0.174115 0
10.020000 0.202230 0
10.025000 0.231055 0
10.030000 0.260089 0
10.035000 0.288768 0
10.040000 0.316483 0
10.045000 0.342597 0
10.050000 0.366469 0
10.055000 0.387482 0
10.060000 0.405063 0
10.065000 0.418715 0
10.070000 0.428035 0
10.075000 0.432735 5
10.080000 0.432654 0
10.085000 0.427767 0
10.090000 0.418189 0
10.095000 0.404166 0
10.100000 0.386066 0
10.105000 0.364363 0
10.110000 0.339614 0
10.115000 0.312435 0
10.120000 0.283476 0
10.125000 0.253395 0
10.130000 0.222833 0
10.135000 0.192390 0
10.140000 0.162611 0
10.145000 0.133968 0
10.150000 0.106850 0
10.155000 0.081563 0
10.160000 0.058323 0
10.165000 0.037267 0
10.170000 0.018452 0
10.175000 0.001870 0
10.180000 -0.012545 0
10.185000 -0.024904 0
10.190000 -0.035351 0
10.195000 -0.044053 0
10.200000 -0.051189 0
10.205000 -0.056944 0
10.210000 -0.061498 0
10.215000 -0.065025 0
10.220000 -0.067685 0
10.225000 -0.069622 0
10.230000 -0.070967 0
10.235000 -0.071831 0
10.240000 -0.072312 0
10.245000 -0.071728 0
10.250000 -0.070968 0
10.255000 -0.070212 0
10.260000 -0.069459 0
10.265000 -0.068710 0
10.270000 -0.067965 0
10.275000 -0.067224 0
10.280000 -0.066486 0
10.285000 -0.065752 0
10.290000 -0.065020 0
10.295000 -0.064292 0
10.300000 -0.063565 0
10.305000 -0.062837 0
10.310000 -0.062106 0
10.315000 -0.061365 0
10.320000 -0.060602 0
10.325000 -0.059801 0
10.330000 -0.058932 0
10.335000 -0.057948 0
10.340000 -0.056782 0
10.345000 -0.055330 0
10.350000 -0.053449 0
10.355000 -0.050943 0
10.360000 -0.047556 0
10.365000 -0.042968 0
10.370000 -0.036801 0
10.375000 -0.028630 0
10.380000 -0.018020 0
10.385000 -0.004561 0
10.390000 0.012064 0
10.395000 0.032015 0
10.400000 0.055221 0
10.405000 0.081317 0
10.410000 0.109605 0
10.415000 0.139048 0
10.420000 0.168309 0
10.425000 0.195834 0
10.430000 0.219986 0
10.435000 0.239196 0
10.440000 0.252134 0
10.445000 0.257858 1
10.450000 0.255929 0
10.455000 0.246460 0
10.460000 0.230108 0
10.465000 0.207999 0
10.470000 0.181595 0
10.475000 0.152531 0
10.480000 0.122442 0
10.485000 0.092770 0
10.490000 0.064526 0
10.495000 0.037928 0
10.500000 0.011859 0
10.505000 -0.016594 0
10.510000 -0.051738 0
10.515000 -0.096927 0
10.520000 -0.150222 0
10.525000 -0.200324 0
10.530000 -0.226254 2
10.535000 -0.201826 0
10.540000 -0.102313 0
10.545000 0.088319 0
10.550000 0.366481 0
10.555000 0.693863 0
10.560000 0.991457 0
10.565000 1.162095 3
10.570000 1.138138 0
10.575000 0.924276 0
10.580000 0.594731 0
10.585000 0.248010 0
10.590000 -0.039060 0
10.595000 -0.228545 0
10.600000 -0.314926 4
10.605000 -0.314352 0
10.610000 -0.256751 0
10.615000 -0.176422 0
10.620000 -0.100619 0
10.625000 -0.042485 0
10.630000 -0.002336 0
10.635000 0.025865 0
10.640000 0.048582 0
10.645000 0.070095 0
10.650000 0.092475 0
10.655000 0.116441 0
10.660000 0.142068 0
10.665000 0.169156 0
10.670000 0.197364 0
10.675000 0.226257 0
10.680000 0.255319 0
10.685000 0.283974 0
10.690000 0.311597 0
10.695000 0.337540 0
10.700000 0.361154 0
10.705000 0.381812 0
10.710000 0.398944 0
10.715000 0.412053 0
10.720000 0.420745 0
10.725000 0.424745 5
10.730000 0.423911 0
10.735000 0.418242 0
10.740000 0.407876 0
10.745000 0.393088 0
10.750000 0.374273 0
10.755000 0.351932 0
10.760000 0.326644 0
10.765000 0.299047 0
10.770000 0.269805 0
10.775000 0.239585 0
10.780000 0.209029 0
10.785000 0.178738 0
10.790000 0.149245 0
10.795000 0.121010 0
10.800000 0.094406 0
10.805000 0.069717 0
10.810000 0.047141 0
10.815000 0.026791 0
10.820000 0.008703 0
10.825000 -0.007150 0
10.830000 -0.020851 0
10.835000 -0.032524 0
10.840000 -0.042326 0
10.845000 -0.050431 0
10.850000 -0.057025 0
10.855000 -0.062295 0
10.860000 -0.066421 0
10.865000 -0.069575 0
10.870000 -0.071914 0
10.875000 -0.073580 0
10.880000 -0.074696 0
10.885000 -0.075371 0
10.890000 -0.075536 0
10.895000 -0.074757 0
10.900000 -0.073982 0
10.905000 -0.073210 0
10.910000 -0.072443 0
10.915000 -0.071679 0
10.920000 -0.070919 0
10.925000 -0.070163 0
10.930000 -0.069410 0
10.935000 -0.068661 0
10.940000 -0.067915 0
10.945000 -0.067171 0
10.950000 -0.066428 0
10.955000 -0.065683 0
10.960000 -0.064931 0
10.965000 -0.064163 0
10.970000 -0.063366 0
10.975000 -0.062514 0
10.980000 -0.061569 0
10.985000 -0.060473 0
10.990000 -0.059135 0
10.995000 -0.057428 0
11.000000 -0.055174 0
11.005000 -0.052138 0
11.010000 -0.048020 0
11.015000 -0.042454 0
11.020000 -0.035025 0
11.025000 -0.025288 0
11.030000 -0.012813 0
11.035000 0.002763 0
11.040000 0.021663 0
11.045000 0.043897 0
11.050000 0.069193 0
11.055000 0.096947 0
11.060000 0.126204 0
11.065000 0.155686 0
11.070000 0.183864 0
11.075000 0.209081 0
11.080000 0.229708 0
11.085000 0.244315 0
11.090000 0.251836 1
11.095000 0.251694 0
11.100000 0.243876 0
11.105000 0.228932 0
11.110000 0.207913 0
11.115000 0.182247 0
11.120000 0.153578 0
11.125000 0.123581 0
11.130000 0.093771 0
11.135000 0.065273 0
11.140000 0.038471 0
11.145000 0.012475 0
11.150000 -0.015400 0
11.155000 -0.049424 0
11.160000 -0.093339 0
11.165000 -0.146074 0
11.170000 -0.197323 0
11.175000 -0.226646 2
11.180000 -0.207659 0
11.185000 -0.114828 0
11.190000 0.069158 0
11.195000 0.342530 0
11.200000 0.668916 0
11.205000 0.970013 0
11.210000 1.147009 3
11.215000 1.132319 0
11.220000 0.928201 0
11.225000 0.603831 0
11.230000 0.254982 0
11.235000 -0.040696 0
11.240000 -0.242544 0
11.245000 -0.342090 0
11.250000 -0.352684 4
11.255000 -0.301889 0
11.260000 -0.223099 0
11.265000 -0.144735 0
11.270000 -0.082368 0
11.275000 -0.038451 0
11.280000 -0.007895 0
11.285000 0.015843 0
11.290000 0.037530 0
11.295000 0.059677 0
11.300000 0.083269 0
11.305000 0.108512 0
11.310000 0.135275 0
11.315000 0.163264 0
11.320000 0.192084 0
11.325000 0.221264 0
11.330000 0.250264 0
11.335000 0.278494 0
11.340000 0.305332 0
11.345000 0.330145 0
11.350000 0.352313 0
11.355000 0.371255 0
11.360000 0.386452 0
11.365000 0.397473 0
11.370000 0.403992 0
11.375000 0.405804 5
11.380000 0.402835 0
11.385000 0.395148 0
11.390000 0.382937 0
11.395000 0.366522 0
11.400000 0.346330 0
11.405000 0.322882 0
11.410000 0.296764 0
11.415000 0.268608 0
11.420000 0.239063 0
11.425000 0.208769 0
11.430000 0.178340 0
11.435000 0.148339 0
11.440000 0.119264 0
11.445000 0.091538 0
11.450000 0.065501 0
11.455000 0.041407 0
11.460000 0.019427 0
11.465000 -0.000346 0
11.470000 -0.017890 0
11.475000 -0.033243 0
11.480000 -0.046493 0
11.485000 -0.057768 0
11.490000 -0.067222 0
11.495000 -0.075026 0
11.500000 -0.081362 0
11.505000 -0.086409 0
11.510000 -0.090344 0
11.515000 -0.093332 0
11.520000 -0.095525 0
11.525000 -0.097058 0
11.530000 -0.098053 0
11.535000 -0.098614 0
11.540000 -0.098668 0
11.545000 -0.097774 0
11.550000 -0.096884 0
11.555000 -0.095998 0
11.560000 -0.095117 0
11.565000 -0.094240 0
11.570000 -0.093368 0
11.575000 -0.092499 0
11.580000 -0.091636 0
11.585000 -0.090776 0
11.590000 -0.089919 0
11.595000 -0.089066 0
11.600000 -0.088214 0
11.605000 -0.087362 0
11.610000 -0.086505 0
11.615000 -0.085636 0
11.620000 -0.084742 0
11.625000 -0.083803 0
11.630000 -0.082786 0
11.635000 -0.081639 0
11.640000 -0.080287 0
11.645000 -0.078619 0
11.650000 -0.076479 0
11.655000 -0.073660 0
11.660000 -0.069894 0
11.665000 -0.064851 0
11.670000 -0.058143 0
11.675000 -0.049349 0
11.680000 -0.038038 0
11.685000 -0.023822 0
11.690000 -0.006413 0
11.695000 0.014303 0
11.700000 0.038206 0
11.705000 0.064874 0
11.710000 0.093558 0
11.715000 0.123177 0
11.720000 0.152369 0
11.725000 0.179579 0
11.730000 0.203190 0
11.735000 0.221681 0
11.740000 0.233786 0
11.745000 0.238637 1
11.750000 0.235870 0
11.755000 0.225663 0
11.760000 0.208724 0
11.765000 0.186205 0
11.770000 0.159575 0
11.775000 0.130454 0
11.780000 0.100446 0
11.785000 0.070950 0
11.790000 0.042921 0
11.795000 0.016502 0
11.800000 -0.009502 0
11.805000 -0.038062 0
11.810000 -0.073456 0
11.815000 -0.118883 0
11.820000 -0.172187 0
11.825000 -0.221958 0
11.830000 -0.247344 2
11.835000 -0.222484 0
11.840000 -0.123002 0
11.845000 0.066949 0
11.850000 0.344076 0
11.855000 0.671213 0
11.860000 0.971165 0
11.865000 1.147911 3
11.870000 1.132658 0
11.875000 0.926720 0
11.880000 0.600962 0
11.885000 0.252742 0
11.890000 -0.039941 0
11.895000 -0.237107 0
11.900000 -0.331347 0
11.905000 -0.337199 4
11.910000 -0.283351 0
11.915000 -0.203762 0
11.920000 -0.126483 0
11.925000 -0.066053 0
11.930000 -0.023926 0
11.935000 0.005478 0
11.940000 0.028704 0
11.945000 0.050301 0
11.950000 0.072570 0
11.955000 0.096361 0
11.960000 0.121815 0
11.965000 0.148762 0
11.970000 0.176885 0
11.975000 0.205768 0
11.980000 0.234917 0
11.985000 0.263771 0
11.990000 0.291722 0
11.995000 0.318133 0
12.000000 0.342360 0
12.005000 0.363779 0
12.010000 0.381813 0
12.015000 0.395952 0
12.020000 0.405784 0
12.025000 0.411008 0
12.030000 0.411449 5
12.035000 0.407074 0
12.040000 0.397983 0
12.045000 0.384413 0
12.050000 0.366726 0
12.055000 0.345387 0
12.060000 0.320951 0
12.065000 0.294032 0
12.070000 0.265281 0
12.075000 0.235359 0
12.080000 0.204911 0
12.085000 0.174542 0
12.090000 0.144804 0
12.095000 0.116174 0
12.100000 0.089050 0
12.105000 0.063743 0
12.110000 0.040477 0
12.115000 0.019391 0
12.120000 0.000549 0
12.125000 -0.016056 0
12.130000 -0.030485 0
12.135000 -0.042849 0
12.140000 -0.053291 0
12.145000 -0.061976 0
12.150000 -0.069086 0
12.155000 -0.074804 0
12.160000 -0.079314 0
12.165000 -0.082787 0
12.170000 -0.085387 0
12.175000 -0.087258 0
12.180000 -0.088533 0
12.185000 -0.089323 0
12.190000 -0.089726 0
12.195000 -0.089057 0
12.200000 -0.088210 0
12.205000 -0.087368 0
12.210000 -0.086530 0
12.215000 -0.085696 0
12.220000 -0.084866 0
12.225000 -0.084040 0
12.230000 -0.083219 0
12.235000 -0.082401 0
12.240000 -0.081586 0
12.245000 -0.080775 0
12.250000 -0.079966 0
12.255000 -0.079157 0
12.260000 -0.078344 0
12.265000 -0.077522 0
12.270000 -0.076679 0
12.275000 -0.075797 0
12.280000 -0.074848 0
12.285000 -0.073785 0
12.290000 -0.072538 0
12.295000 -0.071005 0
12.300000 -0.069041 0
12.305000 -0.066448 0
12.310000 -0.062970 0
12.315000 -0.058284 0
12.320000 -0.052009 0
12.325000 -0.043721 0
12.330000 -0.032980 0
12.335000 -0.019378 0
12.340000 -0.002598 0
12.345000 0.017514 0
12.350000 0.040881 0
12.355000 0.067127 0
12.360000 0.095543 0
12.365000 0.125078 0
12.370000 0.154380 0
12.375000 0.181886 0
12.380000 0.205951 0
12.385000 0.225007 0
12.390000 0.237734 0
12.395000 0.243205 1
12.400000 0.241001 0
12.405000 0.231262 0
12.410000 0.214673 0
12.415000 0.192382 0
12.420000 0.165868 0
12.425000 0.136778 0
12.430000 0.106748 0
12.435000 0.077206 0
12.440000 0.049134 0
12.445000 0.022685 0
12.450000 -0.003361 0
12.455000 -0.032044 0
12.460000 -0.067719 0
12.465000 -0.113546 0
12.470000 -0.167042 0
12.475000 -0.216135 0
12.480000 -0.239200 2
12.485000 -0.209836 0
12.490000 -0.103616 0
12.495000 0.094491 0
12.500000 0.378679 0
12.505000 0.707143 0
12.510000 0.997768 0
12.515000 1.153582 3
12.520000 1.110502 0
12.525000 0.880387 0
12.530000 0.544067 0
12.535000 0.201506 0
12.540000 -0.073539 0
12.545000 -0.247487 0
12.550000 -0.318551 4
12.555000 -0.305960 0
12.560000 -0.241807 0
12.565000 -0.160644 0
12.570000 -0.087850 0
12.575000 -0.033848 0
12.580000 0.003021 0
12.585000 0.029429 0
12.590000 0.051564 0
12.595000 0.073186 0
12.600000 0.095971 0
12.605000 0.120424 0
12.610000 0.146520 0
12.615000 0.174003 0
12.620000 0.202494 0
12.625000 0.231521 0
12.630000 0.260536 0
12.635000 0.288930 0
12.640000 0.316055 0
12.645000 0.341245 0
12.650000 0.363841 0
12.655000 0.383223 0
12.660000 0.398831 0
12.665000 0.410199 0
12.670000 0.416972 0
12.675000 0.418923 5
12.680000 0.415969 0
12.685000 0.408172 0
12.690000 0.395738 0
12.695000 0.379007 0
12.700000 0.358435 0
12.705000 0.334578 0
12.710000 0.308058 0
12.715000 0.279546 0
12.720000 0.249724 0
12.725000 0.219265 0
12.730000 0.188803 0
12.735000 0.158916 0
12.740000 0.130108 0
12.745000 0.102800 0
12.750000 0.077320 0
12.755000 0.053905 0
12.760000 0.032703 0
12.765000 0.013782 0
12.770000 -0.002864 0
12.775000 -0.017299 0
12.780000 -0.029639 0
12.785000 -0.040031 0
12.790000 -0.048651 0
12.795000 -0.055685 0
12.800000 -0.061324 0
12.805000 -0.065755 0
12.810000 -0.069156 0
12.815000 -0.071693 0
12.820000 -0.073514 0
12.825000 -0.074751 0
12.830000 -0.075518 0
12.835000 -0.075910 0
12.840000 -0.075298 0
12.845000 -0.074520 0
12.850000 -0.073746 0
12.855000 -0.072976 0
12.860000 -0.072209 0
12.865000 -0.071447 0
12.870000 -0.070688 0
12.875000 -0.069933 0
12.880000 -0.069181 0
12.885000 -0.068432 0
12.890000 -0.067686 0
12.895000 -0.066941 0
12.900000 -0.066194 0
12.905000 -0.065440 0
12.910000 -0.064671 0
12.915000 -0.063873 0
12.920000 -0.063021 0
12.925000 -0.062077 0
12.930000 -0.060979 0
12.935000 -0.059639 0
12.940000 -0.057924 0
12.945000 -0.055653 0
12.950000 -0.052584 0
12.955000 -0.048406 0
12.960000 -0.042746 0
12.965000 -0.035175 0
12.970000 -0.025239 0
12.975000 -0.012500 0
12.980000 0.003402 0
12.985000 0.022677 0
12.990000 0.045306 0
12.995000 0.070975 0
13.000000 0.099018 0
13.005000 0.128410 0
13.010000 0.157801 0
13.015000 0.185595 0
13.020000 0.210093 0
13.025000 0.229654 0
13.030000 0.242880 0
13.035000 0.248774 1
13.040000 0.246870 0
13.045000 0.237285 0
13.050000 0.220716 0
13.055000 0.198346 0
13.060000 0.171708 0
13.065000 0.142509 0
13.070000 0.112434 0
13.075000 0.082943 0
13.080000 0.054998 0
13.085000 0.028642 0
13.090000 0.002410 0
13.095000 -0.027089 0
13.100000 -0.064393 0
13.105000 -0.112125 0
13.110000 -0.166086 0
13.115000 -0.211600 0
13.120000 -0.224660 2
13.125000 -0.177804 0
13.130000 -0.047440 0
13.135000 0.177501 0
13.140000 0.481669 0
13.145000 0.808276 0
13.150000 1.062867 0
13.155000 1.151593 3
13.160000 1.038011 0
13.165000 0.762087 0
13.170000 0.413728 0
13.175000 0.084866 0
13.180000 -0.164679 0
13.185000 -0.312055 0
13.190000 -0.361436 4
13.195000 -0.334879 0
13.200000 -0.264730 0
13.205000 -0.183370 0
13.210000 -0.112917 0
13.215000 -0.061271 0
13.220000 -0.025772 0
13.225000 0.000167 0
13.230000 0.022319 0
13.235000 0.044123 0
13.240000 0.067107 0
13.245000 0.091727 0
13.250000 0.117956 0
13.255000 0.145547 0
13.260000 0.174138 0
13.265000 0.203278 0
13.270000 0.232447 0
13.275000 0.261062 0
13.280000 0.288504 0
13.285000 0.314133 0
13.290000 0.337313 0
13.295000 0.357441 0
13.300000 0.373967 0
13.305000 0.386422 0
13.310000 0.394440 0
13.315000 0.397772 5
13.320000 0.396303 0
13.325000 0.390053 0
13.330000 0.379180 0
13.335000 0.363969 0
13.340000 0.344827 0
13.345000 0.322253 0
13.350000 0.296827 0
13.355000 0.269178 0
13.360000 0.239960 0
13.365000 0.209827 0
13.370000 0.179409 0
13.375000 0.149290 0
13.380000 0.119990 0
13.385000 0.091957 0
13.390000 0.065554 0
13.395000 0.041057 0
13.400000 0.018656 0
13.405000 -0.001537 0
13.410000 -0.019487 0
13.415000 -0.035222 0
13.420000 -0.048822 0
13.425000 -0.060410 0
13.430000 -0.070138 0
13.435000 -0.078177 0
13.440000 -0.084709 0
13.445000 -0.089918 0
13.450000 -0.093982 0
13.455000 -0.097070 0
13.460000 -0.099339 0
13.465000 -0.100928 0
13.470000 -0.101962 0
13.475000 -0.102547 0
13.480000 -0.102775 0
13.485000 -0.102025 0
13.490000 -0.101114 0
13.495000 -0.100207 0
13.500000 -0.099305 0
13.505000 -0.098407 0
13.510000 -0.097514 0
13.515000 -0.096625 0
13.520000 -0.095741 0
13.525000 -0.094861 0
13.530000 -0.093984 0
13.535000 -0.093110 0
13.540000 -0.092239 0
13.545000 -0.091366 0
13.550000 -0.090490 0
13.555000 -0.089601 0
13.560000 -0.088687 0
13.565000 -0.087729 0
13.570000 -0.086691 0
13.575000 -0.085524 0
13.580000 -0.084148 0
13.585000 -0.082451 0
13.590000 -0.080275 0
13.595000 -0.077407 0
13.600000 -0.073575 0
13.605000 -0.068441 0
13.610000 -0.061611 0
13.615000 -0.052656 0
13.620000 -0.041142 0
13.625000 -0.026680 0
13.630000 -0.008990 0
13.635000 0.012029 0
13.640000 0.036229 0
13.645000 0.063155 0
13.650000 0.092014 0
13.655000 0.121680 0
13.660000 0.150748 0
13.665000 0.177627 0
13.670000 0.200685 0
13.675000 0.218406 0
13.680000 0.229553 0
13.685000 0.233317 1
13.690000 0.229407 0
13.695000 0.218089 0
13.700000 0.200159 0
13.705000 0.176847 0
13.710000 0.149675 0
13.715000 0.120297 0
13.720000 0.090312 0
13.725000 0.061071 0
13.730000 0.033412 0
13.735000 0.007254 0
13.740000 -0.018972 0
13.745000 -0.048650 0
13.750000 -0.086154 0
13.755000 -0.133899 0
13.760000 -0.187767 0
13.765000 -0.233730 0
13.770000 -0.248874 2
13.775000 -0.206774 0
13.780000 -0.084248 0
13.785000 0.130878 0
13.790000 0.427401 0
13.795000 0.756161 0
13.800000 1.029979 0
13.805000 1.154616 3
13.810000 1.083362 0
13.815000 0.839704 0
13.820000 0.501033 0
13.825000 0.158085 0
13.830000 -0.121906 0
13.835000 -0.306692 0
13.840000 -0.392287 0
13.845000 -0.393778 4
13.850000 -0.338642 0
13.855000 -0.258807 0
13.860000 -0.180740 0
13.865000 -0.118643 0
13.870000 -0.074571 0
13.875000 -0.043628 0
13.880000 -0.019538 0
13.885000 0.002351 0
13.890000 0.024562 0
13.895000 0.048128 0
13.900000 0.073304 0
13.905000 0.099992 0
13.910000 0.127933 0
13.915000 0.156764 0
13.920000 0.186050 0
13.925000 0.215290 0
13.930000 0.243931 0
13.935000 0.271387 0
13.940000 0.297055 0
13.945000 0.320336 0
13.950000 0.340661 0
13.955000 0.357511 0
13.960000 0.370439 0
13.965000 0.379089 0
13.970000 0.383216 5
13.975000 0.382690 0
13.980000 0.377508 0
13.985000 0.367792 0
13.990000 0.353785 0
13.995000 0.335840 0
14.000000 0.314406 0
14.005000 0.290007 0
14.010000 0.263222 0
14.015000 0.234663 0
14.020000 0.204947 0
14.025000 0.174683 0
14.030000 0.144442 0
14.035000 0.114748 0
14.040000 0.086060 0
14.045000 0.058765 0
14.050000 0.033172 0
14.055000 0.009509 0
14.060000 -0.012070 0
14.065000 -0.031487 0
14.070000 -0.048726 0
14.075000 -0.063827 0
14.080000 -0.076877 0
14.085000 -0.087999 0
14.090000 -0.097339 0
14.095000 -0.105063 0
14.100000 -0.111341 0
14.105000 -0.116347 0
14.110000 -0.120250 0
14.115000 -0.123208 0
14.120000 -0.125368 0
14.125000 -0.126864 0
14.130000 -0.127812 0
14.135000 -0.128315 0
14.140000 -0.128462 0
14.145000 -0.127591 0
14.150000 -0.126553 0
14.155000 -0.125519 0
14.160000 -0.124491 0
14.165000 -0.123467 0
14.170000 -0.122449 0
14.175000 -0.121436 0
14.180000 -0.120428 0
14.185000 -0.119425 0
14.190000 -0.118426 0
14.195000 -0.117431 0
14.200000 -0.116439 0
14.205000 -0.115449 0
14.210000 -0.114458 0
14.215000 -0.113461 0
14.220000 -0.112448 0
14.225000 -0.111406 0
14.230000 -0.110311 0
14.235000 -0.109128 0
14.240000 -0.107800 0
14.245000 -0.106247 0
14.250000 -0.104354 0
14.255000 -0.101961 0
14.260000 -0.098859 0
14.265000 -0.094780 0
14.270000 -0.089401 0
14.275000 -0.082348 0
14.280000 -0.073212 0
14.285000 -0.061587 0
14.290000 -0.047106 0
14.295000 -0.029501 0
14.300000 -0.008667 0
14.305000 0.015279 0
14.310000 0.041944 0
14.315000 0.070626 0
14.320000 0.100315 0
14.325000 0.129734 0
14.330000 0.157412 0
14.335000 0.181808 0
14.340000 0.201444 0
14.345000 0.215054 0
14.350000 0.221724 1
14.355000 0.220988 0
14.360000 0.212885 0
14.365000 0.197956 0
14.370000 0.177184 0
14.375000 0.151890 0
14.380000 0.123589 0
14.385000 0.093838 0
14.390000 0.064073 0
14.395000 0.035417 0
14.400000 0.008406 0
14.405000 -0.017436 0
14.410000 -0.044095 0
14.415000 -0.075170 0
14.420000 -0.114698 0
14.425000 -0.164052 0
14.430000 -0.217805 0
14.435000 -0.261249 0
14.440000 -0.272006 2
14.445000 -0.225152 0
14.450000 -0.099240 0
14.455000 0.116705 0
14.460000 0.411996 0
14.465000 0.741176 0
14.470000 1.023274 0
14.475000 1.167951 3
14.480000 1.120108 0
14.485000 0.893011 0
14.490000 0.560165 0
14.495000 0.213808 0
14.500000 -0.074696 0
14.505000 -0.269357 0
14.510000 -0.363831 0
14.515000 -0.371858 4
14.520000 -0.320339 0
14.525000 -0.241485 0
14.530000 -0.162757 0
14.535000 -0.099486 0
14.540000 -0.054464 0
14.545000 -0.023026 0
14.550000 0.001194 0
14.555000 0.023010 0
14.560000 0.045066 0
14.565000 0.068460 0
14.570000 0.093471 0
14.575000 0.120009 0
14.580000 0.147815 0
14.585000 0.176527 0
14.590000 0.205708 0
14.595000 0.234852 0
14.600000 0.263403 0
14.605000 0.290768 0
14.610000 0.316340 0
14.615000 0.339514 0
14.620000 0.359716 0
14.625000 0.376423 0
14.630000 0.389185 0
14.635000 0.397644 0
14.640000 0.401555 5
14.645000 0.400790 0
14.650000 0.395350 0
14.655000 0.385364 0
14.660000 0.371080 0
14.665000 0.352861 0
14.670000 0.331161 0
14.675000 0.306515 0
14.680000 0.279508 0
14.685000 0.250759 0
14.690000 0.220893 0
14.695000 0.190520 0
14.700000 0.160214 0
14.705000 0.130498 0
14.710000 0.101831 0
14.715000 0.074594 0
14.720000 0.049093 0
14.725000 0.025551 0
14.730000 0.004113 0
14.735000 -0.015147 0
14.740000 -0.032221 0
14.745000 -0.047156 0
14.750000 -0.060045 0
14.755000 -0.071014 0
14.760000 -0.080215 0
14.765000 -0.087815 0
14.770000 -0.093988 0
14.775000 -0.098908 0
14.780000 -0.102744 0
14.785000 -0.105655 0
14.790000 -0.107787 0
14.795000 -0.109271 0
14.800000 -0.110224 0
14.805000 -0.110747 0
14.810000 -0.110924 0
14.815000 -0.110133 0
14.820000 -0.109181 0
14.825000 -0.108234 0
14.830000 -0.107292 0
14.835000 -0.106354 0
14.840000 -0.105422 0
14.845000 -0.104493 0
14.850000 -0.103570 0
14.855000 -0.102650 0
14.860000 -0.101735 0
14.865000 -0.100823 0
14.870000 -0.099914 0
14.875000 -0.099005 0
14.880000 -0.098094 0
14.885000 -0.097174 0
14.890000 -0.096235 0
14.895000 -0.095262 0
14.900000 -0.094227 0
14.905000 -0.093089 0
14.910000 -0.091788 0
14.915000 -0.090231 0
14.920000 -0.088291 0
14.925000 -0.085795 0
14.930000 -0.082513 0
14.935000 -0.078161 0
14.940000 -0.072393 0
14.945000 -0.064820 0
14.950000 -0.055028 0
14.955000 -0.042611 0
14.960000 -0.027226 0
14.965000 -0.008647 0
14.970000 0.013166 0
14.975000 0.038008 0
14.980000 0.065380 0
14.985000 0.094467 0
14.990000 0.124150 0
14.995000 0.153063 0
15.000000 0.179681 0
15.005000 0.202453 0
15.010000 0.219950 0
15.015000 0.231010 0
15.020000 0.234867 1
15.025000 0.231239 0
15.030000 0.220360 0
15.035000 0.202959 0
15.040000 0.180174 0
15.045000 0.153433 0
15.050000 0.124301 0
15.055000 0.094322 0
15.060000 0.064840 0
15.065000 0.036786 0
15.070000 0.010337 0
15.075000 -0.015575 0
15.080000 -0.043686 0
15.085000 -0.078071 0
15.090000 -0.122120 0
15.095000 -0.174694 0
15.100000 -0.226250 0
15.105000 -0.258011 2
15.110000 -0.245488 0
15.115000 -0.164382 0
15.120000 0.003119 0
15.125000 0.259592 0
15.130000 0.579038 0
15.135000 0.897148 0
15.140000 1.122676 0
15.145000 1.176283 3
15.150000 1.033890 0
15.155000 0.742497 0
15.160000 0.391918 0
15.165000 0.068442 0
15.170000 -0.173853 0
15.175000 -0.315364 0
15.180000 -0.361335 4
15.185000 -0.333564 0
15.190000 -0.263355 0
15.195000 -0.181938 0
15.200000 -0.110869 0
15.205000 -0.058213 0
15.210000 -0.021772 0
15.215000 0.004736 0
15.220000 0.027055 0
15.225000 0.048746 0
15.230000 0.071467 0
15.235000 0.095765 0
15.240000 0.121665 0
15.245000 0.148957 0
15.250000 0.177313 0
15.255000 0.206316 0
15.260000 0.235479 0
15.265000 0.264255 0
15.270000 0.292057 0
15.275000 0.318271 0
15.280000 0.342282 0
15.285000 0.363495 0
15.290000 0.381360 0
15.295000 0.395395 0
15.300000 0.405205 0
15.305000 0.410503 0
15.310000 0.411124 5
15.315000 0.407026 0
15.320000 0.398302 0
15.325000 0.385169 0
15.330000 0.367961 0
15.335000 0.347116 0
15.340000 0.323153 0
15.345000 0.296655 0
15.350000 0.268241 0
15.355000 0.238544 0
15.360000 0.208187 0
15.365000 0.177764 0
15.370000 0.147817 0
15.375000 0.118826 0
15.380000 0.091197 0
15.385000 0.065254 0
15.390000 0.041242 0
15.395000 0.019323 0
15.400000 -0.000414 0
15.405000 -0.017948 0
15.410000 -0.033318 0
15.415000 -0.046609 0
15.420000 -0.057945 0
15.425000 -0.067476 0
15.430000 -0.075368 0
15.435000 -0.081798 0
15.440000 -0.086942 0
15.445000 -0.090972 0
15.450000 -0.094050 0
15.455000 -0.096327 0
15.460000 -0.097936 0
15.465000 -0.098998 0
15.470000 -0.099617 0
15.475000 -0.099880 0
15.480000 -0.099148 0
15.485000 -0.098251 0
15.490000 -0.097358 0
15.495000 -0.096470 0
15.500000 -0.095587 0
15.505000 -0.094708 0
15.510000 -0.093833 0
15.515000 -0.092962 0
15.520000 -0.092096 0
15.525000 -0.091233 0
15.530000 -0.090374 0
15.535000 -0.089517 0
15.540000 -0.088660 0
15.545000 -0.087800 0
15.550000 -0.086932 0
15.555000 -0.086044 0
15.560000 -0.085121 0
15.565000 -0.084135 0
15.570000 -0.083045 0
15.575000 -0.081787 0
15.580000 -0.080269 0
15.585000 -0.078359 0
15.590000 -0.075880 0
15.595000 -0.072598 0
15.600000 -0.068218 0
15.605000 -0.062391 0
15.610000 -0.054718 0
15.615000 -0.044779 0
15.620000 -0.032167 0
15.625000 -0.016542 0
15.630000 0.002310 0
15.635000 0.024409 0
15.640000 0.049518 0
15.645000 0.077095 0
15.650000 0.106280 0
15.655000 0.135905 0
15.660000 0.164558 0
15.665000 0.190685 0
15.670000 0.212723 0
15.675000 0.229255 0
15.680000 0.239160 0
15.685000 0.241736 1
15.690000 0.236784 0
15.695000 0.224631 0
15.700000 0.206096 0
15.705000 0.182398 0
15.710000 0.155020 0
15.715000 0.125556 0
15.720000 0.095543 0
15.725000 0.066274 0
15.730000 0.038561 0
15.735000 0.012345 0
15.740000 -0.013818 0
15.745000 -0.043097 0
15.750000 -0.079716 0
15.755000 -0.126374 0
15.760000 -0.180037 0
15.765000 -0.228496 0
15.770000 -0.250684 2
15.775000 -0.221243 0
15.780000 -0.116744 0
15.785000 0.077533 0
15.790000 0.357213 0
15.795000 0.684753 0
15.800000 0.984104 0
15.805000 1.161524 3
15.810000 1.153658 0
15.815000 0.960572 0
15.820000 0.643824 0
15.825000 0.292807 0
15.830000 -0.015866 0
15.835000 -0.238346 0
15.840000 -0.361536 0
15.845000 -0.393844 4
15.850000 -0.358104 0
15.855000 -0.284921 0
15.860000 -0.203579 0
15.865000 -0.133562 0
15.870000 -0.081698 0
15.875000 -0.045513 0
15.880000 -0.018937 0
15.885000 0.003524 0
15.890000 0.025309 0
15.895000 0.048057 0
15.900000 0.072329 0
15.905000 0.098176 0
15.910000 0.125413 0
15.915000 0.153736 0
15.920000 0.182757 0
15.925000 0.212020 0
15.930000 0.241013 0
15.935000 0.269180 0
15.940000 0.295938 0
15.945000 0.320695 0
15.950000 0.342877 0
15.955000 0.361940 0
15.960000 0.377401 0
15.965000 0.388851 0
15.970000 0.395978 0
15.975000 0.398578 5
15.980000 0.396561 0
15.985000 0.389964 0
15.990000 0.378940 0
15.995000 0.363760 0
16.000000 0.344795 0
16.005000 0.322506 0
16.010000 0.297420 0
16.015000 0.270115 0
16.020000 0.241190 0
16.025000 0.211252 0
16.030000 0.180888 0
16.035000 0.150651 0
16.040000 0.121040 0
16.045000 0.092495 0
16.050000 0.065382 0
16.055000 0.039990 0
16.060000 0.016533 0
16.065000 -0.004848 0
16.070000 -0.024085 0
16.075000 -0.041168 0
16.080000 -0.056142 0
16.085000 -0.069095 0
16.090000 -0.080148 0
16.095000 -0.089447 0
16.100000 -0.097154 0
16.105000 -0.103437 0
16.110000 -0.108465 0
16.115000 -0.112402 0
16.120000 -0.115405 0
16.125000 -0.117616 0
16.130000 -0.119167 0
16.135000 -0.120173 0
16.140000 -0.120735 0
16.145000 -0.120939 0
16.150000 -0.120109 0
16.155000 -0.119108 0
16.160000 -0.118111 0
16.165000 -0.117120 0
16.170000 -0.116133 0
16.175000 -0.115152 0
16.180000 -0.114175 0
16.185000 -0.113203 0
16.190000 -0.112236 0
16.195000 -0.111273 0
16.200000 -0.110314 0
16.205000 -0.109359 0
16.210000 -0.108405 0
16.215000 -0.107450 0
16.220000 -0.106491 0
16.225000 -0.105519 0
16.230000 -0.104522 0
16.235000 -0.103480 0
16.240000 -0.102360 0
16.245000 -0.101116 0
16.250000 -0.099675 0
16.255000 -0.097936 0
16.260000 -0.095756 0
16.265000 -0.092948 0
16.270000 -0.089268 0
16.275000 -0.084419 0
16.280000 -0.078050 0
16.285000 -0.069772 0
16.290000 -0.059182 0
16.295000 -0.045900 0
16.300000 -0.029619 0
16.305000 -0.010165 0
16.310000 0.012447 0
16.315000 0.037950 0
16.320000 0.065794 0
16.325000 0.095122 0
16.330000 0.124799 0
16.335000 0.153463 0
16.340000 0.179623 0
16.345000 0.201786 0
16.350000 0.218591 0
16.355000 0.228952 0
16.360000 0.232172 1
16.365000 0.228021 0
16.370000 0.216765 0
16.375000 0.199133 0
16.380000 0.176245 0
16.385000 0.149490 0
16.390000 0.120387 0
16.395000 0.090431 0
16.400000 0.060934 0
16.405000 0.032819 0
16.410000 0.006308 0
16.415000 -0.019535 0
16.420000 -0.047220 0
16.425000 -0.080629 0
16.430000 -0.123304 0
16.435000 -0.174967 0
16.440000 -0.227716 0
16.445000 -0.264659 2
16.450000 -0.262632 0
16.455000 -0.197571 0
16.460000 -0.050322 0
16.465000 0.185951 0
16.470000 0.493971 0
16.475000 0.820918 0
16.480000 1.082548 0
16.485000 1.193683 3
16.490000 1.112335 0
16.495000 0.863353 0
16.500000 0.523373 0
16.505000 0.180503 0
16.510000 -0.100156 0
16.515000 -0.287101 0
16.520000 -0.376038 0
16.525000 -0.381123 4
16.530000 -0.328655 0
16.535000 -0.249705 0
16.540000 -0.170742 0
16.545000 -0.106760 0
16.550000 -0.060797 0
16.555000 -0.028569 0
16.560000 -0.003909 0
16.565000 0.018016 0
16.570000 0.039963 0
16.575000 0.063135 0
16.580000 0.087880 0
16.585000 0.114153 0
16.590000 0.141728 0
16.595000 0.170272 0
16.600000 0.199380 0
16.605000 0.228580 0
16.610000 0.257347 0
16.615000 0.285119 0
16.620000 0.311314 0
16.625000 0.335345 0
16.630000 0.356649 0
16.635000 0.374701 0
16.640000 0.389038 0
16.645000 0.399282 0
16.650000 0.405150 0
16.655000 0.406468 5
16.660000 0.403184 0
16.665000 0.395362 0
16.670000 0.383189 0
16.675000 0.366960 0
16.680000 0.347068 0
16.685000 0.323989 0
16.690000 0.298264 0
16.695000 0.270471 0
16.700000 0.241212 0
16.705000 0.211085 0
16.710000 0.180668 0
16.715000 0.150499 0
16.720000 0.121062 0
16.725000 0.092776 0
16.730000 0.065989 0
16.735000 0.040971 0
16.740000 0.017919 0
16.745000 -0.003043 0
16.750000 -0.021860 0
16.755000 -0.038536 0
16.760000 -0.053123 0
16.765000 -0.065717 0
16.770000 -0.076444 0
16.775000 -0.085453 0
16.780000 -0.092906 0
16.785000 -0.098971 0
16.790000 -0.103815 0
16.795000 -0.107601 0
16.800000 -0.110482 0
16.805000 -0.112597 0
16.810000 -0.114075 0
16.815000 -0.115027 0
16.820000 -0.115551 0
16.825000 -0.115732 0
16.830000 -0.114920 0
16.835000 -0.113945 0
16.840000 -0.112974 0
16.845000 -0.112008 0
16.850000 -0.111047 0
16.855000 -0.110091 0
16.860000 -0.109140 0
16.865000 -0.108193 0
16.870000 -0.107250 0
16.875000 -0.106312 0
16.880000 -0.105378 0
16.885000 -0.104447 0
16.890000 -0.103517 0
16.895000 -0.102586 0
16.900000 -0.101649 0
16.905000 -0.100699 0
16.910000 -0.099722 0
16.915000 -0.098697 0
16.920000 -0.097591 0
16.925000 -0.096355 0
16.930000 -0.094915 0
16.935000 -0.093166 0
16.940000 -0.090964 0
16.945000 -0.088117 0
16.950000 -0.084380 0
16.955000 -0.079453 0
16.960000 -0.072982 0
16.965000 -0.064581 0
16.970000 -0.053848 0
16.975000 -0.040410 0
16.980000 -0.023968 0
16.985000 -0.004358 0
16.990000 0.018391 0
16.995000 0.044002 0
17.000000 0.071912 0
17.005000 0.101256 0
17.010000 0.130896 0
17.015000 0.159470 0
17.020000 0.185497 0
17.025000 0.207492 0
17.030000 0.224112 0
17.035000 0.234286 0
17.040000 0.237331 1
17.045000 0.233031 0
17.050000 0.221655 0
17.055000 0.203936 0
17.060000 0.180989 0
17.065000 0.154197 0
17.070000 0.125068 0
17.075000 0.095090 0
17.080000 0.065565 0
17.085000 0.037413 0
17.090000 0.010864 0
17.095000 -0.014994 0
17.100000 -0.042631 0
17.105000 -0.075890 0
17.110000 -0.118330 0
17.115000 -0.169824 0
17.120000 -0.222774 0
17.125000 -0.260657 2
17.130000 -0.260587 0
17.135000 -0.198583 0
17.140000 -0.055285 0
17.145000 0.176866 0
17.150000 0.482169 0
17.155000 0.810045 0
17.160000 1.077922 0
17.165000 1.200000 3
17.170000 1.126338 0
17.175000 0.878450 0
17.180000 0.537456 0
17.185000 0.196785 0
17.190000 -0.076216 0
17.195000 -0.250935 0
17.200000 -0.325609 4
17.205000 -0.317749 0
17.210000 -0.257017 0
17.215000 -0.176249 0
17.220000 -0.100950 0
17.225000 -0.043170 0
17.230000 -0.003001 0
17.235000 0.025377 0
17.240000 0.048212 0
17.245000 0.069712 0
17.250000 0.091972 0
17.255000 0.115753 0
17.260000 0.141170 0
17.265000 0.168053 0
17.270000 0.196088 0
17.275000 0.224872 0
17.280000 0.253922 0
17.285000 0.282697 0
17.290000 0.310606 0
17.295000 0.337030 0
17.300000 0.361344 0
17.305000 0.382938 0
17.310000 0.401245 0
17.315000 0.415763 0
17.320000 0.426078 0
17.325000 0.431882 0
17.330000 0.432989 5
17.335000 0.429343 0
17.340000 0.421019 0
17.345000 0.408224 0
17.350000 0.391287 0
17.355000 0.370640 0
17.360000 0.346805 0
17.365000 0.320368 0
17.370000 0.291955 0
17.375000 0.262209 0
17.380000 0.231763 0
17.385000 0.201220 0
17.390000 0.171135 0
17.395000 0.141996 0
17.400000 0.114218 0
17.405000 0.088132 0
17.410000 0.063988 0
17.415000 0.041952 0
17.420000 0.022114 0
17.425000 0.004494 0
17.430000 -0.010947 0
17.435000 -0.024296 0
17.440000 -0.035681 0
17.445000 -0.045252 0
17.450000 -0.053181 0
17.455000 -0.059647 0
17.460000 -0.064827 0
17.465000 -0.068896 0
17.470000 -0.072017 0
17.475000 -0.074343 0
17.480000 -0.076007 0
17.485000 -0.077130 0
17.490000 -0.077815 0
17.495000 -0.078152 0
17.500000 -0.077523 0
17.505000 -0.076734 0
17.510000 -0.075948 0
17.515000 -0.075167 0
17.520000 -0.074390 0
17.525000 -0.073617 0
17.530000 -0.072847 0
17.535000 -0.072081 0
17.540000 -0.071319 0
17.545000 -0.070560 0
17.550000 -0.069803 0
17.555000 -0.069048 0
17.560000 -0.068292 0
17.565000 -0.067532 0
17.570000 -0.066760 0
17.575000 -0.065965 0
17.580000 -0.065129 0
17.585000 -0.064221 0
17.590000 -0.063193 0
17.595000 -0.061975 0
17.600000 -0.060463 0
17.605000 -0.058512 0
17.610000 -0.055928 0
17.615000 -0.052454 0
17.620000 -0.047777 0
17.625000 -0.041523 0
17.630000 -0.033280 0
17.635000 -0.022620 0
17.640000 -0.009146 0
17.645000 0.007453 0
17.650000 0.027336 0
17.655000 0.050439 0
17.660000 0.076420 0
17.665000 0.104613 0
17.670000 0.134028 0
17.675000 0.163378 0
17.680000 0.191162 0
17.685000 0.215782 0
17.690000 0.235693 0
17.695000 0.249559 0
17.700000 0.256403 1
17.705000 0.255716 0
17.710000 0.247523 0
17.715000 0.232379 0
17.720000 0.211305 0
17.725000 0.185675 0
17.730000 0.157065 0
17.735000 0.127087 0
17.740000 0.097209 0
17.745000 0.068551 0
17.750000 0.041569 0
17.755000 0.015585 0
17.760000 -0.011732 0
17.765000 -0.044323 0
17.770000 -0.086139 0
17.775000 -0.137465 0
17.780000 -0.190582 0
17.785000 -0.227972 2
17.790000 -0.225164 0
17.795000 -0.156720 0
17.800000 -0.002790 0
17.805000 0.242325 0
17.810000 0.556652 0
17.815000 0.878863 0
17.820000 1.116806 0
17.825000 1.185863 3
17.830000 1.055017 0
17.835000 0.768469 0
17.840000 0.418269 0
17.845000 0.094394 0
17.850000 -0.146799 0
17.855000 -0.285296 0
17.860000 -0.327144 4
17.865000 -0.295607 0
17.870000 -0.223465 0
17.875000 -0.142544 0
17.880000 -0.073761 0
17.885000 -0.023872 0
17.890000 0.010374 0
17.895000 0.035628 0
17.900000 0.057482 0
17.905000 0.079181 0
17.910000 0.102129 0
17.915000 0.126725 0
17.920000 0.152915 0
17.925000 0.180441 0
17.930000 0.208933 0
17.935000 0.237936 0
17.940000 0.266920 0
17.945000 0.295303 0
17.950000 0.322461 0
17.955000 0.347756 0
17.960000 0.370553 0
17.965000 0.390252 0
17.970000 0.406310 0
17.975000 0.418265 0
17.980000 0.425761 0
17.985000 0.428560 5
17.990000 0.426556 0
17.995000 0.419781 0
18.000000 0.408402 0
18.005000 0.392717 0
18.010000 0.373137 0
18.015000 0.350170 0
18.020000 0.324400 0
18.025000 0.296459 0
18.030000 0.267001 0
18.035000 0.236678 0
18.040000 0.206117 0
18.045000 0.175898 0
18.050000 0.146536 0
18.055000 0.118471 0
18.060000 0.092059 0
18.065000 0.067572 0
18.070000 0.045192 0
18.075000 0.025025 0
18.080000 0.007100 0
18.085000 -0.008613 0
18.090000 -0.022200 0
18.095000 -0.033784 0
18.100000 -0.043519 0
18.105000 -0.051579 0
18.110000 -0.058145 0
18.115000 -0.063400 0
18.120000 -0.067523 0
18.125000 -0.070682 0
18.130000 -0.073031 0
18.135000 -0.074709 0
18.140000 -0.075839 0
18.145000 -0.076527 0
18.150000 -0.076863 0
18.155000 -0.076239 0
18.160000 -0.075456 0
18.165000 -0.074678 0
18.170000 -0.073903 0
18.175000 -0.073132 0
18.180000 -0.072365 0
18.185000 -0.071601 0
18.190000 -0.070842 0
18.195000 -0.070085 0
18.200000 -0.069332 0
18.205000 -0.068581 0
18.210000 -0.067832 0
18.215000 -0.067081 0
18.220000 -0.066324 0
18.225000 -0.065555 0
18.230000 -0.064759 0
18.235000 -0.063915 0
18.240000 -0.062990 0
18.245000 -0.061929 0
18.250000 -0.060654 0
18.255000 -0.059049 0
18.260000 -0.056952 0
18.265000 -0.054149 0
18.270000 -0.050361 0
18.275000 -0.045248 0
18.280000 -0.038414 0
18.285000 -0.029427 0
18.290000 -0.017856 0
18.295000 -0.003317 0
18.300000 0.014462 0
18.305000 0.035568 0
18.310000 0.059837 0
18.315000 0.086794 0
18.320000 0.115626 0
18.325000 0.145189 0
18.330000 0.174065 0
18.335000 0.200658 0
18.340000 0.223338 0
18.345000 0.240602 0
18.350000 0.251236 0
18.355000 0.254458 1
18.360000 0.250009 0
18.365000 0.238187 0
18.370000 0.219814 0
18.375000 0.196139 0
18.380000 0.168698 0
18.385000 0.139143 0
18.390000 0.109065 0
18.395000 0.079793 0
18.400000 0.052128 0
18.405000 0.025921 0
18.410000 -0.000489 0
18.415000 -0.030574 0
18.420000 -0.068697 0
18.425000 -0.117046 0
18.430000 -0.171037 0
18.435000 -0.216113 0
18.440000 -0.229032 2
18.445000 -0.183383 0
18.450000 -0.056358 0
18.455000 0.163368 0
18.460000 0.462981 0
18.465000 0.791206 0
18.470000 1.059542 0
18.475000 1.174763 3
18.480000 1.091142 0
18.485000 0.836373 0
18.490000 0.493377 0
18.495000 0.154957 0
18.500000 -0.113395 0
18.505000 -0.282792 0
18.510000 -0.352640 4
18.515000 -0.341226 0
18.520000 -0.278605 0
18.525000 -0.197478 0
18.530000 -0.122756 0
18.535000 -0.065798 0
18.540000 -0.026246 0
18.545000 0.001848 0
18.550000 0.024662 0
18.555000 0.046287 0
18.560000 0.068733 0
18.565000 0.092717 0
18.570000 0.118332 0
18.575000 0.145398 0
18.580000 0.173600 0
18.585000 0.202527 0
18.590000 0.231695 0
18.595000 0.260560 0
18.600000 0.288530 0
18.605000 0.314984 0
18.610000 0.339297 0
18.615000 0.360863 0
18.620000 0.379115 0
18.625000 0.393558 0
18.630000 0.403780 0
18.635000 0.409480 0
18.640000 0.410477 5
18.645000 0.406721 0
18.650000 0.398294 0
18.655000 0.385410 0
18.660000 0.368401 0
18.665000 0.347704 0
18.670000 0.323845 0
18.675000 0.297412 0
18.680000 0.269032 0
18.685000 0.239348 0
18.690000 0.208992 0
18.695000 0.178565 0
18.700000 0.148618 0
18.705000 0.119638 0
18.710000 0.092035 0
18.715000 0.066137 0
18.720000 0.042188 0
18.725000 0.020353 0
18.730000 0.000716 0
18.735000 -0.016703 0
18.740000 -0.031947 0
18.745000 -0.045106 0
18.750000 -0.056305 0
18.755000 -0.065701 0
18.760000 -0.073462 0
18.765000 -0.079768 0
18.770000 -0.084797 0
18.775000 -0.088723 0
18.780000 -0.091709 0
18.785000 -0.093906 0
18.790000 -0.095447 0
18.795000 -0.096453 0
18.800000 -0.097025 0
18.805000 -0.097091 0
18.810000 -0.096205 0
18.815000 -0.095323 0
18.820000 -0.094445 0
18.825000 -0.093571 0
18.830000 -0.092702 0
18.835000 -0.091838 0
18.840000 -0.090977 0
18.845000 -0.090121 0
18.850000 -0.089268 0
18.855000 -0.088420 0
18.860000 -0.087574 0
18.865000 -0.086730 0
18.870000 -0.085886 0
18.875000 -0.085037 0
18.880000 -0.084177 0
18.885000 -0.083294 0
18.890000 -0.082369 0
18.895000 -0.081371 0
18.900000 -0.080252 0
18.905000 -0.078939 0
18.910000 -0.077327 0
18.915000 -0.075271 0
18.920000 -0.072572 0
18.925000 -0.068974 0
18.930000 -0.064159 0
18.935000 -0.057753 0
18.940000 -0.049341 0
18.945000 -0.038497 0
18.950000 -0.024825 0
18.955000 -0.008019 0
18.960000 0.012071 0
18.965000 0.035373 0
18.970000 0.061532 0
18.975000 0.089872 0
18.980000 0.119388 0
18.985000 0.148786 0
18.990000 0.176558 0
18.995000 0.201106 0
19.000000 0.220891 0
19.005000 0.234586 0
19.010000 0.241232 1
19.015000 0.240339 0
19.020000 0.231952 0
19.025000 0.216644 0
19.030000 0.195452 0
19.035000 0.169759 0
19.040000 0.141146 0
19.045000 0.111221 0
19.050000 0.081445 0
19.055000 0.052918 0
19.060000 0.026065 0
19.065000 0.000157 0
19.070000 -0.027200 0
19.075000 -0.059988 0
19.080000 -0.102101 0
19.085000 -0.153607 0
19.090000 -0.206452 0
19.095000 -0.242802 2
19.100000 -0.238049 0
19.105000 -0.166846 0
19.110000 -0.009669 0
19.115000 0.238472 0
19.120000 0.554392 0
19.125000 0.875405 0
19.130000 1.108860 0
19.135000 1.171312 3
19.140000 1.033841 0
19.145000 0.743095 0
19.150000 0.392448 0
19.155000 0.071397 0
19.160000 -0.165102 0
19.165000 -0.298399 0
19.170000 -0.335617 4
19.175000 -0.300865 0
19.180000 -0.227357 0
19.185000 -0.146688 0
19.190000 -0.079018 0
19.195000 -0.030316 0
19.200000 0.003122 0
19.205000 0.028012 0
19.210000 0.049815 0
19.215000 0.071627 0
19.220000 0.094751 0
19.225000 0.119536 0
19.230000 0.145902 0
19.235000 0.173580 0
19.240000 0.202188 0
19.245000 0.231260 0
19.250000 0.260259 0
19.255000 0.288593 0
19.260000 0.315633 0
19.265000 0.340735 0
19.270000 0.363264 0
19.275000 0.382622 0
19.280000 0.398269 0
19.285000 0.409754 0
19.290000 0.416730 0
19.295000 0.418975 5
19.300000 0.416399 0
19.305000 0.409052 0
19.310000 0.397120 0
19.315000 0.380918 0
19.320000 0.360876 0
19.325000 0.337516 0
19.330000 0.311433 0
19.335000 0.283268 0
19.340000 0.253680 0
19.345000 0.223324 0
19.350000 0.192822 0
19.355000 0.162750 0
19.360000 0.133614 0
19.365000 0.105843 0
19.370000 0.079782 0
19.375000 0.055687 0
19.380000 0.033729 0
19.385000 0.014000 0
19.390000 -0.003481 0
19.395000 -0.018757 0
19.400000 -0.031921 0
19.405000 -0.043104 0
19.410000 -0.052466 0
19.415000 -0.060182 0
19.420000 -0.066437 0
19.425000 -0.071414 0
19.430000 -0.075291 0
19.435000 -0.078234 0
19.440000 -0.080395 0
19.445000 -0.081912 0
19.450000 -0.082903 0
19.455000 -0.083473 0
19.460000 -0.083555 0
19.465000 -0.082736 0
19.470000 -0.081921 0
19.475000 -0.081110 0
19.480000 -0.080303 0
19.485000 -0.079500 0
19.490000 -0.078701 0
19.495000 -0.077906 0
19.500000 -0.077115 0
19.505000 -0.076327 0
19.510000 -0.075543 0
19.515000 -0.074761 0
19.520000 -0.073979 0
19.525000 -0.073196 0
19.530000 -0.072405 0
19.535000 -0.071599 0
19.540000 -0.070761 0
19.545000 -0.069868 0
19.550000 -0.068881 0
19.555000 -0.067740 0
19.560000 -0.066354 0
19.565000 -0.064598 0
19.570000 -0.062293 0
19.575000 -0.059206 0
19.580000 -0.055038 0
19.585000 -0.049429 0
19.590000 -0.041969 0
19.595000 -0.032219 0
19.600000 -0.019752 0
19.605000 -0.004209 0
19.610000 0.014632 0
19.615000 0.036789 0
19.620000 0.062004 0
19.625000 0.089694 0
19.630000 0.118931 0
19.635000 0.148469 0
19.640000 0.176808 0
19.645000 0.202318 0
19.650000 0.223380 0
19.655000 0.238564 0
19.660000 0.246779 0
19.665000 0.247410 1
19.670000 0.240388 0
19.675000 0.226201 0
19.680000 0.205840 0
19.685000 0.180678 0
19.690000 0.152324 0
19.695000 0.122436 0
19.700000 0.092546 0
19.705000 0.063836 0
19.710000 0.036821 0
19.715000 0.010857 0
19.720000 -0.016408 0
19.725000 -0.049013 0
19.730000 -0.091002 0
19.735000 -0.142537 0
19.740000 -0.195345 0
19.745000 -0.230975 2
19.750000 -0.224022 0
19.755000 -0.148531 0
19.760000 0.015012 0
19.765000 0.270181 0
19.770000 0.589950 0
19.775000 0.905875 0
19.780000 1.121354 0
19.785000 1.155655 3
19.790000 0.988829 0
19.795000 0.679754 0
19.800000 0.328920 0
19.805000 0.023966 0
19.810000 -0.186939 0
19.815000 -0.292131 0
19.820000 -0.304726 4
19.825000 -0.253781 0
19.830000 -0.174797 0
19.835000 -0.097536 0
19.840000 -0.037444 0
19.845000 0.004020 0
19.850000 0.032786 0
19.855000 0.055627 0
19.860000 0.077101 0
19.865000 0.099420 0
19.870000 0.123349 0
19.875000 0.148970 0
19.880000 0.176071 0
19.885000 0.204297 0
19.890000 0.233192 0
19.895000 0.262219 0
19.900000 0.290778 0
19.905000 0.318218 0
19.910000 0.343867 0
19.915000 0.367055 0
19.920000 0.387142 0
19.925000 0.403548 0
19.930000 0.415776 0
19.935000 0.423444 0
19.940000 0.426295 5
19.945000 0.424217 0
19.950000 0.417244 0
19.955000 0.405559 0
19.960000 0.389483 0
19.965000 0.369460 0
19.970000 0.346037 0
19.975000 0.319836 0
19.980000 0.291529 0
19.985000 0.261808 0
19.990000 0.231355 0
19.995000 0.200819 0
20.000000 0.170794 0
20.005000 0.141799 0
20.010000 0.114269 0
20.015000 0.088548 0
20.020000 0.064885 0
20.025000 0.043437 0
20.030000 0.024281 0
20.035000 0.007416 0
20.040000 -0.007219 0
20.045000 -0.019736 0
20.050000 -0.030285 0
20.055000 -0.039040 0
20.060000 -0.046190 0
20.065000 -0.051927 0
20.070000 -0.056443 0
20.075000 -0.059918 0
20.080000 -0.062518 0
20.085000 -0.064395 0
20.090000 -0.065683 0
20.095000 -0.066496 0
20.100000 -0.066934 0
20.105000 -0.066366 0
20.110000 -0.065632 0
20.115000 -0.064903 0
20.120000 -0.064177 0
20.125000 -0.063454 0
20.130000 -0.062735 0
20.135000 -0.062020 0
20.140000 -0.061308 0
20.145000 -0.060599 0
20.150000 -0.059893 0
20.155000 -0.059189 0
20.160000 -0.058486 0
20.165000 -0.057780 0
20.170000 -0.057068 0
20.175000 -0.056338 0
20.180000 -0.055577 0
20.185000 -0.054759 0
20.190000 -0.053841 0
20.195000 -0.052761 0
20.200000 -0.051423 0
20.205000 -0.049688 0
20.210000 -0.047364 0
20.215000 -0.044198 0
20.220000 -0.039866 0
20.225000 -0.033981 0
20.230000 -0.026102 0
20.235000 -0.015769 0
20.240000 -0.002548 0
20.245000 0.013906 0
20.250000 0.033770 0
20.255000 0.056975 0
20.260000 0.083137 0
20.265000 0.111512 0
20.270000 0.140992 0
20.275000 0.170149 0
20.280000 0.197334 0
20.285000 0.220824 0
20.290000 0.238999 0
20.295000 0.250524 0
20.300000 0.254508 1
20.305000 0.250621 0
20.310000 0.239132 0
20.315000 0.220883 0
20.320000 0.197179 0
20.325000 0.169638 0
20.330000 0.140000 0
20.335000 0.109929 0
20.340000 0.080791 0
20.345000 0.053340 0
20.350000 0.027230 0
20.355000 0.000397 0
20.360000 -0.031125 0
20.365000 -0.071768 0
20.370000 -0.122516 0
20.375000 -0.175853 0
20.380000 -0.213348 2
20.385000 -0.208706 0
20.390000 -0.134656 0
20.395000 0.029387 0
20.400000 0.286943 0
20.405000 0.608443 0
20.410000 0.920059 0
20.415000 1.120218 0
20.420000 1.129390 3
20.425000 0.941291 0
20.430000 0.623060 0
20.435000 0.273268 0
20.440000 -0.025833 0
20.445000 -0.230463 0
20.450000 -0.331057 0
20.455000 -0.341200 4
20.460000 -0.289436 0
20.465000 -0.210261 0
20.470000 -0.132604 0
20.475000 -0.071710 0
20.480000 -0.029320 0
20.485000 0.000173 0
20.490000 0.023422 0
20.495000 0.045047 0
20.500000 0.067368 0
20.505000 0.091233 0
20.510000 0.116772 0
20.515000 0.143809 0
20.520000 0.172013 0
20.525000 0.200960 0
20.530000 0.230140 0
20.535000 0.258981 0
20.540000 0.286862 0
20.545000 0.313134 0
20.550000 0.337142 0
20.555000 0.358256 0
20.560000 0.375895 0
20.565000 0.389552 0
20.570000 0.398819 0
20.575000 0.403409 5
20.580000 0.403163 0
20.585000 0.398066 0
20.590000 0.388245 0
20.595000 0.373962 0
20.600000 0.355603 0
20.605000 0.333661 0
20.610000 0.308712 0
20.615000 0.281391 0
20.620000 0.252364 0
20.625000 0.222300 0
20.630000 0.191847 0
20.635000 0.161612 0
20.640000 0.132136 0
20.645000 0.103887 0
20.650000 0.077245 0
20.655000 0.052504 0
20.660000 0.029866 0
20.665000 0.009452 0
20.670000 -0.008697 0
20.675000 -0.024603 0
20.680000 -0.038348 0
20.685000 -0.050053 0
20.690000 -0.059874 0
20.695000 -0.067984 0
20.700000 -0.074571 0
20.705000 -0.079820 0
20.710000 -0.083915 0
20.715000 -0.087028 0
20.720000 -0.089317 0
20.725000 -0.090926 0
20.730000 -0.091979 0
20.735000 -0.092585 0
20.740000 -0.092676 0
20.745000 -0.091811 0
20.750000 -0.090951 0
20.755000 -0.090095 0
20.760000 -0.089243 0
20.765000 -0.088396 0
20.770000 -0.087552 0
20.775000 -0.086713 0
20.780000 -0.085878 0
20.785000 -0.085047 0
20.790000 -0.084219 0
20.795000 -0.083394 0
20.800000 -0.082570 0
20.805000 -0.081744 0
20.810000 -0.080912 0
20.815000 -0.080066 0
20.820000 -0.079189 0
20.825000 -0.078260 0
20.830000 -0.077238 0
20.835000 -0.076065 0
20.840000 -0.074652 0
20.845000 -0.072871 0
20.850000 -0.070544 0
20.855000 -0.067435 0
20.860000 -0.063243 0
20.865000 -0.057601 0
20.870000 -0.050093 0
20.875000 -0.040273 0
20.880000 -0.027708 0
20.885000 -0.012035 0
20.890000 0.006968 0
20.895000 0.029309 0
20.900000 0.054713 0
20.905000 0.082568 0
20.910000 0.111914 0
20.915000 0.141460 0
20.920000 0.169671 0
20.925000 0.194883 0
20.930000 0.215462 0
20.935000 0.229982 0
20.940000 0.237383 1
20.945000 0.237100 0
20.950000 0.229134 0
20.955000 0.214054 0
20.960000 0.192930 0
20.965000 0.167203 0
20.970000 0.138527 0
20.975000 0.108581 0
20.980000 0.078874 0
20.985000 0.050514 0
20.990000 0.023844 0
20.995000 -0.002097 0
21.000000 -0.030091 0
21.005000 -0.064462 0
21.010000 -0.108842 0
21.015000 -0.161780 0
21.020000 -0.212383 0
21.025000 -0.239676 2
21.030000 -0.217047 0
21.035000 -0.119137 0
21.040000 0.070654 0
21.045000 0.348895 0
21.050000 0.676471 0
21.055000 0.972468 0
21.060000 1.137976 3
21.065000 1.110642 0
21.070000 0.898046 0
21.075000 0.570689 0
21.080000 0.222576 0
21.085000 -0.071201 0
21.090000 -0.271631 0
21.095000 -0.370771 0
21.100000 -0.381770 4
21.105000 -0.331590 0
21.110000 -0.252979 0
21.115000 -0.174081 0
21.120000 -0.110681 0
21.125000 -0.065681 0
21.130000 -0.034321 0
21.135000 -0.010138 0
21.140000 0.011717 0
21.145000 0.033876 0
21.150000 0.057409 0
21.155000 0.082576 0
21.160000 0.109272 0
21.165000 0.137225 0
21.170000 0.166061 0
21.175000 0.195326 0
21.180000 0.224501 0
21.185000 0.253016 0
21.190000 0.280265 0
21.195000 0.305627 0
21.200000 0.328491 0
21.205000 0.348278 0
21.210000 0.364463 0
21.215000 0.376603 0
21.220000 0.384353 0
21.225000 0.387480 5
21.230000 0.385881 0
21.235000 0.379580 0
21.240000 0.368733 0
21.245000 0.353619 0
21.250000 0.334628 0
21.255000 0.312244 0
21.260000 0.287025 0
21.265000 0.259578 0
21.270000 0.230536 0
21.275000 0.200532 0
21.280000 0.170181 0
21.285000 0.140053 0
21.290000 0.110664 0
21.295000 0.082456 0
21.300000 0.055796 0
21.305000 0.030966 0
21.310000 0.008169 0
21.315000 -0.012474 0
21.320000 -0.030910 0
21.325000 -0.047153 0
21.330000 -0.061269 0
21.335000 -0.073365 0
21.340000 -0.083581 0
21.345000 -0.092080 0
21.350000 -0.099034 0
21.355000 -0.104622 0
21.360000 -0.109019 0
21.365000 -0.112393 0
21.370000 -0.114900 0
21.375000 -0.116682 0
21.380000 -0.117867 0
21.385000 -0.118566 0
21.390000 -0.118873 0
21.395000 -0.118726 0
21.400000 -0.117731 0
21.405000 -0.116742 0
21.410000 -0.115757 0
21.415000 -0.114777 0
21.420000 -0.113803 0
21.425000 -0.112833 0
21.430000 -0.111867 0
21.435000 -0.110907 0
21.440000 -0.109950 0
21.445000 -0.108998 0
21.450000 -0.108049 0
21.455000 -0.107102 0
21.460000 -0.106153 0
21.465000 -0.105199 0
21.470000 -0.104231 0
21.475000 -0.103234 0
21.480000 -0.102187 0
21.485000 -0.101054 0
21.490000 -0.099779 0
21.495000 -0.098281 0
21.500000 -0.096445 0
21.505000 -0.094108 0
21.510000 -0.091057 0
21.515000 -0.087018 0
21.520000 -0.081658 0
21.525000 -0.074592 0
21.530000 -0.065401 0
21.535000 -0.053667 0
21.540000 -0.039019 0
21.545000 -0.021189 0
21.550000 -0.000085 0
21.555000 0.024148 0
21.560000 0.051072 0
21.565000 0.079927 0
21.570000 0.109637 0
21.575000 0.138852 0
21.580000 0.166043 0
21.585000 0.189627 0
21.590000 0.208115 0
21.595000 0.220270 0
21.600000 0.225244 1
21.605000 0.222676 0
21.610000 0.212731 0
21.615000 0.196092 0
21.620000 0.173873 0
21.625000 0.147503 0
21.630000 0.118566 0
21.635000 0.088643 0
21.640000 0.059127 0
21.645000 0.031004 0
21.650000 0.004517 0
21.655000 -0.021341 0
21.660000 -0.049272 0
21.665000 -0.083394 0
21.670000 -0.127218 0
21.675000 -0.179701 0
21.680000 -0.231229 0
21.685000 -0.262702 2
21.690000 -0.249183 0
21.695000 -0.166003 0
21.700000 0.004691 0
21.705000 0.264729 0
21.710000 0.586042 0
21.715000 0.901204 0
21.720000 1.116802 0
21.725000 1.154883 3
21.730000 0.997234 0
21.735000 0.696586 0
21.740000 0.345354 0
21.745000 0.028510 0
21.750000 -0.203060 0
21.755000 -0.332773 0
21.760000 -0.368238 4
21.765000 -0.333112 0
21.770000 -0.259670 0
21.775000 -0.178687 0
21.780000 -0.110106 0
21.785000 -0.060223 0
21.790000 -0.025778 0
21.795000 -0.000267 0
21.800000 0.021798 0
21.805000 0.043640 0
21.810000 0.066681 0
21.815000 0.091341 0
21.820000 0.117585 0
21.825000 0.145172 0
21.830000 0.173750 0
21.835000 0.202880 0
21.840000 0.232055 0
21.845000 0.260710 0
21.850000 0.288244 0
21.855000 0.314031 0
21.860000 0.337452 0
21.865000 0.357913 0
21.870000 0.374872 0
21.875000 0.387863 0
21.880000 0.396514 0
21.885000 0.400565 5
21.890000 0.399884 0
21.895000 0.394468 0
21.900000 0.384448 0
21.905000 0.370081 0
21.910000 0.351738 0
21.915000 0.329891 0
21.920000 0.305088 0
21.925000 0.277935 0
21.930000 0.249064 0
21.935000 0.219117 0
21.940000 0.188717 0
21.945000 0.158447 0
21.950000 0.128837 0
21.955000 0.100346 0
21.960000 0.073355 0
21.965000 0.048162 0
21.970000 0.024984 0
21.975000 0.003955 0
21.980000 -0.014863 0
21.985000 -0.031475 0
21.990000 -0.045940 0
21.995000 -0.058361 0
22.000000 -0.068876 0
22.005000 -0.077645 0
22.010000 -0.084842 0
22.015000 -0.090647 0
22.020000 -0.095237 0
22.025000 -0.098781 0
22.030000 -0.101439 0
22.035000 -0.103355 0
22.040000 -0.104659 0
22.045000 -0.105465 0
22.050000 -0.105869 0
22.055000 -0.105807 0
22.060000 -0.104877 0
22.065000 -0.103952 0
22.070000 -0.103031 0
22.075000 -0.102115 0
22.080000 -0.101203 0
22.085000 -0.100296 0
22.090000 -0.099393 0
22.095000 -0.098495 0
22.100000 -0.097600 0
22.105000 -0.096710 0
22.110000 -0.095822 0
22.115000 -0.094936 0
22.120000 -0.094048 0
22.125000 -0.093155 0
22.130000 -0.092248 0
22.135000 -0.091312 0
22.140000 -0.090326 0
22.145000 -0.089255 0
22.150000 -0.088042 0
22.155000 -0.086607 0
22.160000 -0.084832 0
22.165000 -0.082557 0
22.170000 -0.079566 0
22.175000 -0.075583 0
22.180000 -0.070274 0
22.185000 -0.063249 0
22.190000 -0.054086 0
22.195000 -0.042366 0
22.200000 -0.027713 0
22.205000 -0.009864 0
22.210000 0.011272 0
22.215000 0.035540 0
22.220000 0.062490 0
22.225000 0.091347 0
22.230000 0.121013 0
22.235000 0.150121 0
22.240000 0.177124 0
22.245000 0.200429 0
22.250000 0.218545 0
22.255000 0.230246 0
22.260000 0.234703 1
22.265000 0.231585 0
22.270000 0.221095 0
22.275000 0.203954 0
22.280000 0.181312 0
22.285000 0.154626 0
22.290000 0.125499 0
22.295000 0.095512 0
22.300000 0.066044 0
22.305000 0.038035 0
22.310000 0.011632 0
22.315000 -0.014334 0
22.320000 -0.042767 0
22.325000 -0.077883 0
22.330000 -0.122929 0
22.335000 -0.176041 0
22.340000 -0.226362 0
22.345000 -0.253668 2
22.350000 -0.232522 0
22.355000 -0.138582 0
22.360000 0.044633 0
22.365000 0.315738 0
22.370000 0.641154 0
22.375000 0.947655 0
22.380000 1.140362 0
22.385000 1.147491 3
22.390000 0.962238 0
22.395000 0.646917 0
22.400000 0.296227 0
22.405000 -0.008935 0
22.410000 -0.223623 0
22.415000 -0.336010 0
22.420000 -0.357033 4
22.425000 -0.312623 0
22.430000 -0.235786 0
22.435000 -0.156061 0
22.440000 -0.090940 0
22.445000 -0.044489 0
22.450000 -0.012338 0
22.455000 0.012087 0
22.460000 0.033881 0
22.465000 0.055857 0
22.470000 0.079182 0
22.475000 0.104149 0
22.480000 0.130668 0
22.485000 0.158467 0
22.490000 0.187170 0
22.495000 0.216322 0
22.500000 0.245396 0
22.505000 0.273815 0
22.510000 0.300966 0
22.515000 0.326220 0
22.520000 0.348957 0
22.525000 0.368590 0
22.530000 0.384589 0
22.535000 0.396506 0
22.540000 0.403993 0
22.545000 0.406822 5
22.550000 0.404891 0
22.555000 0.398232 0
22.560000 0.387010 0
22.565000 0.371515 0
22.570000 0.352150 0
22.575000 0.329411 0
22.580000 0.303869 0
22.585000 0.276142 0
22.590000 0.246874 0
22.595000 0.216705 0
22.600000 0.186253 0
22.605000 0.156092 0
22.610000 0.126734 0
22.615000 0.098620 0
22.620000 0.072109 0
22.625000 0.047475 0
22.630000 0.024911 0
22.635000 0.004530 0
22.640000 -0.013629 0
22.645000 -0.029588 0
22.650000 -0.043422 0
22.655000 -0.055247 0
22.660000 -0.065210 0
22.665000 -0.073478 0
22.670000 -0.080228 0
22.675000 -0.085641 0
22.680000 -0.089892 0
22.685000 -0.093151 0
22.690000 -0.095572 0
22.695000 -0.097295 0
22.700000 -0.098445 0
22.705000 -0.099132 0
22.710000 -0.099446 0
22.715000 -0.098723 0
22.720000 -0.097829 0
22.725000 -0.096938 0
22.730000 -0.096052 0
22.735000 -0.095171 0
22.740000 -0.094294 0
22.745000 -0.093421 0
22.750000 -0.092553 0
22.755000 -0.091688 0
22.760000 -0.090828 0
22.765000 -0.089970 0
22.770000 -0.089115 0
22.775000 -0.088261 0
22.780000 -0.087403 0
22.785000 -0.086537 0
22.790000 -0.085651 0
22.795000 -0.084730 0
22.800000 -0.083744 0
22.805000 -0.082653 0
22.810000 -0.081389 0
22.815000 -0.079858 0
22.820000 -0.077924 0
22.825000 -0.075403 0
22.830000 -0.072052 0
22.835000 -0.067568 0
22.840000 -0.061589 0
22.845000 -0.053707 0
22.850000 -0.043491 0
22.855000 -0.030533 0
22.860000 -0.014497 0
22.865000 0.004812 0
22.870000 0.027382 0
22.875000 0.052928 0
22.880000 0.080848 0
22.885000 0.110209 0
22.890000 0.139772 0
22.895000 0.168064 0
22.900000 0.193487 0
22.905000 0.214467 0
22.910000 0.229612 0
22.915000 0.237865 0
22.920000 0.238625 1
22.925000 0.231820 0
22.930000 0.217914 0
22.935000 0.197858 0
22.940000 0.172982 0
22.945000 0.144846 0
22.950000 0.115072 0
22.955000 0.085174 0
22.960000 0.056350 0
22.965000 0.029193 0
22.970000 0.003241 0
22.975000 -0.023561 0
22.980000 -0.054974 0
22.985000 -0.095155 0
22.990000 -0.145237 0
22.995000 -0.198882 0
23.000000 -0.239879 0
23.005000 -0.244337 2
23.010000 -0.186452 0
23.015000 -0.045076 0
23.020000 0.188180 0
23.025000 0.495932 0
23.030000 0.822061 0
23.035000 1.076518 0
23.040000 1.170482 3
23.045000 1.066783 0
23.050000 0.801559 0
23.055000 0.456471 0
23.060000 0.119371 0
23.065000 -0.148390 0
23.070000 -0.319550 0
23.075000 -0.393195 4
23.080000 -0.386147 0
23.085000 -0.326555 0
23.090000 -0.245821 0
23.095000 -0.168978 0
23.100000 -0.108695 0
23.105000 -0.066072 0
23.110000 -0.035951 0
23.115000 -0.012193 0
23.120000 0.009628 0
23.125000 0.031874 0
23.130000 0.055499 0
23.135000 0.080723 0
23.140000 0.107440 0
23.145000 0.135388 0
23.150000 0.164207 0
23.155000 0.193464 0
23.160000 0.222665 0
23.165000 0.251262 0
23.170000 0.278677 0
23.175000 0.304314 0
23.180000 0.327584 0
23.185000 0.347923 0
23.190000 0.364819 0
23.195000 0.377829 0
23.200000 0.386599 0
23.205000 0.390882 5
23.210000 0.390546 0
23.215000 0.385582 0
23.220000 0.376103 0
23.225000 0.362343 0
23.230000 0.344644 0
23.235000 0.323440 0
23.240000 0.299245 0
23.245000 0.272626 0
23.250000 0.244185 0
23.255000 0.214533 0
23.260000 0.184270 0
23.265000 0.153968 0
23.270000 0.124149 0
23.275000 0.095274 0
23.280000 0.067736 0
23.285000 0.041850 0
23.290000 0.017854 0
23.295000 -0.004091 0
23.300000 -0.023894 0
23.305000 -0.041531 0
23.310000 -0.057034 0
23.315000 -0.070479 0
23.320000 -0.081983 0
23.325000 -0.091686 0
23.330000 -0.099749 0
23.335000 -0.106340 0
23.340000 -0.111630 0
23.345000 -0.115786 0
23.350000 -0.118968 0
23.355000 -0.121325 0
23.360000 -0.122990 0
23.365000 -0.124084 0
23.370000 -0.124711 0
23.375000 -0.124962 0
23.380000 -0.124772 0
23.385000 -0.123747 0
23.390000 -0.122727 0
23.395000 -0.121713 0
23.400000 -0.120703 0
23.405000 -0.119699 0
23.410000 -0.118700 0
23.415000 -0.117705 0
23.420000 -0.116715 0
23.425000 -0.115730 0
23.430000 -0.114749 0
23.435000 -0.113772 0
23.440000 -0.112797 0
23.445000 -0.111821 0
23.450000 -0.110842 0
23.455000 -0.109851 0
23.460000 -0.108837 0
23.465000 -0.107781 0
23.470000 -0.106652 0
23.475000 -0.105405 0
23.480000 -0.103969 0
23.485000 -0.102247 0
23.490000 -0.100099 0
23.495000 -0.097341 0
23.500000 -0.093734 0
23.505000 -0.088981 0
23.510000 -0.082733 0
23.515000 -0.074599 0
23.520000 -0.064174 0
23.525000 -0.051070 0
23.530000 -0.034972 0
23.535000 -0.015691 0
23.540000 0.006768 0
23.545000 0.032155 0
23.550000 0.059927 0
23.555000 0.089236 0
23.560000 0.118947 0
23.565000 0.147692 0
23.570000 0.173971 0
23.575000 0.196274 0
23.580000 0.213223 0
23.585000 0.223716 0
23.590000 0.227043 1
23.595000 0.222965 0
23.600000 0.211747 0
23.605000 0.194125 0
23.610000 0.171229 0
23.615000 0.144462 0
23.620000 0.115357 0
23.625000 0.085420 0
23.630000 0.055971 0
23.635000 0.027926 0
23.640000 0.001480 0
23.645000 -0.024358 0
23.650000 -0.052188 0
23.655000 -0.085959 0
23.660000 -0.129148 0
23.665000 -0.181153 0
23.670000 -0.233482 0
23.675000 -0.268582 2
23.680000 -0.262846 0
23.685000 -0.192152 0
23.690000 -0.037808 0
23.695000 0.205625 0
23.700000 0.518030 0
23.705000 0.842764 0
23.710000 1.093073 0
23.715000 1.185375 3
23.720000 1.084037 0
23.725000 0.821776 0
23.730000 0.477824 0
23.735000 0.138590 0
23.740000 -0.134379 0
23.745000 -0.312650 0
23.750000 -0.393856 4
23.755000 -0.393267 0
23.760000 -0.337663 0
23.765000 -0.257871 0
23.770000 -0.179516 0
23.775000 -0.116623 0
23.780000 -0.071573 0
23.785000 -0.039861 0
23.790000 -0.015381 0
23.795000 0.006559 0
23.800000 0.028605 0
23.805000 0.051898 0
23.810000 0.076761 0
23.815000 0.103141 0
23.820000 0.130807 0
23.825000 0.159429 0
23.830000 0.188601 0
23.835000 0.217854 0
23.840000 0.246667 0
23.845000 0.274482 0
23.850000 0.300720 0
23.855000 0.324801 0
23.860000 0.346164 0
23.865000 0.364289 0
23.870000 0.378717 0
23.875000 0.389070 0
23.880000 0.395067 0
23.885000 0.396534 5
23.890000 0.393415 0
23.895000 0.385773 0
23.900000 0.373789 0
23.905000 0.357752 0
23.910000 0.338050 0
23.915000 0.315152 0
23.920000 0.289591 0
23.925000 0.261941 0
23.930000 0.232799 0
23.935000 0.202758 0
23.940000 0.172395 0
23.945000 0.142244 0
23.950000 0.112792 0
23.955000 0.084458 0
23.960000 0.057593 0
23.965000 0.032473 0
23.970000 0.009297 0
23.975000 -0.011805 0
23.980000 -0.030773 0
23.985000 -0.047604 0
23.990000 -0.062348 0
23.995000 -0.075094 0
24.000000 -0.085967 0
24.005000 -0.095110 0
24.010000 -0.102685 0
24.015000 -0.108856 0
24.020000 -0.113792 0
24.025000 -0.117653 0
24.030000 -0.120594 0
24.035000 -0.122754 0
24.040000 -0.124262 0
24.045000 -0.125232 0
24.050000 -0.125763 0
24.055000 -0.125939 0
24.060000 -0.125084 0
24.065000 -0.124058 0
24.070000 -0.123037 0
24.075000 -0.122021 0
24.080000 -0.121010 0
24.085000 -0.120004 0
24.090000 -0.119003 0
24.095000 -0.118007 0
24.100000 -0.117016 0
24.105000 -0.116029 0
24.110000 -0.115047 0
24.115000 -0.114068 0
24.120000 -0.113091 0
24.125000 -0.112114 0
24.130000 -0.111132 0
24.135000 -0.110139 0
24.140000 -0.109123 0
24.145000 -0.108066 0
24.150000 -0.106936 0
24.155000 -0.105690 0
24.160000 -0.104261 0
24.165000 -0.102551 0
24.170000 -0.100430 0
24.175000 -0.097717 0
24.180000 -0.094184 0
24.185000 -0.089544 0
24.190000 -0.083462 0
24.195000 -0.075558 0
24.200000 -0.065437 0
24.205000 -0.052714 0
24.210000 -0.037069 0
24.215000 -0.018297 0
24.220000 0.003632 0
24.225000 0.028517 0
24.230000 0.055881 0
24.235000 0.084953 0
24.240000 0.114677 0
24.245000 0.143759 0
24.250000 0.170752 0
24.255000 0.194170 0
24.260000 0.212622 0
24.265000 0.224948 0
24.270000 0.230340 1
24.275000 0.228431 0
24.280000 0.219333 0
24.285000 0.203630 0
24.290000 0.182316 0
24.295000 0.156689 0
24.300000 0.128220 0
24.305000 0.098409 0
24.310000 0.068632 0
24.315000 0.039962 0
24.320000 0.012913 0
24.325000 -0.012959 0
24.330000 -0.039521 0
24.335000 -0.070187 0
24.340000 -0.108904 0
24.345000 -0.157381 0
24.350000 -0.211220 0
24.355000 -0.257302 0
24.360000 -0.274804 2
24.365000 -0.239668 0
24.370000 -0.130193 0
24.375000 0.066849 0
24.380000 0.346696 0
24.385000 0.673953 0
24.390000 0.977628 0
24.395000 1.168894 0
24.400000 1.180962 3
24.405000 1.004613 0
24.410000 0.694865 0
24.415000 0.343420 0
24.420000 0.031301 0
24.425000 -0.194353 0
24.430000 -0.319087 0
24.435000 -0.351322 4
24.440000 -0.314704 0
24.445000 -0.240947 0
24.450000 -0.160068 0
24.455000 -0.091499 0
24.460000 -0.041440 0
24.465000 -0.006776 0
24.470000 0.018849 0
24.475000 0.040884 0
24.480000 0.062583 0
24.485000 0.085417 0
24.490000 0.109841 0
24.495000 0.135844 0
24.500000 0.163204 0
24.505000 0.191585 0
24.510000 0.220566 0
24.515000 0.249659 0
24.520000 0.278319 0
24.525000 0.305960 0
24.530000 0.331973 0
24.535000 0.355750 0
24.540000 0.376704 0
24.545000 0.394292 0
24.550000 0.408043 0
24.555000 0.417571 0
24.560000 0.422597 0
24.565000 0.422963 5
24.570000 0.418634 0
24.575000 0.409706 0
24.580000 0.396398 0
24.585000 0.379045 0
24.590000 0.358081 0
24.595000 0.334024 0
24.600000 0.307451 0
24.605000 0.278975 0
24.610000 0.249225 0
24.615000 0.218818 0
24.620000 0.188341 0
24.625000 0.158333 0
24.630000 0.129270 0
24.635000 0.101555 0
24.640000 0.075512 0
24.645000 0.051386 0
24.650000 0.029340 0
24.655000 0.009465 0
24.660000 -0.008218 0
24.665000 -0.023742 0
24.670000 -0.037191 0
24.675000 -0.048685 0
24.680000 -0.058372 0
24.685000 -0.066416 0
24.690000 -0.072991 0
24.695000 -0.078272 0
24.700000 -0.082431 0
24.705000 -0.085629 0
24.710000 -0.088015 0
24.715000 -0.089724 0
24.720000 -0.090878 0
24.725000 -0.091579 0
24.730000 -0.091918 0
24.735000 -0.091231 0
24.740000 -0.090374 0
24.745000 -0.089521 0
24.750000 -0.088672 0
24.755000 -0.087827 0
24.760000 -0.086987 0
24.765000 -0.086150 0
24.770000 -0.085318 0
24.775000 -0.084490 0
24.780000 -0.083665 0
24.785000 -0.082844 0
24.790000 -0.082025 0
24.795000 -0.081206 0
24.800000 -0.080385 0
24.805000 -0.079557 0
24.810000 -0.078711 0
24.815000 -0.077834 0
24.820000 -0.076900 0
24.825000 -0.075873 0
24.830000 -0.074693 0
24.835000 -0.073275 0
24.840000 -0.071500 0
24.845000 -0.069200 0
24.850000 -0.066156 0
24.855000 -0.062093 0
24.860000 -0.056673 0
24.865000 -0.049513 0
24.870000 -0.040197 0
24.875000 -0.028317 0
24.880000 -0.013512 0
24.885000 0.004467 0
24.890000 0.025694 0
24.895000 0.050006 0
24.900000 0.076951 0
24.905000 0.105761 0
24.910000 0.135358 0
24.915000 0.164403 0
24.920000 0.191382 0
24.925000 0.214737 0
24.930000 0.233003 0
24.935000 0.244968 0
24.940000 0.249801 1
24.945000 0.247145 0
24.950000 0.237164 0
24.955000 0.220523 0
24.960000 0.198315 0
24.965000 0.171940 0
24.970000 0.142960 0
24.975000 0.112935 0
24.980000 0.083252 0
24.985000 0.054914 0
24.990000 0.028217 0
24.995000 0.002277 0
25.000000 -0.025435 0
25.005000 -0.058911 0
25.010000 -0.101812 0
25.015000 -0.153764 0
25.020000 -0.206311 0
25.025000 -0.241585 2
25.030000 -0.235391 0
25.035000 -0.163027 0
25.040000 -0.005548 0
25.045000 0.241885 0
25.050000 0.556944 0
25.055000 0.879161 0
25.060000 1.118407 0
25.065000 1.191621 3
25.070000 1.067873 0
25.075000 0.787323 0
25.080000 0.438235 0
25.085000 0.109442 0
25.090000 -0.141259 0
25.095000 -0.291428 0
25.100000 -0.344602 4
25.105000 -0.321608 0
25.110000 -0.253510 0
25.115000 -0.172107 0
25.120000 -0.100008 0
25.125000 -0.046220 0
25.130000 -0.009020 0
25.135000 0.017821 0
25.140000 0.040186 0
25.145000 0.061785 0
25.150000 0.084368 0
25.155000 0.108522 0
25.160000 0.134288 0
25.165000 0.161463 0
25.170000 0.189721 0
25.175000 0.218643 0
25.180000 0.247743 0
25.185000 0.276471 0
25.190000 0.304238 0
25.195000 0.330425 0
25.200000 0.354413 0
25.205000 0.375604 0
25.210000 0.393443 0
25.215000 0.407442 0
25.220000 0.417206 0
25.225000 0.422444 0
25.230000 0.422989 5
25.235000 0.418801 0
25.240000 0.409973 0
25.245000 0.396726 0
25.250000 0.379396 0
25.255000 0.358426 0
25.260000 0.334340 0
25.265000 0.307725 0
25.270000 0.279205 0
25.275000 0.249417 0
25.280000 0.218989 0
25.285000 0.188515 0
25.290000 0.158540 0
25.295000 0.129542 0
25.300000 0.101928 0
25.305000 0.076020 0
25.310000 0.052059 0
25.315000 0.030206 0
25.320000 0.010545 0
25.325000 -0.006908 0
25.330000 -0.022193 0
25.335000 -0.035401 0
25.340000 -0.046657 0
25.345000 -0.056114 0
25.350000 -0.063941 0
25.355000 -0.070315 0
25.360000 -0.075414 0
25.365000 -0.079411 0
25.370000 -0.082467 0
25.375000 -0.084732 0
25.380000 -0.086339 0
25.385000 -0.087409 0
25.390000 -0.088044 0
25.395000 -0.088331 0
25.400000 -0.087651 0
25.405000 -0.086811 0
25.410000 -0.085976 0
25.415000 -0.085145 0
25.420000 -0.084318 0
25.425000 -0.083495 0
25.430000 -0.082676 0
25.435000 -0.081861 0
25.440000 -0.081050 0
25.445000 -0.080242 0
25.450000 -0.079437 0
25.455000 -0.078634 0
25.460000 -0.077831 0
25.465000 -0.077024 0
25.470000 -0.076206 0
25.475000 -0.075367 0
25.480000 -0.074488 0
25.485000 -0.073540 0
25.490000 -0.072478 0
25.495000 -0.071234 0
25.500000 -0.069708 0
25.505000 -0.067761 0
25.510000 -0.065203 0
25.515000 -0.061788 0
25.520000 -0.057211 0
25.525000 -0.051106 0
25.530000 -0.043066 0
25.535000 -0.032669 0
25.540000 -0.019514 0
25.545000 -0.003278 0
25.550000 0.016218 0
25.555000 0.038945 0
25.560000 0.064601 0
25.565000 0.092574 0
25.570000 0.121923 0
25.575000 0.151413 0
25.580000 0.179580 0
25.585000 0.204844 0
25.590000 0.225653 0
25.595000 0.240639 0
25.600000 0.248763 0
25.605000 0.249437 1
25.610000 0.242591 0
25.615000 0.228685 0
25.620000 0.208655 0
25.625000 0.183810 0
25.630000 0.155687 0
25.635000 0.125892 0
25.640000 0.095925 0
25.645000 0.066986 0
25.650000 0.039698 0
25.655000 0.013672 0
25.660000 -0.013023 0
25.665000 -0.044013 0
25.670000 -0.083469 0
25.675000 -0.132897 0
25.680000 -0.186781 0
25.685000 -0.229945 0
25.690000 -0.239282 2
25.695000 -0.189192 0
25.700000 -0.057968 0
25.705000 0.164646 0
25.710000 0.465305 0
25.715000 0.793627 0
25.720000 1.063645 0
25.725000 1.184468 3
25.730000 1.108964 0
25.735000 0.861840 0
25.740000 0.521775 0
25.745000 0.179771 0
25.750000 -0.097563 0
25.755000 -0.278876 0
25.760000 -0.360982 4
25.765000 -0.359655 0
25.770000 -0.302902 0
25.775000 -0.222796 0
25.780000 -0.145476 0
25.785000 -0.084544 0
25.790000 -0.041538 0
25.795000 -0.011326 0
25.800000 0.012361 0
25.805000 0.034063 0
25.810000 0.056195 0
25.815000 0.079724 0
25.820000 0.104871 0
25.825000 0.131520 0
25.830000 0.159401 0
25.835000 0.188143 0
25.840000 0.217302 0
25.845000 0.246368 0
25.850000 0.274783 0
25.855000 0.301953 0
25.860000 0.327272 0
25.865000 0.350140 0
25.870000 0.369988 0
25.875000 0.386300 0
25.880000 0.398635 0
25.885000 0.406648 0
25.890000 0.410103 5
25.895000 0.408885 0
25.900000 0.403007 0
25.905000 0.392605 0
25.910000 0.377940 0
25.915000 0.359378 0
25.920000 0.337384 0
25.925000 0.312491 0
25.930000 0.285290 0
25.935000 0.256397 0
25.940000 0.226434 0
25.945000 0.196009 0
25.950000 0.165690 0
25.955000 0.135994 0
25.960000 0.107374 0
25.965000 0.080206 0
25.970000 0.054787 0
25.975000 0.031336 0
25.980000 0.009993 0
25.985000 -0.009174 0
25.990000 -0.026159 0
25.995000 -0.041012 0
26.000000 -0.053828 0
26.005000 -0.064734 0
26.010000 -0.073884 0
26.015000 -0.081443 0
26.020000 -0.087586 0
26.025000 -0.092486 0
26.030000 -0.096310 0
26.035000 -0.099218 0
26.040000 -0.101353 0
26.045000 -0.102847 0
26.050000 -0.103814 0
26.055000 -0.104354 0
26.060000 -0.104553 0
26.065000 -0.103792 0
26.070000 -0.102872 0
26.075000 -0.101956 0
26.080000 -0.101045 0
26.085000 -0.100139 0
26.090000 -0.099237 0
26.095000 -0.098340 0
26.100000 -0.097447 0
26.105000 -0.096558 0
26.110000 -0.095673 0
26.115000 -0.094791 0
26.120000 -0.093912 0
26.125000 -0.093033 0
26.130000 -0.092151 0
26.135000 -0.091261 0
26.140000 -0.090351 0
26.145000 -0.089407 0
26.150000 -0.088401 0
26.155000 -0.087292 0
26.160000 -0.086018 0
26.165000 -0.084490 0
26.170000 -0.082579 0
26.175000 -0.080112 0
26.180000 -0.076862 0
26.185000 -0.072544 0
26.190000 -0.066815 0
26.195000 -0.059287 0
26.200000 -0.049546 0
26.205000 -0.037189 0
26.210000 -0.021872 0
26.215000 -0.003368 0
26.220000 0.018366 0
26.225000 0.043130 0
26.230000 0.070431 0
26.235000 0.099465 0
26.240000 0.129121 0
26.245000 0.158042 0
26.250000 0.184710 0
26.255000 0.207579 0
26.260000 0.225218 0
26.265000 0.236459 0
26.270000 0.240525 1
26.275000 0.237119 0
26.280000 0.226458 0
26.285000 0.209251 0
26.290000 0.186620 0
26.295000 0.159981 0
26.300000 0.130890 0
26.305000 0.100890 0
26.310000 0.071336 0
26.315000 0.043179 0
26.320000 0.016640 0
26.325000 -0.009274 0
26.330000 -0.037204 0
26.335000 -0.071177 0
26.340000 -0.114694 0
26.345000 -0.166977 0
26.350000 -0.219047 0
26.355000 -0.252656 2
26.360000 -0.243571 0
26.365000 -0.167386 0
26.370000 -0.005728 0
26.375000 0.245304 0
26.380000 0.562088 0
26.385000 0.883045 0
26.390000 1.118069 0
26.395000 1.185636 3
26.400000 1.056493 0
26.405000 0.772001 0
26.410000 0.422203 0
26.415000 0.096081 0
26.420000 -0.149636 0
26.425000 -0.293877 0
26.430000 -0.341424 4
26.435000 -0.314228 0
26.440000 -0.244102 0
26.445000 -0.162813 0
26.450000 -0.092165 0
26.455000 -0.040124 0
26.460000 -0.004259 0
26.465000 0.021862 0
26.470000 0.043996 0
26.475000 0.065643 0
26.480000 0.088397 0
26.485000 0.112757 0
26.490000 0.138724 0
26.495000 0.166070 0
26.500000 0.194449 0
26.505000 0.223429 0
26.510000 0.252507 0
26.515000 0.281119 0
26.520000 0.308662 0
26.525000 0.334509 0
26.530000 0.358036 0
26.535000 0.378642 0
26.540000 0.395778 0
26.545000 0.408968 0
26.550000 0.417829 0
26.555000 0.422093 5
26.560000 0.421616 0
26.565000 0.416389 0
26.570000 0.406533 0
26.575000 0.392300 0
26.580000 0.374056 0
26.585000 0.352272 0
26.590000 0.327494 0
26.595000 0.300330 0
26.600000 0.271415 0
26.605000 0.241394 0
26.610000 0.210895 0
26.615000 0.180506 0
26.620000 0.150762 0
26.625000 0.122127 0
26.630000 0.094987 0
26.635000 0.069644 0
26.640000 0.046317 0
26.645000 0.025144 0
26.650000 0.006187 0
26.655000 -0.010556 0
26.660000 -0.025144 0
26.665000 -0.037683 0
26.670000 -0.048308 0
26.675000 -0.057182 0
26.680000 -0.064480 0
26.685000 -0.070381 0
26.690000 -0.075064 0
26.695000 -0.078700 0
26.700000 -0.081448 0
26.705000 -0.083453 0
26.710000 -0.084847 0
26.715000 -0.085742 0
26.720000 -0.086236 0
26.725000 -0.086266 0
26.730000 -0.085434 0
26.735000 -0.084605 0
26.740000 -0.083781 0
26.745000 -0.082961 0
26.750000 -0.082144 0
26.755000 -0.081332 0
26.760000 -0.080524 0
26.765000 -0.079720 0
26.770000 -0.078919 0
26.775000 -0.078122 0
26.780000 -0.077327 0
26.785000 -0.076532 0
26.790000 -0.075736 0
26.795000 -0.074933 0
26.800000 -0.074115 0
26.805000 -0.073267 0
26.810000 -0.072366 0
26.815000 -0.071374 0
26.820000 -0.070236 0
26.825000 -0.068866 0
26.830000 -0.067144 0
26.835000 -0.064902 0
26.840000 -0.061920 0
26.845000 -0.057914 0
26.850000 -0.052542 0
26.855000 -0.045409 0
26.860000 -0.036090 0
26.865000 -0.024162 0
26.870000 -0.009258 0
26.875000 0.008871 0
26.880000 0.030292 0
26.885000 0.054820 0
26.890000 0.081963 0
26.895000 0.110903 0
26.900000 0.140499 0
26.905000 0.169348 0
26.910000 0.195882 0
26.915000 0.218501 0
26.920000 0.235734 0
26.925000 0.246394 0
26.930000 0.249713 1
26.935000 0.245432 0
26.940000 0.233834 0
26.945000 0.215712 0
26.950000 0.192280 0
26.955000 0.165034 0
26.960000 0.135594 0
26.965000 0.105533 0
26.970000 0.076181 0
26.975000 0.048383 0
26.980000 0.022105 0
26.985000 -0.004103 0
26.990000 -0.033462 0
26.995000 -0.070267 0
27.000000 -0.117204 0
27.005000 -0.170989 0
27.010000 -0.218863 0
27.015000 -0.239087 2
27.020000 -0.205796 0
27.025000 -0.095465 0
27.030000 0.105938 0
27.035000 0.391799 0
27.040000 0.720393 0
27.045000 1.011160 0
27.050000 1.169308 3
27.055000 1.131843 0
27.060000 0.906148 0
27.065000 0.571455 0
27.070000 0.227643 0
27.075000 -0.050526 0
27.080000 -0.228306 0
27.085000 -0.303005 4
27.090000 -0.293167 0
27.095000 -0.230461 0
27.100000 -0.149474 0
27.105000 -0.076065 0
27.110000 -0.021262 0
27.115000 0.016195 0
27.120000 0.042873 0
27.125000 0.065038 0
27.130000 0.086559 0
27.135000 0.109191 0
27.140000 0.133478 0
27.145000 0.159414 0
27.150000 0.186755 0
27.155000 0.215127 0
27.160000 0.244065 0
27.165000 0.273026 0
27.170000 0.301408 0
27.175000 0.328565 0
27.180000 0.353835 0
27.185000 0.376559 0
27.190000 0.396115 0
27.195000 0.411942 0
27.200000 0.423565 0
27.205000 0.430623 0
27.210000 0.432879 5
27.215000 0.430240 0
27.220000 0.422756 0
27.225000 0.410620 0
27.230000 0.394162 0
27.235000 0.373828 0
27.240000 0.350163 0
27.245000 0.323784 0
27.250000 0.295357 0
27.255000 0.265560 0
27.260000 0.235067 0
27.265000 0.204515 0
27.270000 0.174486 0
27.275000 0.145490 0
27.280000 0.117954 0
27.285000 0.092216 0
27.290000 0.068519 0
27.295000 0.047022 0
27.300000 0.027798 0
27.305000 0.010851 0
27.310000 -0.003880 0
27.315000 -0.016503 0
27.320000 -0.027165 0
27.325000 -0.036035 0
27.330000 -0.043300 0
27.335000 -0.049150 0
27.340000 -0.053772 0
27.345000 -0.057345 0
27.350000 -0.060036 0
27.355000 -0.061994 0
27.360000 -0.063354 0
27.365000 -0.064230 0
27.370000 -0.064721 0
27.375000 -0.064171 0
27.380000 -0.063449 0
27.385000 -0.062730 0
27.390000 -0.062015 0
27.395000 -0.061303 0
27.400000 -0.060595 0
27.405000 -0.059890 0
27.410000 -0.059189 0
27.415000 -0.058491 0
27.420000 -0.057796 0
27.425000 -0.057102 0
27.430000 -0.056410 0
27.435000 -0.055717 0
27.440000 -0.055017 0
27.445000 -0.054304 0
27.450000 -0.053564 0
27.455000 -0.052775 0
27.460000 -0.051900 0
27.465000 -0.050883 0
27.470000 -0.049641 0
27.475000 -0.048048 0
27.480000 -0.045934 0
27.485000 -0.043066 0
27.490000 -0.039147 0
27.495000 -0.033814 0
27.500000 -0.026648 0
27.505000 -0.017198 0
27.510000 -0.005020 0
27.515000 0.010261 0
27.520000 0.028888 0
27.525000 0.050888 0
27.530000 0.076003 0
27.535000 0.103634 0
27.540000 0.132824 0
27.545000 0.162279 0
27.550000 0.190447 0
27.555000 0.215640 0
27.560000 0.236200 0
27.565000 0.250671 0
27.570000 0.257974 1
27.575000 0.257536 0
27.580000 0.249362 0
27.585000 0.234036 0
27.590000 0.212653 0
27.595000 0.186686 0
27.600000 0.157816 0
27.605000 0.127744 0
27.610000 0.097988 0
27.615000 0.069637 0
27.620000 0.042969 0
27.625000 0.016882 0
27.630000 -0.011605 0
27.635000 -0.046943 0
27.640000 -0.092532 0
27.645000 -0.146054 0
27.650000 -0.195232 0
27.655000 -0.217771 2
27.660000 -0.186428 0
27.665000 -0.076195 0
27.670000 0.127702 0
27.675000 0.417327 0
27.680000 0.746100 0
27.685000 1.026263 0
27.690000 1.159258 3
27.695000 1.090141 0
27.700000 0.842399 0
27.705000 0.500672 0
27.710000 0.162220 0
27.715000 -0.104316 0
27.720000 -0.269327 0
27.725000 -0.333160 4
27.730000 -0.315963 0
27.735000 -0.249830 0
27.740000 -0.168522 0
27.745000 -0.096334 0
27.750000 -0.042909 0
27.755000 -0.006329 0
27.760000 0.020016 0
27.765000 0.042183 0
27.770000 0.063850 0
27.775000 0.086665 0
27.780000 0.111130 0
27.785000 0.137226 0
27.790000 0.164708 0
27.795000 0.193204 0
27.800000 0.222255 0
27.805000 0.251325 0
27.810000 0.279820 0
27.815000 0.307104 0
27.820000 0.332522 0
27.825000 0.355425 0
27.830000 0.375199 0
27.835000 0.391287 0
27.840000 0.403219 0
27.845000 0.410630 0
27.850000 0.413283 5
27.855000 0.411075 0
27.860000 0.404047 0
27.865000 0.392379 0
27.870000 0.376386 0
27.875000 0.356499 0
27.880000 0.333246 0
27.885000 0.307231 0
27.890000 0.279105 0
27.895000 0.249540 0
27.900000 0.219200 0
27.905000 0.188720 0
27.910000 0.158682 0
27.915000 0.129601 0
27.920000 0.101911 0
27.925000 0.075958 0
27.930000 0.051999 0
27.935000 0.030203 0
27.940000 0.010657 0
27.945000 -0.006623 0
27.950000 -0.021687 0
27.955000 -0.034632 0
27.960000 -0.045596 0
27.965000 -0.054743 0
27.970000 -0.062254 0
27.975000 -0.068316 0
27.980000 -0.073116 0
27.985000 -0.076832 0
27.990000 -0.079632 0
27.995000 -0.081668 0
28.000000 -0.083076 0
28.005000 -0.083975 0
28.010000 -0.084467 0
28.015000 -0.084493 0
28.020000 -0.083670 0
28.025000 -0.082850 0
28.030000 -0.082034 0
28.035000 -0.081223 0
28.040000 -0.080415 0
28.045000 -0.079612 0
28.050000 -0.078812 0
28.055000 -0.078016 0
28.060000 -0.077224 0
28.065000 -0.076435 0
28.070000 -0.075647 0
28.075000 -0.074860 0
28.080000 -0.074069 0
28.085000 -0.073269 0
28.090000 -0.072449 0
28.095000 -0.071590 0
28.100000 -0.070663 0
28.105000 -0.069622 0
28.110000 -0.068396 0
28.115000 -0.066881 0
28.120000 -0.064929 0
28.125000 -0.062337 0
28.130000 -0.058843 0
28.135000 -0.054116 0
28.140000 -0.047767 0
28.145000 -0.039361 0
28.150000 -0.028451 0
28.155000 -0.014628 0
28.160000 0.002422 0
28.165000 0.022839 0
28.170000 0.046515 0
28.175000 0.073037 0
28.180000 0.101640 0
28.185000 0.131214 0
28.190000 0.160351 0
28.195000 0.187438 0
28.200000 0.210803 0
28.205000 0.228879 0
28.210000 0.240379 0
28.215000 0.244443 1
28.220000 0.240748 0
28.225000 0.229547 0
28.230000 0.211640 0
28.235000 0.188278 0
28.240000 0.161021 0
28.245000 0.131555 0
28.250000 0.101515 0
28.255000 0.072269 0
28.260000 0.044643 0
28.265000 0.018482 0
28.270000 -0.007938 0
28.275000 -0.038209 0
28.280000 -0.076774 0
28.285000 -0.125639 0
28.290000 -0.179561 0
28.295000 -0.222912 0
28.300000 -0.231405 2
28.305000 -0.178082 0
28.310000 -0.040423 0
28.315000 0.191018 0
28.320000 0.498731 0
28.325000 0.824183 0
28.330000 1.073231 0
28.335000 1.154809 3
28.340000 1.034321 0
28.345000 0.754792 0
28.350000 0.405874 0
28.355000 0.077963 0
28.360000 -0.170508 0
28.365000 -0.317342 0
28.370000 -0.366787 4
28.375000 -0.340628 0
28.380000 -0.270793 0
28.385000 -0.189361 0
