0.000000 1.157605 3
0.005000 1.044170 0
0.010000 0.759266 0
0.015000 0.397473 0
0.020000 0.056061 0
0.025000 -0.201792 0
0.030000 -0.352217 0
0.035000 -0.400000 4
0.040000 -0.368818 0
0.045000 -0.293041 0
0.050000 -0.206633 0
0.055000 -0.132283 0
0.060000 -0.077587 0
0.065000 -0.039306 0
0.070000 -0.010470 0
0.075000 0.014789 0
0.080000 0.039832 0
0.085000 0.066051 0
0.090000 0.093769 0
0.095000 0.122832 0
0.100000 0.152873 0
0.105000 0.183410 0
0.110000 0.213883 0
0.115000 0.243669 0
0.120000 0.272106 0
0.125000 0.298518 0
0.130000 0.322237 0
0.135000 0.342632 0
0.140000 0.359139 0
0.145000 0.371281 0
0.150000 0.378698 0
0.155000 0.381158 5
0.160000 0.378571 0
0.165000 0.370994 0
0.170000 0.358628 0
0.175000 0.341810 0
0.180000 0.320996 0
0.185000 0.296742 0
0.190000 0.269676 0
0.195000 0.240474 0
0.200000 0.209832 0
0.205000 0.178434 0
0.210000 0.146934 0
0.215000 0.115931 0
0.220000 0.085949 0
0.225000 0.057434 0
0.230000 0.030738 0
0.235000 0.006121 0
0.240000 -0.016247 0
0.245000 -0.036277 0
0.250000 -0.053959 0
0.255000 -0.069344 0
0.260000 -0.082537 0
0.265000 -0.093679 0
0.270000 -0.102942 0
0.275000 -0.110513 0
0.280000 -0.116586 0
0.285000 -0.121352 0
0.290000 -0.124998 0
0.295000 -0.127695 0
0.300000 -0.129602 0
0.305000 -0.130858 0
0.310000 -0.131587 0
0.315000 -0.131695 0
0.320000 -0.130632 0
0.325000 -0.129574 0
0.330000 -0.128521 0
0.335000 -0.127474 0
0.340000 -0.126432 0
0.345000 -0.125394 0
0.350000 -0.124362 0
0.355000 -0.123334 0
0.360000 -0.122309 0
0.365000 -0.121287 0
0.370000 -0.120263 0
0.375000 -0.119234 0
0.380000 -0.118190 0
0.385000 -0.117116 0
0.390000 -0.115986 0
0.395000 -0.114761 0
0.400000 -0.113378 0
0.405000 -0.111746 0
0.410000 -0.109732 0
0.415000 -0.107151 0
0.420000 -0.103758 0
0.425000 -0.099241 0
0.430000 -0.093223 0
0.435000 -0.085272 0
0.440000 -0.074926 0
0.445000 -0.061736 0
0.450000 -0.045327 0
0.455000 -0.025463 0
0.460000 -0.002133 0
0.465000 0.024388 0
0.470000 0.053475 0
0.475000 0.084145 0
0.480000 0.115073 0
0.485000 0.144676 0
0.490000 0.171234 0
0.495000 0.193051 0
0.500000 0.208637 0
0.505000 0.216875 0
0.510000 0.217150 1
0.515000 0.209433 0
0.520000 0.194281 0
0.525000 0.172773 0
0.530000 0.146382 0
0.535000 0.116809 0
0.540000 0.085787 0
0.545000 0.054863 0
0.550000 0.025110 0
0.555000 -0.003314 0
0.560000 -0.031785 0
0.565000 -0.063625 0
0.570000 -0.103357 0
0.575000 -0.153688 0
0.580000 -0.210652 0
0.585000 -0.259837 0
0.590000 -0.277256 2
0.595000 -0.234998 0
0.600000 -0.108467 0
0.605000 0.115323 0
0.610000 0.424519 0
0.615000 0.766836 0
0.620000 1.049728 0
0.625000 1.174076 3
0.630000 1.086974 0
0.635000 0.817731 0
0.640000 0.459042 0
0.645000 0.112352 0
0.650000 -0.153795 0
0.655000 -0.311997 0
0.660000 -0.365444 4
0.665000 -0.337427 0
0.670000 -0.262799 0
0.675000 -0.176506 0
0.680000 -0.102104 0
0.685000 -0.047551 0
0.690000 -0.009559 0
0.695000 0.018999 0
0.700000 0.044069 0
0.705000 0.069008 0
0.710000 0.095173 0
0.715000 0.122857 0
0.720000 0.151880 0
0.725000 0.181857 0
0.730000 0.212286 0
0.735000 0.242585 0
0.740000 0.272112 0
0.745000 0.300186 0
0.750000 0.326114 0
0.755000 0.349217 0
0.760000 0.368859 0
0.765000 0.384474 0
0.770000 0.395598 0
0.775000 0.401884 0
0.780000 0.403124 5
0.785000 0.399259 0
0.790000 0.390382 0
0.795000 0.376734 0
0.800000 0.358691 0
0.805000 0.336750 0
0.810000 0.311502 0
0.815000 0.283608 0
0.820000 0.253767 0
0.825000 0.222691 0
0.830000 0.191073 0
0.835000 0.159564 0
0.840000 0.128752 0
0.845000 0.099148 0
0.850000 0.071171 0
0.855000 0.045147 0
0.860000 0.021304 0
0.865000 -0.000217 0
0.870000 -0.019362 0
0.875000 -0.036147 0
0.880000 -0.050650 0
0.885000 -0.062997 0
0.890000 -0.073349 0
0.895000 -0.081890 0
0.900000 -0.088814 0
0.905000 -0.094321 0
0.910000 -0.098604 0
0.915000 -0.101847 0
0.920000 -0.104219 0
0.925000 -0.105870 0
0.930000 -0.106936 0
0.935000 -0.107307 0
0.940000 -0.106366 0
0.945000 -0.105429 0
0.950000 -0.104496 0
0.955000 -0.103569 0
0.960000 -0.102646 0
0.965000 -0.101727 0
0.970000 -0.100813 0
0.975000 -0.099903 0
0.980000 -0.098996 0
0.985000 -0.098090 0
0.990000 -0.097185 0
0.995000 -0.096275 0
1.000000 -0.095351 0
1.005000 -0.094402 0
1.010000 -0.093404 0
1.015000 -0.092319 0
1.020000 -0.091092 0
1.025000 -0.089635 0
1.030000 -0.087822 0
1.035000 -0.085475 0
1.040000 -0.082356 0
1.045000 -0.078159 0
1.050000 -0.072507 0
1.055000 -0.064965 0
1.060000 -0.055064 0
1.065000 -0.042339 0
1.070000 -0.026392 0
1.075000 -0.006966 0
1.080000 0.015979 0
1.085000 0.042185 0
1.090000 0.071044 0
1.095000 0.101568 0
1.100000 0.132420 0
1.105000 0.161986 0
1.110000 0.188509 0
1.115000 0.210253 0
1.120000 0.225691 0
1.125000 0.233684 1
1.130000 0.233616 0
1.135000 0.225476 0
1.140000 0.209857 0
1.145000 0.187889 0
1.150000 0.161102 0
1.155000 0.131244 0
1.160000 0.100080 0
1.165000 0.069159 0
1.170000 0.039499 0
1.175000 0.011098 0
1.180000 -0.017712 0
1.185000 -0.050606 0
1.190000 -0.092179 0
1.195000 -0.144390 0
1.200000 -0.201401 0
1.205000 -0.246310 0
1.210000 -0.253183 2
1.215000 -0.193582 0
1.220000 -0.044218 0
1.225000 0.203521 0
1.230000 0.528307 0
1.235000 0.864522 0
1.240000 1.110800 0
1.245000 1.174302 3
1.250000 1.025379 0
1.255000 0.717157 0
1.260000 0.352352 0
1.265000 0.026192 0
1.270000 -0.205774 0
1.275000 -0.327361 0
1.280000 -0.349594 4
1.285000 -0.301146 0
1.290000 -0.218833 0
1.295000 -0.135034 0
1.300000 -0.067859 0
1.305000 -0.020341 0
1.310000 0.013137 0
1.315000 0.039719 0
1.320000 0.064417 0
1.325000 0.089714 0
1.330000 0.116453 0
1.335000 0.144683 0
1.340000 0.174118 0
1.345000 0.204309 0
1.350000 0.234711 0
1.355000 0.264704 0
1.360000 0.293617 0
1.365000 0.320752 0
1.370000 0.345408 0
1.375000 0.366913 0
1.380000 0.384653 0
1.385000 0.398101 0
1.390000 0.406841 0
1.395000 0.410588 5
1.400000 0.409207 0
1.405000 0.402716 0
1.410000 0.391284 0
1.415000 0.375232 0
1.420000 0.355005 0
1.425000 0.331163 0
1.430000 0.304344 0
1.435000 0.275246 0
1.440000 0.244585 0
1.445000 0.213077 0
1.450000 0.181404 0
1.455000 0.150190 0
1.460000 0.119988 0
1.465000 0.091261 0
1.470000 0.064379 0
1.475000 0.039614 0
1.480000 0.017140 0
1.485000 -0.002953 0
1.490000 -0.020657 0
1.495000 -0.036029 0
1.500000 -0.049180 0
1.505000 -0.060261 0
1.510000 -0.069453 0
1.515000 -0.076949 0
1.520000 -0.082952 0
1.525000 -0.087660 0
1.530000 -0.091263 0
1.535000 -0.093936 0
1.540000 -0.095839 0
1.545000 -0.097114 0
1.550000 -0.097882 0
1.555000 -0.097227 0
1.560000 -0.096336 0
1.565000 -0.095449 0
1.570000 -0.094567 0
1.575000 -0.093689 0
1.580000 -0.092815 0
1.585000 -0.091945 0
1.590000 -0.091079 0
1.595000 -0.090216 0
1.600000 -0.089356 0
1.605000 -0.088495 0
1.610000 -0.087631 0
1.615000 -0.086755 0
1.620000 -0.085856 0
1.625000 -0.084913 0
1.630000 -0.083891 0
1.635000 -0.082737 0
1.640000 -0.081368 0
1.645000 -0.079665 0
1.650000 -0.077457 0
1.655000 -0.074511 0
1.660000 -0.070528 0
1.665000 -0.065135 0
1.670000 -0.057899 0
1.675000 -0.048346 0
1.680000 -0.036002 0
1.685000 -0.020452 0
1.690000 -0.001417 0
1.695000 0.021170 0
1.700000 0.047078 0
1.705000 0.075722 0
1.710000 0.106132 0
1.715000 0.136975 0
1.720000 0.166632 0
1.725000 0.193325 0
1.730000 0.215289 0
1.735000 0.230964 0
1.740000 0.239176 0
1.745000 0.239282 1
1.750000 0.231255 0
1.755000 0.215686 0
1.760000 0.193715 0
1.765000 0.166890 0
1.770000 0.136982 0
1.775000 0.105781 0
1.780000 0.074849 0
1.785000 0.045200 0
1.790000 0.016791 0
1.795000 -0.012143 0
1.800000 -0.045404 0
1.805000 -0.087617 0
1.810000 -0.140452 0
1.815000 -0.197323 0
1.820000 -0.240321 0
1.825000 -0.242702 2
1.830000 -0.175787 0
1.835000 -0.016874 0
1.840000 0.240556 0
1.845000 0.570662 0
1.850000 0.901826 0
1.855000 1.129456 0
1.860000 1.164855 3
1.865000 0.988917 0
1.870000 0.665314 0
1.875000 0.301208 0
1.880000 -0.011435 0
1.885000 -0.223425 0
1.890000 -0.324209 0
1.895000 -0.329207 4
1.900000 -0.270333 0
1.905000 -0.185336 0
1.910000 -0.104572 0
1.915000 -0.042576 0
1.920000 0.000509 0
1.925000 0.031406 0
1.930000 0.057016 0
1.935000 0.081679 0
1.940000 0.107330 0
1.945000 0.134513 0
1.950000 0.163136 0
1.955000 0.192840 0
1.960000 0.223130 0
1.965000 0.253419 0
1.970000 0.283052 0
1.975000 0.311329 0
1.980000 0.337531 0
1.985000 0.360951 0
1.990000 0.380922 0
1.995000 0.396849 0
2.000000 0.408239 0
2.005000 0.414724 0
2.010000 0.416079 5
2.015000 0.412238 0
2.020000 0.403293 0
2.025000 0.389493 0
2.030000 0.371232 0
2.035000 0.349026 0
2.040000 0.323494 0
2.045000 0.295322 0
2.050000 0.265239 0
2.055000 0.233981 0
2.060000 0.202261 0
2.065000 0.170747 0
2.070000 0.140036 0
2.075000 0.110639 0
2.080000 0.082974 0
2.085000 0.057356 0
2.090000 0.033999 0
2.095000 0.013027 0
2.100000 -0.005525 0
2.105000 -0.021694 0
2.110000 -0.035577 0
2.115000 -0.047318 0
2.120000 -0.057091 0
2.125000 -0.065093 0
2.130000 -0.071529 0
2.135000 -0.076604 0
2.140000 -0.080513 0
2.145000 -0.083441 0
2.150000 -0.085554 0
2.155000 -0.087002 0
2.160000 -0.087913 0
2.165000 -0.087322 0
2.170000 -0.086480 0
2.175000 -0.085642 0
2.180000 -0.084809 0
2.185000 -0.083979 0
2.190000 -0.083154 0
2.195000 -0.082332 0
2.200000 -0.081514 0
2.205000 -0.080700 0
2.210000 -0.079887 0
2.215000 -0.079074 0
2.220000 -0.078257 0
2.225000 -0.077429 0
2.230000 -0.076578 0
2.235000 -0.075683 0
2.240000 -0.074710 0
2.245000 -0.073604 0
2.250000 -0.072282 0
2.255000 -0.070620 0
2.260000 -0.068444 0
2.265000 -0.065515 0
2.270000 -0.061523 0
2.275000 -0.056086 0
2.280000 -0.048757 0
2.285000 -0.039050 0
2.290000 -0.026483 0
2.295000 -0.010640 0
2.300000 0.008746 0
2.305000 0.031714 0
2.310000 0.057987 0
2.315000 0.086916 0
2.320000 0.117454 0
2.325000 0.148187 0
2.330000 0.177421 0
2.335000 0.203329 0
2.340000 0.224130 0
2.345000 0.238294 0
2.350000 0.244724 1
2.355000 0.242898 0
2.360000 0.232935 0
2.365000 0.215586 0
2.370000 0.192138 0
2.375000 0.164251 0
2.380000 0.133766 0
2.385000 0.102470 0
2.390000 0.071834 0
2.395000 0.042624 0
2.400000 0.014301 0
2.405000 -0.015642 0
2.410000 -0.051638 0
2.415000 -0.097908 0
2.420000 -0.153665 0
2.425000 -0.207906 0
2.430000 -0.238191 2
2.435000 -0.215449 0
2.440000 -0.111883 0
2.445000 0.090311 0
2.450000 0.385725 0
2.455000 0.727835 0
2.460000 1.024119 0
2.465000 1.167640 3
2.470000 1.097405 0
2.475000 0.838237 0
2.480000 0.481879 0
2.485000 0.132771 0
2.490000 -0.137065 0
2.495000 -0.298207 0
2.500000 -0.353217 4
2.505000 -0.325606 0
2.510000 -0.250904 0
2.515000 -0.164731 0
2.520000 -0.090883 0
2.525000 -0.037102 0
2.530000 0.000231 0
2.535000 0.028408 0
2.540000 0.053354 0
2.545000 0.078325 0
2.550000 0.104592 0
2.555000 0.132391 0
2.560000 0.161512 0
2.565000 0.191543 0
2.570000 0.221961 0
2.575000 0.252162 0
2.580000 0.281484 0
2.585000 0.309228 0
2.590000 0.334685 0
2.595000 0.357168 0
2.600000 0.376037 0
2.605000 0.390735 0
2.610000 0.400808 0
2.615000 0.405934 5
2.620000 0.405932 0
2.625000 0.400781 0
2.630000 0.390613 0
2.635000 0.375710 0
2.640000 0.356494 0
2.645000 0.333500 0
2.650000 0.307357 0
2.655000 0.278753 0
2.660000 0.248410 0
2.665000 0.217052 0
2.670000 0.185375 0
2.675000 0.154023 0
2.680000 0.123572 0
2.685000 0.094509 0
2.690000 0.067226 0
2.695000 0.042017 0
2.700000 0.019080 0
2.705000 -0.001479 0
2.710000 -0.019636 0
2.715000 -0.035437 0
2.720000 -0.048984 0
2.725000 -0.060423 0
2.730000 -0.069932 0
2.735000 -0.077703 0
2.740000 -0.083940 0
2.745000 -0.088843 0
2.750000 -0.092607 0
2.755000 -0.095409 0
2.760000 -0.097415 0
2.765000 -0.098769 0
2.770000 -0.099596 0
2.775000 -0.098943 0
2.780000 -0.098044 0
2.785000 -0.097148 0
2.790000 -0.096257 0
2.795000 -0.095371 0
2.800000 -0.094488 0
2.805000 -0.093610 0
2.810000 -0.092736 0
2.815000 -0.091865 0
2.820000 -0.090997 0
2.825000 -0.090129 0
2.830000 -0.089257 0
2.835000 -0.088375 0
2.840000 -0.087472 0
2.845000 -0.086526 0
2.850000 -0.085505 0
2.855000 -0.084358 0
2.860000 -0.083003 0
2.865000 -0.081324 0
2.870000 -0.079152 0
2.875000 -0.076259 0
2.880000 -0.072347 0
2.885000 -0.067047 0
2.890000 -0.059923 0
2.895000 -0.050501 0
2.900000 -0.038301 0
2.905000 -0.022902 0
2.910000 -0.004011 0
2.915000 0.018446 0
2.920000 0.044253 0
2.925000 0.072833 0
2.930000 0.103220 0
2.935000 0.134081 0
2.940000 0.163790 0
2.945000 0.190558 0
2.950000 0.212605 0
2.955000 0.228354 0
2.960000 0.236618 0
2.965000 0.236748 1
2.970000 0.228713 0
2.975000 0.213113 0
2.980000 0.191097 0
2.985000 0.164228 0
2.990000 0.134293 0
2.995000 0.103093 0
3.000000 0.072194 0
3.005000 0.042598 0
3.010000 0.014219 0
3.015000 -0.014790 0
3.020000 -0.048322 0
3.025000 -0.091007 0
3.030000 -0.144267 0
3.035000 -0.200945 0
3.040000 -0.242422 2
3.045000 -0.241441 0
3.050000 -0.169246 0
3.055000 -0.003643 0
3.060000 0.260300 0
3.065000 0.593538 0
3.070000 0.920509 0
3.075000 1.134975 0
3.080000 1.151681 3
3.085000 0.959927 0
3.090000 0.629876 0
3.095000 0.266530 0
3.100000 -0.042560 0
3.105000 -0.251371 0
3.110000 -0.350547 0
3.115000 -0.355397 4
3.120000 -0.296989 0
3.125000 -0.212090 0
3.130000 -0.130605 0
3.135000 -0.067342 0
3.140000 -0.023025 0
3.145000 0.008695 0
3.150000 0.034679 0
3.155000 0.059411 0
3.160000 0.084984 0
3.165000 0.112043 0
3.170000 0.140555 0
3.175000 0.170199 0
3.180000 0.200511 0
3.185000 0.230933 0
3.190000 0.260842 0
3.195000 0.289562 0
3.200000 0.316397 0
3.205000 0.340654 0
3.210000 0.361671 0
3.215000 0.378849 0
3.220000 0.391679 0
3.225000 0.399764 0
3.230000 0.402844 5
3.235000 0.400803 0
3.240000 0.393680 0
3.245000 0.381666 0
3.250000 0.365094 0
3.255000 0.344424 0
3.260000 0.320224 0
3.265000 0.293138 0
3.270000 0.263861 0
3.275000 0.233110 0
3.280000 0.201591 0
3.285000 0.169978 0
3.290000 0.138886 0
3.295000 0.108854 0
3.300000 0.080335 0
3.305000 0.053685 0
3.310000 0.029166 0
3.315000 0.006945 0
3.320000 -0.012900 0
3.325000 -0.030364 0
3.330000 -0.045510 0
3.335000 -0.058452 0
3.340000 -0.069344 0
3.345000 -0.078365 0
3.350000 -0.085710 0
3.355000 -0.091580 0
3.360000 -0.096171 0
3.365000 -0.099672 0
3.370000 -0.102256 0
3.375000 -0.104081 0
3.380000 -0.105285 0
3.385000 -0.105991 0
3.390000 -0.105293 0
3.395000 -0.104362 0
3.400000 -0.103435 0
3.405000 -0.102512 0
3.410000 -0.101595 0
3.415000 -0.100681 0
3.420000 -0.099772 0
3.425000 -0.098867 0
3.430000 -0.097966 0
3.435000 -0.097066 0
3.440000 -0.096167 0
3.445000 -0.095264 0
3.450000 -0.094350 0
3.455000 -0.093413 0
3.460000 -0.092432 0
3.465000 -0.091372 0
3.470000 -0.090181 0
3.475000 -0.088777 0
3.480000 -0.087039 0
3.485000 -0.084800 0
3.490000 -0.081829 0
3.495000 -0.077828 0
3.500000 -0.072429 0
3.505000 -0.065202 0
3.510000 -0.055674 0
3.515000 -0.043377 0
3.520000 -0.027894 0
3.525000 -0.008941 0
3.530000 0.013555 0
3.535000 0.039376 0
3.540000 0.067956 0
3.545000 0.098345 0
3.550000 0.129235 0
3.555000 0.159025 0
3.560000 0.185952 0
3.565000 0.208256 0
3.570000 0.224369 0
3.575000 0.233097 0
3.580000 0.233766 1
3.585000 0.226307 0
3.590000 0.211268 0
3.595000 0.189748 0
3.600000 0.163262 0
3.605000 0.133562 0
3.610000 0.102432 0
3.615000 0.071457 0
3.620000 0.041707 0
3.625000 0.013259 0
3.630000 -0.015462 0
3.635000 -0.048062 0
3.640000 -0.089185 0
3.645000 -0.141022 0
3.650000 -0.198086 0
3.655000 -0.243749 0
3.660000 -0.252082 2
3.665000 -0.194400 0
3.670000 -0.047019 0
3.675000 0.199159 0
3.680000 0.523268 0
3.685000 0.859767 0
3.690000 1.106718 0
3.695000 1.170429 3
3.700000 1.022022 0
3.705000 0.715542 0
3.710000 0.350843 0
3.715000 0.021573 0
3.720000 -0.216378 0
3.725000 -0.345453 0
3.730000 -0.374911 4
3.735000 -0.331573 0
3.740000 -0.251063 0
3.745000 -0.165999 0
3.750000 -0.095972 0
3.755000 -0.045646 0
3.760000 -0.010297 0
3.765000 0.017146 0
3.770000 0.042030 0
3.775000 0.067184 0
3.780000 0.093671 0
3.785000 0.121657 0
3.790000 0.150914 0
3.795000 0.181037 0
3.800000 0.211516 0
3.805000 0.241765 0
3.810000 0.271143 0
3.815000 0.298976 0
3.820000 0.324579 0
3.825000 0.347287 0
3.830000 0.366480 0
3.835000 0.381611 0
3.840000 0.392233 0
3.845000 0.398021 0
3.850000 0.398784 5
3.855000 0.394478 0
3.860000 0.385209 0
3.865000 0.371225 0
3.870000 0.352911 0
3.875000 0.330761 0
3.880000 0.305365 0
3.885000 0.277378 0
3.890000 0.247493 0
3.895000 0.216409 0
3.900000 0.184811 0
3.905000 0.153339 0
3.910000 0.122572 0
3.915000 0.093012 0
3.920000 0.065072 0
3.925000 0.039072 0
3.930000 0.015239 0
3.935000 -0.006288 0
3.940000 -0.025455 0
3.945000 -0.042276 0
3.950000 -0.056827 0
3.955000 -0.069230 0
3.960000 -0.079643 0
3.965000 -0.088247 0
3.970000 -0.095233 0
3.975000 -0.100799 0
3.980000 -0.105135 0
3.985000 -0.108424 0
3.990000 -0.110833 0
3.995000 -0.112514 0
4.000000 -0.113600 0
4.005000 -0.114208 0
4.010000 -0.113461 0
4.015000 -0.112488 0
4.020000 -0.111521 0
4.025000 -0.110558 0
4.030000 -0.109600 0
4.035000 -0.108647 0
4.040000 -0.107698 0
4.045000 -0.106754 0
4.050000 -0.105813 0
4.055000 -0.104874 0
4.060000 -0.103936 0
4.065000 -0.102994 0
4.070000 -0.102042 0
4.075000 -0.101067 0
4.080000 -0.100049 0
4.085000 -0.098956 0
4.090000 -0.097735 0
4.095000 -0.096309 0
4.100000 -0.094563 0
4.105000 -0.092335 0
4.110000 -0.089405 0
4.115000 -0.085489 0
4.120000 -0.080231 0
4.125000 -0.073218 0
4.130000 -0.063990 0
4.135000 -0.052083 0
4.140000 -0.037081 0
4.145000 -0.018679 0
4.150000 0.003234 0
4.155000 0.028500 0
4.160000 0.056630 0
4.165000 0.086769 0
4.170000 0.117703 0
4.175000 0.147919 0
4.180000 0.175714 0
4.185000 0.199346 0
4.190000 0.217217 0
4.195000 0.228047 0
4.200000 0.231027 1
4.205000 0.225919 0
4.210000 0.213090 0
4.215000 0.193463 0
4.220000 0.168412 0
4.225000 0.139600 0
4.230000 0.108789 0
4.235000 0.077624 0
4.240000 0.047378 0
4.245000 0.018549 0
4.250000 -0.009719 0
4.255000 -0.040202 0
4.260000 -0.077310 0
4.265000 -0.124749 0
4.270000 -0.180911 0
4.275000 -0.234312 0
4.280000 -0.262955 2
4.285000 -0.239018 0
4.290000 -0.136085 0
4.295000 0.062967 0
4.300000 0.354064 0
4.305000 0.695520 0
4.310000 1.002046 0
4.315000 1.170427 3
4.320000 1.133948 0
4.325000 0.903766 0
4.330000 0.558576 0
4.335000 0.199377 0
4.340000 -0.096231 0
4.345000 -0.290354 0
4.350000 -0.377839 4
4.355000 -0.375448 0
4.360000 -0.313921 0
4.365000 -0.228465 0
4.370000 -0.147199 0
4.375000 -0.083914 0
4.380000 -0.039229 0
4.385000 -0.007088 0
4.390000 0.019154 0
4.395000 0.043947 0
4.400000 0.069447 0
4.405000 0.096372 0
4.410000 0.124744 0
4.415000 0.154281 0
4.420000 0.184558 0
4.425000 0.215056 0
4.430000 0.245188 0
4.435000 0.274319 0
4.440000 0.301784 0
4.445000 0.326916 0
4.450000 0.349071 0
4.455000 0.367652 0
4.460000 0.382140 0
4.465000 0.392114 0
4.470000 0.397272 0
4.475000 0.397449 5
4.480000 0.392617 0
4.485000 0.382895 0
4.490000 0.368541 0
4.495000 0.349938 0
4.500000 0.327580 0
4.505000 0.302048 0
4.510000 0.273984 0
4.515000 0.244068 0
4.520000 0.212984 0
4.525000 0.181400 0
4.530000 0.149944 0
4.535000 0.119180 0
4.540000 0.089601 0
4.545000 0.061614 0
4.550000 0.035535 0
4.555000 0.011591 0
4.560000 -0.010080 0
4.565000 -0.029416 0
4.570000 -0.046427 0
4.575000 -0.061183 0
4.580000 -0.073799 0
4.585000 -0.084426 0
4.590000 -0.093238 0
4.595000 -0.100424 0
4.600000 -0.106173 0
4.605000 -0.110676 0
4.610000 -0.114113 0
4.615000 -0.116649 0
4.620000 -0.118437 0
4.625000 -0.119610 0
4.630000 -0.120286 0
4.635000 -0.119524 0
4.640000 -0.118521 0
4.645000 -0.117524 0
4.650000 -0.116531 0
4.655000 -0.115543 0
4.660000 -0.114561 0
4.665000 -0.113582 0
4.670000 -0.112609 0
4.675000 -0.111639 0
4.680000 -0.110672 0
4.685000 -0.109707 0
4.690000 -0.108740 0
4.695000 -0.107766 0
4.700000 -0.106775 0
4.705000 -0.105750 0
4.710000 -0.104666 0
4.715000 -0.103480 0
4.720000 -0.102128 0
4.725000 -0.100513 0
4.730000 -0.098500 0
4.735000 -0.095900 0
4.740000 -0.092464 0
4.745000 -0.087878 0
4.750000 -0.081763 0
4.755000 -0.073689 0
4.760000 -0.063199 0
4.765000 -0.049854 0
4.770000 -0.033288 0
4.775000 -0.013284 0
4.780000 0.010159 0
4.785000 0.036751 0
4.790000 0.065861 0
4.795000 0.096504 0
4.800000 0.127362 0
4.805000 0.156868 0
4.810000 0.183322 0
4.815000 0.205050 0
4.820000 0.220584 0
4.825000 0.228818 0
4.830000 0.229144 1
4.835000 0.221524 0
4.840000 0.206497 0
4.845000 0.185116 0
4.850000 0.158827 0
4.855000 0.129304 0
4.860000 0.098260 0
4.865000 0.067241 0
4.870000 0.037344 0
4.875000 0.008799 0
4.880000 -0.019623 0
4.885000 -0.051059 0
4.890000 -0.089959 0
4.895000 -0.139347 0
4.900000 -0.196156 0
4.905000 -0.247266 0
4.910000 -0.269807 2
4.915000 -0.236293 0
4.920000 -0.121645 0
4.925000 0.089032 0
4.930000 0.388309 0
4.935000 0.730778 0
4.940000 1.029617 0
4.945000 1.184482 3
4.950000 1.133408 0
4.955000 0.891183 0
4.960000 0.541106 0
4.965000 0.184954 0
4.970000 -0.102028 0
4.975000 -0.285094 0
4.980000 -0.361723 4
4.985000 -0.350814 0
4.990000 -0.284599 0
4.995000 -0.198475 0
5.000000 -0.119291 0
5.005000 -0.058958 0
5.010000 -0.016694 0
5.015000 0.014043 0
5.020000 0.039731 0
5.025000 0.064463 0
5.030000 0.090111 0
5.035000 0.117234 0
5.040000 0.145778 0
5.045000 0.175422 0
5.050000 0.205714 0
5.055000 0.236111 0
5.060000 0.266009 0
5.065000 0.294752 0
5.070000 0.321667 0
5.075000 0.346078 0
5.080000 0.367341 0
5.085000 0.384870 0
5.090000 0.398161 0
5.095000 0.406816 0
5.100000 0.410564 5
5.105000 0.409276 0
5.110000 0.402964 0
5.115000 0.391791 0
5.120000 0.376055 0
5.125000 0.356182 0
5.130000 0.332701 0
5.135000 0.306223 0
5.140000 0.277414 0
5.145000 0.246967 0
5.150000 0.215573 0
5.155000 0.183898 0
5.160000 0.152557 0
5.165000 0.122100 0
5.170000 0.092994 0
5.175000 0.065619 0
5.180000 0.040260 0
5.185000 0.017114 0
5.190000 -0.003710 0
5.195000 -0.022180 0
5.200000 -0.038332 0
5.205000 -0.052256 0
5.210000 -0.064086 0
5.215000 -0.073986 0
5.220000 -0.082139 0
5.225000 -0.088738 0
5.230000 -0.093977 0
5.235000 -0.098045 0
5.240000 -0.101117 0
5.245000 -0.103355 0
5.250000 -0.104906 0
5.255000 -0.105897 0
5.260000 -0.106222 0
5.265000 -0.105286 0
5.270000 -0.104355 0
5.275000 -0.103428 0
5.280000 -0.102506 0
5.285000 -0.101588 0
5.290000 -0.100674 0
5.295000 -0.099765 0
5.300000 -0.098860 0
5.305000 -0.097958 0
5.310000 -0.097058 0
5.315000 -0.096158 0
5.320000 -0.095252 0
5.325000 -0.094334 0
5.330000 -0.093390 0
5.335000 -0.092399 0
5.340000 -0.091323 0
5.345000 -0.090109 0
5.350000 -0.088673 0
5.355000 -0.086893 0
5.360000 -0.084600 0
5.365000 -0.081566 0
5.370000 -0.077497 0
5.375000 -0.072031 0
5.380000 -0.064749 0
5.385000 -0.055193 0
5.390000 -0.042905 0
5.395000 -0.027485 0
5.400000 -0.008651 0
5.405000 0.013673 0
5.410000 0.039294 0
5.415000 0.067681 0
5.420000 0.097944 0
5.425000 0.128839 0
5.430000 0.158841 0
5.435000 0.186248 0
5.440000 0.209340 0
5.445000 0.226557 0
5.450000 0.236667 0
5.455000 0.238917 1
5.460000 0.233122 0
5.465000 0.219693 0
5.470000 0.199585 0
5.475000 0.174185 0
5.480000 0.145156 0
5.485000 0.114243 0
5.490000 0.083065 0
5.495000 0.052851 0
5.500000 0.024046 0
5.505000 -0.004277 0
5.510000 -0.034952 0
5.515000 -0.072384 0
5.520000 -0.120161 0
5.525000 -0.176469 0
5.530000 -0.229662 0
5.535000 -0.257759 2
5.540000 -0.233141 0
5.545000 -0.129669 0
5.550000 0.069549 0
5.555000 0.360434 0
5.560000 0.701781 0
5.565000 1.009270 0
5.570000 1.180458 3
5.575000 1.147272 0
5.580000 0.918166 0
5.585000 0.572822 0
5.590000 0.213956 0
5.595000 -0.079886 0
5.600000 -0.270896 0
5.605000 -0.354603 4
5.610000 -0.348748 0
5.615000 -0.285075 0
5.620000 -0.199303 0
5.625000 -0.119223 0
5.630000 -0.057732 0
5.635000 -0.014620 0
5.640000 0.016539 0
5.645000 0.042347 0
5.650000 0.067049 0
5.655000 0.092616 0
5.660000 0.119652 0
5.665000 0.148123 0
5.670000 0.177713 0
5.675000 0.207972 0
5.680000 0.238359 0
5.685000 0.268267 0
5.690000 0.297041 0
5.695000 0.324003 0
5.700000 0.348474 0
5.705000 0.369807 0
5.710000 0.387410 0
5.715000 0.400775 0
5.720000 0.409501 0
5.725000 0.413312 5
5.730000 0.412076 0
5.735000 0.405804 0
5.740000 0.394658 0
5.745000 0.378936 0
5.750000 0.359064 0
5.755000 0.335574 0
5.760000 0.309080 0
5.765000 0.280251 0
5.770000 0.249782 0
5.775000 0.218369 0
5.780000 0.186679 0
5.785000 0.155330 0
5.790000 0.124873 0
5.795000 0.095777 0
5.800000 0.068421 0
5.805000 0.043091 0
5.810000 0.019981 0
5.815000 -0.000800 0
5.820000 -0.019222 0
5.825000 -0.035322 0
5.830000 -0.049193 0
5.835000 -0.060970 0
5.840000 -0.070819 0
5.845000 -0.078925 0
5.850000 -0.085482 0
5.855000 -0.090683 0
5.860000 -0.094718 0
5.865000 -0.097763 0
5.870000 -0.099981 0
5.875000 -0.101516 0
5.880000 -0.102497 0
5.885000 -0.102820 0
5.890000 -0.101901 0
5.895000 -0.100986 0
5.900000 -0.100076 0
5.905000 -0.099171 0
5.910000 -0.098270 0
5.915000 -0.097373 0
5.920000 -0.096480 0
5.925000 -0.095591 0
5.930000 -0.094706 0
5.935000 -0.093822 0
5.940000 -0.092937 0
5.945000 -0.092046 0
5.950000 -0.091142 0
5.955000 -0.090210 0
5.960000 -0.089228 0
5.965000 -0.088158 0
5.970000 -0.086941 0
5.975000 -0.085492 0
5.980000 -0.083684 0
5.985000 -0.081342 0
5.990000 -0.078228 0
5.995000 -0.074042 0
6.000000 -0.068412 0
6.005000 -0.060912 0
6.010000 -0.051079 0
6.015000 -0.038459 0
6.020000 -0.022656 0
6.025000 -0.003412 0
6.030000 0.019324 0
6.035000 0.045317 0
6.040000 0.073990 0
6.045000 0.104400 0
6.050000 0.135258 0
6.055000 0.164999 0
6.060000 0.191902 0
6.065000 0.214250 0
6.070000 0.230512 0
6.075000 0.239511 0
6.080000 0.240569 1
6.085000 0.233588 0
6.090000 0.219066 0
6.095000 0.198037 0
6.100000 0.171948 0
6.105000 0.142495 0
6.110000 0.111426 0
6.115000 0.080325 0
6.120000 0.050331 0
6.125000 0.021705 0
6.130000 -0.006774 0
6.135000 -0.038288 0
6.140000 -0.077359 0
6.145000 -0.127019 0
6.150000 -0.183960 0
6.155000 -0.234504 0
6.160000 -0.255078 2
6.165000 -0.217664 0
6.170000 -0.097090 0
6.175000 0.120747 0
6.180000 0.425900 0
6.185000 0.768395 0
6.190000 1.056876 0
6.195000 1.190748 3
6.200000 1.113763 0
6.205000 0.850193 0
6.210000 0.492630 0
6.215000 0.144666 0
6.220000 -0.123033 0
6.225000 -0.282031 0
6.230000 -0.335398 4
6.235000 -0.306841 0
6.240000 -0.231845 0
6.245000 -0.145795 0
6.250000 -0.072207 0
6.255000 -0.018653 0
6.260000 0.018526 0
6.265000 0.046597 0
6.270000 0.071451 0
6.275000 0.096330 0
6.280000 0.122500 0
6.285000 0.150200 0
6.290000 0.179221 0
6.295000 0.209155 0
6.300000 0.239483 0
6.305000 0.269603 0
6.310000 0.298856 0
6.315000 0.326547 0
6.320000 0.351971 0
6.325000 0.374443 0
6.330000 0.393324 0
6.335000 0.408056 0
6.340000 0.418186 0
6.345000 0.423387 0
6.350000 0.423476 5
6.355000 0.418424 0
6.360000 0.408360 0
6.365000 0.393558 0
6.370000 0.374432 0
6.375000 0.351512 0
6.380000 0.325418 0
6.385000 0.296836 0
6.390000 0.266483 0
6.395000 0.235080 0
6.400000 0.203322 0
6.405000 0.171854 0
6.410000 0.141254 0
6.415000 0.112012 0
6.420000 0.084525 0
6.425000 0.059093 0
6.430000 0.035917 0
6.435000 0.015110 0
6.440000 -0.003299 0
6.445000 -0.019350 0
6.450000 -0.033143 0
6.455000 -0.044819 0
6.460000 -0.054552 0
6.465000 -0.062536 0
6.470000 -0.068970 0
6.475000 -0.074056 0
6.480000 -0.077988 0
6.485000 -0.080944 0
6.490000 -0.083090 0
6.495000 -0.084572 0
6.500000 -0.085518 0
6.505000 -0.085840 0
6.510000 -0.085005 0
6.515000 -0.084175 0
6.520000 -0.083349 0
6.525000 -0.082526 0
6.530000 -0.081708 0
6.535000 -0.080894 0
6.540000 -0.080083 0
6.545000 -0.079276 0
6.550000 -0.078471 0
6.555000 -0.077665 0
6.560000 -0.076857 0
6.565000 -0.076040 0
6.570000 -0.075202 0
6.575000 -0.074325 0
6.580000 -0.073379 0
6.585000 -0.072313 0
6.590000 -0.071055 0
6.595000 -0.069491 0
6.600000 -0.067462 0
6.605000 -0.064751 0
6.610000 -0.061071 0
6.615000 -0.056065 0
6.620000 -0.049308 0
6.625000 -0.040331 0
6.630000 -0.028655 0
6.635000 -0.013845 0
6.640000 0.004413 0
6.645000 0.026237 0
6.650000 0.051462 0
6.655000 0.079576 0
6.660000 0.109683 0
6.665000 0.140513 0
6.670000 0.170490 0
6.675000 0.197849 0
6.680000 0.220803 0
6.685000 0.237730 0
6.690000 0.247368 0
6.695000 0.248964 1
6.700000 0.242370 0
6.705000 0.228069 0
6.710000 0.207112 0
6.715000 0.180990 0
6.720000 0.151454 0
6.725000 0.120313 0
6.730000 0.089195 0
6.735000 0.059244 0
6.740000 0.030646 0
6.745000 0.001971 0
6.750000 -0.030271 0
6.755000 -0.070771 0
6.760000 -0.122063 0
6.765000 -0.179240 0
6.770000 -0.226190 0
6.775000 -0.237120 2
6.780000 -0.183046 0
6.785000 -0.039674 0
6.790000 0.203014 0
6.795000 0.525341 0
6.800000 0.862645 0
6.805000 1.112653 0
6.810000 1.180045 3
6.815000 1.033139 0
6.820000 0.725115 0
6.825000 0.360303 0
6.830000 0.035294 0
6.835000 -0.194090 0
6.840000 -0.312180 0
6.845000 -0.330898 4
6.850000 -0.279956 0
6.855000 -0.196870 0
6.860000 -0.113905 0
6.865000 -0.048362 0
6.870000 -0.002388 0
6.875000 0.030092 0
6.880000 0.056231 0
6.885000 0.080846 0
6.890000 0.106226 0
6.895000 0.133098 0
6.900000 0.161451 0
6.905000 0.190963 0
6.910000 0.221163 0
6.915000 0.251482 0
6.920000 0.281280 0
6.925000 0.309869 0
6.930000 0.336533 0
6.935000 0.360565 0
6.940000 0.381289 0
6.945000 0.398097 0
6.950000 0.410474 0
6.955000 0.418025 0
6.960000 0.420496 5
6.965000 0.417784 0
6.970000 0.409946 0
6.975000 0.397197 0
6.980000 0.379896 0
6.985000 0.358533 0
6.990000 0.333700 0
6.995000 0.306068 0
7.000000 0.276356 0
7.005000 0.245297 0
7.010000 0.213607 0
7.015000 0.181966 0
7.020000 0.150987 0
7.025000 0.121200 0
7.030000 0.093045 0
7.035000 0.066861 0
7.040000 0.042888 0
7.045000 0.021270 0
7.050000 0.002065 0
7.055000 -0.014746 0
7.060000 -0.029245 0
7.065000 -0.041565 0
7.070000 -0.051871 0
7.075000 -0.060356 0
7.080000 -0.067222 0
7.085000 -0.072672 0
7.090000 -0.076905 0
7.095000 -0.080109 0
7.100000 -0.082454 0
7.105000 -0.084095 0
7.110000 -0.085164 0
7.115000 -0.085568 0
7.120000 -0.084735 0
7.125000 -0.083906 0
7.130000 -0.083081 0
7.135000 -0.082260 0
7.140000 -0.081443 0
7.145000 -0.080630 0
7.150000 -0.079821 0
7.155000 -0.079015 0
7.160000 -0.078212 0
7.165000 -0.077409 0
7.170000 -0.076603 0
7.175000 -0.075790 0
7.180000 -0.074958 0
7.185000 -0.074090 0
7.190000 -0.073157 0
7.195000 -0.072113 0
7.200000 -0.070885 0
7.205000 -0.069365 0
7.210000 -0.067398 0
7.215000 -0.064770 0
7.220000 -0.061197 0
7.225000 -0.056325 0
7.230000 -0.049728 0
7.235000 -0.040932 0
7.240000 -0.029451 0
7.245000 -0.014840 0
7.250000 0.003232 0
7.255000 0.024894 0
7.260000 0.049996 0
7.265000 0.078032 0
7.270000 0.108106 0
7.275000 0.138941 0
7.280000 0.168942 0
7.285000 0.196321 0
7.290000 0.219264 0
7.295000 0.236131 0
7.300000 0.245645 0
7.305000 0.247050 1
7.310000 0.240215 0
7.315000 0.225646 0
7.320000 0.204430 0
7.325000 0.178092 0
7.330000 0.148419 0
7.335000 0.117238 0
7.340000 0.086180 0
7.345000 0.056350 0
7.350000 0.027831 0
7.355000 -0.001000 0
7.360000 -0.033869 0
7.365000 -0.075505 0
7.370000 -0.127920 0
7.375000 -0.184940 0
7.380000 -0.228817 0
7.385000 -0.232554 2
7.390000 -0.166945 0
7.395000 -0.008747 0
7.400000 0.248798 0
7.405000 0.579292 0
7.410000 0.909412 0
7.415000 1.132613 0
7.420000 1.160118 3
7.425000 0.976406 0
7.430000 0.649282 0
7.435000 0.285621 0
7.440000 -0.024413 0
7.445000 -0.233308 0
7.450000 -0.331464 0
7.455000 -0.334710 4
7.460000 -0.275005 0
7.465000 -0.189848 0
7.470000 -0.109214 0
7.475000 -0.047356 0
7.480000 -0.004323 0
7.485000 0.026585 0
7.490000 0.052223 0
7.495000 0.076907 0
7.500000 0.102569 0
7.505000 0.129755 0
7.510000 0.158381 0
7.515000 0.188091 0
7.520000 0.218395 0
7.525000 0.248711 0
7.530000 0.278391 0
7.535000 0.306741 0
7.540000 0.333045 0
7.545000 0.356601 0
7.550000 0.376743 0
7.555000 0.392879 0
7.560000 0.404511 0
7.565000 0.411269 0
7.570000 0.412921 5
7.575000 0.409394 0
7.580000 0.400770 0
7.585000 0.387287 0
7.590000 0.369327 0
7.595000 0.347397 0
7.600000 0.322104 0
7.605000 0.294127 0
7.610000 0.264188 0
7.615000 0.233018 0
7.620000 0.201329 0
7.625000 0.169790 0
7.630000 0.139000 0
7.635000 0.109476 0
7.640000 0.081642 0
7.645000 0.055821 0
7.650000 0.032236 0
7.655000 0.011020 0
7.660000 -0.007784 0
7.665000 -0.024205 0
7.670000 -0.038333 0
7.675000 -0.050306 0
7.680000 -0.060296 0
7.685000 -0.068494 0
7.690000 -0.075104 0
7.695000 -0.080330 0
7.700000 -0.084369 0
7.705000 -0.087404 0
7.710000 -0.089605 0
7.715000 -0.091122 0
7.720000 -0.092086 0
7.725000 -0.092408 0
7.730000 -0.091540 0
7.735000 -0.090678 0
7.740000 -0.089819 0
7.745000 -0.088964 0
7.750000 -0.088114 0
7.755000 -0.087268 0
7.760000 -0.086426 0
7.765000 -0.085586 0
7.770000 -0.084750 0
7.775000 -0.083914 0
7.780000 -0.083075 0
7.785000 -0.082226 0
7.790000 -0.081358 0
7.795000 -0.080452 0
7.800000 -0.079475 0
7.805000 -0.078380 0
7.810000 -0.077089 0
7.815000 -0.075491 0
7.820000 -0.073422 0
7.825000 -0.070662 0
7.830000 -0.066918 0
7.835000 -0.061825 0
7.840000 -0.054954 0
7.845000 -0.045826 0
7.850000 -0.033958 0
7.855000 -0.018915 0
7.860000 -0.000387 0
7.865000 0.021728 0
7.870000 0.047238 0
7.875000 0.075596 0
7.880000 0.105860 0
7.885000 0.136714 0
7.890000 0.166536 0
7.895000 0.193529 0
7.900000 0.215891 0
7.905000 0.232016 0
7.910000 0.240680 0
7.915000 0.241197 1
7.920000 0.233503 0
7.925000 0.218176 0
7.930000 0.196352 0
7.935000 0.169595 0
7.940000 0.139702 0
7.945000 0.108491 0
7.950000 0.077549 0
7.955000 0.047903 0
7.960000 0.019489 0
7.965000 -0.009524 0
7.970000 -0.043048 0
7.975000 -0.085747 0
7.980000 -0.139057 0
7.985000 -0.195729 0
7.990000 -0.236919 2
7.995000 -0.235099 0
8.000000 -0.161327 0
8.005000 0.006550 0
8.010000 0.272910 0
8.015000 0.607289 0
8.020000 0.932125 0
8.025000 1.140088 0
8.030000 1.147374 3
8.035000 0.946741 0
8.040000 0.611884 0
8.045000 0.249898 0
8.050000 -0.052608 0
8.055000 -0.252004 0
8.060000 -0.341331 4
8.065000 -0.338038 0
8.070000 -0.274890 0
8.075000 -0.189146 0
8.080000 -0.109635 0
8.085000 -0.049300 0
8.090000 -0.007396 0
8.095000 0.022953 0
8.100000 0.048442 0
8.105000 0.073180 0
8.110000 0.098965 0
8.115000 0.126279 0
8.120000 0.155013 0
8.125000 0.184802 0
8.130000 0.215150 0
8.135000 0.245473 0
8.140000 0.275120 0
8.145000 0.303397 0
8.150000 0.329594 0
8.155000 0.353008 0
8.160000 0.372982 0
8.165000 0.388926 0
8.170000 0.400353 0
8.175000 0.406899 0
8.180000 0.408341 5
8.185000 0.404611 0
8.190000 0.395799 0
8.195000 0.382149 0
8.200000 0.364048 0
8.205000 0.342003 0
8.210000 0.316625 0
8.215000 0.288593 0
8.220000 0.258625 0
8.225000 0.227451 0
8.230000 0.195781 0
8.235000 0.164277 0
8.240000 0.133537 0
8.245000 0.104074 0
8.250000 0.076306 0
8.255000 0.050554 0
8.260000 0.027040 0
8.265000 0.005891 0
8.270000 -0.012849 0
8.275000 -0.029211 0
8.280000 -0.043286 0
8.285000 -0.055210 0
8.290000 -0.065156 0
8.295000 -0.073316 0
8.300000 -0.079892 0
8.305000 -0.085087 0
8.310000 -0.089098 0
8.315000 -0.092108 0
8.320000 -0.094285 0
8.325000 -0.095779 0
8.330000 -0.096721 0
8.335000 -0.097021 0
8.340000 -0.096131 0
8.345000 -0.095245 0
8.350000 -0.094363 0
8.355000 -0.093486 0
8.360000 -0.092613 0
8.365000 -0.091745 0
8.370000 -0.090880 0
8.375000 -0.090019 0
8.380000 -0.089160 0
8.385000 -0.088302 0
8.390000 -0.087441 0
8.395000 -0.086572 0
8.400000 -0.085683 0
8.405000 -0.084756 0
8.410000 -0.083761 0
8.415000 -0.082649 0
8.420000 -0.081345 0
8.425000 -0.079737 0
8.430000 -0.077667 0
8.435000 -0.074916 0
8.440000 -0.071194 0
8.445000 -0.066142 0
8.450000 -0.059332 0
8.455000 -0.050289 0
8.460000 -0.038531 0
8.465000 -0.023621 0
8.470000 -0.005241 0
8.475000 0.016720 0
8.480000 0.042089 0
8.485000 0.070338 0
8.490000 0.100549 0
8.495000 0.131428 0
8.500000 0.161374 0
8.505000 0.188599 0
8.510000 0.211303 0
8.515000 0.227868 0
8.520000 0.237046 0
8.525000 0.238113 1
8.530000 0.230968 0
8.535000 0.216144 0
8.540000 0.194740 0
8.545000 0.168292 0
8.550000 0.138581 0
8.555000 0.107425 0
8.560000 0.076434 0
8.565000 0.046689 0
8.570000 0.018236 0
8.575000 -0.010592 0
8.580000 -0.043544 0
8.585000 -0.085322 0
8.590000 -0.137836 0
8.595000 -0.194783 0
8.600000 -0.238353 0
8.605000 -0.241610 2
8.610000 -0.175499 0
8.615000 -0.016940 0
8.620000 0.240726 0
8.625000 0.571202 0
8.630000 0.901580 0
8.635000 1.125843 0
8.640000 1.155290 3
8.645000 0.974756 0
8.650000 0.651062 0
8.655000 0.286625 0
8.660000 -0.029968 0
8.665000 -0.249850 0
8.670000 -0.360813 0
8.675000 -0.375652 4
8.680000 -0.323393 0
8.685000 -0.240053 0
8.690000 -0.156588 0
8.695000 -0.089928 0
8.700000 -0.042622 0
8.705000 -0.009092 0
8.710000 0.017625 0
8.715000 0.042435 0
8.720000 0.067796 0
8.725000 0.094564 0
8.730000 0.122812 0
8.735000 0.152270 0
8.740000 0.182513 0
8.745000 0.213014 0
8.750000 0.243178 0
8.755000 0.272356 0
8.760000 0.299868 0
8.765000 0.325031 0
8.770000 0.347186 0
8.775000 0.365722 0
8.780000 0.380110 0
8.785000 0.389921 0
8.790000 0.394853 5
8.795000 0.394739 0
8.800000 0.389563 0
8.805000 0.379456 0
8.810000 0.364692 0
8.815000 0.345676 0
8.820000 0.322922 0
8.825000 0.297033 0
8.830000 0.268674 0
8.835000 0.238541 0
8.840000 0.207333 0
8.845000 0.175729 0
8.850000 0.144360 0
8.855000 0.113793 0
8.860000 0.084513 0
8.865000 0.056918 0
8.870000 0.031312 0
8.875000 0.007905 0
8.880000 -0.013181 0
8.885000 -0.031904 0
8.890000 -0.048289 0
8.895000 -0.062423 0
8.900000 -0.074435 0
8.905000 -0.084488 0
8.910000 -0.092766 0
8.915000 -0.099462 0
8.920000 -0.104773 0
8.925000 -0.108888 0
8.930000 -0.111987 0
8.935000 -0.114236 0
8.940000 -0.115783 0
8.945000 -0.116758 0
8.950000 -0.117054 0
8.955000 -0.116064 0
8.960000 -0.115079 0
8.965000 -0.114098 0
8.970000 -0.113123 0
8.975000 -0.112152 0
8.980000 -0.111186 0
8.985000 -0.110225 0
8.990000 -0.109267 0
8.995000 -0.108314 0
9.000000 -0.107362 0
9.005000 -0.106410 0
9.010000 -0.105454 0
9.015000 -0.104485 0
9.020000 -0.103491 0
9.025000 -0.102449 0
9.030000 -0.101323 0
9.035000 -0.100057 0
9.040000 -0.098568 0
9.045000 -0.096731 0
9.050000 -0.094375 0
9.055000 -0.091269 0
9.060000 -0.087113 0
9.065000 -0.081540 0
9.070000 -0.074126 0
9.075000 -0.064407 0
9.080000 -0.051922 0
9.085000 -0.036272 0
9.090000 -0.017182 0
9.095000 0.005413 0
9.100000 0.031294 0
9.105000 0.059904 0
9.110000 0.090314 0
9.115000 0.121247 0
9.120000 0.151142 0
9.125000 0.178272 0
9.130000 0.200911 0
9.135000 0.217506 0
9.140000 0.226858 0
9.145000 0.228265 1
9.150000 0.221607 0
9.155000 0.207365 0
9.160000 0.186563 0
9.165000 0.160645 0
9.170000 0.131311 0
9.175000 0.100318 0
9.180000 0.069264 0
9.185000 0.039303 0
9.190000 0.010720 0
9.195000 -0.017691 0
9.200000 -0.049103 0
9.205000 -0.088056 0
9.210000 -0.137617 0
9.215000 -0.194497 0
9.220000 -0.244975 0
9.225000 -0.265360 2
9.230000 -0.227502 0
9.235000 -0.106148 0
9.240000 0.112738 0
9.245000 0.418817 0
9.250000 0.761299 0
9.255000 1.047941 0
9.260000 1.178009 3
9.265000 1.098221 0
9.270000 0.835480 0
9.275000 0.478890 0
9.280000 0.128701 0
9.285000 -0.145242 0
9.290000 -0.313295 0
9.295000 -0.376410 4
9.300000 -0.355785 0
9.305000 -0.284774 0
9.310000 -0.198264 0
9.315000 -0.121245 0
9.320000 -0.063586 0
9.325000 -0.023279 0
9.330000 0.006481 0
9.335000 0.031910 0
9.340000 0.056752 0
9.345000 0.082645 0
9.350000 0.110031 0
9.355000 0.138804 0
9.360000 0.168622 0
9.365000 0.199017 0
9.370000 0.229437 0
9.375000 0.259268 0
9.380000 0.287853 0
9.385000 0.314514 0
9.390000 0.338580 0
9.395000 0.359412 0
9.400000 0.376433 0
9.405000 0.389153 0
9.410000 0.397192 0
9.415000 0.400296 5
9.420000 0.398355 0
9.425000 0.391405 0
9.430000 0.379626 0
9.435000 0.363336 0
9.440000 0.342975 0
9.445000 0.319087 0
9.450000 0.292292 0
9.455000 0.263262 0
9.460000 0.232691 0
9.465000 0.201268 0
9.470000 0.169653 0
9.475000 0.138454 0
9.480000 0.108209 0
9.485000 0.079374 0
9.490000 0.052316 0
9.495000 0.027307 0
9.500000 0.004531 0
9.505000 -0.015914 0
9.510000 -0.034006 0
9.515000 -0.049790 0
9.520000 -0.063362 0
9.525000 -0.074862 0
9.530000 -0.084457 0
9.535000 -0.092332 0
9.540000 -0.098681 0
9.545000 -0.103698 0
9.550000 -0.107568 0
9.555000 -0.110467 0
9.560000 -0.112554 0
9.565000 -0.113973 0
9.570000 -0.114849 0
9.575000 -0.115083 0
9.580000 -0.114102 0
9.585000 -0.113127 0
9.590000 -0.112156 0
9.595000 -0.111191 0
9.600000 -0.110229 0
9.605000 -0.109273 0
9.610000 -0.108321 0
9.615000 -0.107373 0
9.620000 -0.106428 0
9.625000 -0.105486 0
9.630000 -0.104542 0
9.635000 -0.103593 0
9.640000 -0.102630 0
9.645000 -0.101639 0
9.650000 -0.100595 0
9.655000 -0.099462 0
9.660000 -0.098181 0
9.665000 -0.096662 0
9.670000 -0.094779 0
9.675000 -0.092354 0
9.680000 -0.089149 0
9.685000 -0.084861 0
9.690000 -0.079119 0
9.695000 -0.071496 0
9.700000 -0.061531 0
9.705000 -0.048772 0
9.710000 -0.032829 0
9.715000 -0.013448 0
9.720000 0.009415 0
9.725000 0.035519 0
9.730000 0.064283 0
9.735000 0.094761 0
9.740000 0.125665 0
9.745000 0.155434 0
9.750000 0.182354 0
9.755000 0.204716 0
9.760000 0.220996 0
9.765000 0.230027 0
9.770000 0.231132 1
9.775000 0.224215 0
9.780000 0.209770 0
9.785000 0.188825 0
9.790000 0.162820 0
9.795000 0.133441 0
9.800000 0.102430 0
9.805000 0.071366 0
9.810000 0.041394 0
9.815000 0.012795 0
9.820000 -0.015613 0
9.825000 -0.046955 0
9.830000 -0.085727 0
9.835000 -0.135044 0
9.840000 -0.191862 0
9.845000 -0.242899 0
9.850000 -0.264934 2
9.855000 -0.230101 0
9.860000 -0.113101 0
9.865000 0.100747 0
9.870000 0.402866 0
9.875000 0.745450 0
9.880000 1.038982 0
9.885000 1.182512 3
9.890000 1.118886 0
9.895000 0.868714 0
9.900000 0.516325 0
9.905000 0.161565 0
9.910000 -0.122854 0
9.915000 -0.303774 0
9.920000 -0.379228 4
9.925000 -0.368011 0
9.930000 -0.301885 0
9.935000 -0.215721 0
9.940000 -0.136123 0
9.945000 -0.075126 0
9.950000 -0.032221 0
9.955000 -0.001049 0
9.960000 0.024848 0
9.965000 0.049632 0
9.970000 0.075252 0
9.975000 0.102322 0
9.980000 0.130816 0
9.985000 0.160436 0
9.990000 0.190745 0
9.995000 0.221218 0
10.000000 0.251264 0
10.005000 0.280246 0
10.010000 0.307499 0
10.015000 0.332360 0
10.020000 0.354187 0
10.025000 0.372394 0
10.030000 0.386470 0
10.035000 0.396005 0
10.040000 0.400711 5
10.045000 0.400434 0
10.050000 0.395159 0
10.055000 0.385018 0
10.060000 0.370278 0
10.065000 0.351332 0
10.070000 0.328680 0
10.075000 0.302908 0
10.080000 0.274661 0
10.085000 0.244616 0
10.090000 0.213457 0
10.095000 0.181848 0
10.100000 0.150410 0
10.105000 0.119702 0
10.110000 0.090209 0
10.115000 0.062331 0
10.120000 0.036377 0
10.125000 0.012567 0
10.130000 -0.008965 0
10.135000 -0.028165 0
10.140000 -0.045046 0
10.145000 -0.059679 0
10.150000 -0.072184 0
10.155000 -0.082712 0
10.160000 -0.091438 0
10.165000 -0.098550 0
10.170000 -0.104238 0
10.175000 -0.108692 0
10.180000 -0.112088 0
10.185000 -0.114595 0
10.190000 -0.116360 0
10.195000 -0.117518 0
10.200000 -0.118184 0
10.205000 -0.117429 0
10.210000 -0.116437 0
10.215000 -0.115450 0
10.220000 -0.114468 0
10.225000 -0.113491 0
10.230000 -0.112518 0
10.235000 -0.111550 0
10.240000 -0.110586 0
10.245000 -0.109627 0
10.250000 -0.108670 0
10.255000 -0.107715 0
10.260000 -0.106757 0
10.265000 -0.105793 0
10.270000 -0.104811 0
10.275000 -0.103795 0
10.280000 -0.102718 0
10.285000 -0.101539 0
10.290000 -0.100191 0
10.295000 -0.098579 0
10.300000 -0.096566 0
10.305000 -0.093962 0
10.310000 -0.090519 0
10.315000 -0.085921 0
10.320000 -0.079791 0
10.325000 -0.071697 0
10.330000 -0.061185 0
10.335000 -0.047817 0
10.340000 -0.031230 0
10.345000 -0.011208 0
10.350000 0.012248 0
10.355000 0.038845 0
10.360000 0.067953 0
10.365000 0.098588 0
10.370000 0.129436 0
10.375000 0.158932 0
10.380000 0.185380 0
10.385000 0.207114 0
10.390000 0.222664 0
10.395000 0.230929 0
10.400000 0.231298 1
10.405000 0.223729 0
10.410000 0.208756 0
10.415000 0.187425 0
10.420000 0.161175 0
10.425000 0.131674 0
10.430000 0.100631 0
10.435000 0.069592 0
10.440000 0.039661 0
10.445000 0.011088 0
10.450000 -0.017320 0
10.455000 -0.048656 0
10.460000 -0.087349 0
10.465000 -0.136497 0
10.470000 -0.193242 0
10.475000 -0.244773 0
10.480000 -0.268485 2
10.485000 -0.236998 0
10.490000 -0.125128 0
10.495000 0.082442 0
10.500000 0.379261 0
10.505000 0.721484 0
10.510000 1.023672 0
10.515000 1.185369 3
10.520000 1.142207 0
10.525000 0.906385 0
10.530000 0.558797 0
10.535000 0.200910 0
10.540000 -0.090708 0
10.545000 -0.279626 0
10.550000 -0.361944 4
10.555000 -0.355456 0
10.560000 -0.291645 0
10.565000 -0.205848 0
10.570000 -0.125604 0
10.575000 -0.063797 0
10.580000 -0.020350 0
10.585000 0.011045 0
10.590000 0.036962 0
10.595000 0.061680 0
10.600000 0.087212 0
10.605000 0.114198 0
10.610000 0.142618 0
10.615000 0.172173 0
10.620000 0.202423 0
10.625000 0.232838 0
10.630000 0.262820 0
10.635000 0.291727 0
10.640000 0.318886 0
10.645000 0.343628 0
10.650000 0.365307 0
10.655000 0.383332 0
10.660000 0.397190 0
10.665000 0.406472 0
10.670000 0.410892 5
10.675000 0.410300 0
10.680000 0.404691 0
10.685000 0.394205 0
10.690000 0.379119 0
10.695000 0.359838 0
10.700000 0.336875 0
10.705000 0.310826 0
10.710000 0.282346 0
10.715000 0.252120 0
10.720000 0.220837 0
10.725000 0.189166 0
10.730000 0.157726 0
10.735000 0.127077 0
10.740000 0.097698 0
10.745000 0.069982 0
10.750000 0.044231 0
10.755000 0.020656 0
10.760000 -0.000619 0
10.765000 -0.019549 0
10.770000 -0.036155 0
10.775000 -0.050519 0
10.780000 -0.062765 0
10.785000 -0.073050 0
10.790000 -0.081555 0
10.795000 -0.088469 0
10.800000 -0.093986 0
10.805000 -0.098294 0
10.810000 -0.101571 0
10.815000 -0.103982 0
10.820000 -0.105676 0
10.825000 -0.106783 0
10.830000 -0.107417 0
10.835000 -0.106703 0
10.840000 -0.105764 0
10.845000 -0.104830 0
10.850000 -0.103901 0
10.855000 -0.102976 0
10.860000 -0.102056 0
10.865000 -0.101140 0
10.870000 -0.100228 0
10.875000 -0.099320 0
10.880000 -0.098414 0
10.885000 -0.097509 0
10.890000 -0.096600 0
10.895000 -0.095681 0
10.900000 -0.094741 0
10.905000 -0.093760 0
10.910000 -0.092709 0
10.915000 -0.091537 0
10.920000 -0.090173 0
10.925000 -0.088507 0
10.930000 -0.086387 0
10.935000 -0.083605 0
10.940000 -0.079889 0
10.945000 -0.074901 0
10.950000 -0.068240 0
10.955000 -0.059460 0
10.960000 -0.048103 0
10.965000 -0.033743 0
10.970000 -0.016056 0
10.975000 0.005112 0
10.980000 0.029665 0
10.985000 0.057194 0
10.990000 0.086938 0
10.995000 0.117776 0
11.000000 0.148280 0
11.005000 0.176806 0
11.010000 0.201631 0
11.015000 0.221128 0
11.020000 0.233938 0
11.025000 0.239124 1
11.030000 0.236291 0
11.035000 0.225628 0
11.040000 0.207892 0
11.045000 0.184318 0
11.050000 0.156475 0
11.055000 0.126086 0
11.060000 0.094838 0
11.065000 0.064140 0
11.070000 0.034799 0
11.075000 0.006513 0
11.080000 -0.022742 0
11.085000 -0.056862 0
11.090000 -0.100192 0
11.095000 -0.153756 0
11.100000 -0.210377 0
11.105000 -0.252185 0
11.110000 -0.253275 2
11.115000 -0.186172 0
11.120000 -0.029094 0
11.125000 0.224696 0
11.130000 0.552064 0
11.135000 0.886990 0
11.140000 1.130190 0
11.145000 1.192082 3
11.150000 1.042809 0
11.155000 0.734941 0
11.160000 0.370061 0
11.165000 0.042688 0
11.170000 -0.191584 0
11.175000 -0.316077 0
11.180000 -0.341138 4
11.185000 -0.294712 0
11.190000 -0.213143 0
11.195000 -0.128905 0
11.200000 -0.060693 0
11.205000 -0.012173 0
11.210000 0.021931 0
11.215000 0.048745 0
11.220000 0.073416 0
11.225000 0.098562 0
11.230000 0.125111 0
11.235000 0.153157 0
11.240000 0.182435 0
11.245000 0.212515 0
11.250000 0.242866 0
11.255000 0.272881 0
11.260000 0.301902 0
11.265000 0.329240 0
11.270000 0.354200 0
11.275000 0.376114 0
11.280000 0.394363 0
11.285000 0.408413 0
11.290000 0.417835 0
11.295000 0.422326 5
11.300000 0.421729 0
11.305000 0.416036 0
11.310000 0.405392 0
11.315000 0.390085 0
11.320000 0.370538 0
11.325000 0.347283 0
11.330000 0.320941 0
11.335000 0.292192 0
11.340000 0.261743 0
11.345000 0.230305 0
11.350000 0.198560 0
11.355000 0.167141 0
11.360000 0.136613 0
11.365000 0.107454 0
11.370000 0.080051 0
11.375000 0.054698 0
11.380000 0.031590 0
11.385000 0.010835 0
11.390000 -0.007538 0
11.395000 -0.023570 0
11.400000 -0.037358 0
11.405000 -0.049042 0
11.410000 -0.058794 0
11.415000 -0.066803 0
11.420000 -0.073268 0
11.425000 -0.078386 0
11.430000 -0.082348 0
11.435000 -0.085333 0
11.440000 -0.087504 0
11.445000 -0.089007 0
11.450000 -0.089968 0
11.455000 -0.090295 0
11.460000 -0.089439 0
11.465000 -0.088586 0
11.470000 -0.087738 0
11.475000 -0.086894 0
11.480000 -0.086054 0
11.485000 -0.085218 0
11.490000 -0.084386 0
11.495000 -0.083557 0
11.500000 -0.082731 0
11.505000 -0.081905 0
11.510000 -0.081077 0
11.515000 -0.080242 0
11.520000 -0.079388 0
11.525000 -0.078501 0
11.530000 -0.077551 0
11.535000 -0.076495 0
11.540000 -0.075264 0
11.545000 -0.073757 0
11.550000 -0.071829 0
11.555000 -0.069278 0
11.560000 -0.065837 0
11.565000 -0.061170 0
11.570000 -0.054875 0
11.575000 -0.046497 0
11.580000 -0.035561 0
11.585000 -0.021621 0
11.590000 -0.004328 0
11.595000 0.016498 0
11.600000 0.040780 0
11.605000 0.068119 0
11.610000 0.097746 0
11.615000 0.128519 0
11.620000 0.158968 0
11.625000 0.187396 0
11.630000 0.212028 0
11.635000 0.231191 0
11.640000 0.243498 0
11.645000 0.248016 1
11.650000 0.244383 0
11.655000 0.232852 0
11.660000 0.214261 0
11.665000 0.189937 0
11.670000 0.161530 0
11.675000 0.130828 0
11.680000 0.099537 0
11.685000 0.069024 0
11.690000 0.039935 0
11.695000 0.011615 0
11.700000 -0.018507 0
11.705000 -0.054789 0
11.710000 -0.101254 0
11.715000 -0.157021 0
11.720000 -0.211429 0
11.725000 -0.242894 2
11.730000 -0.223353 0
11.735000 -0.125653 0
11.740000 0.068398 0
11.745000 0.356080 0
11.750000 0.696890 0
11.755000 1.005497 0
11.760000 1.176982 3
11.765000 1.140940 0
11.770000 0.907173 0
11.775000 0.559179 0
11.780000 0.202484 0
11.785000 -0.084336 0
11.790000 -0.265289 0
11.795000 -0.338250 4
11.800000 -0.323446 0
11.805000 -0.254736 0
11.810000 -0.168486 0
11.815000 -0.091202 0
11.820000 -0.033531 0
11.825000 0.006500 0
11.830000 0.035931 0
11.835000 0.061134 0
11.840000 0.085876 0
11.845000 0.111751 0
11.850000 0.139154 0
11.855000 0.167942 0
11.860000 0.197742 0
11.865000 0.228055 0
11.870000 0.258300 0
11.875000 0.287830 0
11.880000 0.315957 0
11.885000 0.341979 0
11.890000 0.365206 0
11.895000 0.384987 0
11.900000 0.400747 0
11.905000 0.412005 0
11.910000 0.418406 0
11.915000 0.419732 5
11.920000 0.415918 0
11.925000 0.407055 0
11.930000 0.393383 0
11.935000 0.375282 0
11.940000 0.353255 0
11.945000 0.327900 0
11.950000 0.299888 0
11.955000 0.269930 0
11.960000 0.238744 0
11.965000 0.207033 0
11.970000 0.175456 0
11.975000 0.144606 0
11.980000 0.114996 0
11.985000 0.087045 0
11.990000 0.061077 0
11.995000 0.037320 0
12.000000 0.015906 0
12.005000 -0.003114 0
12.010000 -0.019763 0
12.015000 -0.034125 0
12.020000 -0.046333 0
12.025000 -0.056551 0
12.030000 -0.064970 0
12.035000 -0.071786 0
12.040000 -0.077202 0
12.045000 -0.081412 0
12.050000 -0.084601 0
12.055000 -0.086937 0
12.060000 -0.088571 0
12.065000 -0.089634 0
12.070000 -0.090030 0
12.075000 -0.089175 0
12.080000 -0.088324 0
12.085000 -0.087477 0
12.090000 -0.086634 0
12.095000 -0.085795 0
12.100000 -0.084961 0
12.105000 -0.084130 0
12.110000 -0.083303 0
12.115000 -0.082478 0
12.120000 -0.081654 0
12.125000 -0.080829 0
12.130000 -0.079997 0
12.135000 -0.079148 0
12.140000 -0.078267 0
12.145000 -0.077328 0
12.150000 -0.076288 0
12.155000 -0.075082 0
12.160000 -0.073610 0
12.165000 -0.071731 0
12.170000 -0.069245 0
12.175000 -0.065891 0
12.180000 -0.061334 0
12.185000 -0.055172 0
12.190000 -0.046947 0
12.195000 -0.036180 0
12.200000 -0.022416 0
12.205000 -0.005295 0
12.210000 0.015376 0
12.215000 0.039532 0
12.220000 0.066783 0
12.225000 0.096363 0
12.230000 0.127129 0
12.235000 0.157600 0
12.240000 0.186063 0
12.245000 0.210722 0
12.250000 0.229886 0
12.255000 0.242152 0
12.260000 0.246582 1
12.265000 0.242814 0
12.270000 0.231115 0
12.275000 0.212347 0
12.280000 0.187861 0
12.285000 0.159334 0
12.290000 0.128575 0
12.295000 0.097299 0
12.300000 0.066861 0
12.305000 0.037857 0
12.310000 0.009519 0
12.315000 -0.020894 0
12.320000 -0.057866 0
12.325000 -0.105262 0
12.330000 -0.161514 0
12.335000 -0.214806 0
12.340000 -0.242422 2
12.345000 -0.215732 0
12.350000 -0.107845 0
12.355000 0.097968 0
12.360000 0.395332 0
12.365000 0.737589 0
12.370000 1.033656 0
12.375000 1.178800 3
12.380000 1.109926 0
12.385000 0.849954 0
12.390000 0.492893 0
12.395000 0.145275 0
12.400000 -0.120462 0
12.405000 -0.275773 0
12.410000 -0.324635 4
12.415000 -0.292197 0
12.420000 -0.215294 0
12.425000 -0.129715 0
12.430000 -0.058168 0
12.435000 -0.006917 0
12.440000 0.028607 0
12.445000 0.055877 0
12.450000 0.080557 0
12.455000 0.105588 0
12.460000 0.132028 0
12.465000 0.160003 0
12.470000 0.189245 0
12.475000 0.219304 0
12.480000 0.249625 0
12.485000 0.279572 0
12.490000 0.308456 0
12.495000 0.335555 0
12.500000 0.360148 0
12.505000 0.381540 0
12.510000 0.399098 0
12.515000 0.412280 0
12.520000 0.420663 0
12.525000 0.423962 5
12.530000 0.422047 0
12.535000 0.414951 0
12.540000 0.402867 0
12.545000 0.386140 0
12.550000 0.365249 0
12.555000 0.340783 0
12.560000 0.313416 0
12.565000 0.283871 0
12.570000 0.252891 0
12.575000 0.221209 0
12.580000 0.189514 0
12.585000 0.158437 0
12.590000 0.128524 0
12.595000 0.100225 0
12.600000 0.073894 0
12.605000 0.049777 0
12.610000 0.028028 0
12.615000 0.008706 0
12.620000 -0.008203 0
12.625000 -0.022781 0
12.630000 -0.035162 0
12.635000 -0.045514 0
12.640000 -0.054031 0
12.645000 -0.060917 0
12.650000 -0.066380 0
12.655000 -0.070622 0
12.660000 -0.073831 0
12.665000 -0.076180 0
12.670000 -0.077825 0
12.675000 -0.078900 0
12.680000 -0.079317 0
12.685000 -0.078515 0
12.690000 -0.077717 0
12.695000 -0.076923 0
12.700000 -0.076132 0
12.705000 -0.075346 0
12.710000 -0.074564 0
12.715000 -0.073785 0
12.720000 -0.073009 0
12.725000 -0.072235 0
12.730000 -0.071461 0
12.735000 -0.070684 0
12.740000 -0.069898 0
12.745000 -0.069090 0
12.750000 -0.068243 0
12.755000 -0.067324 0
12.760000 -0.066282 0
12.765000 -0.065039 0
12.770000 -0.063477 0
12.775000 -0.061429 0
12.780000 -0.058664 0
12.785000 -0.054881 0
12.790000 -0.049703 0
12.795000 -0.042687 0
12.800000 -0.033345 0
12.805000 -0.021189 0
12.810000 -0.005785 0
12.815000 0.013158 0
12.820000 0.035709 0
12.825000 0.061629 0
12.830000 0.090302 0
12.835000 0.120711 0
12.840000 0.151461 0
12.845000 0.180865 0
12.850000 0.207081 0
12.855000 0.228302 0
12.860000 0.242956 0
12.865000 0.249900 1
12.870000 0.248565 0
12.875000 0.239030 0
12.880000 0.222019 0
12.885000 0.198803 0
12.890000 0.171046 0
12.895000 0.140600 0
12.900000 0.109276 0
12.905000 0.078576 0
12.910000 0.049299 0
12.915000 0.020945 0
12.920000 -0.008974 0
12.925000 -0.044909 0
12.930000 -0.091138 0
12.935000 -0.146913 0
12.940000 -0.201148 0
12.945000 -0.231174 2
12.950000 -0.207634 0
12.955000 -0.102548 0
12.960000 0.101780 0
12.965000 0.399172 0
12.970000 0.741394 0
12.975000 1.033967 0
12.980000 1.169567 3
12.985000 1.090276 0
12.990000 0.824279 0
12.995000 0.465952 0
13.000000 0.119719 0
13.005000 -0.144185 0
13.010000 -0.298343 0
13.015000 -0.346935 4
13.020000 -0.314765 0
13.025000 -0.238089 0
13.030000 -0.152275 0
13.035000 -0.080046 0
13.040000 -0.027982 0
13.045000 0.008179 0
13.050000 0.035808 0
13.055000 0.060627 0
13.060000 0.085676 0
13.065000 0.112086 0
13.070000 0.140027 0
13.075000 0.169256 0
13.080000 0.199343 0
13.085000 0.229748 0
13.090000 0.259855 0
13.095000 0.288988 0
13.100000 0.316441 0
13.105000 0.341501 0
13.110000 0.363478 0
13.115000 0.381739 0
13.120000 0.395734 0
13.125000 0.405027 0
13.130000 0.409313 5
13.135000 0.408436 0
13.140000 0.402400 0
13.145000 0.391364 0
13.150000 0.375640 0
13.155000 0.355673 0
13.160000 0.332024 0
13.165000 0.305338 0
13.170000 0.276320 0
13.175000 0.245700 0
13.180000 0.214204 0
13.185000 0.182525 0
13.190000 0.151300 0
13.195000 0.121092 0
13.200000 0.092370 0
13.205000 0.065510 0
13.210000 0.040786 0
13.215000 0.018375 0
13.220000 -0.001636 0
13.225000 -0.019240 0
13.230000 -0.034499 0
13.235000 -0.047528 0
13.240000 -0.058483 0
13.245000 -0.067547 0
13.250000 -0.074920 0
13.255000 -0.080806 0
13.260000 -0.085406 0
13.265000 -0.088911 0
13.270000 -0.091499 0
13.275000 -0.093329 0
13.280000 -0.094542 0
13.285000 -0.095261 0
13.290000 -0.094610 0
13.295000 -0.093732 0
13.300000 -0.092858 0
13.305000 -0.091988 0
13.310000 -0.091123 0
13.315000 -0.090262 0
13.320000 -0.089405 0
13.325000 -0.088551 0
13.330000 -0.087701 0
13.335000 -0.086852 0
13.340000 -0.086003 0
13.345000 -0.085148 0
13.350000 -0.084279 0
13.355000 -0.083382 0
13.360000 -0.082433 0
13.365000 -0.081393 0
13.370000 -0.080200 0
13.375000 -0.078761 0
13.380000 -0.076940 0
13.385000 -0.074547 0
13.390000 -0.071326 0
13.395000 -0.066949 0
13.400000 -0.061016 0
13.405000 -0.053071 0
13.410000 -0.042625 0
13.415000 -0.029211 0
13.420000 -0.012447 0
13.425000 0.007885 0
13.430000 0.031750 0
13.435000 0.058786 0
13.440000 0.088248 0
13.445000 0.119004 0
13.450000 0.149572 0
13.455000 0.178221 0
13.460000 0.203130 0
13.465000 0.222568 0
13.470000 0.235098 0
13.475000 0.239749 1
13.480000 0.236139 0
13.485000 0.224528 0
13.490000 0.205789 0
13.495000 0.181293 0
13.500000 0.152746 0
13.505000 0.121985 0
13.510000 0.090746 0
13.515000 0.060389 0
13.520000 0.031473 0
13.525000 0.003133 0
13.530000 -0.027535 0
13.535000 -0.065143 0
13.540000 -0.113394 0
13.545000 -0.170005 0
13.550000 -0.221937 0
13.555000 -0.245253 2
13.560000 -0.210696 0
13.565000 -0.091650 0
13.570000 0.126880 0
13.575000 0.434111 0
13.580000 0.776163 0
13.585000 1.055729 0
13.590000 1.169353 3
13.595000 1.068222 0
13.600000 0.788711 0
13.605000 0.427511 0
13.610000 0.085958 0
13.615000 -0.170232 0
13.620000 -0.316819 0
13.625000 -0.359602 4
13.630000 -0.324012 0
13.635000 -0.246113 0
13.640000 -0.160442 0
13.645000 -0.088782 0
13.650000 -0.037153 0
13.655000 -0.001169 0
13.660000 0.026447 0
13.665000 0.051308 0
13.670000 0.076399 0
13.675000 0.102839 0
13.680000 0.130801 0
13.685000 0.160047 0
13.690000 0.190156 0
13.695000 0.220601 0
13.700000 0.250774 0
13.705000 0.280013 0
13.710000 0.307621 0
13.715000 0.332895 0
13.720000 0.355152 0
13.725000 0.373764 0
13.730000 0.388181 0
13.735000 0.397962 0
13.740000 0.402792 5
13.745000 0.402505 0
13.750000 0.397086 0
13.755000 0.386676 0
13.760000 0.371564 0
13.765000 0.352173 0
13.770000 0.329043 0
13.775000 0.302801 0
13.780000 0.274134 0
13.785000 0.243761 0
13.790000 0.212400 0
13.795000 0.180741 0
13.800000 0.149426 0
13.805000 0.119022 0
13.810000 0.090012 0
13.815000 0.062784 0
13.820000 0.037629 0
13.825000 0.014742 0
13.830000 -0.005773 0
13.835000 -0.023894 0
13.840000 -0.039665 0
13.845000 -0.053188 0
13.850000 -0.064610 0
13.855000 -0.074106 0
13.860000 -0.081869 0
13.865000 -0.088100 0
13.870000 -0.092999 0
13.875000 -0.096758 0
13.880000 -0.099556 0
13.885000 -0.101557 0
13.890000 -0.102904 0
13.895000 -0.103724 0
13.900000 -0.103052 0
13.905000 -0.102132 0
13.910000 -0.101216 0
13.915000 -0.100305 0
13.920000 -0.099398 0
13.925000 -0.098496 0
13.930000 -0.097598 0
13.935000 -0.096704 0
13.940000 -0.095814 0
13.945000 -0.094926 0
13.950000 -0.094038 0
13.955000 -0.093148 0
13.960000 -0.092248 0
13.965000 -0.091327 0
13.970000 -0.090366 0
13.975000 -0.089334 0
13.980000 -0.088180 0
13.985000 -0.086827 0
13.990000 -0.085161 0
13.995000 -0.083021 0
14.000000 -0.080184 0
14.005000 -0.076362 0
14.010000 -0.071191 0
14.015000 -0.064247 0
14.020000 -0.055058 0
14.025000 -0.043147 0
14.030000 -0.028084 0
14.035000 -0.009564 0
14.040000 0.012519 0
14.045000 0.037982 0
14.050000 0.066295 0
14.055000 0.096544 0
14.060000 0.127445 0
14.065000 0.157409 0
14.070000 0.184671 0
14.075000 0.207447 0
14.080000 0.224133 0
14.085000 0.233487 0
14.090000 0.234783 1
14.095000 0.227904 0
14.100000 0.213358 0
14.105000 0.192217 0
14.110000 0.165983 0
14.115000 0.136415 0
14.120000 0.105313 0
14.125000 0.074293 0
14.130000 0.044468 0
14.135000 0.015974 0
14.140000 -0.012691 0
14.145000 -0.045088 0
14.150000 -0.085898 0
14.155000 -0.137480 0
14.160000 -0.194573 0
14.165000 -0.240686 0
14.170000 -0.249828 2
14.175000 -0.193081 0
14.180000 -0.046479 0
14.185000 0.199300 0
14.190000 0.523375 0
14.195000 0.859718 0
14.200000 1.105579 0
14.205000 1.166893 3
14.210000 1.016205 0
14.215000 0.708022 0
14.220000 0.343247 0
14.225000 0.015681 0
14.230000 -0.219342 0
14.235000 -0.345022 0
14.240000 -0.371365 4
14.245000 -0.325881 0
14.250000 -0.244584 0
14.255000 -0.159935 0
14.260000 -0.090933 0
14.265000 -0.041620 0
14.270000 -0.006940 0
14.275000 0.020204 0
14.280000 0.045037 0
14.285000 0.070259 0
14.290000 0.096855 0
14.295000 0.124948 0
14.300000 0.154290 0
14.305000 0.184462 0
14.310000 0.214941 0
14.315000 0.245133 0
14.320000 0.274386 0
14.325000 0.302019 0
14.330000 0.327342 0
14.335000 0.349688 0
14.340000 0.368439 0
14.345000 0.383054 0
14.350000 0.393097 0
14.355000 0.398254 0
14.360000 0.398352 5
14.365000 0.393368 0
14.370000 0.383426 0
14.375000 0.368797 0
14.380000 0.349885 0
14.385000 0.327206 0
14.390000 0.301364 0
14.395000 0.273027 0
14.400000 0.242897 0
14.405000 0.211678 0
14.410000 0.180055 0
14.415000 0.148663 0
14.420000 0.118073 0
14.425000 0.088776 0
14.430000 0.061172 0
14.435000 0.035564 0
14.440000 0.012165 0
14.445000 -0.008902 0
14.450000 -0.027598 0
14.455000 -0.043949 0
14.460000 -0.058044 0
14.465000 -0.070015 0
14.470000 -0.080025 0
14.475000 -0.088260 0
14.480000 -0.094916 0
14.485000 -0.100190 0
14.490000 -0.104274 0
14.495000 -0.107347 0
14.500000 -0.109575 0
14.505000 -0.111106 0
14.510000 -0.112071 0
14.515000 -0.112368 0
14.520000 -0.111401 0
14.525000 -0.110439 0
14.530000 -0.109482 0
14.535000 -0.108529 0
14.540000 -0.107581 0
14.545000 -0.106638 0
14.550000 -0.105699 0
14.555000 -0.104764 0
14.560000 -0.103833 0
14.565000 -0.102903 0
14.570000 -0.101973 0
14.575000 -0.101037 0
14.580000 -0.100088 0
14.585000 -0.099110 0
14.590000 -0.098081 0
14.595000 -0.096962 0
14.600000 -0.095694 0
14.605000 -0.094186 0
14.610000 -0.092309 0
14.615000 -0.089882 0
14.620000 -0.086662 0
14.625000 -0.082338 0
14.630000 -0.076531 0
14.635000 -0.068803 0
14.640000 -0.058687 0
14.645000 -0.045723 0
14.650000 -0.029525 0
14.655000 -0.009846 0
14.660000 0.013335 0
14.665000 0.039742 0
14.670000 0.068746 0
14.675000 0.099345 0
14.680000 0.130191 0
14.685000 0.159669 0
14.690000 0.186028 0
14.695000 0.207546 0
14.700000 0.222720 0
14.705000 0.230433 1
14.710000 0.230096 0
14.715000 0.221719 0
14.720000 0.205911 0
14.725000 0.183810 0
14.730000 0.156945 0
14.735000 0.127058 0
14.740000 0.095904 0
14.745000 0.065015 0
14.750000 0.035393 0
14.755000 0.007019 0
14.760000 -0.021785 0
14.765000 -0.054689 0
14.770000 -0.096262 0
14.775000 -0.148446 0
14.780000 -0.205445 0
14.785000 -0.250490 0
14.790000 -0.257824 2
14.795000 -0.199148 0
14.800000 -0.051190 0
14.805000 0.194932 0
14.810000 0.518685 0
14.815000 0.855726 0
14.820000 1.105659 0
14.825000 1.175158 3
14.830000 1.035006 0
14.835000 0.734713 0
14.840000 0.370603 0
14.845000 0.035781 0
14.850000 -0.211991 0
14.855000 -0.352593 0
14.860000 -0.392777 4
14.865000 -0.357045 0
14.870000 -0.279610 0
14.875000 -0.193453 0
14.880000 -0.120053 0
14.885000 -0.066196 0
14.890000 -0.028394 0
14.895000 0.000239 0
14.900000 0.025421 0
14.905000 0.050416 0
14.910000 0.076582 0
14.915000 0.104234 0
14.920000 0.133222 0
14.925000 0.163189 0
14.930000 0.193663 0
14.935000 0.224093 0
14.940000 0.253871 0
14.945000 0.282346 0
14.950000 0.308854 0
14.955000 0.332736 0
14.960000 0.353368 0
14.965000 0.370189 0
14.970000 0.382722 0
14.975000 0.390600 0
14.980000 0.393580 5
14.985000 0.391558 0
14.990000 0.384572 0
14.995000 0.372802 0
15.000000 0.356562 0
15.005000 0.336283 0
15.010000 0.312499 0
15.015000 0.285818 0
15.020000 0.256898 0
15.025000 0.226423 0
15.030000 0.195070 0
15.035000 0.163489 0
15.040000 0.132282 0
15.045000 0.101983 0
15.050000 0.073047 0
15.055000 0.045841 0
15.060000 0.020645 0
15.065000 -0.002353 0
15.070000 -0.023048 0
15.075000 -0.041409 0
15.080000 -0.057471 0
15.085000 -0.071324 0
15.090000 -0.083098 0
15.095000 -0.092954 0
15.100000 -0.101073 0
15.105000 -0.107644 0
15.110000 -0.112857 0
15.115000 -0.116898 0
15.120000 -0.119941 0
15.125000 -0.122146 0
15.130000 -0.123658 0
15.135000 -0.124604 0
15.140000 -0.124873 0
15.145000 -0.123844 0
15.150000 -0.122820 0
15.155000 -0.121801 0
15.160000 -0.120787 0
15.165000 -0.119778 0
15.170000 -0.118774 0
15.175000 -0.117775 0
15.180000 -0.116780 0
15.185000 -0.115789 0
15.190000 -0.114801 0
15.195000 -0.113813 0
15.200000 -0.112822 0
15.205000 -0.111821 0
15.210000 -0.110799 0
15.215000 -0.109735 0
15.220000 -0.108599 0
15.225000 -0.107342 0
15.230000 -0.105890 0
15.235000 -0.104135 0
15.240000 -0.101923 0
15.245000 -0.099048 0
15.250000 -0.095241 0
15.255000 -0.090164 0
15.260000 -0.083422 0
15.265000 -0.074574 0
15.270000 -0.063164 0
15.275000 -0.048774 0
15.280000 -0.031079 0
15.285000 -0.009924 0
15.290000 0.014604 0
15.295000 0.042110 0
15.300000 0.071852 0
15.305000 0.102738 0
15.310000 0.133366 0
15.315000 0.162118 0
15.320000 0.187289 0
15.325000 0.207260 0
15.330000 0.220662 0
15.335000 0.226533 1
15.340000 0.224439 0
15.345000 0.214517 0
15.350000 0.197469 0
15.355000 0.174477 0
15.360000 0.147067 0
15.365000 0.116939 0
15.370000 0.085773 0
15.375000 0.055012 0
15.380000 0.025550 0
15.385000 -0.002736 0
15.390000 -0.031595 0
15.395000 -0.064658 0
15.400000 -0.106342 0
15.405000 -0.158469 0
15.410000 -0.215465 0
15.415000 -0.261313 0
15.420000 -0.271311 2
15.425000 -0.218034 0
15.430000 -0.078378 0
15.435000 0.157978 0
15.440000 0.474975 0
15.445000 0.815749 0
15.450000 1.086135 0
15.455000 1.190970 3
15.460000 1.086051 0
15.465000 0.806923 0
15.470000 0.446254 0
15.475000 0.101731 0
15.480000 -0.161742 0
15.485000 -0.318554 0
15.490000 -0.372140 4
15.495000 -0.345129 0
15.500000 -0.271314 0
15.505000 -0.184870 0
15.510000 -0.109360 0
15.515000 -0.053346 0
15.520000 -0.014165 0
15.525000 0.015047 0
15.530000 0.040304 0
15.535000 0.065150 0
15.540000 0.091101 0
15.545000 0.118544 0
15.550000 0.147355 0
15.555000 0.177182 0
15.560000 0.207557 0
15.565000 0.237928 0
15.570000 0.267684 0
15.575000 0.296168 0
15.580000 0.322710 0
15.585000 0.346642 0
15.590000 0.367332 0
15.595000 0.384210 0
15.600000 0.396791 0
15.605000 0.404699 0
15.610000 0.407688 5
15.615000 0.405649 0
15.620000 0.398619 0
15.625000 0.386779 0
15.630000 0.370446 0
15.635000 0.350057 0
15.640000 0.326151 0
15.645000 0.299345 0
15.650000 0.270304 0
15.655000 0.239719 0
15.660000 0.208274 0
15.665000 0.176625 0
15.670000 0.145377 0
15.675000 0.115067 0
15.680000 0.086149 0
15.685000 0.058991 0
15.690000 0.033867 0
15.695000 0.010964 0
15.700000 -0.009619 0
15.705000 -0.027857 0
15.710000 -0.043790 0
15.715000 -0.057512 0
15.720000 -0.069160 0
15.725000 -0.078897 0
15.730000 -0.086908 0
15.735000 -0.093385 0
15.740000 -0.098519 0
15.745000 -0.102497 0
15.750000 -0.105493 0
15.755000 -0.107668 0
15.760000 -0.109165 0
15.765000 -0.110110 0
15.770000 -0.110399 0
15.775000 -0.109442 0
15.780000 -0.108489 0
15.785000 -0.107542 0
15.790000 -0.106599 0
15.795000 -0.105661 0
15.800000 -0.104727 0
15.805000 -0.103798 0
15.810000 -0.102873 0
15.815000 -0.101951 0
15.820000 -0.101031 0
15.825000 -0.100110 0
15.830000 -0.099185 0
15.835000 -0.098248 0
15.840000 -0.097284 0
15.845000 -0.096273 0
15.850000 -0.095179 0
15.855000 -0.093948 0
15.860000 -0.092497 0
15.865000 -0.090705 0
15.870000 -0.088407 0
15.875000 -0.085376 0
15.880000 -0.081323 0
15.885000 -0.075889 0
15.890000 -0.068660 0
15.895000 -0.059182 0
15.900000 -0.047000 0
15.905000 -0.031711 0
15.910000 -0.013030 0
15.915000 0.009132 0
15.920000 0.034597 0
15.925000 0.062859 0
15.930000 0.093053 0
15.935000 0.123966 0
15.940000 0.154097 0
15.945000 0.181763 0
15.950000 0.205253 0
15.955000 0.222997 0
15.960000 0.233741 0
15.965000 0.236693 1
15.970000 0.231620 0
15.975000 0.218878 0
15.980000 0.199368 0
15.985000 0.174435 0
15.990000 0.145711 0
15.995000 0.114929 0
16.000000 0.083723 0
16.005000 0.053374 0
16.010000 0.024435 0
16.015000 -0.003821 0
16.020000 -0.033971 0
16.025000 -0.070278 0
16.030000 -0.116630 0
16.035000 -0.172215 0
16.040000 -0.226917 0
16.045000 -0.260127 2
16.050000 -0.244780 0
16.055000 -0.154257 0
16.060000 0.030160 0
16.065000 0.308557 0
16.070000 0.646590 0
16.075000 0.966520 0
16.080000 1.166319 0
16.085000 1.169138 3
16.090000 0.969974 0
16.095000 0.638020 0
16.100000 0.274469 0
16.105000 -0.036486 0
16.110000 -0.249845 0
16.115000 -0.355485 0
16.120000 -0.366959 4
16.125000 -0.313219 0
16.130000 -0.229620 0
16.135000 -0.146304 0
16.140000 -0.079702 0
16.145000 -0.032287 0
16.150000 0.001383 0
16.155000 0.028158 0
16.160000 0.052924 0
16.165000 0.078168 0
16.170000 0.104785 0
16.175000 0.132875 0
16.180000 0.162189 0
16.185000 0.192319 0
16.190000 0.222757 0
16.195000 0.252924 0
16.200000 0.282190 0
16.205000 0.309891 0
16.210000 0.335358 0
16.215000 0.357937 0
16.220000 0.377023 0
16.225000 0.392083 0
16.230000 0.402677 0
16.235000 0.408487 0
16.240000 0.409322 5
16.245000 0.405138 0
16.250000 0.396033 0
16.255000 0.382246 0
16.260000 0.364144 0
16.265000 0.342209 0
16.270000 0.317012 0
16.275000 0.289192 0
16.280000 0.259425 0
16.285000 0.228399 0
16.290000 0.196787 0
16.295000 0.165224 0
16.300000 0.134287 0
16.305000 0.104479 0
16.310000 0.076219 0
16.315000 0.049834 0
16.320000 0.025565 0
16.325000 0.003559 0
16.330000 -0.016111 0
16.335000 -0.033450 0
16.340000 -0.048519 0
16.345000 -0.061430 0
16.350000 -0.072330 0
16.355000 -0.081392 0
16.360000 -0.088803 0
16.365000 -0.094756 0
16.370000 -0.099440 0
16.375000 -0.103036 0
16.380000 -0.105714 0
16.385000 -0.107627 0
16.390000 -0.108911 0
16.395000 -0.109686 0
16.400000 -0.108983 0
16.405000 -0.108033 0
16.410000 -0.107088 0
16.415000 -0.106147 0
16.420000 -0.105212 0
16.425000 -0.104280 0
16.430000 -0.103353 0
16.435000 -0.102431 0
16.440000 -0.101512 0
16.445000 -0.100596 0
16.450000 -0.099682 0
16.455000 -0.098765 0
16.460000 -0.097842 0
16.465000 -0.096903 0
16.470000 -0.095932 0
16.475000 -0.094903 0
16.480000 -0.093776 0
16.485000 -0.092489 0
16.490000 -0.090947 0
16.495000 -0.089018 0
16.500000 -0.086517 0
16.505000 -0.083200 0
16.510000 -0.078756 0
16.515000 -0.072809 0
16.520000 -0.064931 0
16.525000 -0.054665 0
16.530000 -0.041568 0
16.535000 -0.025266 0
16.540000 -0.005529 0
16.545000 0.017660 0
16.550000 0.044029 0
16.555000 0.072969 0
16.560000 0.103511 0
16.565000 0.134354 0
16.570000 0.163935 0
16.575000 0.190555 0
16.580000 0.212531 0
16.585000 0.228373 0
16.590000 0.236952 0
16.595000 0.237629 1
16.600000 0.230338 0
16.605000 0.215593 0
16.610000 0.194429 0
16.615000 0.168279 0
16.620000 0.138817 0
16.625000 0.107763 0
16.630000 0.076676 0
16.635000 0.046683 0
16.640000 0.018058 0
16.645000 -0.010367 0
16.650000 -0.041670 0
16.655000 -0.080297 0
16.660000 -0.129395 0
16.665000 -0.186156 0
16.670000 -0.237756 0
16.675000 -0.261494 2
16.680000 -0.229852 0
16.685000 -0.117528 0
16.690000 0.090787 0
16.695000 0.388362 0
16.700000 0.730648 0
16.705000 1.031319 0
16.710000 1.189572 3
16.715000 1.140134 0
16.720000 0.897304 0
16.725000 0.546398 0
16.730000 0.191344 0
16.735000 -0.091964 0
16.740000 -0.269458 0
16.745000 -0.339895 4
16.750000 -0.323712 0
16.755000 -0.254535 0
16.760000 -0.168257 0
16.765000 -0.090979 0
16.770000 -0.033202 0
16.775000 0.006987 0
16.780000 0.036535 0
16.785000 0.061777 0
16.790000 0.086493 0
16.795000 0.112308 0
16.800000 0.139639 0
16.805000 0.168359 0
16.810000 0.198106 0
16.815000 0.228394 0
16.820000 0.258651 0
16.825000 0.288243 0
16.830000 0.316493 0
16.835000 0.342706 0
16.840000 0.366199 0
16.845000 0.386326 0
16.850000 0.402507 0
16.855000 0.414259 0
16.860000 0.421216 0
16.865000 0.423146 5
16.870000 0.419968 0
16.875000 0.411751 0
16.880000 0.398713 0
16.885000 0.381212 0
16.890000 0.359728 0
16.895000 0.334841 0
16.900000 0.307203 0
16.905000 0.277512 0
16.910000 0.246479 0
16.915000 0.214803 0
16.920000 0.183144 0
16.925000 0.152102 0
16.930000 0.122199 0
16.935000 0.093870 0
16.940000 0.067454 0
16.945000 0.043194 0
16.950000 0.021244 0
16.955000 0.001668 0
16.960000 -0.015539 0
16.965000 -0.030448 0
16.970000 -0.043179 0
16.975000 -0.053888 0
16.980000 -0.062758 0
16.985000 -0.069983 0
16.990000 -0.075763 0
16.995000 -0.080291 0
17.000000 -0.083753 0
17.005000 -0.086321 0
17.010000 -0.088149 0
17.015000 -0.089373 0
17.020000 -0.090111 0
17.025000 -0.089485 0
17.030000 -0.088632 0
17.035000 -0.087784 0
17.040000 -0.086940 0
17.045000 -0.086099 0
17.050000 -0.085263 0
17.055000 -0.084431 0
17.060000 -0.083603 0
17.065000 -0.082777 0
17.070000 -0.081953 0
17.075000 -0.081129 0
17.080000 -0.080300 0
17.085000 -0.079460 0
17.090000 -0.078594 0
17.095000 -0.077683 0
17.100000 -0.076691 0
17.105000 -0.075563 0
17.110000 -0.074218 0
17.115000 -0.072532 0
17.120000 -0.070337 0
17.125000 -0.067401 0
17.130000 -0.063424 0
17.135000 -0.058038 0
17.140000 -0.050813 0
17.145000 -0.041280 0
17.150000 -0.028973 0
17.155000 -0.013481 0
17.160000 0.005474 0
17.165000 0.027960 0
17.170000 0.053755 0
17.175000 0.082291 0
17.180000 0.112620 0
17.185000 0.143438 0
17.190000 0.173155 0
17.195000 0.200017 0
17.200000 0.222276 0
17.205000 0.238372 0
17.210000 0.247115 0
17.215000 0.247829 1
17.220000 0.240436 0
17.225000 0.225473 0
17.230000 0.204020 0
17.235000 0.177575 0
17.240000 0.147876 0
17.245000 0.116700 0
17.250000 0.085631 0
17.255000 0.055758 0
17.260000 0.027209 0
17.265000 -0.001498 0
17.270000 -0.033863 0
17.275000 -0.074511 0
17.280000 -0.125872 0
17.285000 -0.183041 0
17.290000 -0.230139 0
17.295000 -0.241805 2
17.300000 -0.189472 0
17.305000 -0.049011 0
17.310000 0.190078 0
17.315000 0.509873 0
17.320000 0.848797 0
17.325000 1.107209 0
17.330000 1.189002 3
17.335000 1.056244 0
17.340000 0.756636 0
17.345000 0.392301 0
17.350000 0.061499 0
17.355000 -0.176780 0
17.360000 -0.304165 0
17.365000 -0.330621 4
17.370000 -0.284484 0
17.375000 -0.202866 0
17.380000 -0.118868 0
17.385000 -0.051296 0
17.390000 -0.003535 0
17.395000 0.029994 0
17.400000 0.056521 0
17.405000 0.081137 0
17.410000 0.106357 0
17.415000 0.133029 0
17.420000 0.161199 0
17.425000 0.190575 0
17.430000 0.220701 0
17.435000 0.251022 0
17.440000 0.280911 0
17.445000 0.309687 0
17.450000 0.336642 0
17.455000 0.361070 0
17.460000 0.382293 0
17.465000 0.399695 0
17.470000 0.412749 0
17.475000 0.421042 0
17.480000 0.424298 5
17.485000 0.422394 0
17.490000 0.415359 0
17.495000 0.403383 0
17.500000 0.386799 0
17.505000 0.366074 0
17.510000 0.341782 0
17.515000 0.314578 0
17.520000 0.285170 0
17.525000 0.254286 0
17.530000 0.222646 0
17.535000 0.190931 0
17.540000 0.159766 0
17.545000 0.129694 0
17.550000 0.101172 0
17.555000 0.074556 0
17.560000 0.050104 0
17.565000 0.027978 0
17.570000 0.008254 0
17.575000 -0.009074 0
17.580000 -0.024075 0
17.585000 -0.036870 0
17.590000 -0.047618 0
17.595000 -0.056506 0
17.600000 -0.063733 0
17.605000 -0.069503 0
17.610000 -0.074014 0
17.615000 -0.077456 0
17.620000 -0.080002 0
17.625000 -0.081810 0
17.630000 -0.083018 0
17.635000 -0.083745 0
17.640000 -0.083144 0
17.645000 -0.082323 0
17.650000 -0.081506 0
17.655000 -0.080693 0
17.660000 -0.079884 0
17.665000 -0.079079 0
17.670000 -0.078278 0
17.675000 -0.077480 0
17.680000 -0.076684 0
17.685000 -0.075890 0
17.690000 -0.075095 0
17.695000 -0.074293 0
17.700000 -0.073476 0
17.705000 -0.072630 0
17.710000 -0.071729 0
17.715000 -0.070732 0
17.720000 -0.069577 0
17.725000 -0.068168 0
17.730000 -0.066366 0
17.735000 -0.063978 0
17.740000 -0.060743 0
17.745000 -0.056331 0
17.750000 -0.050340 0
17.755000 -0.042312 0
17.760000 -0.031761 0
17.765000 -0.018224 0
17.770000 -0.001329 0
17.775000 0.019132 0
17.780000 0.043107 0
17.785000 0.070220 0
17.790000 0.099714 0
17.795000 0.130442 0
17.800000 0.160918 0
17.805000 0.189415 0
17.810000 0.214116 0
17.815000 0.233307 0
17.820000 0.245569 0
17.825000 0.249950 1
17.830000 0.246089 0
17.835000 0.234260 0
17.840000 0.215342 0
17.845000 0.190711 0
17.850000 0.162068 0
17.855000 0.131241 0
17.860000 0.099957 0
17.865000 0.069563 0
17.870000 0.040609 0
17.875000 0.012222 0
17.880000 -0.018496 0
17.885000 -0.056138 0
17.890000 -0.104396 0
17.895000 -0.161030 0
17.900000 -0.213131 0
17.905000 -0.236940 2
17.910000 -0.203346 0
17.915000 -0.085769 0
17.920000 0.130985 0
17.925000 0.436793 0
17.930000 0.778972 0
17.935000 1.061342 0
17.940000 1.180336 3
17.945000 1.083921 0
17.950000 0.806460 0
17.955000 0.445457 0
17.960000 0.103858 0
17.965000 -0.151634 0
17.970000 -0.296664 0
17.975000 -0.337463 4
17.980000 -0.300178 0
17.985000 -0.221541 0
17.990000 -0.136273 0
17.995000 -0.065745 0
18.000000 -0.015339 0
18.005000 0.019762 0
18.010000 0.046919 0
18.015000 0.071629 0
18.020000 0.096726 0
18.025000 0.123228 0
18.030000 0.151253 0
18.035000 0.180534 0
18.040000 0.210629 0
18.045000 0.240991 0
18.050000 0.270995 0
18.055000 0.299964 0
18.060000 0.327187 0
18.065000 0.351951 0
18.070000 0.373571 0
18.075000 0.391418 0
18.080000 0.404953 0
18.085000 0.413749 0
18.090000 0.417515 5
18.095000 0.416109 0
18.100000 0.409550 0
18.105000 0.398012 0
18.110000 0.381821 0
18.115000 0.361435 0
18.120000 0.337423 0
18.125000 0.310440 0
18.130000 0.281195 0
18.135000 0.250418 0
18.140000 0.218835 0
18.145000 0.187135 0
18.150000 0.155949 0
18.155000 0.125831 0
18.160000 0.097243 0
18.165000 0.070549 0
18.170000 0.046015 0
18.175000 0.023808 0
18.180000 0.004007 0
18.185000 -0.013390 0
18.190000 -0.028450 0
18.195000 -0.041293 0
18.200000 -0.052079 0
18.205000 -0.060993 0
18.210000 -0.068237 0
18.215000 -0.074014 0
18.220000 -0.078525 0
18.225000 -0.081961 0
18.230000 -0.084497 0
18.235000 -0.086290 0
18.240000 -0.087480 0
18.245000 -0.088187 0
18.250000 -0.087565 0
18.255000 -0.086722 0
18.260000 -0.085883 0
18.265000 -0.085048 0
18.270000 -0.084217 0
18.275000 -0.083391 0
18.280000 -0.082568 0
18.285000 -0.081748 0
18.290000 -0.080932 0
18.295000 -0.080116 0
18.300000 -0.079299 0
18.305000 -0.078476 0
18.310000 -0.077638 0
18.315000 -0.076769 0
18.320000 -0.075845 0
18.325000 -0.074823 0
18.330000 -0.073639 0
18.335000 -0.072195 0
18.340000 -0.070350 0
18.345000 -0.067905 0
18.350000 -0.064597 0
18.355000 -0.060088 0
18.360000 -0.053970 0
18.365000 -0.045780 0
18.370000 -0.035031 0
18.375000 -0.021260 0
18.380000 -0.004099 0
18.385000 0.016641 0
18.390000 0.040892 0
18.395000 0.068244 0
18.400000 0.097906 0
18.405000 0.128696 0
18.410000 0.159093 0
18.415000 0.187346 0
18.420000 0.211630 0
18.425000 0.230241 0
18.430000 0.241789 0
18.435000 0.245370 1
18.440000 0.240685 0
18.445000 0.228075 0
18.450000 0.208484 0
18.455000 0.183337 0
18.460000 0.154373 0
18.465000 0.123429 0
18.470000 0.092213 0
18.475000 0.062008 0
18.480000 0.033229 0
18.485000 0.004768 0
18.490000 -0.026561 0
18.495000 -0.065467 0
18.500000 -0.115188 0
18.505000 -0.172220 0
18.510000 -0.221924 0
18.515000 -0.239204 2
18.520000 -0.194662 0
18.525000 -0.062642 0
18.530000 0.169358 0
18.535000 0.485599 0
18.540000 0.825521 0
18.545000 1.087797 0
18.550000 1.172743 3
18.555000 1.040836 0
18.560000 0.740653 0
18.565000 0.376294 0
18.570000 0.047390 0
18.575000 -0.187066 0
18.580000 -0.309544 0
18.585000 -0.331201 4
18.590000 -0.281666 0
18.595000 -0.198887 0
18.600000 -0.115773 0
18.605000 -0.050084 0
18.610000 -0.004096 0
18.615000 0.028336 0
18.620000 0.054443 0
18.625000 0.079070 0
18.630000 0.104497 0
18.635000 0.131434 0
18.640000 0.159854 0
18.645000 0.189424 0
18.650000 0.219660 0
18.655000 0.249983 0
18.660000 0.279740 0
18.665000 0.308230 0
18.670000 0.334728 0
18.675000 0.358519 0
18.680000 0.378924 0
18.685000 0.395331 0
18.690000 0.407232 0
18.695000 0.414240 0
18.700000 0.416114 5
18.705000 0.412769 0
18.710000 0.404283 0
18.715000 0.390894 0
18.720000 0.372985 0
18.725000 0.351069 0
18.730000 0.325761 0
18.735000 0.297751 0
18.740000 0.267770 0
18.745000 0.236560 0
18.750000 0.204845 0
18.755000 0.173300 0
18.760000 0.142531 0
18.765000 0.113060 0
18.770000 0.085310 0
18.775000 0.059604 0
18.780000 0.036163 0
18.785000 0.015113 0
18.790000 -0.003507 0
18.795000 -0.019733 0
18.800000 -0.033661 0
18.805000 -0.045435 0
18.810000 -0.055233 0
18.815000 -0.063251 0
18.820000 -0.069696 0
18.825000 -0.074774 0
18.830000 -0.078684 0
18.835000 -0.081609 0
18.840000 -0.083720 0
18.845000 -0.085165 0
18.850000 -0.086073 0
18.855000 -0.085489 0
18.860000 -0.084656 0
18.865000 -0.083827 0
18.870000 -0.083003 0
18.875000 -0.082182 0
18.880000 -0.081366 0
18.885000 -0.080553 0
18.890000 -0.079744 0
18.895000 -0.078938 0
18.900000 -0.078134 0
18.905000 -0.077329 0
18.910000 -0.076520 0
18.915000 -0.075700 0
18.920000 -0.074854 0
18.925000 -0.073962 0
18.930000 -0.072988 0
18.935000 -0.071873 0
18.940000 -0.070531 0
18.945000 -0.068833 0
18.950000 -0.066595 0
18.955000 -0.063571 0
18.960000 -0.059439 0
18.965000 -0.053805 0
18.970000 -0.046212 0
18.975000 -0.036168 0
18.980000 -0.023191 0
18.985000 -0.006879 0
18.990000 0.013014 0
18.995000 0.036485 0
19.000000 0.063204 0
19.005000 0.092455 0
19.010000 0.123122 0
19.015000 0.153728 0
19.020000 0.182532 0
19.025000 0.207685 0
19.030000 0.227421 0
19.035000 0.240261 0
19.040000 0.245193 1
19.045000 0.241809 0
19.050000 0.230350 0
19.055000 0.211688 0
19.060000 0.187207 0
19.065000 0.158636 0
19.070000 0.127838 0
19.075000 0.096573 0
19.080000 0.066211 0
19.085000 0.037298 0
19.090000 0.008903 0
19.095000 -0.021999 0
19.100000 -0.060117 0
19.105000 -0.109033 0
19.110000 -0.165896 0
19.115000 -0.216698 0
19.120000 -0.236524 2
19.125000 -0.195612 0
19.130000 -0.067594 0
19.135000 0.160988 0
19.140000 0.475455 0
19.145000 0.815776 0
19.150000 1.079860 0
19.155000 1.166307 3
19.160000 1.037771 0
19.165000 0.741645 0
19.170000 0.377836 0
19.175000 0.044073 0
19.180000 -0.199664 0
19.185000 -0.333522 0
19.190000 -0.365960 4
19.195000 -0.323911 0
19.200000 -0.243678 0
19.205000 -0.158674 0
19.210000 -0.088912 0
19.215000 -0.039024 0
19.220000 -0.004076 0
19.225000 0.023137 0
19.230000 0.047962 0
19.235000 0.073165 0
19.240000 0.099752 0
19.245000 0.127845 0
19.250000 0.157193 0
19.255000 0.187368 0
19.260000 0.217838 0
19.265000 0.247997 0
19.270000 0.277183 0
19.275000 0.304704 0
19.280000 0.329862 0
19.285000 0.351981 0
19.290000 0.370439 0
19.295000 0.384695 0
19.300000 0.394315 0
19.305000 0.398993 5
19.310000 0.398568 0
19.315000 0.393029 0
19.320000 0.382522 0
19.325000 0.367336 0
19.330000 0.347897 0
19.335000 0.324739 0
19.340000 0.298488 0
19.345000 0.269828 0
19.350000 0.239470 0
19.355000 0.208130 0
19.360000 0.176493 0
19.365000 0.145196 0
19.370000 0.114802 0
19.375000 0.085794 0
19.380000 0.058557 0
19.385000 0.033382 0
19.390000 0.010464 0
19.395000 -0.010091 0
19.400000 -0.028259 0
19.405000 -0.044083 0
19.410000 -0.057663 0
19.415000 -0.069141 0
19.420000 -0.078692 0
19.425000 -0.086507 0
19.430000 -0.092785 0
19.435000 -0.097726 0
19.440000 -0.101521 0
19.445000 -0.104348 0
19.450000 -0.106370 0
19.455000 -0.107733 0
19.460000 -0.108562 0
19.465000 -0.108770 0
19.470000 -0.107821 0
19.475000 -0.106877 0
19.480000 -0.105937 0
19.485000 -0.105003 0
19.490000 -0.104072 0
19.495000 -0.103146 0
19.500000 -0.102225 0
19.505000 -0.101307 0
19.510000 -0.100392 0
19.515000 -0.099478 0
19.520000 -0.098561 0
19.525000 -0.097636 0
19.530000 -0.096692 0
19.535000 -0.095712 0
19.540000 -0.094665 0
19.545000 -0.093504 0
19.550000 -0.092157 0
19.555000 -0.090516 0
19.560000 -0.088428 0
19.565000 -0.085681 0
19.570000 -0.081997 0
19.575000 -0.077028 0
19.580000 -0.070358 0
19.585000 -0.061525 0
19.590000 -0.050052 0
19.595000 -0.035501 0
19.600000 -0.017543 0
19.605000 0.003966 0
19.610000 0.028897 0
19.615000 0.056787 0
19.620000 0.086796 0
19.625000 0.117710 0
19.630000 0.147999 0
19.635000 0.175930 0
19.640000 0.199721 0
19.645000 0.217730 0
19.650000 0.228639 0
19.655000 0.231615 1
19.660000 0.226416 0
19.665000 0.213421 0
19.670000 0.193586 0
19.675000 0.168327 0
19.680000 0.139353 0
19.685000 0.108461 0
19.690000 0.077320 0
19.695000 0.047183 0
19.700000 0.018463 0
19.705000 -0.009895 0
19.710000 -0.040954 0
19.715000 -0.079308 0
19.720000 -0.128317 0
19.725000 -0.185102 0
19.730000 -0.236149 0
19.735000 -0.257541 2
19.740000 -0.220552 0
19.745000 -0.099320 0
19.750000 0.120485 0
19.755000 0.427926 0
19.760000 0.770147 0
19.765000 1.052013 0
19.770000 1.171614 3
19.775000 1.078741 0
19.780000 0.805917 0
19.785000 0.446426 0
19.790000 0.100907 0
19.795000 -0.163268 0
19.800000 -0.319527 0
19.805000 -0.371475 4
19.810000 -0.342560 0
19.815000 -0.267583 0
19.820000 -0.181283 0
19.825000 -0.106986 0
19.830000 -0.052510 0
19.835000 -0.014535 0
19.840000 0.014040 0
19.845000 0.039135 0
19.850000 0.064096 0
19.855000 0.090277 0
19.860000 0.117974 0
19.865000 0.147011 0
19.870000 0.177003 0
19.875000 0.207452 0
19.880000 0.237779 0
19.885000 0.267346 0
19.890000 0.295476 0
19.895000 0.321477 0
19.900000 0.344673 0
19.905000 0.364429 0
19.910000 0.380180 0
19.915000 0.391459 0
19.920000 0.397918 0
19.925000 0.399347 5
19.930000 0.395680 0
19.935000 0.387005 0
19.940000 0.373557 0
19.945000 0.355705 0
19.950000 0.333941 0
19.955000 0.308848 0
19.960000 0.281083 0
19.965000 0.251341 0
19.970000 0.220330 0
19.975000 0.188744 0
19.980000 0.157233 0
19.985000 0.126388 0
19.990000 0.096720 0
19.995000 0.068654 0
20.000000 0.042518 0
20.005000 0.018549 0
20.010000 -0.003110 0
20.015000 -0.022399 0
20.020000 -0.039329 0
20.025000 -0.053975 0
20.030000 -0.066458 0
20.035000 -0.076937 0
20.040000 -0.085593 0
20.045000 -0.092620 0
20.050000 -0.098216 0
20.055000 -0.102576 0
20.060000 -0.105881 0
20.065000 -0.108303 0
20.070000 -0.109994 0
20.075000 -0.111087 0
20.080000 -0.111701 0
20.085000 -0.110966 0
20.090000 -0.110006 0
20.095000 -0.109051 0
20.100000 -0.108101 0
20.105000 -0.107155 0
20.110000 -0.106214 0
20.115000 -0.105277 0
20.120000 -0.104345 0
20.125000 -0.103416 0
20.130000 -0.102489 0
20.135000 -0.101562 0
20.140000 -0.100632 0
20.145000 -0.099689 0
20.150000 -0.098723 0
20.155000 -0.097712 0
20.160000 -0.096620 0
20.165000 -0.095395 0
20.170000 -0.093954 0
20.175000 -0.092177 0
20.180000 -0.089895 0
20.185000 -0.086880 0
20.190000 -0.082835 0
20.195000 -0.077396 0
20.200000 -0.070135 0
20.205000 -0.060589 0
20.210000 -0.048291 0
20.215000 -0.032830 0
20.220000 -0.013924 0
20.225000 0.008505 0
20.230000 0.034250 0
20.235000 0.062763 0
20.240000 0.093119 0
20.245000 0.124039 0
20.250000 0.153952 0
20.255000 0.181122 0
20.260000 0.203802 0
20.265000 0.220425 0
20.270000 0.229778 0
20.275000 0.231151 1
20.280000 0.224425 0
20.285000 0.210088 0
20.290000 0.189179 0
20.295000 0.163160 0
20.300000 0.133749 0
20.305000 0.102717 0
20.310000 0.071668 0
20.315000 0.041744 0
20.320000 0.013187 0
20.325000 -0.015298 0
20.330000 -0.047003 0
20.335000 -0.086522 0
20.340000 -0.136724 0
20.345000 -0.193744 0
20.350000 -0.243013 0
20.355000 -0.260105 2
20.360000 -0.216587 0
20.365000 -0.087536 0
20.370000 0.139767 0
20.375000 0.451932 0
20.380000 0.793525 0
20.385000 1.068688 0
20.390000 1.178027 3
20.395000 1.076575 0
20.400000 0.799731 0
20.405000 0.439625 0
20.410000 0.094256 0
20.415000 -0.170797 0
20.420000 -0.329341 0
20.425000 -0.384426 4
20.430000 -0.358423 0
20.435000 -0.285024 0
20.440000 -0.198496 0
20.445000 -0.122637 0
20.450000 -0.066243 0
20.455000 -0.026778 0
20.460000 0.002603 0
20.465000 0.027950 0
20.470000 0.052846 0
20.475000 0.078833 0
20.480000 0.106311 0
20.485000 0.135160 0
20.490000 0.165032 0
20.495000 0.195461 0
20.500000 0.225895 0
20.505000 0.255723 0
20.510000 0.284291 0
20.515000 0.310927 0
20.520000 0.334963 0
20.525000 0.355767 0
20.530000 0.372766 0
20.535000 0.385475 0
20.540000 0.393517 0
20.545000 0.396642 5
20.550000 0.394739 0
20.555000 0.387843 0
20.560000 0.376133 0
20.565000 0.359923 0
20.570000 0.339649 0
20.575000 0.315849 0
20.580000 0.289137 0
20.585000 0.260180 0
20.590000 0.229667 0
20.595000 0.198283 0
20.600000 0.166685 0
20.605000 0.135478 0
20.610000 0.105201 0
20.615000 0.076309 0
20.620000 0.049172 0
20.625000 0.024066 0
20.630000 0.001176 0
20.635000 -0.019393 0
20.640000 -0.037618 0
20.645000 -0.053536 0
20.650000 -0.067243 0
20.655000 -0.078872 0
20.660000 -0.088589 0
20.665000 -0.096577 0
20.670000 -0.103027 0
20.675000 -0.108132 0
20.680000 -0.112079 0
20.685000 -0.115041 0
20.690000 -0.117180 0
20.695000 -0.118639 0
20.700000 -0.119544 0
20.705000 -0.119791 0
20.710000 -0.118788 0
20.715000 -0.117789 0
20.720000 -0.116795 0
20.725000 -0.115806 0
20.730000 -0.114822 0
20.735000 -0.113843 0
20.740000 -0.112868 0
20.745000 -0.111897 0
20.750000 -0.110930 0
20.755000 -0.109966 0
20.760000 -0.109001 0
20.765000 -0.108031 0
20.770000 -0.107050 0
20.775000 -0.106043 0
20.780000 -0.104990 0
20.785000 -0.103854 0
20.790000 -0.102582 0
20.795000 -0.101092 0
20.800000 -0.099265 0
20.805000 -0.096933 0
20.810000 -0.093873 0
20.815000 -0.089796 0
20.820000 -0.084344 0
20.825000 -0.077104 0
20.830000 -0.067622 0
20.835000 -0.055443 0
20.840000 -0.040163 0
20.845000 -0.021494 0
20.850000 0.000656 0
20.855000 0.026114 0
20.860000 0.054379 0
20.865000 0.084592 0
20.870000 0.115545 0
20.875000 0.145739 0
20.880000 0.173495 0
20.885000 0.197100 0
20.890000 0.214980 0
20.895000 0.225876 0
20.900000 0.228987 1
20.905000 0.224072 0
20.910000 0.211478 0
20.915000 0.192099 0
20.920000 0.167274 0
20.925000 0.138631 0
20.930000 0.107905 0
20.935000 0.076733 0
20.940000 0.046401 0
20.945000 0.017479 0
20.950000 -0.010736 0
20.955000 -0.040793 0
20.960000 -0.076938 0
20.965000 -0.123092 0
20.970000 -0.178551 0
20.975000 -0.233358 0
20.980000 -0.267040 2
20.985000 -0.252580 0
20.990000 -0.163300 0
20.995000 0.019701 0
21.000000 0.296890 0
21.005000 0.634542 0
21.010000 0.955504 0
21.015000 1.157794 0
21.020000 1.163788 3
21.025000 0.967860 0
21.030000 0.637865 0
21.035000 0.273899 0
21.040000 -0.039737 0
21.045000 -0.257189 0
21.050000 -0.367332 0
21.055000 -0.382758 4
21.060000 -0.331565 0
21.065000 -0.248707 0
21.070000 -0.164637 0
21.075000 -0.096590 0
21.080000 -0.047815 0
21.085000 -0.013253 0
21.090000 0.013941 0
21.095000 0.038813 0
21.100000 0.064013 0
21.105000 0.090537 0
21.110000 0.118535 0
21.115000 0.147788 0
21.120000 0.177902 0
21.125000 0.208386 0
21.130000 0.238674 0
21.135000 0.268148 0
21.140000 0.296153 0
21.145000 0.322026 0
21.150000 0.345117 0
21.155000 0.364819 0
21.160000 0.380590 0
21.165000 0.391980 0
21.170000 0.398653 0
21.175000 0.400400 5
21.180000 0.397150 0
21.185000 0.388976 0
21.190000 0.376089 0
21.195000 0.358831 0
21.200000 0.337658 0
21.205000 0.313121 0
21.210000 0.285840 0
21.215000 0.256478 0
21.220000 0.225716 0
21.225000 0.194227 0
21.230000 0.162648 0
21.235000 0.131566 0
21.240000 0.101496 0
21.245000 0.072874 0
21.250000 0.046046 0
21.255000 0.021272 0
21.260000 -0.001280 0
21.265000 -0.021520 0
21.270000 -0.039432 0
21.275000 -0.055065 0
21.280000 -0.068514 0
21.285000 -0.079919 0
21.290000 -0.089444 0
21.295000 -0.097272 0
21.300000 -0.103591 0
21.305000 -0.108591 0
21.310000 -0.112454 0
21.315000 -0.115353 0
21.320000 -0.117444 0
21.325000 -0.118868 0
21.330000 -0.119749 0
21.335000 -0.119981 0
21.340000 -0.118976 0
21.345000 -0.117977 0
21.350000 -0.116982 0
21.355000 -0.115992 0
21.360000 -0.115007 0
21.365000 -0.114027 0
21.370000 -0.113051 0
21.375000 -0.112079 0
21.380000 -0.111112 0
21.385000 -0.110146 0
21.390000 -0.109181 0
21.395000 -0.108211 0
21.400000 -0.107230 0
21.405000 -0.106224 0
21.410000 -0.105174 0
21.415000 -0.104046 0
21.420000 -0.102787 0
21.425000 -0.101320 0
21.430000 -0.099531 0
21.435000 -0.097260 0
21.440000 -0.094293 0
21.445000 -0.090352 0
21.450000 -0.085093 0
21.455000 -0.078114 0
21.460000 -0.068971 0
21.465000 -0.057214 0
21.470000 -0.042431 0
21.475000 -0.024319 0
21.480000 -0.002750 0
21.485000 0.022154 0
21.490000 0.049958 0
21.495000 0.079881 0
21.500000 0.110793 0
21.505000 0.141267 0
21.510000 0.169672 0
21.515000 0.194313 0
21.520000 0.213594 0
21.525000 0.226190 0
21.530000 0.231197 1
21.535000 0.228239 0
21.540000 0.217516 0
21.545000 0.199782 0
21.550000 0.176255 0
21.555000 0.148482 0
21.560000 0.118162 0
21.565000 0.086958 0
21.570000 0.056270 0
21.575000 0.026920 0
21.580000 -0.001338 0
21.585000 -0.030411 0
21.590000 -0.064058 0
21.595000 -0.106624 0
21.600000 -0.159500 0
21.605000 -0.216357 0
21.610000 -0.260419 0
21.615000 -0.266622 2
21.620000 -0.207718 0
21.625000 -0.061295 0
21.630000 0.181578 0
21.635000 0.502472 0
21.640000 0.841773 0
21.645000 1.104127 0
21.650000 1.196463 3
21.655000 1.079255 0
21.660000 0.791715 0
21.665000 0.429252 0
21.670000 0.088973 0
21.675000 -0.166671 0
21.680000 -0.314556 0
21.685000 -0.360057 4
21.690000 -0.327321 0
21.695000 -0.250973 0
21.700000 -0.164876 0
21.705000 -0.091323 0
21.710000 -0.037477 0
21.715000 0.000150 0
21.720000 0.028572 0
21.725000 0.053587 0
21.730000 0.078472 0
21.735000 0.104564 0
21.740000 0.132160 0
21.745000 0.161090 0
21.750000 0.190982 0
21.755000 0.221347 0
21.760000 0.251619 0
21.765000 0.281171 0
21.770000 0.309340 0
21.775000 0.335445 0
21.780000 0.358818 0
21.785000 0.378829 0
21.790000 0.394917 0
21.795000 0.406610 0
21.800000 0.413554 0
21.805000 0.415524 5
21.810000 0.412440 0
21.815000 0.404367 0
21.820000 0.391518 0
21.825000 0.374238 0
21.830000 0.352993 0
21.835000 0.328347 0
21.840000 0.300933 0
21.845000 0.271432 0
21.850000 0.240542 0
21.855000 0.208948 0
21.860000 0.177302 0
21.865000 0.146198 0
21.870000 0.116160 0
21.875000 0.087622 0
21.880000 0.060933 0
21.885000 0.036346 0
21.890000 0.014023 0
21.895000 -0.005955 0
21.900000 -0.023583 0
21.905000 -0.038917 0
21.910000 -0.052067 0
21.915000 -0.063178 0
21.920000 -0.072424 0
21.925000 -0.079993 0
21.930000 -0.086081 0
21.935000 -0.090879 0
21.940000 -0.094572 0
21.945000 -0.097332 0
21.950000 -0.099315 0
21.955000 -0.100660 0
21.960000 -0.101489 0
21.965000 -0.100829 0
21.970000 -0.099920 0
21.975000 -0.099015 0
21.980000 -0.098115 0
21.985000 -0.097219 0
21.990000 -0.096328 0
21.995000 -0.095440 0
22.000000 -0.094557 0
22.005000 -0.093678 0
22.010000 -0.092801 0
22.015000 -0.091925 0
22.020000 -0.091047 0
22.025000 -0.090161 0
22.030000 -0.089259 0
22.035000 -0.088322 0
22.040000 -0.087325 0
22.045000 -0.086225 0
22.050000 -0.084956 0
22.055000 -0.083421 0
22.060000 -0.081479 0
22.065000 -0.078938 0
22.070000 -0.075543 0
22.075000 -0.070972 0
22.080000 -0.064835 0
22.085000 -0.056695 0
22.090000 -0.046086 0
22.095000 -0.032567 0
22.100000 -0.015775 0
22.105000 0.004495 0
22.110000 0.028217 0
22.115000 0.055059 0
22.120000 0.084343 0
22.125000 0.115021 0
22.130000 0.145718 0
22.135000 0.174815 0
22.140000 0.200577 0
22.145000 0.221327 0
22.150000 0.235620 0
22.155000 0.242412 1
22.160000 0.241183 0
22.165000 0.232005 0
22.170000 0.215535 0
22.175000 0.192932 0
22.180000 0.165729 0
22.185000 0.135651 0
22.190000 0.104420 0
22.195000 0.073528 0
22.200000 0.043922 0
22.205000 0.015528 0
22.210000 -0.013381 0
22.215000 -0.046476 0
22.220000 -0.088254 0
22.225000 -0.140561 0
22.230000 -0.197609 0
22.235000 -0.242853 0
22.240000 -0.250933 2
22.245000 -0.193933 0
22.250000 -0.048721 0
22.255000 0.194046 0
22.260000 0.515470 0
22.265000 0.854031 0
22.270000 1.111724 0
22.275000 1.194525 3
22.280000 1.066232 0
22.285000 0.771598 0
22.290000 0.407989 0
22.295000 0.071573 0
22.300000 -0.177490 0
22.305000 -0.318163 0
22.310000 -0.357353 4
22.315000 -0.320325 0
22.320000 -0.242214 0
22.325000 -0.156495 0
22.330000 -0.084418 0
22.335000 -0.032106 0
22.340000 0.004480 0
22.345000 0.032414 0
22.350000 0.057314 0
22.355000 0.082266 0
22.360000 0.108488 0
22.365000 0.136214 0
22.370000 0.165250 0
22.375000 0.195205 0
22.380000 0.225582 0
22.385000 0.255804 0
22.390000 0.285236 0
22.395000 0.313209 0
22.400000 0.339039 0
22.405000 0.362057 0
22.410000 0.381639 0
22.415000 0.397227 0
22.420000 0.408362 0
22.425000 0.414701 0
22.430000 0.416038 5
22.435000 0.412308 0
22.440000 0.403598 0
22.445000 0.390138 0
22.450000 0.372293 0
22.455000 0.350545 0
22.460000 0.325470 0
22.465000 0.297715 0
22.470000 0.267968 0
22.475000 0.236928 0
22.480000 0.205281 0
22.485000 0.173675 0
22.490000 0.142697 0
22.495000 0.112859 0
22.500000 0.084586 0
22.505000 0.058212 0
22.510000 0.033976 0
22.515000 0.012029 0
22.520000 -0.007562 0
22.525000 -0.024803 0
22.530000 -0.039761 0
22.535000 -0.052553 0
22.540000 -0.063330 0
22.545000 -0.072270 0
22.550000 -0.079565 0
22.555000 -0.085410 0
22.560000 -0.089997 0
22.565000 -0.093510 0
22.570000 -0.096119 0
22.575000 -0.097977 0
22.580000 -0.099221 0
22.585000 -0.099969 0
22.590000 -0.099303 0
22.595000 -0.098401 0
22.600000 -0.097504 0
22.605000 -0.096612 0
22.610000 -0.095723 0
22.615000 -0.094839 0
22.620000 -0.093959 0
22.625000 -0.093083 0
22.630000 -0.092211 0
22.635000 -0.091341 0
22.640000 -0.090471 0
22.645000 -0.089598 0
22.650000 -0.088716 0
22.655000 -0.087813 0
22.660000 -0.086872 0
22.665000 -0.085861 0
22.670000 -0.084734 0
22.675000 -0.083418 0
22.680000 -0.081804 0
22.685000 -0.079742 0
22.690000 -0.077023 0
22.695000 -0.073374 0
22.700000 -0.068453 0
22.705000 -0.061858 0
22.710000 -0.053135 0
22.715000 -0.041820 0
22.720000 -0.027482 0
22.725000 -0.009792 0
22.730000 0.011403 0
22.735000 0.036002 0
22.740000 0.063582 0
22.745000 0.093359 0
22.750000 0.124188 0
22.755000 0.154609 0
22.760000 0.182946 0
22.765000 0.207457 0
22.770000 0.226502 0
22.775000 0.238731 0
22.780000 0.243233 1
22.785000 0.239654 0
22.790000 0.228243 0
22.795000 0.209816 0
22.800000 0.185667 0
22.805000 0.157413 0
22.810000 0.126808 0
22.815000 0.095537 0
22.820000 0.064972 0
22.825000 0.035810 0
22.830000 0.007529 0
22.835000 -0.022225 0
22.840000 -0.057623 0
22.845000 -0.102831 0
22.850000 -0.157792 0
22.855000 -0.213349 0
22.860000 -0.249533 2
22.865000 -0.239230 0
22.870000 -0.155154 0
22.875000 0.022559 0
22.880000 0.295726 0
22.885000 0.632083 0
22.890000 0.955063 0
22.895000 1.161521 0
22.900000 1.171508 3
22.905000 0.975778 0
22.910000 0.643049 0
22.915000 0.280383 0
22.920000 -0.024542 0
22.925000 -0.226939 0
22.930000 -0.319058 4
22.935000 -0.317855 0
22.940000 -0.255844 0
22.945000 -0.170358 0
22.950000 -0.090580 0
22.955000 -0.029859 0
22.960000 0.012306 0
22.965000 0.042737 0
22.970000 0.068179 0
22.975000 0.092806 0
22.980000 0.118459 0
22.985000 0.145640 0
22.990000 0.174247 0
22.995000 0.203919 0
23.000000 0.234162 0
23.005000 0.264394 0
23.010000 0.293964 0
23.015000 0.322179 0
23.020000 0.348326 0
23.025000 0.371704 0
23.030000 0.391652 0
23.035000 0.407580 0
23.040000 0.418998 0
23.045000 0.425538 0
23.050000 0.426976 5
23.055000 0.423241 0
23.060000 0.414420 0
23.065000 0.400754 0
23.070000 0.382628 0
23.075000 0.360550 0
23.080000 0.335127 0
23.085000 0.307038 0
23.090000 0.277003 0
23.095000 0.245752 0
23.100000 0.213995 0
23.105000 0.182396 0
23.110000 0.151554 0
23.115000 0.121984 0
23.120000 0.094106 0
23.125000 0.068241 0
23.130000 0.044612 0
23.135000 0.023349 0
23.140000 0.004496 0
23.145000 -0.011976 0
23.150000 -0.026159 0
23.155000 -0.038189 0
23.160000 -0.048238 0
23.165000 -0.056497 0
23.170000 -0.063170 0
23.175000 -0.068460 0
23.180000 -0.072562 0
23.185000 -0.075661 0
23.190000 -0.077926 0
23.195000 -0.079506 0
23.200000 -0.080533 0
23.205000 -0.080916 0
23.210000 -0.080106 0
23.215000 -0.079300 0
23.220000 -0.078498 0
23.225000 -0.077700 0
23.230000 -0.076906 0
23.235000 -0.076116 0
23.240000 -0.075329 0
23.245000 -0.074545 0
23.250000 -0.073764 0
23.255000 -0.072982 0
23.260000 -0.072198 0
23.265000 -0.071405 0
23.270000 -0.070591 0
23.275000 -0.069740 0
23.280000 -0.068820 0
23.285000 -0.067782 0
23.290000 -0.066553 0
23.295000 -0.065019 0
23.300000 -0.063023 0
23.305000 -0.060344 0
23.310000 -0.056694 0
23.315000 -0.051712 0
23.320000 -0.044971 0
23.325000 -0.035996 0
23.330000 -0.024303 0
23.335000 -0.009456 0
23.340000 0.008863 0
23.345000 0.030766 0
23.350000 0.056076 0
23.355000 0.084265 0
23.360000 0.114413 0
23.365000 0.145224 0
23.370000 0.175092 0
23.375000 0.202231 0
23.380000 0.224838 0
23.385000 0.241296 0
23.390000 0.250357 0
23.395000 0.251304 1
23.400000 0.244038 0
23.405000 0.229095 0
23.410000 0.207582 0
23.415000 0.181035 0
23.420000 0.151240 0
23.425000 0.120015 0
23.430000 0.088968 0
23.435000 0.059173 0
23.440000 0.030663 0
23.445000 0.001752 0
23.450000 -0.031331 0
23.455000 -0.073286 0
23.460000 -0.125966 0
23.465000 -0.182945 0
23.470000 -0.226270 0
23.475000 -0.228919 2
23.480000 -0.161838 0
23.485000 -0.002063 0
23.490000 0.256763 0
23.495000 0.587769 0
23.500000 0.917372 0
23.505000 1.139313 0
23.510000 1.165533 3
23.515000 0.980808 0
23.520000 0.652947 0
23.525000 0.289434 0
23.530000 -0.019487 0
23.535000 -0.226627 0
23.540000 -0.322830 0
23.545000 -0.324390 4
23.550000 -0.263681 0
23.555000 -0.178366 0
23.560000 -0.098216 0
23.565000 -0.037070 0
23.570000 0.005366 0
23.575000 0.035921 0
23.580000 0.061415 0
23.585000 0.086075 0
23.590000 0.111762 0
23.595000 0.138984 0
23.600000 0.167637 0
23.605000 0.197354 0
23.610000 0.227637 0
23.615000 0.257898 0
23.620000 0.287479 0
23.625000 0.315681 0
23.630000 0.341785 0
23.635000 0.365086 0
23.640000 0.384920 0
23.645000 0.400695 0
23.650000 0.411922 0
23.655000 0.418237 0
23.660000 0.419422 5
23.665000 0.415414 0
23.670000 0.406309 0
23.675000 0.392363 0
23.680000 0.373969 0
23.685000 0.351650 0
23.690000 0.326022 0
23.695000 0.297776 0
23.700000 0.267639 0
23.705000 0.236345 0
23.710000 0.204607 0
23.715000 0.173090 0
23.720000 0.142388 0
23.725000 0.113011 0
23.730000 0.085372 0
23.735000 0.059785 0
23.740000 0.036462 0
23.745000 0.015524 0
23.750000 -0.002996 0
23.755000 -0.019135 0
23.760000 -0.032991 0
23.765000 -0.044709 0
23.770000 -0.054464 0
23.775000 -0.062452 0
23.780000 -0.068879 0
23.785000 -0.073947 0
23.790000 -0.077854 0
23.795000 -0.080782 0
23.800000 -0.082899 0
23.805000 -0.084352 0
23.810000 -0.085270 0
23.815000 -0.084691 0
23.820000 -0.083863 0
23.825000 -0.083038 0
23.830000 -0.082217 0
23.835000 -0.081401 0
23.840000 -0.080588 0
23.845000 -0.079779 0
23.850000 -0.078974 0
23.855000 -0.078172 0
23.860000 -0.077372 0
23.865000 -0.076571 0
23.870000 -0.075767 0
23.875000 -0.074952 0
23.880000 -0.074113 0
23.885000 -0.073230 0
23.890000 -0.072269 0
23.895000 -0.071174 0
23.900000 -0.069863 0
23.905000 -0.068213 0
23.910000 -0.066047 0
23.915000 -0.063130 0
23.920000 -0.059150 0
23.925000 -0.053725 0
23.930000 -0.046410 0
23.935000 -0.036717 0
23.940000 -0.024168 0
23.945000 -0.008346 0
23.950000 0.011018 0
23.955000 0.033962 0
23.960000 0.060211 0
23.965000 0.089118 0
23.970000 0.119639 0
23.975000 0.150363 0
23.980000 0.179601 0
23.985000 0.205527 0
23.990000 0.226361 0
23.995000 0.240572 0
24.000000 0.247060 1
24.005000 0.245298 0
24.010000 0.235401 0
24.015000 0.218111 0
24.020000 0.194709 0
24.025000 0.166852 0
24.030000 0.136376 0
24.035000 0.105069 0
24.040000 0.074406 0
24.045000 0.045165 0
24.050000 0.016832 0
24.055000 -0.013068 0
24.060000 -0.048944 0
24.065000 -0.095045 0
24.070000 -0.150712 0
24.075000 -0.205149 0
24.080000 -0.236112 2
24.085000 -0.214613 0
24.090000 -0.112788 0
24.095000 0.087435 0
24.100000 0.381276 0
24.105000 0.723217 0
24.110000 1.021606 0
24.115000 1.169339 3
24.120000 1.103445 0
24.125000 0.846419 0
24.130000 0.490425 0
24.135000 0.141226 0
24.140000 -0.128208 0
24.145000 -0.288238 0
24.150000 -0.341712 4
24.155000 -0.312690 0
24.160000 -0.237266 0
24.165000 -0.151281 0
24.170000 -0.078260 0
24.175000 -0.025439 0
24.180000 0.011178 0
24.185000 0.038982 0
24.190000 0.063814 0
24.195000 0.088810 0
24.200000 0.115153 0
24.205000 0.143034 0
24.210000 0.172214 0
24.215000 0.202267 0
24.220000 0.232654 0
24.225000 0.262756 0
24.230000 0.291897 0
24.235000 0.319367 0
24.240000 0.344451 0
24.245000 0.366456 0
24.250000 0.384745 0
24.255000 0.398766 0
24.260000 0.408078 0
24.265000 0.412375 5
24.270000 0.411499 0
24.275000 0.405454 0
24.280000 0.394400 0
24.285000 0.378649 0
24.290000 0.358648 0
24.295000 0.334961 0
24.300000 0.308237 0
24.305000 0.279183 0
24.310000 0.248531 0
24.315000 0.217011 0
24.320000 0.185318 0
24.325000 0.154091 0
24.330000 0.123891 0
24.335000 0.095190 0
24.340000 0.068362 0
24.345000 0.043679 0
24.350000 0.021317 0
24.355000 0.001361 0
24.360000 -0.016185 0
24.365000 -0.031384 0
24.370000 -0.044354 0
24.375000 -0.055251 0
24.380000 -0.064262 0
24.385000 -0.071587 0
24.390000 -0.077430 0
24.395000 -0.081994 0
24.400000 -0.085470 0
24.405000 -0.088034 0
24.410000 -0.089847 0
24.415000 -0.091049 0
24.420000 -0.091761 0
24.425000 -0.091124 0
24.430000 -0.090263 0
24.435000 -0.089406 0
24.440000 -0.088554 0
24.445000 -0.087706 0
24.450000 -0.086862 0
24.455000 -0.086022 0
24.460000 -0.085185 0
24.465000 -0.084351 0
24.470000 -0.083519 0
24.475000 -0.082685 0
24.480000 -0.081846 0
24.485000 -0.080992 0
24.490000 -0.080108 0
24.495000 -0.079169 0
24.500000 -0.078134 0
24.505000 -0.076939 0
24.510000 -0.075488 0
24.515000 -0.073638 0
24.520000 -0.071194 0
24.525000 -0.067892 0
24.530000 -0.063395 0
24.535000 -0.057297 0
24.540000 -0.049132 0
24.545000 -0.038411 0
24.550000 -0.024671 0
24.555000 -0.007541 0
24.560000 0.013174 0
24.565000 0.037406 0
24.570000 0.064750 0
24.575000 0.094416 0
24.580000 0.125219 0
24.585000 0.155639 0
24.590000 0.183916 0
24.595000 0.208224 0
24.600000 0.226850 0
24.605000 0.238402 0
24.610000 0.241975 1
24.615000 0.237269 0
24.620000 0.224630 0
24.625000 0.205008 0
24.630000 0.179835 0
24.635000 0.150857 0
24.640000 0.119916 0
24.645000 0.088722 0
24.650000 0.058553 0
24.655000 0.029808 0
24.660000 0.001345 0
24.665000 -0.030071 0
24.670000 -0.069169 0
24.675000 -0.119114 0
24.680000 -0.176174 0
24.685000 -0.225386 0
24.690000 -0.241379 2
24.695000 -0.194664 0
24.700000 -0.059742 0
24.705000 0.175335 0
24.710000 0.493588 0
24.715000 0.832686 0
24.720000 1.090164 0
24.725000 1.167270 3
24.730000 1.028506 0
24.735000 0.725149 0
24.740000 0.360614 0
24.745000 0.032660 0
24.750000 -0.201105 0
24.755000 -0.323620 0
24.760000 -0.345886 4
24.765000 -0.297038 0
24.770000 -0.214499 0
24.775000 -0.130990 0
24.780000 -0.064508 0
24.785000 -0.017725 0
24.790000 0.015246 0
24.795000 0.041606 0
24.800000 0.066291 0
24.805000 0.091683 0
24.810000 0.118553 0
24.815000 0.146912 0
24.820000 0.176448 0
24.825000 0.206694 0
24.830000 0.237087 0
24.835000 0.266988 0
24.840000 0.295711 0
24.845000 0.322543 0
24.850000 0.346775 0
24.855000 0.367729 0
24.860000 0.384795 0
24.865000 0.397451 0
24.870000 0.405298 0
24.875000 0.408074 5
24.880000 0.405669 0
24.885000 0.398134 0
24.890000 0.385674 0
24.895000 0.368643 0
24.900000 0.347524 0
24.905000 0.322905 0
24.910000 0.295454 0
24.915000 0.265887 0
24.920000 0.234936 0
24.925000 0.203322 0
24.930000 0.171722 0
24.935000 0.140755 0
24.940000 0.110955 0
24.945000 0.082767 0
24.950000 0.056535 0
24.955000 0.032502 0
24.960000 0.010819 0
24.965000 -0.008453 0
24.970000 -0.025330 0
24.975000 -0.039890 0
24.980000 -0.052263 0
24.985000 -0.062614 0
24.990000 -0.071134 0
24.995000 -0.078025 0
25.000000 -0.083490 0
25.005000 -0.087728 0
25.010000 -0.090928 0
25.015000 -0.093261 0
25.020000 -0.094882 0
25.025000 -0.095925 0
25.030000 -0.096294 0
25.035000 -0.095407 0
25.040000 -0.094525 0
25.045000 -0.093647 0
25.050000 -0.092774 0
25.055000 -0.091904 0
25.060000 -0.091039 0
25.065000 -0.090178 0
25.070000 -0.089321 0
25.075000 -0.088466 0
25.080000 -0.087612 0
25.085000 -0.086756 0
25.090000 -0.085893 0
25.095000 -0.085012 0
25.100000 -0.084097 0
25.105000 -0.083120 0
25.110000 -0.082034 0
25.115000 -0.080770 0
25.120000 -0.079223 0
25.125000 -0.077239 0
25.130000 -0.074609 0
25.135000 -0.071055 0
25.140000 -0.066224 0
25.145000 -0.059697 0
25.150000 -0.051002 0
25.155000 -0.039651 0
25.160000 -0.025196 0
25.165000 -0.007297 0
25.170000 0.014192 0
25.175000 0.039137 0
25.180000 0.067058 0
25.185000 0.097084 0
25.190000 0.127961 0
25.195000 0.158111 0
25.200000 0.185755 0
25.205000 0.209077 0
25.210000 0.226419 0
25.215000 0.236476 0
25.220000 0.238457 1
25.225000 0.232188 0
25.230000 0.218137 0
25.235000 0.197353 0
25.240000 0.171340 0
25.245000 0.141872 0
25.250000 0.110780 0
25.255000 0.079713 0
25.260000 0.049827 0
25.265000 0.021292 0
25.270000 -0.007384 0
25.275000 -0.039789 0
25.280000 -0.080672 0
25.285000 -0.132393 0
25.290000 -0.189488 0
25.295000 -0.235001 0
25.300000 -0.242386 2
25.305000 -0.182342 0
25.310000 -0.030951 0
25.315000 0.220142 0
25.320000 0.547433 0
25.325000 0.880894 0
25.330000 1.115040 0
25.335000 1.157841 3
25.340000 0.988833 0
25.345000 0.671091 0
25.350000 0.306269 0
25.355000 -0.015111 0
25.360000 -0.241631 0
25.365000 -0.359170 0
25.370000 -0.379253 4
25.375000 -0.330126 0
25.380000 -0.247697 0
25.385000 -0.163564 0
25.390000 -0.095639 0
25.395000 -0.047223 0
25.400000 -0.013030 0
25.405000 0.013955 0
25.410000 0.038801 0
25.415000 0.064100 0
25.420000 0.090781 0
25.425000 0.118950 0
25.430000 0.148352 0
25.435000 0.178569 0
25.440000 0.209081 0
25.445000 0.239296 0
25.450000 0.268567 0
25.455000 0.296218 0
25.460000 0.321564 0
25.465000 0.343943 0
25.470000 0.362743 0
25.475000 0.377426 0
25.480000 0.387557 0
25.485000 0.392825 0
25.490000 0.393056 5
25.495000 0.388221 0
25.500000 0.378443 0
25.505000 0.363986 0
25.510000 0.345247 0
25.515000 0.322733 0
25.520000 0.297043 0
25.525000 0.268837 0
25.530000 0.238809 0
25.535000 0.207661 0
25.540000 0.176073 0
25.545000 0.144678 0
25.550000 0.114049 0
25.555000 0.084677 0
25.560000 0.056966 0
25.565000 0.031225 0
25.570000 0.007671 0
25.575000 -0.013568 0
25.580000 -0.032443 0
25.585000 -0.048979 0
25.590000 -0.063256 0
25.595000 -0.075401 0
25.600000 -0.085576 0
25.605000 -0.093962 0
25.610000 -0.100753 0
25.615000 -0.106146 0
25.620000 -0.110330 0
25.625000 -0.113487 0
25.630000 -0.115783 0
25.635000 -0.117366 0
25.640000 -0.118369 0
25.645000 -0.118682 0
25.650000 -0.117683 0
25.655000 -0.116690 0
25.660000 -0.115702 0
25.665000 -0.114718 0
25.670000 -0.113739 0
25.675000 -0.112765 0
25.680000 -0.111796 0
25.685000 -0.110831 0
25.690000 -0.109870 0
25.695000 -0.108911 0
25.700000 -0.107951 0
25.705000 -0.106988 0
25.710000 -0.106014 0
25.715000 -0.105015 0
25.720000 -0.103970 0
25.725000 -0.102844 0
25.730000 -0.101584 0
25.735000 -0.100108 0
25.740000 -0.098295 0
25.745000 -0.095978 0
25.750000 -0.092929 0
25.755000 -0.088856 0
25.760000 -0.083396 0
25.765000 -0.076128 0
25.770000 -0.066590 0
25.775000 -0.054321 0
25.780000 -0.038912 0
25.785000 -0.020080 0
25.790000 0.002261 0
25.795000 0.027916 0
25.800000 0.056354 0
25.805000 0.086675 0
25.810000 0.117627 0
25.815000 0.147666 0
25.820000 0.175075 0
25.825000 0.198122 0
25.830000 0.215234 0
25.835000 0.225180 0
25.840000 0.227216 1
25.845000 0.221176 0
25.850000 0.207496 0
25.855000 0.187160 0
25.860000 0.161586 0
25.865000 0.132460 0
25.870000 0.101541 0
25.875000 0.070448 0
25.880000 0.040384 0
25.885000 0.011719 0
25.890000 -0.016611 0
25.895000 -0.047624 0
25.900000 -0.085819 0
25.905000 -0.134540 0
25.910000 -0.191186 0
25.915000 -0.242923 0
25.920000 -0.266709 2
25.925000 -0.234489 0
25.930000 -0.120514 0
25.935000 0.090536 0
25.940000 0.390896 0
25.945000 0.733428 0
25.950000 1.028513 0
25.955000 1.174149 3
25.960000 1.111108 0
25.965000 0.860131 0
25.970000 0.507117 0
25.975000 0.153362 0
25.980000 -0.128105 0
25.985000 -0.304710 0
25.990000 -0.375445 4
25.995000 -0.360223 0
26.000000 -0.291805 0
26.005000 -0.205416 0
26.010000 -0.127124 0
26.015000 -0.067941 0
26.020000 -0.026527 0
26.025000 0.003794 0
26.030000 0.029391 0
26.035000 0.054202 0
26.040000 0.079994 0
26.045000 0.107271 0
26.050000 0.135953 0
26.055000 0.165711 0
26.060000 0.196085 0
26.065000 0.226527 0
26.070000 0.256427 0
26.075000 0.285130 0
26.080000 0.311959 0
26.085000 0.336240 0
26.090000 0.357331 0
26.095000 0.374650 0
26.100000 0.387698 0
26.105000 0.396087 0
26.110000 0.399555 5
26.115000 0.397979 0
26.120000 0.391385 0
26.125000 0.379943 0
26.130000 0.363963 0
26.135000 0.343876 0
26.140000 0.320220 0
26.145000 0.293610 0
26.150000 0.264717 0
26.155000 0.234233 0
26.160000 0.202851 0
26.165000 0.171232 0
26.170000 0.139989 0
26.175000 0.109666 0
26.180000 0.080725 0
26.185000 0.053539 0
26.190000 0.028387 0
26.195000 0.005459 0
26.200000 -0.015141 0
26.205000 -0.033388 0
26.210000 -0.049321 0
26.215000 -0.063034 0
26.220000 -0.074663 0
26.225000 -0.084376 0
26.230000 -0.092356 0
26.235000 -0.098796 0
26.240000 -0.103891 0
26.245000 -0.107828 0
26.250000 -0.110783 0
26.255000 -0.112916 0
26.260000 -0.114371 0
26.265000 -0.115276 0
26.270000 -0.115529 0
26.275000 -0.114546 0
26.280000 -0.113568 0
26.285000 -0.112596 0
26.290000 -0.111628 0
26.295000 -0.110664 0
26.300000 -0.109706 0
26.305000 -0.108752 0
26.310000 -0.107802 0
26.315000 -0.106855 0
26.320000 -0.105910 0
26.325000 -0.104965 0
26.330000 -0.104015 0
26.335000 -0.103051 0
26.340000 -0.102060 0
26.345000 -0.101019 0
26.350000 -0.099891 0
26.355000 -0.098618 0
26.360000 -0.097115 0
26.365000 -0.095256 0
26.370000 -0.092867 0
26.375000 -0.089714 0
26.380000 -0.085497 0
26.385000 -0.079849 0
26.390000 -0.072344 0
26.395000 -0.062525 0
26.400000 -0.049935 0
26.405000 -0.034180 0
26.410000 -0.014995 0
26.415000 0.007677 0
26.420000 0.033613 0
26.425000 0.062251 0
26.430000 0.092667 0
26.435000 0.123588 0
26.440000 0.153465 0
26.445000 0.180588 0
26.450000 0.203243 0
26.455000 0.219891 0
26.460000 0.229337 0
26.465000 0.230879 1
26.470000 0.224387 0
26.475000 0.210324 0
26.480000 0.189694 0
26.485000 0.163917 0
26.490000 0.134674 0
26.495000 0.103708 0
26.500000 0.072615 0
26.505000 0.042571 0
26.510000 0.013917 0
26.515000 -0.014440 0
26.520000 -0.045526 0
26.525000 -0.083815 0
26.530000 -0.132597 0
26.535000 -0.189259 0
26.540000 -0.241068 0
26.545000 -0.265197 2
26.550000 -0.233828 0
26.555000 -0.121350 0
26.560000 0.087691 0
26.565000 0.386241 0
26.570000 0.728651 0
26.575000 1.026982 0
26.580000 1.179607 3
26.585000 1.125721 0
26.590000 0.882981 0
26.595000 0.533267 0
26.600000 0.176469 0
26.605000 -0.113004 0
26.610000 -0.300105 0
26.615000 -0.381423 4
26.620000 -0.374676 0
26.625000 -0.310947 0
26.630000 -0.225117 0
26.635000 -0.144504 0
26.640000 -0.082092 0
26.645000 -0.038050 0
26.650000 -0.006235 0
26.655000 0.019900 0
26.660000 0.044692 0
26.665000 0.070224 0
26.670000 0.097183 0
26.675000 0.125579 0
26.680000 0.155130 0
26.685000 0.185411 0
26.690000 0.215905 0
26.695000 0.246031 0
26.700000 0.275155 0
26.705000 0.302619 0
26.710000 0.327760 0
26.715000 0.349937 0
26.720000 0.368558 0
26.725000 0.383107 0
26.730000 0.393163 0
26.735000 0.398426 0
26.740000 0.398725 5
26.745000 0.394033 0
26.750000 0.384462 0
26.755000 0.370264 0
26.760000 0.351815 0
26.765000 0.329603 0
26.770000 0.304200 0
26.775000 0.276244 0
26.780000 0.246406 0
26.785000 0.215367 0
26.790000 0.183793 0
26.795000 0.152308 0
26.800000 0.121480 0
26.805000 0.091802 0
26.810000 0.063684 0
26.815000 0.037447 0
26.820000 0.013323 0
26.825000 -0.008543 0
26.830000 -0.028085 0
26.835000 -0.045306 0
26.840000 -0.060270 0
26.845000 -0.073089 0
26.850000 -0.083910 0
26.855000 -0.092903 0
26.860000 -0.100253 0
26.865000 -0.106153 0
26.870000 -0.110788 0
26.875000 -0.114340 0
26.880000 -0.116976 0
26.885000 -0.118847 0
26.890000 -0.120091 0
26.895000 -0.120824 0
26.900000 -0.120068 0
26.905000 -0.119063 0
26.910000 -0.118062 0
26.915000 -0.117067 0
26.920000 -0.116077 0
26.925000 -0.115091 0
26.930000 -0.114111 0
26.935000 -0.113134 0
26.940000 -0.112162 0
26.945000 -0.111193 0
26.950000 -0.110226 0
26.955000 -0.109258 0
26.960000 -0.108284 0
26.965000 -0.107295 0
26.970000 -0.106277 0
26.975000 -0.105205 0
26.980000 -0.104042 0
26.985000 -0.102727 0
26.990000 -0.101172 0
26.995000 -0.099252 0
27.000000 -0.096790 0
27.005000 -0.093552 0
27.010000 -0.089241 0
27.015000 -0.083492 0
27.020000 -0.075887 0
27.025000 -0.065977 0
27.030000 -0.053316 0
27.035000 -0.037521 0
27.040000 -0.018331 0
27.045000 0.004308 0
27.050000 0.030183 0
27.055000 0.058754 0
27.060000 0.089125 0
27.065000 0.120068 0
27.070000 0.150076 0
27.075000 0.177481 0
27.080000 0.200599 0
27.085000 0.217901 0
27.090000 0.228179 0
27.095000 0.230686 1
27.100000 0.225227 0
27.105000 0.212181 0
27.110000 0.192462 0
27.115000 0.167412 0
27.120000 0.138645 0
27.125000 0.107873 0
27.130000 0.076704 0
27.135000 0.046394 0
27.140000 0.017488 0
27.145000 -0.010728 0
27.150000 -0.040779 0
27.155000 -0.076855 0
27.160000 -0.122848 0
27.165000 -0.178175 0
27.170000 -0.233241 0
27.175000 -0.268112 2
27.180000 -0.256244 0
27.185000 -0.171157 0
27.190000 0.006379 0
27.195000 0.278243 0
27.200000 0.613738 0
27.205000 0.939525 0
27.210000 1.155352 0
27.215000 1.180473 3
27.220000 1.001069 0
27.225000 0.678923 0
27.230000 0.314077 0
27.235000 -0.005891 0
27.240000 -0.231564 0
27.245000 -0.349443 0
27.250000 -0.370764 4
27.255000 -0.322983 0
27.260000 -0.241179 0
27.265000 -0.156623 0
27.270000 -0.087564 0
27.275000 -0.037941 0
27.280000 -0.002919 0
27.285000 0.024417 0
27.290000 0.049261 0
27.295000 0.074367 0
27.300000 0.100786 0
27.305000 0.128688 0
27.310000 0.157858 0
27.315000 0.187905 0
27.320000 0.218334 0
27.325000 0.248578 0
27.330000 0.278013 0
27.335000 0.305981 0
27.340000 0.331814 0
27.345000 0.354856 0
27.350000 0.374497 0
27.355000 0.390190 0
27.360000 0.401484 0
27.365000 0.408040 0
27.370000 0.409650 5
27.375000 0.406246 0
27.380000 0.397903 0
27.385000 0.384837 0
27.390000 0.367398 0
27.395000 0.346046 0
27.400000 0.321341 0
27.405000 0.293908 0
27.410000 0.264417 0
27.415000 0.233556 0
27.420000 0.201998 0
27.425000 0.170385 0
27.430000 0.139303 0
27.435000 0.109268 0
27.440000 0.080710 0
27.445000 0.053976 0
27.450000 0.029317 0
27.455000 0.006899 0
27.460000 -0.013195 0
27.465000 -0.030955 0
27.470000 -0.046433 0
27.475000 -0.059733 0
27.480000 -0.070995 0
27.485000 -0.080388 0
27.490000 -0.088096 0
27.495000 -0.094311 0
27.500000 -0.099223 0
27.505000 -0.103015 0
27.510000 -0.105858 0
27.515000 -0.107908 0
27.520000 -0.109305 0
27.525000 -0.110170 0
27.530000 -0.110407 0
27.535000 -0.109450 0
27.540000 -0.108497 0
27.545000 -0.107550 0
27.550000 -0.106607 0
27.555000 -0.105669 0
27.560000 -0.104735 0
27.565000 -0.103806 0
27.570000 -0.102880 0
27.575000 -0.101958 0
27.580000 -0.101038 0
27.585000 -0.100116 0
27.590000 -0.099190 0
27.595000 -0.098249 0
27.600000 -0.097281 0
27.605000 -0.096263 0
27.610000 -0.095157 0
27.615000 -0.093908 0
27.620000 -0.092430 0
27.625000 -0.090599 0
27.630000 -0.088246 0
27.635000 -0.085140 0
27.640000 -0.080988 0
27.645000 -0.075430 0
27.650000 -0.068049 0
27.655000 -0.058394 0
27.660000 -0.046015 0
27.665000 -0.030517 0
27.670000 -0.011627 0
27.675000 0.010729 0
27.680000 0.036357 0
27.685000 0.064736 0
27.690000 0.094990 0
27.695000 0.125899 0
27.700000 0.155963 0
27.705000 0.183507 0
27.710000 0.206832 0
27.715000 0.224389 0
27.720000 0.234942 0
27.725000 0.237719 1
27.730000 0.232501 0
27.735000 0.219650 0
27.740000 0.200070 0
27.745000 0.175100 0
27.750000 0.146361 0
27.755000 0.115576 0
27.760000 0.084366 0
27.765000 0.054005 0
27.770000 0.025051 0
27.775000 -0.003202 0
27.780000 -0.033284 0
27.785000 -0.069410 0
27.790000 -0.115490 0
27.795000 -0.170902 0
27.800000 -0.225905 0
27.805000 -0.260328 2
27.810000 -0.247410 0
27.815000 -0.160564 0
27.820000 0.019315 0
27.825000 0.293503 0
27.830000 0.629965 0
27.835000 0.953634 0
27.840000 1.163407 0
27.845000 1.179855 3
27.850000 0.991648 0
27.855000 0.663658 0
27.860000 0.299692 0
27.865000 -0.012522 0
27.870000 -0.225954 0
27.875000 -0.330124 0
27.880000 -0.339269 4
27.885000 -0.283549 0
27.890000 -0.199375 0
27.895000 -0.117093 0
27.900000 -0.052436 0
27.905000 -0.006922 0
27.910000 0.025465 0
27.915000 0.051638 0
27.920000 0.076271 0
27.925000 0.101619 0
27.930000 0.128419 0
27.935000 0.156687 0
27.940000 0.186126 0
27.945000 0.216288 0
27.950000 0.246632 0
27.955000 0.276547 0
27.960000 0.305372 0
27.965000 0.332418 0
27.970000 0.356998 0
27.975000 0.378450 0
27.980000 0.396170 0
27.985000 0.409639 0
27.990000 0.418445 0
27.995000 0.422306 5
28.000000 0.421083 0
28.005000 0.414788 0
28.010000 0.403580 0
28.015000 0.387766 0
28.020000 0.367778 0
28.025000 0.344157 0
28.030000 0.317528 0
28.035000 0.288571 0
28.040000 0.257993 0
28.045000 0.226499 0
28.050000 0.194762 0
28.055000 0.163408 0
28.060000 0.132989 0
28.065000 0.103975 0
28.070000 0.076742 0
28.075000 0.051572 0
28.080000 0.028654 0
28.085000 0.008089 0
28.090000 -0.010102 0
28.095000 -0.025963 0
28.100000 -0.039594 0
28.105000 -0.051139 0
28.110000 -0.060767 0
28.115000 -0.068670 0
28.120000 -0.075044 0
28.125000 -0.080086 0
28.130000 -0.083985 0
28.135000 -0.086918 0
28.140000 -0.089047 0
28.145000 -0.090516 0
28.150000 -0.091449 0
28.155000 -0.091757 0
28.160000 -0.090893 0
28.165000 -0.090033 0
28.170000 -0.089178 0
28.175000 -0.088326 0
28.180000 -0.087479 0
28.185000 -0.086636 0
28.190000 -0.085797 0
28.195000 -0.084961 0
28.200000 -0.084128 0
28.205000 -0.083295 0
28.210000 -0.082460 0
28.215000 -0.081618 0
28.220000 -0.080757 0
28.225000 -0.079863 0
28.230000 -0.078906 0
28.235000 -0.077844 0
28.240000 -0.076608 0
28.245000 -0.075098 0
28.250000 -0.073169 0
28.255000 -0.070622 0
28.260000 -0.067193 0
28.265000 -0.062549 0
28.270000 -0.056289 0
28.275000 -0.047964 0
28.280000 -0.037100 0
28.285000 -0.023253 0
28.290000 -0.006071 0
28.295000 0.014632 0
28.300000 0.038790 0
28.305000 0.066020 0
28.310000 0.095571 0
28.315000 0.126325 0
28.320000 0.156833 0
28.325000 0.185414 0
28.330000 0.210303 0
28.335000 0.229824 0
28.340000 0.242579 0
28.345000 0.247608 1
28.350000 0.244512 0
28.355000 0.233502 0
28.360000 0.215377 0
28.365000 0.191424 0
28.370000 0.163270 0
28.375000 0.132687 0
28.380000 0.101390 0
28.385000 0.070776 0
28.390000 0.041570 0
