0.000000 1.154091 3
0.005000 1.054874 0
0.010000 0.803499 0
0.015000 0.473620 0
0.020000 0.145948 0
0.025000 -0.121121 0
0.030000 -0.299653 0
0.035000 -0.386104 0
0.040000 -0.393551 4
0.045000 -0.346131 0
0.050000 -0.272553 0
0.055000 -0.197765 0
0.060000 -0.136548 0
0.065000 -0.092623 0
0.070000 -0.062505 0
0.075000 -0.040458 0
0.080000 -0.021683 0
0.085000 -0.003259 0
0.090000 0.016216 0
0.095000 0.037264 0
0.100000 0.059992 0
0.105000 0.084312 0
0.110000 0.110038 0
0.115000 0.136903 0
0.120000 0.164577 0
0.125000 0.192664 0
0.130000 0.220715 0
0.135000 0.248238 0
0.140000 0.274708 0
0.145000 0.299585 0
0.150000 0.322331 0
0.155000 0.342429 0
0.160000 0.359404 0
0.165000 0.372838 0
0.170000 0.382388 0
0.175000 0.387804 0
0.180000 0.388932 5
0.185000 0.385728 0
0.190000 0.378258 0
0.195000 0.366691 0
0.200000 0.351301 0
0.205000 0.332448 0
0.210000 0.310568 0
0.215000 0.286156 0
0.220000 0.259744 0
0.225000 0.231886 0
0.230000 0.203136 0
0.235000 0.174032 0
0.240000 0.145075 0
0.245000 0.116724 0
0.250000 0.089379 0
0.255000 0.063375 0
0.260000 0.038980 0
0.265000 0.016393 0
0.270000 -0.004254 0
0.275000 -0.022890 0
0.280000 -0.039503 0
0.285000 -0.054127 0
0.290000 -0.066837 0
0.295000 -0.077740 0
0.300000 -0.086966 0
0.305000 -0.094661 0
0.310000 -0.100978 0
0.315000 -0.106072 0
0.320000 -0.110096 0
0.325000 -0.113197 0
0.330000 -0.115509 0
0.335000 -0.117158 0
0.340000 -0.118254 0
0.345000 -0.118895 0
0.350000 -0.119167 0
0.355000 -0.119143 0
0.360000 -0.118882 0
0.365000 -0.117961 0
0.370000 -0.116932 0
0.375000 -0.115908 0
0.380000 -0.114890 0
0.385000 -0.113876 0
0.390000 -0.112868 0
0.395000 -0.111864 0
0.400000 -0.110866 0
0.405000 -0.109872 0
0.410000 -0.108884 0
0.415000 -0.107900 0
0.420000 -0.106921 0
0.425000 -0.105946 0
0.430000 -0.104975 0
0.435000 -0.104007 0
0.440000 -0.103040 0
0.445000 -0.102071 0
0.450000 -0.101095 0
0.455000 -0.100103 0
0.460000 -0.099081 0
0.465000 -0.098007 0
0.470000 -0.096847 0
0.475000 -0.095550 0
0.480000 -0.094042 0
0.485000 -0.092218 0
0.490000 -0.089939 0
0.495000 -0.087017 0
0.500000 -0.083220 0
0.505000 -0.078261 0
0.510000 -0.071813 0
0.515000 -0.063513 0
0.520000 -0.052993 0
0.525000 -0.039911 0
0.530000 -0.023996 0
0.535000 -0.005100 0
0.540000 0.016748 0
0.545000 0.041297 0
0.550000 0.068036 0
0.555000 0.096182 0
0.560000 0.124700 0
0.565000 0.152350 0
0.570000 0.177770 0
0.575000 0.199586 0
0.580000 0.216528 0
0.585000 0.227558 0
0.590000 0.231973 1
0.595000 0.229479 0
0.600000 0.220224 0
0.605000 0.204785 0
0.610000 0.184107 0
0.615000 0.159409 0
0.620000 0.132064 0
0.625000 0.103470 0
0.630000 0.074929 0
0.635000 0.047506 0
0.640000 0.021866 0
0.645000 -0.001997 0
0.650000 -0.025150 0
0.655000 -0.050072 0
0.660000 -0.080437 0
0.665000 -0.119596 0
0.670000 -0.167539 0
0.675000 -0.217510 0
0.680000 -0.254618 0
0.685000 -0.257969 2
0.690000 -0.205273 0
0.695000 -0.077904 0
0.700000 0.133032 0
0.705000 0.417006 0
0.710000 0.733029 0
0.715000 1.008967 0
0.720000 1.162906 3
0.725000 1.140071 0
0.730000 0.944261 0
0.735000 0.635875 0
0.740000 0.298603 0
0.745000 0.003000 0
0.750000 -0.210771 0
0.755000 -0.330728 0
0.760000 -0.364635 4
0.765000 -0.333586 0
0.770000 -0.266034 0
0.775000 -0.189595 0
0.780000 -0.123185 0
0.785000 -0.074026 0
0.790000 -0.040356 0
0.795000 -0.016597 0
0.800000 0.002607 0
0.805000 0.020788 0
0.810000 0.039747 0
0.815000 0.060206 0
0.820000 0.082357 0
0.825000 0.106150 0
0.830000 0.131416 0
0.835000 0.157903 0
0.840000 0.185290 0
0.845000 0.213190 0
0.850000 0.241156 0
0.855000 0.268696 0
0.860000 0.295282 0
0.865000 0.320366 0
0.870000 0.343400 0
0.875000 0.363852 0
0.880000 0.381230 0
0.885000 0.395099 0
0.890000 0.405098 0
0.895000 0.410958 0
0.900000 0.412508 5
0.905000 0.409691 0
0.910000 0.402558 0
0.915000 0.391272 0
0.920000 0.376100 0
0.925000 0.357401 0
0.930000 0.335612 0
0.935000 0.311233 0
0.940000 0.284804 0
0.945000 0.256885 0
0.950000 0.228042 0
0.955000 0.198822 0
0.960000 0.169736 0
0.965000 0.141253 0
0.970000 0.113779 0
0.975000 0.087656 0
0.980000 0.063157 0
0.985000 0.040483 0
0.990000 0.019768 0
0.995000 0.001081 0
1.000000 -0.015566 0
1.005000 -0.030210 0
1.010000 -0.042930 0
1.015000 -0.053835 0
1.020000 -0.063059 0
1.025000 -0.070751 0
1.030000 -0.077067 0
1.035000 -0.082165 0
1.040000 -0.086201 0
1.045000 -0.089321 0
1.050000 -0.091662 0
1.055000 -0.093348 0
1.060000 -0.094492 0
1.065000 -0.095190 0
1.070000 -0.095528 0
1.075000 -0.095577 0
1.080000 -0.095397 0
1.085000 -0.094587 0
1.090000 -0.093675 0
1.095000 -0.092767 0
1.100000 -0.091864 0
1.105000 -0.090965 0
1.110000 -0.090071 0
1.115000 -0.089182 0
1.120000 -0.088296 0
1.125000 -0.087415 0
1.130000 -0.086539 0
1.135000 -0.085666 0
1.140000 -0.084798 0
1.145000 -0.083933 0
1.150000 -0.083072 0
1.155000 -0.082212 0
1.160000 -0.081352 0
1.165000 -0.080488 0
1.170000 -0.079614 0
1.175000 -0.078719 0
1.180000 -0.077787 0
1.185000 -0.076791 0
1.190000 -0.075692 0
1.195000 -0.074428 0
1.200000 -0.072916 0
1.205000 -0.071035 0
1.210000 -0.068625 0
1.215000 -0.065478 0
1.220000 -0.061334 0
1.225000 -0.055883 0
1.230000 -0.048775 0
1.235000 -0.039635 0
1.240000 -0.028097 0
1.245000 -0.013837 0
1.250000 0.003368 0
1.255000 0.023593 0
1.260000 0.046705 0
1.265000 0.072323 0
1.270000 0.099793 0
1.275000 0.128184 0
1.280000 0.156329 0
1.285000 0.182893 0
1.290000 0.206467 0
1.295000 0.225695 0
1.300000 0.239400 0
1.305000 0.246702 0
1.310000 0.247113 1
1.315000 0.240588 0
1.320000 0.227535 0
1.325000 0.208769 0
1.330000 0.185429 0
1.335000 0.158865 0
1.340000 0.130505 0
1.345000 0.101723 0
1.350000 0.073710 0
1.355000 0.047314 0
1.360000 0.022810 0
1.365000 -0.000466 0
1.370000 -0.024531 0
1.375000 -0.052809 0
1.380000 -0.089081 0
1.385000 -0.134791 0
1.390000 -0.185436 0
1.395000 -0.228258 0
1.400000 -0.243354 2
1.405000 -0.207939 0
1.410000 -0.101558 0
1.415000 0.088178 0
1.420000 0.356677 0
1.425000 0.670546 0
1.430000 0.962895 0
1.435000 1.149670 0
1.440000 1.166676 3
1.445000 1.003767 0
1.450000 0.711176 0
1.455000 0.373173 0
1.460000 0.066601 0
1.465000 -0.161737 0
1.470000 -0.295485 0
1.475000 -0.340084 4
1.480000 -0.315630 0
1.485000 -0.250764 0
1.490000 -0.174310 0
1.495000 -0.106749 0
1.500000 -0.056455 0
1.505000 -0.022120 0
1.510000 0.001868 0
1.515000 0.021062 0
1.520000 0.039150 0
1.525000 0.058008 0
1.530000 0.078386 0
1.535000 0.100479 0
1.540000 0.124234 0
1.545000 0.149474 0
1.550000 0.175938 0
1.555000 0.203292 0
1.560000 0.231136 0
1.565000 0.259007 0
1.570000 0.286396 0
1.575000 0.312758 0
1.580000 0.337531 0
1.585000 0.360153 0
1.590000 0.380084 0
1.595000 0.396827 0
1.600000 0.409947 0
1.605000 0.419090 0
1.610000 0.423998 0
1.615000 0.424521 5
1.620000 0.420623 0
1.625000 0.412385 0
1.630000 0.399999 0
1.635000 0.383766 0
1.640000 0.364077 0
1.645000 0.341399 0
1.650000 0.316260 0
1.655000 0.289221 0
1.660000 0.260863 0
1.665000 0.231758 0
1.670000 0.202459 0
1.675000 0.173475 0
1.680000 0.145263 0
1.685000 0.118216 0
1.690000 0.092657 0
1.695000 0.068835 0
1.700000 0.046926 0
1.705000 0.027038 0
1.710000 0.009216 0
1.715000 -0.006553 0
1.720000 -0.020328 0
1.725000 -0.032205 0
1.730000 -0.042312 0
1.735000 -0.050794 0
1.740000 -0.057808 0
1.745000 -0.063516 0
1.750000 -0.068079 0
1.755000 -0.071651 0
1.760000 -0.074378 0
1.765000 -0.076393 0
1.770000 -0.077815 0
1.775000 -0.078751 0
1.780000 -0.079290 0
1.785000 -0.079512 0
1.790000 -0.079483 0
1.795000 -0.078763 0
1.800000 -0.077929 0
1.805000 -0.077100 0
1.810000 -0.076275 0
1.815000 -0.075454 0
1.820000 -0.074638 0
1.825000 -0.073825 0
1.830000 -0.073016 0
1.835000 -0.072211 0
1.840000 -0.071411 0
1.845000 -0.070614 0
1.850000 -0.069821 0
1.855000 -0.069031 0
1.860000 -0.068244 0
1.865000 -0.067458 0
1.870000 -0.066673 0
1.875000 -0.065883 0
1.880000 -0.065084 0
1.885000 -0.064264 0
1.890000 -0.063408 0
1.895000 -0.062490 0
1.900000 -0.061469 0
1.905000 -0.060286 0
1.910000 -0.058853 0
1.915000 -0.057049 0
1.920000 -0.054712 0
1.925000 -0.051626 0
1.930000 -0.047526 0
1.935000 -0.042092 0
1.940000 -0.034965 0
1.945000 -0.025759 0
1.950000 -0.014099 0
1.955000 0.000339 0
1.960000 0.017775 0
1.965000 0.038266 0
1.970000 0.061652 0
1.975000 0.087507 0
1.980000 0.115121 0
1.985000 0.143502 0
1.990000 0.171419 0
1.995000 0.197481 0
2.000000 0.220245 0
2.005000 0.238346 0
2.010000 0.250633 0
2.015000 0.256284 1
2.020000 0.254905 0
2.025000 0.246566 0
2.030000 0.231801 0
2.035000 0.211545 0
2.040000 0.187044 0
2.045000 0.159717 0
2.050000 0.131026 0
2.055000 0.102334 0
2.060000 0.074764 0
2.065000 0.049011 0
2.070000 0.025055 0
2.075000 0.001737 0
2.080000 -0.023612 0
2.085000 -0.054866 0
2.090000 -0.095321 0
2.095000 -0.144281 0
2.100000 -0.193512 0
2.105000 -0.226244 2
2.110000 -0.220048 0
2.115000 -0.152050 0
2.120000 -0.004490 0
2.125000 0.227974 0
2.130000 0.526761 0
2.135000 0.838958 0
2.140000 1.082788 0
2.145000 1.178181 3
2.150000 1.088201 0
2.155000 0.840465 0
2.160000 0.510854 0
2.165000 0.183619 0
2.170000 -0.080702 0
2.175000 -0.253954 0
2.180000 -0.333603 0
2.185000 -0.334424 4
2.190000 -0.282451 0
2.195000 -0.207628 0
2.200000 -0.134719 0
2.205000 -0.077097 0
2.210000 -0.036819 0
2.215000 -0.009364 0
2.220000 0.011220 0
2.225000 0.029452 0
2.230000 0.047874 0
2.235000 0.067609 0
2.240000 0.089024 0
2.245000 0.112143 0
2.250000 0.136830 0
2.255000 0.162856 0
2.260000 0.189915 0
2.265000 0.217629 0
2.270000 0.245560 0
2.275000 0.273215 0
2.280000 0.300059 0
2.285000 0.325533 0
2.290000 0.349073 0
2.295000 0.370126 0
2.300000 0.388175 0
2.305000 0.402758 0
2.310000 0.413486 0
2.315000 0.420062 0
2.320000 0.422293 5
2.325000 0.420099 0
2.330000 0.413515 0
2.335000 0.402693 0
2.340000 0.387893 0
2.345000 0.369475 0
2.350000 0.347880 0
2.355000 0.323616 0
2.360000 0.297236 0
2.365000 0.269316 0
2.370000 0.240436 0
2.375000 0.211159 0
2.380000 0.182012 0
2.385000 0.153475 0
2.390000 0.125966 0
2.395000 0.099835 0
2.400000 0.075360 0
2.405000 0.052743 0
2.410000 0.032117 0
2.415000 0.013550 0
2.420000 -0.002952 0
2.425000 -0.017432 0
2.430000 -0.029973 0
2.435000 -0.040694 0
2.440000 -0.049734 0
2.445000 -0.057246 0
2.450000 -0.063394 0
2.455000 -0.068338 0
2.460000 -0.072237 0
2.465000 -0.075240 0
2.470000 -0.077484 0
2.475000 -0.079094 0
2.480000 -0.080180 0
2.485000 -0.080840 0
2.490000 -0.081157 0
2.495000 -0.081200 0
2.500000 -0.080931 0
2.505000 -0.080087 0
2.510000 -0.079247 0
2.515000 -0.078411 0
2.520000 -0.077580 0
2.525000 -0.076752 0
2.530000 -0.075929 0
2.535000 -0.075110 0
2.540000 -0.074295 0
2.545000 -0.073484 0
2.550000 -0.072677 0
2.555000 -0.071873 0
2.560000 -0.071073 0
2.565000 -0.070277 0
2.570000 -0.069482 0
2.575000 -0.068688 0
2.580000 -0.067891 0
2.585000 -0.067087 0
2.590000 -0.066267 0
2.595000 -0.065417 0
2.600000 -0.064514 0
2.605000 -0.063524 0
2.610000 -0.062393 0
2.615000 -0.061044 0
2.620000 -0.059367 0
2.625000 -0.057214 0
2.630000 -0.054386 0
2.635000 -0.050635 0
2.640000 -0.045656 0
2.645000 -0.039100 0
2.650000 -0.030587 0
2.655000 -0.019733 0
2.660000 -0.006191 0
2.665000 0.010297 0
2.670000 0.029846 0
2.675000 0.052370 0
2.680000 0.077528 0
2.685000 0.104699 0
2.690000 0.132973 0
2.695000 0.161184 0
2.700000 0.187978 0
2.705000 0.211911 0
2.710000 0.231577 0
2.715000 0.245744 0
2.720000 0.253476 0
2.725000 0.254243 1
2.730000 0.247971 0
2.735000 0.235059 0
2.740000 0.216335 0
2.745000 0.192963 0
2.750000 0.166330 0
2.755000 0.137902 0
2.760000 0.109088 0
2.765000 0.081101 0
2.770000 0.054787 0
2.775000 0.030375 0
2.780000 0.007083 0
2.785000 -0.017307 0
2.790000 -0.046433 0
2.795000 -0.084056 0
2.800000 -0.131032 0
2.805000 -0.181537 0
2.810000 -0.221081 0
2.815000 -0.228321 2
2.820000 -0.179905 0
2.825000 -0.055987 0
2.830000 0.153267 0
2.835000 0.437280 0
2.840000 0.753083 0
2.845000 1.024762 0
2.850000 1.167397 3
2.855000 1.129271 0
2.860000 0.921154 0
2.865000 0.607052 0
2.870000 0.270982 0
2.875000 -0.018611 0
2.880000 -0.224208 0
2.885000 -0.335883 0
2.890000 -0.362844 4
2.895000 -0.327185 0
2.900000 -0.257723 0
2.905000 -0.181611 0
2.910000 -0.116730 0
2.915000 -0.069264 0
2.920000 -0.036843 0
2.925000 -0.013759 0
2.930000 0.005210 0
2.935000 0.023408 0
2.940000 0.042498 0
2.945000 0.063129 0
2.950000 0.085456 0
2.955000 0.109414 0
2.960000 0.134823 0
2.965000 0.161424 0
2.970000 0.188886 0
2.975000 0.216813 0
2.980000 0.244755 0
2.985000 0.272211 0
2.990000 0.298648 0
2.995000 0.323518 0
3.000000 0.346270 0
3.005000 0.366376 0
3.010000 0.383349 0
3.015000 0.396760 0
3.020000 0.406258 0
3.025000 0.411584 0
3.030000 0.412583 5
3.035000 0.409208 0
3.040000 0.401527 0
3.045000 0.389717 0
3.050000 0.374057 0
3.055000 0.354920 0
3.060000 0.332753 0
3.065000 0.308063 0
3.070000 0.281395 0
3.075000 0.253314 0
3.080000 0.224385 0
3.085000 0.195151 0
3.090000 0.166122 0
3.095000 0.137757 0
3.100000 0.110455 0
3.105000 0.084550 0
3.110000 0.060305 0
3.115000 0.037911 0
3.120000 0.017492 0
3.125000 -0.000891 0
3.130000 -0.017234 0
3.135000 -0.031582 0
3.140000 -0.044017 0
3.145000 -0.054655 0
3.150000 -0.063633 0
3.155000 -0.071100 0
3.160000 -0.077216 0
3.165000 -0.082137 0
3.170000 -0.086019 0
3.175000 -0.089006 0
3.180000 -0.091236 0
3.185000 -0.092829 0
3.190000 -0.093895 0
3.195000 -0.094531 0
3.200000 -0.094819 0
3.205000 -0.094829 0
3.210000 -0.094516 0
3.215000 -0.093605 0
3.220000 -0.092697 0
3.225000 -0.091794 0
3.230000 -0.090896 0
3.235000 -0.090002 0
3.240000 -0.089113 0
3.245000 -0.088228 0
3.250000 -0.087348 0
3.255000 -0.086471 0
3.260000 -0.085599 0
3.265000 -0.084732 0
3.270000 -0.083868 0
3.275000 -0.083008 0
3.280000 -0.082150 0
3.285000 -0.081294 0
3.290000 -0.080438 0
3.295000 -0.079576 0
3.300000 -0.078702 0
3.305000 -0.077806 0
3.310000 -0.076867 0
3.315000 -0.075858 0
3.320000 -0.074735 0
3.325000 -0.073434 0
3.330000 -0.071861 0
3.335000 -0.069891 0
3.340000 -0.067352 0
3.345000 -0.064026 0
3.350000 -0.059641 0
3.355000 -0.053879 0
3.360000 -0.046379 0
3.365000 -0.036767 0
3.370000 -0.024678 0
3.375000 -0.009807 0
3.380000 0.008043 0
3.385000 0.028907 0
3.390000 0.052603 0
3.395000 0.078688 0
3.400000 0.106446 0
3.405000 0.134889 0
3.410000 0.162801 0
3.415000 0.188816 0
3.420000 0.211526 0
3.425000 0.229598 0
3.430000 0.241911 0
3.435000 0.247665 1
3.440000 0.246468 0
3.445000 0.238381 0
3.450000 0.223913 0
3.455000 0.203966 0
3.460000 0.179742 0
3.465000 0.152623 0
3.470000 0.124041 0
3.475000 0.095343 0
3.480000 0.067655 0
3.485000 0.041716 0
3.490000 0.017613 0
3.495000 -0.005614 0
3.500000 -0.030354 0
3.505000 -0.060285 0
3.510000 -0.098930 0
3.515000 -0.146593 0
3.520000 -0.196810 0
3.525000 -0.234742 0
3.530000 -0.239235 2
3.535000 -0.187545 0
3.540000 -0.060605 0
3.545000 0.150695 0
3.550000 0.435448 0
3.555000 0.751339 0
3.560000 1.024262 0
3.565000 1.171109 3
3.570000 1.139935 0
3.575000 0.938744 0
3.580000 0.628417 0
3.585000 0.291302 0
3.590000 -0.003725 0
3.595000 -0.217501 0
3.600000 -0.338276 0
3.605000 -0.373544 4
3.610000 -0.343844 0
3.615000 -0.277041 0
3.620000 -0.200456 0
3.625000 -0.133173 0
3.630000 -0.082875 0
3.635000 -0.048229 0
3.640000 -0.023861 0
3.645000 -0.004396 0
3.650000 0.013807 0
3.655000 0.032657 0
3.660000 0.052948 0
3.665000 0.074907 0
3.670000 0.098507 0
3.675000 0.123595 0
3.680000 0.149934 0
3.685000 0.177218 0
3.690000 0.205076 0
3.695000 0.233081 0
3.700000 0.260757 0
3.705000 0.287588 0
3.710000 0.313041 0
3.715000 0.336574 0
3.720000 0.357662 0
3.725000 0.375811 0
3.730000 0.390578 0
3.735000 0.401591 0
3.740000 0.408560 0
3.745000 0.411292 5
3.750000 0.409701 0
3.755000 0.403807 0
3.760000 0.393739 0
3.765000 0.379731 0
3.770000 0.362108 0
3.775000 0.341278 0
3.780000 0.317713 0
3.785000 0.291933 0
3.790000 0.264485 0
3.795000 0.235923 0
3.800000 0.206794 0
3.805000 0.177615 0
3.810000 0.148863 0
3.815000 0.120962 0
3.820000 0.094273 0
3.825000 0.069092 0
3.830000 0.045646 0
3.835000 0.024094 0
3.840000 0.004529 0
3.845000 -0.013011 0
3.850000 -0.028544 0
3.855000 -0.042128 0
3.860000 -0.053859 0
3.865000 -0.063857 0
3.870000 -0.072263 0
3.875000 -0.079227 0
3.880000 -0.084905 0
3.885000 -0.089451 0
3.890000 -0.093013 0
3.895000 -0.095733 0
3.900000 -0.097738 0
3.905000 -0.099146 0
3.910000 -0.100059 0
3.915000 -0.100569 0
3.920000 -0.100753 0
3.925000 -0.100677 0
3.930000 -0.100299 0
3.935000 -0.099358 0
3.940000 -0.098422 0
3.945000 -0.097491 0
3.950000 -0.096564 0
3.955000 -0.095642 0
3.960000 -0.094725 0
3.965000 -0.093812 0
3.970000 -0.092903 0
3.975000 -0.091999 0
3.980000 -0.091100 0
3.985000 -0.090205 0
3.990000 -0.089314 0
3.995000 -0.088426 0
4.000000 -0.087541 0
4.005000 -0.086658 0
4.010000 -0.085775 0
4.015000 -0.084886 0
4.020000 -0.083985 0
4.025000 -0.083061 0
4.030000 -0.082095 0
4.035000 -0.081059 0
4.040000 -0.079910 0
4.045000 -0.078585 0
4.050000 -0.076995 0
4.055000 -0.075014 0
4.060000 -0.072478 0
4.065000 -0.069175 0
4.070000 -0.064841 0
4.075000 -0.059167 0
4.080000 -0.051803 0
4.085000 -0.042381 0
4.090000 -0.030542 0
4.095000 -0.015979 0
4.100000 0.001517 0
4.105000 0.022001 0
4.110000 0.045327 0
4.115000 0.071100 0
4.120000 0.098660 0
4.125000 0.127079 0
4.130000 0.155204 0
4.135000 0.181714 0
4.140000 0.205230 0
4.145000 0.224419 0
4.150000 0.238129 0
4.155000 0.245495 0
4.160000 0.246035 1
4.165000 0.239697 0
4.170000 0.226870 0
4.175000 0.208343 0
4.180000 0.185222 0
4.185000 0.158826 0
4.190000 0.130557 0
4.195000 0.101772 0
4.200000 0.073661 0
4.205000 0.047095 0
4.210000 0.022413 0
4.215000 -0.000914 0
4.220000 -0.024697 0
4.225000 -0.052154 0
4.230000 -0.087075 0
4.235000 -0.131429 0
4.240000 -0.181902 0
4.245000 -0.227302 0
4.250000 -0.249035 2
4.255000 -0.224847 0
4.260000 -0.133818 0
4.265000 0.038354 0
4.270000 0.291561 0
4.275000 0.599988 0
4.280000 0.904802 0
4.285000 1.124589 0
4.290000 1.187739 3
4.295000 1.069178 0
4.300000 0.804564 0
4.305000 0.470846 0
4.310000 0.147845 0
4.315000 -0.109291 0
4.320000 -0.275944 0
4.325000 -0.351074 4
4.330000 -0.349637 0
4.335000 -0.297017 0
4.340000 -0.222121 0
4.345000 -0.148894 0
4.350000 -0.090493 0
4.355000 -0.049247 0
4.360000 -0.020989 0
4.365000 0.000058 0
4.370000 0.018435 0
4.375000 0.036787 0
4.380000 0.056332 0
4.385000 0.077499 0
4.390000 0.100347 0
4.395000 0.124767 0
4.400000 0.150554 0
4.405000 0.177428 0
4.410000 0.205041 0
4.415000 0.232985 0
4.420000 0.260797 0
4.425000 0.287973 0
4.430000 0.313978 0
4.435000 0.338269 0
4.440000 0.360306 0
4.445000 0.379575 0
4.450000 0.395610 0
4.455000 0.408004 0
4.460000 0.416433 0
4.465000 0.420667 5
4.470000 0.420577 0
4.475000 0.416144 0
4.480000 0.407463 0
4.485000 0.394730 0
4.490000 0.378245 0
4.495000 0.358392 0
4.500000 0.335628 0
4.505000 0.310463 0
4.510000 0.283442 0
4.515000 0.255124 0
4.520000 0.226064 0
4.525000 0.196797 0
4.530000 0.167816 0
4.535000 0.139567 0
4.540000 0.112434 0
4.545000 0.086736 0
4.550000 0.062721 0
4.555000 0.040570 0
4.560000 0.020394 0
4.565000 0.002247 0
4.570000 -0.013874 0
4.575000 -0.028019 0
4.580000 -0.040273 0
4.585000 -0.050755 0
4.590000 -0.059600 0
4.595000 -0.066958 0
4.600000 -0.072986 0
4.605000 -0.077840 0
4.610000 -0.081672 0
4.615000 -0.084625 0
4.620000 -0.086832 0
4.625000 -0.088414 0
4.630000 -0.089478 0
4.635000 -0.090118 0
4.640000 -0.090415 0
4.645000 -0.090438 0
4.650000 -0.090143 0
4.655000 -0.089253 0
4.660000 -0.088367 0
4.665000 -0.087486 0
4.670000 -0.086609 0
4.675000 -0.085737 0
4.680000 -0.084869 0
4.685000 -0.084005 0
4.690000 -0.083146 0
4.695000 -0.082290 0
4.700000 -0.081439 0
4.705000 -0.080592 0
4.710000 -0.079749 0
4.715000 -0.078910 0
4.720000 -0.078073 0
4.725000 -0.077237 0
4.730000 -0.076401 0
4.735000 -0.075561 0
4.740000 -0.074709 0
4.745000 -0.073835 0
4.750000 -0.072921 0
4.755000 -0.071940 0
4.760000 -0.070851 0
4.765000 -0.069592 0
4.770000 -0.068075 0
4.775000 -0.066179 0
4.780000 -0.063740 0
4.785000 -0.060549 0
4.790000 -0.056344 0
4.795000 -0.050815 0
4.800000 -0.043612 0
4.805000 -0.034364 0
4.810000 -0.022708 0
4.815000 -0.008330 0
4.820000 0.008989 0
4.825000 0.029311 0
4.830000 0.052498 0
4.835000 0.078161 0
4.840000 0.105644 0
4.845000 0.134017 0
4.850000 0.162121 0
4.855000 0.188627 0
4.860000 0.212142 0
4.865000 0.231322 0
4.870000 0.245002 0
4.875000 0.252309 0
4.880000 0.252759 1
4.885000 0.246302 0
4.890000 0.233337 0
4.895000 0.214665 0
4.900000 0.191408 0
4.905000 0.164900 0
4.910000 0.136555 0
4.915000 0.107741 0
4.920000 0.079647 0
4.925000 0.053133 0
4.930000 0.028509 0
4.935000 0.005181 0
4.940000 -0.018762 0
4.945000 -0.046639 0
4.950000 -0.082241 0
4.955000 -0.127296 0
4.960000 -0.177922 0
4.965000 -0.222165 0
4.970000 -0.240782 2
4.975000 -0.211238 0
4.980000 -0.112811 0
4.985000 0.067917 0
4.990000 0.328735 0
4.995000 0.640200 0
5.000000 0.939488 0
5.005000 1.143642 0
5.010000 1.184350 3
5.015000 1.043512 0
5.020000 0.763964 0
5.025000 0.427144 0
5.030000 0.112070 0
5.035000 -0.130106 0
5.040000 -0.279090 0
5.045000 -0.337382 4
5.050000 -0.322854 0
5.055000 -0.262906 0
5.060000 -0.186701 0
5.065000 -0.116467 0
5.070000 -0.062712 0
5.075000 -0.025600 0
5.080000 -0.000005 0
5.085000 0.019807 0
5.090000 0.037907 0
5.095000 0.056487 0
5.100000 0.076475 0
5.105000 0.098152 0
5.110000 0.121507 0
5.115000 0.146390 0
5.120000 0.172561 0
5.125000 0.199706 0
5.130000 0.227446 0
5.135000 0.255340 0
5.140000 0.282893 0
5.145000 0.309577 0
5.150000 0.334837 0
5.155000 0.358117 0
5.160000 0.378873 0
5.165000 0.396600 0
5.170000 0.410847 0
5.175000 0.421238 0
5.180000 0.427488 0
5.185000 0.429412 5
5.190000 0.426940 0
5.195000 0.420112 0
5.200000 0.409083 0
5.205000 0.394116 0
5.210000 0.375567 0
5.215000 0.353876 0
5.220000 0.329544 0
5.225000 0.303117 0
5.230000 0.275165 0
5.235000 0.246260 0
5.240000 0.216956 0
5.245000 0.187776 0
5.250000 0.159193 0
5.255000 0.131622 0
5.260000 0.105411 0
5.265000 0.080834 0
5.270000 0.058097 0
5.275000 0.037334 0
5.280000 0.018613 0
5.285000 0.001947 0
5.290000 -0.012705 0
5.295000 -0.025424 0
5.300000 -0.036321 0
5.305000 -0.045535 0
5.310000 -0.053216 0
5.315000 -0.059522 0
5.320000 -0.064616 0
5.325000 -0.068651 0
5.330000 -0.071778 0
5.335000 -0.074134 0
5.340000 -0.075843 0
5.345000 -0.077017 0
5.350000 -0.077753 0
5.355000 -0.078136 0
5.360000 -0.078236 0
5.365000 -0.078011 0
5.370000 -0.077181 0
5.375000 -0.076356 0
5.380000 -0.075534 0
5.385000 -0.074717 0
5.390000 -0.073904 0
5.395000 -0.073095 0
5.400000 -0.072290 0
5.405000 -0.071489 0
5.410000 -0.070692 0
5.415000 -0.069899 0
5.420000 -0.069109 0
5.425000 -0.068323 0
5.430000 -0.067541 0
5.435000 -0.066760 0
5.440000 -0.065981 0
5.445000 -0.065200 0
5.450000 -0.064414 0
5.455000 -0.063614 0
5.460000 -0.062789 0
5.465000 -0.061920 0
5.470000 -0.060977 0
5.475000 -0.059912 0
5.480000 -0.058660 0
5.485000 -0.057122 0
5.490000 -0.055166 0
5.495000 -0.052614 0
5.500000 -0.049237 0
5.505000 -0.044756 0
5.510000 -0.038839 0
5.515000 -0.031121 0
5.520000 -0.021220 0
5.525000 -0.008776 0
5.530000 0.006509 0
5.535000 0.024810 0
5.540000 0.046128 0
5.545000 0.070235 0
5.550000 0.096634 0
5.555000 0.124546 0
5.560000 0.152923 0
5.565000 0.180499 0
5.570000 0.205872 0
5.575000 0.227625 0
5.580000 0.244444 0
5.585000 0.255258 0
5.590000 0.259347 1
5.595000 0.256418 0
5.600000 0.246645 0
5.605000 0.230646 0
5.610000 0.209418 0
5.615000 0.184239 0
5.620000 0.156531 0
5.625000 0.127732 0
5.630000 0.099158 0
5.635000 0.071858 0
5.640000 0.046423 0
5.645000 0.022679 0
5.650000 -0.000745 0
5.655000 -0.026722 0
5.660000 -0.059155 0
5.665000 -0.100977 0
5.670000 -0.150647 0
5.675000 -0.198877 0
5.680000 -0.228132 2
5.685000 -0.215880 0
5.690000 -0.139798 0
5.695000 0.016744 0
5.700000 0.257155 0
5.705000 0.560029 0
5.710000 0.869750 0
5.715000 1.104007 0
5.720000 1.185606 3
5.725000 1.082451 0
5.730000 0.826141 0
5.735000 0.494137 0
5.740000 0.169450 0
5.745000 -0.089756 0
5.750000 -0.257334 0
5.755000 -0.331993 4
5.760000 -0.329226 0
5.765000 -0.275360 0
5.770000 -0.200144 0
5.775000 -0.127763 0
5.780000 -0.070944 0
5.785000 -0.031329 0
5.790000 -0.004267 0
5.795000 0.016145 0
5.800000 0.034330 0
5.805000 0.052759 0
5.810000 0.072517 0
5.815000 0.093954 0
5.820000 0.117088 0
5.825000 0.141783 0
5.830000 0.167807 0
5.835000 0.194856 0
5.840000 0.222553 0
5.845000 0.250460 0
5.850000 0.278088 0
5.855000 0.304903 0
5.860000 0.330351 0
5.865000 0.353869 0
5.870000 0.374907 0
5.875000 0.392951 0
5.880000 0.407540 0
5.885000 0.418289 0
5.890000 0.424899 0
5.895000 0.427178 5
5.900000 0.425044 0
5.905000 0.418530 0
5.910000 0.407784 0
5.915000 0.393063 0
5.920000 0.374722 0
5.925000 0.353198 0
5.930000 0.328996 0
5.935000 0.302662 0
5.940000 0.274771 0
5.945000 0.245899 0
5.950000 0.216606 0
5.955000 0.187422 0
5.960000 0.158824 0
5.965000 0.131232 0
5.970000 0.104997 0
5.975000 0.080401 0
5.980000 0.057648 0
5.985000 0.036876 0
5.990000 0.018154 0
5.995000 0.001494 0
6.000000 -0.013144 0
6.005000 -0.025841 0
6.010000 -0.036713 0
6.015000 -0.045896 0
6.020000 -0.053543 0
6.025000 -0.059815 0
6.030000 -0.064873 0
6.035000 -0.068875 0
6.040000 -0.071969 0
6.045000 -0.074295 0
6.050000 -0.075976 0
6.055000 -0.077125 0
6.060000 -0.077840 0
6.065000 -0.078204 0
6.070000 -0.078288 0
6.075000 -0.078052 0
6.080000 -0.077222 0
6.085000 -0.076396 0
6.090000 -0.075575 0
6.095000 -0.074758 0
6.100000 -0.073944 0
6.105000 -0.073135 0
6.110000 -0.072330 0
6.115000 -0.071529 0
6.120000 -0.070731 0
6.125000 -0.069938 0
6.130000 -0.069148 0
6.135000 -0.068362 0
6.140000 -0.067579 0
6.145000 -0.066798 0
6.150000 -0.066018 0
6.155000 -0.065236 0
6.160000 -0.064447 0
6.165000 -0.063645 0
6.170000 -0.062814 0
6.175000 -0.061936 0
6.180000 -0.060976 0
6.185000 -0.059887 0
6.190000 -0.058596 0
6.195000 -0.056999 0
6.200000 -0.054956 0
6.205000 -0.052279 0
6.210000 -0.048729 0
6.215000 -0.044014 0
6.220000 -0.037794 0
6.225000 -0.029694 0
6.230000 -0.019331 0
6.235000 -0.006348 0
6.240000 0.009531 0
6.245000 0.028456 0
6.250000 0.050384 0
6.255000 0.075030 0
6.260000 0.101834 0
6.265000 0.129951 0
6.270000 0.158269 0
6.275000 0.185474 0
6.280000 0.210137 0
6.285000 0.230842 0
6.290000 0.246313 0
6.295000 0.255543 0
6.300000 0.257906 1
6.305000 0.253224 0
6.310000 0.241787 0
6.315000 0.224325 0
6.320000 0.201927 0
6.325000 0.175932 0
6.330000 0.147792 0
6.335000 0.118937 0
6.340000 0.090634 0
6.345000 0.063834 0
6.350000 0.038951 0
6.355000 0.015508 0
6.360000 -0.008307 0
6.365000 -0.035803 0
6.370000 -0.070915 0
6.375000 -0.115634 0
6.380000 -0.166263 0
6.385000 -0.210709 0
6.390000 -0.229202 2
6.395000 -0.198507 0
6.400000 -0.097352 0
6.405000 0.087677 0
6.410000 0.353115 0
6.415000 0.666301 0
6.420000 0.959895 0
6.425000 1.148104 0
6.430000 1.164980 3
6.435000 1.001072 0
6.440000 0.708473 0
6.445000 0.370475 0
6.450000 0.063156 0
6.455000 -0.166848 0
6.460000 -0.302908 0
6.465000 -0.349976 4
6.470000 -0.327546 0
6.475000 -0.263739 0
6.480000 -0.187224 0
6.485000 -0.118788 0
6.490000 -0.067348 0
6.495000 -0.032049 0
6.500000 -0.007465 0
6.505000 0.011987 0
6.510000 0.030110 0
6.515000 0.048890 0
6.520000 0.069139 0
6.525000 0.091086 0
6.530000 0.114697 0
6.535000 0.139808 0
6.540000 0.166171 0
6.545000 0.193463 0
6.550000 0.221296 0
6.555000 0.249223 0
6.560000 0.276745 0
6.565000 0.303330 0
6.570000 0.328423 0
6.575000 0.351468 0
6.580000 0.371926 0
6.585000 0.389298 0
6.590000 0.403141 0
6.595000 0.413092 0
6.600000 0.418874 0
6.605000 0.420320 5
6.610000 0.417369 0
6.615000 0.410078 0
6.620000 0.398614 0
6.625000 0.383251 0
6.630000 0.364355 0
6.635000 0.342374 0
6.640000 0.317815 0
6.645000 0.291227 0
6.650000 0.263181 0
6.655000 0.234245 0
6.660000 0.204974 0
6.665000 0.175881 0
6.670000 0.147436 0
6.675000 0.120044 0
6.680000 0.094045 0
6.685000 0.069706 0
6.690000 0.047224 0
6.695000 0.026724 0
6.700000 0.008271 0
6.705000 -0.008133 0
6.710000 -0.022530 0
6.715000 -0.035005 0
6.720000 -0.045675 0
6.725000 -0.054677 0
6.730000 -0.062163 0
6.735000 -0.068294 0
6.740000 -0.073229 0
6.745000 -0.077123 0
6.750000 -0.080123 0
6.755000 -0.082366 0
6.760000 -0.083976 0
6.765000 -0.085061 0
6.770000 -0.085718 0
6.775000 -0.086030 0
6.780000 -0.086066 0
6.785000 -0.085785 0
6.790000 -0.084917 0
6.795000 -0.084053 0
6.800000 -0.083193 0
6.805000 -0.082338 0
6.810000 -0.081487 0
6.815000 -0.080640 0
6.820000 -0.079797 0
6.825000 -0.078959 0
6.830000 -0.078125 0
6.835000 -0.077294 0
6.840000 -0.076468 0
6.845000 -0.075645 0
6.850000 -0.074826 0
6.855000 -0.074009 0
6.860000 -0.073193 0
6.865000 -0.072376 0
6.870000 -0.071552 0
6.875000 -0.070715 0
6.880000 -0.069851 0
6.885000 -0.068942 0
6.890000 -0.067954 0
6.895000 -0.066841 0
6.900000 -0.065533 0
6.905000 -0.063930 0
6.910000 -0.061896 0
6.915000 -0.059249 0
6.920000 -0.055757 0
6.925000 -0.051134 0
6.930000 -0.045048 0
6.935000 -0.037130 0
6.940000 -0.026999 0
6.945000 -0.014299 0
6.950000 0.001259 0
6.955000 0.019839 0
6.960000 0.041424 0
6.965000 0.065767 0
6.970000 0.092350 0
6.975000 0.120371 0
6.980000 0.148766 0
6.985000 0.176254 0
6.990000 0.201431 0
6.995000 0.222883 0
7.000000 0.239314 0
7.005000 0.249675 0
7.010000 0.253277 1
7.015000 0.249862 0
7.020000 0.239637 0
7.025000 0.223250 0
7.030000 0.201722 0
7.035000 0.176343 0
7.040000 0.148540 0
7.045000 0.119746 0
7.050000 0.091261 0
7.055000 0.064108 0
7.060000 0.038836 0
7.065000 0.015203 0
7.070000 -0.008257 0
7.075000 -0.034511 0
7.080000 -0.067477 0
7.085000 -0.109906 0
7.090000 -0.159833 0
7.095000 -0.207413 0
7.100000 -0.234674 2
7.105000 -0.218959 0
7.110000 -0.138165 0
7.115000 0.023751 0
7.120000 0.269016 0
7.125000 0.574307 0
7.130000 0.881961 0
7.135000 1.108943 0
7.140000 1.179805 3
7.145000 1.066664 0
7.150000 0.804963 0
7.155000 0.471855 0
7.160000 0.148282 0
7.165000 -0.109558 0
7.170000 -0.276514 0
7.175000 -0.351458 4
7.180000 -0.349530 0
7.185000 -0.296440 0
7.190000 -0.221391 0
7.195000 -0.148417 0
7.200000 -0.090531 0
7.205000 -0.049823 0
7.210000 -0.021958 0
7.215000 -0.001107 0
7.220000 0.017231 0
7.225000 0.035640 0
7.230000 0.055292 0
7.235000 0.076586 0
7.240000 0.099568 0
7.245000 0.124118 0
7.250000 0.150023 0
7.255000 0.176993 0
7.260000 0.204672 0
7.265000 0.232640 0
7.270000 0.260425 0
7.275000 0.287513 0
7.280000 0.313363 0
7.285000 0.337423 0
7.290000 0.359150 0
7.295000 0.378031 0
7.300000 0.393599 0
7.305000 0.405455 0
7.310000 0.413285 0
7.315000 0.416869 5
7.320000 0.416095 0
7.325000 0.410963 0
7.330000 0.401585 0
7.335000 0.388178 0
7.340000 0.371062 0
7.345000 0.350640 0
7.350000 0.327385 0
7.355000 0.301821 0
7.360000 0.274503 0
7.365000 0.245999 0
7.370000 0.216865 0
7.375000 0.187633 0
7.380000 0.158795 0
7.385000 0.130786 0
7.390000 0.103980 0
7.395000 0.078683 0
7.400000 0.055129 0
7.405000 0.033482 0
7.410000 0.013841 0
7.415000 -0.003756 0
7.420000 -0.019327 0
7.425000 -0.032931 0
7.430000 -0.044665 0
7.435000 -0.054654 0
7.440000 -0.063041 0
7.445000 -0.069980 0
7.450000 -0.075628 0
7.455000 -0.080144 0
7.460000 -0.083679 0
7.465000 -0.086373 0
7.470000 -0.088359 0
7.475000 -0.089753 0
7.480000 -0.090660 0
7.485000 -0.091169 0
7.490000 -0.091359 0
7.495000 -0.091294 0
7.500000 -0.090518 0
7.505000 -0.089627 0
7.510000 -0.088739 0
7.515000 -0.087856 0
7.520000 -0.086977 0
7.525000 -0.086103 0
7.530000 -0.085233 0
7.535000 -0.084368 0
7.540000 -0.083506 0
7.545000 -0.082649 0
7.550000 -0.081796 0
7.555000 -0.080948 0
7.560000 -0.080102 0
7.565000 -0.079261 0
7.570000 -0.078421 0
7.575000 -0.077582 0
7.580000 -0.076741 0
7.585000 -0.075893 0
7.590000 -0.075029 0
7.595000 -0.074135 0
7.600000 -0.073191 0
7.605000 -0.072161 0
7.610000 -0.070996 0
7.615000 -0.069620 0
7.620000 -0.067931 0
7.625000 -0.065784 0
7.630000 -0.062993 0
7.635000 -0.059318 0
7.640000 -0.054471 0
7.645000 -0.048114 0
7.650000 -0.039880 0
7.655000 -0.029394 0
7.660000 -0.016309 0
7.665000 -0.000352 0
7.670000 0.018618 0
7.675000 0.040560 0
7.680000 0.065200 0
7.685000 0.091993 0
7.690000 0.120120 0
7.695000 0.148502 0
7.700000 0.175857 0
7.705000 0.200791 0
7.710000 0.221909 0
7.715000 0.237944 0
7.720000 0.247882 0
7.725000 0.251068 1
7.730000 0.247275 0
7.735000 0.236732 0
7.740000 0.220102 0
7.745000 0.198409 0
7.750000 0.172937 0
7.755000 0.145100 0
7.760000 0.116312 0
7.765000 0.087856 0
7.770000 0.060738 0
7.775000 0.035494 0
7.780000 0.011879 0
7.785000 -0.011557 0
7.790000 -0.037742 0
7.795000 -0.070552 0
7.800000 -0.112755 0
7.805000 -0.162553 0
7.810000 -0.210441 0
7.815000 -0.238866 2
7.820000 -0.225499 0
7.825000 -0.148339 0
7.830000 0.008927 0
7.835000 0.249538 0
7.840000 0.552303 0
7.845000 0.862410 0
7.850000 1.098646 0
7.855000 1.184272 3
7.860000 1.086670 0
7.865000 0.835716 0
7.870000 0.505681 0
7.875000 0.178095 0
7.880000 -0.088211 0
7.885000 -0.265325 0
7.890000 -0.349996 0
7.895000 -0.355745 4
7.900000 -0.307187 0
7.905000 -0.233343 0
7.910000 -0.159113 0
7.915000 -0.098921 0
7.920000 -0.056057 0
7.925000 -0.026758 0
7.930000 -0.005221 0
7.935000 0.013286 0
7.940000 0.031589 0
7.945000 0.051015 0
7.950000 0.072045 0
7.955000 0.094762 0
7.960000 0.119069 0
7.965000 0.144765 0
7.970000 0.171577 0
7.975000 0.199161 0
7.980000 0.227112 0
7.985000 0.254971 0
7.990000 0.282234 0
7.995000 0.308368 0
8.000000 0.332826 0
8.005000 0.355066 0
8.010000 0.374572 0
8.015000 0.390869 0
8.020000 0.403546 0
8.025000 0.412272 0
8.030000 0.416808 0
8.035000 0.417019 5
8.040000 0.412879 0
8.045000 0.404473 0
8.050000 0.391996 0
8.055000 0.375739 0
8.060000 0.356085 0
8.065000 0.333487 0
8.070000 0.308455 0
8.075000 0.281535 0
8.080000 0.253286 0
8.085000 0.224267 0
8.090000 0.195014 0
8.095000 0.166025 0
8.100000 0.137750 0
8.105000 0.110577 0
8.110000 0.084828 0
8.115000 0.060756 0
8.120000 0.038545 0
8.125000 0.018309 0
8.130000 0.000103 0
8.135000 -0.016073 0
8.140000 -0.030267 0
8.145000 -0.042565 0
8.150000 -0.053084 0
8.155000 -0.061960 0
8.160000 -0.069342 0
8.165000 -0.075389 0
8.170000 -0.080255 0
8.175000 -0.084095 0
8.180000 -0.087052 0
8.185000 -0.089259 0
8.190000 -0.090839 0
8.195000 -0.091898 0
8.200000 -0.092531 0
8.205000 -0.092820 0
8.210000 -0.092834 0
8.215000 -0.092528 0
8.220000 -0.091626 0
8.225000 -0.090729 0
8.230000 -0.089836 0
8.235000 -0.088947 0
8.240000 -0.088063 0
8.245000 -0.087183 0
8.250000 -0.086308 0
8.255000 -0.085437 0
8.260000 -0.084570 0
8.265000 -0.083708 0
8.270000 -0.082850 0
8.275000 -0.081995 0
8.280000 -0.081145 0
8.285000 -0.080296 0
8.290000 -0.079450 0
8.295000 -0.078603 0
8.300000 -0.077751 0
8.305000 -0.076888 0
8.310000 -0.076002 0
8.315000 -0.075076 0
8.320000 -0.074083 0
8.325000 -0.072980 0
8.330000 -0.071704 0
8.335000 -0.070168 0
8.340000 -0.068247 0
8.345000 -0.065778 0
8.350000 -0.062548 0
8.355000 -0.058292 0
8.360000 -0.052699 0
8.365000 -0.045417 0
8.370000 -0.036072 0
8.375000 -0.024301 0
8.380000 -0.009792 0
8.385000 0.007667 0
8.390000 0.028133 0
8.395000 0.051457 0
8.400000 0.077236 0
8.405000 0.104797 0
8.410000 0.133198 0
8.415000 0.161263 0
8.420000 0.187655 0
8.425000 0.210974 0
8.430000 0.229880 0
8.435000 0.243218 0
8.440000 0.250133 0
8.445000 0.250164 1
8.450000 0.243290 0
8.455000 0.229938 0
8.460000 0.210934 0
8.465000 0.187424 0
8.470000 0.160753 0
8.475000 0.132343 0
8.480000 0.103554 0
8.485000 0.075563 0
8.490000 0.049201 0
8.495000 0.024722 0
8.500000 0.001444 0
8.505000 -0.022667 0
8.510000 -0.051034 0
8.515000 -0.087405 0
8.520000 -0.133179 0
8.525000 -0.183836 0
8.530000 -0.226666 0
8.535000 -0.241881 2
8.540000 -0.206832 0
8.545000 -0.101157 0
8.550000 0.087566 0
8.555000 0.355048 0
8.560000 0.668600 0
8.565000 0.962255 0
8.570000 1.152466 0
8.575000 1.174453 3
8.580000 1.017133 0
8.585000 0.729154 0
8.590000 0.391458 0
8.595000 0.079830 0
8.600000 -0.157770 0
8.605000 -0.302910 0
8.610000 -0.358764 4
8.615000 -0.343147 0
8.620000 -0.282941 0
8.625000 -0.206642 0
8.630000 -0.136053 0
8.635000 -0.081656 0
8.640000 -0.043840 0
8.645000 -0.017699 0
8.650000 0.002424 0
8.655000 0.020635 0
8.660000 0.039197 0
8.665000 0.059099 0
8.670000 0.080658 0
8.675000 0.103883 0
8.680000 0.128641 0
8.685000 0.154709 0
8.690000 0.181791 0
8.695000 0.209525 0
8.700000 0.237490 0
8.705000 0.265213 0
8.710000 0.292182 0
8.715000 0.317860 0
8.720000 0.341701 0
8.725000 0.363172 0
8.730000 0.381766 0
8.735000 0.397029 0
8.740000 0.408573 0
8.745000 0.416093 0
8.750000 0.419380 5
8.755000 0.418331 0
8.760000 0.412952 0
8.765000 0.403359 0
8.770000 0.389774 0
8.775000 0.372515 0
8.780000 0.351985 0
8.785000 0.328653 0
8.790000 0.303038 0
8.795000 0.275691 0
8.800000 0.247170 0
8.805000 0.218028 0
8.810000 0.188791 0
8.815000 0.159943 0
8.820000 0.131916 0
8.825000 0.105081 0
8.830000 0.079741 0
8.835000 0.056129 0
8.840000 0.034410 0
8.845000 0.014683 0
8.850000 -0.003012 0
8.855000 -0.018689 0
8.860000 -0.032406 0
8.865000 -0.044257 0
8.870000 -0.054362 0
8.875000 -0.062864 0
8.880000 -0.069912 0
8.885000 -0.075665 0
8.890000 -0.080277 0
8.895000 -0.083900 0
8.900000 -0.086673 0
8.905000 -0.088728 0
8.910000 -0.090182 0
8.915000 -0.091140 0
8.920000 -0.091692 0
8.925000 -0.091918 0
8.930000 -0.091882 0
8.935000 -0.091545 0
8.940000 -0.090648 0
8.945000 -0.089756 0
8.950000 -0.088868 0
8.955000 -0.087984 0
8.960000 -0.087105 0
8.965000 -0.086230 0
8.970000 -0.085359 0
8.975000 -0.084493 0
8.980000 -0.083631 0
8.985000 -0.082773 0
8.990000 -0.081920 0
8.995000 -0.081070 0
9.000000 -0.080223 0
9.005000 -0.079379 0
9.010000 -0.078537 0
9.015000 -0.077693 0
9.020000 -0.076843 0
9.025000 -0.075980 0
9.030000 -0.075092 0
9.035000 -0.074160 0
9.040000 -0.073153 0
9.045000 -0.072027 0
9.050000 -0.070715 0
9.055000 -0.069123 0
9.060000 -0.067121 0
9.065000 -0.064537 0
9.070000 -0.061151 0
9.075000 -0.056690 0
9.080000 -0.050835 0
9.085000 -0.043230 0
9.090000 -0.033503 0
9.095000 -0.021298 0
9.100000 -0.006316 0
9.105000 0.011633 0
9.110000 0.032575 0
9.115000 0.056321 0
9.120000 0.082431 0
9.125000 0.110188 0
9.130000 0.138614 0
9.135000 0.166507 0
9.140000 0.192518 0
9.145000 0.215253 0
9.150000 0.233395 0
9.155000 0.245832 0
9.160000 0.251765 1
9.165000 0.250795 0
9.170000 0.242965 0
9.175000 0.228762 0
9.180000 0.209059 0
9.185000 0.185032 0
9.190000 0.158040 0
9.195000 0.129499 0
9.200000 0.100749 0
9.205000 0.072926 0
9.210000 0.046800 0
9.215000 0.022530 0
9.220000 -0.000714 0
9.225000 -0.025141 0
9.230000 -0.054287 0
9.235000 -0.091782 0
9.240000 -0.138508 0
9.245000 -0.189074 0
9.250000 -0.229878 0
9.255000 -0.240630 2
9.260000 -0.198757 0
9.265000 -0.084532 0
9.270000 0.113135 0
9.275000 0.387526 0
9.280000 0.702583 0
9.285000 0.989626 0
9.290000 1.165415 0
9.295000 1.169412 3
9.300000 0.996014 0
9.305000 0.698750 0
9.310000 0.360610 0
9.315000 0.055805 0
9.320000 -0.170890 0
9.325000 -0.303987 0
9.330000 -0.348936 4
9.335000 -0.325337 0
9.340000 -0.261122 0
9.345000 -0.184604 0
9.350000 -0.116243 0
9.355000 -0.064803 0
9.360000 -0.029437 0
9.365000 -0.004781 0
9.370000 0.014703 0
9.375000 0.032812 0
9.380000 0.051542 0
9.385000 0.071721 0
9.390000 0.093586 0
9.395000 0.117109 0
9.400000 0.142134 0
9.405000 0.168418 0
9.410000 0.195645 0
9.415000 0.223436 0
9.420000 0.251352 0
9.425000 0.278903 0
9.430000 0.305563 0
9.435000 0.330785 0
9.440000 0.354018 0
9.445000 0.374728 0
9.450000 0.392415 0
9.455000 0.406635 0
9.460000 0.417019 0
9.465000 0.423284 0
9.470000 0.425249 5
9.475000 0.422844 0
9.480000 0.416107 0
9.485000 0.405191 0
9.490000 0.390351 0
9.495000 0.371940 0
9.500000 0.350387 0
9.505000 0.326187 0
9.510000 0.299879 0
9.515000 0.272023 0
9.520000 0.243186 0
9.525000 0.213917 0
9.530000 0.184737 0
9.535000 0.156116 0
9.540000 0.128469 0
9.545000 0.102145 0
9.550000 0.077425 0
9.555000 0.054516 0
9.560000 0.033559 0
9.565000 0.014628 0
9.570000 -0.002259 0
9.575000 -0.017136 0
9.580000 -0.030078 0
9.585000 -0.041193 0
9.590000 -0.050613 0
9.595000 -0.058485 0
9.600000 -0.064967 0
9.605000 -0.070217 0
9.610000 -0.074391 0
9.615000 -0.077636 0
9.620000 -0.080091 0
9.625000 -0.081881 0
9.630000 -0.083119 0
9.635000 -0.083904 0
9.640000 -0.084322 0
9.645000 -0.084446 0
9.650000 -0.084336 0
9.655000 -0.083583 0
9.660000 -0.082726 0
9.665000 -0.081873 0
9.670000 -0.081024 0
9.675000 -0.080180 0
9.680000 -0.079339 0
9.685000 -0.078503 0
9.690000 -0.077671 0
9.695000 -0.076843 0
9.700000 -0.076019 0
9.705000 -0.075199 0
9.710000 -0.074383 0
9.715000 -0.073571 0
9.720000 -0.072761 0
9.725000 -0.071953 0
9.730000 -0.071144 0
9.735000 -0.070331 0
9.740000 -0.069509 0
9.745000 -0.068666 0
9.750000 -0.067787 0
9.755000 -0.066845 0
9.760000 -0.065802 0
9.765000 -0.064598 0
9.770000 -0.063149 0
9.775000 -0.061338 0
9.780000 -0.059004 0
9.785000 -0.055943 0
9.790000 -0.051896 0
9.795000 -0.046555 0
9.800000 -0.039569 0
9.805000 -0.030565 0
9.810000 -0.019172 0
9.815000 -0.005067 0
9.820000 0.011982 0
9.825000 0.032053 0
9.830000 0.055025 0
9.835000 0.080523 0
9.840000 0.107900 0
9.845000 0.136234 0
9.850000 0.164361 0
9.855000 0.190947 0
9.860000 0.214580 0
9.865000 0.233900 0
9.870000 0.247718 0
9.875000 0.255146 0
9.880000 0.255682 1
9.885000 0.249271 0
9.890000 0.236312 0
9.895000 0.217612 0
9.900000 0.194309 0
9.905000 0.167751 0
9.910000 0.139368 0
9.915000 0.110541 0
9.920000 0.082467 0
9.925000 0.056002 0
9.930000 0.031432 0
9.935000 0.008108 0
9.940000 -0.015972 0
9.945000 -0.044227 0
9.950000 -0.080453 0
9.955000 -0.126133 0
9.960000 -0.176818 0
9.965000 -0.219784 0
9.970000 -0.235122 2
9.975000 -0.200001 0
9.980000 -0.093903 0
9.985000 0.095621 0
9.990000 0.364011 0
9.995000 0.677839 0
10.000000 0.970076 0
10.005000 1.156500 0
10.010000 1.172880 3
10.015000 1.008632 0
10.020000 0.715271 0
10.025000 0.377213 0
10.030000 0.071155 0
10.035000 -0.156363 0
10.040000 -0.289219 0
10.045000 -0.333032 4
10.050000 -0.308031 0
10.055000 -0.242928 0
10.060000 -0.166517 0
10.065000 -0.099166 0
10.070000 -0.049120 0
10.075000 -0.014985 0
10.080000 0.008876 0
10.085000 0.028003 0
10.090000 0.046058 0
10.095000 0.064901 0
10.100000 0.085270 0
10.105000 0.107355 0
10.110000 0.131101 0
10.115000 0.156330 0
10.120000 0.182779 0
10.125000 0.210113 0
10.130000 0.237928 0
10.135000 0.265764 0
10.140000 0.293109 0
10.145000 0.319417 0
10.150000 0.344125 0
10.155000 0.366672 0
10.160000 0.386517 0
10.165000 0.403164 0
10.170000 0.416180 0
10.175000 0.425211 0
10.180000 0.430002 0
10.185000 0.430405 5
10.190000 0.426385 0
10.195000 0.418027 0
10.200000 0.405525 0
10.205000 0.389182 0
10.210000 0.369391 0
10.215000 0.346623 0
10.220000 0.321404 0
10.225000 0.294299 0
10.230000 0.265888 0
10.235000 0.236744 0
10.240000 0.207418 0
10.245000 0.178419 0
10.250000 0.150204 0
10.255000 0.123164 0
10.260000 0.097619 0
10.265000 0.073817 0
10.270000 0.051934 0
10.275000 0.032074 0
10.280000 0.014281 0
10.285000 -0.001458 0
10.290000 -0.015205 0
10.295000 -0.027058 0
10.300000 -0.037142 0
10.305000 -0.045606 0
10.310000 -0.052605 0
10.315000 -0.058303 0
10.320000 -0.062860 0
10.325000 -0.066431 0
10.330000 -0.069161 0
10.335000 -0.071182 0
10.340000 -0.072613 0
10.345000 -0.073560 0
10.350000 -0.074114 0
10.355000 -0.074353 0
10.360000 -0.074342 0
10.365000 -0.073646 0
10.370000 -0.072838 0
10.375000 -0.072034 0
10.380000 -0.071235 0
10.385000 -0.070439 0
10.390000 -0.069647 0
10.395000 -0.068859 0
10.400000 -0.068075 0
10.405000 -0.067295 0
10.410000 -0.066519 0
10.415000 -0.065747 0
10.420000 -0.064978 0
10.425000 -0.064212 0
10.430000 -0.063449 0
10.435000 -0.062687 0
10.440000 -0.061925 0
10.445000 -0.061159 0
10.450000 -0.060382 0
10.455000 -0.059585 0
10.460000 -0.058750 0
10.465000 -0.057852 0
10.470000 -0.056848 0
10.475000 -0.055679 0
10.480000 -0.054256 0
10.485000 -0.052456 0
10.490000 -0.050113 0
10.495000 -0.047011 0
10.500000 -0.042882 0
10.505000 -0.037404 0
10.510000 -0.030213 0
10.515000 -0.020927 0
10.520000 -0.009169 0
10.525000 0.005381 0
10.530000 0.022937 0
10.535000 0.043547 0
10.540000 0.067039 0
10.545000 0.092975 0
10.550000 0.120629 0
10.555000 0.148996 0
10.560000 0.176836 0
10.565000 0.202750 0
10.570000 0.225296 0
10.575000 0.243114 0
10.580000 0.255065 0
10.585000 0.260349 1
10.590000 0.258592 0
10.595000 0.249889 0
10.600000 0.234796 0
10.605000 0.214269 0
10.610000 0.189565 0
10.615000 0.162111 0
10.620000 0.133368 0
10.625000 0.104691 0
10.630000 0.077186 0
10.635000 0.051519 0
10.640000 0.027622 0
10.645000 0.004256 0
10.650000 -0.021330 0
10.655000 -0.053046 0
10.660000 -0.094070 0
10.665000 -0.143364 0
10.670000 -0.192201 0
10.675000 -0.223367 2
10.680000 -0.214243 0
10.685000 -0.142079 0
10.690000 0.010415 0
10.695000 0.247545 0
10.700000 0.548921 0
10.705000 0.859505 0
10.710000 1.096485 0
10.715000 1.181187 3
10.720000 1.080098 0
10.725000 0.824711 0
10.730000 0.492857 0
10.735000 0.168217 0
10.740000 -0.090608 0
10.745000 -0.257386 0
10.750000 -0.330978 4
10.755000 -0.327162 0
10.760000 -0.272590 0
10.765000 -0.197209 0
10.770000 -0.125158 0
10.775000 -0.068917 0
10.780000 -0.029856 0
10.785000 -0.003168 0
10.790000 0.017069 0
10.795000 0.035224 0
10.800000 0.053705 0
10.805000 0.073552 0
10.810000 0.095093 0
10.815000 0.118333 0
10.820000 0.143128 0
10.825000 0.169239 0
10.830000 0.196353 0
10.835000 0.224087 0
10.840000 0.251994 0
10.845000 0.279577 0
10.850000 0.306296 0
10.855000 0.331589 0
10.860000 0.354891 0
10.865000 0.375649 0
10.870000 0.393351 0
10.875000 0.407538 0
10.880000 0.417831 0
10.885000 0.423942 0
10.890000 0.425689 5
10.895000 0.423002 0
10.900000 0.415931 0
10.905000 0.404639 0
10.910000 0.389400 0
10.915000 0.370583 0
10.920000 0.348641 0
10.925000 0.324087 0
10.930000 0.297480 0
10.935000 0.269399 0
10.940000 0.240425 0
10.945000 0.211119 0
10.950000 0.182005 0
10.955000 0.153555 0
10.960000 0.126183 0
10.965000 0.100229 0
10.970000 0.075962 0
10.975000 0.053577 0
10.980000 0.033198 0
10.985000 0.014884 0
10.990000 -0.001364 0
10.995000 -0.015597 0
11.000000 -0.027903 0
11.005000 -0.038404 0
11.010000 -0.047241 0
11.015000 -0.054573 0
11.020000 -0.060560 0
11.025000 -0.065364 0
11.030000 -0.069144 0
11.035000 -0.072047 0
11.040000 -0.074208 0
11.045000 -0.075753 0
11.050000 -0.076788 0
11.055000 -0.077409 0
11.060000 -0.077698 0
11.065000 -0.077722 0
11.070000 -0.077446 0
11.075000 -0.076619 0
11.080000 -0.075796 0
11.085000 -0.074978 0
11.090000 -0.074164 0
11.095000 -0.073353 0
11.100000 -0.072547 0
11.105000 -0.071745 0
11.110000 -0.070946 0
11.115000 -0.070152 0
11.120000 -0.069361 0
11.125000 -0.068574 0
11.130000 -0.067791 0
11.135000 -0.067010 0
11.140000 -0.066231 0
11.145000 -0.065453 0
11.150000 -0.064671 0
11.155000 -0.063880 0
11.160000 -0.063071 0
11.165000 -0.062229 0
11.170000 -0.061328 0
11.175000 -0.060332 0
11.180000 -0.059182 0
11.185000 -0.057797 0
11.190000 -0.056060 0
11.195000 -0.053812 0
11.200000 -0.050846 0
11.205000 -0.046901 0
11.210000 -0.041665 0
11.215000 -0.034777 0
11.220000 -0.025855 0
11.225000 -0.014517 0
11.230000 -0.000429 0
11.235000 0.016646 0
11.240000 0.036787 0
11.245000 0.059859 0
11.250000 0.085469 0
11.255000 0.112932 0
11.260000 0.141283 0
11.265000 0.169306 0
11.270000 0.195616 0
11.275000 0.218762 0
11.280000 0.237360 0
11.285000 0.250226 0
11.290000 0.256502 1
11.295000 0.255747 0
11.300000 0.247991 0
11.305000 0.233731 0
11.310000 0.213878 0
11.315000 0.189659 0
11.320000 0.162494 0
11.325000 0.133853 0
11.330000 0.105117 0
11.335000 0.077435 0
11.340000 0.051546 0
11.345000 0.027489 0
11.350000 0.004187 0
11.355000 -0.020942 0
11.360000 -0.051749 0
11.365000 -0.091661 0
11.370000 -0.140301 0
11.375000 -0.189861 0
11.380000 -0.223894 2
11.385000 -0.220031 0
11.390000 -0.155194 0
11.395000 -0.011184 0
11.400000 0.218079 0
11.405000 0.515118 0
11.410000 0.828098 0
11.415000 1.075510 0
11.420000 1.176204 3
11.425000 1.093243 0
11.430000 0.852152 0
11.435000 0.525221 0
11.440000 0.195069 0
11.445000 -0.076963 0
11.450000 -0.260698 0
11.455000 -0.351407 0
11.460000 -0.361706 4
11.465000 -0.315750 0
11.470000 -0.242649 0
11.475000 -0.167896 0
11.480000 -0.106686 0
11.485000 -0.062891 0
11.490000 -0.032989 0
11.495000 -0.011159 0
11.500000 0.007442 0
11.505000 0.025740 0
11.510000 0.045126 0
11.515000 0.066110 0
11.520000 0.088785 0
11.525000 0.113058 0
11.530000 0.138734 0
11.535000 0.165539 0
11.540000 0.193130 0
11.545000 0.221103 0
11.550000 0.248997 0
11.555000 0.276307 0
11.560000 0.302500 0
11.565000 0.327026 0
11.570000 0.349340 0
11.575000 0.368922 0
11.580000 0.385297 0
11.585000 0.398049 0
11.590000 0.406844 0
11.595000 0.411442 0
11.600000 0.411707 5
11.605000 0.407610 0
11.610000 0.399239 0
11.615000 0.386786 0
11.620000 0.370546 0
11.625000 0.350903 0
11.630000 0.328312 0
11.635000 0.303286 0
11.640000 0.276372 0
11.645000 0.248133 0
11.650000 0.219130 0
11.655000 0.189901 0
11.660000 0.160945 0
11.665000 0.132712 0
11.670000 0.105592 0
11.675000 0.079905 0
11.680000 0.055905 0
11.685000 0.033773 0
11.690000 0.013623 0
11.695000 -0.004492 0
11.700000 -0.020574 0
11.705000 -0.034673 0
11.710000 -0.046876 0
11.715000 -0.057302 0
11.720000 -0.066087 0
11.725000 -0.073384 0
11.730000 -0.079349 0
11.735000 -0.084141 0
11.740000 -0.087911 0
11.745000 -0.090804 0
11.750000 -0.092954 0
11.755000 -0.094481 0
11.760000 -0.095493 0
11.765000 -0.096084 0
11.770000 -0.096335 0
11.775000 -0.096314 0
11.780000 -0.095980 0
11.785000 -0.095060 0
11.790000 -0.094146 0
11.795000 -0.093236 0
11.800000 -0.092330 0
11.805000 -0.091429 0
11.810000 -0.090533 0
11.815000 -0.089641 0
11.820000 -0.088753 0
11.825000 -0.087870 0
11.830000 -0.086991 0
11.835000 -0.086117 0
11.840000 -0.085246 0
11.845000 -0.084379 0
11.850000 -0.083514 0
11.855000 -0.082651 0
11.860000 -0.081788 0
11.865000 -0.080918 0
11.870000 -0.080037 0
11.875000 -0.079132 0
11.880000 -0.078184 0
11.885000 -0.077164 0
11.890000 -0.076028 0
11.895000 -0.074710 0
11.900000 -0.073118 0
11.905000 -0.071124 0
11.910000 -0.068555 0
11.915000 -0.065192 0
11.920000 -0.060764 0
11.925000 -0.054950 0
11.930000 -0.047394 0
11.935000 -0.037719 0
11.940000 -0.025566 0
11.945000 -0.010632 0
11.950000 0.007278 0
11.955000 0.028194 0
11.960000 0.051930 0
11.965000 0.078045 0
11.970000 0.105819 0
11.975000 0.134266 0
11.980000 0.162176 0
11.985000 0.188188 0
11.990000 0.210899 0
11.995000 0.228983 0
12.000000 0.241322 0
12.005000 0.247118 1
12.010000 0.245980 0
12.015000 0.237965 0
12.020000 0.223574 0
12.025000 0.203700 0
12.030000 0.179539 0
12.035000 0.152465 0
12.040000 0.123903 0
12.045000 0.095197 0
12.050000 0.067477 0
12.055000 0.041489 0
12.060000 0.017344 0
12.065000 -0.005876 0
12.070000 -0.030504 0
12.075000 -0.060172 0
12.080000 -0.098441 0
12.085000 -0.145805 0
12.090000 -0.196153 0
12.095000 -0.235050 0
12.100000 -0.241620 2
12.105000 -0.193173 0
12.110000 -0.070415 0
12.115000 0.136439 0
12.120000 0.417911 0
12.125000 0.733785 0
12.130000 1.011708 0
12.135000 1.168402 3
12.140000 1.150312 0
12.145000 0.960622 0
12.150000 0.656284 0
12.155000 0.318345 0
12.160000 0.017025 0
12.165000 -0.206074 0
12.170000 -0.336947 0
12.175000 -0.381262 4
12.180000 -0.358068 0
12.185000 -0.294372 0
12.190000 -0.217707 0
12.195000 -0.148333 0
12.200000 -0.095397 0
12.205000 -0.058604 0
12.210000 -0.032946 0
12.215000 -0.012939 0
12.220000 0.005330 0
12.225000 0.024005 0
12.230000 0.044022 0
12.235000 0.065678 0
12.240000 0.088982 0
12.245000 0.113801 0
12.250000 0.139918 0
12.255000 0.167045 0
12.260000 0.194828 0
12.265000 0.222859 0
12.270000 0.250677 0
12.275000 0.277782 0
12.280000 0.303649 0
12.285000 0.327746 0
12.290000 0.349547 0
12.295000 0.368554 0
12.300000 0.384316 0
12.305000 0.396443 0
12.310000 0.404625 0
12.315000 0.408644 5
12.320000 0.408382 0
12.325000 0.403827 0
12.330000 0.395074 0
12.335000 0.382320 0
12.340000 0.365861 0
12.345000 0.346072 0
12.350000 0.323402 0
12.355000 0.298349 0
12.360000 0.271445 0
12.365000 0.243239 0
12.370000 0.214273 0
12.375000 0.185072 0
12.380000 0.156121 0
12.385000 0.127862 0
12.390000 0.100675 0
12.395000 0.074879 0
12.400000 0.050724 0
12.405000 0.028394 0
12.410000 0.008009 0
12.415000 -0.010374 0
12.420000 -0.026749 0
12.425000 -0.041157 0
12.430000 -0.053678 0
12.435000 -0.064420 0
12.440000 -0.073515 0
12.445000 -0.081106 0
12.450000 -0.087348 0
12.455000 -0.092391 0
12.460000 -0.096388 0
12.465000 -0.099480 0
12.470000 -0.101801 0
12.475000 -0.103471 0
12.480000 -0.104601 0
12.485000 -0.105284 0
12.490000 -0.105605 0
12.495000 -0.105635 0
12.500000 -0.105433 0
12.505000 -0.104577 0
12.510000 -0.103615 0
12.515000 -0.102658 0
12.520000 -0.101706 0
12.525000 -0.100758 0
12.530000 -0.099815 0
12.535000 -0.098877 0
12.540000 -0.097943 0
12.545000 -0.097014 0
12.550000 -0.096090 0
12.555000 -0.095170 0
12.560000 -0.094254 0
12.565000 -0.093343 0
12.570000 -0.092434 0
12.575000 -0.091529 0
12.580000 -0.090625 0
12.585000 -0.089718 0
12.590000 -0.088805 0
12.595000 -0.087877 0
12.600000 -0.086920 0
12.605000 -0.085914 0
12.610000 -0.084827 0
12.615000 -0.083611 0
12.620000 -0.082195 0
12.625000 -0.080481 0
12.630000 -0.078336 0
12.635000 -0.075584 0
12.640000 -0.072000 0
12.645000 -0.067311 0
12.650000 -0.061199 0
12.655000 -0.053313 0
12.660000 -0.043287 0
12.665000 -0.030778 0
12.670000 -0.015500 0
12.675000 0.002720 0
12.680000 0.023895 0
12.685000 0.047826 0
12.690000 0.074067 0
12.695000 0.101907 0
12.700000 0.130380 0
12.705000 0.158306 0
12.710000 0.184363 0
12.715000 0.207187 0
12.720000 0.225489 0
12.725000 0.238172 0
12.730000 0.244442 1
12.735000 0.243892 0
12.740000 0.236539 0
12.745000 0.222833 0
12.750000 0.203603 0
12.755000 0.179978 0
12.760000 0.153277 0
12.765000 0.124887 0
12.770000 0.096135 0
12.775000 0.068167 0
12.780000 0.041799 0
12.785000 0.017299 0
12.790000 -0.005959 0
12.795000 -0.029885 0
12.800000 -0.057752 0
12.805000 -0.093272 0
12.810000 -0.138152 0
12.815000 -0.188700 0
12.820000 -0.233419 0
12.825000 -0.253669 2
12.830000 -0.227432 0
12.835000 -0.134189 0
12.840000 0.039901 0
12.845000 0.294308 0
12.850000 0.603064 0
12.855000 0.907780 0
12.860000 1.128008 0
12.865000 1.192907 3
12.870000 1.076276 0
12.875000 0.813030 0
12.880000 0.479658 0
12.885000 0.155985 0
12.890000 -0.102513 0
12.895000 -0.270829 0
12.900000 -0.347590 4
12.905000 -0.347471 0
12.910000 -0.295645 0
12.915000 -0.220966 0
12.920000 -0.147513 0
12.925000 -0.088691 0
12.930000 -0.047047 0
12.935000 -0.018528 0
12.940000 0.002637 0
12.945000 0.021031 0
12.950000 0.039344 0
12.955000 0.058825 0
12.960000 0.079919 0
12.965000 0.102694 0
12.970000 0.127044 0
12.975000 0.152769 0
12.980000 0.179591 0
12.985000 0.207166 0
12.990000 0.235089 0
12.995000 0.262900 0
13.000000 0.290098 0
13.005000 0.316151 0
13.010000 0.340516 0
13.015000 0.362655 0
13.020000 0.382053 0
13.025000 0.398242 0
13.030000 0.410814 0
13.035000 0.419441 0
13.040000 0.423887 0
13.045000 0.424018 5
13.050000 0.419812 0
13.055000 0.411353 0
13.060000 0.398834 0
13.065000 0.382547 0
13.070000 0.362871 0
13.075000 0.340258 0
13.080000 0.315214 0
13.085000 0.288280 0
13.090000 0.260016 0
13.095000 0.230975 0
13.100000 0.201690 0
13.105000 0.172660 0
13.110000 0.144332 0
13.115000 0.117093 0
13.120000 0.091267 0
13.125000 0.067106 0
13.130000 0.044795 0
13.135000 0.024451 0
13.140000 0.006132 0
13.145000 -0.010162 0
13.150000 -0.024476 0
13.155000 -0.036895 0
13.160000 -0.047531 0
13.165000 -0.056521 0
13.170000 -0.064013 0
13.175000 -0.070163 0
13.180000 -0.075126 0
13.185000 -0.079055 0
13.190000 -0.082093 0
13.195000 -0.084375 0
13.200000 -0.086022 0
13.205000 -0.087143 0
13.210000 -0.087831 0
13.215000 -0.088169 0
13.220000 -0.088227 0
13.225000 -0.087960 0
13.230000 -0.087081 0
13.235000 -0.086206 0
13.240000 -0.085335 0
13.245000 -0.084469 0
13.250000 -0.083608 0
13.255000 -0.082750 0
13.260000 -0.081897 0
13.265000 -0.081048 0
13.270000 -0.080203 0
13.275000 -0.079363 0
13.280000 -0.078526 0
13.285000 -0.077693 0
13.290000 -0.076864 0
13.295000 -0.076038 0
13.300000 -0.075213 0
13.305000 -0.074387 0
13.310000 -0.073558 0
13.315000 -0.072719 0
13.320000 -0.071859 0
13.325000 -0.070961 0
13.330000 -0.070002 0
13.335000 -0.068939 0
13.340000 -0.067717 0
13.345000 -0.066249 0
13.350000 -0.064421 0
13.355000 -0.062075 0
13.360000 -0.059009 0
13.365000 -0.054967 0
13.370000 -0.049648 0
13.375000 -0.042706 0
13.380000 -0.033773 0
13.385000 -0.022483 0
13.390000 -0.008513 0
13.395000 0.008370 0
13.400000 0.028255 0
13.405000 0.051036 0
13.410000 0.076363 0
13.415000 0.103619 0
13.420000 0.131919 0
13.425000 0.160133 0
13.430000 0.186958 0
13.435000 0.211006 0
13.440000 0.230920 0
13.445000 0.245503 0
13.450000 0.253834 0
13.455000 0.255362 1
13.460000 0.249971 0
13.465000 0.237988 0
13.470000 0.220153 0
13.475000 0.197541 0
13.480000 0.171457 0
13.485000 0.143307 0
13.490000 0.114472 0
13.495000 0.086176 0
13.500000 0.059347 0
13.505000 0.034406 0
13.510000 0.010942 0
13.515000 -0.012703 0
13.520000 -0.039626 0
13.525000 -0.073664 0
13.530000 -0.117145 0
13.535000 -0.167423 0
13.540000 -0.214048 0
13.545000 -0.238898 2
13.550000 -0.219707 0
13.555000 -0.135104 0
13.560000 0.030116 0
13.565000 0.277423 0
13.570000 0.583271 0
13.575000 0.890896 0
13.580000 1.119151 0
13.585000 1.194012 3
13.590000 1.083976 0
13.595000 0.822494 0
13.600000 0.488990 0
13.605000 0.166684 0
13.610000 -0.087408 0
13.615000 -0.248635 0
13.620000 -0.317041 4
13.625000 -0.309288 0
13.630000 -0.252580 0
13.635000 -0.176866 0
13.640000 -0.105712 0
13.645000 -0.050803 0
13.650000 -0.012896 0
13.655000 0.013056 0
13.660000 0.032938 0
13.665000 0.050983 0
13.670000 0.069475 0
13.675000 0.089382 0
13.680000 0.110995 0
13.685000 0.134304 0
13.690000 0.159153 0
13.695000 0.185298 0
13.700000 0.212416 0
13.705000 0.240117 0
13.710000 0.267949 0
13.715000 0.295407 0
13.720000 0.321946 0
13.725000 0.347002 0
13.730000 0.370007 0
13.735000 0.390410 0
13.740000 0.407700 0
13.745000 0.421427 0
13.750000 0.431216 0
13.755000 0.436791 0
13.760000 0.437980 5
13.765000 0.434728 0
13.770000 0.427096 0
13.775000 0.415264 0
13.780000 0.399515 0
13.785000 0.380233 0
13.790000 0.357880 0
13.795000 0.332978 0
13.800000 0.306091 0
13.805000 0.277803 0
13.810000 0.248694 0
13.815000 0.219324 0
13.820000 0.190212 0
13.825000 0.161826 0
13.830000 0.134570 0
13.835000 0.108777 0
13.840000 0.084705 0
13.845000 0.062542 0
13.850000 0.042400 0
13.855000 0.024331 0
13.860000 0.008327 0
13.865000 -0.005668 0
13.870000 -0.017750 0
13.875000 -0.028044 0
13.880000 -0.036695 0
13.885000 -0.043862 0
13.890000 -0.049708 0
13.895000 -0.054395 0
13.900000 -0.058080 0
13.905000 -0.060909 0
13.910000 -0.063017 0
13.915000 -0.064525 0
13.920000 -0.065540 0
13.925000 -0.066155 0
13.930000 -0.066449 0
13.935000 -0.066489 0
13.940000 -0.065835 0
13.945000 -0.065066 0
13.950000 -0.064301 0
13.955000 -0.063540 0
13.960000 -0.062782 0
13.965000 -0.062029 0
13.970000 -0.061279 0
13.975000 -0.060533 0
13.980000 -0.059790 0
13.985000 -0.059052 0
13.990000 -0.058316 0
13.995000 -0.057584 0
14.000000 -0.056856 0
14.005000 -0.056129 0
14.010000 -0.055404 0
14.015000 -0.054678 0
14.020000 -0.053948 0
14.025000 -0.053207 0
14.030000 -0.052445 0
14.035000 -0.051645 0
14.040000 -0.050779 0
14.045000 -0.049807 0
14.050000 -0.048665 0
14.055000 -0.047265 0
14.060000 -0.045480 0
14.065000 -0.043141 0
14.070000 -0.040029 0
14.075000 -0.035869 0
14.080000 -0.030336 0
14.085000 -0.023061 0
14.090000 -0.013657 0
14.095000 -0.001748 0
14.100000 0.012983 0
14.105000 0.030742 0
14.110000 0.051563 0
14.115000 0.075251 0
14.120000 0.101341 0
14.125000 0.129077 0
14.130000 0.157422 0
14.135000 0.185106 0
14.140000 0.210711 0
14.145000 0.232785 0
14.150000 0.249976 0
14.155000 0.261169 0
14.160000 0.265603 1
14.165000 0.262955 0
14.170000 0.253381 0
14.175000 0.237494 0
14.180000 0.216304 0
14.185000 0.191109 0
14.190000 0.163358 0
14.195000 0.134519 0
14.200000 0.105928 0
14.205000 0.078648 0
14.210000 0.053259 0
14.215000 0.029538 0
14.220000 0.006008 0
14.225000 -0.020352 0
14.230000 -0.053539 0
14.235000 -0.096303 0
14.240000 -0.146443 0
14.245000 -0.193575 0
14.250000 -0.219024 2
14.255000 -0.199551 0
14.260000 -0.112842 0
14.265000 0.056689 0
14.270000 0.309473 0
14.275000 0.618396 0
14.280000 0.920836 0
14.285000 1.130861 0
14.290000 1.175795 3
14.295000 1.035584 0
14.300000 0.755164 0
14.305000 0.418129 0
14.310000 0.105030 0
14.315000 -0.132838 0
14.320000 -0.275976 0
14.325000 -0.328090 4
14.330000 -0.308447 0
14.335000 -0.245659 0
14.340000 -0.169279 0
14.345000 -0.100863 0
14.350000 -0.049651 0
14.355000 -0.014724 0
14.360000 0.009517 0
14.365000 0.028756 0
14.370000 0.046803 0
14.375000 0.065600 0
14.380000 0.085923 0
14.385000 0.107974 0
14.390000 0.131700 0
14.395000 0.156921 0
14.400000 0.183372 0
14.405000 0.210712 0
14.410000 0.238531 0
14.415000 0.266361 0
14.420000 0.293683 0
14.425000 0.319941 0
14.430000 0.344565 0
14.435000 0.366985 0
14.440000 0.386656 0
14.445000 0.403077 0
14.450000 0.415814 0
14.455000 0.424516 0
14.460000 0.428931 5
14.465000 0.428919 0
14.470000 0.424457 0
14.475000 0.415641 0
14.480000 0.402682 0
14.485000 0.385897 0
14.490000 0.365695 0
14.495000 0.342563 0
14.500000 0.317040 0
14.505000 0.289702 0
14.510000 0.261138 0
14.515000 0.231928 0
14.520000 0.202622 0
14.525000 0.173731 0
14.530000 0.145703 0
14.535000 0.118925 0
14.540000 0.093707 0
14.545000 0.070285 0
14.550000 0.048821 0
14.555000 0.029410 0
14.560000 0.012081 0
14.565000 -0.003192 0
14.570000 -0.016479 0
14.575000 -0.027887 0
14.580000 -0.037552 0
14.585000 -0.045624 0
14.590000 -0.052266 0
14.595000 -0.057642 0
14.600000 -0.061914 0
14.605000 -0.065236 0
14.610000 -0.067752 0
14.615000 -0.069591 0
14.620000 -0.070871 0
14.625000 -0.071694 0
14.630000 -0.072147 0
14.635000 -0.072307 0
14.640000 -0.072129 0
14.645000 -0.071328 0
14.650000 -0.070532 0
14.655000 -0.069740 0
14.660000 -0.068952 0
14.665000 -0.068167 0
14.670000 -0.067387 0
14.675000 -0.066610 0
14.680000 -0.065838 0
14.685000 -0.065069 0
14.690000 -0.064303 0
14.695000 -0.063542 0
14.700000 -0.062784 0
14.705000 -0.062029 0
14.710000 -0.061276 0
14.715000 -0.060523 0
14.720000 -0.059769 0
14.725000 -0.059008 0
14.730000 -0.058232 0
14.735000 -0.057429 0
14.740000 -0.056576 0
14.745000 -0.055641 0
14.750000 -0.054574 0
14.755000 -0.053299 0
14.760000 -0.051710 0
14.765000 -0.049662 0
14.770000 -0.046962 0
14.775000 -0.043361 0
14.780000 -0.038559 0
14.785000 -0.032205 0
14.790000 -0.023916 0
14.795000 -0.013303 0
14.800000 -0.000010 0
14.805000 0.016234 0
14.810000 0.035558 0
14.815000 0.057887 0
14.820000 0.082893 0
14.825000 0.109960 0
14.830000 0.138181 0
14.835000 0.166383 0
14.840000 0.193197 0
14.845000 0.217165 0
14.850000 0.236860 0
14.855000 0.251030 0
14.860000 0.258728 0
14.865000 0.259414 1
14.870000 0.253020 0
14.875000 0.239956 0
14.880000 0.221065 0
14.885000 0.197537 0
14.890000 0.170778 0
14.895000 0.142275 0
14.900000 0.113448 0
14.905000 0.085510 0
14.910000 0.059290 0
14.915000 0.034966 0
14.920000 0.011656 0
14.925000 -0.013011 0
14.930000 -0.042801 0
14.935000 -0.081403 0
14.940000 -0.129184 0
14.945000 -0.179379 0
14.950000 -0.216394 0
14.955000 -0.218107 2
14.960000 -0.161006 0
14.965000 -0.025882 0
14.970000 0.195147 0
14.975000 0.487381 0
14.980000 0.801920 0
14.985000 1.058288 0
14.990000 1.172872 3
14.995000 1.104111 0
15.000000 0.872963 0
15.005000 0.549499 0
15.010000 0.217149 0
15.015000 -0.060370 0
15.020000 -0.250640 0
15.025000 -0.347424 0
15.030000 -0.362397 4
15.035000 -0.319204 0
15.040000 -0.246981 0
15.045000 -0.171776 0
15.050000 -0.109558 0
15.055000 -0.064812 0
15.060000 -0.034284 0
15.065000 -0.012158 0
15.070000 0.006523 0
15.075000 0.024794 0
15.080000 0.044110 0
15.085000 0.065014 0
15.090000 0.087614 0
15.095000 0.111821 0
15.100000 0.137444 0
15.105000 0.164210 0
15.110000 0.191779 0
15.115000 0.219747 0
15.120000 0.247654 0
15.125000 0.274995 0
15.130000 0.301234 0
15.135000 0.325820 0
15.140000 0.348207 0
15.145000 0.367872 0
15.150000 0.384335 0
15.155000 0.397179 0
15.160000 0.406067 0
15.165000 0.410753 0
15.170000 0.411100 5
15.175000 0.407079 0
15.180000 0.398773 0
15.185000 0.386375 0
15.190000 0.370179 0
15.195000 0.350570 0
15.200000 0.328003 0
15.205000 0.302993 0
15.210000 0.276088 0
15.215000 0.247854 0
15.220000 0.218853 0
15.225000 0.189625 0
15.230000 0.160671 0
15.235000 0.132443 0
15.240000 0.105331 0
15.245000 0.079656 0
15.250000 0.055673 0
15.255000 0.033561 0
15.260000 0.013436 0
15.265000 -0.004650 0
15.270000 -0.020700 0
15.275000 -0.034765 0
15.280000 -0.046934 0
15.285000 -0.057324 0
15.290000 -0.066075 0
15.295000 -0.073339 0
15.300000 -0.079272 0
15.305000 -0.084034 0
15.310000 -0.087778 0
15.315000 -0.090647 0
15.320000 -0.092775 0
15.325000 -0.094284 0
15.330000 -0.095281 0
15.335000 -0.095858 0
15.340000 -0.096098 0
15.345000 -0.096069 0
15.350000 -0.095728 0
15.355000 -0.094810 0
15.360000 -0.093897 0
15.365000 -0.092988 0
15.370000 -0.092084 0
15.375000 -0.091184 0
15.380000 -0.090289 0
15.385000 -0.089398 0
15.390000 -0.088512 0
15.395000 -0.087630 0
15.400000 -0.086752 0
15.405000 -0.085879 0
15.410000 -0.085009 0
15.415000 -0.084143 0
15.420000 -0.083280 0
15.425000 -0.082418 0
15.430000 -0.081555 0
15.435000 -0.080686 0
15.440000 -0.079804 0
15.445000 -0.078897 0
15.450000 -0.077946 0
15.455000 -0.076919 0
15.460000 -0.075772 0
15.465000 -0.074436 0
15.470000 -0.072817 0
15.475000 -0.070780 0
15.480000 -0.068152 0
15.485000 -0.064706 0
15.490000 -0.060167 0
15.495000 -0.054207 0
15.500000 -0.046467 0
15.505000 -0.036569 0
15.510000 -0.024156 0
15.515000 -0.008932 0
15.520000 0.009285 0
15.525000 0.030504 0
15.530000 0.054516 0
15.535000 0.080846 0
15.540000 0.108746 0
15.545000 0.137198 0
15.550000 0.164966 0
15.555000 0.190675 0
15.560000 0.212919 0
15.565000 0.230386 0
15.570000 0.241986 0
15.575000 0.246963 1
15.580000 0.244976 0
15.585000 0.236138 0
15.590000 0.221006 0
15.595000 0.200518 0
15.600000 0.175904 0
15.605000 0.148556 0
15.610000 0.119903 0
15.615000 0.091271 0
15.620000 0.063753 0
15.625000 0.038031 0
15.630000 0.014098 0
15.635000 -0.009145 0
15.640000 -0.034249 0
15.645000 -0.064971 0
15.650000 -0.104657 0
15.655000 -0.153043 0
15.660000 -0.202794 0
15.665000 -0.238251 2
15.670000 -0.237862 0
15.675000 -0.179043 0
15.680000 -0.043449 0
15.685000 0.176476 0
15.690000 0.467041 0
15.695000 0.782355 0
15.700000 1.045969 0
15.705000 1.176074 3
15.710000 1.127043 0
15.715000 0.912448 0
15.720000 0.596343 0
15.725000 0.260504 0
15.730000 -0.028930 0
15.735000 -0.235581 0
15.740000 -0.349567 0
15.745000 -0.379468 4
15.750000 -0.346382 0
15.755000 -0.278190 0
15.760000 -0.201697 0
15.765000 -0.135210 0
15.770000 -0.085762 0
15.775000 -0.051702 0
15.780000 -0.027620 0
15.785000 -0.008237 0
15.790000 0.009986 0
15.795000 0.028895 0
15.800000 0.049250 0
15.805000 0.071269 0
15.810000 0.094919 0
15.815000 0.120048 0
15.820000 0.146418 0
15.825000 0.173726 0
15.830000 0.201604 0
15.835000 0.229627 0
15.840000 0.257321 0
15.845000 0.284178 0
15.850000 0.309666 0
15.855000 0.333250 0
15.860000 0.354407 0
15.865000 0.372646 0
15.870000 0.387527 0
15.875000 0.398677 0
15.880000 0.405807 0
15.885000 0.408722 5
15.890000 0.407332 0
15.895000 0.401653 0
15.900000 0.391808 0
15.905000 0.378022 0
15.910000 0.360615 0
15.915000 0.339988 0
15.920000 0.316604 0
15.925000 0.290977 0
15.930000 0.263649 0
15.935000 0.235170 0
15.940000 0.206084 0
15.945000 0.176905 0
15.950000 0.148113 0
15.955000 0.120132 0
15.960000 0.093327 0
15.965000 0.067999 0
15.970000 0.044378 0
15.975000 0.022630 0
15.980000 0.002856 0
15.985000 -0.014904 0
15.990000 -0.030659 0
15.995000 -0.044464 0
16.000000 -0.056409 0
16.005000 -0.066611 0
16.010000 -0.075207 0
16.015000 -0.082345 0
16.020000 -0.088180 0
16.025000 -0.092864 0
16.030000 -0.096548 0
16.035000 -0.099370 0
16.040000 -0.101462 0
16.045000 -0.102941 0
16.050000 -0.103911 0
16.055000 -0.104465 0
16.060000 -0.104682 0
16.065000 -0.104628 0
16.070000 -0.104260 0
16.075000 -0.103299 0
16.080000 -0.102344 0
16.085000 -0.101393 0
16.090000 -0.100447 0
16.095000 -0.099505 0
16.100000 -0.098568 0
16.105000 -0.097636 0
16.110000 -0.096709 0
16.115000 -0.095786 0
16.120000 -0.094868 0
16.125000 -0.093954 0
16.130000 -0.093044 0
16.135000 -0.092138 0
16.140000 -0.091236 0
16.145000 -0.090335 0
16.150000 -0.089434 0
16.155000 -0.088530 0
16.160000 -0.087616 0
16.165000 -0.086682 0
16.170000 -0.085713 0
16.175000 -0.084683 0
16.180000 -0.083553 0
16.185000 -0.082268 0
16.190000 -0.080745 0
16.195000 -0.078873 0
16.200000 -0.076500 0
16.205000 -0.073428 0
16.210000 -0.069411 0
16.215000 -0.064156 0
16.220000 -0.057324 0
16.225000 -0.048555 0
16.230000 -0.037485 0
16.235000 -0.023790 0
16.240000 -0.007225 0
16.245000 0.012319 0
16.250000 0.034765 0
16.255000 0.059806 0
16.260000 0.086873 0
16.265000 0.115134 0
16.270000 0.143512 0
16.275000 0.170745 0
16.280000 0.195471 0
16.285000 0.216339 0
16.290000 0.232128 0
16.295000 0.241866 0
16.300000 0.244930 1
16.305000 0.241110 0
16.310000 0.230634 0
16.315000 0.214144 0
16.320000 0.192631 0
16.325000 0.167337 0
16.330000 0.139637 0
16.335000 0.110910 0
16.340000 0.082418 0
16.345000 0.055169 0
16.350000 0.029746 0
16.355000 0.006017 0
16.360000 -0.017250 0
16.365000 -0.042705 0
16.370000 -0.074066 0
16.375000 -0.114433 0
16.380000 -0.163162 0
16.385000 -0.212639 0
16.390000 -0.247281 2
16.395000 -0.245992 0
16.400000 -0.186819 0
16.405000 -0.051933 0
16.410000 0.166179 0
16.415000 0.454829 0
16.420000 0.770598 0
16.425000 1.040130 0
16.430000 1.182914 3
16.435000 1.148033 0
16.440000 0.943340 0
16.445000 0.631124 0
16.450000 0.294380 0
16.455000 0.001690 0
16.460000 -0.208566 0
16.465000 -0.325453 0
16.470000 -0.357198 4
16.475000 -0.324984 0
16.480000 -0.257067 0
16.485000 -0.180693 0
16.490000 -0.114444 0
16.495000 -0.065378 0
16.500000 -0.031723 0
16.505000 -0.007958 0
16.510000 0.011232 0
16.515000 0.029366 0
16.520000 0.048250 0
16.525000 0.068618 0
16.530000 0.090667 0
16.535000 0.114354 0
16.540000 0.139514 0
16.545000 0.165903 0
16.550000 0.193204 0
16.555000 0.221037 0
16.560000 0.248966 0
16.565000 0.276504 0
16.570000 0.303131 0
16.575000 0.328305 0
16.580000 0.351483 0
16.585000 0.372138 0
16.590000 0.389777 0
16.595000 0.403964 0
16.600000 0.414334 0
16.605000 0.420609 0
16.610000 0.422612 5
16.615000 0.420270 0
16.620000 0.413623 0
16.625000 0.402818 0
16.630000 0.388106 0
16.635000 0.369831 0
16.640000 0.348417 0
16.645000 0.324349 0
16.650000 0.298157 0
16.655000 0.270396 0
16.660000 0.241625 0
16.665000 0.212388 0
16.670000 0.183202 0
16.675000 0.154535 0
16.680000 0.126804 0
16.685000 0.100359 0
16.690000 0.075482 0
16.695000 0.052388 0
16.700000 0.031221 0
16.705000 0.012064 0
16.710000 -0.005062 0
16.715000 -0.020182 0
16.720000 -0.033367 0
16.725000 -0.044718 0
16.730000 -0.054363 0
16.735000 -0.062447 0
16.740000 -0.069124 0
16.745000 -0.074549 0
16.750000 -0.078877 0
16.755000 -0.082257 0
16.760000 -0.084826 0
16.765000 -0.086712 0
16.770000 -0.088028 0
16.775000 -0.088875 0
16.780000 -0.089340 0
16.785000 -0.089498 0
16.790000 -0.089411 0
16.795000 -0.088641 0
16.800000 -0.087758 0
16.805000 -0.086880 0
16.810000 -0.086006 0
16.815000 -0.085137 0
16.820000 -0.084272 0
16.825000 -0.083411 0
16.830000 -0.082555 0
16.835000 -0.081702 0
16.840000 -0.080854 0
16.845000 -0.080010 0
16.850000 -0.079170 0
16.855000 -0.078334 0
16.860000 -0.077501 0
16.865000 -0.076670 0
16.870000 -0.075840 0
16.875000 -0.075007 0
16.880000 -0.074167 0
16.885000 -0.073311 0
16.890000 -0.072425 0
16.895000 -0.071488 0
16.900000 -0.070466 0
16.905000 -0.069308 0
16.910000 -0.067942 0
16.915000 -0.066265 0
16.920000 -0.064135 0
16.925000 -0.061369 0
16.930000 -0.057731 0
16.935000 -0.052936 0
16.940000 -0.046655 0
16.945000 -0.038524 0
16.950000 -0.028172 0
16.955000 -0.015254 0
16.960000 0.000504 0
16.965000 0.019253 0
16.970000 0.040966 0
16.975000 0.065391 0
16.980000 0.092013 0
16.985000 0.120044 0
16.990000 0.148442 0
16.995000 0.175957 0
17.000000 0.201217 0
17.005000 0.222839 0
17.010000 0.239549 0
17.015000 0.250308 0
17.020000 0.254418 1
17.025000 0.251595 0
17.030000 0.242002 0
17.035000 0.226233 0
17.040000 0.205254 0
17.045000 0.180297 0
17.050000 0.152750 0
17.055000 0.124019 0
17.060000 0.095404 0
17.065000 0.067961 0
17.070000 0.042328 0
17.075000 0.018446 0
17.080000 -0.004842 0
17.085000 -0.030131 0
17.090000 -0.061163 0
17.095000 -0.101181 0
17.100000 -0.149755 0
17.105000 -0.199431 0
17.110000 -0.234584 2
17.115000 -0.233859 0
17.120000 -0.174949 0
17.125000 -0.039730 0
17.130000 0.179341 0
17.135000 0.469025 0
17.140000 0.784527 0
17.145000 1.050751 0
17.150000 1.186425 3
17.155000 1.141472 0
17.160000 0.927177 0
17.165000 0.609994 0
17.170000 0.274896 0
17.175000 -0.010378 0
17.180000 -0.209766 0
17.185000 -0.314776 0
17.190000 -0.335878 4
17.195000 -0.296243 0
17.200000 -0.225252 0
17.205000 -0.149784 0
17.210000 -0.086767 0
17.215000 -0.041329 0
17.220000 -0.010443 0
17.225000 0.011764 0
17.230000 0.030371 0
17.235000 0.048511 0
17.240000 0.067687 0
17.245000 0.088459 0
17.250000 0.110939 0
17.255000 0.135039 0
17.260000 0.160563 0
17.265000 0.187235 0
17.270000 0.214708 0
17.275000 0.242572 0
17.280000 0.270357 0
17.285000 0.297552 0
17.290000 0.323612 0
17.295000 0.347978 0
17.300000 0.370097 0
17.305000 0.389442 0
17.310000 0.405529 0
17.315000 0.417943 0
17.320000 0.426348 0
17.325000 0.430506 5
17.330000 0.430288 0
17.335000 0.425676 0
17.340000 0.416768 0
17.345000 0.403772 0
17.350000 0.386998 0
17.355000 0.366847 0
17.360000 0.343789 0
17.365000 0.318353 0
17.370000 0.291099 0
17.375000 0.262600 0
17.380000 0.233423 0
17.385000 0.204110 0
17.390000 0.175160 0
17.395000 0.147021 0
17.400000 0.120075 0
17.405000 0.094634 0
17.410000 0.070939 0
17.415000 0.049159 0
17.420000 0.029397 0
17.425000 0.011690 0
17.430000 -0.003975 0
17.435000 -0.017660 0
17.440000 -0.029463 0
17.445000 -0.039510 0
17.450000 -0.047947 0
17.455000 -0.054928 0
17.460000 -0.060616 0
17.465000 -0.065168 0
17.470000 -0.068738 0
17.475000 -0.071469 0
17.480000 -0.073492 0
17.485000 -0.074927 0
17.490000 -0.075876 0
17.495000 -0.076432 0
17.500000 -0.076672 0
17.505000 -0.076660 0
17.510000 -0.075955 0
17.515000 -0.075135 0
17.520000 -0.074320 0
17.525000 -0.073509 0
17.530000 -0.072702 0
17.535000 -0.071899 0
17.540000 -0.071100 0
17.545000 -0.070305 0
17.550000 -0.069514 0
17.555000 -0.068726 0
17.560000 -0.067943 0
17.565000 -0.067163 0
17.570000 -0.066387 0
17.575000 -0.065613 0
17.580000 -0.064841 0
17.585000 -0.064069 0
17.590000 -0.063293 0
17.595000 -0.062508 0
17.600000 -0.061705 0
17.605000 -0.060868 0
17.610000 -0.059972 0
17.615000 -0.058981 0
17.620000 -0.057836 0
17.625000 -0.056457 0
17.630000 -0.054728 0
17.635000 -0.052495 0
17.640000 -0.049552 0
17.645000 -0.045645 0
17.650000 -0.040465 0
17.655000 -0.033661 0
17.660000 -0.024855 0
17.665000 -0.013671 0
17.670000 0.000225 0
17.675000 0.017074 0
17.680000 0.036967 0
17.685000 0.059790 0
17.690000 0.085177 0
17.695000 0.112482 0
17.700000 0.140779 0
17.705000 0.168895 0
17.710000 0.195479 0
17.715000 0.219103 0
17.720000 0.238386 0
17.725000 0.252128 0
17.730000 0.259429 0
17.735000 0.259789 1
17.740000 0.253162 0
17.745000 0.239963 0
17.750000 0.221026 0
17.755000 0.197512 0
17.760000 0.170794 0
17.765000 0.142323 0
17.770000 0.113488 0
17.775000 0.085484 0
17.780000 0.059146 0
17.785000 0.034701 0
17.790000 0.011386 0
17.795000 -0.012969 0
17.800000 -0.041940 0
17.805000 -0.079274 0
17.810000 -0.125970 0
17.815000 -0.176583 0
17.820000 -0.217158 0
17.825000 -0.226843 2
17.830000 -0.182527 0
17.835000 -0.064221 0
17.840000 0.138745 0
17.845000 0.417869 0
17.850000 0.733540 0
17.855000 1.012977 0
17.860000 1.171427 3
17.865000 1.151930 0
17.870000 0.957495 0
17.875000 0.649122 0
17.880000 0.311921 0
17.885000 0.017454 0
17.890000 -0.193948 0
17.895000 -0.310712 0
17.900000 -0.341307 4
17.905000 -0.307673 0
17.910000 -0.238939 0
17.915000 -0.162848 0
17.920000 -0.097824 0
17.925000 -0.050322 0
17.930000 -0.017994 0
17.935000 0.004950 0
17.940000 0.023797 0
17.945000 0.041913 0
17.950000 0.060955 0
17.955000 0.081563 0
17.960000 0.103881 0
17.965000 0.127838 0
17.970000 0.153245 0
17.975000 0.179834 0
17.980000 0.207265 0
17.985000 0.235133 0
17.990000 0.262972 0
17.995000 0.290272 0
18.000000 0.316491 0
18.005000 0.341068 0
18.010000 0.363447 0
18.015000 0.383095 0
18.020000 0.399525 0
18.025000 0.412310 0
18.030000 0.421107 0
18.035000 0.425669 0
18.040000 0.425855 5
18.045000 0.421637 0
18.050000 0.413105 0
18.055000 0.400458 0
18.060000 0.383998 0
18.065000 0.364120 0
18.070000 0.341294 0
18.075000 0.316042 0
18.080000 0.288926 0
18.085000 0.260520 0
18.090000 0.231394 0
18.095000 0.202094 0
18.100000 0.173125 0
18.105000 0.144938 0
18.110000 0.117921 0
18.115000 0.092393 0
18.120000 0.068599 0
18.125000 0.046716 0
18.130000 0.026847 0
18.135000 0.009036 0
18.140000 -0.006728 0
18.145000 -0.020506 0
18.150000 -0.032392 0
18.155000 -0.042513 0
18.160000 -0.051013 0
18.165000 -0.058048 0
18.170000 -0.063779 0
18.175000 -0.068365 0
18.180000 -0.071961 0
18.185000 -0.074710 0
18.190000 -0.076745 0
18.195000 -0.078186 0
18.200000 -0.079138 0
18.205000 -0.079691 0
18.210000 -0.079925 0
18.215000 -0.079906 0
18.220000 -0.079185 0
18.225000 -0.078350 0
18.230000 -0.077518 0
18.235000 -0.076691 0
18.240000 -0.075868 0
18.245000 -0.075050 0
18.250000 -0.074235 0
18.255000 -0.073424 0
18.260000 -0.072617 0
18.265000 -0.071815 0
18.270000 -0.071016 0
18.275000 -0.070221 0
18.280000 -0.069429 0
18.285000 -0.068640 0
18.290000 -0.067853 0
18.295000 -0.067066 0
18.300000 -0.066275 0
18.305000 -0.065476 0
18.310000 -0.064658 0
18.315000 -0.063807 0
18.320000 -0.062897 0
18.325000 -0.061891 0
18.330000 -0.060733 0
18.335000 -0.059340 0
18.340000 -0.057598 0
18.345000 -0.055350 0
18.350000 -0.052392 0
18.355000 -0.048468 0
18.360000 -0.043268 0
18.365000 -0.036440 0
18.370000 -0.027605 0
18.375000 -0.016385 0
18.380000 -0.002447 0
18.385000 0.014450 0
18.390000 0.034395 0
18.395000 0.057271 0
18.400000 0.082707 0
18.405000 0.110052 0
18.410000 0.138371 0
18.415000 0.166485 0
18.420000 0.193037 0
18.425000 0.216593 0
18.430000 0.235772 0
18.435000 0.249375 0
18.440000 0.256511 0
18.445000 0.256687 1
18.450000 0.249873 0
18.455000 0.236498 0
18.460000 0.217407 0
18.465000 0.193776 0
18.470000 0.166987 0
18.475000 0.138492 0
18.480000 0.109683 0
18.485000 0.081745 0
18.490000 0.055498 0
18.495000 0.031138 0
18.500000 0.007847 0
18.505000 -0.016620 0
18.510000 -0.045892 0
18.515000 -0.083677 0
18.520000 -0.130749 0
18.525000 -0.181247 0
18.530000 -0.220756 0
18.535000 -0.228116 2
18.540000 -0.180184 0
18.545000 -0.057249 0
18.550000 0.150609 0
18.555000 0.433363 0
18.560000 0.749195 0
18.565000 1.023526 0
18.570000 1.171872 3
18.575000 1.140717 0
18.580000 0.937306 0
18.585000 0.624954 0
18.590000 0.288513 0
18.595000 -0.002270 0
18.600000 -0.208948 0
18.605000 -0.321217 0
18.610000 -0.348284 4
18.615000 -0.312465 0
18.620000 -0.242888 0
18.625000 -0.166922 0
18.630000 -0.102450 0
18.635000 -0.055500 0
18.640000 -0.023527 0
18.645000 -0.000738 0
18.650000 0.018086 0
18.655000 0.036240 0
18.660000 0.055342 0
18.665000 0.076013 0
18.670000 0.098389 0
18.675000 0.122398 0
18.680000 0.147850 0
18.685000 0.174478 0
18.690000 0.201942 0
18.695000 0.229837 0
18.700000 0.257703 0
18.705000 0.285029 0
18.710000 0.311276 0
18.715000 0.335887 0
18.720000 0.358308 0
18.725000 0.378009 0
18.730000 0.394503 0
18.735000 0.407365 0
18.740000 0.416254 0
18.745000 0.420920 0
18.750000 0.421222 5
18.755000 0.417130 0
18.760000 0.408731 0
18.765000 0.396219 0
18.770000 0.379894 0
18.775000 0.360145 0
18.780000 0.337437 0
18.785000 0.312291 0
18.790000 0.285262 0
18.795000 0.256924 0
18.800000 0.227843 0
18.805000 0.198564 0
18.810000 0.169591 0
18.815000 0.141378 0
18.820000 0.114314 0
18.825000 0.088720 0
18.830000 0.064844 0
18.835000 0.042864 0
18.840000 0.022891 0
18.845000 0.004970 0
18.850000 -0.010908 0
18.855000 -0.024798 0
18.860000 -0.036793 0
18.865000 -0.047017 0
18.870000 -0.055612 0
18.875000 -0.062733 0
18.880000 -0.068539 0
18.885000 -0.073191 0
18.890000 -0.076842 0
18.895000 -0.079636 0
18.900000 -0.081707 0
18.905000 -0.083174 0
18.910000 -0.084143 0
18.915000 -0.084707 0
18.920000 -0.084945 0
18.925000 -0.084924 0
18.930000 -0.084607 0
18.935000 -0.083745 0
18.940000 -0.082887 0
18.945000 -0.082033 0
18.950000 -0.081183 0
18.955000 -0.080338 0
18.960000 -0.079497 0
18.965000 -0.078660 0
18.970000 -0.077827 0
18.975000 -0.076998 0
18.980000 -0.076174 0
18.985000 -0.075353 0
18.990000 -0.074536 0
18.995000 -0.073721 0
19.000000 -0.072909 0
19.005000 -0.072098 0
19.010000 -0.071284 0
19.015000 -0.070462 0
19.020000 -0.069623 0
19.025000 -0.068754 0
19.030000 -0.067832 0
19.035000 -0.066820 0
19.040000 -0.065667 0
19.045000 -0.064296 0
19.050000 -0.062597 0
19.055000 -0.060422 0
19.060000 -0.057577 0
19.065000 -0.053816 0
19.070000 -0.048839 0
19.075000 -0.042302 0
19.080000 -0.033830 0
19.085000 -0.023045 0
19.090000 -0.009604 0
19.095000 0.006754 0
19.100000 0.026150 0
19.105000 0.048511 0
19.110000 0.073517 0
19.115000 0.100575 0
19.120000 0.128808 0
19.125000 0.157087 0
19.130000 0.184088 0
19.135000 0.208391 0
19.140000 0.228600 0
19.145000 0.243474 0
19.150000 0.252050 0
19.155000 0.253752 1
19.160000 0.248446 0
19.165000 0.236464 0
19.170000 0.218563 0
19.175000 0.195849 0
19.180000 0.169664 0
19.185000 0.141449 0
19.190000 0.112616 0
19.195000 0.084404 0
19.200000 0.057732 0
19.205000 0.032971 0
19.210000 0.009588 0
19.215000 -0.014283 0
19.220000 -0.041980 0
19.225000 -0.077390 0
19.230000 -0.122358 0
19.235000 -0.172995 0
19.240000 -0.217090 0
19.245000 -0.234913 2
19.250000 -0.203417 0
19.255000 -0.101576 0
19.260000 0.083821 0
19.265000 0.349259 0
19.270000 0.662387 0
19.275000 0.956591 0
19.280000 1.146809 0
19.285000 1.167079 3
19.290000 1.006550 0
19.295000 0.715726 0
19.300000 0.377809 0
19.305000 0.069421 0
19.310000 -0.162130 0
19.315000 -0.299738 0
19.320000 -0.348070 4
19.325000 -0.326474 0
19.330000 -0.263041 0
19.335000 -0.186544 0
19.340000 -0.117943 0
19.345000 -0.066313 0
19.350000 -0.030880 0
19.355000 -0.006231 0
19.360000 0.013239 0
19.365000 0.031356 0
19.370000 0.050120 0
19.375000 0.070353 0
19.380000 0.092286 0
19.385000 0.115884 0
19.390000 0.140984 0
19.395000 0.167337 0
19.400000 0.194622 0
19.405000 0.222449 0
19.410000 0.250370 0
19.415000 0.277886 0
19.420000 0.304463 0
19.425000 0.329546 0
19.430000 0.352577 0
19.435000 0.373017 0
19.440000 0.390366 0
19.445000 0.404181 0
19.450000 0.414098 0
19.455000 0.419842 0
19.460000 0.421243 5
19.465000 0.418245 0
19.470000 0.410904 0
19.475000 0.399389 0
19.480000 0.383975 0
19.485000 0.365030 0
19.490000 0.343005 0
19.495000 0.318406 0
19.500000 0.291786 0
19.505000 0.263715 0
19.510000 0.234764 0
19.515000 0.205485 0
19.520000 0.176396 0
19.525000 0.147963 0
19.530000 0.120592 0
19.535000 0.094620 0
19.540000 0.070316 0
19.545000 0.047874 0
19.550000 0.027418 0
19.555000 0.009011 0
19.560000 -0.007345 0
19.565000 -0.021695 0
19.570000 -0.034124 0
19.575000 -0.044749 0
19.580000 -0.053710 0
19.585000 -0.061159 0
19.590000 -0.067256 0
19.595000 -0.072160 0
19.600000 -0.076028 0
19.605000 -0.079007 0
19.610000 -0.081232 0
19.615000 -0.082827 0
19.620000 -0.083901 0
19.625000 -0.084550 0
19.630000 -0.084855 0
19.635000 -0.084888 0
19.640000 -0.084606 0
19.645000 -0.083744 0
19.650000 -0.082886 0
19.655000 -0.082032 0
19.660000 -0.081182 0
19.665000 -0.080337 0
19.670000 -0.079496 0
19.675000 -0.078659 0
19.680000 -0.077826 0
19.685000 -0.076998 0
19.690000 -0.076173 0
19.695000 -0.075352 0
19.700000 -0.074535 0
19.705000 -0.073721 0
19.710000 -0.072910 0
19.715000 -0.072099 0
19.720000 -0.071286 0
19.725000 -0.070468 0
19.730000 -0.069635 0
19.735000 -0.068774 0
19.740000 -0.067866 0
19.745000 -0.066878 0
19.750000 -0.065761 0
19.755000 -0.064443 0
19.760000 -0.062823 0
19.765000 -0.060762 0
19.770000 -0.058074 0
19.775000 -0.054524 0
19.780000 -0.049822 0
19.785000 -0.043632 0
19.790000 -0.035584 0
19.795000 -0.025297 0
19.800000 -0.012415 0
19.805000 0.003343 0
19.810000 0.022130 0
19.815000 0.043917 0
19.820000 0.068436 0
19.825000 0.095149 0
19.830000 0.123233 0
19.835000 0.151603 0
19.840000 0.178963 0
19.845000 0.203904 0
19.850000 0.225011 0
19.855000 0.241002 0
19.860000 0.250849 0
19.865000 0.253895 1
19.870000 0.249918 0
19.875000 0.239161 0
19.880000 0.222307 0
19.885000 0.200406 0
19.890000 0.174766 0
19.895000 0.146822 0
19.900000 0.118003 0
19.905000 0.089593 0
19.910000 0.062587 0
19.915000 0.037480 0
19.920000 0.013939 0
19.925000 -0.009633 0
19.930000 -0.036335 0
19.935000 -0.070099 0
19.940000 -0.113409 0
19.945000 -0.163672 0
19.950000 -0.210219 0
19.955000 -0.234411 2
19.960000 -0.213373 0
19.965000 -0.125297 0
19.970000 0.044953 0
19.975000 0.297671 0
19.980000 0.606335 0
19.985000 0.909848 0
19.990000 1.123986 0
19.995000 1.176311 3
20.000000 1.045576 0
20.005000 0.772695 0
20.010000 0.437108 0
20.015000 0.118266 0
20.020000 -0.130823 0
20.025000 -0.287891 0
20.030000 -0.353819 4
20.035000 -0.345140 0
20.040000 -0.288350 0
20.045000 -0.212544 0
20.050000 -0.140788 0
20.055000 -0.084826 0
20.060000 -0.045794 0
20.065000 -0.018974 0
20.070000 0.001413 0
20.075000 0.019661 0
20.080000 0.038168 0
20.085000 0.057991 0
20.090000 0.079476 0
20.095000 0.102642 0
20.100000 0.127357 0
20.105000 0.153398 0
20.110000 0.180468 0
20.115000 0.208201 0
20.120000 0.236172 0
20.125000 0.263901 0
20.130000 0.290871 0
20.135000 0.316536 0
20.140000 0.340345 0
20.145000 0.361756 0
20.150000 0.380260 0
20.155000 0.395397 0
20.160000 0.406778 0
20.165000 0.414096 0
20.170000 0.417147 5
20.175000 0.415831 0
20.180000 0.410161 0
20.185000 0.400264 0
20.190000 0.386372 0
20.195000 0.368813 0
20.200000 0.348003 0
20.205000 0.324422 0
20.210000 0.298601 0
20.215000 0.271097 0
20.220000 0.242479 0
20.225000 0.213301 0
20.230000 0.184093 0
20.235000 0.155339 0
20.240000 0.127468 0
20.245000 0.100845 0
20.250000 0.075767 0
20.255000 0.052458 0
20.260000 0.031076 0
20.265000 0.011709 0
20.270000 -0.005613 0
20.275000 -0.020913 0
20.280000 -0.034256 0
20.285000 -0.045743 0
20.290000 -0.055504 0
20.295000 -0.063681 0
20.300000 -0.070432 0
20.305000 -0.075914 0
20.310000 -0.080285 0
20.315000 -0.083694 0
20.320000 -0.086282 0
20.325000 -0.088178 0
20.330000 -0.089498 0
20.335000 -0.090344 0
20.340000 -0.090804 0
20.345000 -0.090955 0
20.350000 -0.090860 0
20.355000 -0.090082 0
20.360000 -0.089193 0
20.365000 -0.088307 0
20.370000 -0.087426 0
20.375000 -0.086550 0
20.380000 -0.085678 0
20.385000 -0.084810 0
20.390000 -0.083947 0
20.395000 -0.083087 0
20.400000 -0.082232 0
20.405000 -0.081382 0
20.410000 -0.080535 0
20.415000 -0.079691 0
20.420000 -0.078851 0
20.425000 -0.078013 0
20.430000 -0.077176 0
20.435000 -0.076335 0
20.440000 -0.075487 0
20.445000 -0.074620 0
20.450000 -0.073722 0
20.455000 -0.072768 0
20.460000 -0.071722 0
20.465000 -0.070529 0
20.470000 -0.069112 0
20.475000 -0.067361 0
20.480000 -0.065125 0
20.485000 -0.062208 0
20.490000 -0.058363 0
20.495000 -0.053292 0
20.500000 -0.046651 0
20.505000 -0.038070 0
20.510000 -0.027174 0
20.515000 -0.013624 0
20.520000 0.002832 0
20.525000 0.022312 0
20.530000 0.044737 0
20.535000 0.069788 0
20.540000 0.096874 0
20.545000 0.125127 0
20.550000 0.153427 0
20.555000 0.180465 0
20.560000 0.204835 0
20.565000 0.225154 0
20.570000 0.240188 0
20.575000 0.248979 0
20.580000 0.250940 1
20.585000 0.245925 0
20.590000 0.234244 0
20.595000 0.216629 0
20.600000 0.194162 0
20.605000 0.168160 0
20.610000 0.140050 0
20.615000 0.111233 0
20.620000 0.082955 0
20.625000 0.056154 0
20.630000 0.031254 0
20.635000 0.007821 0
20.640000 -0.015859 0
20.645000 -0.042969 0
20.650000 -0.077393 0
20.655000 -0.121340 0
20.660000 -0.171762 0
20.665000 -0.217554 0
20.670000 -0.239907 2
20.675000 -0.216123 0
20.680000 -0.124820 0
20.685000 0.048552 0
20.690000 0.303560 0
20.695000 0.613007 0
20.700000 0.915679 0
20.705000 1.128104 0
20.710000 1.179056 3
20.715000 1.048807 0
20.720000 0.777565 0
20.725000 0.442534 0
20.730000 0.121661 0
20.735000 -0.132102 0
20.740000 -0.295592 0
20.745000 -0.368418 4
20.750000 -0.365668 0
20.755000 -0.312523 0
20.760000 -0.237493 0
20.765000 -0.164159 0
20.770000 -0.105520 0
20.775000 -0.063947 0
20.780000 -0.035387 0
20.785000 -0.014131 0
20.790000 0.004352 0
20.795000 0.022737 0
20.800000 0.042271 0
20.805000 0.063403 0
20.810000 0.086206 0
20.815000 0.110580 0
20.820000 0.136329 0
20.825000 0.163181 0
20.830000 0.190800 0
20.835000 0.218788 0
20.840000 0.246694 0
20.845000 0.274024 0
20.850000 0.300255 0
20.855000 0.324849 0
20.860000 0.347274 0
20.865000 0.367019 0
20.870000 0.383615 0
20.875000 0.396653 0
20.880000 0.405798 0
20.885000 0.410808 0
20.890000 0.411538 5
20.895000 0.407952 0
20.900000 0.400120 0
20.905000 0.388219 0
20.910000 0.372525 0
20.915000 0.353401 0
20.920000 0.331283 0
20.925000 0.306664 0
20.930000 0.280076 0
20.935000 0.252069 0
20.940000 0.223193 0
20.945000 0.193981 0
20.950000 0.164932 0
20.955000 0.136498 0
20.960000 0.109076 0
20.965000 0.082997 0
20.970000 0.058528 0
20.975000 0.035863 0
20.980000 0.015134 0
20.985000 -0.003590 0
20.990000 -0.020296 0
20.995000 -0.035018 0
21.000000 -0.047832 0
21.005000 -0.058844 0
21.010000 -0.068181 0
21.015000 -0.075990 0
21.020000 -0.082422 0
21.025000 -0.087631 0
21.030000 -0.091771 0
21.035000 -0.094986 0
21.040000 -0.097411 0
21.045000 -0.099170 0
21.050000 -0.100374 0
21.055000 -0.101121 0
21.060000 -0.101496 0
21.065000 -0.101571 0
21.070000 -0.101409 0
21.075000 -0.100576 0
21.080000 -0.099634 0
21.085000 -0.098697 0
21.090000 -0.097764 0
21.095000 -0.096836 0
21.100000 -0.095912 0
21.105000 -0.094994 0
21.110000 -0.094079 0
21.115000 -0.093170 0
21.120000 -0.092264 0
21.125000 -0.091363 0
21.130000 -0.090467 0
21.135000 -0.089574 0
21.140000 -0.088685 0
21.145000 -0.087798 0
21.150000 -0.086913 0
21.155000 -0.086025 0
21.160000 -0.085130 0
21.165000 -0.084221 0
21.170000 -0.083283 0
21.175000 -0.082296 0
21.180000 -0.081228 0
21.185000 -0.080030 0
21.190000 -0.078632 0
21.195000 -0.076934 0
21.200000 -0.074802 0
21.205000 -0.072058 0
21.210000 -0.068476 0
21.215000 -0.063778 0
21.220000 -0.057645 0
21.225000 -0.049720 0
21.230000 -0.039636 0
21.235000 -0.027048 0
21.240000 -0.011671 0
21.245000 0.006665 0
21.250000 0.027962 0
21.255000 0.052011 0
21.260000 0.078348 0
21.265000 0.106241 0
21.270000 0.134703 0
21.275000 0.162534 0
21.280000 0.188394 0
21.285000 0.210910 0
21.290000 0.228794 0
21.295000 0.240960 0
21.300000 0.246639 1
21.305000 0.245454 0
21.310000 0.237465 0
21.315000 0.223162 0
21.320000 0.203415 0
21.325000 0.179388 0
21.330000 0.152423 0
21.335000 0.123915 0
21.340000 0.095189 0
21.345000 0.067368 0
21.350000 0.041223 0
21.355000 0.016930 0
21.360000 -0.006290 0
21.365000 -0.030553 0
21.370000 -0.059307 0
21.375000 -0.096188 0
21.380000 -0.142339 0
21.385000 -0.192956 0
21.390000 -0.235216 0
21.395000 -0.249496 2
21.400000 -0.213517 0
21.405000 -0.107326 0
21.410000 0.081230 0
21.415000 0.348011 0
21.420000 0.661249 0
21.425000 0.956641 0
21.430000 1.152044 0
21.435000 1.182328 3
21.440000 1.033622 0
21.445000 0.751127 0
21.450000 0.414083 0
21.455000 0.098664 0
21.460000 -0.145550 0
21.465000 -0.298376 0
21.470000 -0.361515 4
21.475000 -0.351520 0
21.480000 -0.294404 0
21.485000 -0.218570 0
21.490000 -0.146584 0
21.495000 -0.090092 0
21.500000 -0.050429 0
21.505000 -0.023105 0
21.510000 -0.002443 0
21.515000 0.015873 0
21.520000 0.034308 0
21.525000 0.053983 0
21.530000 0.075282 0
21.535000 0.098248 0
21.540000 0.122767 0
21.545000 0.148630 0
21.550000 0.175558 0
21.555000 0.203206 0
21.560000 0.231166 0
21.565000 0.258982 0
21.570000 0.286152 0
21.575000 0.312151 0
21.580000 0.336440 0
21.585000 0.358487 0
21.590000 0.377784 0
21.595000 0.393869 0
21.600000 0.406341 0
21.605000 0.414878 0
21.610000 0.419249 0
21.615000 0.419325 5
21.620000 0.415085 0
21.625000 0.406614 0
21.630000 0.394105 0
21.635000 0.377847 0
21.640000 0.358215 0
21.645000 0.335656 0
21.650000 0.310671 0
21.655000 0.283797 0
21.660000 0.255585 0
21.665000 0.226586 0
21.670000 0.197328 0
21.675000 0.168306 0
21.680000 0.139965 0
21.685000 0.112692 0
21.690000 0.086810 0
21.695000 0.062573 0
21.700000 0.040168 0
21.705000 0.019716 0
21.710000 0.001276 0
21.715000 -0.015146 0
21.720000 -0.029593 0
21.725000 -0.042145 0
21.730000 -0.052912 0
21.735000 -0.062026 0
21.740000 -0.069634 0
21.745000 -0.075890 0
21.750000 -0.080948 0
21.755000 -0.084960 0
21.760000 -0.088069 0
21.765000 -0.090410 0
21.770000 -0.092103 0
21.775000 -0.093259 0
21.780000 -0.093972 0
21.785000 -0.094326 0
21.790000 -0.094392 0
21.795000 -0.094229 0
21.800000 -0.093427 0
21.805000 -0.092521 0
21.810000 -0.091619 0
21.815000 -0.090721 0
21.820000 -0.089828 0
21.825000 -0.088940 0
21.830000 -0.088056 0
21.835000 -0.087176 0
21.840000 -0.086301 0
21.845000 -0.085430 0
21.850000 -0.084563 0
21.855000 -0.083700 0
21.860000 -0.082841 0
21.865000 -0.081985 0
21.870000 -0.081132 0
21.875000 -0.080278 0
21.880000 -0.079422 0
21.885000 -0.078557 0
21.890000 -0.077676 0
21.895000 -0.076762 0
21.900000 -0.075794 0
21.905000 -0.074736 0
21.910000 -0.073536 0
21.915000 -0.072119 0
21.920000 -0.070378 0
21.925000 -0.068171 0
21.930000 -0.065310 0
21.935000 -0.061557 0
21.940000 -0.056628 0
21.945000 -0.050191 0
21.950000 -0.041886 0
21.955000 -0.031346 0
21.960000 -0.018235 0
21.965000 -0.002286 0
21.970000 0.016640 0
21.975000 0.038507 0
21.980000 0.063053 0
21.985000 0.089758 0
21.990000 0.117833 0
21.995000 0.146240 0
22.000000 0.173738 0
22.005000 0.198971 0
22.010000 0.220570 0
22.015000 0.237277 0
22.020000 0.248065 0
22.025000 0.252242 1
22.030000 0.249526 0
22.035000 0.240071 0
22.040000 0.224457 0
22.045000 0.203630 0
22.050000 0.178806 0
22.055000 0.151350 0
22.060000 0.122658 0
22.065000 0.094021 0
22.070000 0.066502 0
22.075000 0.040762 0
22.080000 0.016798 0
22.085000 -0.006446 0
22.090000 -0.031425 0
22.095000 -0.061791 0
22.100000 -0.100901 0
22.105000 -0.148821 0
22.110000 -0.198958 0
22.115000 -0.236636 0
22.120000 -0.241137 2
22.125000 -0.190243 0
22.130000 -0.065253 0
22.135000 0.143078 0
22.140000 0.425039 0
22.145000 0.740928 0
22.150000 1.019799 0
22.155000 1.179815 3
22.160000 1.164199 0
22.165000 0.972326 0
22.170000 0.664876 0
22.175000 0.327532 0
22.180000 0.032642 0
22.185000 -0.178970 0
22.190000 -0.295593 0
22.195000 -0.325793 4
22.200000 -0.291739 0
22.205000 -0.222810 0
22.210000 -0.146871 0
22.215000 -0.082273 0
22.220000 -0.035284 0
22.225000 -0.003388 0
22.230000 0.019276 0
22.235000 0.037982 0
22.240000 0.056046 0
22.245000 0.075084 0
22.250000 0.095709 0
22.255000 0.118052 0
22.260000 0.142032 0
22.265000 0.167456 0
22.270000 0.194048 0
22.275000 0.221460 0
22.280000 0.249281 0
22.285000 0.277037 0
22.290000 0.304212 0
22.295000 0.330256 0
22.300000 0.354605 0
22.305000 0.376699 0
22.310000 0.396005 0
22.315000 0.412035 0
22.320000 0.424368 0
22.325000 0.432668 0
22.330000 0.436695 5
22.335000 0.436321 0
22.340000 0.431531 0
22.345000 0.422429 0
22.350000 0.409228 0
22.355000 0.392246 0
22.360000 0.371890 0
22.365000 0.348643 0
22.370000 0.323039 0
22.375000 0.295645 0
22.380000 0.267041 0
22.385000 0.237800 0
22.390000 0.208465 0
22.395000 0.179538 0
22.400000 0.151463 0
22.405000 0.124622 0
22.410000 0.099322 0
22.415000 0.075799 0
22.420000 0.054217 0
22.425000 0.034670 0
22.430000 0.017191 0
22.435000 0.001758 0
22.440000 -0.011697 0
22.445000 -0.023276 0
22.450000 -0.033111 0
22.455000 -0.041350 0
22.460000 -0.048151 0
22.465000 -0.053678 0
22.470000 -0.058090 0
22.475000 -0.061541 0
22.480000 -0.064172 0
22.485000 -0.066115 0
22.490000 -0.067487 0
22.495000 -0.068391 0
22.500000 -0.068915 0
22.505000 -0.069135 0
22.510000 -0.069114 0
22.515000 -0.068440 0
22.520000 -0.067658 0
22.525000 -0.066880 0
22.530000 -0.066106 0
22.535000 -0.065336 0
22.540000 -0.064569 0
22.545000 -0.063807 0
22.550000 -0.063048 0
22.555000 -0.062293 0
22.560000 -0.061542 0
22.565000 -0.060794 0
22.570000 -0.060050 0
22.575000 -0.059309 0
22.580000 -0.058570 0
22.585000 -0.057832 0
22.590000 -0.057093 0
22.595000 -0.056349 0
22.600000 -0.055593 0
22.605000 -0.054815 0
22.610000 -0.053995 0
22.615000 -0.053106 0
22.620000 -0.052104 0
22.625000 -0.050923 0
22.630000 -0.049472 0
22.635000 -0.047621 0
22.640000 -0.045196 0
22.645000 -0.041972 0
22.650000 -0.037674 0
22.655000 -0.031971 0
22.660000 -0.024497 0
22.665000 -0.014866 0
22.670000 -0.002708 0
22.675000 0.012285 0
22.680000 0.030302 0
22.685000 0.051363 0
22.690000 0.075254 0
22.695000 0.101494 0
22.700000 0.129313 0
22.705000 0.157663 0
22.710000 0.185275 0
22.715000 0.210735 0
22.720000 0.232606 0
22.725000 0.249553 0
22.730000 0.260485 0
22.735000 0.264663 1
22.740000 0.261785 0
22.745000 0.252018 0
22.750000 0.235988 0
22.755000 0.214703 0
22.760000 0.189455 0
22.765000 0.161687 0
22.770000 0.132850 0
22.775000 0.104271 0
22.780000 0.077001 0
22.785000 0.051617 0
22.790000 0.027898 0
22.795000 0.004389 0
22.800000 -0.021893 0
22.805000 -0.054913 0
22.810000 -0.097454 0
22.815000 -0.147486 0
22.820000 -0.194937 0
22.825000 -0.221481 2
22.830000 -0.204128 0
22.835000 -0.120597 0
22.840000 0.044995 0
22.845000 0.294023 0
22.850000 0.601235 0
22.855000 0.906309 0
22.860000 1.124485 0
22.865000 1.181536 3
22.870000 1.052822 0
22.875000 0.778366 0
22.880000 0.442069 0
22.885000 0.126815 0
22.890000 -0.113838 0
22.895000 -0.259141 0
22.900000 -0.312427 4
22.905000 -0.293121 0
22.910000 -0.230299 0
22.915000 -0.153997 0
22.920000 -0.085986 0
22.925000 -0.035400 0
22.930000 -0.001081 0
22.935000 0.022738 0
22.940000 0.041768 0
22.945000 0.059764 0
22.950000 0.078602 0
22.955000 0.099011 0
22.960000 0.121168 0
22.965000 0.145001 0
22.970000 0.170320 0
22.975000 0.196845 0
22.980000 0.224221 0
22.985000 0.252022 0
22.990000 0.279764 0
22.995000 0.306911 0
23.000000 0.332897 0
23.005000 0.357137 0
23.010000 0.379056 0
23.015000 0.398104 0
23.020000 0.413785 0
23.025000 0.425669 0
23.030000 0.433421 0
23.035000 0.436807 5
23.040000 0.435712 0
23.045000 0.430140 0
23.050000 0.420218 0
23.055000 0.406188 0
23.060000 0.388399 0
23.065000 0.367291 0
23.070000 0.343374 0
23.075000 0.317212 0
23.080000 0.289397 0
23.085000 0.260526 0
23.090000 0.231183 0
23.095000 0.201916 0
23.100000 0.173226 0
23.105000 0.145549 0
23.110000 0.119250 0
23.115000 0.094618 0
23.120000 0.071868 0
23.125000 0.051137 0
23.130000 0.032494 0
23.135000 0.015946 0
23.140000 0.001449 0
23.145000 -0.011086 0
23.150000 -0.021781 0
23.155000 -0.030782 0
23.160000 -0.038248 0
23.165000 -0.044346 0
23.170000 -0.049243 0
23.175000 -0.053099 0
23.180000 -0.056068 0
23.185000 -0.058289 0
23.190000 -0.059887 0
23.195000 -0.060975 0
23.200000 -0.061648 0
23.205000 -0.061990 0
23.210000 -0.062070 0
23.215000 -0.061439 0
23.220000 -0.060692 0
23.225000 -0.059949 0
23.230000 -0.059210 0
23.235000 -0.058474 0
23.240000 -0.057742 0
23.245000 -0.057013 0
23.250000 -0.056288 0
23.255000 -0.055567 0
23.260000 -0.054849 0
23.265000 -0.054135 0
23.270000 -0.053424 0
23.275000 -0.052716 0
23.280000 -0.052010 0
23.285000 -0.051305 0
23.290000 -0.050599 0
23.295000 -0.049887 0
23.300000 -0.049164 0
23.305000 -0.048417 0
23.310000 -0.047628 0
23.315000 -0.046766 0
23.320000 -0.045786 0
23.325000 -0.044619 0
23.330000 -0.043167 0
23.335000 -0.041292 0
23.340000 -0.038809 0
23.345000 -0.035481 0
23.350000 -0.031012 0
23.355000 -0.025056 0
23.360000 -0.017228 0
23.365000 -0.007130 0
23.370000 0.005610 0
23.375000 0.021288 0
23.380000 0.040064 0
23.385000 0.061901 0
23.390000 0.086507 0
23.395000 0.113301 0
23.400000 0.141398 0
23.405000 0.169637 0
23.410000 0.196646 0
23.415000 0.220942 0
23.420000 0.241065 0
23.425000 0.255718 0
23.430000 0.263906 0
23.435000 0.265045 1
23.440000 0.259032 0
23.445000 0.246256 0
23.450000 0.227555 0
23.455000 0.204126 0
23.460000 0.177397 0
23.465000 0.148878 0
23.470000 0.120019 0
23.475000 0.092053 0
23.480000 0.065822 0
23.485000 0.041498 0
23.490000 0.018151 0
23.495000 -0.006677 0
23.500000 -0.036854 0
23.505000 -0.076053 0
23.510000 -0.124327 0
23.515000 -0.174216 0
23.520000 -0.209233 2
23.525000 -0.206538 0
23.530000 -0.142374 0
23.535000 0.002016 0
23.540000 0.232759 0
23.545000 0.531258 0
23.550000 0.843032 0
23.555000 1.083537 0
23.560000 1.170953 3
23.565000 1.071070 0
23.570000 0.816962 0
23.575000 0.485611 0
23.580000 0.160264 0
23.585000 -0.100344 0
23.590000 -0.269538 0
23.595000 -0.345669 4
23.600000 -0.343988 0
23.605000 -0.290688 0
23.610000 -0.215540 0
23.615000 -0.142893 0
23.620000 -0.085692 0
23.625000 -0.045738 0
23.630000 -0.018441 0
23.635000 0.002110 0
23.640000 0.020376 0
23.645000 0.038857 0
23.650000 0.058655 0
23.655000 0.080130 0
23.660000 0.103303 0
23.665000 0.128040 0
23.670000 0.154110 0
23.675000 0.181210 0
23.680000 0.208966 0
23.685000 0.236939 0
23.690000 0.264641 0
23.695000 0.291539 0
23.700000 0.317079 0
23.705000 0.340698 0
23.710000 0.361846 0
23.715000 0.380008 0
23.720000 0.394722 0
23.725000 0.405600 0
23.730000 0.412343 0
23.735000 0.414758 5
23.740000 0.412758 0
23.745000 0.406377 0
23.750000 0.395761 0
23.755000 0.381164 0
23.760000 0.362939 0
23.765000 0.341525 0
23.770000 0.317421 0
23.775000 0.291178 0
23.780000 0.263367 0
23.785000 0.234565 0
23.790000 0.205334 0
23.795000 0.176203 0
23.800000 0.147650 0
23.805000 0.120097 0
23.810000 0.093896 0
23.815000 0.069328 0
23.820000 0.046602 0
23.825000 0.025854 0
23.830000 0.007157 0
23.835000 -0.009480 0
23.840000 -0.024093 0
23.845000 -0.036765 0
23.850000 -0.047609 0
23.855000 -0.056762 0
23.860000 -0.064378 0
23.865000 -0.070615 0
23.870000 -0.075637 0
23.875000 -0.079600 0
23.880000 -0.082654 0
23.885000 -0.084936 0
23.890000 -0.086574 0
23.895000 -0.087677 0
23.900000 -0.088345 0
23.905000 -0.088662 0
23.910000 -0.088698 0
23.915000 -0.088412 0
23.920000 -0.087530 0
23.925000 -0.086653 0
23.930000 -0.085781 0
23.935000 -0.084912 0
23.940000 -0.084048 0
23.945000 -0.083189 0
23.950000 -0.082333 0
23.955000 -0.081482 0
23.960000 -0.080635 0
23.965000 -0.079793 0
23.970000 -0.078954 0
23.975000 -0.078119 0
23.980000 -0.077287 0
23.985000 -0.076458 0
23.990000 -0.075629 0
23.995000 -0.074800 0
24.000000 -0.073964 0
24.005000 -0.073114 0
24.010000 -0.072237 0
24.015000 -0.071312 0
24.020000 -0.070308 0
24.025000 -0.069174 0
24.030000 -0.067840 0
24.035000 -0.066203 0
24.040000 -0.064121 0
24.045000 -0.061410 0
24.050000 -0.057829 0
24.055000 -0.053088 0
24.060000 -0.046847 0
24.065000 -0.038732 0
24.070000 -0.028358 0
24.075000 -0.015371 0
24.080000 0.000510 0
24.085000 0.019436 0
24.090000 0.041366 0
24.095000 0.066020 0
24.100000 0.092843 0
24.105000 0.120992 0
24.110000 0.149358 0
24.115000 0.176630 0
24.120000 0.201381 0
24.125000 0.222192 0
24.130000 0.237784 0
24.135000 0.247146 0
24.140000 0.249648 1
24.145000 0.245102 0
24.150000 0.233794 0
24.155000 0.216448 0
24.160000 0.194149 0
24.165000 0.168233 0
24.170000 0.140153 0
24.175000 0.111339 0
24.180000 0.083060 0
24.185000 0.056276 0
24.190000 0.031408 0
24.195000 0.007993 0
24.200000 -0.015759 0
24.205000 -0.043141 0
24.210000 -0.078093 0
24.215000 -0.122655 0
24.220000 -0.173228 0
24.225000 -0.217831 0
24.230000 -0.236772 2
24.235000 -0.206824 0
24.240000 -0.106656 0
24.245000 0.077300 0
24.250000 0.341871 0
24.255000 0.654839 0
24.260000 0.949258 0
24.265000 1.139356 0
24.270000 1.158654 3
24.275000 0.998141 0
24.280000 0.709658 0
24.285000 0.372058 0
24.290000 0.059238 0
24.295000 -0.181494 0
24.300000 -0.331314 0
24.305000 -0.392445 4
24.310000 -0.381442 0
24.315000 -0.323982 0
24.320000 -0.248003 0
24.325000 -0.175734 0
24.330000 -0.118753 0
24.335000 -0.078527 0
24.340000 -0.050723 0
24.345000 -0.029738 0
24.350000 -0.011245 0
24.355000 0.007269 0
24.360000 0.026966 0
24.365000 0.048259 0
24.370000 0.071208 0
24.375000 0.095710 0
24.380000 0.121567 0
24.385000 0.148512 0
24.390000 0.176212 0
24.395000 0.204274 0
24.400000 0.232253 0
24.405000 0.259664 0
24.410000 0.285991 0
24.415000 0.310705 0
24.420000 0.333282 0
24.425000 0.353216 0
24.430000 0.370043 0
24.435000 0.383358 0
24.440000 0.392828 0
24.445000 0.398205 0
24.450000 0.399342 5
24.455000 0.396193 0
24.460000 0.388819 0
24.465000 0.377385 0
24.470000 0.362153 0
24.475000 0.343471 0
24.480000 0.321763 0
24.485000 0.297508 0
24.490000 0.271226 0
24.495000 0.243457 0
24.500000 0.214745 0
24.505000 0.185618 0
24.510000 0.156574 0
24.515000 0.128068 0
24.520000 0.100499 0
24.525000 0.074208 0
24.530000 0.049468 0
24.535000 0.026485 0
24.540000 0.005403 0
24.545000 -0.013699 0
24.550000 -0.030797 0
24.555000 -0.045914 0
24.560000 -0.059115 0
24.565000 -0.070498 0
24.570000 -0.080186 0
24.575000 -0.088317 0
24.580000 -0.095040 0
24.585000 -0.100508 0
24.590000 -0.104872 0
24.595000 -0.108276 0
24.600000 -0.110857 0
24.605000 -0.112741 0
24.610000 -0.114041 0
24.615000 -0.114858 0
24.620000 -0.115279 0
24.625000 -0.115381 0
24.630000 -0.115226 0
24.635000 -0.114774 0
24.640000 -0.113761 0
24.645000 -0.112753 0
24.650000 -0.111751 0
24.655000 -0.110753 0
24.660000 -0.109760 0
24.665000 -0.108772 0
24.670000 -0.107789 0
24.675000 -0.106811 0
24.680000 -0.105838 0
24.685000 -0.104869 0
24.690000 -0.103905 0
24.695000 -0.102946 0
24.700000 -0.101991 0
24.705000 -0.101039 0
24.710000 -0.100089 0
24.715000 -0.099139 0
24.720000 -0.098185 0
24.725000 -0.097222 0
24.730000 -0.096237 0
24.735000 -0.095217 0
24.740000 -0.094133 0
24.745000 -0.092949 0
24.750000 -0.091606 0
24.755000 -0.090023 0
24.760000 -0.088086 0
24.765000 -0.085645 0
24.770000 -0.082504 0
24.775000 -0.078417 0
24.780000 -0.073092 0
24.785000 -0.066197 0
24.790000 -0.057374 0
24.795000 -0.046264 0
24.800000 -0.032547 0
24.805000 -0.015981 0
24.810000 0.003545 0
24.815000 0.025958 0
24.820000 0.050962 0
24.825000 0.078005 0
24.830000 0.106272 0
24.835000 0.134711 0
24.840000 0.162083 0
24.845000 0.187044 0
24.850000 0.208257 0
24.855000 0.224502 0
24.860000 0.234798 0
24.865000 0.238498 1
24.870000 0.235358 0
24.875000 0.225560 0
24.880000 0.209702 0
24.885000 0.188729 0
24.890000 0.163848 0
24.895000 0.136406 0
24.900000 0.107773 0
24.905000 0.079216 0
24.910000 0.051776 0
24.915000 0.026102 0
24.920000 0.002195 0
24.925000 -0.020967 0
24.930000 -0.045768 0
24.935000 -0.075781 0
24.940000 -0.114369 0
24.945000 -0.161831 0
24.950000 -0.212110 0
24.955000 -0.251247 0
24.960000 -0.259156 2
24.965000 -0.213918 0
24.970000 -0.096629 0
24.975000 0.103055 0
24.980000 0.378111 0
24.985000 0.693226 0
24.990000 0.981754 0
24.995000 1.162642 0
25.000000 1.175569 3
25.005000 1.012801 0
25.010000 0.723170 0
25.015000 0.385393 0
25.020000 0.072905 0
25.025000 -0.167405 0
25.030000 -0.316934 0
25.035000 -0.377970 4
25.040000 -0.367030 0
25.045000 -0.309697 0
25.050000 -0.233810 0
25.055000 -0.161547 0
25.060000 -0.104506 0
25.065000 -0.064209 0
25.070000 -0.036370 0
25.075000 -0.015400 0
25.080000 0.003034 0
25.085000 0.021462 0
25.090000 0.041059 0
25.095000 0.062244 0
25.100000 0.085083 0
25.105000 0.109476 0
25.110000 0.135228 0
25.115000 0.162074 0
25.120000 0.189685 0
25.125000 0.217670 0
25.130000 0.245588 0
25.135000 0.272957 0
25.140000 0.299265 0
25.145000 0.323983 0
25.150000 0.346589 0
25.155000 0.366579 0
25.160000 0.383488 0
25.165000 0.396910 0
25.170000 0.406507 0
25.175000 0.412031 0
25.180000 0.413328 5
25.185000 0.410348 0
25.190000 0.403145 0
25.195000 0.391878 0
25.200000 0.376802 0
25.205000 0.358260 0
25.210000 0.336668 0
25.215000 0.312502 0
25.220000 0.286276 0
25.225000 0.258530 0
25.230000 0.229803 0
25.235000 0.200625 0
25.240000 0.171494 0
25.245000 0.142867 0
25.250000 0.115147 0
25.255000 0.088677 0
25.260000 0.063735 0
25.265000 0.040533 0
25.270000 0.019218 0
25.275000 -0.000124 0
25.280000 -0.017466 0
25.285000 -0.032826 0
25.290000 -0.046266 0
25.295000 -0.057881 0
25.300000 -0.067790 0
25.305000 -0.076130 0
25.310000 -0.083049 0
25.315000 -0.088699 0
25.320000 -0.093231 0
25.325000 -0.096789 0
25.330000 -0.099511 0
25.335000 -0.101524 0
25.340000 -0.102941 0
25.345000 -0.103864 0
25.350000 -0.104383 0
25.355000 -0.104574 0
25.360000 -0.104502 0
25.365000 -0.104122 0
25.370000 -0.103163 0
25.375000 -0.102208 0
25.380000 -0.101257 0
25.385000 -0.100312 0
25.390000 -0.099371 0
25.395000 -0.098435 0
25.400000 -0.097504 0
25.405000 -0.096577 0
25.410000 -0.095655 0
25.415000 -0.094737 0
25.420000 -0.093824 0
25.425000 -0.092915 0
25.430000 -0.092009 0
25.435000 -0.091107 0
25.440000 -0.090208 0
25.445000 -0.089308 0
25.450000 -0.088405 0
25.455000 -0.087493 0
25.460000 -0.086563 0
25.465000 -0.085598 0
25.470000 -0.084576 0
25.475000 -0.083461 0
25.480000 -0.082198 0
25.485000 -0.080711 0
25.490000 -0.078894 0
25.495000 -0.076602 0
25.500000 -0.073648 0
25.505000 -0.069797 0
25.510000 -0.064767 0
25.515000 -0.058233 0
25.520000 -0.049840 0
25.525000 -0.039229 0
25.530000 -0.026072 0
25.535000 -0.010108 0
25.540000 0.008801 0
25.545000 0.030623 0
25.550000 0.055108 0
25.555000 0.081757 0
25.560000 0.109810 0
25.565000 0.138263 0
25.570000 0.165913 0
25.575000 0.191436 0
25.580000 0.213488 0
25.585000 0.230819 0
25.590000 0.242394 0
25.595000 0.247492 1
25.600000 0.245778 0
25.605000 0.237345 0
25.610000 0.222700 0
25.615000 0.202717 0
25.620000 0.178550 0
25.625000 0.151520 0
25.630000 0.122996 0
25.635000 0.094276 0
25.640000 0.066460 0
25.645000 0.040304 0
25.650000 0.015988 0
25.655000 -0.007229 0
25.660000 -0.031388 0
25.665000 -0.059835 0
25.670000 -0.096182 0
25.675000 -0.141784 0
25.680000 -0.192404 0
25.685000 -0.236044 0
25.690000 -0.253872 2
25.695000 -0.224052 0
25.700000 -0.126537 0
25.705000 0.051809 0
25.710000 0.309473 0
25.715000 0.619402 0
25.720000 0.922623 0
25.725000 1.139244 0
25.730000 1.200000 3
25.735000 1.079874 0
25.740000 0.813022 0
25.745000 0.478487 0
25.750000 0.157350 0
25.755000 -0.095354 0
25.760000 -0.255956 0
25.765000 -0.324648 4
25.770000 -0.317725 0
25.775000 -0.261769 0
25.780000 -0.186202 0
25.785000 -0.114469 0
25.790000 -0.058554 0
25.795000 -0.019657 0
25.800000 0.006985 0
25.805000 0.027203 0
25.810000 0.045315 0
25.815000 0.063716 0
25.820000 0.083456 0
25.825000 0.104871 0
25.830000 0.127974 0
25.835000 0.152628 0
25.840000 0.178605 0
25.845000 0.205600 0
25.850000 0.233241 0
25.855000 0.261095 0
25.860000 0.288674 0
25.865000 0.315453 0
25.870000 0.340881 0
25.875000 0.364399 0
25.880000 0.385463 0
25.885000 0.403562 0
25.890000 0.418236 0
25.895000 0.429099 0
25.900000 0.435854 0
25.905000 0.438303 5
25.910000 0.436358 0
25.915000 0.430048 0
25.920000 0.419513 0
25.925000 0.405000 0
25.930000 0.386856 0
25.935000 0.365508 0
25.940000 0.341451 0
25.945000 0.315226 0
25.950000 0.287401 0
25.955000 0.258547 0
25.960000 0.229223 0
25.965000 0.199957 0
25.970000 0.171227 0
25.975000 0.143458 0
25.980000 0.117005 0
25.985000 0.092154 0
25.990000 0.069119 0
25.995000 0.048044 0
26.000000 0.029005 0
26.005000 0.012021 0
26.010000 -0.002941 0
26.015000 -0.015956 0
26.020000 -0.027134 0
26.025000 -0.036609 0
26.030000 -0.044529 0
26.035000 -0.051054 0
26.040000 -0.056343 0
26.045000 -0.060554 0
26.050000 -0.063836 0
26.055000 -0.066329 0
26.060000 -0.068158 0
26.065000 -0.069438 0
26.070000 -0.070267 0
26.075000 -0.070731 0
26.080000 -0.070904 0
26.085000 -0.070846 0
26.090000 -0.070158 0
26.095000 -0.069368 0
26.100000 -0.068581 0
26.105000 -0.067799 0
26.110000 -0.067020 0
26.115000 -0.066246 0
26.120000 -0.065475 0
26.125000 -0.064708 0
26.130000 -0.063944 0
26.135000 -0.063185 0
26.140000 -0.062429 0
26.145000 -0.061677 0
26.150000 -0.060927 0
26.155000 -0.060180 0
26.160000 -0.059434 0
26.165000 -0.058687 0
26.170000 -0.057934 0
26.175000 -0.057170 0
26.180000 -0.056383 0
26.185000 -0.055555 0
26.190000 -0.054657 0
26.195000 -0.053646 0
26.200000 -0.052459 0
26.205000 -0.051002 0
26.210000 -0.049150 0
26.215000 -0.046731 0
26.220000 -0.043524 0
26.225000 -0.039258 0
26.230000 -0.033609 0
26.235000 -0.026214 0
26.240000 -0.016694 0
26.245000 -0.004682 0
26.250000 0.010131 0
26.255000 0.027944 0
26.260000 0.048786 0
26.265000 0.072466 0
26.270000 0.098532 0
26.275000 0.126246 0
26.280000 0.154599 0
26.285000 0.182355 0
26.290000 0.208127 0
26.295000 0.230492 0
26.300000 0.248112 0
26.305000 0.259874 0
26.310000 0.264995 1
26.315000 0.263117 0
26.320000 0.254340 0
26.325000 0.239216 0
26.330000 0.218691 0
26.335000 0.194004 0
26.340000 0.166564 0
26.345000 0.137816 0
26.350000 0.109102 0
26.355000 0.081522 0
26.360000 0.055756 0
26.365000 0.031774 0
26.370000 0.008424 0
26.375000 -0.016932 0
26.380000 -0.048119 0
26.385000 -0.088428 0
26.390000 -0.137277 0
26.395000 -0.186740 0
26.400000 -0.220466 2
26.405000 -0.216400 0
26.410000 -0.151841 0
26.415000 -0.008853 0
26.420000 0.218765 0
26.425000 0.514427 0
26.430000 0.828137 0
26.435000 1.080348 0
26.440000 1.190241 3
26.445000 1.115454 0
26.450000 0.876879 0
26.455000 0.549707 0
26.460000 0.220616 0
26.465000 -0.046913 0
26.470000 -0.222878 0
26.475000 -0.304077 0
26.480000 -0.305369 4
26.485000 -0.253314 0
26.490000 -0.178497 0
26.495000 -0.106053 0
26.500000 -0.049287 0
26.505000 -0.009935 0
26.510000 0.016801 0
26.515000 0.036963 0
26.520000 0.055018 0
26.525000 0.073417 0
26.530000 0.093207 0
26.535000 0.114713 0
26.540000 0.137932 0
26.545000 0.162712 0
26.550000 0.188808 0
26.555000 0.215893 0
26.560000 0.243573 0
26.565000 0.271387 0
26.570000 0.298823 0
26.575000 0.325328 0
26.580000 0.350328 0
26.585000 0.373245 0
26.590000 0.393521 0
26.595000 0.410639 0
26.600000 0.424143 0
26.605000 0.433659 0
26.610000 0.438913 0
26.615000 0.439737 5
26.620000 0.436085 0
26.625000 0.428031 0
26.630000 0.415766 0
26.635000 0.399590 0
26.640000 0.379902 0
26.645000 0.357179 0
26.650000 0.331961 0
26.655000 0.304822 0
26.660000 0.276357 0
26.665000 0.247154 0
26.670000 0.217775 0
26.675000 0.188742 0
26.680000 0.160517 0
26.685000 0.133499 0
26.690000 0.108012 0
26.695000 0.084304 0
26.700000 0.062549 0
26.705000 0.042847 0
26.710000 0.025237 0
26.715000 0.009699 0
26.720000 -0.003835 0
26.725000 -0.015470 0
26.730000 -0.025340 0
26.735000 -0.033596 0
26.740000 -0.040402 0
26.745000 -0.045923 0
26.750000 -0.050322 0
26.755000 -0.053757 0
26.760000 -0.056373 0
26.765000 -0.058302 0
26.770000 -0.059663 0
26.775000 -0.060560 0
26.780000 -0.061082 0
26.785000 -0.061306 0
26.790000 -0.061294 0
26.795000 -0.060654 0
26.800000 -0.059911 0
26.805000 -0.059171 0
26.810000 -0.058436 0
26.815000 -0.057704 0
26.820000 -0.056976 0
26.825000 -0.056251 0
26.830000 -0.055530 0
26.835000 -0.054813 0
26.840000 -0.054099 0
26.845000 -0.053388 0
26.850000 -0.052680 0
26.855000 -0.051976 0
26.860000 -0.051272 0
26.865000 -0.050570 0
26.870000 -0.049865 0
26.875000 -0.049152 0
26.880000 -0.048424 0
26.885000 -0.047667 0
26.890000 -0.046859 0
26.895000 -0.045965 0
26.900000 -0.044932 0
26.905000 -0.043683 0
26.910000 -0.042109 0
26.915000 -0.040058 0
26.920000 -0.037329 0
26.925000 -0.033668 0
26.930000 -0.028766 0
26.935000 -0.022263 0
26.940000 -0.013771 0
26.945000 -0.002899 0
26.950000 0.010706 0
26.955000 0.027302 0
26.960000 0.046996 0
26.965000 0.069682 0
26.970000 0.094989 0
26.975000 0.122252 0
26.980000 0.150511 0
26.985000 0.178548 0
26.990000 0.204959 0
26.995000 0.228266 0
27.000000 0.247049 0
27.005000 0.260088 0
27.010000 0.266494 1
27.015000 0.265806 0
27.020000 0.258046 0
27.025000 0.243716 0
27.030000 0.223747 0
27.035000 0.199394 0
27.040000 0.172105 0
27.045000 0.143380 0
27.050000 0.114619 0
27.055000 0.086978 0
27.060000 0.061174 0
27.065000 0.037179 0
27.070000 0.013780 0
27.075000 -0.011804 0
27.080000 -0.043560 0
27.085000 -0.084738 0
27.090000 -0.134194 0
27.095000 -0.182789 0
27.100000 -0.212645 2
27.105000 -0.200486 0
27.110000 -0.123196 0
27.115000 0.036274 0
27.120000 0.280729 0
27.125000 0.586229 0
27.130000 0.892667 0
27.135000 1.113728 0
27.140000 1.172773 3
27.145000 1.045280 0
27.150000 0.772926 0
27.155000 0.437215 0
27.160000 0.119623 0
27.165000 -0.126125 0
27.170000 -0.278182 0
27.175000 -0.338457 4
27.180000 -0.324823 0
27.185000 -0.265063 0
27.190000 -0.188851 0
27.195000 -0.118772 0
27.200000 -0.065376 0
27.205000 -0.028673 0
27.210000 -0.003378 0
27.215000 0.016300 0
27.220000 0.034408 0
27.225000 0.053086 0
27.230000 0.073220 0
27.235000 0.095065 0
27.240000 0.118595 0
27.245000 0.143647 0
27.250000 0.169970 0
27.255000 0.197236 0
27.260000 0.225051 0
27.265000 0.252959 0
27.270000 0.280451 0
27.275000 0.306983 0
27.280000 0.331991 0
27.285000 0.354907 0
27.290000 0.375184 0
27.295000 0.392316 0
27.300000 0.405858 0
27.305000 0.415443 0
27.310000 0.420801 0
27.315000 0.421770 5
27.320000 0.418301 0
27.325000 0.410466 0
27.330000 0.398448 0
27.335000 0.382540 0
27.340000 0.363128 0
27.345000 0.340678 0
27.350000 0.315716 0
27.355000 0.288806 0
27.360000 0.260531 0
27.365000 0.231469 0
27.370000 0.202177 0
27.375000 0.173171 0
27.380000 0.144916 0
27.385000 0.117809 0
27.390000 0.092179 0
27.395000 0.068282 0
27.400000 0.046298 0
27.405000 0.026338 0
27.410000 0.008449 0
27.415000 -0.007379 0
27.420000 -0.021204 0
27.425000 -0.033123 0
27.430000 -0.043262 0
27.435000 -0.051768 0
27.440000 -0.058798 0
27.445000 -0.064516 0
27.450000 -0.069084 0
27.455000 -0.072657 0
27.460000 -0.075382 0
27.465000 -0.077391 0
27.470000 -0.078806 0
27.475000 -0.079734 0
27.480000 -0.080265 0
27.485000 -0.080478 0
27.490000 -0.080440 0
27.495000 -0.079715 0
27.500000 -0.078877 0
27.505000 -0.078043 0
27.510000 -0.077213 0
27.515000 -0.076388 0
27.520000 -0.075566 0
27.525000 -0.074749 0
27.530000 -0.073936 0
27.535000 -0.073126 0
27.540000 -0.072321 0
27.545000 -0.071520 0
27.550000 -0.070722 0
27.555000 -0.069927 0
27.560000 -0.069136 0
27.565000 -0.068346 0
27.570000 -0.067555 0
27.575000 -0.066760 0
27.580000 -0.065955 0
27.585000 -0.065129 0
27.590000 -0.064264 0
27.595000 -0.063335 0
27.600000 -0.062297 0
27.605000 -0.061090 0
27.610000 -0.059623 0
27.615000 -0.057771 0
27.620000 -0.055363 0
27.625000 -0.052179 0
27.630000 -0.047946 0
27.635000 -0.042338 0
27.640000 -0.034987 0
27.645000 -0.025505 0
27.650000 -0.013519 0
27.655000 0.001289 0
27.660000 0.019122 0
27.665000 0.040013 0
27.670000 0.063767 0
27.675000 0.089919 0
27.680000 0.117714 0
27.685000 0.146116 0
27.690000 0.173857 0
27.695000 0.199522 0
27.700000 0.221661 0
27.705000 0.238926 0
27.710000 0.250202 0
27.715000 0.254726 1
27.720000 0.252176 0
27.725000 0.242702 0
27.730000 0.226916 0
27.735000 0.205821 0
27.740000 0.180711 0
27.745000 0.153033 0
27.750000 0.124252 0
27.755000 0.095703 0
27.760000 0.068453 0
27.765000 0.043089 0
27.770000 0.019403 0
27.775000 -0.004058 0
27.780000 -0.030284 0
27.785000 -0.063264 0
27.790000 -0.105793 0
27.795000 -0.155807 0
27.800000 -0.203116 0
27.805000 -0.229222 2
27.810000 -0.210971 0
27.815000 -0.126006 0
27.820000 0.041468 0
27.825000 0.292390 0
27.830000 0.600541 0
27.835000 0.904301 0
27.840000 1.118121 0
27.845000 1.168475 3
27.850000 1.034709 0
27.855000 0.760235 0
27.860000 0.424421 0
27.865000 0.106129 0
27.870000 -0.142224 0
27.875000 -0.298704 0
27.880000 -0.364302 4
27.885000 -0.355514 0
27.890000 -0.298721 0
27.895000 -0.222883 0
27.900000 -0.150999 0
27.905000 -0.094830 0
27.910000 -0.055581 0
27.915000 -0.028588 0
27.920000 -0.008092 0
27.925000 0.010214 0
27.930000 0.028746 0
27.935000 0.048578 0
27.940000 0.070062 0
27.945000 0.093226 0
27.950000 0.117940 0
27.955000 0.143984 0
27.960000 0.171066 0
27.965000 0.198823 0
27.970000 0.226834 0
27.975000 0.254625 0
27.980000 0.281681 0
27.985000 0.307460 0
27.990000 0.331414 0
27.995000 0.353004 0
28.000000 0.371718 0
28.005000 0.387098 0
28.010000 0.398750 0
28.015000 0.406365 0
28.020000 0.409733 5
28.025000 0.408748 0
28.030000 0.403415 0
28.035000 0.393852 0
28.040000 0.380283 0
28.045000 0.363029 0
28.050000 0.342496 0
28.055000 0.319158 0
28.060000 0.293540 0
28.065000 0.266197 0
28.070000 0.237691 0
28.075000 0.208579 0
28.080000 0.179390 0
28.085000 0.150610 0
28.090000 0.122671 0
28.095000 0.095945 0
28.100000 0.070733 0
28.105000 0.047267 0
28.110000 0.025708 0
28.115000 0.006153 0
28.120000 -0.011362 0
28.125000 -0.026854 0
28.130000 -0.040385 0
28.135000 -0.052052 0
28.140000 -0.061979 0
28.145000 -0.070309 0
28.150000 -0.077195 0
28.155000 -0.082796 0
28.160000 -0.087267 0
28.165000 -0.090760 0
28.170000 -0.093416 0
28.175000 -0.095364 0
28.180000 -0.096723 0
28.185000 -0.097595 0
28.190000 -0.098070 0
28.195000 -0.098227 0
28.200000 -0.098129 0
28.205000 -0.097320 0
28.210000 -0.096394 0
28.215000 -0.095473 0
28.220000 -0.094556 0
28.225000 -0.093644 0
28.230000 -0.092737 0
28.235000 -0.091834 0
28.240000 -0.090935 0
28.245000 -0.090041 0
28.250000 -0.089151 0
28.255000 -0.088266 0
28.260000 -0.087385 0
28.265000 -0.086508 0
28.270000 -0.085634 0
28.275000 -0.084763 0
28.280000 -0.083892 0
28.285000 -0.083020 0
28.290000 -0.082141 0
28.295000 -0.081247 0
28.300000 -0.080324 0
28.305000 -0.079352 0
28.310000 -0.078296 0
28.315000 -0.077108 0
28.320000 -0.075715 0
28.325000 -0.074015 0
28.330000 -0.071866 0
28.335000 -0.069086 0
28.340000 -0.065438 0
28.345000 -0.060638 0
28.350000 -0.054352 0
28.355000 -0.046215 0
28.360000 -0.035852 0
28.365000 -0.022916 0
28.370000 -0.007129 0
28.375000 0.011663 0
28.380000 0.033430 0
28.385000 0.057918 0
