0.000000 1.159906 3
0.005000 1.031436 0
0.010000 0.712400 0
0.015000 0.322234 0
0.020000 -0.024736 0
0.025000 -0.263189 0
0.030000 -0.376479 0
0.035000 -0.380868 4
0.040000 -0.313170 0
0.045000 -0.217317 0
0.050000 -0.127787 0
0.055000 -0.059710 0
0.060000 -0.011730 0
0.065000 0.024288 0
0.070000 0.055652 0
0.075000 0.086396 0
0.080000 0.117959 0
0.085000 0.150436 0
0.090000 0.183370 0
0.095000 0.216081 0
0.100000 0.247789 0
0.105000 0.277667 0
0.110000 0.304875 0
0.115000 0.328603 0
0.120000 0.348110 0
0.125000 0.362759 0
0.130000 0.372055 0
0.135000 0.375669 5
0.140000 0.373461 0
0.145000 0.365481 0
0.150000 0.351974 0
0.155000 0.333365 0
0.160000 0.310234 0
0.165000 0.283287 0
0.170000 0.253323 0
0.175000 0.221190 0
0.180000 0.187745 0
0.185000 0.153822 0
0.190000 0.120193 0
0.195000 0.087546 0
0.200000 0.056460 0
0.205000 0.027398 0
0.210000 0.000700 0
0.215000 -0.023414 0
0.220000 -0.044837 0
0.225000 -0.063558 0
0.230000 -0.079652 0
0.235000 -0.093258 0
0.240000 -0.104564 0
0.245000 -0.113788 0
0.250000 -0.121168 0
0.255000 -0.126942 0
0.260000 -0.131343 0
0.265000 -0.134591 0
0.270000 -0.136887 0
0.275000 -0.138034 0
0.280000 -0.136986 0
0.285000 -0.135943 0
0.290000 -0.134905 0
0.295000 -0.133872 0
0.300000 -0.132843 0
0.305000 -0.131817 0
0.310000 -0.130791 0
0.315000 -0.129762 0
0.320000 -0.128720 0
0.325000 -0.127652 0
0.330000 -0.126531 0
0.335000 -0.125314 0
0.340000 -0.123933 0
0.345000 -0.122279 0
0.350000 -0.120195 0
0.355000 -0.117454 0
0.360000 -0.113749 0
0.365000 -0.108683 0
0.370000 -0.101776 0
0.375000 -0.092476 0
0.380000 -0.080213 0
0.385000 -0.064456 0
0.390000 -0.044812 0
0.395000 -0.021129 0
0.400000 0.006395 0
0.405000 0.037124 0
0.410000 0.069943 0
0.415000 0.103277 0
0.420000 0.135188 0
0.425000 0.163549 0
0.430000 0.186271 0
0.435000 0.201557 0
0.440000 0.208138 1
0.445000 0.205448 0
0.450000 0.193704 0
0.455000 0.173878 0
0.460000 0.147568 0
0.465000 0.116774 0
0.470000 0.083621 0
0.475000 0.049993 0
0.480000 0.016988 0
0.485000 -0.015904 0
0.490000 -0.051649 0
0.495000 -0.095349 0
0.500000 -0.150892 0
0.505000 -0.214428 0
0.510000 -0.268678 0
0.515000 -0.283804 2
0.520000 -0.225391 0
0.525000 -0.064799 0
0.530000 0.208007 0
0.535000 0.563850 0
0.540000 0.916645 0
0.545000 1.141375 3
0.550000 1.140124 0
0.555000 0.909060 0
0.560000 0.540193 0
0.565000 0.158592 0
0.570000 -0.142445 0
0.575000 -0.322316 0
0.580000 -0.381556 4
0.585000 -0.347263 0
0.590000 -0.261383 0
0.595000 -0.165275 0
0.600000 -0.084897 0
0.605000 -0.026816 0
0.610000 0.014626 0
0.615000 0.047784 0
0.620000 0.078511 0
0.625000 0.109502 0
0.630000 0.141460 0
0.635000 0.174168 0
0.640000 0.207048 0
0.645000 0.239373 0
0.650000 0.270338 0
0.655000 0.299109 0
0.660000 0.324858 0
0.665000 0.346802 0
0.670000 0.364244 0
0.675000 0.376607 0
0.680000 0.383466 0
0.685000 0.384571 5
0.690000 0.379861 0
0.695000 0.369472 0
0.700000 0.353724 0
0.705000 0.333108 0
0.710000 0.308259 0
0.715000 0.279923 0
0.720000 0.248920 0
0.725000 0.216104 0
0.730000 0.182325 0
0.735000 0.148390 0
0.740000 0.115039 0
0.745000 0.082915 0
0.750000 0.052549 0
0.755000 0.024354 0
0.760000 -0.001381 0
0.765000 -0.024482 0
0.770000 -0.044880 0
0.775000 -0.062602 0
0.780000 -0.077749 0
0.785000 -0.090479 0
0.790000 -0.100995 0
0.795000 -0.109523 0
0.800000 -0.116299 0
0.805000 -0.121563 0
0.810000 -0.125541 0
0.815000 -0.128446 0
0.820000 -0.130469 0
0.825000 -0.129898 0
0.830000 -0.128891 0
0.835000 -0.127888 0
0.840000 -0.126890 0
0.845000 -0.125897 0
0.850000 -0.124907 0
0.855000 -0.123919 0
0.860000 -0.122930 0
0.865000 -0.121935 0
0.870000 -0.120924 0
0.875000 -0.119877 0
0.880000 -0.118766 0
0.885000 -0.117538 0
0.890000 -0.116113 0
0.895000 -0.114369 0
0.900000 -0.112126 0
0.905000 -0.109131 0
0.910000 -0.105051 0
0.915000 -0.099459 0
0.920000 -0.091850 0
0.925000 -0.081664 0
0.930000 -0.068335 0
0.935000 -0.051369 0
0.940000 -0.030442 0
0.945000 -0.005505 0
0.950000 0.023111 0
0.955000 0.054621 0
0.960000 0.087761 0
0.965000 0.120830 0
0.970000 0.151818 0
0.975000 0.178591 0
0.980000 0.199132 0
0.985000 0.211792 0
0.990000 0.215508 1
0.995000 0.209953 0
1.000000 0.195581 0
1.005000 0.173569 0
1.010000 0.145656 0
1.015000 0.113905 0
1.020000 0.080403 0
1.025000 0.046864 0
1.030000 0.014009 0
1.035000 -0.019318 0
1.040000 -0.056824 0
1.045000 -0.103754 0
1.050000 -0.162515 0
1.055000 -0.225845 0
1.060000 -0.272532 2
1.065000 -0.270569 0
1.070000 -0.186221 0
1.075000 0.005456 0
1.080000 0.306074 0
1.085000 0.671986 0
1.090000 1.002888 0
1.095000 1.173659 3
1.100000 1.107501 0
1.105000 0.829418 0
1.110000 0.445923 0
1.115000 0.077373 0
1.120000 -0.196692 0
1.125000 -0.347397 0
1.130000 -0.382449 4
1.135000 -0.332997 0
1.140000 -0.241800 0
1.145000 -0.147466 0
1.150000 -0.071554 0
1.155000 -0.017339 0
1.160000 0.021949 0
1.165000 0.054329 0
1.170000 0.084974 0
1.175000 0.116108 0
1.180000 0.148207 0
1.185000 0.180977 0
1.190000 0.213814 0
1.195000 0.245985 0
1.200000 0.276690 0
1.205000 0.305104 0
1.210000 0.330412 0
1.215000 0.351851 0
1.220000 0.368744 0
1.225000 0.380537 0
1.230000 0.386827 0
1.235000 0.387385 5
1.240000 0.382171 0
1.245000 0.371332 0
1.250000 0.355200 0
1.255000 0.334271 0
1.260000 0.309180 0
1.265000 0.280669 0
1.270000 0.249552 0
1.275000 0.216671 0
1.280000 0.182865 0
1.285000 0.148929 0
1.290000 0.115591 0
1.295000 0.083484 0
1.300000 0.053130 0
1.305000 0.024936 0
1.310000 -0.000813 0
1.315000 -0.023944 0
1.320000 -0.044390 0
1.325000 -0.062174 0
1.330000 -0.077395 0
1.335000 -0.090209 0
1.340000 -0.100814 0
1.345000 -0.109432 0
1.350000 -0.116298 0
1.355000 -0.121647 0
1.360000 -0.125703 0
1.365000 -0.128679 0
1.370000 -0.130764 0
1.375000 -0.130202 0
1.380000 -0.129193 0
1.385000 -0.128189 0
1.390000 -0.127190 0
1.395000 -0.126195 0
1.400000 -0.125204 0
1.405000 -0.124215 0
1.410000 -0.123226 0
1.415000 -0.122231 0
1.420000 -0.121222 0
1.425000 -0.120182 0
1.430000 -0.119083 0
1.435000 -0.117878 0
1.440000 -0.116494 0
1.445000 -0.114817 0
1.450000 -0.112681 0
1.455000 -0.109852 0
1.460000 -0.106015 0
1.465000 -0.100767 0
1.470000 -0.093624 0
1.475000 -0.084041 0
1.480000 -0.071455 0
1.485000 -0.055356 0
1.490000 -0.035374 0
1.495000 -0.011389 0
1.500000 0.016370 0
1.505000 0.047245 0
1.510000 0.080104 0
1.515000 0.113374 0
1.520000 0.145133 0
1.525000 0.173287 0
1.530000 0.195786 0
1.535000 0.210874 0
1.540000 0.217315 1
1.545000 0.214559 0
1.550000 0.202822 0
1.555000 0.183057 0
1.560000 0.156828 0
1.565000 0.126098 0
1.570000 0.092958 0
1.575000 0.059278 0
1.580000 0.026196 0
1.585000 -0.006676 0
1.590000 -0.042090 0
1.595000 -0.084981 0
1.600000 -0.139494 0
1.605000 -0.202813 0
1.610000 -0.259324 0
1.615000 -0.280685 2
1.620000 -0.233037 0
1.625000 -0.086926 0
1.630000 0.170906 0
1.635000 0.518541 0
1.640000 0.879617 0
1.645000 1.133685 0
1.650000 1.174552 3
1.655000 0.979507 0
1.660000 0.625750 0
1.665000 0.238070 0
1.670000 -0.081689 0
1.675000 -0.283969 0
1.680000 -0.363249 4
1.685000 -0.342765 0
1.690000 -0.262825 0
1.695000 -0.166143 0
1.700000 -0.082081 0
1.705000 -0.020338 0
1.710000 0.023337 0
1.715000 0.057357 0
1.720000 0.088164 0
1.725000 0.118943 0
1.730000 0.150654 0
1.735000 0.183191 0
1.740000 0.216017 0
1.745000 0.248423 0
1.750000 0.279615 0
1.755000 0.308761 0
1.760000 0.335029 0
1.765000 0.357626 0
1.770000 0.375836 0
1.775000 0.389059 0
1.780000 0.396840 0
1.785000 0.398899 5
1.790000 0.395139 0
1.795000 0.385663 0
1.800000 0.370758 0
1.805000 0.350888 0
1.810000 0.326664 0
1.815000 0.298816 0
1.820000 0.268153 0
1.825000 0.235526 0
1.830000 0.201789 0
1.835000 0.167759 0
1.840000 0.134188 0
1.845000 0.101740 0
1.850000 0.070965 0
1.855000 0.042297 0
1.860000 0.016048 0
1.865000 -0.007589 0
1.870000 -0.028528 0
1.875000 -0.046780 0
1.880000 -0.062434 0
1.885000 -0.075639 0
1.890000 -0.086592 0
1.895000 -0.095516 0
1.900000 -0.102646 0
1.905000 -0.108221 0
1.910000 -0.112472 0
1.915000 -0.115613 0
1.920000 -0.117839 0
1.925000 -0.118970 0
1.930000 -0.118017 0
1.935000 -0.117069 0
1.940000 -0.116125 0
1.945000 -0.115185 0
1.950000 -0.114249 0
1.955000 -0.113315 0
1.960000 -0.112381 0
1.965000 -0.111441 0
1.970000 -0.110486 0
1.975000 -0.109501 0
1.980000 -0.108456 0
1.985000 -0.107306 0
1.990000 -0.105976 0
1.995000 -0.104351 0
2.000000 -0.102262 0
2.005000 -0.099473 0
2.010000 -0.095662 0
2.015000 -0.090420 0
2.020000 -0.083255 0
2.025000 -0.073612 0
2.030000 -0.060922 0
2.035000 -0.044673 0
2.040000 -0.024502 0
2.045000 -0.000304 0
2.050000 0.027662 0
2.055000 0.058695 0
2.060000 0.091612 0
2.065000 0.124784 0
2.070000 0.156241 0
2.075000 0.183856 0
2.080000 0.205572 0
2.085000 0.219658 0
2.090000 0.224937 1
2.095000 0.220945 0
2.100000 0.208001 0
2.105000 0.187167 0
2.110000 0.160096 0
2.115000 0.128814 0
2.120000 0.095432 0
2.125000 0.061764 0
2.130000 0.028762 0
2.135000 -0.004334 0
2.140000 -0.040786 0
2.145000 -0.085778 0
2.150000 -0.142682 0
2.155000 -0.206386 0
2.160000 -0.258122 0
2.165000 -0.267207 2
2.170000 -0.199468 0
2.175000 -0.027587 0
2.180000 0.255554 0
2.185000 0.615757 0
2.190000 0.961840 0
2.195000 1.168411 3
2.200000 1.144371 0
2.205000 0.895580 0
2.210000 0.520292 0
2.215000 0.143016 0
2.220000 -0.147615 0
2.225000 -0.315546 0
2.230000 -0.364386 4
2.235000 -0.323232 0
2.240000 -0.234779 0
2.245000 -0.139482 0
2.250000 -0.061383 0
2.255000 -0.005410 0
2.260000 0.034758 0
2.265000 0.067380 0
2.270000 0.097972 0
2.275000 0.128972 0
2.280000 0.160945 0
2.285000 0.193621 0
2.290000 0.226400 0
2.295000 0.258540 0
2.300000 0.289232 0
2.305000 0.317640 0
2.310000 0.342937 0
2.315000 0.364346 0
2.320000 0.381181 0
2.325000 0.392879 0
2.330000 0.399032 0
2.335000 0.399410 5
2.340000 0.393977 0
2.345000 0.382886 0
2.350000 0.366481 0
2.355000 0.345270 0
2.360000 0.319905 0
2.365000 0.291142 0
2.370000 0.259809 0
2.375000 0.226763 0
2.380000 0.192852 0
2.385000 0.158877 0
2.390000 0.125569 0
2.395000 0.093559 0
2.400000 0.063365 0
2.405000 0.035385 0
2.410000 0.009896 0
2.415000 -0.012943 0
2.420000 -0.033076 0
2.425000 -0.050540 0
2.430000 -0.065443 0
2.435000 -0.077951 0
2.440000 -0.088270 0
2.445000 -0.096629 0
2.450000 -0.103267 0
2.455000 -0.108420 0
2.460000 -0.112315 0
2.465000 -0.115162 0
2.470000 -0.117149 0
2.475000 -0.116630 0
2.480000 -0.115689 0
2.485000 -0.114752 0
2.490000 -0.113819 0
2.495000 -0.112891 0
2.500000 -0.111966 0
2.505000 -0.111042 0
2.510000 -0.110116 0
2.515000 -0.109183 0
2.520000 -0.108231 0
2.525000 -0.107240 0
2.530000 -0.106178 0
2.535000 -0.104990 0
2.540000 -0.103590 0
2.545000 -0.101848 0
2.550000 -0.099575 0
2.555000 -0.096507 0
2.560000 -0.092296 0
2.565000 -0.086503 0
2.570000 -0.078611 0
2.575000 -0.068055 0
2.580000 -0.054274 0
2.585000 -0.036791 0
2.590000 -0.015316 0
2.595000 0.010149 0
2.600000 0.039207 0
2.605000 0.071001 0
2.610000 0.104192 0
2.615000 0.137022 0
2.620000 0.167443 0
2.625000 0.193319 0
2.630000 0.212673 0
2.635000 0.223930 0
2.640000 0.226135 1
2.645000 0.219081 0
2.650000 0.203347 0
2.655000 0.180211 0
2.660000 0.151486 0
2.665000 0.119262 0
2.670000 0.085602 0
2.675000 0.052110 0
2.680000 0.019266 0
2.685000 -0.014477 0
2.690000 -0.053231 0
2.695000 -0.102178 0
2.700000 -0.162610 0
2.705000 -0.225063 0
2.710000 -0.266047 2
2.715000 -0.252509 0
2.720000 -0.151383 0
2.725000 0.059597 0
2.730000 0.375985 0
2.735000 0.744364 0
2.740000 1.056238 0
2.745000 1.188921 3
2.750000 1.080334 0
2.755000 0.773136 0
2.760000 0.383905 0
2.765000 0.029874 0
2.770000 -0.219013 0
2.775000 -0.342621 0
2.780000 -0.355000 4
2.785000 -0.291727 0
2.790000 -0.196806 0
2.795000 -0.106055 0
2.800000 -0.036255 0
2.805000 0.012941 0
2.810000 0.049476 0
2.815000 0.080883 0
2.820000 0.111460 0
2.825000 0.142805 0
2.830000 0.175086 0
2.835000 0.207870 0
2.840000 0.240491 0
2.845000 0.272173 0
2.850000 0.302091 0
2.855000 0.329403 0
2.860000 0.353295 0
2.865000 0.373019 0
2.870000 0.387929 0
2.875000 0.397517 0
2.880000 0.401441 5
2.885000 0.399544 0
2.890000 0.391863 0
2.895000 0.378630 0
2.900000 0.360256 0
2.905000 0.337311 0
2.910000 0.310494 0
2.915000 0.280598 0
2.920000 0.248469 0
2.925000 0.214967 0
2.930000 0.180928 0
2.935000 0.147131 0
2.940000 0.114270 0
2.945000 0.082934 0
2.950000 0.053595 0
2.955000 0.026601 0
2.960000 0.002180 0
2.965000 -0.019552 0
2.970000 -0.038579 0
2.975000 -0.054970 0
2.980000 -0.068859 0
2.985000 -0.080433 0
2.990000 -0.089909 0
2.995000 -0.097522 0
3.000000 -0.103512 0
3.005000 -0.108114 0
3.010000 -0.111548 0
3.015000 -0.114014 0
3.020000 -0.115315 0
3.025000 -0.114380 0
3.030000 -0.113450 0
3.035000 -0.112524 0
3.040000 -0.111602 0
3.045000 -0.110685 0
3.050000 -0.109769 0
3.055000 -0.108854 0
3.060000 -0.107935 0
3.065000 -0.107004 0
3.070000 -0.106046 0
3.075000 -0.105037 0
3.080000 -0.103936 0
3.085000 -0.102674 0
3.090000 -0.101148 0
3.095000 -0.099201 0
3.100000 -0.096613 0
3.105000 -0.093081 0
3.110000 -0.088214 0
3.115000 -0.081534 0
3.120000 -0.072495 0
3.125000 -0.060523 0
3.130000 -0.045085 0
3.135000 -0.025774 0
3.140000 -0.002423 0
3.145000 0.024793 0
3.150000 0.055265 0
3.155000 0.087905 0
3.160000 0.121160 0
3.165000 0.153107 0
3.170000 0.181623 0
3.175000 0.204608 0
3.180000 0.220243 0
3.185000 0.227222 1
3.190000 0.224939 0
3.195000 0.213566 0
3.200000 0.194041 0
3.205000 0.167932 0
3.210000 0.137227 0
3.215000 0.104053 0
3.220000 0.070319 0
3.225000 0.037184 0
3.230000 0.004243 0
3.235000 -0.031337 0
3.240000 -0.074601 0
3.245000 -0.129639 0
3.250000 -0.193154 0
3.255000 -0.248574 0
3.260000 -0.266514 2
3.265000 -0.212523 0
3.270000 -0.057406 0
3.275000 0.210184 0
3.280000 0.563469 0
3.285000 0.919022 0
3.290000 1.152388 0
3.295000 1.162534 3
3.300000 0.939656 0
3.305000 0.572932 0
3.310000 0.190717 0
3.315000 -0.110480 0
3.320000 -0.288860 0
3.325000 -0.345359 4
3.330000 -0.308344 0
3.335000 -0.221163 0
3.340000 -0.125724 0
3.345000 -0.047309 0
3.350000 0.008697 0
3.355000 0.048716 0
3.360000 0.081191 0
3.365000 0.111711 0
3.370000 0.142692 0
3.375000 0.174659 0
3.380000 0.207308 0
3.385000 0.240007 0
3.390000 0.271989 0
3.395000 0.302419 0
3.400000 0.330438 0
3.405000 0.355201 0
3.410000 0.375924 0
3.415000 0.391917 0
3.420000 0.402627 0
3.425000 0.407665 5
3.430000 0.406833 0
3.435000 0.400132 0
3.440000 0.387761 0
3.445000 0.370112 0
3.450000 0.347745 0
3.455000 0.321358 0
3.460000 0.291752 0
3.465000 0.259786 0
3.470000 0.226340 0
3.475000 0.192275 0
3.480000 0.158391 0
3.485000 0.125407 0
3.490000 0.093932 0
3.495000 0.064455 0
3.500000 0.037338 0
3.505000 0.012818 0
3.510000 -0.008985 0
3.515000 -0.028053 0
3.520000 -0.044457 0
3.525000 -0.058336 0
3.530000 -0.069881 0
3.535000 -0.079314 0
3.540000 -0.086877 0
3.545000 -0.092815 0
3.550000 -0.097366 0
3.555000 -0.100755 0
3.560000 -0.103186 0
3.565000 -0.104472 0
3.570000 -0.103591 0
3.575000 -0.102715 0
3.580000 -0.101843 0
3.585000 -0.100974 0
3.590000 -0.100109 0
3.595000 -0.099246 0
3.600000 -0.098382 0
3.605000 -0.097512 0
3.610000 -0.096628 0
3.615000 -0.095712 0
3.620000 -0.094736 0
3.625000 -0.093651 0
3.630000 -0.092381 0
3.635000 -0.090806 0
3.640000 -0.088750 0
3.645000 -0.085964 0
3.650000 -0.082111 0
3.655000 -0.076765 0
3.660000 -0.069410 0
3.665000 -0.059472 0
3.670000 -0.046370 0
3.675000 -0.029593 0
3.680000 -0.008802 0
3.685000 0.016055 0
3.690000 0.044634 0
3.695000 0.076120 0
3.700000 0.109196 0
3.705000 0.142099 0
3.710000 0.172749 0
3.715000 0.198953 0
3.720000 0.218665 0
3.725000 0.230241 0
3.730000 0.232671 1
3.735000 0.225723 0
3.740000 0.209974 0
3.745000 0.186737 0
3.750000 0.157871 0
3.755000 0.125524 0
3.760000 0.091803 0
3.765000 0.058313 0
3.770000 0.025442 0
3.775000 -0.008592 0
3.780000 -0.048204 0
3.785000 -0.098584 0
3.790000 -0.160123 0
3.795000 -0.221323 0
3.800000 -0.256288 2
3.805000 -0.230454 0
3.810000 -0.110950 0
3.815000 0.121606 0
3.820000 0.454746 0
3.825000 0.821450 0
3.830000 1.102007 0
3.835000 1.178212 3
3.840000 1.011150 0
3.845000 0.669593 0
3.850000 0.280034 0
3.855000 -0.048365 0
3.860000 -0.259952 0
3.865000 -0.346247 4
3.870000 -0.329668 0
3.875000 -0.251066 0
3.880000 -0.154471 0
3.885000 -0.070385 0
3.890000 -0.008889 0
3.895000 0.034429 0
3.900000 0.068197 0
3.905000 0.098908 0
3.910000 0.129691 0
3.915000 0.161437 0
3.920000 0.193987 0
3.925000 0.226767 0
3.930000 0.259036 0
3.935000 0.289971 0
3.940000 0.318716 0
3.945000 0.344418 0
3.950000 0.366272 0
3.955000 0.383561 0
3.960000 0.395693 0
3.965000 0.402236 0
3.970000 0.402939 5
3.975000 0.397751 0
3.980000 0.386823 0
3.985000 0.370499 0
3.990000 0.349299 0
3.995000 0.323888 0
4.000000 0.295046 0
4.005000 0.263620 0
4.010000 0.230491 0
4.015000 0.196526 0
4.020000 0.162547 0
4.025000 0.129294 0
4.030000 0.097406 0
4.035000 0.067404 0
4.040000 0.039683 0
4.045000 0.014510 0
4.050000 -0.007966 0
4.055000 -0.027702 0
4.060000 -0.044748 0
4.065000 -0.059228 0
4.070000 -0.071322 0
4.075000 -0.081245 0
4.080000 -0.089236 0
4.085000 -0.095540 0
4.090000 -0.100399 0
4.095000 -0.104040 0
4.100000 -0.106674 0
4.105000 -0.108094 0
4.110000 -0.107195 0
4.115000 -0.106301 0
4.120000 -0.105411 0
4.125000 -0.104525 0
4.130000 -0.103642 0
4.135000 -0.102762 0
4.140000 -0.101882 0
4.145000 -0.100998 0
4.150000 -0.100102 0
4.155000 -0.099180 0
4.160000 -0.098206 0
4.165000 -0.097139 0
4.170000 -0.095908 0
4.175000 -0.094407 0
4.180000 -0.092475 0
4.185000 -0.089883 0
4.190000 -0.086316 0
4.195000 -0.081370 0
4.200000 -0.074550 0
4.205000 -0.065292 0
4.210000 -0.053011 0
4.215000 -0.037170 0
4.220000 -0.017375 0
4.225000 0.006506 0
4.230000 0.034238 0
4.235000 0.065124 0
4.240000 0.097971 0
4.245000 0.131116 0
4.250000 0.162539 0
4.255000 0.190054 0
4.260000 0.211550 0
4.265000 0.225264 0
4.270000 0.230010 1
4.275000 0.225357 0
4.280000 0.211688 0
4.285000 0.190147 0
4.290000 0.162482 0
4.295000 0.130800 0
4.300000 0.097253 0
4.305000 0.063622 0
4.310000 0.030679 0
4.315000 -0.002745 0
4.320000 -0.040467 0
4.325000 -0.087862 0
4.330000 -0.147172 0
4.335000 -0.210313 0
4.340000 -0.254663 2
4.345000 -0.246877 0
4.350000 -0.152657 0
4.355000 0.051983 0
4.360000 0.364505 0
4.365000 0.732564 0
4.370000 1.046284 0
4.375000 1.179671 3
4.380000 1.068750 0
4.385000 0.758140 0
4.390000 0.368449 0
4.395000 0.018840 0
4.400000 -0.221699 0
4.405000 -0.335294 0
4.410000 -0.338623 4
4.415000 -0.269756 0
4.420000 -0.173821 0
4.425000 -0.085535 0
4.430000 -0.019304 0
4.435000 0.027099 0
4.440000 0.062186 0
4.445000 0.093164 0
4.450000 0.123809 0
4.455000 0.155356 0
4.460000 0.187786 0
4.465000 0.220575 0
4.470000 0.253001 0
4.475000 0.284248 0
4.480000 0.313456 0
4.485000 0.339766 0
4.490000 0.362355 0
4.495000 0.380483 0
4.500000 0.393530 0
4.505000 0.401033 0
4.510000 0.402707 5
4.515000 0.398467 0
4.520000 0.388433 0
4.525000 0.372921 0
4.530000 0.352427 0
4.535000 0.327600 0
4.540000 0.299210 0
4.545000 0.268103 0
4.550000 0.235161 0
4.555000 0.201261 0
4.560000 0.167238 0
4.565000 0.133849 0
4.570000 0.101752 0
4.575000 0.071487 0
4.580000 0.043465 0
4.585000 0.017973 0
4.590000 -0.004826 0
4.595000 -0.024877 0
4.600000 -0.042221 0
4.605000 -0.056976 0
4.610000 -0.069315 0
4.615000 -0.079454 0
4.620000 -0.087630 0
4.625000 -0.094091 0
4.630000 -0.099080 0
4.635000 -0.102827 0
4.640000 -0.105546 0
4.645000 -0.107427 0
4.650000 -0.106932 0
4.655000 -0.106039 0
4.660000 -0.105150 0
4.665000 -0.104266 0
4.670000 -0.103385 0
4.675000 -0.102506 0
4.680000 -0.101628 0
4.685000 -0.100746 0
4.690000 -0.099852 0
4.695000 -0.098934 0
4.700000 -0.097965 0
4.705000 -0.096905 0
4.710000 -0.095685 0
4.715000 -0.094200 0
4.720000 -0.092291 0
4.725000 -0.089729 0
4.730000 -0.086203 0
4.735000 -0.081309 0
4.740000 -0.074551 0
4.745000 -0.065364 0
4.750000 -0.053158 0
4.755000 -0.037392 0
4.760000 -0.017665 0
4.765000 0.006160 0
4.770000 0.033853 0
4.775000 0.064719 0
4.780000 0.097561 0
4.785000 0.130708 0
4.790000 0.162130 0
4.795000 0.189627 0
4.800000 0.211078 0
4.805000 0.224711 0
4.810000 0.229341 1
4.815000 0.224544 0
4.820000 0.210718 0
4.825000 0.189028 0
4.830000 0.161241 0
4.835000 0.129482 0
4.840000 0.095911 0
4.845000 0.062300 0
4.850000 0.029375 0
4.855000 -0.004129 0
4.860000 -0.042154 0
4.865000 -0.090092 0
4.870000 -0.149883 0
4.875000 -0.212730 0
4.880000 -0.255164 2
4.885000 -0.243317 0
4.890000 -0.142973 0
4.895000 0.068934 0
4.900000 0.387388 0
4.905000 0.755754 0
4.910000 1.060427 0
4.915000 1.176514 3
4.920000 1.046960 0
4.925000 0.724654 0
4.930000 0.334309 0
4.935000 -0.006987 0
4.940000 -0.234900 0
4.945000 -0.335592 4
4.950000 -0.328760 0
4.955000 -0.254489 0
4.960000 -0.158032 0
4.965000 -0.072222 0
4.970000 -0.009025 0
4.975000 0.035263 0
4.980000 0.069380 0
4.985000 0.100135 0
4.990000 0.130873 0
4.995000 0.162573 0
5.000000 0.195097 0
5.005000 0.227870 0
5.010000 0.260140 0
5.015000 0.291071 0
5.020000 0.319793 0
5.025000 0.345437 0
5.030000 0.367187 0
5.035000 0.384316 0
5.040000 0.396225 0
5.045000 0.402483 0
5.050000 0.402844 5
5.055000 0.397269 0
5.060000 0.385922 0
5.065000 0.369169 0
5.070000 0.347551 0
5.075000 0.321758 0
5.080000 0.292589 0
5.085000 0.260913 0
5.090000 0.227625 0
5.095000 0.193605 0
5.100000 0.159677 0
5.105000 0.126581 0
5.110000 0.094951 0
5.115000 0.065295 0
5.120000 0.037992 0
5.125000 0.013294 0
5.130000 -0.008668 0
5.135000 -0.027872 0
5.140000 -0.044384 0
5.145000 -0.058344 0
5.150000 -0.069943 0
5.155000 -0.079408 0
5.160000 -0.086984 0
5.165000 -0.092921 0
5.170000 -0.097460 0
5.175000 -0.100830 0
5.180000 -0.103238 0
5.185000 -0.104504 0
5.190000 -0.103624 0
5.195000 -0.102747 0
5.200000 -0.101875 0
5.205000 -0.101006 0
5.210000 -0.100141 0
5.215000 -0.099277 0
5.220000 -0.098412 0
5.225000 -0.097541 0
5.230000 -0.096653 0
5.235000 -0.095731 0
5.240000 -0.094743 0
5.245000 -0.093637 0
5.250000 -0.092330 0
5.255000 -0.090692 0
5.260000 -0.088534 0
5.265000 -0.085588 0
5.270000 -0.081496 0
5.275000 -0.075807 0
5.280000 -0.067981 0
5.285000 -0.057429 0
5.290000 -0.043567 0
5.295000 -0.025902 0
5.300000 -0.004147 0
5.305000 0.021667 0
5.310000 0.051079 0
5.315000 0.083131 0
5.320000 0.116358 0
5.325000 0.148862 0
5.330000 0.178473 0
5.335000 0.202975 0
5.340000 0.220380 0
5.345000 0.229190 1
5.350000 0.228614 0
5.355000 0.218680 0
5.360000 0.200237 0
5.365000 0.174831 0
5.370000 0.144490 0
5.375000 0.111425 0
5.380000 0.077657 0
5.385000 0.044459 0
5.390000 0.011499 0
5.395000 -0.024106 0
5.400000 -0.067583 0
5.405000 -0.123090 0
5.410000 -0.186749 0
5.415000 -0.240473 0
5.420000 -0.252979 2
5.425000 -0.188521 0
5.430000 -0.018155 0
5.435000 0.265843 0
5.440000 0.627116 0
5.445000 0.968712 0
5.450000 1.159835 3
5.455000 1.112386 0
5.460000 0.844093 0
5.465000 0.462361 0
5.470000 0.092956 0
5.475000 -0.180486 0
5.480000 -0.328048 0
5.485000 -0.358469 4
5.490000 -0.304995 0
5.495000 -0.212326 0
5.500000 -0.119443 0
5.505000 -0.046555 0
5.510000 0.004813 0
5.515000 0.042351 0
5.520000 0.074041 0
5.525000 0.104620 0
5.530000 0.135913 0
5.535000 0.168168 0
5.540000 0.200967 0
5.545000 0.233636 0
5.550000 0.265384 0
5.555000 0.295366 0
5.560000 0.322722 0
5.565000 0.346619 0
5.570000 0.366289 0
5.575000 0.381074 0
5.580000 0.390459 0
5.585000 0.394102 5
5.590000 0.391852 0
5.595000 0.383761 0
5.600000 0.370079 0
5.605000 0.351243 0
5.610000 0.327852 0
5.615000 0.300634 0
5.620000 0.270410 0
5.625000 0.238049 0
5.630000 0.204431 0
5.635000 0.170405 0
5.640000 0.136753 0
5.645000 0.104169 0
5.650000 0.073233 0
5.655000 0.044400 0
5.660000 0.018001 0
5.665000 -0.005758 0
5.670000 -0.026785 0
5.675000 -0.045087 0
5.680000 -0.060754 0
5.685000 -0.073941 0
5.690000 -0.084848 0
5.695000 -0.093706 0
5.700000 -0.100757 0
5.705000 -0.106246 0
5.710000 -0.110410 0
5.715000 -0.113466 0
5.720000 -0.115615 0
5.725000 -0.115125 0
5.730000 -0.114192 0
5.735000 -0.113262 0
5.740000 -0.112337 0
5.745000 -0.111416 0
5.750000 -0.110499 0
5.755000 -0.109583 0
5.760000 -0.108665 0
5.765000 -0.107740 0
5.770000 -0.106797 0
5.775000 -0.105816 0
5.780000 -0.104765 0
5.785000 -0.103588 0
5.790000 -0.102197 0
5.795000 -0.100461 0
5.800000 -0.098183 0
5.805000 -0.095093 0
5.810000 -0.090828 0
5.815000 -0.084935 0
5.820000 -0.076880 0
5.825000 -0.066079 0
5.830000 -0.051961 0
5.835000 -0.034051 0
5.840000 -0.012077 0
5.845000 0.013913 0
5.850000 0.043451 0
5.855000 0.075580 0
5.860000 0.108850 0
5.865000 0.141390 0
5.870000 0.171065 0
5.875000 0.195693 0
5.880000 0.213313 0
5.885000 0.222437 1
5.890000 0.222264 0
5.895000 0.212789 0
5.900000 0.194811 0
5.905000 0.169821 0
5.910000 0.139792 0
5.915000 0.106899 0
5.920000 0.073162 0
5.925000 0.039930 0
5.930000 0.007071 0
5.935000 -0.027964 0
5.940000 -0.070159 0
5.945000 -0.124055 0
5.950000 -0.187285 0
5.955000 -0.244100 0
5.960000 -0.265172 2
5.965000 -0.215276 0
5.970000 -0.064053 0
5.975000 0.201003 0
5.980000 0.553605 0
5.985000 0.909064 0
5.990000 1.140171 0
5.995000 1.144499 3
6.000000 0.915491 0
6.005000 0.546602 0
6.010000 0.165604 0
6.015000 -0.132753 0
6.020000 -0.308113 0
6.025000 -0.362193 4
6.030000 -0.323703 0
6.035000 -0.235970 0
6.040000 -0.140569 0
6.045000 -0.062371 0
6.050000 -0.006515 0
6.055000 0.033474 0
6.060000 0.065995 0
6.065000 0.096590 0
6.070000 0.127650 0
6.075000 0.159694 0
6.080000 0.192417 0
6.085000 0.225191 0
6.090000 0.257251 0
6.095000 0.287767 0
6.100000 0.315881 0
6.105000 0.340753 0
6.110000 0.361600 0
6.115000 0.377734 0
6.120000 0.388602 0
6.125000 0.393815 5
6.130000 0.393170 0
6.135000 0.386663 0
6.140000 0.374492 0
6.145000 0.357041 0
6.150000 0.334865 0
6.155000 0.308654 0
6.160000 0.279204 0
6.165000 0.247371 0
6.170000 0.214031 0
6.175000 0.180041 0
6.180000 0.146204 0
6.185000 0.113237 0
6.190000 0.081754 0
6.195000 0.052245 0
6.200000 0.025077 0
6.205000 0.000493 0
6.210000 -0.021383 0
6.215000 -0.040528 0
6.220000 -0.057009 0
6.225000 -0.070960 0
6.230000 -0.082570 0
6.235000 -0.092058 0
6.240000 -0.099665 0
6.245000 -0.105635 0
6.250000 -0.110206 0
6.255000 -0.113603 0
6.260000 -0.116030 0
6.265000 -0.117295 0
6.270000 -0.116350 0
6.275000 -0.115410 0
6.280000 -0.114474 0
6.285000 -0.113543 0
6.290000 -0.112615 0
6.295000 -0.111690 0
6.300000 -0.110765 0
6.305000 -0.109834 0
6.310000 -0.108891 0
6.315000 -0.107918 0
6.320000 -0.106889 0
6.325000 -0.105757 0
6.330000 -0.104450 0
6.335000 -0.102853 0
6.340000 -0.100797 0
6.345000 -0.098041 0
6.350000 -0.094262 0
6.355000 -0.089042 0
6.360000 -0.081877 0
6.365000 -0.072199 0
6.370000 -0.059428 0
6.375000 -0.043040 0
6.380000 -0.022674 0
6.385000 0.001762 0
6.390000 0.029979 0
6.395000 0.061222 0
6.400000 0.094241 0
6.405000 0.127331 0
6.410000 0.158448 0
6.415000 0.185411 0
6.420000 0.206145 0
6.425000 0.218946 0
6.430000 0.222713 1
6.435000 0.217102 0
6.440000 0.202580 0
6.445000 0.180359 0
6.450000 0.152229 0
6.455000 0.120307 0
6.460000 0.086721 0
6.465000 0.053181 0
6.470000 0.020317 0
6.475000 -0.013259 0
6.480000 -0.051577 0
6.485000 -0.099960 0
6.490000 -0.160053 0
6.495000 -0.222670 0
6.500000 -0.264161 2
6.505000 -0.250848 0
6.510000 -0.148952 0
6.515000 0.064114 0
6.520000 0.383031 0
6.525000 0.751467 0
6.530000 1.056923 0
6.535000 1.175510 3
6.540000 1.050311 0
6.545000 0.732385 0
6.550000 0.342201 0
6.555000 -0.004536 0
6.560000 -0.241915 0
6.565000 -0.353455 0
6.570000 -0.355997 4
6.575000 -0.287090 0
6.580000 -0.191119 0
6.585000 -0.102397 0
6.590000 -0.035455 0
6.595000 0.011597 0
6.600000 0.047080 0
6.605000 0.078218 0
6.610000 0.108892 0
6.615000 0.140429 0
6.620000 0.172866 0
6.625000 0.205711 0
6.630000 0.238266 0
6.635000 0.269736 0
6.640000 0.299280 0
6.645000 0.326049 0
6.650000 0.349230 0
6.655000 0.368083 0
6.660000 0.381979 0
6.665000 0.390438 0
6.670000 0.393152 5
6.675000 0.390004 0
6.680000 0.381075 0
6.685000 0.366642 0
6.690000 0.347160 0
6.695000 0.323240 0
6.700000 0.295616 0
6.705000 0.265105 0
6.710000 0.232572 0
6.715000 0.198882 0
6.720000 0.164870 0
6.725000 0.131301 0
6.730000 0.098850 0
6.735000 0.068079 0
6.740000 0.039429 0
6.745000 0.013218 0
6.750000 -0.010360 0
6.755000 -0.031220 0
6.760000 -0.049374 0
6.765000 -0.064914 0
6.770000 -0.077996 0
6.775000 -0.088819 0
6.780000 -0.097612 0
6.785000 -0.104614 0
6.790000 -0.110068 0
6.795000 -0.114205 0
6.800000 -0.117243 0
6.805000 -0.119378 0
6.810000 -0.118871 0
6.815000 -0.117919 0
6.820000 -0.116971 0
6.825000 -0.116028 0
6.830000 -0.115088 0
6.835000 -0.114152 0
6.840000 -0.113218 0
6.845000 -0.112283 0
6.850000 -0.111341 0
6.855000 -0.110382 0
6.860000 -0.109387 0
6.865000 -0.108326 0
6.870000 -0.107145 0
6.875000 -0.105763 0
6.880000 -0.104051 0
6.885000 -0.101825 0
6.890000 -0.098824 0
6.895000 -0.094703 0
6.900000 -0.089023 0
6.905000 -0.081264 0
6.910000 -0.070856 0
6.915000 -0.057226 0
6.920000 -0.039886 0
6.925000 -0.018532 0
6.930000 0.006847 0
6.935000 0.035859 0
6.940000 0.067643 0
6.945000 0.100846 0
6.950000 0.133688 0
6.955000 0.164091 0
6.960000 0.189890 0
6.965000 0.209082 0
6.970000 0.220086 0
6.975000 0.221953 1
6.980000 0.214506 0
6.985000 0.198364 0
6.990000 0.174859 0
6.995000 0.145852 0
7.000000 0.113471 0
7.005000 0.079791 0
7.010000 0.046374 0
7.015000 0.013564 0
7.020000 -0.020455 0
7.025000 -0.060082 0
7.030000 -0.110442 0
7.035000 -0.171907 0
7.040000 -0.233148 0
7.045000 -0.268654 2
7.050000 -0.244291 0
7.055000 -0.127410 0
7.060000 0.101688 0
7.065000 0.432037 0
7.070000 0.799577 0
7.075000 1.087353 0
7.080000 1.176474 3
7.085000 1.023711 0
7.090000 0.691775 0
7.095000 0.301255 0
7.100000 -0.038383 0
7.105000 -0.267236 0
7.110000 -0.371992 4
7.115000 -0.370514 0
7.120000 -0.300046 0
7.125000 -0.203852 0
7.130000 -0.115128 0
7.135000 -0.047938 0
7.140000 -0.000501 0
7.145000 0.035282 0
7.150000 0.066558 0
7.155000 0.097252 0
7.160000 0.128764 0
7.165000 0.161184 0
7.170000 0.194061 0
7.175000 0.226727 0
7.180000 0.258414 0
7.185000 0.288304 0
7.190000 0.315571 0
7.195000 0.339413 0
7.200000 0.359096 0
7.205000 0.373985 0
7.210000 0.383583 0
7.215000 0.387555 5
7.220000 0.385748 0
7.225000 0.378197 0
7.230000 0.365129 0
7.235000 0.346945 0
7.240000 0.324206 0
7.245000 0.297597 0
7.250000 0.267895 0
7.255000 0.235935 0
7.260000 0.202564 0
7.265000 0.168609 0
7.270000 0.134843 0
7.275000 0.101956 0
7.280000 0.070538 0
7.285000 0.041065 0
7.290000 0.013892 0
7.295000 -0.010745 0
7.300000 -0.032719 0
7.305000 -0.052004 0
7.310000 -0.068658 0
7.315000 -0.082808 0
7.320000 -0.094630 0
7.325000 -0.104335 0
7.330000 -0.112153 0
7.335000 -0.118320 0
7.340000 -0.123071 0
7.345000 -0.126623 0
7.350000 -0.129181 0
7.355000 -0.130925 0
7.360000 -0.130312 0
7.365000 -0.129302 0
7.370000 -0.128298 0
7.375000 -0.127297 0
7.380000 -0.126302 0
7.385000 -0.125309 0
7.390000 -0.124318 0
7.395000 -0.123324 0
7.400000 -0.122321 0
7.405000 -0.121298 0
7.410000 -0.120232 0
7.415000 -0.119088 0
7.420000 -0.117808 0
7.425000 -0.116300 0
7.430000 -0.114429 0
7.435000 -0.111997 0
7.440000 -0.108732 0
7.445000 -0.104277 0
7.450000 -0.098188 0
7.455000 -0.089945 0
7.460000 -0.078988 0
7.465000 -0.064765 0
7.470000 -0.046822 0
7.475000 -0.024895 0
7.480000 0.000980 0
7.485000 0.030372 0
7.490000 0.062390 0
7.495000 0.095675 0
7.500000 0.128462 0
7.505000 0.158713 0
7.510000 0.184318 0
7.515000 0.203338 0
7.520000 0.214245 0
7.525000 0.216124 1
7.530000 0.208804 0
7.535000 0.192882 0
7.540000 0.169643 0
7.545000 0.140886 0
7.550000 0.108683 0
7.555000 0.075070 0
7.560000 0.041631 0
7.565000 0.008840 0
7.570000 -0.024821 0
7.575000 -0.063393 0
7.580000 -0.112021 0
7.585000 -0.172148 0
7.590000 -0.234789 0
7.595000 -0.277147 2
7.600000 -0.266732 0
7.605000 -0.170624 0
7.610000 0.034050 0
7.615000 0.344966 0
7.620000 0.712821 0
7.625000 1.033282 0
7.630000 1.183557 3
7.635000 1.095220 0
7.640000 0.802028 0
7.645000 0.415152 0
7.650000 0.052996 0
7.655000 -0.209782 0
7.660000 -0.348481 0
7.665000 -0.373598 4
7.670000 -0.318065 0
7.675000 -0.225060 0
7.680000 -0.131987 0
7.685000 -0.058430 0
7.690000 -0.006183 0
7.695000 0.032011 0
7.700000 0.063991 0
7.705000 0.094593 0
7.710000 0.125795 0
7.715000 0.157958 0
7.720000 0.190737 0
7.725000 0.223508 0
7.730000 0.255526 0
7.735000 0.285984 0
7.740000 0.314056 0
7.745000 0.338929 0
7.750000 0.359846 0
7.755000 0.376142 0
7.760000 0.387276 0
7.765000 0.392866 5
7.770000 0.392704 0
7.775000 0.386772 0
7.780000 0.375240 0
7.785000 0.358462 0
7.790000 0.336953 0
7.795000 0.311365 0
7.800000 0.282453 0
7.805000 0.251037 0
7.810000 0.217964 0
7.815000 0.184070 0
7.820000 0.150145 0
7.825000 0.116906 0
7.830000 0.084974 0
7.835000 0.054859 0
7.840000 0.026950 0
7.845000 0.001519 0
7.850000 -0.021277 0
7.855000 -0.041384 0
7.860000 -0.058835 0
7.865000 -0.073739 0
7.870000 -0.086259 0
7.875000 -0.096598 0
7.880000 -0.104980 0
7.885000 -0.111643 0
7.890000 -0.116819 0
7.895000 -0.120734 0
7.900000 -0.123595 0
7.905000 -0.125591 0
7.910000 -0.125038 0
7.915000 -0.124055 0
7.920000 -0.123076 0
7.925000 -0.122102 0
7.930000 -0.121133 0
7.935000 -0.120167 0
7.940000 -0.119202 0
7.945000 -0.118237 0
7.950000 -0.117265 0
7.955000 -0.116276 0
7.960000 -0.115253 0
7.965000 -0.114164 0
7.970000 -0.112960 0
7.975000 -0.111561 0
7.980000 -0.109846 0
7.985000 -0.107638 0
7.990000 -0.104690 0
7.995000 -0.100672 0
8.000000 -0.095168 0
8.005000 -0.087678 0
8.010000 -0.077651 0
8.015000 -0.064525 0
8.020000 -0.047806 0
8.025000 -0.027160 0
8.030000 -0.002518 0
8.035000 0.025821 0
8.040000 0.057116 0
8.045000 0.090151 0
8.050000 0.123281 0
8.055000 0.154534 0
8.060000 0.181802 0
8.065000 0.203066 0
8.070000 0.216645 0
8.075000 0.221414 1
8.080000 0.216958 0
8.085000 0.203635 0
8.090000 0.182524 0
8.095000 0.155283 0
8.100000 0.123925 0
8.105000 0.090535 0
8.110000 0.056896 0
8.115000 0.023925 0
8.120000 -0.009158 0
8.125000 -0.045605 0
8.130000 -0.090551 0
8.135000 -0.147349 0
8.140000 -0.211035 0
8.145000 -0.263217 0
8.150000 -0.273682 2
8.155000 -0.208578 0
8.160000 -0.040516 0
8.165000 0.238557 0
8.170000 0.596881 0
8.175000 0.946671 0
8.180000 1.164132 3
8.185000 1.155466 0
8.190000 0.920274 0
8.195000 0.550383 0
8.200000 0.168782 0
8.205000 -0.132956 0
8.210000 -0.314687 0
8.215000 -0.376507 4
8.220000 -0.344589 0
8.225000 -0.259934 0
8.230000 -0.163567 0
8.235000 -0.081958 0
8.240000 -0.022527 0
8.245000 0.019822 0
8.250000 0.053358 0
8.255000 0.084111 0
8.260000 0.114977 0
8.265000 0.146783 0
8.270000 0.179382 0
8.275000 0.212233 0
8.280000 0.244632 0
8.285000 0.275797 0
8.290000 0.304911 0
8.295000 0.331155 0
8.300000 0.353753 0
8.305000 0.372000 0
8.310000 0.385307 0
8.315000 0.393225 0
8.320000 0.395474 5
8.325000 0.391957 0
8.330000 0.382764 0
8.335000 0.368171 0
8.340000 0.348624 0
8.345000 0.324716 0
8.350000 0.297156 0
8.355000 0.266736 0
8.360000 0.234289 0
8.365000 0.200655 0
8.370000 0.166644 0
8.375000 0.133004 0
8.380000 0.100397 0
8.385000 0.069381 0
8.390000 0.040400 0
8.395000 0.013777 0
8.400000 -0.010280 0
8.405000 -0.031669 0
8.410000 -0.050385 0
8.415000 -0.066503 0
8.420000 -0.080160 0
8.425000 -0.091540 0
8.430000 -0.100858 0
8.435000 -0.108345 0
8.440000 -0.114235 0
8.445000 -0.118758 0
8.450000 -0.122128 0
8.455000 -0.124544 0
8.460000 -0.125798 0
8.465000 -0.124811 0
8.470000 -0.123829 0
8.475000 -0.122852 0
8.480000 -0.121879 0
8.485000 -0.120909 0
8.490000 -0.119943 0
8.495000 -0.118978 0
8.500000 -0.118009 0
8.505000 -0.117030 0
8.510000 -0.116028 0
8.515000 -0.114979 0
8.520000 -0.113845 0
8.525000 -0.112566 0
8.530000 -0.111044 0
8.535000 -0.109139 0
8.540000 -0.106644 0
8.545000 -0.103281 0
8.550000 -0.098685 0
8.555000 -0.092404 0
8.560000 -0.083918 0
8.565000 -0.072666 0
8.570000 -0.058108 0
8.575000 -0.039808 0
8.580000 -0.017528 0
8.585000 0.008663 0
8.590000 0.038298 0
8.595000 0.070451 0
8.600000 0.103740 0
8.605000 0.136382 0
8.610000 0.166344 0
8.615000 0.191535 0
8.620000 0.210051 0
8.625000 0.220408 0
8.630000 0.221741 1
8.635000 0.213923 0
8.640000 0.197585 0
8.645000 0.174030 0
8.650000 0.145064 0
8.655000 0.112747 0
8.660000 0.079093 0
8.665000 0.045648 0
8.670000 0.012840 0
8.675000 -0.020898 0
8.680000 -0.059626 0
8.685000 -0.108442 0
8.690000 -0.168686 0
8.695000 -0.231310 0
8.700000 -0.273609 2
8.705000 -0.263315 0
8.710000 -0.167747 0
8.715000 0.035889 0
8.720000 0.345625 0
8.725000 0.713256 0
8.730000 1.035965 0
8.735000 1.191519 3
8.740000 1.110100 0
8.745000 0.822543 0
8.750000 0.436975 0
8.755000 0.071290 0
8.760000 -0.198266 0
8.765000 -0.344900 0
8.770000 -0.377191 4
8.775000 -0.326413 0
8.780000 -0.234923 0
8.785000 -0.140708 0
8.790000 -0.064894 0
8.795000 -0.010659 0
8.800000 0.028686 0
8.805000 0.061084 0
8.810000 0.091697 0
8.815000 0.122768 0
8.820000 0.154799 0
8.825000 0.187514 0
8.830000 0.220324 0
8.835000 0.252507 0
8.840000 0.283277 0
8.845000 0.311818 0
8.850000 0.337323 0
8.855000 0.359035 0
8.860000 0.376276 0
8.865000 0.388487 0
8.870000 0.395258 0
8.875000 0.396345 5
8.880000 0.391690 0
8.885000 0.381420 0
8.890000 0.365842 0
8.895000 0.345430 0
8.900000 0.320795 0
8.905000 0.292660 0
8.910000 0.261820 0
8.915000 0.229107 0
8.920000 0.195353 0
8.925000 0.161351 0
8.930000 0.127834 0
8.935000 0.095442 0
8.940000 0.064713 0
8.945000 0.036067 0
8.950000 0.009810 0
8.955000 -0.013869 0
8.960000 -0.034884 0
8.965000 -0.053241 0
8.970000 -0.069024 0
8.975000 -0.082376 0
8.980000 -0.093485 0
8.985000 -0.102567 0
8.990000 -0.109852 0
8.995000 -0.115572 0
9.000000 -0.119955 0
9.005000 -0.123212 0
9.010000 -0.125536 0
9.015000 -0.126728 0
9.020000 -0.125736 0
9.025000 -0.124749 0
9.030000 -0.123767 0
9.035000 -0.122790 0
9.040000 -0.121816 0
9.045000 -0.120845 0
9.050000 -0.119875 0
9.055000 -0.118901 0
9.060000 -0.117916 0
9.065000 -0.116907 0
9.070000 -0.115849 0
9.075000 -0.114705 0
9.080000 -0.113411 0
9.085000 -0.111871 0
9.090000 -0.109940 0
9.095000 -0.107413 0
9.100000 -0.104008 0
9.105000 -0.099360 0
9.110000 -0.093020 0
9.115000 -0.084468 0
9.120000 -0.073146 0
9.125000 -0.058523 0
9.130000 -0.040164 0
9.135000 -0.017840 0
9.140000 0.008379 0
9.145000 0.038026 0
9.150000 0.070180 0
9.155000 0.103468 0
9.160000 0.136124 0
9.165000 0.166129 0
9.170000 0.191408 0
9.175000 0.210064 0
9.180000 0.220615 0
9.185000 0.222188 1
9.190000 0.214636 0
9.195000 0.198563 0
9.200000 0.175245 0
9.205000 0.146459 0
9.210000 0.114246 0
9.215000 0.080615 0
9.220000 0.047136 0
9.225000 0.014314 0
9.230000 -0.019276 0
9.235000 -0.057530 0
9.240000 -0.105553 0
9.245000 -0.165133 0
9.250000 -0.228198 0
9.255000 -0.273153 2
9.260000 -0.268404 0
9.265000 -0.181165 0
9.270000 0.012495 0
9.275000 0.313633 0
9.280000 0.679428 0
9.285000 1.012288 0
9.290000 1.189793 3
9.295000 1.132069 0
9.300000 0.859079 0
9.305000 0.476641 0
9.310000 0.106689 0
9.315000 -0.169382 0
9.320000 -0.321659 0
9.325000 -0.357564 4
9.330000 -0.308394 0
9.335000 -0.217284 0
9.340000 -0.123157 0
9.345000 -0.047631 0
9.350000 0.006156 0
9.355000 0.045111 0
9.360000 0.077286 0
9.365000 0.107817 0
9.370000 0.138874 0
9.375000 0.170902 0
9.380000 0.203583 0
9.385000 0.236300 0
9.390000 0.268309 0
9.395000 0.298800 0
9.400000 0.326938 0
9.405000 0.351906 0
9.410000 0.372936 0
9.415000 0.389352 0
9.420000 0.400607 0
9.425000 0.406308 5
9.430000 0.406239 0
9.435000 0.400377 0
9.440000 0.388890 0
9.445000 0.372129 0
9.450000 0.350611 0
9.455000 0.324991 0
9.460000 0.296029 0
9.465000 0.264550 0
9.470000 0.231408 0
9.475000 0.197443 0
9.480000 0.163453 0
9.485000 0.130159 0
9.490000 0.098185 0
9.495000 0.068041 0
9.500000 0.040119 0
9.505000 0.014690 0
9.510000 -0.008092 0
9.515000 -0.028174 0
9.520000 -0.045595 0
9.525000 -0.060464 0
9.530000 -0.072949 0
9.535000 -0.083255 0
9.540000 -0.091609 0
9.545000 -0.098249 0
9.550000 -0.103411 0
9.555000 -0.107321 0
9.560000 -0.110186 0
9.565000 -0.112194 0
9.570000 -0.111699 0
9.575000 -0.110783 0
9.580000 -0.109870 0
9.585000 -0.108962 0
9.590000 -0.108058 0
9.595000 -0.107157 0
9.600000 -0.106257 0
9.605000 -0.105355 0
9.610000 -0.104446 0
9.615000 -0.103518 0
9.620000 -0.102552 0
9.625000 -0.101516 0
9.630000 -0.100356 0
9.635000 -0.098987 0
9.640000 -0.097283 0
9.645000 -0.095055 0
9.650000 -0.092046 0
9.655000 -0.087910 0
9.660000 -0.082217 0
9.665000 -0.074453 0
9.670000 -0.064058 0
9.675000 -0.050472 0
9.680000 -0.033214 0
9.685000 -0.011983 0
9.690000 0.013239 0
9.695000 0.042080 0
9.700000 0.073716 0
9.705000 0.106843 0
9.710000 0.139734 0
9.715000 0.170366 0
9.720000 0.196612 0
9.725000 0.216484 0
9.730000 0.228378 0
9.735000 0.231290 1
9.740000 0.224954 0
9.745000 0.209882 0
9.750000 0.187296 0
9.755000 0.158959 0
9.760000 0.126942 0
9.765000 0.093315 0
9.770000 0.059739 0
9.775000 0.026839 0
9.780000 -0.006689 0
9.785000 -0.044694 0
9.790000 -0.092395 0
9.795000 -0.151817 0
9.800000 -0.214979 0
9.805000 -0.259978 2
9.810000 -0.254558 0
9.815000 -0.165287 0
9.820000 0.031928 0
9.825000 0.337026 0
9.830000 0.703861 0
9.835000 1.030209 0
9.840000 1.191785 3
9.845000 1.114783 0
9.850000 0.828174 0
9.855000 0.442427 0
9.860000 0.078176 0
9.865000 -0.187448 0
9.870000 -0.328388 0
9.875000 -0.354752 4
9.880000 -0.299652 0
9.885000 -0.206747 0
9.890000 -0.113860 0
9.895000 -0.040678 0
9.900000 0.011148 0
9.905000 0.049026 0
9.910000 0.080832 0
9.915000 0.111357 0
9.920000 0.142524 0
9.925000 0.174652 0
9.930000 0.207373 0
9.935000 0.240047 0
9.940000 0.271914 0
9.945000 0.302156 0
9.950000 0.329935 0
9.955000 0.354433 0
9.960000 0.374889 0
9.965000 0.390640 0
9.970000 0.401154 0
9.975000 0.406060 5
9.980000 0.405168 0
9.985000 0.398482 0
9.990000 0.386197 0
9.995000 0.368693 0
10.000000 0.346512 0
10.005000 0.320330 0
10.010000 0.290921 0
10.015000 0.259124 0
10.020000 0.225794 0
10.025000 0.191774 0
10.030000 0.157852 0
10.035000 0.124738 0
10.040000 0.093041 0
10.045000 0.063255 0
10.050000 0.035751 0
10.055000 0.010780 0
10.060000 -0.011521 0
10.065000 -0.031117 0
10.070000 -0.048061 0
10.075000 -0.062475 0
10.080000 -0.074536 0
10.085000 -0.084453 0
10.090000 -0.092461 0
10.095000 -0.098797 0
10.100000 -0.103697 0
10.105000 -0.107385 0
10.110000 -0.110065 0
10.115000 -0.111922 0
10.120000 -0.111406 0
10.125000 -0.110491 0
10.130000 -0.109580 0
10.135000 -0.108673 0
10.140000 -0.107770 0
10.145000 -0.106870 0
10.150000 -0.105970 0
10.155000 -0.105068 0
10.160000 -0.104156 0
10.165000 -0.103222 0
10.170000 -0.102244 0
10.175000 -0.101185 0
10.180000 -0.099985 0
10.185000 -0.098551 0
10.190000 -0.096740 0
10.195000 -0.094351 0
10.200000 -0.091102 0
10.205000 -0.086626 0
10.210000 -0.080469 0
10.215000 -0.072098 0
10.220000 -0.060946 0
10.225000 -0.046461 0
10.230000 -0.028197 0
10.235000 -0.005914 0
10.240000 0.020312 0
10.245000 0.049995 0
10.250000 0.082177 0
10.255000 0.115427 0
10.260000 0.147915 0
10.265000 0.177557 0
10.270000 0.202230 0
10.275000 0.220019 0
10.280000 0.229463 0
10.285000 0.229750 1
10.290000 0.220835 0
10.295000 0.203448 0
10.300000 0.178995 0
10.305000 0.149363 0
10.310000 0.116667 0
10.315000 0.082916 0
10.320000 0.049547 0
10.325000 0.016708 0
10.330000 -0.017663 0
10.335000 -0.058112 0
10.340000 -0.109550 0
10.345000 -0.171625 0
10.350000 -0.232077 0
10.355000 -0.264890 2
10.360000 -0.236182 0
10.365000 -0.114152 0
10.370000 0.119653 0
10.375000 0.452698 0
10.380000 0.819806 0
10.385000 1.104656 0
10.390000 1.190677 3
10.395000 1.034591 0
10.400000 0.699359 0
10.405000 0.309052 0
10.410000 -0.025791 0
10.415000 -0.246572 0
10.420000 -0.342152 4
10.425000 -0.332789 0
10.430000 -0.257857 0
10.435000 -0.161346 0
10.440000 -0.075212 0
10.445000 -0.011356 0
10.450000 0.033564 0
10.455000 0.068038 0
10.460000 0.098877 0
10.465000 0.129546 0
10.470000 0.161136 0
10.475000 0.193579 0
10.480000 0.226347 0
10.485000 0.258724 0
10.490000 0.289907 0
10.495000 0.319049 0
10.500000 0.345308 0
10.505000 0.367874 0
10.510000 0.386022 0
10.515000 0.399141 0
10.520000 0.406772 0
10.525000 0.408631 5
10.530000 0.404628 0
10.535000 0.394871 0
10.540000 0.379660 0
10.545000 0.359474 0
10.550000 0.334942 0
10.555000 0.306810 0
10.560000 0.275905 0
10.565000 0.243094 0
10.570000 0.209240 0
10.575000 0.175170 0
10.580000 0.141639 0
10.585000 0.109307 0
10.590000 0.078722 0
10.595000 0.050308 0
10.600000 0.024365 0
10.605000 0.001074 0
10.610000 -0.019496 0
10.615000 -0.037367 0
10.620000 -0.052642 0
10.625000 -0.065483 0
10.630000 -0.076094 0
10.635000 -0.084705 0
10.640000 -0.091557 0
10.645000 -0.096892 0
10.650000 -0.100941 0
10.655000 -0.103917 0
10.660000 -0.106014 0
10.665000 -0.105558 0
10.670000 -0.104672 0
10.675000 -0.103790 0
10.680000 -0.102912 0
10.685000 -0.102038 0
10.690000 -0.101167 0
10.695000 -0.100297 0
10.700000 -0.099425 0
10.705000 -0.098545 0
10.710000 -0.097646 0
10.715000 -0.096708 0
10.720000 -0.095696 0
10.725000 -0.094557 0
10.730000 -0.093201 0
10.735000 -0.091495 0
10.740000 -0.089244 0
10.745000 -0.086178 0
10.750000 -0.081938 0
10.755000 -0.076075 0
10.760000 -0.068059 0
10.765000 -0.057316 0
10.770000 -0.043280 0
10.775000 -0.025480 0
10.780000 -0.003645 0
10.785000 0.022188 0
10.790000 0.051569 0
10.795000 0.083570 0
10.800000 0.116779 0
10.805000 0.149364 0
10.810000 0.179224 0
10.815000 0.204200 0
10.820000 0.222332 0
10.825000 0.232110 0
10.830000 0.232682 1
10.835000 0.223978 0
10.840000 0.206717 0
10.845000 0.182314 0
10.850000 0.152681 0
10.855000 0.119961 0
10.860000 0.086190 0
10.865000 0.052816 0
10.870000 0.019952 0
10.875000 -0.014560 0
10.880000 -0.055395 0
10.885000 -0.107443 0
10.890000 -0.169896 0
10.895000 -0.229527 0
10.900000 -0.259211 2
10.905000 -0.224400 0
10.910000 -0.093441 0
10.915000 0.150541 0
10.920000 0.490753 0
10.925000 0.855198 0
10.930000 1.122631 0
10.935000 1.179857 3
10.940000 0.994880 0
10.945000 0.643824 0
10.950000 0.256146 0
10.955000 -0.061911 0
10.960000 -0.259508 0
10.965000 -0.332193 4
10.970000 -0.305519 0
10.975000 -0.222268 0
10.980000 -0.126140 0
10.985000 -0.045274 0
10.990000 0.012849 0
10.995000 0.053990 0
11.000000 0.086822 0
11.005000 0.117336 0
11.010000 0.148210 0
11.015000 0.180077 0
11.020000 0.212664 0
11.025000 0.245343 0
11.030000 0.277340 0
11.035000 0.307810 0
11.040000 0.335881 0
11.045000 0.360696 0
11.050000 0.381454 0
11.055000 0.397455 0
11.060000 0.408137 0
11.065000 0.413104 5
11.070000 0.412155 0
11.075000 0.405295 0
11.080000 0.392732 0
11.085000 0.374867 0
11.090000 0.352276 0
11.095000 0.325670 0
11.100000 0.295868 0
11.105000 0.263744 0
11.110000 0.230191 0
11.115000 0.196078 0
11.120000 0.162214 0
11.125000 0.129317 0
11.130000 0.097996 0
11.135000 0.068731 0
11.140000 0.041878 0
11.145000 0.017660 0
11.150000 -0.003812 0
11.155000 -0.022535 0
11.160000 -0.038590 0
11.165000 -0.052129 0
11.170000 -0.063350 0
11.175000 -0.072485 0
11.180000 -0.079779 0
11.185000 -0.085481 0
11.190000 -0.089831 0
11.195000 -0.093051 0
11.200000 -0.095346 0
11.205000 -0.094964 0
11.210000 -0.094131 0
11.215000 -0.093301 0
11.220000 -0.092476 0
11.225000 -0.091654 0
11.230000 -0.090835 0
11.235000 -0.090017 0
11.240000 -0.089197 0
11.245000 -0.088369 0
11.250000 -0.087522 0
11.255000 -0.086636 0
11.260000 -0.085678 0
11.265000 -0.084589 0
11.270000 -0.083282 0
11.275000 -0.081617 0
11.280000 -0.079394 0
11.285000 -0.076333 0
11.290000 -0.072060 0
11.295000 -0.066110 0
11.300000 -0.057935 0
11.305000 -0.046941 0
11.310000 -0.032555 0
11.315000 -0.014309 0
11.320000 0.008041 0
11.325000 0.034405 0
11.330000 0.064251 0
11.335000 0.096544 0
11.340000 0.129750 0
11.345000 0.161924 0
11.350000 0.190877 0
11.355000 0.214414 0
11.360000 0.230608 0
11.365000 0.238056 1
11.370000 0.236080 0
11.375000 0.224829 0
11.380000 0.205259 0
11.385000 0.178995 0
11.390000 0.148105 0
11.395000 0.114794 0
11.400000 0.081014 0
11.405000 0.047876 0
11.410000 0.014754 0
11.415000 -0.021602 0
11.420000 -0.066553 0
11.425000 -0.123640 0
11.430000 -0.187401 0
11.435000 -0.237838 0
11.440000 -0.242575 2
11.445000 -0.166170 0
11.450000 0.018533 0
11.455000 0.315163 0
11.460000 0.680377 0
11.465000 1.010677 0
11.470000 1.176041 3
11.475000 1.098641 0
11.480000 0.808915 0
11.485000 0.422122 0
11.490000 0.062137 0
11.495000 -0.194273 0
11.500000 -0.323465 0
11.505000 -0.338646 4
11.510000 -0.276092 0
11.515000 -0.181229 0
11.520000 -0.090945 0
11.525000 -0.022126 0
11.530000 0.026064 0
11.535000 0.061954 0
11.540000 0.093115 0
11.545000 0.123690 0
11.550000 0.155120 0
11.555000 0.187467 0
11.560000 0.220237 0
11.565000 0.252717 0
11.570000 0.284092 0
11.575000 0.313503 0
11.580000 0.340082 0
11.585000 0.362998 0
11.590000 0.381501 0
11.595000 0.394954 0
11.600000 0.402879 0
11.605000 0.404976 5
11.610000 0.401144 0
11.615000 0.391488 0
11.620000 0.376313 0
11.625000 0.356107 0
11.630000 0.331513 0
11.635000 0.303298 0
11.640000 0.272308 0
11.645000 0.239430 0
11.650000 0.205546 0
11.655000 0.171497 0
11.660000 0.138051 0
11.665000 0.105871 0
11.670000 0.075507 0
11.675000 0.047378 0
11.680000 0.021775 0
11.685000 -0.001131 0
11.690000 -0.021284 0
11.695000 -0.038720 0
11.700000 -0.053557 0
11.705000 -0.065967 0
11.710000 -0.076167 0
11.715000 -0.084394 0
11.720000 -0.090897 0
11.725000 -0.095920 0
11.730000 -0.099696 0
11.735000 -0.102439 0
11.740000 -0.104340 0
11.745000 -0.103862 0
11.750000 -0.102984 0
11.755000 -0.102111 0
11.760000 -0.101241 0
11.765000 -0.100375 0
11.770000 -0.099511 0
11.775000 -0.098648 0
11.780000 -0.097781 0
11.785000 -0.096902 0
11.790000 -0.095997 0
11.795000 -0.095042 0
11.800000 -0.093993 0
11.805000 -0.092782 0
11.810000 -0.091302 0
11.815000 -0.089391 0
11.820000 -0.086817 0
11.825000 -0.083265 0
11.830000 -0.078323 0
11.835000 -0.071492 0
11.840000 -0.062202 0
11.845000 -0.049859 0
11.850000 -0.033924 0
11.855000 -0.014006 0
11.860000 0.010020 0
11.865000 0.037898 0
11.870000 0.068903 0
11.875000 0.101803 0
11.880000 0.134894 0
11.885000 0.166117 0
11.890000 0.193260 0
11.895000 0.214207 0
11.900000 0.227209 0
11.905000 0.231129 1
11.910000 0.225601 0
11.915000 0.211086 0
11.920000 0.188811 0
11.925000 0.160593 0
11.930000 0.128583 0
11.935000 0.094936 0
11.940000 0.061370 0
11.945000 0.028473 0
11.950000 -0.005267 0
11.955000 -0.044056 0
11.960000 -0.093250 0
11.965000 -0.154028 0
11.970000 -0.216070 0
11.975000 -0.254318 2
11.980000 -0.234171 0
11.985000 -0.121897 0
11.990000 0.103489 0
11.995000 0.432081 0
12.000000 0.799624 0
12.005000 1.086999 0
12.010000 1.172919 3
12.015000 1.013114 0
12.020000 0.674210 0
12.025000 0.284579 0
12.030000 -0.044003 0
12.035000 -0.254632 0
12.040000 -0.338913 4
12.045000 -0.320108 0
12.050000 -0.240158 0
12.055000 -0.143680 0
12.060000 -0.060829 0
12.065000 -0.000804 0
12.070000 0.041466 0
12.075000 0.074750 0
12.080000 0.105362 0
12.085000 0.136216 0
12.090000 0.168061 0
12.095000 0.200663 0
12.100000 0.233408 0
12.105000 0.265525 0
12.110000 0.296167 0
12.115000 0.324460 0
12.120000 0.349538 0
12.125000 0.370593 0
12.130000 0.386915 0
12.135000 0.397930 0
12.140000 0.403231 5
12.145000 0.402607 0
12.150000 0.396051 0
12.155000 0.383764 0
12.160000 0.366143 0
12.165000 0.343758 0
12.170000 0.317322 0
12.175000 0.287652 0
12.180000 0.255628 0
12.185000 0.222146 0
12.190000 0.188081 0
12.195000 0.154248 0
12.200000 0.121370 0
12.205000 0.090061 0
12.210000 0.060808 0
12.215000 0.033967 0
12.220000 0.009768 0
12.225000 -0.011681 0
12.230000 -0.030374 0
12.235000 -0.046393 0
12.240000 -0.059889 0
12.245000 -0.071063 0
12.250000 -0.080146 0
12.255000 -0.087387 0
12.260000 -0.093034 0
12.265000 -0.097329 0
12.270000 -0.100496 0
12.275000 -0.102738 0
12.280000 -0.102316 0
12.285000 -0.101446 0
12.290000 -0.100581 0
12.295000 -0.099719 0
12.300000 -0.098861 0
12.305000 -0.098006 0
12.310000 -0.097152 0
12.315000 -0.096296 0
12.320000 -0.095432 0
12.325000 -0.094548 0
12.330000 -0.093625 0
12.335000 -0.092626 0
12.340000 -0.091494 0
12.345000 -0.090136 0
12.350000 -0.088411 0
12.355000 -0.086113 0
12.360000 -0.082954 0
12.365000 -0.078554 0
12.370000 -0.072438 0
12.375000 -0.064052 0
12.380000 -0.052798 0
12.385000 -0.038104 0
12.390000 -0.019513 0
12.395000 0.003200 0
12.400000 0.029911 0
12.405000 0.060045 0
12.410000 0.092520 0
12.415000 0.125752 0
12.420000 0.157757 0
12.425000 0.186324 0
12.430000 0.209260 0
12.435000 0.224669 0
12.440000 0.231206 1
12.445000 0.228272 0
12.450000 0.216105 0
12.455000 0.195744 0
12.460000 0.168886 0
12.465000 0.137641 0
12.470000 0.104217 0
12.475000 0.070513 0
12.480000 0.037489 0
12.485000 0.004229 0
12.490000 -0.032877 0
12.495000 -0.079289 0
12.500000 -0.137827 0
12.505000 -0.201260 0
12.510000 -0.247482 2
12.515000 -0.242887 0
12.520000 -0.152323 0
12.525000 0.049252 0
12.530000 0.360202 0
12.535000 0.728116 0
12.540000 1.041368 0
12.545000 1.171748 3
12.550000 1.055391 0
12.555000 0.740368 0
12.560000 0.350339 0
12.565000 0.004961 0
12.570000 -0.228385 0
12.575000 -0.333941 4
12.580000 -0.330445 0
12.585000 -0.257698 0
12.590000 -0.161340 0
12.595000 -0.074982 0
12.600000 -0.011227 0
12.605000 0.033383 0
12.610000 0.067622 0
12.615000 0.098402 0
12.620000 0.129138 0
12.625000 0.160836 0
12.630000 0.193364 0
12.635000 0.226145 0
12.640000 0.258424 0
12.645000 0.289359 0
12.650000 0.318073 0
12.655000 0.343695 0
12.660000 0.365402 0
12.665000 0.382465 0
12.670000 0.394284 0
12.675000 0.400428 0
12.680000 0.400654 5
12.685000 0.394926 0
12.690000 0.383419 0
12.695000 0.366502 0
12.700000 0.344727 0
12.705000 0.318793 0
12.710000 0.289507 0
12.715000 0.257746 0
12.720000 0.224410 0
12.725000 0.190382 0
12.730000 0.156489 0
12.735000 0.123468 0
12.740000 0.091951 0
12.745000 0.062442 0
12.750000 0.035313 0
12.755000 0.010810 0
12.760000 -0.010945 0
12.765000 -0.029936 0
12.770000 -0.046236 0
12.775000 -0.059989 0
12.780000 -0.071394 0
12.785000 -0.080679 0
12.790000 -0.088091 0
12.795000 -0.093883 0
12.800000 -0.098295 0
12.805000 -0.101557 0
12.810000 -0.103874 0
12.815000 -0.105075 0
12.820000 -0.104191 0
12.825000 -0.103312 0
12.830000 -0.102437 0
12.835000 -0.101565 0
12.840000 -0.100697 0
12.845000 -0.099830 0
12.850000 -0.098961 0
12.855000 -0.098085 0
12.860000 -0.097191 0
12.865000 -0.096258 0
12.870000 -0.095254 0
12.875000 -0.094122 0
12.880000 -0.092772 0
12.885000 -0.091067 0
12.890000 -0.088804 0
12.895000 -0.085702 0
12.900000 -0.081385 0
12.905000 -0.075383 0
12.910000 -0.067145 0
12.915000 -0.056071 0
12.920000 -0.041583 0
12.925000 -0.023214 0
12.930000 -0.000720 0
12.935000 0.025797 0
12.940000 0.055786 0
12.945000 0.088189 0
12.950000 0.121441 0
12.955000 0.153567 0
12.960000 0.182354 0
12.965000 0.205597 0
12.970000 0.221372 0
12.975000 0.228302 1
12.980000 0.225755 0
12.985000 0.213934 0
12.990000 0.193855 0
12.995000 0.167199 0
13.000000 0.136074 0
13.005000 0.102699 0
13.010000 0.068996 0
13.015000 0.035966 0
13.020000 0.002757 0
13.025000 -0.034184 0
13.030000 -0.080325 0
13.035000 -0.138628 0
13.040000 -0.202113 0
13.045000 -0.248881 2
13.050000 -0.245338 0
13.055000 -0.156159 0
13.060000 0.044011 0
13.065000 0.353986 0
13.070000 0.721812 0
13.075000 1.035926 0
13.080000 1.167564 3
13.085000 1.054428 0
13.090000 0.743125 0
13.095000 0.353457 0
13.100000 0.003558 0
13.105000 -0.237980 0
13.110000 -0.353099 0
13.115000 -0.357983 4
13.120000 -0.290112 0
13.125000 -0.194266 0
13.130000 -0.105322 0
13.135000 -0.038188 0
13.140000 0.008938 0
13.145000 0.044432 0
13.150000 0.075576 0
13.155000 0.106270 0
13.160000 0.137836 0
13.165000 0.170301 0
13.170000 0.203164 0
13.175000 0.235717 0
13.180000 0.267158 0
13.185000 0.296637 0
13.190000 0.323299 0
13.195000 0.346325 0
13.200000 0.364973 0
13.205000 0.378617 0
13.210000 0.386778 0
13.215000 0.389157 5
13.220000 0.385648 0
13.225000 0.376347 0
13.230000 0.361544 0
13.235000 0.341712 0
13.240000 0.317478 0
13.245000 0.289589 0
13.250000 0.258876 0
13.255000 0.226212 0
13.260000 0.192470 0
13.265000 0.158484 0
13.270000 0.125019 0
13.275000 0.092743 0
13.280000 0.062211 0
13.285000 0.033853 0
13.290000 0.007973 0
13.295000 -0.015246 0
13.300000 -0.035732 0
13.305000 -0.053509 0
13.310000 -0.068681 0
13.315000 -0.081411 0
13.320000 -0.091905 0
13.325000 -0.100396 0
13.330000 -0.107128 0
13.335000 -0.112343 0
13.340000 -0.116274 0
13.345000 -0.119136 0
13.350000 -0.121124 0
13.355000 -0.120587 0
13.360000 -0.119626 0
13.365000 -0.118669 0
13.370000 -0.117717 0
13.375000 -0.116769 0
13.380000 -0.115825 0
13.385000 -0.114881 0
13.390000 -0.113936 0
13.395000 -0.112982 0
13.400000 -0.112008 0
13.405000 -0.110993 0
13.410000 -0.109901 0
13.415000 -0.108673 0
13.420000 -0.107216 0
13.425000 -0.105391 0
13.430000 -0.102993 0
13.435000 -0.099740 0
13.440000 -0.095259 0
13.445000 -0.089086 0
13.450000 -0.080680 0
13.455000 -0.069458 0
13.460000 -0.054857 0
13.465000 -0.036423 0
13.470000 -0.013920 0
13.475000 0.012559 0
13.480000 0.042490 0
13.485000 0.074861 0
13.490000 0.108172 0
13.495000 0.140520 0
13.500000 0.169759 0
13.505000 0.193727 0
13.510000 0.210511 0
13.515000 0.218694 1
13.520000 0.217556 0
13.525000 0.207181 0
13.530000 0.188442 0
13.535000 0.162882 0
13.540000 0.132501 0
13.545000 0.099468 0
13.550000 0.065758 0
13.555000 0.032617 0
13.560000 -0.000269 0
13.565000 -0.035683 0
13.570000 -0.078723 0
13.575000 -0.133619 0
13.580000 -0.197101 0
13.585000 -0.252265 0
13.590000 -0.269062 2
13.595000 -0.212382 0
13.600000 -0.052804 0
13.605000 0.220101 0
13.610000 0.576417 0
13.615000 0.927638 0
13.620000 1.146103 3
13.625000 1.134636 0
13.630000 0.893788 0
13.635000 0.520708 0
13.640000 0.142420 0
13.645000 -0.149616 0
13.650000 -0.317981 0
13.655000 -0.366199 4
13.660000 -0.324007 0
13.665000 -0.234961 0
13.670000 -0.139973 0
13.675000 -0.062836 0
13.680000 -0.007882 0
13.685000 0.031623 0
13.690000 0.063989 0
13.695000 0.094589 0
13.700000 0.125702 0
13.705000 0.157798 0
13.710000 0.190551 0
13.715000 0.223328 0
13.720000 0.255364 0
13.725000 0.285828 0
13.730000 0.313867 0
13.735000 0.338643 0
13.740000 0.359376 0
13.745000 0.375386 0
13.750000 0.386125 0
13.755000 0.391209 5
13.760000 0.390441 0
13.765000 0.383822 0
13.770000 0.371553 0
13.775000 0.354021 0
13.780000 0.331781 0
13.785000 0.305525 0
13.790000 0.276048 0
13.795000 0.244203 0
13.800000 0.210864 0
13.805000 0.176886 0
13.810000 0.143068 0
13.815000 0.110124 0
13.820000 0.078665 0
13.825000 0.049181 0
13.830000 0.022036 0
13.835000 -0.002529 0
13.840000 -0.024389 0
13.845000 -0.043523 0
13.850000 -0.059995 0
13.855000 -0.073942 0
13.860000 -0.085548 0
13.865000 -0.095035 0
13.870000 -0.102642 0
13.875000 -0.108612 0
13.880000 -0.113182 0
13.885000 -0.116577 0
13.890000 -0.119002 0
13.895000 -0.120261 0
13.900000 -0.119301 0
13.905000 -0.118347 0
13.910000 -0.117397 0
13.915000 -0.116451 0
13.920000 -0.115509 0
13.925000 -0.114569 0
13.930000 -0.113629 0
13.935000 -0.112685 0
13.940000 -0.111728 0
13.945000 -0.110742 0
13.950000 -0.109701 0
13.955000 -0.108560 0
13.960000 -0.107247 0
13.965000 -0.105649 0
13.970000 -0.103600 0
13.975000 -0.100864 0
13.980000 -0.097120 0
13.985000 -0.091955 0
13.990000 -0.084871 0
13.995000 -0.075305 0
14.000000 -0.062674 0
14.005000 -0.046454 0
14.010000 -0.026273 0
14.015000 -0.002025 0
14.020000 0.026024 0
14.025000 0.057145 0
14.030000 0.090120 0
14.035000 0.123269 0
14.040000 0.154569 0
14.045000 0.181846 0
14.050000 0.203018 0
14.055000 0.216356 0
14.060000 0.220720 1
14.065000 0.215718 0
14.070000 0.201762 0
14.075000 0.180018 0
14.080000 0.152238 0
14.085000 0.120521 0
14.090000 0.086999 0
14.095000 0.053427 0
14.100000 0.020541 0
14.105000 -0.012860 0
14.110000 -0.050606 0
14.115000 -0.098033 0
14.120000 -0.157330 0
14.125000 -0.220427 0
14.130000 -0.264865 2
14.135000 -0.257548 0
14.140000 -0.164382 0
14.145000 0.038642 0
14.150000 0.349564 0
14.155000 0.717479 0
14.160000 1.034257 0
14.165000 1.174211 3
14.170000 1.072413 0
14.175000 0.769403 0
14.180000 0.380777 0
14.185000 0.024717 0
14.190000 -0.227306 0
14.195000 -0.354015 0
14.200000 -0.368771 4
14.205000 -0.306779 0
14.210000 -0.212075 0
14.215000 -0.120884 0
14.220000 -0.050485 0
14.225000 -0.000833 0
14.230000 0.035957 0
14.235000 0.067482 0
14.240000 0.098116 0
14.245000 0.129503 0
14.250000 0.161831 0
14.255000 0.194675 0
14.260000 0.227368 0
14.265000 0.259138 0
14.270000 0.289158 0
14.275000 0.316586 0
14.280000 0.340606 0
14.285000 0.360468 0
14.290000 0.375522 0
14.295000 0.385259 0
14.300000 0.389333 5
14.305000 0.387583 0
14.310000 0.380045 0
14.315000 0.366947 0
14.320000 0.348698 0
14.325000 0.325867 0
14.330000 0.299152 0
14.335000 0.269347 0
14.340000 0.237296 0
14.345000 0.203862 0
14.350000 0.169882 0
14.355000 0.136136 0
14.360000 0.103320 0
14.365000 0.072024 0
14.370000 0.042721 0
14.375000 0.015762 0
14.380000 -0.008624 0
14.385000 -0.030320 0
14.390000 -0.049310 0
14.395000 -0.065662 0
14.400000 -0.079512 0
14.405000 -0.091044 0
14.410000 -0.100476 0
14.415000 -0.108043 0
14.420000 -0.113986 0
14.425000 -0.118540 0
14.430000 -0.121924 0
14.435000 -0.124341 0
14.440000 -0.125591 0
14.445000 -0.124605 0
14.450000 -0.123624 0
14.455000 -0.122647 0
14.460000 -0.121675 0
14.465000 -0.120707 0
14.470000 -0.119741 0
14.475000 -0.118777 0
14.480000 -0.117808 0
14.485000 -0.116827 0
14.490000 -0.115821 0
14.495000 -0.114763 0
14.500000 -0.113612 0
14.505000 -0.112301 0
14.510000 -0.110725 0
14.515000 -0.108728 0
14.520000 -0.106088 0
14.525000 -0.102501 0
14.530000 -0.097575 0
14.535000 -0.090832 0
14.540000 -0.081725 0
14.545000 -0.069679 0
14.550000 -0.054161 0
14.555000 -0.034766 0
14.560000 -0.011328 0
14.565000 0.015972 0
14.570000 0.046521 0
14.575000 0.079223 0
14.580000 0.112519 0
14.585000 0.144482 0
14.590000 0.172983 0
14.595000 0.195925 0
14.600000 0.211491 0
14.605000 0.218383 1
14.610000 0.216004 0
14.615000 0.204541 0
14.620000 0.184940 0
14.625000 0.158782 0
14.630000 0.128060 0
14.635000 0.094905 0
14.640000 0.061218 0
14.645000 0.028138 0
14.650000 -0.004776 0
14.655000 -0.040411 0
14.660000 -0.083841 0
14.665000 -0.139081 0
14.670000 -0.202607 0
14.675000 -0.257527 0
14.680000 -0.274219 2
14.685000 -0.218205 0
14.690000 -0.060503 0
14.695000 0.209629 0
14.700000 0.564212 0
14.705000 0.918371 0
14.710000 1.147188 0
14.715000 1.151134 3
14.720000 0.925530 0
14.725000 0.559543 0
14.730000 0.175837 0
14.735000 -0.131820 0
14.740000 -0.320770 0
14.745000 -0.389225 4
14.750000 -0.361991 0
14.755000 -0.279352 0
14.760000 -0.182657 0
14.765000 -0.099517 0
14.770000 -0.038514 0
14.775000 0.004868 0
14.780000 0.038881 0
14.785000 0.069771 0
14.790000 0.100636 0
14.795000 0.132421 0
14.800000 0.165028 0
14.805000 0.197941 0
14.810000 0.230468 0
14.815000 0.261837 0
14.820000 0.291235 0
14.825000 0.317846 0
14.830000 0.340890 0
14.835000 0.359660 0
14.840000 0.373553 0
14.845000 0.382110 0
14.850000 0.385031 5
14.855000 0.382199 0
14.860000 0.373685 0
14.865000 0.359743 0
14.870000 0.340799 0
14.875000 0.317426 0
14.880000 0.290321 0
14.885000 0.260261 0
14.890000 0.228075 0
14.895000 0.194599 0
14.900000 0.160645 0
14.905000 0.126967 0
14.910000 0.094238 0
14.915000 0.063028 0
14.920000 0.033794 0
14.925000 0.006874 0
14.930000 -0.017508 0
14.935000 -0.039237 0
14.940000 -0.058294 0
14.945000 -0.074743 0
14.950000 -0.088713 0
14.955000 -0.100380 0
14.960000 -0.109956 0
14.965000 -0.117667 0
14.970000 -0.123748 0
14.975000 -0.128428 0
14.980000 -0.131925 0
14.985000 -0.134437 0
14.990000 -0.136144 0
14.995000 -0.135503 0
15.000000 -0.134467 0
15.005000 -0.133437 0
15.010000 -0.132411 0
15.015000 -0.131390 0
15.020000 -0.130372 0
15.025000 -0.129355 0
15.030000 -0.128337 0
15.035000 -0.127310 0
15.040000 -0.126263 0
15.045000 -0.125176 0
15.050000 -0.124013 0
15.055000 -0.122720 0
15.060000 -0.121208 0
15.065000 -0.119347 0
15.070000 -0.116946 0
15.075000 -0.113743 0
15.080000 -0.109395 0
15.085000 -0.103468 0
15.090000 -0.095458 0
15.095000 -0.084811 0
15.100000 -0.070979 0
15.105000 -0.053496 0
15.110000 -0.032072 0
15.115000 -0.006700 0
15.120000 0.022254 0
15.125000 0.053975 0
15.130000 0.087189 0
15.135000 0.120205 0
15.140000 0.151041 0
15.145000 0.177610 0
15.150000 0.197948 0
15.155000 0.210456 0
15.160000 0.214107 1
15.165000 0.208587 0
15.170000 0.194339 0
15.175000 0.172506 0
15.180000 0.144779 0
15.185000 0.113169 0
15.190000 0.079728 0
15.195000 0.046167 0
15.200000 0.013286 0
15.205000 -0.019863 0
15.210000 -0.056683 0
15.215000 -0.102296 0
15.220000 -0.159707 0
15.225000 -0.223335 0
15.230000 -0.274259 0
15.235000 -0.282211 2
15.240000 -0.213767 0
15.245000 -0.042264 0
15.250000 0.239426 0
15.255000 0.598662 0
15.260000 0.947582 0
15.265000 1.163571 3
15.270000 1.153412 0
15.275000 0.916731 0
15.280000 0.546175 0
15.285000 0.165073 0
15.290000 -0.135253 0
15.295000 -0.315145 0
15.300000 -0.375165 4
15.305000 -0.341911 0
15.310000 -0.256664 0
15.315000 -0.160417 0
15.320000 -0.079313 0
15.325000 -0.020407 0
15.330000 0.021599 0
15.335000 0.054985 0
15.340000 0.085710 0
15.345000 0.116597 0
15.350000 0.148434 0
15.355000 0.181050 0
15.360000 0.213894 0
15.365000 0.246258 0
15.370000 0.277355 0
15.375000 0.306362 0
15.380000 0.332461 0
15.385000 0.354873 0
15.390000 0.372897 0
15.395000 0.385948 0
15.400000 0.393583 0
15.405000 0.395530 5
15.410000 0.391700 0
15.415000 0.382195 0
15.420000 0.367302 0
15.425000 0.347478 0
15.430000 0.323324 0
15.435000 0.295560 0
15.440000 0.264982 0
15.445000 0.232429 0
15.450000 0.198742 0
15.455000 0.164731 0
15.460000 0.131142 0
15.465000 0.098631 0
15.470000 0.067751 0
15.475000 0.038937 0
15.480000 0.012505 0
15.485000 -0.011344 0
15.490000 -0.032518 0
15.495000 -0.051018 0
15.500000 -0.066924 0
15.505000 -0.080379 0
15.510000 -0.091572 0
15.515000 -0.100720 0
15.520000 -0.108054 0
15.525000 -0.113811 0
15.530000 -0.118219 0
15.535000 -0.121493 0
15.540000 -0.123829 0
15.545000 -0.125028 0
15.550000 -0.124045 0
15.555000 -0.123067 0
15.560000 -0.122093 0
15.565000 -0.121124 0
15.570000 -0.120158 0
15.575000 -0.119196 0
15.580000 -0.118233 0
15.585000 -0.117267 0
15.590000 -0.116289 0
15.595000 -0.115286 0
15.600000 -0.114232 0
15.605000 -0.113088 0
15.610000 -0.111788 0
15.615000 -0.110230 0
15.620000 -0.108266 0
15.625000 -0.105680 0
15.630000 -0.102182 0
15.635000 -0.097395 0
15.640000 -0.090854 0
15.645000 -0.082030 0
15.650000 -0.070359 0
15.655000 -0.055309 0
15.660000 -0.036461 0
15.665000 -0.013616 0
15.670000 0.013106 0
15.675000 0.043174 0
15.680000 0.075591 0
15.685000 0.108902 0
15.690000 0.141274 0
15.695000 0.170642 0
15.700000 0.194922 0
15.705000 0.212251 0
15.710000 0.221228 1
15.715000 0.221094 0
15.720000 0.211844 0
15.725000 0.194229 0
15.730000 0.169651 0
15.735000 0.139983 0
15.740000 0.107308 0
15.745000 0.073600 0
15.750000 0.040276 0
15.755000 0.007487 0
15.760000 -0.026768 0
15.765000 -0.066932 0
15.770000 -0.117900 0
15.775000 -0.179630 0
15.780000 -0.240631 0
15.785000 -0.275858 2
15.790000 -0.252115 0
15.795000 -0.137627 0
15.800000 0.087224 0
15.805000 0.413405 0
15.810000 0.781789 0
15.815000 1.081147 0
15.820000 1.193062 3
15.825000 1.065690 0
15.830000 0.748972 0
15.835000 0.358864 0
15.840000 0.007914 0
15.845000 -0.237885 0
15.850000 -0.360025 0
15.855000 -0.372517 4
15.860000 -0.309982 0
15.865000 -0.215288 0
15.870000 -0.123766 0
15.875000 -0.052591 0
15.880000 -0.002114 0
15.885000 0.035209 0
15.890000 0.066924 0
15.895000 0.097527 0
15.900000 0.128798 0
15.905000 0.161014 0
15.910000 0.193807 0
15.915000 0.226551 0
15.920000 0.258503 0
15.925000 0.288867 0
15.930000 0.316825 0
15.935000 0.341575 0
15.940000 0.362372 0
15.945000 0.378562 0
15.950000 0.389614 0
15.955000 0.395152 5
15.960000 0.394972 0
15.965000 0.389057 0
15.970000 0.377574 0
15.975000 0.360871 0
15.980000 0.339455 0
15.985000 0.313967 0
15.990000 0.285150 0
15.995000 0.253814 0
16.000000 0.220793 0
16.005000 0.186917 0
16.010000 0.152968 0
16.015000 0.119661 0
16.020000 0.087615 0
16.025000 0.057341 0
16.030000 0.029234 0
16.035000 0.003572 0
16.040000 -0.019480 0
16.045000 -0.039859 0
16.050000 -0.057591 0
16.055000 -0.072776 0
16.060000 -0.085570 0
16.065000 -0.096169 0
16.070000 -0.104793 0
16.075000 -0.111675 0
16.080000 -0.117048 0
16.085000 -0.121135 0
16.090000 -0.124144 0
16.095000 -0.126264 0
16.100000 -0.125727 0
16.105000 -0.124740 0
16.110000 -0.123758 0
16.115000 -0.122781 0
16.120000 -0.121808 0
16.125000 -0.120839 0
16.130000 -0.119872 0
16.135000 -0.118905 0
16.140000 -0.117933 0
16.145000 -0.116947 0
16.150000 -0.115932 0
16.155000 -0.114860 0
16.160000 -0.113688 0
16.165000 -0.112345 0
16.170000 -0.110722 0
16.175000 -0.108661 0
16.180000 -0.105937 0
16.185000 -0.102248 0
16.190000 -0.097203 0
16.195000 -0.090332 0
16.200000 -0.081100 0
16.205000 -0.068949 0
16.210000 -0.053363 0
16.215000 -0.033953 0
16.220000 -0.010558 0
16.225000 0.016651 0
16.230000 0.047087 0
16.235000 0.079703 0
16.240000 0.113005 0
16.245000 0.145138 0
16.250000 0.174042 0
16.255000 0.197664 0
16.260000 0.214195 0
16.265000 0.222303 1
16.270000 0.221307 0
16.275000 0.211272 0
16.280000 0.193006 0
16.285000 0.167947 0
16.290000 0.137977 0
16.295000 0.105166 0
16.300000 0.071448 0
16.305000 0.038171 0
16.310000 0.005378 0
16.315000 -0.029057 0
16.320000 -0.069641 0
16.325000 -0.121144 0
16.330000 -0.183156 0
16.335000 -0.243750 0
16.340000 -0.277678 2
16.345000 -0.251927 0
16.350000 -0.135161 0
16.355000 0.091662 0
16.360000 0.418920 0
16.365000 0.787273 0
16.370000 1.086098 0
16.375000 1.198067 3
16.380000 1.071113 0
16.385000 0.754672 0
16.390000 0.364566 0
16.395000 0.013364 0
16.400000 -0.232833 0
16.405000 -0.355405 0
16.410000 -0.368268 4
16.415000 -0.305967 0
16.420000 -0.211345 0
16.425000 -0.119777 0
16.430000 -0.048514 0
16.435000 0.002031 0
16.440000 0.039381 0
16.445000 0.071090 0
16.450000 0.101671 0
16.455000 0.132914 0
16.460000 0.165103 0
16.465000 0.197873 0
16.470000 0.230598 0
16.475000 0.262538 0
16.480000 0.292896 0
16.485000 0.320855 0
16.490000 0.345614 0
16.495000 0.366427 0
16.500000 0.382640 0
16.505000 0.393721 0
16.510000 0.399291 5
16.515000 0.399147 0
16.520000 0.393268 0
16.525000 0.381822 0
16.530000 0.365151 0
16.535000 0.343763 0
16.540000 0.318297 0
16.545000 0.289495 0
16.550000 0.258163 0
16.555000 0.225139 0
16.560000 0.191249 0
16.565000 0.157277 0
16.570000 0.123937 0
16.575000 0.091852 0
16.580000 0.061531 0
16.585000 0.033373 0
16.590000 0.007657 0
16.595000 -0.015452 0
16.600000 -0.035889 0
16.605000 -0.053679 0
16.610000 -0.068921 0
16.615000 -0.081769 0
16.620000 -0.092419 0
16.625000 -0.101091 0
16.630000 -0.108018 0
16.635000 -0.113432 0
16.640000 -0.117557 0
16.645000 -0.120601 0
16.650000 -0.122753 0
16.655000 -0.123831 0
16.660000 -0.122854 0
16.665000 -0.121881 0
16.670000 -0.120913 0
16.675000 -0.119950 0
16.680000 -0.118990 0
16.685000 -0.118032 0
16.690000 -0.117075 0
16.695000 -0.116112 0
16.700000 -0.115135 0
16.705000 -0.114130 0
16.710000 -0.113069 0
16.715000 -0.111909 0
16.720000 -0.110579 0
16.725000 -0.108973 0
16.730000 -0.106933 0
16.735000 -0.104237 0
16.740000 -0.100582 0
16.745000 -0.095583 0
16.750000 -0.088769 0
16.755000 -0.079609 0
16.760000 -0.067544 0
16.765000 -0.052056 0
16.770000 -0.032752 0
16.775000 -0.009465 0
16.780000 0.017644 0
16.785000 0.048000 0
16.790000 0.080568 0
16.795000 0.113866 0
16.800000 0.146047 0
16.805000 0.175057 0
16.810000 0.198838 0
16.815000 0.215575 0
16.820000 0.223920 1
16.825000 0.223172 0
16.830000 0.213377 0
16.835000 0.195320 0
16.840000 0.170424 0
16.845000 0.140559 0
16.850000 0.107794 0
16.855000 0.074071 0
16.860000 0.040763 0
16.865000 0.007966 0
16.870000 -0.026369 0
16.875000 -0.066691 0
16.880000 -0.117823 0
16.885000 -0.179621 0
16.890000 -0.240593 0
16.895000 -0.275878 2
16.900000 -0.252590 0
16.905000 -0.139204 0
16.910000 0.083926 0
16.915000 0.408474 0
16.920000 0.777015 0
16.925000 1.080261 0
16.930000 1.200000 3
16.935000 1.078720 0
16.940000 0.763712 0
16.945000 0.373635 0
16.950000 0.024066 0
16.955000 -0.217988 0
16.960000 -0.334710 0
16.965000 -0.341690 4
16.970000 -0.275435 0
16.975000 -0.179984 0
16.980000 -0.090267 0
16.985000 -0.021894 0
16.990000 0.026229 0
16.995000 0.062208 0
17.000000 0.093420 0
17.005000 0.123966 0
17.010000 0.155322 0
17.015000 0.187599 0
17.020000 0.220343 0
17.025000 0.252875 0
17.030000 0.284416 0
17.035000 0.314135 0
17.040000 0.341192 0
17.045000 0.364774 0
17.050000 0.384138 0
17.055000 0.398645 0
17.060000 0.407797 0
17.065000 0.411265 5
17.070000 0.408905 0
17.075000 0.400768 0
17.080000 0.387098 0
17.085000 0.368321 0
17.090000 0.345017 0
17.095000 0.317896 0
17.100000 0.287755 0
17.105000 0.255445 0
17.110000 0.221825 0
17.115000 0.187731 0
17.120000 0.153936 0
17.125000 0.121128 0
17.130000 0.089887 0
17.135000 0.060677 0
17.140000 0.033835 0
17.145000 0.009582 0
17.150000 -0.011975 0
17.155000 -0.030827 0
17.160000 -0.047051 0
17.165000 -0.060785 0
17.170000 -0.072220 0
17.175000 -0.081574 0
17.180000 -0.089084 0
17.185000 -0.094991 0
17.190000 -0.099528 0
17.195000 -0.102914 0
17.200000 -0.105349 0
17.205000 -0.106640 0
17.210000 -0.105749 0
17.215000 -0.104862 0
17.220000 -0.103979 0
17.225000 -0.103100 0
17.230000 -0.102224 0
17.235000 -0.101351 0
17.240000 -0.100477 0
17.245000 -0.099598 0
17.250000 -0.098706 0
17.255000 -0.097786 0
17.260000 -0.096812 0
17.265000 -0.095739 0
17.270000 -0.094497 0
17.275000 -0.092977 0
17.280000 -0.091019 0
17.285000 -0.088392 0
17.290000 -0.084785 0
17.295000 -0.079798 0
17.300000 -0.072944 0
17.305000 -0.063672 0
17.310000 -0.051408 0
17.315000 -0.035625 0
17.320000 -0.015937 0
17.325000 0.007794 0
17.330000 0.035351 0
17.335000 0.066075 0
17.340000 0.098824 0
17.345000 0.131999 0
17.350000 0.163644 0
17.355000 0.191624 0
17.360000 0.213855 0
17.365000 0.228559 0
17.370000 0.234499 1
17.375000 0.231151 0
17.380000 0.218776 0
17.385000 0.198390 0
17.390000 0.171624 0
17.395000 0.140498 0
17.400000 0.107138 0
17.405000 0.073400 0
17.410000 0.040312 0
17.415000 0.007228 0
17.420000 -0.028998 0
17.425000 -0.073541 0
17.430000 -0.130002 0
17.435000 -0.193745 0
17.440000 -0.246463 0
17.445000 -0.257625 2
17.450000 -0.192813 0
17.455000 -0.024175 0
17.460000 0.256272 0
17.465000 0.615464 0
17.470000 0.962950 0
17.475000 1.172777 3
17.480000 1.152312 0
17.485000 0.905966 0
17.490000 0.531395 0
17.495000 0.153577 0
17.500000 -0.138065 0
17.505000 -0.306942 0
17.510000 -0.356442 4
17.515000 -0.315628 0
17.520000 -0.227288 0
17.525000 -0.132022 0
17.530000 -0.053965 0
17.535000 0.001937 0
17.540000 0.042034 0
17.545000 0.074601 0
17.550000 0.105157 0
17.555000 0.136129 0
17.560000 0.168076 0
17.565000 0.200723 0
17.570000 0.233465 0
17.575000 0.265558 0
17.580000 0.296189 0
17.585000 0.324519 0
17.590000 0.349720 0
17.595000 0.371015 0
17.600000 0.387715 0
17.605000 0.399261 0
17.610000 0.405246 0
17.615000 0.405446 5
17.620000 0.399826 0
17.625000 0.388548 0
17.630000 0.371960 0
17.635000 0.350578 0
17.640000 0.325058 0
17.645000 0.296162 0
17.650000 0.264723 0
17.655000 0.231599 0
17.660000 0.197639 0
17.665000 0.163648 0
17.670000 0.130351 0
17.675000 0.098379 0
17.680000 0.068246 0
17.685000 0.040345 0
17.690000 0.014949 0
17.695000 -0.007788 0
17.700000 -0.027815 0
17.705000 -0.045173 0
17.710000 -0.059973 0
17.715000 -0.072386 0
17.720000 -0.082619 0
17.725000 -0.090902 0
17.730000 -0.097475 0
17.735000 -0.102576 0
17.740000 -0.106430 0
17.745000 -0.109246 0
17.750000 -0.111213 0
17.755000 -0.110716 0
17.760000 -0.109804 0
17.765000 -0.108897 0
17.770000 -0.107994 0
17.775000 -0.107094 0
17.780000 -0.106198 0
17.785000 -0.105302 0
17.790000 -0.104404 0
17.795000 -0.103498 0
17.800000 -0.102572 0
17.805000 -0.101605 0
17.810000 -0.100562 0
17.815000 -0.099387 0
17.820000 -0.097991 0
17.825000 -0.096239 0
17.830000 -0.093933 0
17.835000 -0.090804 0
17.840000 -0.086493 0
17.845000 -0.080552 0
17.850000 -0.072457 0
17.855000 -0.061639 0
17.860000 -0.047538 0
17.865000 -0.029692 0
17.870000 -0.007832 0
17.875000 0.018003 0
17.880000 0.047371 0
17.885000 0.079359 0
17.890000 0.112578 0
17.895000 0.145224 0
17.900000 0.175224 0
17.905000 0.200441 0
17.910000 0.218924 0
17.915000 0.229155 0
17.920000 0.230256 1
17.925000 0.222114 0
17.930000 0.205395 0
17.935000 0.181459 0
17.940000 0.152169 0
17.945000 0.119638 0
17.950000 0.085904 0
17.955000 0.052477 0
17.960000 0.019635 0
17.965000 -0.014499 0
17.970000 -0.054336 0
17.975000 -0.104921 0
17.980000 -0.166501 0
17.985000 -0.227733 0
17.990000 -0.263328 2
17.995000 -0.239524 0
18.000000 -0.123977 0
18.005000 0.103057 0
18.010000 0.431512 0
18.015000 0.799440 0
18.020000 1.092181 0
18.025000 1.190818 3
18.030000 1.046259 0
18.035000 0.716878 0
18.040000 0.326383 0
18.045000 -0.012202 0
18.050000 -0.237662 0
18.055000 -0.337303 4
18.060000 -0.330651 0
18.065000 -0.256930 0
18.070000 -0.160512 0
18.075000 -0.073994 0
18.080000 -0.009764 0
18.085000 0.035354 0
18.090000 0.069888 0
18.095000 0.100728 0
18.100000 0.131385 0
18.105000 0.162964 0
18.110000 0.195400 0
18.115000 0.228160 0
18.120000 0.260522 0
18.125000 0.291677 0
18.130000 0.320774 0
18.135000 0.346963 0
18.140000 0.369432 0
18.145000 0.387453 0
18.150000 0.400413 0
18.155000 0.407856 0
18.160000 0.409502 5
18.165000 0.405267 0
18.170000 0.395268 0
18.175000 0.379814 0
18.180000 0.359395 0
18.185000 0.334650 0
18.190000 0.306337 0
18.195000 0.275290 0
18.200000 0.242382 0
18.205000 0.208482 0
18.210000 0.174418 0
18.215000 0.140945 0
18.220000 0.108718 0
18.225000 0.078281 0
18.230000 0.050050 0
18.235000 0.024317 0
18.240000 0.001254 0
18.245000 -0.019076 0
18.250000 -0.036706 0
18.255000 -0.051745 0
18.260000 -0.064360 0
18.265000 -0.074762 0
18.270000 -0.083182 0
18.275000 -0.089865 0
18.280000 -0.095053 0
18.285000 -0.098976 0
18.290000 -0.101847 0
18.295000 -0.103858 0
18.300000 -0.103399 0
18.305000 -0.102523 0
18.310000 -0.101652 0
18.315000 -0.100785 0
18.320000 -0.099922 0
18.325000 -0.099061 0
18.330000 -0.098201 0
18.335000 -0.097338 0
18.340000 -0.096465 0
18.345000 -0.095571 0
18.350000 -0.094634 0
18.355000 -0.093615 0
18.360000 -0.092456 0
18.365000 -0.091061 0
18.370000 -0.089285 0
18.375000 -0.086921 0
18.380000 -0.083680 0
18.385000 -0.079186 0
18.390000 -0.072970 0
18.395000 -0.064487 0
18.400000 -0.053156 0
18.405000 -0.038417 0
18.410000 -0.019828 0
18.415000 0.002831 0
18.420000 0.029445 0
18.425000 0.059465 0
18.430000 0.091853 0
18.435000 0.125088 0
18.440000 0.157252 0
18.445000 0.186198 0
18.450000 0.209774 0
18.455000 0.226088 0
18.460000 0.233758 1
18.465000 0.232103 0
18.470000 0.221242 0
18.475000 0.202084 0
18.480000 0.176193 0
18.485000 0.145580 0
18.490000 0.112409 0
18.495000 0.078634 0
18.500000 0.045452 0
18.505000 0.012467 0
18.510000 -0.023204 0
18.515000 -0.066702 0
18.520000 -0.122105 0
18.525000 -0.185740 0
18.530000 -0.240214 0
18.535000 -0.255196 2
18.540000 -0.195658 0
18.545000 -0.032609 0
18.550000 0.243472 0
18.555000 0.601131 0
18.560000 0.950340 0
18.565000 1.163400 3
18.570000 1.142907 0
18.575000 0.892710 0
18.580000 0.515734 0
18.585000 0.141467 0
18.590000 -0.140393 0
18.595000 -0.295851 0
18.600000 -0.331839 4
18.605000 -0.281200 0
18.610000 -0.189283 0
18.615000 -0.096234 0
18.620000 -0.023148 0
18.625000 0.028188 0
18.630000 0.065569 0
18.635000 0.097109 0
18.640000 0.127582 0
18.645000 0.158799 0
18.650000 0.190981 0
18.655000 0.223686 0
18.660000 0.256217 0
18.665000 0.287766 0
18.670000 0.317468 0
18.675000 0.344448 0
18.680000 0.367859 0
18.685000 0.386931 0
18.690000 0.401006 0
18.695000 0.409578 0
18.700000 0.412323 5
18.705000 0.409115 0
18.710000 0.400037 0
18.715000 0.385374 0
18.720000 0.365601 0
18.725000 0.341353 0
18.730000 0.313393 0
18.735000 0.282569 0
18.740000 0.249773 0
18.745000 0.215897 0
18.750000 0.181795 0
18.755000 0.148245 0
18.760000 0.115927 0
18.765000 0.085400 0
18.770000 0.057098 0
18.775000 0.031320 0
18.780000 0.008244 0
18.785000 -0.012068 0
18.790000 -0.029648 0
18.795000 -0.044612 0
18.800000 -0.057133 0
18.805000 -0.067428 0
18.810000 -0.075736 0
18.815000 -0.082308 0
18.820000 -0.087390 0
18.825000 -0.091218 0
18.830000 -0.094006 0
18.835000 -0.095949 0
18.840000 -0.095511 0
18.845000 -0.094675 0
18.850000 -0.093843 0
18.855000 -0.093015 0
18.860000 -0.092190 0
18.865000 -0.091367 0
18.870000 -0.090544 0
18.875000 -0.089717 0
18.880000 -0.088877 0
18.885000 -0.088011 0
18.890000 -0.087092 0
18.895000 -0.086076 0
18.900000 -0.084892 0
18.905000 -0.083430 0
18.910000 -0.081522 0
18.915000 -0.078929 0
18.920000 -0.075326 0
18.925000 -0.070292 0
18.930000 -0.063316 0
18.935000 -0.053819 0
18.940000 -0.041204 0
18.945000 -0.024936 0
18.950000 -0.004640 0
18.955000 0.019774 0
18.960000 0.048003 0
18.965000 0.079261 0
18.970000 0.112247 0
18.975000 0.145192 0
18.980000 0.175991 0
18.985000 0.202407 0
18.990000 0.222340 0
18.995000 0.234098 0
19.000000 0.236633 1
19.005000 0.229696 0
19.010000 0.213873 0
19.015000 0.190506 0
19.020000 0.161498 0
19.025000 0.129044 0
19.030000 0.095281 0
19.035000 0.061804 0
19.040000 0.028910 0
19.045000 -0.005398 0
19.050000 -0.045791 0
19.055000 -0.097402 0
19.060000 -0.159736 0
19.065000 -0.219479 0
19.070000 -0.248760 2
19.075000 -0.211955 0
19.080000 -0.076658 0
19.085000 0.173518 0
19.090000 0.518482 0
19.095000 0.879564 0
19.100000 1.129595 0
19.105000 1.157721 3
19.110000 0.947140 0
19.115000 0.585204 0
19.120000 0.200945 0
19.125000 -0.105823 0
19.130000 -0.290386 0
19.135000 -0.351989 4
19.140000 -0.318144 0
19.145000 -0.232081 0
19.150000 -0.136332 0
19.155000 -0.057096 0
19.160000 -0.000396 0
19.165000 0.040005 0
19.170000 0.072632 0
19.175000 0.103200 0
19.180000 0.134200 0
19.185000 0.166191 0
19.190000 0.198873 0
19.195000 0.231616 0
19.200000 0.263649 0
19.205000 0.294134 0
19.210000 0.322206 0
19.215000 0.347018 0
19.220000 0.367778 0
19.225000 0.383793 0
19.230000 0.394509 0
19.235000 0.399536 5
19.240000 0.398676 0
19.245000 0.391930 0
19.250000 0.379504 0
19.255000 0.361795 0
19.260000 0.339368 0
19.265000 0.312928 0
19.270000 0.283281 0
19.275000 0.251293 0
19.280000 0.217850 0
19.285000 0.183814 0
19.290000 0.149989 0
19.295000 0.117092 0
19.300000 0.085731 0
19.305000 0.056393 0
19.310000 0.029434 0
19.315000 0.005088 0
19.320000 -0.016530 0
19.325000 -0.035408 0
19.330000 -0.051622 0
19.335000 -0.065315 0
19.340000 -0.076680 0
19.345000 -0.085946 0
19.350000 -0.093353 0
19.355000 -0.099149 0
19.360000 -0.103573 0
19.365000 -0.106849 0
19.370000 -0.109179 0
19.375000 -0.110386 0
19.380000 -0.109476 0
19.385000 -0.108570 0
19.390000 -0.107668 0
19.395000 -0.106771 0
19.400000 -0.105877 0
19.405000 -0.104984 0
19.410000 -0.104091 0
19.415000 -0.103191 0
19.420000 -0.102276 0
19.425000 -0.101326 0
19.430000 -0.100311 0
19.435000 -0.099181 0
19.440000 -0.097853 0
19.445000 -0.096201 0
19.450000 -0.094040 0
19.455000 -0.091108 0
19.460000 -0.087056 0
19.465000 -0.081442 0
19.470000 -0.073737 0
19.475000 -0.063361 0
19.480000 -0.049733 0
19.485000 -0.032357 0
19.490000 -0.010927 0
19.495000 0.014556 0
19.500000 0.043678 0
19.505000 0.075542 0
19.510000 0.108747 0
19.515000 0.141460 0
19.520000 0.171554 0
19.525000 0.196832 0
19.530000 0.215284 0
19.535000 0.225353 0
19.540000 0.226153 1
19.545000 0.217593 0
19.550000 0.200395 0
19.555000 0.175995 0
19.560000 0.146339 0
19.565000 0.113605 0
19.570000 0.079857 0
19.575000 0.046537 0
19.580000 0.013688 0
19.585000 -0.021015 0
19.590000 -0.062428 0
19.595000 -0.115352 0
19.600000 -0.178241 0
19.605000 -0.236443 0
19.610000 -0.261341 2
19.615000 -0.217634 0
19.620000 -0.074107 0
19.625000 0.183592 0
19.630000 0.532420 0
19.635000 0.891183 0
19.640000 1.133254 0
19.645000 1.151934 3
19.650000 0.933283 0
19.655000 0.567655 0
19.660000 0.185387 0
19.665000 -0.115260 0
19.670000 -0.291996 0
19.675000 -0.346177 4
19.680000 -0.307068 0
19.685000 -0.218911 0
19.690000 -0.123866 0
19.695000 -0.046665 0
19.700000 0.008118 0
19.705000 0.047373 0
19.710000 0.079563 0
19.715000 0.110086 0
19.720000 0.141180 0
19.725000 0.173264 0
19.730000 0.205978 0
19.735000 0.238659 0
19.740000 0.270517 0
19.745000 0.300696 0
19.750000 0.328325 0
19.755000 0.352549 0
19.760000 0.372584 0
19.765000 0.387748 0
19.770000 0.397506 0
19.775000 0.401495 5
19.780000 0.399550 0
19.785000 0.391710 0
19.790000 0.378221 0
19.795000 0.359517 0
19.800000 0.336202 0
19.805000 0.309011 0
19.810000 0.278777 0
19.815000 0.246382 0
19.820000 0.212719 0
19.825000 0.178649 0
19.830000 0.144969 0
19.835000 0.112377 0
19.840000 0.081461 0
19.845000 0.052680 0
19.850000 0.026362 0
19.855000 0.002712 0
19.860000 -0.018183 0
19.865000 -0.036337 0
19.870000 -0.051846 0
19.875000 -0.064871 0
19.880000 -0.075620 0
19.885000 -0.084328 0
19.890000 -0.091243 0
19.895000 -0.096612 0
19.900000 -0.100673 0
19.905000 -0.103646 0
19.910000 -0.105730 0
19.915000 -0.105273 0
19.920000 -0.104388 0
19.925000 -0.103508 0
19.930000 -0.102631 0
19.935000 -0.101758 0
19.940000 -0.100889 0
19.945000 -0.100019 0
19.950000 -0.099148 0
19.955000 -0.098267 0
19.960000 -0.097363 0
19.965000 -0.096416 0
19.970000 -0.095386 0
19.975000 -0.094212 0
19.980000 -0.092794 0
19.985000 -0.090984 0
19.990000 -0.088563 0
19.995000 -0.085233 0
20.000000 -0.080601 0
20.005000 -0.074181 0
20.010000 -0.065410 0
20.015000 -0.053694 0
20.020000 -0.038470 0
20.025000 -0.019309 0
20.030000 0.003972 0
20.035000 0.031196 0
20.040000 0.061723 0
20.045000 0.094407 0
20.050000 0.127613 0
20.055000 0.159320 0
20.060000 0.187314 0
20.065000 0.209432 0
20.070000 0.223839 0
20.075000 0.229275 1
20.080000 0.225241 0
20.085000 0.212071 0
20.090000 0.190887 0
20.095000 0.163439 0
20.100000 0.131857 0
20.105000 0.098333 0
20.110000 0.064691 0
20.115000 0.031739 0
20.120000 -0.001690 0
20.125000 -0.039471 0
20.130000 -0.087054 0
20.135000 -0.146602 0
20.140000 -0.209570 0
20.145000 -0.252539 2
20.150000 -0.241397 0
20.155000 -0.141540 0
20.160000 0.070402 0
20.165000 0.389317 0
20.170000 0.757643 0
20.175000 1.060212 0
20.180000 1.171416 3
20.185000 1.036138 0
20.190000 0.710588 0
20.195000 0.320242 0
20.200000 -0.018767 0
20.205000 -0.243498 0
20.210000 -0.341137 4
20.215000 -0.332044 0
20.220000 -0.256654 0
20.225000 -0.160122 0
20.230000 -0.074804 0
20.235000 -0.012158 0
20.240000 0.031779 0
20.245000 0.065761 0
20.250000 0.096509 0
20.255000 0.127289 0
20.260000 0.159037 0
20.265000 0.191598 0
20.270000 0.224390 0
20.275000 0.256657 0
20.280000 0.287562 0
20.285000 0.316233 0
20.290000 0.341804 0
20.295000 0.363459 0
20.300000 0.380473 0
20.305000 0.392254 0
20.310000 0.398372 0
20.315000 0.398589 5
20.320000 0.392871 0
20.325000 0.381388 0
20.330000 0.364511 0
20.335000 0.342785 0
20.340000 0.316904 0
20.345000 0.287672 0
20.350000 0.255957 0
20.355000 0.222657 0
20.360000 0.188647 0
20.365000 0.154753 0
20.370000 0.121712 0
20.375000 0.090152 0
20.380000 0.060580 0
20.385000 0.033371 0
20.390000 0.008773 0
20.395000 -0.013088 0
20.400000 -0.032191 0
20.405000 -0.048605 0
20.410000 -0.062471 0
20.415000 -0.073984 0
20.420000 -0.083369 0
20.425000 -0.090873 0
20.430000 -0.096744 0
20.435000 -0.101226 0
20.440000 -0.104545 0
20.445000 -0.106908 0
20.450000 -0.108137 0
20.455000 -0.107239 0
20.460000 -0.106344 0
20.465000 -0.105454 0
20.470000 -0.104567 0
20.475000 -0.103684 0
20.480000 -0.102802 0
20.485000 -0.101920 0
20.490000 -0.101030 0
20.495000 -0.100124 0
20.500000 -0.099183 0
20.505000 -0.098175 0
20.510000 -0.097047 0
20.515000 -0.095714 0
20.520000 -0.094045 0
20.525000 -0.091848 0
20.530000 -0.088853 0
20.535000 -0.084699 0
20.540000 -0.078930 0
20.545000 -0.071005 0
20.550000 -0.060333 0
20.555000 -0.046332 0
20.560000 -0.028514 0
20.565000 -0.006600 0
20.570000 0.019365 0
20.575000 0.048904 0
20.580000 0.081040 0
20.585000 0.114292 0
20.590000 0.146749 0
20.595000 0.176233 0
20.600000 0.200532 0
20.605000 0.217670 0
20.610000 0.226171 1
20.615000 0.225271 0
20.620000 0.215028 0
20.625000 0.196319 0
20.630000 0.170713 0
20.635000 0.140250 0
20.640000 0.107142 0
20.645000 0.073395 0
20.650000 0.040240 0
20.655000 0.007266 0
20.660000 -0.028513 0
20.665000 -0.072373 0
20.670000 -0.128312 0
20.675000 -0.192007 0
20.680000 -0.244798 0
20.685000 -0.255035 2
20.690000 -0.187012 0
20.695000 -0.012274 0
20.700000 0.275700 0
20.705000 0.638390 0
20.710000 0.976656 0
20.715000 1.159699 3
20.720000 1.104489 0
20.725000 0.831885 0
20.730000 0.449318 0
20.735000 0.080560 0
20.740000 -0.192477 0
20.745000 -0.340473 0
20.750000 -0.371955 4
20.755000 -0.319520 0
20.760000 -0.227213 0
20.765000 -0.133836 0
20.770000 -0.059981 0
20.775000 -0.007707 0
20.780000 0.030391 0
20.785000 0.062312 0
20.790000 0.092930 0
20.795000 0.124196 0
20.800000 0.156428 0
20.805000 0.189248 0
20.810000 0.222006 0
20.815000 0.253929 0
20.820000 0.284188 0
20.825000 0.311935 0
20.830000 0.336342 0
20.835000 0.356643 0
20.840000 0.372174 0
20.845000 0.382404 0
20.850000 0.386970 5
20.855000 0.385696 0
20.860000 0.378598 0
20.865000 0.365894 0
20.870000 0.347984 0
20.875000 0.325430 0
20.880000 0.298931 0
20.885000 0.269281 0
20.890000 0.237331 0
20.895000 0.203949 0
20.900000 0.169983 0
20.905000 0.136221 0
20.910000 0.103369 0
20.915000 0.072026 0
20.920000 0.042673 0
20.925000 0.015665 0
20.930000 -0.008762 0
20.935000 -0.030490 0
20.940000 -0.049501 0
20.945000 -0.065863 0
20.950000 -0.079711 0
20.955000 -0.091233 0
20.960000 -0.100648 0
20.965000 -0.108193 0
20.970000 -0.114111 0
20.975000 -0.118637 0
20.980000 -0.121995 0
20.985000 -0.124387 0
20.990000 -0.125617 0
20.995000 -0.124631 0
21.000000 -0.123649 0
21.005000 -0.122673 0
21.010000 -0.121701 0
21.015000 -0.120732 0
21.020000 -0.119766 0
21.025000 -0.118801 0
21.030000 -0.117831 0
21.035000 -0.116849 0
21.040000 -0.115839 0
21.045000 -0.114775 0
21.050000 -0.113614 0
21.055000 -0.112284 0
21.060000 -0.110676 0
21.065000 -0.108627 0
21.070000 -0.105906 0
21.075000 -0.102198 0
21.080000 -0.097099 0
21.085000 -0.090116 0
21.090000 -0.080693 0
21.095000 -0.068252 0
21.100000 -0.052264 0
21.105000 -0.032346 0
21.110000 -0.008370 0
21.115000 0.019428 0
21.120000 0.050364 0
21.125000 0.083264 0
21.130000 0.116494 0
21.135000 0.148067 0
21.140000 0.175827 0
21.145000 0.197686 0
21.150000 0.211881 0
21.155000 0.217213 1
21.160000 0.213210 0
21.165000 0.200201 0
21.170000 0.179268 0
21.175000 0.152097 0
21.180000 0.120750 0
21.185000 0.087360 0
21.190000 0.053745 0
21.195000 0.020807 0
21.200000 -0.012345 0
21.205000 -0.049177 0
21.210000 -0.094978 0
21.215000 -0.152763 0
21.220000 -0.216342 0
21.225000 -0.265427 0
21.230000 -0.268153 2
21.235000 -0.190108 0
21.240000 -0.005073 0
21.245000 0.290496 0
21.250000 0.655193 0
21.255000 0.989646 0
21.260000 1.166866 3
21.265000 1.105578 0
21.270000 0.828296 0
21.275000 0.444453 0
21.280000 0.077797 0
21.285000 -0.191119 0
21.290000 -0.334436 0
21.295000 -0.361840 4
21.300000 -0.306824 0
21.305000 -0.213786 0
21.310000 -0.121092 0
21.315000 -0.048448 0
21.320000 0.002809 0
21.325000 0.040335 0
21.330000 0.072040 0
21.335000 0.102626 0
21.340000 0.133916 0
21.345000 0.166165 0
21.350000 0.198966 0
21.355000 0.231654 0
21.360000 0.263446 0
21.365000 0.293507 0
21.370000 0.320983 0
21.375000 0.345047 0
21.380000 0.364935 0
21.385000 0.379989 0
21.390000 0.389690 0
21.395000 0.393689 5
21.400000 0.391824 0
21.405000 0.384135 0
21.410000 0.370856 0
21.415000 0.352407 0
21.420000 0.329370 0
21.425000 0.302459 0
21.430000 0.272479 0
21.435000 0.240290 0
21.440000 0.206764 0
21.445000 0.172748 0
21.450000 0.139027 0
21.455000 0.106296 0
21.460000 0.075146 0
21.465000 0.046043 0
21.470000 0.019328 0
21.475000 -0.004777 0
21.480000 -0.026169 0
21.485000 -0.044840 0
21.490000 -0.060872 0
21.495000 -0.074407 0
21.500000 -0.085641 0
21.505000 -0.094796 0
21.510000 -0.102114 0
21.515000 -0.107836 0
21.520000 -0.112200 0
21.525000 -0.115425 0
21.530000 -0.117713 0
21.535000 -0.118880 0
21.540000 -0.117928 0
21.545000 -0.116980 0
21.550000 -0.116036 0
21.555000 -0.115097 0
21.560000 -0.114162 0
21.565000 -0.113228 0
21.570000 -0.112294 0
21.575000 -0.111354 0
21.580000 -0.110400 0
21.585000 -0.109413 0
21.590000 -0.108366 0
21.595000 -0.107208 0
21.600000 -0.105864 0
21.605000 -0.104213 0
21.610000 -0.102078 0
21.615000 -0.099211 0
21.620000 -0.095279 0
21.625000 -0.089853 0
21.630000 -0.082425 0
21.635000 -0.072424 0
21.640000 -0.059273 0
21.645000 -0.042465 0
21.650000 -0.021662 0
21.655000 0.003192 0
21.660000 0.031763 0
21.665000 0.063253 0
21.670000 0.096366 0
21.675000 0.129366 0
21.680000 0.160194 0
21.685000 0.186677 0
21.690000 0.206772 0
21.695000 0.218826 0
21.700000 0.221803 1
21.705000 0.215429 0
21.710000 0.200235 0
21.715000 0.177482 0
21.720000 0.148988 0
21.725000 0.116874 0
21.730000 0.083247 0
21.735000 0.049757 0
21.740000 0.016924 0
21.745000 -0.016807 0
21.750000 -0.055611 0
21.755000 -0.104747 0
21.760000 -0.165388 0
21.765000 -0.227553 0
21.770000 -0.266901 2
21.775000 -0.249598 0
21.780000 -0.142299 0
21.785000 0.076540 0
21.790000 0.399634 0
21.795000 0.768002 0
21.800000 1.067652 0
21.805000 1.176426 3
21.810000 1.042005 0
21.815000 0.719320 0
21.820000 0.328909 0
21.825000 -0.015613 0
21.830000 -0.250344 0
21.835000 -0.359834 0
21.840000 -0.361221 4
21.845000 -0.291904 0
21.850000 -0.195874 0
21.855000 -0.107095 0
21.860000 -0.039993 0
21.865000 0.007246 0
21.870000 0.042859 0
21.875000 0.074051 0
21.880000 0.104730 0
21.885000 0.136254 0
21.890000 0.168682 0
21.895000 0.201539 0
21.900000 0.234136 0
21.905000 0.265690 0
21.910000 0.295366 0
21.915000 0.322325 0
21.920000 0.345757 0
21.925000 0.364922 0
21.930000 0.379192 0
21.935000 0.388077 0
21.940000 0.391260 5
21.945000 0.388609 0
21.950000 0.380189 0
21.955000 0.366258 0
21.960000 0.347251 0
21.965000 0.323760 0
21.970000 0.296501 0
21.975000 0.266279 0
21.980000 0.233946 0
21.985000 0.200363 0
21.990000 0.166360 0
21.995000 0.132708 0
22.000000 0.100088 0
22.005000 0.069072 0
22.010000 0.040115 0
22.015000 0.013547 0
22.020000 -0.010421 0
22.025000 -0.031688 0
22.030000 -0.050254 0
22.035000 -0.066198 0
22.040000 -0.079665 0
22.045000 -0.090847 0
22.050000 -0.099966 0
22.055000 -0.107259 0
22.060000 -0.112966 0
22.065000 -0.117320 0
22.070000 -0.120539 0
22.075000 -0.122822 0
22.080000 -0.123982 0
22.085000 -0.123004 0
22.090000 -0.122031 0
22.095000 -0.121062 0
22.100000 -0.120098 0
22.105000 -0.119137 0
22.110000 -0.118179 0
22.115000 -0.117221 0
22.120000 -0.116258 0
22.125000 -0.115281 0
22.130000 -0.114275 0
22.135000 -0.113211 0
22.140000 -0.112045 0
22.145000 -0.110704 0
22.150000 -0.109074 0
22.155000 -0.106988 0
22.160000 -0.104212 0
22.165000 -0.100427 0
22.170000 -0.095223 0
22.175000 -0.088108 0
22.180000 -0.078526 0
22.185000 -0.065903 0
22.190000 -0.049720 0
22.195000 -0.029608 0
22.200000 -0.005456 0
22.205000 0.022485 0
22.210000 0.053514 0
22.215000 0.086447 0
22.220000 0.119646 0
22.225000 0.151131 0
22.230000 0.178759 0
22.235000 0.200462 0
22.240000 0.214501 0
22.245000 0.219694 1
22.250000 0.215586 0
22.255000 0.202509 0
22.260000 0.181544 0
22.265000 0.154366 0
22.270000 0.123021 0
22.275000 0.089629 0
22.280000 0.055998 0
22.285000 0.023043 0
22.290000 -0.010088 0
22.295000 -0.046787 0
22.300000 -0.092296 0
22.305000 -0.149757 0
22.310000 -0.213400 0
22.315000 -0.263555 0
22.320000 -0.268873 2
22.325000 -0.195081 0
22.330000 -0.015526 0
22.335000 0.274866 0
22.340000 0.637850 0
22.345000 0.977652 0
22.350000 1.167950 3
22.355000 1.124350 0
22.360000 0.862828 0
22.365000 0.484047 0
22.370000 0.109392 0
22.375000 -0.176786 0
22.380000 -0.341022 0
22.385000 -0.387769 4
22.390000 -0.345913 0
22.395000 -0.257372 0
22.400000 -0.161842 0
22.405000 -0.083126 0
22.410000 -0.026398 0
22.415000 0.014361 0
22.420000 0.047304 0
22.425000 0.078014 0
22.430000 0.109036 0
22.435000 0.141017 0
22.440000 0.173734 0
22.445000 0.206618 0
22.450000 0.238952 0
22.455000 0.269951 0
22.460000 0.298794 0
22.465000 0.324669 0
22.470000 0.346806 0
22.475000 0.364516 0
22.480000 0.377225 0
22.485000 0.384506 0
22.490000 0.386101 5
22.495000 0.381934 0
22.500000 0.372119 0
22.505000 0.356953 0
22.510000 0.336901 0
22.515000 0.312569 0
22.520000 0.284677 0
22.525000 0.254023 0
22.530000 0.221442 0
22.535000 0.187769 0
22.540000 0.153809 0
22.545000 0.120299 0
22.550000 0.087890 0
22.555000 0.057126 0
22.560000 0.028436 0
22.565000 0.002132 0
22.570000 -0.021593 0
22.575000 -0.042647 0
22.580000 -0.061035 0
22.585000 -0.076838 0
22.590000 -0.090201 0
22.595000 -0.101310 0
22.600000 -0.110382 0
22.605000 -0.117650 0
22.610000 -0.123346 0
22.615000 -0.127699 0
22.620000 -0.130922 0
22.625000 -0.133209 0
22.630000 -0.134362 0
22.635000 -0.133332 0
22.640000 -0.132308 0
22.645000 -0.131288 0
22.650000 -0.130273 0
22.655000 -0.129262 0
22.660000 -0.128253 0
22.665000 -0.127246 0
22.670000 -0.126235 0
22.675000 -0.125213 0
22.680000 -0.124166 0
22.685000 -0.123070 0
22.690000 -0.121886 0
22.695000 -0.120549 0
22.700000 -0.118959 0
22.705000 -0.116971 0
22.710000 -0.114374 0
22.715000 -0.110880 0
22.720000 -0.106119 0
22.725000 -0.099634 0
22.730000 -0.090899 0
22.735000 -0.079354 0
22.740000 -0.064466 0
22.745000 -0.045809 0
22.750000 -0.023169 0
22.755000 0.003357 0
22.760000 0.033268 0
22.765000 0.065603 0
22.770000 0.098946 0
22.775000 0.131495 0
22.780000 0.161204 0
22.785000 0.185994 0
22.790000 0.203986 0
22.795000 0.213738 0
22.800000 0.214438 1
22.805000 0.206014 0
22.810000 0.189149 0
22.815000 0.165187 0
22.820000 0.135955 0
22.825000 0.103520 0
22.830000 0.069874 0
22.835000 0.036510 0
22.840000 0.003751 0
22.845000 -0.030129 0
22.850000 -0.069327 0
22.855000 -0.118873 0
22.860000 -0.179638 0
22.865000 -0.241764 0
22.870000 -0.281786 2
22.875000 -0.267181 0
22.880000 -0.165608 0
22.885000 0.044715 0
22.890000 0.359720 0
22.895000 0.728041 0
22.900000 1.044458 0
22.905000 1.187839 3
22.910000 1.092394 0
22.915000 0.793889 0
22.920000 0.405952 0
22.925000 0.046980 0
22.930000 -0.210028 0
22.935000 -0.342220 0
22.940000 -0.361662 4
22.945000 -0.302554 0
22.950000 -0.208591 0
22.955000 -0.116567 0
22.960000 -0.044807 0
22.965000 0.005932 0
22.970000 0.043276 0
22.975000 0.074943 0
22.980000 0.105512 0
22.985000 0.136772 0
22.990000 0.168985 0
22.995000 0.201759 0
23.000000 0.234446 0
23.005000 0.266286 0
23.010000 0.296459 0
23.015000 0.324131 0
23.020000 0.348486 0
23.025000 0.368771 0
23.030000 0.384328 0
23.035000 0.394635 0
23.040000 0.399329 5
23.045000 0.398229 0
23.050000 0.391346 0
23.055000 0.378883 0
23.060000 0.361225 0
23.065000 0.338919 0
23.070000 0.312644 0
23.075000 0.283174 0
23.080000 0.251347 0
23.085000 0.218017 0
23.090000 0.184022 0
23.095000 0.150147 0
23.100000 0.117098 0
23.105000 0.085480 0
23.110000 0.055779 0
23.115000 0.028366 0
23.120000 0.003487 0
23.125000 -0.018724 0
23.130000 -0.038234 0
23.135000 -0.055096 0
23.140000 -0.069435 0
23.145000 -0.081427 0
23.150000 -0.091282 0
23.155000 -0.099233 0
23.160000 -0.105517 0
23.165000 -0.110370 0
23.170000 -0.114015 0
23.175000 -0.116655 0
23.180000 -0.118474 0
23.185000 -0.117925 0
23.190000 -0.116977 0
23.195000 -0.116034 0
23.200000 -0.115095 0
23.205000 -0.114160 0
23.210000 -0.113228 0
23.215000 -0.112297 0
23.220000 -0.111363 0
23.225000 -0.110420 0
23.230000 -0.109454 0
23.235000 -0.108446 0
23.240000 -0.107357 0
23.245000 -0.106128 0
23.250000 -0.104667 0
23.255000 -0.102832 0
23.260000 -0.100422 0
23.265000 -0.097159 0
23.270000 -0.092678 0
23.275000 -0.086526 0
23.280000 -0.078175 0
23.285000 -0.067057 0
23.290000 -0.052622 0
23.295000 -0.034421 0
23.300000 -0.012210 0
23.305000 0.013947 0
23.310000 0.043574 0
23.315000 0.075730 0
23.320000 0.109000 0
23.325000 0.141570 0
23.330000 0.171365 0
23.335000 0.196265 0
23.340000 0.214350 0
23.345000 0.224142 0
23.350000 0.224805 1
23.355000 0.216266 0
23.360000 0.199223 0
23.365000 0.175053 0
23.370000 0.145626 0
23.375000 0.113047 0
23.380000 0.079331 0
23.385000 0.045953 0
23.390000 0.013141 0
23.395000 -0.021038 0
23.400000 -0.061020 0
23.405000 -0.111794 0
23.410000 -0.173458 0
23.415000 -0.234535 0
23.420000 -0.269733 2
23.425000 -0.245445 0
23.430000 -0.129552 0
23.435000 0.097529 0
23.440000 0.425798 0
23.445000 0.793835 0
23.450000 1.087826 0
23.455000 1.189200 3
23.460000 1.049691 0
23.465000 0.725283 0
23.470000 0.334735 0
23.475000 -0.010494 0
23.480000 -0.247348 0
23.485000 -0.360045 0
23.490000 -0.364746 4
23.495000 -0.297654 0
23.500000 -0.202025 0
23.505000 -0.112104 0
23.510000 -0.043303 0
23.515000 0.005305 0
23.520000 0.041641 0
23.525000 0.073040 0
23.530000 0.103660 0
23.535000 0.135047 0
23.540000 0.167362 0
23.545000 0.200180 0
23.550000 0.232848 0
23.555000 0.264606 0
23.560000 0.294643 0
23.565000 0.322133 0
23.570000 0.346273 0
23.575000 0.366322 0
23.580000 0.381639 0
23.585000 0.391713 0
23.590000 0.396194 5
23.595000 0.394910 0
23.600000 0.387879 0
23.605000 0.375308 0
23.610000 0.357581 0
23.615000 0.335242 0
23.620000 0.308962 0
23.625000 0.279510 0
23.630000 0.247712 0
23.635000 0.214413 0
23.640000 0.180443 0
23.645000 0.146579 0
23.650000 0.113521 0
23.655000 0.081868 0
23.660000 0.052108 0
23.665000 0.024610 0
23.670000 -0.000377 0
23.675000 -0.022714 0
23.680000 -0.042365 0
23.685000 -0.059377 0
23.690000 -0.073869 0
23.695000 -0.086011 0
23.700000 -0.096011 0
23.705000 -0.104097 0
23.710000 -0.110504 0
23.715000 -0.115464 0
23.720000 -0.119201 0
23.725000 -0.121917 0
23.730000 -0.123798 0
23.735000 -0.123235 0
23.740000 -0.122261 0
23.745000 -0.121291 0
23.750000 -0.120326 0
23.755000 -0.119365 0
23.760000 -0.118407 0
23.765000 -0.117451 0
23.770000 -0.116493 0
23.775000 -0.115528 0
23.780000 -0.114543 0
23.785000 -0.113520 0
23.790000 -0.112425 0
23.795000 -0.111205 0
23.800000 -0.109776 0
23.805000 -0.108007 0
23.810000 -0.105715 0
23.815000 -0.102640 0
23.820000 -0.098441 0
23.825000 -0.092689 0
23.830000 -0.084876 0
23.835000 -0.074447 0
23.840000 -0.060845 0
23.845000 -0.043595 0
23.850000 -0.022394 0
23.855000 0.002782 0
23.860000 0.031576 0
23.865000 0.063183 0
23.870000 0.096329 0
23.875000 0.129317 0
23.880000 0.160151 0
23.885000 0.186723 0
23.890000 0.207050 0
23.895000 0.219515 0
23.900000 0.223082 1
23.905000 0.217437 0
23.910000 0.203033 0
23.915000 0.181033 0
23.920000 0.153149 0
23.925000 0.121417 0
23.930000 0.087902 0
23.935000 0.054314 0
23.940000 0.021408 0
23.945000 -0.011865 0
23.950000 -0.049054 0
23.955000 -0.095339 0
23.960000 -0.153448 0
23.965000 -0.217019 0
23.970000 -0.266075 0
23.975000 -0.269544 2
23.980000 -0.193860 0
23.985000 -0.013123 0
23.990000 0.277373 0
23.995000 0.640104 0
24.000000 0.981533 0
24.005000 1.177581 3
24.010000 1.142312 0
24.015000 0.886677 0
24.020000 0.509625 0
24.025000 0.133272 0
24.030000 -0.156255 0
24.035000 -0.324041 0
24.040000 -0.373694 4
24.045000 -0.333661 0
24.050000 -0.245806 0
24.055000 -0.150167 0
24.060000 -0.071050 0
24.065000 -0.013987 0
24.070000 0.026925 0
24.075000 0.059881 0
24.080000 0.090535 0
24.085000 0.121481 0
24.090000 0.153385 0
24.095000 0.186032 0
24.100000 0.218854 0
24.105000 0.251135 0
24.110000 0.282085 0
24.115000 0.310884 0
24.120000 0.336716 0
24.125000 0.358810 0
24.130000 0.376473 0
24.135000 0.389130 0
24.140000 0.396353 0
24.145000 0.397882 5
24.150000 0.393642 0
24.155000 0.383748 0
24.160000 0.368498 0
24.165000 0.348358 0
24.170000 0.323938 0
24.175000 0.295960 0
24.180000 0.265224 0
24.185000 0.232567 0
24.190000 0.198829 0
24.195000 0.164812 0
24.200000 0.131257 0
24.205000 0.098814 0
24.210000 0.068028 0
24.215000 0.039325 0
24.220000 0.013015 0
24.225000 -0.010707 0
24.230000 -0.031755 0
24.235000 -0.050134 0
24.240000 -0.065929 0
24.245000 -0.079283 0
24.250000 -0.090387 0
24.255000 -0.099457 0
24.260000 -0.106728 0
24.265000 -0.112432 0
24.270000 -0.116798 0
24.275000 -0.120039 0
24.280000 -0.122350 0
24.285000 -0.123536 0
24.290000 -0.122561 0
24.295000 -0.121590 0
24.300000 -0.120623 0
24.305000 -0.119661 0
24.310000 -0.118703 0
24.315000 -0.117747 0
24.320000 -0.116792 0
24.325000 -0.115833 0
24.330000 -0.114862 0
24.335000 -0.113864 0
24.340000 -0.112816 0
24.345000 -0.111676 0
24.350000 -0.110378 0
24.355000 -0.108821 0
24.360000 -0.106854 0
24.365000 -0.104262 0
24.370000 -0.100753 0
24.375000 -0.095949 0
24.380000 -0.089387 0
24.385000 -0.080537 0
24.390000 -0.068836 0
24.395000 -0.053754 0
24.400000 -0.034877 0
24.405000 -0.012006 0
24.410000 0.014735 0
24.415000 0.044812 0
24.420000 0.077229 0
24.425000 0.110533 0
24.430000 0.142893 0
24.435000 0.172250 0
24.440000 0.196523 0
24.445000 0.213855 0
24.450000 0.222847 1
24.455000 0.222740 0
24.460000 0.213526 0
24.465000 0.195951 0
24.470000 0.171411 0
24.475000 0.141770 0
24.480000 0.109106 0
24.485000 0.075393 0
24.490000 0.042053 0
24.495000 0.009258 0
24.500000 -0.024954 0
24.505000 -0.064989 0
24.510000 -0.115756 0
24.515000 -0.177358 0
24.520000 -0.238579 0
24.525000 -0.274665 2
24.530000 -0.252573 0
24.535000 -0.140464 0
24.540000 0.081666 0
24.545000 0.405759 0
24.550000 0.774284 0
24.555000 1.077285 0
24.560000 1.195823 3
24.565000 1.073667 0
24.570000 0.757643 0
24.575000 0.367492 0
24.580000 0.019213 0
24.585000 -0.220511 0
24.590000 -0.334494 0
24.595000 -0.339031 4
24.600000 -0.271283 0
24.605000 -0.175567 0
24.610000 -0.086504 0
24.615000 -0.019074 0
24.620000 0.028315 0
24.625000 0.063917 0
24.630000 0.095022 0
24.635000 0.125593 0
24.640000 0.157010 0
24.645000 0.189336 0
24.650000 0.222090 0
24.655000 0.254581 0
24.660000 0.286018 0
24.665000 0.315562 0
24.670000 0.342367 0
24.675000 0.365619 0
24.680000 0.384576 0
24.685000 0.398606 0
24.690000 0.407223 0
24.695000 0.410112 5
24.700000 0.407147 0
24.705000 0.398400 0
24.710000 0.384139 0
24.715000 0.364810 0
24.720000 0.341015 0
24.725000 0.313481 0
24.730000 0.283021 0
24.735000 0.250494 0
24.740000 0.216766 0
24.745000 0.182670 0
24.750000 0.148977 0
24.755000 0.116365 0
24.760000 0.085401 0
24.765000 0.056534 0
24.770000 0.030086 0
24.775000 0.006261 0
24.780000 -0.014852 0
24.785000 -0.033258 0
24.790000 -0.049044 0
24.795000 -0.062363 0
24.800000 -0.073411 0
24.805000 -0.082413 0
24.810000 -0.089609 0
24.815000 -0.095241 0
24.820000 -0.099541 0
24.825000 -0.102727 0
24.830000 -0.104996 0
24.835000 -0.106173 0
24.840000 -0.105284 0
24.845000 -0.104399 0
24.850000 -0.103519 0
24.855000 -0.102642 0
24.860000 -0.101768 0
24.865000 -0.100896 0
24.870000 -0.100023 0
24.875000 -0.099143 0
24.880000 -0.098248 0
24.885000 -0.097319 0
24.890000 -0.096326 0
24.895000 -0.095219 0
24.900000 -0.093920 0
24.905000 -0.092307 0
24.910000 -0.090199 0
24.915000 -0.087347 0
24.920000 -0.083413 0
24.925000 -0.077969 0
24.930000 -0.070505 0
24.935000 -0.060452 0
24.940000 -0.047238 0
24.945000 -0.030363 0
24.950000 -0.009497 0
24.955000 0.015405 0
24.960000 0.043999 0
24.965000 0.075480 0
24.970000 0.108550 0
24.975000 0.141475 0
24.980000 0.172206 0
24.985000 0.198580 0
24.990000 0.218569 0
24.995000 0.230534 0
25.000000 0.233446 1
25.005000 0.227034 0
25.010000 0.211824 0
25.015000 0.189067 0
25.020000 0.160567 0
25.025000 0.128432 0
25.030000 0.094759 0
25.035000 0.061203 0
25.040000 0.028309 0
25.045000 -0.005411 0
25.050000 -0.044047 0
25.055000 -0.092856 0
25.060000 -0.153244 0
25.065000 -0.215755 0
25.070000 -0.256673 2
25.075000 -0.242553 0
25.080000 -0.139995 0
25.085000 0.073257 0
25.090000 0.391890 0
25.095000 0.760305 0
25.100000 1.067388 0
25.105000 1.190028 3
25.110000 1.070244 0
25.115000 0.756447 0
25.120000 0.366531 0
25.125000 0.015947 0
25.130000 -0.227897 0
25.135000 -0.346653 0
25.140000 -0.355396 4
25.145000 -0.290183 0
25.150000 -0.194886 0
25.155000 -0.104668 0
25.160000 -0.035590 0
25.165000 0.013099 0
25.170000 0.049400 0
25.175000 0.080747 0
25.180000 0.111337 0
25.185000 0.142710 0
25.190000 0.175012 0
25.195000 0.207805 0
25.200000 0.240418 0
25.205000 0.272080 0
25.210000 0.301965 0
25.215000 0.329235 0
25.220000 0.353080 0
25.225000 0.372755 0
25.230000 0.387616 0
25.235000 0.397159 0
25.240000 0.401045 5
25.245000 0.399119 0
25.250000 0.391419 0
25.255000 0.378176 0
25.260000 0.359801 0
25.265000 0.336861 0
25.270000 0.310056 0
25.275000 0.280173 0
25.280000 0.248057 0
25.285000 0.214564 0
25.290000 0.180530 0
25.295000 0.146730 0
25.300000 0.113859 0
25.305000 0.082504 0
25.310000 0.053136 0
25.315000 0.026106 0
25.320000 0.001642 0
25.325000 -0.020138 0
25.330000 -0.039216 0
25.335000 -0.055660 0
25.340000 -0.069603 0
25.345000 -0.081229 0
25.350000 -0.090753 0
25.355000 -0.098411 0
25.360000 -0.104442 0
25.365000 -0.109079 0
25.370000 -0.112543 0
25.375000 -0.115035 0
25.380000 -0.116352 0
25.385000 -0.115412 0
25.390000 -0.114476 0
25.395000 -0.113546 0
25.400000 -0.112619 0
25.405000 -0.111696 0
25.410000 -0.110776 0
25.415000 -0.109856 0
25.420000 -0.108932 0
25.425000 -0.107997 0
25.430000 -0.107037 0
25.435000 -0.106027 0
25.440000 -0.104927 0
25.445000 -0.103673 0
25.450000 -0.102161 0
25.455000 -0.100241 0
25.460000 -0.097695 0
25.465000 -0.094229 0
25.470000 -0.089457 0
25.475000 -0.082909 0
25.480000 -0.074044 0
25.485000 -0.062289 0
25.490000 -0.047108 0
25.495000 -0.028083 0
25.500000 -0.005026 0
25.505000 0.021917 0
25.510000 0.052175 0
25.515000 0.084698 0
25.520000 0.117973 0
25.525000 0.150108 0
25.530000 0.178994 0
25.535000 0.202527 0
25.540000 0.218859 0
25.545000 0.226637 1
25.550000 0.225189 0
25.555000 0.214618 0
25.560000 0.195791 0
25.565000 0.170224 0
25.570000 0.139868 0
25.575000 0.106846 0
25.580000 0.073101 0
25.585000 0.039893 0
25.590000 0.007020 0
25.595000 -0.028074 0
25.600000 -0.070273 0
25.605000 -0.124018 0
25.610000 -0.187151 0
25.615000 -0.244707 0
25.620000 -0.268514 2
25.625000 -0.224287 0
25.630000 -0.081789 0
25.635000 0.173194 0
25.640000 0.519597 0
25.645000 0.881050 0
25.650000 1.135745 0
25.655000 1.175880 3
25.660000 0.978793 0
25.665000 0.623508 0
25.670000 0.236451 0
25.675000 -0.080321 0
25.680000 -0.278113 0
25.685000 -0.352589 4
25.690000 -0.328241 0
25.695000 -0.246390 0
25.700000 -0.149905 0
25.705000 -0.067330 0
25.710000 -0.007245 0
25.715000 0.035287 0
25.720000 0.068774 0
25.725000 0.099446 0
25.730000 0.130261 0
25.735000 0.162038 0
25.740000 0.194601 0
25.745000 0.227379 0
25.750000 0.259639 0
25.755000 0.290570 0
25.760000 0.319327 0
25.765000 0.345070 0
25.770000 0.367005 0
25.775000 0.384422 0
25.780000 0.396734 0
25.785000 0.403509 0
25.790000 0.404493 5
25.795000 0.399626 0
25.800000 0.389045 0
25.805000 0.373078 0
25.810000 0.352227 0
25.815000 0.327138 0
25.820000 0.298570 0
25.825000 0.267358 0
25.830000 0.234365 0
25.835000 0.200452 0
25.840000 0.166433 0
25.845000 0.133052 0
25.850000 0.100951 0
25.855000 0.070659 0
25.860000 0.042584 0
25.865000 0.017007 0
25.870000 -0.005906 0
25.875000 -0.026098 0
25.880000 -0.043605 0
25.885000 -0.058537 0
25.890000 -0.071062 0
25.895000 -0.081387 0
25.900000 -0.089745 0
25.905000 -0.096377 0
25.910000 -0.101523 0
25.915000 -0.105411 0
25.920000 -0.108252 0
25.925000 -0.110237 0
25.930000 -0.109746 0
25.935000 -0.108839 0
25.940000 -0.107937 0
25.945000 -0.107038 0
25.950000 -0.106143 0
25.955000 -0.105252 0
25.960000 -0.104361 0
25.965000 -0.103468 0
25.970000 -0.102566 0
25.975000 -0.101643 0
25.980000 -0.100678 0
25.985000 -0.099637 0
25.990000 -0.098460 0
25.995000 -0.097056 0
26.000000 -0.095286 0
26.005000 -0.092949 0
26.010000 -0.089767 0
26.015000 -0.085374 0
26.020000 -0.079314 0
26.025000 -0.071052 0
26.030000 -0.060012 0
26.035000 -0.045637 0
26.040000 -0.027469 0
26.045000 -0.005259 0
26.050000 0.020921 0
26.055000 0.050584 0
26.060000 0.082764 0
26.065000 0.116013 0
26.070000 0.148476 0
26.075000 0.178043 0
26.080000 0.202568 0
26.085000 0.220120 0
26.090000 0.229240 1
26.095000 0.229132 0
26.100000 0.219785 0
26.105000 0.201974 0
26.110000 0.177152 0
26.115000 0.147252 0
26.120000 0.114416 0
26.125000 0.080652 0
26.130000 0.047345 0
26.135000 0.014486 0
26.140000 -0.020246 0
26.145000 -0.061634 0
26.150000 -0.114408 0
26.155000 -0.177190 0
26.160000 -0.235933 0
26.165000 -0.262913 2
26.170000 -0.223551 0
26.175000 -0.086739 0
26.180000 0.163120 0
26.185000 0.506861 0
26.190000 0.869616 0
26.195000 1.129081 0
26.200000 1.174775 3
26.205000 0.980954 0
26.210000 0.626096 0
26.215000 0.239351 0
26.220000 -0.075314 0
26.225000 -0.269097 0
26.230000 -0.338669 4
26.235000 -0.310069 0
26.240000 -0.226088 0
26.245000 -0.130017 0
26.250000 -0.049466 0
26.255000 0.008413 0
26.260000 0.049453 0
26.265000 0.082274 0
26.270000 0.112809 0
26.275000 0.143707 0
26.280000 0.175595 0
26.285000 0.208202 0
26.290000 0.240904 0
26.295000 0.272932 0
26.300000 0.303447 0
26.305000 0.331580 0
26.310000 0.356480 0
26.315000 0.377348 0
26.320000 0.393486 0
26.325000 0.404330 0
26.330000 0.409484 5
26.335000 0.408743 0
26.340000 0.402102 0
26.345000 0.389763 0
26.350000 0.372118 0
26.355000 0.349733 0
26.360000 0.323312 0
26.365000 0.293663 0
26.370000 0.261654 0
26.375000 0.228175 0
26.380000 0.194091 0
26.385000 0.160211 0
26.390000 0.127255 0
26.395000 0.095836 0
26.400000 0.066440 0
26.405000 0.039429 0
26.410000 0.015034 0
26.415000 -0.006626 0
26.420000 -0.025542 0
26.425000 -0.041789 0
26.430000 -0.055511 0
26.435000 -0.066903 0
26.440000 -0.076193 0
26.445000 -0.083626 0
26.450000 -0.089447 0
26.455000 -0.093897 0
26.460000 -0.097200 0
26.465000 -0.099560 0
26.470000 -0.100801 0
26.475000 -0.099939 0
26.480000 -0.099081 0
26.485000 -0.098226 0
26.490000 -0.097376 0
26.495000 -0.096529 0
26.500000 -0.095683 0
26.505000 -0.094835 0
26.510000 -0.093981 0
26.515000 -0.093110 0
26.520000 -0.092204 0
26.525000 -0.091231 0
26.530000 -0.090138 0
26.535000 -0.088842 0
26.540000 -0.087214 0
26.545000 -0.085063 0
26.550000 -0.082124 0
26.555000 -0.078040 0
26.560000 -0.072361 0
26.565000 -0.064554 0
26.570000 -0.054032 0
26.575000 -0.040217 0
26.580000 -0.022619 0
26.585000 -0.000949 0
26.590000 0.024769 0
26.595000 0.054086 0
26.600000 0.086063 0
26.605000 0.119260 0
26.610000 0.151807 0
26.615000 0.181555 0
26.620000 0.206303 0
26.625000 0.224062 0
26.630000 0.233319 1
26.635000 0.233247 0
26.640000 0.223829 0
26.645000 0.205862 0
26.650000 0.180842 0
26.655000 0.150758 0
26.660000 0.117802 0
26.665000 0.084010 0
26.670000 0.050731 0
26.675000 0.017807 0
26.680000 -0.017381 0
26.685000 -0.059890 0
26.690000 -0.114209 0
26.695000 -0.177619 0
26.700000 -0.233728 0
26.705000 -0.252565 2
26.710000 -0.198601 0
26.715000 -0.041738 0
26.720000 0.229216 0
26.725000 0.584864 0
26.730000 0.936307 0
26.735000 1.154490 3
26.740000 1.141739 0
26.745000 0.900302 0
26.750000 0.527126 0
26.755000 0.148711 0
26.760000 -0.143791 0
26.765000 -0.312945 0
26.770000 -0.362075 4
26.775000 -0.320625 0
26.780000 -0.231906 0
26.785000 -0.136798 0
26.790000 -0.059296 0
26.795000 -0.003985 0
26.800000 0.035731 0
26.805000 0.068164 0
26.810000 0.098745 0
26.815000 0.129807 0
26.820000 0.161850 0
26.825000 0.194565 0
26.830000 0.227329 0
26.835000 0.259381 0
26.840000 0.289896 0
26.845000 0.318025 0
26.850000 0.342933 0
26.855000 0.363841 0
26.860000 0.380064 0
26.865000 0.391050 0
26.870000 0.396410 5
26.875000 0.395936 0
26.880000 0.389619 0
26.885000 0.377647 0
26.890000 0.360396 0
26.895000 0.338409 0
26.900000 0.312368 0
26.905000 0.283057 0
26.910000 0.251325 0
26.915000 0.218041 0
26.920000 0.184058 0
26.925000 0.150178 0
26.930000 0.117120 0
26.935000 0.085499 0
26.940000 0.055814 0
26.945000 0.028437 0
26.950000 0.003619 0
26.955000 -0.018507 0
26.960000 -0.037909 0
26.965000 -0.054647 0
26.970000 -0.068848 0
26.975000 -0.080695 0
26.980000 -0.090404 0
26.985000 -0.098211 0
26.990000 -0.104360 0
26.995000 -0.109088 0
27.000000 -0.112620 0
27.005000 -0.115161 0
27.010000 -0.116507 0
27.015000 -0.115567 0
27.020000 -0.114631 0
27.025000 -0.113699 0
27.030000 -0.112772 0
27.035000 -0.111848 0
27.040000 -0.110927 0
27.045000 -0.110006 0
27.050000 -0.109082 0
27.055000 -0.108146 0
27.060000 -0.107184 0
27.065000 -0.106171 0
27.070000 -0.105066 0
27.075000 -0.103801 0
27.080000 -0.102272 0
27.085000 -0.100320 0
27.090000 -0.097723 0
27.095000 -0.094173 0
27.100000 -0.089275 0
27.105000 -0.082544 0
27.110000 -0.073427 0
27.115000 -0.061343 0
27.120000 -0.045754 0
27.125000 -0.026259 0
27.130000 -0.002700 0
27.135000 0.024726 0
27.140000 0.055376 0
27.145000 0.088119 0
27.150000 0.121357 0
27.155000 0.153125 0
27.160000 0.181266 0
27.165000 0.203673 0
27.170000 0.218541 0
27.175000 0.224614 1
27.180000 0.221352 0
27.185000 0.209018 0
27.190000 0.188637 0
27.195000 0.161859 0
27.200000 0.130727 0
27.205000 0.097388 0
27.210000 0.063704 0
27.215000 0.030680 0
27.220000 -0.002406 0
27.225000 -0.038827 0
27.230000 -0.083839 0
27.235000 -0.140848 0
27.240000 -0.204549 0
27.245000 -0.255638 0
27.250000 -0.262759 2
27.255000 -0.191267 0
27.260000 -0.013953 0
27.265000 0.274897 0
27.270000 0.637475 0
27.275000 0.977694 0
27.280000 1.168143 3
27.285000 1.122050 0
27.290000 0.854557 0
27.295000 0.472971 0
27.300000 0.103336 0
27.305000 -0.170402 0
27.310000 -0.318169 0
27.315000 -0.348680 4
27.320000 -0.295226 0
27.325000 -0.202584 0
27.330000 -0.109780 0
27.335000 -0.037012 0
27.340000 0.014237 0
27.345000 0.051684 0
27.350000 0.083313 0
27.355000 0.113847 0
27.360000 0.145103 0
27.365000 0.177320 0
27.370000 0.210077 0
27.375000 0.242697 0
27.380000 0.274387 0
27.385000 0.304300 0
27.390000 0.331575 0
27.395000 0.355376 0
27.400000 0.374938 0
27.405000 0.389602 0
27.410000 0.398855 0
27.415000 0.402357 5
27.420000 0.399960 0
27.425000 0.391720 0
27.430000 0.377891 0
27.435000 0.358915 0
27.440000 0.335393 0
27.445000 0.308059 0
27.450000 0.277735 0
27.455000 0.245294 0
27.460000 0.211615 0
27.465000 0.177548 0
27.470000 0.143877 0
27.475000 0.111291 0
27.480000 0.080368 0
27.485000 0.051563 0
27.490000 0.025201 0
27.495000 0.001486 0
27.500000 -0.019493 0
27.505000 -0.037747 0
27.510000 -0.053367 0
27.515000 -0.066511 0
27.520000 -0.077381 0
27.525000 -0.086208 0
27.530000 -0.093236 0
27.535000 -0.098709 0
27.540000 -0.102864 0
27.545000 -0.105920 0
27.550000 -0.108073 0
27.555000 -0.107617 0
27.560000 -0.106720 0
27.565000 -0.105828 0
27.570000 -0.104940 0
27.575000 -0.104056 0
27.580000 -0.103175 0
27.585000 -0.102295 0
27.590000 -0.101414 0
27.595000 -0.100524 0
27.600000 -0.099616 0
27.605000 -0.098668 0
27.610000 -0.097647 0
27.615000 -0.096496 0
27.620000 -0.095127 0
27.625000 -0.093402 0
27.630000 -0.091122 0
27.635000 -0.088011 0
27.640000 -0.083702 0
27.645000 -0.077735 0
27.650000 -0.069571 0
27.655000 -0.058624 0
27.660000 -0.044325 0
27.665000 -0.026206 0
27.670000 -0.004014 0
27.675000 0.022183 0
27.680000 0.051886 0
27.685000 0.084104 0
27.690000 0.117355 0
27.695000 0.149743 0
27.700000 0.179117 0
27.705000 0.203299 0
27.710000 0.220347 0
27.715000 0.228814 1
27.720000 0.227948 0
27.725000 0.217804 0
27.730000 0.199235 0
27.735000 0.173778 0
27.740000 0.143433 0
27.745000 0.110382 0
27.750000 0.076619 0
27.755000 0.043415 0
27.760000 0.010485 0
27.765000 -0.024937 0
27.770000 -0.067963 0
27.775000 -0.122865 0
27.780000 -0.186394 0
27.785000 -0.241568 0
27.790000 -0.258159 2
27.795000 -0.200872 0
27.800000 -0.040215 0
27.805000 0.234003 0
27.810000 0.591007 0
27.815000 0.940911 0
27.820000 1.155215 3
27.825000 1.137135 0
27.830000 0.889639 0
27.835000 0.513807 0
27.840000 0.138230 0
27.845000 -0.146919 0
27.850000 -0.306572 0
27.855000 -0.346540 4
27.860000 -0.298619 0
27.865000 -0.207558 0
27.870000 -0.113779 0
27.875000 -0.039296 0
27.880000 0.013259 0
27.885000 0.051344 0
27.890000 0.083156 0
27.895000 0.113675 0
27.900000 0.144868 0
27.905000 0.177035 0
27.910000 0.209774 0
27.915000 0.242410 0
27.920000 0.274148 0
27.925000 0.304137 0
27.930000 0.331507 0
27.935000 0.355417 0
27.940000 0.375091 0
27.945000 0.389863 0
27.950000 0.399213 0
27.955000 0.402793 5
27.960000 0.400453 0
27.965000 0.392247 0
27.970000 0.378429 0
27.975000 0.359444 0
27.980000 0.335898 0
27.985000 0.308530 0
27.990000 0.278170 0
27.995000 0.245696 0
28.000000 0.211997 0
28.005000 0.177925 0
28.010000 0.144268 0
28.015000 0.111720 0
28.020000 0.080857 0
28.025000 0.052134 0
28.030000 0.025874 0
28.035000 0.002277 0
28.040000 -0.018573 0
28.045000 -0.036690 0
28.050000 -0.052172 0
28.055000 -0.065180 0
28.060000 -0.075919 0
28.065000 -0.084623 0
28.070000 -0.091540 0
28.075000 -0.096915 0
28.080000 -0.100984 0
28.085000 -0.103966 0
28.090000 -0.106060 0
28.095000 -0.105603 0
28.100000 -0.104716 0
28.105000 -0.103834 0
28.110000 -0.102956 0
28.115000 -0.102082 0
28.120000 -0.101211 0
28.125000 -0.100340 0
28.130000 -0.099467 0
28.135000 -0.098585 0
28.140000 -0.097682 0
28.145000 -0.096736 0
28.150000 -0.095711 0
28.155000 -0.094545 0
28.160000 -0.093143 0
28.165000 -0.091360 0
28.170000 -0.088985 0
28.175000 -0.085726 0
28.180000 -0.081198 0
28.185000 -0.074925 0
28.190000 -0.066352 0
28.195000 -0.054888 0
28.200000 -0.039969 0
28.205000 -0.021154 0
28.210000 0.001767 0
28.215000 0.028650 0
28.220000 0.058907 0
28.225000 0.091445 0
28.230000 0.124683 0
28.235000 0.156644 0
28.240000 0.185137 0
28.245000 0.207992 0
28.250000 0.223338 0
28.255000 0.229848 1
28.260000 0.226932 0
28.265000 0.214823 0
28.270000 0.194550 0
28.275000 0.167785 0
28.280000 0.136615 0
28.285000 0.103229 0
28.290000 0.069522 0
28.295000 0.036486 0
28.300000 0.003299 0
28.305000 -0.033508 0
28.310000 -0.079329 0
28.315000 -0.137260 0
28.320000 -0.200863 0
28.325000 -0.249109 0
28.330000 -0.249173 2
28.335000 -0.165979 0
28.340000 0.026477 0
28.345000 0.329496 0
28.350000 0.696175 0
28.355000 1.020257 0
28.360000 1.172966 3
28.365000 1.082857 0
28.370000 0.787024 0
28.375000 0.399486 0
28.380000 0.040167 0
28.385000 -0.216830 0
28.390000 -0.348364 0
28.395000 -0.366755 4
28.400000 -0.306734 0
