0.000000 1.156629 3
0.005000 1.029342 0
0.010000 0.712813 0
0.015000 0.323817 0
0.020000 -0.024824 0
0.025000 -0.267543 0
0.030000 -0.386532 0
0.035000 -0.396533 4
0.040000 -0.332824 0
0.045000 -0.238516 0
0.050000 -0.148538 0
0.055000 -0.079281 0
0.060000 -0.030461 0
0.065000 0.005690 0
0.070000 0.036646 0
0.075000 0.066751 0
0.080000 0.097684 0
0.085000 0.129686 0
0.090000 0.162380 0
0.095000 0.195147 0
0.100000 0.227251 0
0.105000 0.257894 0
0.110000 0.286254 0
0.115000 0.311521 0
0.120000 0.332934 0
0.125000 0.349819 0
0.130000 0.361622 0
0.135000 0.367943 0
0.140000 0.368554 5
0.145000 0.363414 0
0.150000 0.352669 0
0.155000 0.336648 0
0.160000 0.315847 0
0.165000 0.290896 0
0.170000 0.262535 0
0.175000 0.231574 0
0.180000 0.198852 0
0.185000 0.165204 0
0.190000 0.131423 0
0.195000 0.098235 0
0.200000 0.066269 0
0.205000 0.036047 0
0.210000 0.007975 0
0.215000 -0.017662 0
0.220000 -0.040691 0
0.225000 -0.061046 0
0.230000 -0.078749 0
0.235000 -0.093898 0
0.240000 -0.106647 0
0.245000 -0.117194 0
0.250000 -0.125760 0
0.255000 -0.132578 0
0.260000 -0.137883 0
0.265000 -0.141899 0
0.270000 -0.144836 0
0.275000 -0.146885 0
0.280000 -0.147867 0
0.285000 -0.146818 0
0.290000 -0.145773 0
0.295000 -0.144734 0
0.300000 -0.143700 0
0.305000 -0.142670 0
0.310000 -0.141643 0
0.315000 -0.140619 0
0.320000 -0.139593 0
0.325000 -0.138559 0
0.330000 -0.137507 0
0.335000 -0.136416 0
0.340000 -0.135255 0
0.345000 -0.133968 0
0.350000 -0.132471 0
0.355000 -0.130636 0
0.360000 -0.128276 0
0.365000 -0.125135 0
0.370000 -0.120870 0
0.375000 -0.115054 0
0.380000 -0.107181 0
0.385000 -0.096696 0
0.390000 -0.083047 0
0.395000 -0.065760 0
0.400000 -0.044535 0
0.405000 -0.019352 0
0.410000 0.009432 0
0.415000 0.041010 0
0.420000 0.074111 0
0.425000 0.107043 0
0.430000 0.137814 0
0.435000 0.164328 0
0.440000 0.184609 0
0.445000 0.197050 0
0.450000 0.200621 1
0.455000 0.195015 0
0.460000 0.180686 0
0.465000 0.158794 0
0.470000 0.131048 0
0.475000 0.099479 0
0.480000 0.066152 0
0.485000 0.032801 0
0.490000 0.000266 0
0.495000 -0.032335 0
0.500000 -0.068343 0
0.505000 -0.112921 0
0.510000 -0.169328 0
0.515000 -0.232406 0
0.520000 -0.283603 0
0.525000 -0.292735 2
0.530000 -0.226171 0
0.535000 -0.056874 0
0.540000 0.222748 0
0.545000 0.580435 0
0.550000 0.928248 0
0.555000 1.143019 3
0.560000 1.131639 0
0.565000 0.894363 0
0.570000 0.524296 0
0.575000 0.144734 0
0.580000 -0.153497 0
0.585000 -0.331320 0
0.590000 -0.389757 4
0.595000 -0.355750 0
0.600000 -0.270729 0
0.605000 -0.175513 0
0.610000 -0.095811 0
0.615000 -0.038257 0
0.620000 0.002656 0
0.625000 0.035215 0
0.630000 0.065310 0
0.635000 0.095709 0
0.640000 0.127181 0
0.645000 0.159564 0
0.650000 0.192323 0
0.655000 0.224764 0
0.660000 0.256109 0
0.665000 0.285542 0
0.670000 0.312239 0
0.675000 0.335410 0
0.680000 0.354334 0
0.685000 0.368399 0
0.690000 0.377132 0
0.695000 0.380224 5
0.700000 0.377551 0
0.705000 0.369177 0
0.710000 0.355354 0
0.715000 0.336507 0
0.720000 0.313215 0
0.725000 0.286176 0
0.730000 0.256177 0
0.735000 0.224052 0
0.740000 0.190644 0
0.745000 0.156772 0
0.750000 0.123194 0
0.755000 0.090586 0
0.760000 0.059519 0
0.765000 0.030449 0
0.770000 0.003713 0
0.775000 -0.020471 0
0.780000 -0.041992 0
0.785000 -0.060837 0
0.790000 -0.077075 0
0.795000 -0.090840 0
0.800000 -0.102315 0
0.805000 -0.111712 0
0.810000 -0.119264 0
0.815000 -0.125205 0
0.820000 -0.129767 0
0.825000 -0.133165 0
0.830000 -0.135600 0
0.835000 -0.137248 0
0.840000 -0.136634 0
0.845000 -0.135641 0
0.850000 -0.134652 0
0.855000 -0.133668 0
0.860000 -0.132688 0
0.865000 -0.131712 0
0.870000 -0.130739 0
0.875000 -0.129765 0
0.880000 -0.128786 0
0.885000 -0.127794 0
0.890000 -0.126771 0
0.895000 -0.125692 0
0.900000 -0.124510 0
0.905000 -0.123154 0
0.910000 -0.121513 0
0.915000 -0.119423 0
0.920000 -0.116656 0
0.925000 -0.112899 0
0.930000 -0.107756 0
0.935000 -0.100745 0
0.940000 -0.091323 0
0.945000 -0.078929 0
0.950000 -0.063047 0
0.955000 -0.043302 0
0.960000 -0.019561 0
0.965000 0.007963 0
0.970000 0.038627 0
0.975000 0.071319 0
0.980000 0.104480 0
0.985000 0.136200 0
0.990000 0.164388 0
0.995000 0.186990 0
1.000000 0.202242 0
1.005000 0.208889 1
1.010000 0.206364 0
1.015000 0.194863 0
1.020000 0.175321 0
1.025000 0.149291 0
1.030000 0.118727 0
1.035000 0.085727 0
1.040000 0.052191 0
1.045000 0.019337 0
1.050000 -0.013044 0
1.055000 -0.047458 0
1.060000 -0.088720 0
1.065000 -0.141350 0
1.070000 -0.203655 0
1.075000 -0.261562 0
1.080000 -0.287867 2
1.085000 -0.248861 0
1.090000 -0.114184 0
1.095000 0.131790 0
1.100000 0.471754 0
1.105000 0.835123 0
1.110000 1.104009 0
1.115000 1.167560 3
1.120000 0.993414 0
1.125000 0.650735 0
1.130000 0.262143 0
1.135000 -0.066959 0
1.140000 -0.282120 0
1.145000 -0.374064 4
1.150000 -0.363332 0
1.155000 -0.288639 0
1.160000 -0.192920 0
1.165000 -0.107382 0
1.170000 -0.043820 0
1.175000 0.000865 0
1.180000 0.034973 0
1.185000 0.065313 0
1.190000 0.095451 0
1.195000 0.126583 0
1.200000 0.158725 0
1.205000 0.191408 0
1.210000 0.223967 0
1.215000 0.255638 0
1.220000 0.285607 0
1.225000 0.313044 0
1.230000 0.337143 0
1.235000 0.357159 0
1.240000 0.372446 0
1.245000 0.382490 0
1.250000 0.386939 5
1.255000 0.385621 0
1.260000 0.378556 0
1.265000 0.365952 0
1.270000 0.348197 0
1.275000 0.325839 0
1.280000 0.299555 0
1.285000 0.270118 0
1.290000 0.238359 0
1.295000 0.205128 0
1.300000 0.171254 0
1.305000 0.137517 0
1.310000 0.104615 0
1.315000 0.073145 0
1.320000 0.043590 0
1.325000 0.016315 0
1.330000 -0.008437 0
1.335000 -0.030534 0
1.340000 -0.049944 0
1.345000 -0.066722 0
1.350000 -0.080990 0
1.355000 -0.092923 0
1.360000 -0.102732 0
1.365000 -0.110646 0
1.370000 -0.116902 0
1.375000 -0.121734 0
1.380000 -0.125361 0
1.385000 -0.127988 0
1.390000 -0.129797 0
1.395000 -0.129239 0
1.400000 -0.128282 0
1.405000 -0.127330 0
1.410000 -0.126383 0
1.415000 -0.125440 0
1.420000 -0.124500 0
1.425000 -0.123563 0
1.430000 -0.122626 0
1.435000 -0.121685 0
1.440000 -0.120731 0
1.445000 -0.119751 0
1.450000 -0.118717 0
1.455000 -0.117589 0
1.460000 -0.116298 0
1.465000 -0.114739 0
1.470000 -0.112756 0
1.475000 -0.110128 0
1.480000 -0.106554 0
1.485000 -0.101645 0
1.490000 -0.094928 0
1.495000 -0.085862 0
1.500000 -0.073883 0
1.505000 -0.058462 0
1.510000 -0.039202 0
1.515000 -0.015935 0
1.520000 0.011168 0
1.525000 0.041512 0
1.530000 0.074027 0
1.535000 0.107193 0
1.540000 0.139117 0
1.545000 0.167707 0
1.550000 0.190886 0
1.555000 0.206841 0
1.560000 0.214259 1
1.565000 0.212501 0
1.570000 0.201699 0
1.575000 0.182734 0
1.580000 0.157120 0
1.585000 0.126801 0
1.590000 0.093883 0
1.595000 0.060304 0
1.600000 0.027360 0
1.605000 -0.005033 0
1.610000 -0.039223 0
1.615000 -0.079938 0
1.620000 -0.131880 0
1.625000 -0.193908 0
1.630000 -0.252672 0
1.635000 -0.281435 2
1.640000 -0.246427 0
1.645000 -0.116738 0
1.650000 0.124350 0
1.655000 0.461369 0
1.660000 0.825794 0
1.665000 1.100314 0
1.670000 1.171955 3
1.675000 1.004594 0
1.680000 0.664914 0
1.685000 0.276040 0
1.690000 -0.054820 0
1.695000 -0.271782 0
1.700000 -0.364944 4
1.705000 -0.354763 0
1.710000 -0.280196 0
1.715000 -0.184523 0
1.720000 -0.099159 0
1.725000 -0.035873 0
1.730000 0.008555 0
1.735000 0.042504 0
1.740000 0.072777 0
1.745000 0.102902 0
1.750000 0.134037 0
1.755000 0.166176 0
1.760000 0.198837 0
1.765000 0.231343 0
1.770000 0.262922 0
1.775000 0.292749 0
1.780000 0.319990 0
1.785000 0.343833 0
1.790000 0.363532 0
1.795000 0.378443 0
1.800000 0.388059 0
1.805000 0.392038 5
1.810000 0.390221 0
1.815000 0.382642 0
1.820000 0.369528 0
1.825000 0.351287 0
1.830000 0.328484 0
1.835000 0.301813 0
1.840000 0.272061 0
1.845000 0.240070 0
1.850000 0.206695 0
1.855000 0.172771 0
1.860000 0.139073 0
1.865000 0.106294 0
1.870000 0.075023 0
1.875000 0.045730 0
1.880000 0.018767 0
1.885000 -0.005637 0
1.890000 -0.027364 0
1.895000 -0.046397 0
1.900000 -0.062802 0
1.905000 -0.076712 0
1.910000 -0.088310 0
1.915000 -0.097812 0
1.920000 -0.105453 0
1.925000 -0.111470 0
1.930000 -0.116098 0
1.935000 -0.119556 0
1.940000 -0.122046 0
1.945000 -0.123746 0
1.950000 -0.123197 0
1.955000 -0.122271 0
1.960000 -0.121349 0
1.965000 -0.120431 0
1.970000 -0.119517 0
1.975000 -0.118607 0
1.980000 -0.117699 0
1.985000 -0.116789 0
1.990000 -0.115874 0
1.995000 -0.114944 0
2.000000 -0.113981 0
2.005000 -0.112956 0
2.010000 -0.111823 0
2.015000 -0.110503 0
2.020000 -0.108879 0
2.025000 -0.106778 0
2.030000 -0.103958 0
2.035000 -0.100091 0
2.040000 -0.094762 0
2.045000 -0.087473 0
2.050000 -0.077666 0
2.055000 -0.064774 0
2.060000 -0.048293 0
2.065000 -0.027878 0
2.070000 -0.003449 0
2.075000 0.024699 0
2.080000 0.055824 0
2.085000 0.088704 0
2.090000 0.121673 0
2.095000 0.152740 0
2.100000 0.179773 0
2.105000 0.200737 0
2.110000 0.213946 0
2.115000 0.218285 1
2.120000 0.213368 0
2.125000 0.199592 0
2.130000 0.178084 0
2.135000 0.150550 0
2.140000 0.119041 0
2.145000 0.085662 0
2.150000 0.052199 0
2.155000 0.019550 0
2.160000 -0.013122 0
2.165000 -0.049163 0
2.170000 -0.093811 0
2.175000 -0.150375 0
2.180000 -0.213533 0
2.185000 -0.264234 0
2.190000 -0.271624 2
2.195000 -0.201584 0
2.200000 -0.027132 0
2.205000 0.258023 0
2.210000 0.618152 0
2.215000 0.960456 0
2.220000 1.159486 3
2.225000 1.126699 0
2.230000 0.871763 0
2.235000 0.495235 0
2.240000 0.121103 0
2.245000 -0.164125 0
2.250000 -0.326402 0
2.255000 -0.370700 4
2.260000 -0.326999 0
2.265000 -0.238254 0
2.270000 -0.144366 0
2.275000 -0.068344 0
2.280000 -0.014270 0
2.285000 0.024511 0
2.290000 0.056198 0
2.295000 0.086142 0
2.300000 0.116662 0
2.305000 0.148282 0
2.310000 0.180727 0
2.315000 0.213410 0
2.320000 0.245601 0
2.325000 0.276500 0
2.330000 0.305272 0
2.335000 0.331085 0
2.340000 0.353153 0
2.345000 0.370768 0
2.350000 0.383344 0
2.355000 0.390444 0
2.360000 0.391806 5
2.365000 0.387359 0
2.370000 0.377226 0
2.375000 0.361717 0
2.380000 0.341317 0
2.385000 0.316654 0
2.390000 0.288470 0
2.395000 0.257585 0
2.400000 0.224852 0
2.405000 0.191124 0
2.410000 0.157212 0
2.415000 0.123858 0
2.420000 0.091710 0
2.425000 0.061304 0
2.430000 0.033057 0
2.435000 0.007263 0
2.440000 -0.015903 0
2.445000 -0.036370 0
2.450000 -0.054162 0
2.455000 -0.069378 0
2.460000 -0.082179 0
2.465000 -0.092765 0
2.470000 -0.101361 0
2.475000 -0.108208 0
2.480000 -0.113541 0
2.485000 -0.117590 0
2.490000 -0.120566 0
2.495000 -0.122661 0
2.500000 -0.123709 0
2.505000 -0.122780 0
2.510000 -0.121855 0
2.515000 -0.120935 0
2.520000 -0.120019 0
2.525000 -0.119107 0
2.530000 -0.118198 0
2.535000 -0.117289 0
2.540000 -0.116378 0
2.545000 -0.115457 0
2.550000 -0.114513 0
2.555000 -0.113525 0
2.560000 -0.112455 0
2.565000 -0.111242 0
2.570000 -0.109791 0
2.575000 -0.107960 0
2.580000 -0.105542 0
2.585000 -0.102255 0
2.590000 -0.097727 0
2.595000 -0.091501 0
2.600000 -0.083042 0
2.605000 -0.071781 0
2.610000 -0.057170 0
2.615000 -0.038770 0
2.620000 -0.016352 0
2.625000 0.009988 0
2.630000 0.039742 0
2.635000 0.071924 0
2.640000 0.105082 0
2.645000 0.137363 0
2.650000 0.166676 0
2.655000 0.190903 0
2.660000 0.208150 0
2.665000 0.216991 1
2.670000 0.216663 0
2.675000 0.207174 0
2.680000 0.189305 0
2.685000 0.164504 0
2.690000 0.134686 0
2.695000 0.101973 0
2.700000 0.068369 0
2.705000 0.035296 0
2.710000 0.002888 0
2.715000 -0.030927 0
2.720000 -0.070713 0
2.725000 -0.121439 0
2.730000 -0.182869 0
2.735000 -0.242877 0
2.740000 -0.275531 2
2.745000 -0.246964 0
2.750000 -0.125348 0
2.755000 0.107796 0
2.760000 0.439897 0
2.765000 0.805623 0
2.770000 1.088514 0
2.775000 1.172253 3
2.780000 1.015260 0
2.785000 0.680640 0
2.790000 0.291414 0
2.795000 -0.042880 0
2.800000 -0.264025 0
2.805000 -0.360762 4
2.810000 -0.352935 0
2.815000 -0.279401 0
2.820000 -0.183804 0
2.825000 -0.098123 0
2.830000 -0.034538 0
2.835000 0.010041 0
2.840000 0.044031 0
2.845000 0.074303 0
2.850000 0.104420 0
2.855000 0.135551 0
2.860000 0.167688 0
2.865000 0.200344 0
2.870000 0.232838 0
2.875000 0.264390 0
2.880000 0.294173 0
2.885000 0.321344 0
2.890000 0.345088 0
2.895000 0.364656 0
2.900000 0.379404 0
2.905000 0.388826 0
2.910000 0.392583 5
2.915000 0.390523 0
2.920000 0.382689 0
2.925000 0.369318 0
2.930000 0.350826 0
2.935000 0.327791 0
2.940000 0.300917 0
2.945000 0.271000 0
2.950000 0.238891 0
2.955000 0.205449 0
2.960000 0.171510 0
2.965000 0.137851 0
2.970000 0.105163 0
2.975000 0.074027 0
2.980000 0.044910 0
2.985000 0.018154 0
2.990000 -0.006021 0
2.995000 -0.027505 0
3.000000 -0.046290 0
3.005000 -0.062448 0
3.010000 -0.076120 0
3.015000 -0.087494 0
3.020000 -0.096791 0
3.025000 -0.104247 0
3.030000 -0.110101 0
3.035000 -0.114588 0
3.040000 -0.117927 0
3.045000 -0.120318 0
3.050000 -0.121570 0
3.055000 -0.120652 0
3.060000 -0.119738 0
3.065000 -0.118829 0
3.070000 -0.117923 0
3.075000 -0.117022 0
3.080000 -0.116124 0
3.085000 -0.115227 0
3.090000 -0.114329 0
3.095000 -0.113424 0
3.100000 -0.112501 0
3.105000 -0.111542 0
3.110000 -0.110514 0
3.115000 -0.109366 0
3.120000 -0.108014 0
3.125000 -0.106331 0
3.130000 -0.104132 0
3.135000 -0.101157 0
3.140000 -0.097061 0
3.145000 -0.091409 0
3.150000 -0.083687 0
3.155000 -0.073326 0
3.160000 -0.059761 0
3.165000 -0.042510 0
3.170000 -0.021269 0
3.175000 0.003970 0
3.180000 0.032824 0
3.185000 0.064441 0
3.190000 0.097489 0
3.195000 0.130207 0
3.200000 0.160541 0
3.205000 0.186345 0
3.210000 0.205630 0
3.215000 0.216815 0
3.220000 0.218939 1
3.225000 0.211801 0
3.230000 0.195989 0
3.235000 0.172798 0
3.240000 0.144054 0
3.245000 0.111866 0
3.250000 0.078311 0
3.255000 0.045021 0
3.260000 0.012533 0
3.265000 -0.020615 0
3.270000 -0.058468 0
3.275000 -0.106306 0
3.280000 -0.165786 0
3.285000 -0.227986 0
3.290000 -0.269829 2
3.295000 -0.258297 0
3.300000 -0.160026 0
3.305000 0.047796 0
3.310000 0.361506 0
3.315000 0.728461 0
3.320000 1.040305 0
3.325000 1.173641 3
3.330000 1.065735 0
3.335000 0.759315 0
3.340000 0.371138 0
3.345000 0.018506 0
3.350000 -0.228839 0
3.355000 -0.351077 0
3.360000 -0.362581 4
3.365000 -0.299196 0
3.370000 -0.204988 0
3.375000 -0.115520 0
3.380000 -0.047154 0
3.385000 0.000782 0
3.390000 0.036333 0
3.395000 0.066992 0
3.400000 0.096990 0
3.405000 0.127887 0
3.410000 0.159847 0
3.415000 0.192451 0
3.420000 0.225047 0
3.425000 0.256871 0
3.430000 0.287101 0
3.435000 0.314896 0
3.440000 0.339431 0
3.445000 0.359941 0
3.450000 0.375755 0
3.455000 0.386336 0
3.460000 0.391308 5
3.465000 0.390479 0
3.470000 0.383850 0
3.475000 0.371617 0
3.480000 0.354163 0
3.485000 0.332032 0
3.490000 0.305904 0
3.495000 0.276562 0
3.500000 0.244845 0
3.505000 0.211617 0
3.510000 0.177720 0
3.515000 0.143947 0
3.520000 0.111007 0
3.525000 0.079508 0
3.530000 0.049941 0
3.535000 0.022672 0
3.540000 -0.002051 0
3.545000 -0.024098 0
3.550000 -0.043439 0
3.555000 -0.060133 0
3.560000 -0.074306 0
3.565000 -0.086139 0
3.570000 -0.095847 0
3.575000 -0.103663 0
3.580000 -0.109828 0
3.585000 -0.114578 0
3.590000 -0.118135 0
3.595000 -0.120704 0
3.600000 -0.122468 0
3.605000 -0.121933 0
3.610000 -0.121013 0
3.615000 -0.120097 0
3.620000 -0.119186 0
3.625000 -0.118278 0
3.630000 -0.117374 0
3.635000 -0.116472 0
3.640000 -0.115570 0
3.645000 -0.114661 0
3.650000 -0.113738 0
3.655000 -0.112783 0
3.660000 -0.111768 0
3.665000 -0.110646 0
3.670000 -0.109340 0
3.675000 -0.107734 0
3.680000 -0.105655 0
3.685000 -0.102861 0
3.690000 -0.099025 0
3.695000 -0.093732 0
3.700000 -0.086479 0
3.705000 -0.076708 0
3.710000 -0.063846 0
3.715000 -0.047386 0
3.720000 -0.026979 0
3.725000 -0.002546 0
3.730000 0.025618 0
3.735000 0.056762 0
3.740000 0.089651 0
3.745000 0.122603 0
3.750000 0.153611 0
3.755000 0.180529 0
3.760000 0.201313 0
3.765000 0.214277 0
3.770000 0.218320 1
3.775000 0.213077 0
3.780000 0.198975 0
3.785000 0.177176 0
3.790000 0.149415 0
3.795000 0.117765 0
3.800000 0.084341 0
3.805000 0.050909 0
3.810000 0.018301 0
3.815000 -0.014460 0
3.820000 -0.050902 0
3.825000 -0.096325 0
3.830000 -0.153691 0
3.835000 -0.216756 0
3.840000 -0.265278 0
3.845000 -0.267586 2
3.850000 -0.189529 0
3.855000 -0.005102 0
3.860000 0.289230 0
3.865000 0.652500 0
3.870000 0.986280 0
3.875000 1.164462 3
3.880000 1.106298 0
3.885000 0.833085 0
3.890000 0.451361 0
3.895000 0.083337 0
3.900000 -0.189995 0
3.905000 -0.339396 0
3.910000 -0.372955 4
3.915000 -0.322568 0
3.920000 -0.231656 0
3.925000 -0.138867 0
3.930000 -0.065138 0
3.935000 -0.012990 0
3.940000 0.024747 0
3.945000 0.056088 0
3.950000 0.086041 0
3.955000 0.116683 0
3.960000 0.148421 0
3.965000 0.180935 0
3.970000 0.213618 0
3.975000 0.245733 0
3.980000 0.276473 0
3.985000 0.305002 0
3.990000 0.330493 0
3.995000 0.352164 0
4.000000 0.369320 0
4.005000 0.381387 0
4.010000 0.387945 0
4.015000 0.388751 5
4.020000 0.383753 0
4.025000 0.373091 0
4.030000 0.357096 0
4.035000 0.336264 0
4.040000 0.311239 0
4.045000 0.282771 0
4.050000 0.251683 0
4.055000 0.218832 0
4.060000 0.185065 0
4.065000 0.151190 0
4.070000 0.117939 0
4.075000 0.085950 0
4.080000 0.055749 0
4.085000 0.027739 0
4.090000 0.002202 0
4.095000 -0.020695 0
4.100000 -0.040893 0
4.105000 -0.058422 0
4.110000 -0.073389 0
4.115000 -0.085959 0
4.120000 -0.096334 0
4.125000 -0.104743 0
4.130000 -0.111425 0
4.135000 -0.116616 0
4.140000 -0.120543 0
4.145000 -0.123416 0
4.150000 -0.125425 0
4.155000 -0.126410 0
4.160000 -0.125468 0
4.165000 -0.124530 0
4.170000 -0.123596 0
4.175000 -0.122667 0
4.180000 -0.121742 0
4.185000 -0.120819 0
4.190000 -0.119897 0
4.195000 -0.118972 0
4.200000 -0.118036 0
4.205000 -0.117076 0
4.210000 -0.116069 0
4.215000 -0.114975 0
4.220000 -0.113733 0
4.225000 -0.112242 0
4.230000 -0.110354 0
4.235000 -0.107859 0
4.240000 -0.104464 0
4.245000 -0.099793 0
4.250000 -0.093378 0
4.255000 -0.084682 0
4.260000 -0.073134 0
4.265000 -0.058193 0
4.270000 -0.039432 0
4.275000 -0.016649 0
4.280000 0.010029 0
4.285000 0.040053 0
4.290000 0.072397 0
4.295000 0.105568 0
4.300000 0.137689 0
4.305000 0.166656 0
4.310000 0.190363 0
4.315000 0.206946 0
4.320000 0.215030 1
4.325000 0.213918 0
4.330000 0.203684 0
4.335000 0.185171 0
4.340000 0.159875 0
4.345000 0.129740 0
4.350000 0.096890 0
4.355000 0.063299 0
4.360000 0.030313 0
4.365000 -0.002086 0
4.370000 -0.036186 0
4.375000 -0.076710 0
4.380000 -0.128452 0
4.385000 -0.190414 0
4.390000 -0.249295 0
4.395000 -0.278196 2
4.400000 -0.243039 0
4.405000 -0.112642 0
4.410000 0.129707 0
4.415000 0.467856 0
4.420000 0.831663 0
4.425000 1.102124 0
4.430000 1.166420 3
4.435000 0.991648 0
4.440000 0.648259 0
4.445000 0.259852 0
4.450000 -0.067841 0
4.455000 -0.280707 0
4.460000 -0.370065 4
4.465000 -0.357135 0
4.470000 -0.281238 0
4.475000 -0.185487 0
4.480000 -0.100713 0
4.485000 -0.038089 0
4.490000 0.005912 0
4.495000 0.039685 0
4.500000 0.069936 0
4.505000 0.100101 0
4.510000 0.131288 0
4.515000 0.163468 0
4.520000 0.196153 0
4.525000 0.228662 0
4.530000 0.260220 0
4.535000 0.290005 0
4.540000 0.317180 0
4.545000 0.340937 0
4.550000 0.360532 0
4.555000 0.375325 0
4.560000 0.384813 0
4.565000 0.388658 5
4.570000 0.386707 0
4.575000 0.379000 0
4.580000 0.365768 0
4.585000 0.347423 0
4.590000 0.324532 0
4.595000 0.297792 0
4.600000 0.267993 0
4.605000 0.235975 0
4.610000 0.202595 0
4.615000 0.168684 0
4.620000 0.135016 0
4.625000 0.102282 0
4.630000 0.071067 0
4.635000 0.041839 0
4.640000 0.014946 0
4.645000 -0.009385 0
4.650000 -0.031040 0
4.655000 -0.050000 0
4.660000 -0.066336 0
4.665000 -0.080181 0
4.670000 -0.091719 0
4.675000 -0.101166 0
4.680000 -0.108757 0
4.685000 -0.114730 0
4.690000 -0.119318 0
4.695000 -0.122740 0
4.700000 -0.125198 0
4.705000 -0.126871 0
4.710000 -0.126304 0
4.715000 -0.125362 0
4.720000 -0.124425 0
4.725000 -0.123492 0
4.730000 -0.122563 0
4.735000 -0.121637 0
4.740000 -0.120713 0
4.745000 -0.119789 0
4.750000 -0.118859 0
4.755000 -0.117913 0
4.760000 -0.116935 0
4.765000 -0.115894 0
4.770000 -0.114744 0
4.775000 -0.113406 0
4.780000 -0.111762 0
4.785000 -0.109639 0
4.790000 -0.106793 0
4.795000 -0.102896 0
4.800000 -0.097532 0
4.805000 -0.090201 0
4.810000 -0.080346 0
4.815000 -0.067402 0
4.820000 -0.050864 0
4.825000 -0.030391 0
4.830000 -0.005907 0
4.835000 0.022291 0
4.840000 0.053455 0
4.845000 0.086357 0
4.850000 0.119331 0
4.855000 0.150384 0
4.860000 0.177384 0
4.865000 0.198301 0
4.870000 0.211452 0
4.875000 0.215730 1
4.880000 0.210754 0
4.885000 0.196928 0
4.890000 0.175383 0
4.895000 0.147826 0
4.900000 0.116310 0
4.905000 0.082938 0
4.910000 0.049491 0
4.915000 0.016860 0
4.920000 -0.015806 0
4.925000 -0.051866 0
4.930000 -0.096555 0
4.935000 -0.153158 0
4.940000 -0.216302 0
4.945000 -0.266884 0
4.950000 -0.274038 2
4.955000 -0.203668 0
4.960000 -0.028852 0
4.965000 0.256603 0
4.970000 0.616842 0
4.975000 0.958979 0
4.980000 1.157630 3
4.985000 1.124937 0
4.990000 0.871206 0
4.995000 0.495402 0
5.000000 0.120201 0
5.005000 -0.167962 0
5.010000 -0.334275 0
5.015000 -0.382668 4
5.020000 -0.341997 0
5.025000 -0.254431 0
5.030000 -0.159945 0
5.035000 -0.082417 0
5.040000 -0.026890 0
5.045000 0.012804 0
5.050000 0.044873 0
5.055000 0.074884 0
5.060000 0.105348 0
5.065000 0.136899 0
5.070000 0.169318 0
5.075000 0.202047 0
5.080000 0.234378 0
5.085000 0.265526 0
5.090000 0.294670 0
5.095000 0.320987 0
5.100000 0.343691 0
5.105000 0.362069 0
5.110000 0.375523 0
5.115000 0.383595 0
5.120000 0.385998 5
5.125000 0.382627 0
5.130000 0.373569 0
5.135000 0.359098 0
5.140000 0.339660 0
5.145000 0.315850 0
5.150000 0.288381 0
5.155000 0.258048 0
5.160000 0.225690 0
5.165000 0.192152 0
5.170000 0.158248 0
5.175000 0.124729 0
5.180000 0.092260 0
5.185000 0.061398 0
5.190000 0.032585 0
5.195000 0.006143 0
5.200000 -0.017723 0
5.205000 -0.038916 0
5.210000 -0.057436 0
5.215000 -0.073360 0
5.220000 -0.086832 0
5.225000 -0.098038 0
5.230000 -0.107195 0
5.235000 -0.114537 0
5.240000 -0.120300 0
5.245000 -0.124713 0
5.250000 -0.127991 0
5.255000 -0.130331 0
5.260000 -0.131537 0
5.265000 -0.130569 0
5.270000 -0.129606 0
5.275000 -0.128647 0
5.280000 -0.127693 0
5.285000 -0.126743 0
5.290000 -0.125796 0
5.295000 -0.124852 0
5.300000 -0.123906 0
5.305000 -0.122955 0
5.310000 -0.121987 0
5.315000 -0.120986 0
5.320000 -0.119922 0
5.325000 -0.118746 0
5.330000 -0.117381 0
5.335000 -0.115709 0
5.340000 -0.113555 0
5.345000 -0.110678 0
5.350000 -0.106753 0
5.355000 -0.101365 0
5.360000 -0.094023 0
5.365000 -0.084174 0
5.370000 -0.071257 0
5.375000 -0.054774 0
5.380000 -0.034382 0
5.385000 -0.009998 0
5.390000 0.018095 0
5.395000 0.049175 0
5.400000 0.082047 0
5.405000 0.115077 0
5.410000 0.146307 0
5.415000 0.173631 0
5.420000 0.195024 0
5.425000 0.208793 0
5.430000 0.213793 1
5.435000 0.209590 0
5.440000 0.196519 0
5.445000 0.175641 0
5.450000 0.148601 0
5.455000 0.117408 0
5.460000 0.084155 0
5.465000 0.050661 0
5.470000 0.017947 0
5.475000 -0.014570 0
5.480000 -0.049887 0
5.485000 -0.093083 0
5.490000 -0.148034 0
5.495000 -0.211054 0
5.500000 -0.265317 0
5.505000 -0.281606 2
5.510000 -0.226007 0
5.515000 -0.069965 0
5.520000 0.197403 0
5.525000 0.549497 0
5.530000 0.904225 0
5.535000 1.139117 0
5.540000 1.153829 3
5.545000 0.937482 0
5.550000 0.575752 0
5.555000 0.191758 0
5.560000 -0.118643 0
5.565000 -0.311002 0
5.570000 -0.382550 4
5.575000 -0.357646 0
5.580000 -0.276523 0
5.585000 -0.180798 0
5.590000 -0.098433 0
5.595000 -0.038212 0
5.600000 0.004359 0
5.605000 0.037584 0
5.610000 0.067757 0
5.615000 0.098004 0
5.620000 0.129289 0
5.625000 0.161537 0
5.630000 0.194249 0
5.635000 0.226750 0
5.640000 0.258276 0
5.645000 0.288017 0
5.650000 0.315150 0
5.655000 0.338882 0
5.660000 0.358483 0
5.665000 0.373323 0
5.670000 0.382908 0
5.675000 0.386903 5
5.680000 0.385152 0
5.685000 0.377689 0
5.690000 0.364734 0
5.695000 0.346682 0
5.700000 0.324085 0
5.705000 0.297621 0
5.710000 0.268059 0
5.715000 0.236224 0
5.720000 0.202958 0
5.725000 0.169082 0
5.730000 0.135365 0
5.735000 0.102497 0
5.740000 0.071066 0
5.745000 0.041551 0
5.750000 0.014308 0
5.755000 -0.010422 0
5.760000 -0.032508 0
5.765000 -0.051919 0
5.770000 -0.068708 0
5.775000 -0.082998 0
5.780000 -0.094960 0
5.785000 -0.104804 0
5.790000 -0.112755 0
5.795000 -0.119049 0
5.800000 -0.123917 0
5.805000 -0.127578 0
5.810000 -0.130235 0
5.815000 -0.132070 0
5.820000 -0.131506 0
5.825000 -0.130538 0
5.830000 -0.129575 0
5.835000 -0.128616 0
5.840000 -0.127662 0
5.845000 -0.126711 0
5.850000 -0.125763 0
5.855000 -0.124816 0
5.860000 -0.123865 0
5.865000 -0.122903 0
5.870000 -0.121915 0
5.875000 -0.120879 0
5.880000 -0.119754 0
5.885000 -0.118476 0
5.890000 -0.116947 0
5.895000 -0.115018 0
5.900000 -0.112479 0
5.905000 -0.109043 0
5.910000 -0.104337 0
5.915000 -0.097902 0
5.920000 -0.089212 0
5.925000 -0.077706 0
5.930000 -0.062851 0
5.935000 -0.044225 0
5.940000 -0.021618 0
5.945000 0.004864 0
5.950000 0.034707 0
5.955000 0.066936 0
5.960000 0.100120 0
5.965000 0.132443 0
5.970000 0.161853 0
5.975000 0.186272 0
5.980000 0.203832 0
5.985000 0.213112 0
5.990000 0.213331 1
5.995000 0.204454 0
6.000000 0.187197 0
6.005000 0.162939 0
6.010000 0.133528 0
6.015000 0.101041 0
6.020000 0.067473 0
6.025000 0.034317 0
6.030000 0.001910 0
6.035000 -0.031442 0
6.040000 -0.069919 0
6.045000 -0.118623 0
6.050000 -0.178648 0
6.055000 -0.240459 0
6.060000 -0.280851 2
6.065000 -0.267363 0
6.070000 -0.167533 0
6.075000 0.040689 0
6.080000 0.353679 0
6.085000 0.720579 0
6.090000 1.036418 0
6.095000 1.179865 3
6.100000 1.085681 0
6.105000 0.790084 0
6.110000 0.403767 0
6.115000 0.043264 0
6.120000 -0.218293 0
6.125000 -0.356797 0
6.130000 -0.382655 4
6.135000 -0.328325 0
6.140000 -0.236420 0
6.145000 -0.144040 0
6.150000 -0.070858 0
6.155000 -0.018933 0
6.160000 0.018815 0
6.165000 0.050216 0
6.170000 0.080193 0
6.175000 0.110820 0
6.180000 0.142531 0
6.185000 0.175034 0
6.190000 0.207747 0
6.195000 0.239957 0
6.200000 0.270881 0
6.205000 0.299707 0
6.210000 0.325622 0
6.215000 0.347859 0
6.220000 0.365723 0
6.225000 0.378638 0
6.230000 0.386169 0
6.235000 0.388046 5
6.240000 0.384184 0
6.245000 0.374686 0
6.250000 0.359835 0
6.255000 0.340084 0
6.260000 0.316028 0
6.265000 0.288379 0
6.270000 0.257926 0
6.275000 0.225498 0
6.280000 0.191929 0
6.285000 0.158022 0
6.290000 0.124517 0
6.295000 0.092067 0
6.300000 0.061223 0
6.305000 0.032419 0
6.310000 0.005972 0
6.315000 -0.017914 0
6.320000 -0.039143 0
6.325000 -0.057714 0
6.330000 -0.073702 0
6.335000 -0.087247 0
6.340000 -0.098532 0
6.345000 -0.107772 0
6.350000 -0.115196 0
6.355000 -0.121038 0
6.360000 -0.125524 0
6.365000 -0.128869 0
6.370000 -0.131268 0
6.375000 -0.132894 0
6.380000 -0.132296 0
6.385000 -0.131324 0
6.390000 -0.130357 0
6.395000 -0.129394 0
6.400000 -0.128436 0
6.405000 -0.127481 0
6.410000 -0.126528 0
6.415000 -0.125576 0
6.420000 -0.124617 0
6.425000 -0.123645 0
6.430000 -0.122643 0
6.435000 -0.121584 0
6.440000 -0.120423 0
6.445000 -0.119090 0
6.450000 -0.117474 0
6.455000 -0.115416 0
6.460000 -0.112688 0
6.465000 -0.108985 0
6.470000 -0.103917 0
6.475000 -0.097010 0
6.480000 -0.087728 0
6.485000 -0.075514 0
6.490000 -0.059855 0
6.495000 -0.040368 0
6.500000 -0.016905 0
6.505000 0.010349 0
6.510000 0.040788 0
6.515000 0.073348 0
6.520000 0.106516 0
6.525000 0.138426 0
6.530000 0.167016 0
6.535000 0.190239 0
6.540000 0.206308 0
6.545000 0.213920 1
6.550000 0.212432 0
6.555000 0.201950 0
6.560000 0.183318 0
6.565000 0.158005 0
6.570000 0.127909 0
6.575000 0.095104 0
6.580000 0.061524 0
6.585000 0.028514 0
6.590000 -0.003862 0
6.595000 -0.037688 0
6.600000 -0.077449 0
6.605000 -0.128005 0
6.610000 -0.189240 0
6.615000 -0.249658 0
6.620000 -0.284378 2
6.625000 -0.260510 0
6.630000 -0.146577 0
6.635000 0.076915 0
6.640000 0.401267 0
6.645000 0.768438 0
6.650000 1.068694 0
6.655000 1.184273 3
6.660000 1.061715 0
6.665000 0.748956 0
6.670000 0.360221 0
6.675000 0.007882 0
6.680000 -0.241198 0
6.685000 -0.367443 0
6.690000 -0.383867 4
6.695000 -0.324220 0
6.700000 -0.230955 0
6.705000 -0.139689 0
6.710000 -0.068300 0
6.715000 -0.017738 0
6.720000 0.019328 0
6.725000 0.050524 0
6.730000 0.080511 0
6.735000 0.111208 0
6.740000 0.142980 0
6.745000 0.175516 0
6.750000 0.208227 0
6.755000 0.240403 0
6.760000 0.271267 0
6.765000 0.300009 0
6.770000 0.325828 0
6.775000 0.347961 0
6.780000 0.365726 0
6.785000 0.378551 0
6.790000 0.386008 0
6.795000 0.387832 5
6.800000 0.383942 0
6.805000 0.374439 0
6.810000 0.359606 0
6.815000 0.339889 0
6.820000 0.315881 0
6.825000 0.288284 0
6.830000 0.257881 0
6.835000 0.225494 0
6.840000 0.191950 0
6.845000 0.158047 0
6.850000 0.124521 0
6.855000 0.092024 0
6.860000 0.061105 0
6.865000 0.032201 0
6.870000 0.005633 0
6.875000 -0.018394 0
6.880000 -0.039777 0
6.885000 -0.058510 0
6.890000 -0.074664 0
6.895000 -0.088372 0
6.900000 -0.099815 0
6.905000 -0.109203 0
6.910000 -0.116763 0
6.915000 -0.122727 0
6.920000 -0.127321 0
6.925000 -0.130758 0
6.930000 -0.133234 0
6.935000 -0.134925 0
6.940000 -0.134327 0
6.945000 -0.133345 0
6.950000 -0.132368 0
6.955000 -0.131396 0
6.960000 -0.130427 0
6.965000 -0.129463 0
6.970000 -0.128501 0
6.975000 -0.127539 0
6.980000 -0.126573 0
6.985000 -0.125595 0
6.990000 -0.124590 0
6.995000 -0.123533 0
7.000000 -0.122384 0
7.005000 -0.121076 0
7.010000 -0.119509 0
7.015000 -0.117533 0
7.020000 -0.114935 0
7.025000 -0.111428 0
7.030000 -0.106638 0
7.035000 -0.100111 0
7.040000 -0.091325 0
7.045000 -0.079727 0
7.050000 -0.064793 0
7.055000 -0.046109 0
7.060000 -0.023473 0
7.065000 0.003010 0
7.070000 0.032834 0
7.075000 0.065042 0
7.080000 0.098230 0
7.085000 0.130614 0
7.090000 0.160176 0
7.095000 0.184863 0
7.100000 0.202817 0
7.105000 0.212612 0
7.110000 0.213436 1
7.115000 0.205204 0
7.120000 0.188573 0
7.125000 0.164855 0
7.130000 0.135842 0
7.135000 0.103573 0
7.140000 0.070041 0
7.145000 0.036797 0
7.150000 0.004350 0
7.155000 -0.028684 0
7.160000 -0.066136 0
7.165000 -0.113130 0
7.170000 -0.171729 0
7.175000 -0.234457 0
7.180000 -0.280451 2
7.185000 -0.278623 0
7.190000 -0.196254 0
7.195000 -0.008883 0
7.200000 0.286180 0
7.205000 0.649234 0
7.210000 0.986054 0
7.215000 1.174826 3
7.220000 1.133282 0
7.225000 0.874465 0
7.230000 0.497445 0
7.235000 0.122696 0
7.240000 -0.165321 0
7.245000 -0.332502 0
7.250000 -0.382534 4
7.255000 -0.343510 0
7.260000 -0.256762 0
7.265000 -0.161942 0
7.270000 -0.083321 0
7.275000 -0.026638 0
7.280000 0.013823 0
7.285000 0.046209 0
7.290000 0.076239 0
7.295000 0.106593 0
7.300000 0.138014 0
7.305000 0.170339 0
7.310000 0.203042 0
7.315000 0.235440 0
7.320000 0.266771 0
7.325000 0.296228 0
7.330000 0.323000 0
7.335000 0.346308 0
7.340000 0.365437 0
7.345000 0.379778 0
7.350000 0.388853 0
7.355000 0.392348 5
7.360000 0.390125 0
7.365000 0.382230 0
7.370000 0.368894 0
7.375000 0.350521 0
7.380000 0.327664 0
7.385000 0.300999 0
7.390000 0.271293 0
7.395000 0.239363 0
7.400000 0.206041 0
7.405000 0.172138 0
7.410000 0.138414 0
7.415000 0.105549 0
7.420000 0.074122 0
7.425000 0.044606 0
7.430000 0.017352 0
7.435000 -0.007402 0
7.440000 -0.029525 0
7.445000 -0.048988 0
7.450000 -0.065841 0
7.455000 -0.080203 0
7.460000 -0.092246 0
7.465000 -0.102173 0
7.470000 -0.110209 0
7.475000 -0.116586 0
7.480000 -0.121533 0
7.485000 -0.125269 0
7.490000 -0.127994 0
7.495000 -0.129890 0
7.500000 -0.129344 0
7.505000 -0.128387 0
7.510000 -0.127435 0
7.515000 -0.126487 0
7.520000 -0.125543 0
7.525000 -0.124603 0
7.530000 -0.123666 0
7.535000 -0.122730 0
7.540000 -0.121791 0
7.545000 -0.120841 0
7.550000 -0.119869 0
7.555000 -0.118852 0
7.560000 -0.117754 0
7.565000 -0.116514 0
7.570000 -0.115041 0
7.575000 -0.113197 0
7.580000 -0.110784 0
7.585000 -0.107530 0
7.590000 -0.103082 0
7.595000 -0.097000 0
7.600000 -0.088772 0
7.605000 -0.077847 0
7.610000 -0.063685 0
7.615000 -0.045842 0
7.620000 -0.024060 0
7.625000 0.001628 0
7.630000 0.030804 0
7.635000 0.062603 0
7.640000 0.095704 0
7.645000 0.128386 0
7.650000 0.158658 0
7.655000 0.184446 0
7.660000 0.203831 0
7.665000 0.215280 0
7.670000 0.217846 1
7.675000 0.211299 0
7.680000 0.196159 0
7.685000 0.173629 0
7.690000 0.145433 0
7.695000 0.113591 0
7.700000 0.080135 0
7.705000 0.046741 0
7.710000 0.014165 0
7.715000 -0.018575 0
7.720000 -0.054897 0
7.725000 -0.099929 0
7.730000 -0.156728 0
7.735000 -0.219874 0
7.740000 -0.270729 0
7.745000 -0.279322 2
7.750000 -0.212428 0
7.755000 -0.043370 0
7.760000 0.235422 0
7.765000 0.592475 0
7.770000 0.941592 0
7.775000 1.161136 3
7.780000 1.157571 0
7.785000 0.927892 0
7.790000 0.561205 0
7.795000 0.179107 0
7.800000 -0.126292 0
7.805000 -0.313461 0
7.810000 -0.381060 4
7.815000 -0.353903 0
7.820000 -0.272005 0
7.825000 -0.176326 0
7.830000 -0.094182 0
7.835000 -0.034061 0
7.840000 0.008521 0
7.845000 0.041771 0
7.850000 0.071935 0
7.855000 0.102140 0
7.860000 0.133370 0
7.865000 0.165566 0
7.870000 0.198245 0
7.875000 0.230746 0
7.880000 0.262316 0
7.885000 0.292157 0
7.890000 0.319457 0
7.895000 0.343431 0
7.900000 0.363350 0
7.905000 0.378585 0
7.910000 0.388635 0
7.915000 0.393153 5
7.920000 0.391970 0
7.925000 0.385098 0
7.930000 0.372735 0
7.935000 0.355253 0
7.940000 0.333178 0
7.945000 0.307165 0
7.950000 0.277966 0
7.955000 0.246388 0
7.960000 0.213262 0
7.965000 0.179406 0
7.970000 0.145588 0
7.975000 0.112505 0
7.980000 0.080756 0
7.985000 0.050833 0
7.990000 0.023111 0
7.995000 -0.002150 0
8.000000 -0.024802 0
8.005000 -0.044793 0
8.010000 -0.062161 0
8.015000 -0.077013 0
8.020000 -0.089510 0
8.025000 -0.099849 0
8.030000 -0.108253 0
8.035000 -0.114952 0
8.040000 -0.120176 0
8.045000 -0.124146 0
8.050000 -0.127067 0
8.055000 -0.129124 0
8.060000 -0.130143 0
8.065000 -0.129182 0
8.070000 -0.128225 0
8.075000 -0.127274 0
8.080000 -0.126326 0
8.085000 -0.125383 0
8.090000 -0.124442 0
8.095000 -0.123503 0
8.100000 -0.122562 0
8.105000 -0.121613 0
8.110000 -0.120644 0
8.115000 -0.119637 0
8.120000 -0.118558 0
8.125000 -0.117353 0
8.130000 -0.115939 0
8.135000 -0.114190 0
8.140000 -0.111922 0
8.145000 -0.108883 0
8.150000 -0.104737 0
8.155000 -0.099065 0
8.160000 -0.091371 0
8.165000 -0.081109 0
8.170000 -0.067731 0
8.175000 -0.050766 0
8.180000 -0.029901 0
8.185000 -0.005096 0
8.190000 0.023329 0
8.195000 0.054617 0
8.200000 0.087556 0
8.205000 0.120511 0
8.210000 0.151543 0
8.215000 0.178583 0
8.220000 0.199656 0
8.225000 0.213120 0
8.230000 0.217874 1
8.235000 0.213510 0
8.240000 0.200370 0
8.245000 0.179498 0
8.250000 0.152509 0
8.255000 0.121369 0
8.260000 0.088135 0
8.265000 0.054609 0
8.270000 0.021841 0
8.275000 -0.010636 0
8.280000 -0.045609 0
8.285000 -0.087985 0
8.290000 -0.141878 0
8.295000 -0.204627 0
8.300000 -0.261098 0
8.305000 -0.283653 2
8.310000 -0.239036 0
8.315000 -0.097971 0
8.320000 0.153597 0
8.325000 0.496430 0
8.330000 0.858706 0
8.335000 1.123511 0
8.340000 1.182883 3
8.345000 1.006613 0
8.350000 0.663549 0
8.355000 0.274772 0
8.360000 -0.055525 0
8.365000 -0.273063 0
8.370000 -0.368042 4
8.375000 -0.360130 0
8.380000 -0.287134 0
8.385000 -0.191572 0
8.390000 -0.105040 0
8.395000 -0.040163 0
8.400000 0.005507 0
8.405000 0.040089 0
8.410000 0.070521 0
8.415000 0.100564 0
8.420000 0.131548 0
8.425000 0.163562 0
8.430000 0.196174 0
8.435000 0.228743 0
8.440000 0.260524 0
8.445000 0.290719 0
8.450000 0.318509 0
8.455000 0.343093 0
8.460000 0.363727 0
8.465000 0.379755 0
8.470000 0.390649 0
8.475000 0.396035 5
8.480000 0.395711 0
8.485000 0.389661 0
8.490000 0.378058 0
8.495000 0.361251 0
8.500000 0.339752 0
8.505000 0.314204 0
8.510000 0.285353 0
8.515000 0.254009 0
8.520000 0.221008 0
8.525000 0.187177 0
8.530000 0.153300 0
8.535000 0.120086 0
8.540000 0.088151 0
8.545000 0.058004 0
8.550000 0.030034 0
8.555000 0.004515 0
8.560000 -0.018394 0
8.565000 -0.038633 0
8.570000 -0.056233 0
8.575000 -0.071296 0
8.580000 -0.083981 0
8.585000 -0.094485 0
8.590000 -0.103031 0
8.595000 -0.109851 0
8.600000 -0.115177 0
8.605000 -0.119232 0
8.610000 -0.122223 0
8.615000 -0.124338 0
8.620000 -0.125403 0
8.625000 -0.124465 0
8.630000 -0.123532 0
8.635000 -0.122604 0
8.640000 -0.121680 0
8.645000 -0.120759 0
8.650000 -0.119842 0
8.655000 -0.118926 0
8.660000 -0.118008 0
8.665000 -0.117082 0
8.670000 -0.116136 0
8.675000 -0.115150 0
8.680000 -0.114093 0
8.685000 -0.112908 0
8.690000 -0.111513 0
8.695000 -0.109777 0
8.700000 -0.107516 0
8.705000 -0.104473 0
8.710000 -0.100307 0
8.715000 -0.094594 0
8.720000 -0.086829 0
8.725000 -0.076463 0
8.730000 -0.062946 0
8.735000 -0.045805 0
8.740000 -0.024740 0
8.745000 0.000275 0
8.750000 0.028890 0
8.755000 0.060315 0
8.760000 0.093296 0
8.765000 0.126160 0
8.770000 0.156934 0
8.775000 0.183533 0
8.780000 0.203985 0
8.785000 0.216674 0
8.790000 0.220549 1
8.795000 0.215271 0
8.800000 0.201257 0
8.805000 0.179629 0
8.810000 0.152061 0
8.815000 0.120562 0
8.820000 0.087193 0
8.825000 0.053710 0
8.830000 0.021030 0
8.835000 -0.011579 0
8.840000 -0.047259 0
8.845000 -0.091096 0
8.850000 -0.146688 0
8.855000 -0.209816 0
8.860000 -0.263177 0
8.865000 -0.277489 2
8.870000 -0.219216 0
8.875000 -0.060435 0
8.880000 0.208988 0
8.885000 0.561822 0
8.890000 0.916088 0
8.895000 1.150456 0
8.900000 1.165769 3
8.905000 0.950499 0
8.910000 0.588984 0
8.915000 0.204933 0
8.920000 -0.105299 0
8.925000 -0.297133 0
8.930000 -0.367935 4
8.935000 -0.342342 0
8.940000 -0.260875 0
8.945000 -0.165269 0
8.950000 -0.083343 0
8.955000 -0.023619 0
8.960000 0.018583 0
8.965000 0.051601 0
8.970000 0.081682 0
8.975000 0.111889 0
8.980000 0.143147 0
8.985000 0.175358 0
8.990000 0.208012 0
8.995000 0.240427 0
9.000000 0.271831 0
9.005000 0.301408 0
9.010000 0.328334 0
9.015000 0.351813 0
9.020000 0.371114 0
9.025000 0.385611 0
9.030000 0.394817 0
9.035000 0.398403 5
9.040000 0.396227 0
9.045000 0.388332 0
9.050000 0.374953 0
9.055000 0.356498 0
9.060000 0.333533 0
9.065000 0.306745 0
9.070000 0.276915 0
9.075000 0.244874 0
9.080000 0.211468 0
9.085000 0.177520 0
9.090000 0.143795 0
9.095000 0.110979 0
9.100000 0.079655 0
9.105000 0.050289 0
9.110000 0.023231 0
9.115000 -0.001288 0
9.120000 -0.023150 0
9.125000 -0.042332 0
9.130000 -0.058896 0
9.135000 -0.072971 0
9.140000 -0.084735 0
9.145000 -0.094400 0
9.150000 -0.102196 0
9.155000 -0.108359 0
9.160000 -0.113120 0
9.165000 -0.116698 0
9.170000 -0.119293 0
9.175000 -0.121087 0
9.180000 -0.120563 0
9.185000 -0.119650 0
9.190000 -0.118741 0
9.195000 -0.117836 0
9.200000 -0.116935 0
9.205000 -0.116038 0
9.210000 -0.115143 0
9.215000 -0.114248 0
9.220000 -0.113348 0
9.225000 -0.112434 0
9.230000 -0.111492 0
9.235000 -0.110496 0
9.240000 -0.109401 0
9.245000 -0.108140 0
9.250000 -0.106604 0
9.255000 -0.104635 0
9.260000 -0.102010 0
9.265000 -0.098425 0
9.270000 -0.093489 0
9.275000 -0.086727 0
9.280000 -0.077599 0
9.285000 -0.065542 0
9.290000 -0.050035 0
9.295000 -0.030686 0
9.300000 -0.007338 0
9.305000 0.019827 0
9.310000 0.050203 0
9.315000 0.082715 0
9.320000 0.115835 0
9.325000 0.147674 0
9.330000 0.176147 0
9.335000 0.199187 0
9.340000 0.214995 0
9.345000 0.222270 1
9.350000 0.220387 0
9.355000 0.209483 0
9.360000 0.190440 0
9.365000 0.164770 0
9.370000 0.134408 0
9.375000 0.101454 0
9.380000 0.067838 0
9.385000 0.034852 0
9.390000 0.002424 0
9.395000 -0.031763 0
9.400000 -0.072406 0
9.405000 -0.124215 0
9.410000 -0.186185 0
9.415000 -0.245245 0
9.420000 -0.274968 2
9.425000 -0.241765 0
9.430000 -0.114678 0
9.435000 0.123463 0
9.440000 0.458402 0
9.445000 0.823539 0
9.450000 1.102963 0
9.455000 1.182781 3
9.460000 1.023390 0
9.465000 0.688242 0
9.470000 0.298896 0
9.475000 -0.036393 0
9.480000 -0.259674 0
9.485000 -0.359227 4
9.490000 -0.354067 0
9.495000 -0.282158 0
9.500000 -0.186713 0
9.505000 -0.100067 0
9.510000 -0.035203 0
9.515000 0.010340 0
9.520000 0.044801 0
9.525000 0.075177 0
9.530000 0.105219 0
9.535000 0.136228 0
9.540000 0.168264 0
9.545000 0.200876 0
9.550000 0.233405 0
9.555000 0.265091 0
9.560000 0.295120 0
9.565000 0.322661 0
9.570000 0.346906 0
9.575000 0.367103 0
9.580000 0.382600 0
9.585000 0.392874 0
9.590000 0.397565 5
9.595000 0.396490 0
9.600000 0.389659 0
9.605000 0.377271 0
9.610000 0.359706 0
9.615000 0.337505 0
9.620000 0.311341 0
9.625000 0.281983 0
9.630000 0.250263 0
9.635000 0.217029 0
9.640000 0.183116 0
9.645000 0.149306 0
9.650000 0.116301 0
9.655000 0.084706 0
9.660000 0.055009 0
9.665000 0.027579 0
9.670000 0.002666 0
9.675000 -0.019593 0
9.680000 -0.039164 0
9.685000 -0.056096 0
9.690000 -0.070511 0
9.695000 -0.082582 0
9.700000 -0.092518 0
9.705000 -0.100549 0
9.710000 -0.106913 0
9.715000 -0.111842 0
9.720000 -0.115558 0
9.725000 -0.118266 0
9.730000 -0.120149 0
9.735000 -0.119642 0
9.740000 -0.118733 0
9.745000 -0.117829 0
9.750000 -0.116929 0
9.755000 -0.116033 0
9.760000 -0.115140 0
9.765000 -0.114250 0
9.770000 -0.113360 0
9.775000 -0.112465 0
9.780000 -0.111558 0
9.785000 -0.110625 0
9.790000 -0.109639 0
9.795000 -0.108559 0
9.800000 -0.107319 0
9.805000 -0.105814 0
9.810000 -0.103889 0
9.815000 -0.101325 0
9.820000 -0.097823 0
9.825000 -0.092995 0
9.830000 -0.086369 0
9.835000 -0.077407 0
9.840000 -0.065541 0
9.845000 -0.050243 0
9.850000 -0.031109 0
9.855000 -0.007965 0
9.860000 0.019024 0
9.865000 0.049272 0
9.870000 0.081718 0
9.875000 0.114846 0
9.880000 0.146768 0
9.885000 0.175391 0
9.890000 0.198632 0
9.895000 0.214672 0
9.900000 0.222185 1
9.905000 0.220521 0
9.910000 0.209800 0
9.915000 0.190895 0
9.920000 0.165314 0
9.925000 0.135001 0
9.930000 0.102062 0
9.935000 0.068443 0
9.940000 0.035450 0
9.945000 0.003020 0
9.950000 -0.031174 0
9.955000 -0.071849 0
9.960000 -0.123733 0
9.965000 -0.185755 0
9.970000 -0.244655 0
9.975000 -0.273740 2
9.980000 -0.239216 0
9.985000 -0.110092 0
9.990000 0.130473 0
9.995000 0.467182 0
10.000000 0.831648 0
10.005000 1.106527 0
10.010000 1.178609 3
10.015000 1.010706 0
10.020000 0.670285 0
10.025000 0.281535 0
10.030000 -0.047931 0
10.035000 -0.262548 0
10.040000 -0.353036 4
10.045000 -0.340577 0
10.050000 -0.264775 0
10.055000 -0.169109 0
10.060000 -0.084597 0
10.065000 -0.022345 0
10.070000 0.021324 0
10.075000 0.054886 0
10.080000 0.085033 0
10.085000 0.115151 0
10.090000 0.146309 0
10.095000 0.178453 0
10.100000 0.211077 0
10.105000 0.243491 0
10.110000 0.274909 0
10.115000 0.304500 0
10.120000 0.331419 0
10.125000 0.354855 0
10.130000 0.374062 0
10.135000 0.388404 0
10.140000 0.397384 0
10.145000 0.400678 5
10.150000 0.398145 0
10.155000 0.389844 0
10.160000 0.376025 0
10.165000 0.357121 0
10.170000 0.333720 0
10.175000 0.306537 0
10.180000 0.276374 0
10.185000 0.244085 0
10.190000 0.210532 0
10.195000 0.176549 0
10.200000 0.142907 0
10.205000 0.110290 0
10.210000 0.079272 0
10.215000 0.050308 0
10.220000 0.023732 0
10.225000 -0.000247 0
10.230000 -0.021528 0
10.235000 -0.040109 0
10.240000 -0.056072 0
10.245000 -0.069563 0
10.250000 -0.080772 0
10.255000 -0.089924 0
10.260000 -0.097255 0
10.265000 -0.103006 0
10.270000 -0.107410 0
10.275000 -0.110685 0
10.280000 -0.113030 0
10.285000 -0.114261 0
10.290000 -0.113379 0
10.295000 -0.112502 0
10.300000 -0.111628 0
10.305000 -0.110759 0
10.310000 -0.109893 0
10.315000 -0.109031 0
10.320000 -0.108169 0
10.325000 -0.107305 0
10.330000 -0.106433 0
10.335000 -0.105542 0
10.340000 -0.104611 0
10.345000 -0.103607 0
10.350000 -0.102475 0
10.355000 -0.101126 0
10.360000 -0.099429 0
10.365000 -0.097188 0
10.370000 -0.094135 0
10.375000 -0.089914 0
10.380000 -0.084080 0
10.385000 -0.076106 0
10.390000 -0.065423 0
10.395000 -0.051468 0
10.400000 -0.033774 0
10.405000 -0.012068 0
10.410000 0.013617 0
10.415000 0.042840 0
10.420000 0.074688 0
10.425000 0.107769 0
10.430000 0.140271 0
10.435000 0.170113 0
10.440000 0.195150 0
10.445000 0.213429 0
10.450000 0.223434 0
10.455000 0.224299 1
10.460000 0.215928 0
10.465000 0.199008 0
10.470000 0.174923 0
10.475000 0.145556 0
10.480000 0.113034 0
10.485000 0.079407 0
10.490000 0.046203 0
10.495000 0.013739 0
10.500000 -0.019799 0
10.505000 -0.058790 0
10.510000 -0.108388 0
10.515000 -0.169160 0
10.520000 -0.230190 0
10.525000 -0.266471 2
10.530000 -0.244226 0
10.535000 -0.130856 0
10.540000 0.093800 0
10.545000 0.420221 0
10.550000 0.786881 0
10.555000 1.079025 0
10.560000 1.177242 3
10.565000 1.033478 0
10.570000 0.705825 0
10.575000 0.316363 0
10.580000 -0.022811 0
10.585000 -0.250398 0
10.590000 -0.353077 4
10.595000 -0.349514 0
10.600000 -0.278061 0
10.605000 -0.182661 0
10.610000 -0.096194 0
10.615000 -0.031717 0
10.620000 0.013433 0
10.625000 0.047653 0
10.630000 0.077956 0
10.635000 0.108025 0
10.640000 0.139096 0
10.645000 0.171185 0
10.650000 0.203814 0
10.655000 0.236300 0
10.660000 0.267865 0
10.665000 0.297679 0
10.670000 0.324895 0
10.675000 0.348697 0
10.680000 0.368329 0
10.685000 0.383143 0
10.690000 0.392629 0
10.695000 0.396445 5
10.700000 0.394434 0
10.705000 0.386637 0
10.710000 0.373291 0
10.715000 0.354812 0
10.720000 0.331778 0
10.725000 0.304895 0
10.730000 0.274963 0
10.735000 0.242833 0
10.740000 0.209369 0
10.745000 0.175410 0
10.750000 0.141735 0
10.755000 0.109035 0
10.760000 0.077895 0
10.765000 0.048781 0
10.770000 0.022034 0
10.775000 -0.002125 0
10.780000 -0.023587 0
10.785000 -0.042346 0
10.790000 -0.058476 0
10.795000 -0.072119 0
10.800000 -0.083465 0
10.805000 -0.092735 0
10.810000 -0.100167 0
10.815000 -0.106002 0
10.820000 -0.110473 0
10.825000 -0.113800 0
10.830000 -0.116184 0
10.835000 -0.117437 0
10.840000 -0.116539 0
10.845000 -0.115646 0
10.850000 -0.114757 0
10.855000 -0.113872 0
10.860000 -0.112991 0
10.865000 -0.112113 0
10.870000 -0.111236 0
10.875000 -0.110357 0
10.880000 -0.109471 0
10.885000 -0.108566 0
10.890000 -0.107624 0
10.895000 -0.106611 0
10.900000 -0.105473 0
10.905000 -0.104124 0
10.910000 -0.102435 0
10.915000 -0.100214 0
10.920000 -0.097197 0
10.925000 -0.093031 0
10.930000 -0.087275 0
10.935000 -0.079407 0
10.940000 -0.068855 0
10.945000 -0.055055 0
10.950000 -0.037531 0
10.955000 -0.016000 0
10.960000 0.009524 0
10.965000 0.038618 0
10.970000 0.070391 0
10.975000 0.103467 0
10.980000 0.136050 0
10.985000 0.166060 0
10.990000 0.191350 0
10.995000 0.209948 0
11.000000 0.220316 0
11.005000 0.221557 1
11.010000 0.213542 0
11.015000 0.196934 0
11.020000 0.173093 0
11.025000 0.143892 0
11.030000 0.111458 0
11.035000 0.077853 0
11.040000 0.044634 0
11.045000 0.012173 0
11.050000 -0.021263 0
11.055000 -0.059989 0
11.060000 -0.109204 0
11.065000 -0.169720 0
11.070000 -0.231016 0
11.075000 -0.268413 2
11.080000 -0.248200 0
11.085000 -0.137562 0
11.090000 0.084202 0
11.095000 0.408601 0
11.100000 0.775486 0
11.105000 1.070859 0
11.110000 1.174367 3
11.115000 1.035310 0
11.120000 0.709941 0
11.125000 0.320511 0
11.130000 -0.019707 0
11.135000 -0.248409 0
11.140000 -0.351830 4
11.145000 -0.348573 0
11.150000 -0.277154 0
11.155000 -0.181755 0
11.160000 -0.095392 0
11.165000 -0.031097 0
11.170000 0.013887 0
11.175000 0.048015 0
11.180000 0.078294 0
11.185000 0.108378 0
11.190000 0.139476 0
11.195000 0.171588 0
11.200000 0.204225 0
11.205000 0.236698 0
11.210000 0.268221 0
11.215000 0.297957 0
11.220000 0.325059 0
11.225000 0.348703 0
11.230000 0.368136 0
11.235000 0.382710 0
11.240000 0.391920 0
11.245000 0.395431 5
11.250000 0.393095 0
11.255000 0.384967 0
11.260000 0.371292 0
11.265000 0.352503 0
11.270000 0.329189 0
11.275000 0.302068 0
11.280000 0.271948 0
11.285000 0.239689 0
11.290000 0.206159 0
11.295000 0.172198 0
11.300000 0.138581 0
11.305000 0.105998 0
11.310000 0.075025 0
11.315000 0.046120 0
11.320000 0.019615 0
11.325000 -0.004280 0
11.330000 -0.025467 0
11.335000 -0.043946 0
11.340000 -0.059802 0
11.345000 -0.073183 0
11.350000 -0.084284 0
11.355000 -0.093330 0
11.360000 -0.100561 0
11.365000 -0.106219 0
11.370000 -0.110538 0
11.375000 -0.113737 0
11.380000 -0.116013 0
11.385000 -0.117192 0
11.390000 -0.116295 0
11.395000 -0.115403 0
11.400000 -0.114515 0
11.405000 -0.113631 0
11.410000 -0.112751 0
11.415000 -0.111874 0
11.420000 -0.110998 0
11.425000 -0.110119 0
11.430000 -0.109231 0
11.435000 -0.108322 0
11.440000 -0.107371 0
11.445000 -0.106342 0
11.450000 -0.105176 0
11.455000 -0.103780 0
11.460000 -0.102013 0
11.465000 -0.099672 0
11.470000 -0.096475 0
11.475000 -0.092052 0
11.480000 -0.085943 0
11.485000 -0.077609 0
11.490000 -0.066472 0
11.495000 -0.051976 0
11.500000 -0.033670 0
11.505000 -0.011320 0
11.510000 0.014982 0
11.515000 0.044722 0
11.520000 0.076900 0
11.525000 0.110036 0
11.530000 0.142248 0
11.535000 0.171411 0
11.540000 0.195380 0
11.545000 0.212250 0
11.550000 0.220602 1
11.555000 0.219701 0
11.560000 0.209604 0
11.565000 0.191150 0
11.570000 0.165851 0
11.575000 0.135675 0
11.580000 0.102779 0
11.585000 0.069158 0
11.590000 0.036161 0
11.595000 0.003721 0
11.600000 -0.030566 0
11.605000 -0.071561 0
11.610000 -0.123996 0
11.615000 -0.186328 0
11.620000 -0.244182 0
11.625000 -0.269507 2
11.630000 -0.227607 0
11.635000 -0.087581 0
11.640000 0.165413 0
11.645000 0.510459 0
11.650000 0.870228 0
11.655000 1.121180 0
11.660000 1.155048 3
11.665000 0.951819 0
11.670000 0.594281 0
11.675000 0.209471 0
11.680000 -0.102072 0
11.685000 -0.293690 0
11.690000 -0.362665 4
11.695000 -0.334701 0
11.700000 -0.251778 0
11.705000 -0.156460 0
11.710000 -0.076180 0
11.715000 -0.018373 0
11.720000 0.022470 0
11.725000 0.054874 0
11.730000 0.084861 0
11.735000 0.115211 0
11.740000 0.146659 0
11.745000 0.179006 0
11.750000 0.211684 0
11.755000 0.243966 0
11.760000 0.275046 0
11.765000 0.304077 0
11.770000 0.330215 0
11.775000 0.352651 0
11.780000 0.370660 0
11.785000 0.383633 0
11.790000 0.391114 0
11.795000 0.392825 5
11.800000 0.388680 0
11.805000 0.378794 0
11.810000 0.363474 0
11.815000 0.343205 0
11.820000 0.318621 0
11.825000 0.290474 0
11.830000 0.259594 0
11.835000 0.226850 0
11.840000 0.193105 0
11.845000 0.159184 0
11.850000 0.125839 0
11.855000 0.093726 0
11.860000 0.063384 0
11.865000 0.035233 0
11.870000 0.009564 0
11.875000 -0.013449 0
11.880000 -0.033742 0
11.885000 -0.051345 0
11.890000 -0.066365 0
11.895000 -0.078967 0
11.900000 -0.089359 0
11.905000 -0.097773 0
11.910000 -0.104450 0
11.915000 -0.109631 0
11.920000 -0.113547 0
11.925000 -0.116409 0
11.930000 -0.118410 0
11.935000 -0.117927 0
11.940000 -0.117027 0
11.945000 -0.116131 0
11.950000 -0.115240 0
11.955000 -0.114352 0
11.960000 -0.113468 0
11.965000 -0.112586 0
11.970000 -0.111705 0
11.975000 -0.110819 0
11.980000 -0.109920 0
11.985000 -0.108995 0
11.990000 -0.108017 0
11.995000 -0.106944 0
12.000000 -0.105707 0
12.005000 -0.104196 0
12.010000 -0.102253 0
12.015000 -0.099647 0
12.020000 -0.096067 0
12.025000 -0.091109 0
12.030000 -0.084283 0
12.035000 -0.075031 0
12.040000 -0.062772 0
12.045000 -0.046976 0
12.050000 -0.027255 0
12.055000 -0.003475 0
12.060000 0.024130 0
12.065000 0.054879 0
12.070000 0.087595 0
12.075000 0.120640 0
12.080000 0.152019 0
12.085000 0.179571 0
12.090000 0.201201 0
12.095000 0.215149 0
12.100000 0.220221 1
12.105000 0.215960 0
12.110000 0.202712 0
12.115000 0.181580 0
12.120000 0.154271 0
12.125000 0.122862 0
12.130000 0.089496 0
12.135000 0.056007 0
12.140000 0.023331 0
12.145000 -0.009357 0
12.150000 -0.045455 0
12.155000 -0.090283 0
12.160000 -0.147122 0
12.165000 -0.210266 0
12.170000 -0.259886 0
12.175000 -0.264286 2
12.180000 -0.188879 0
12.185000 -0.007007 0
12.190000 0.285605 0
12.195000 0.648484 0
12.200000 0.982811 0
12.205000 1.161208 3
12.210000 1.102783 0
12.215000 0.829043 0
12.220000 0.447117 0
12.225000 0.079593 0
12.230000 -0.192600 0
12.235000 -0.340533 0
12.240000 -0.372669 4
12.245000 -0.321288 0
12.250000 -0.230044 0
12.255000 -0.137505 0
12.260000 -0.064286 0
12.265000 -0.012589 0
12.270000 0.024887 0
12.275000 0.056140 0
12.280000 0.086100 0
12.285000 0.116782 0
12.290000 0.148561 0
12.295000 0.181098 0
12.300000 0.213779 0
12.305000 0.245858 0
12.310000 0.276525 0
12.315000 0.304940 0
12.320000 0.330272 0
12.325000 0.351740 0
12.330000 0.368650 0
12.335000 0.380435 0
12.340000 0.386681 0
12.345000 0.387155 5
12.350000 0.381814 0
12.355000 0.370814 0
12.360000 0.354495 0
12.365000 0.333368 0
12.370000 0.308086 0
12.375000 0.279409 0
12.380000 0.248169 0
12.385000 0.215225 0
12.390000 0.181427 0
12.395000 0.147580 0
12.400000 0.114415 0
12.405000 0.082562 0
12.410000 0.052538 0
12.415000 0.024740 0
12.420000 -0.000560 0
12.425000 -0.023206 0
12.430000 -0.043146 0
12.435000 -0.060420 0
12.440000 -0.075140 0
12.445000 -0.087477 0
12.450000 -0.097637 0
12.455000 -0.105851 0
12.460000 -0.112360 0
12.465000 -0.117400 0
12.470000 -0.121198 0
12.475000 -0.123963 0
12.480000 -0.125882 0
12.485000 -0.125356 0
12.490000 -0.124418 0
12.495000 -0.123486 0
12.500000 -0.122558 0
12.505000 -0.121633 0
12.510000 -0.120713 0
12.515000 -0.119795 0
12.520000 -0.118877 0
12.525000 -0.117956 0
12.530000 -0.117022 0
12.535000 -0.116061 0
12.540000 -0.115049 0
12.545000 -0.113944 0
12.550000 -0.112676 0
12.555000 -0.111141 0
12.560000 -0.109182 0
12.565000 -0.106575 0
12.570000 -0.103015 0
12.575000 -0.098108 0
12.580000 -0.091373 0
12.585000 -0.082262 0
12.590000 -0.070202 0
12.595000 -0.054659 0
12.600000 -0.035238 0
12.605000 -0.011780 0
12.610000 0.015519 0
12.615000 0.046028 0
12.620000 0.078635 0
12.625000 0.111764 0
12.630000 0.143475 0
12.635000 0.171638 0
12.640000 0.194163 0
12.645000 0.209251 0
12.650000 0.215636 1
12.655000 0.212759 0
12.660000 0.200845 0
12.665000 0.180879 0
12.670000 0.154468 0
12.675000 0.123623 0
12.680000 0.090477 0
12.685000 0.056929 0
12.690000 0.024124 0
12.695000 -0.008354 0
12.700000 -0.043350 0
12.705000 -0.085937 0
12.710000 -0.140283 0
12.715000 -0.203208 0
12.720000 -0.258243 0
12.725000 -0.276042 2
12.730000 -0.222132 0
12.735000 -0.067292 0
12.740000 0.199792 0
12.745000 0.552147 0
12.750000 0.905978 0
12.755000 1.136669 0
12.760000 1.143770 3
12.765000 0.919476 0
12.770000 0.553713 0
12.775000 0.172114 0
12.780000 -0.130455 0
12.785000 -0.312209 0
12.790000 -0.373140 4
12.795000 -0.340188 0
12.800000 -0.255391 0
12.805000 -0.160299 0
12.810000 -0.080976 0
12.815000 -0.023955 0
12.820000 0.016510 0
12.825000 0.048819 0
12.830000 0.078827 0
12.835000 0.109222 0
12.840000 0.140710 0
12.845000 0.173088 0
12.850000 0.205795 0
12.855000 0.238114 0
12.860000 0.269249 0
12.865000 0.298366 0
12.870000 0.324627 0
12.875000 0.347236 0
12.880000 0.365471 0
12.885000 0.378726 0
12.890000 0.386543 0
12.895000 0.388637 5
12.900000 0.384912 0
12.905000 0.375466 0
12.910000 0.360591 0
12.915000 0.340751 0
12.920000 0.316562 0
12.925000 0.288757 0
12.930000 0.258151 0
12.935000 0.225597 0
12.940000 0.191952 0
12.945000 0.158037 0
12.950000 0.124604 0
12.955000 0.092315 0
12.960000 0.061719 0
12.965000 0.033247 0
12.970000 0.007205 0
12.975000 -0.016216 0
12.980000 -0.036938 0
12.985000 -0.054975 0
12.990000 -0.070420 0
12.995000 -0.083429 0
13.000000 -0.094200 0
13.005000 -0.102958 0
13.010000 -0.109941 0
13.015000 -0.115388 0
13.020000 -0.119529 0
13.025000 -0.122578 0
13.030000 -0.124730 0
13.035000 -0.125812 0
13.040000 -0.124873 0
13.045000 -0.123938 0
13.050000 -0.123007 0
13.055000 -0.122081 0
13.060000 -0.121159 0
13.065000 -0.120240 0
13.070000 -0.119321 0
13.075000 -0.118400 0
13.080000 -0.117471 0
13.085000 -0.116519 0
13.090000 -0.115525 0
13.095000 -0.114452 0
13.100000 -0.113242 0
13.105000 -0.111800 0
13.110000 -0.109988 0
13.115000 -0.107603 0
13.120000 -0.104366 0
13.125000 -0.099912 0
13.130000 -0.093784 0
13.135000 -0.085452 0
13.140000 -0.074344 0
13.145000 -0.059909 0
13.150000 -0.041696 0
13.155000 -0.019465 0
13.160000 0.006707 0
13.165000 0.036332 0
13.170000 0.068445 0
13.175000 0.101606 0
13.180000 0.133974 0
13.185000 0.163458 0
13.190000 0.187930 0
13.195000 0.205476 0
13.200000 0.214646 0
13.205000 0.214648 1
13.210000 0.205463 0
13.215000 0.187850 0
13.220000 0.163241 0
13.225000 0.133548 0
13.230000 0.100897 0
13.235000 0.067303 0
13.240000 0.034219 0
13.245000 0.001817 0
13.250000 -0.031919 0
13.255000 -0.071523 0
13.260000 -0.122014 0
13.265000 -0.183312 0
13.270000 -0.243500 0
13.275000 -0.276763 2
13.280000 -0.249188 0
13.285000 -0.128764 0
13.290000 0.103267 0
13.295000 0.434717 0
13.300000 0.800572 0
13.305000 1.084296 0
13.310000 1.169048 3
13.315000 1.014085 0
13.320000 0.681627 0
13.325000 0.292201 0
13.330000 -0.045493 0
13.335000 -0.272372 0
13.340000 -0.375653 4
13.345000 -0.373477 0
13.350000 -0.303166 0
13.355000 -0.207830 0
13.360000 -0.120321 0
13.365000 -0.054367 0
13.370000 -0.008001 0
13.375000 0.026902 0
13.380000 0.057452 0
13.385000 0.087542 0
13.390000 0.118566 0
13.395000 0.150628 0
13.400000 0.183300 0
13.405000 0.215934 0
13.410000 0.247779 0
13.415000 0.278028 0
13.420000 0.305853 0
13.425000 0.330448 0
13.430000 0.351059 0
13.435000 0.367028 0
13.440000 0.377825 0
13.445000 0.383075 5
13.450000 0.382583 0
13.455000 0.376339 0
13.460000 0.364526 0
13.465000 0.347506 0
13.470000 0.325803 0
13.475000 0.300076 0
13.480000 0.271081 0
13.485000 0.239641 0
13.490000 0.206601 0
13.495000 0.172794 0
13.500000 0.139006 0
13.505000 0.105945 0
13.510000 0.074225 0
13.515000 0.044347 0
13.520000 0.016692 0
13.525000 -0.008478 0
13.530000 -0.031012 0
13.535000 -0.050864 0
13.540000 -0.068073 0
13.545000 -0.082751 0
13.550000 -0.095066 0
13.555000 -0.105221 0
13.560000 -0.113442 0
13.565000 -0.119965 0
13.570000 -0.125024 0
13.575000 -0.128841 0
13.580000 -0.131624 0
13.585000 -0.133556 0
13.590000 -0.134480 0
13.595000 -0.133497 0
13.600000 -0.132519 0
13.605000 -0.131546 0
13.610000 -0.130577 0
13.615000 -0.129612 0
13.620000 -0.128650 0
13.625000 -0.127689 0
13.630000 -0.126725 0
13.635000 -0.125751 0
13.640000 -0.124754 0
13.645000 -0.123711 0
13.650000 -0.122584 0
13.655000 -0.121313 0
13.660000 -0.119801 0
13.665000 -0.117906 0
13.670000 -0.115423 0
13.675000 -0.112072 0
13.680000 -0.107485 0
13.685000 -0.101208 0
13.690000 -0.092718 0
13.695000 -0.081451 0
13.700000 -0.066866 0
13.705000 -0.048527 0
13.710000 -0.026202 0
13.715000 0.000029 0
13.720000 0.029681 0
13.725000 0.061807 0
13.730000 0.094995 0
13.735000 0.127442 0
13.740000 0.157094 0
13.745000 0.181856 0
13.750000 0.199831 0
13.755000 0.209563 0
13.760000 0.210231 1
13.765000 0.201762 0
13.770000 0.184847 0
13.775000 0.160844 0
13.780000 0.131600 0
13.785000 0.099197 0
13.790000 0.065651 0
13.795000 0.032485 0
13.800000 0.000083 0
13.805000 -0.033198 0
13.810000 -0.071511 0
13.815000 -0.119999 0
13.820000 -0.179884 0
13.825000 -0.241767 0
13.830000 -0.282470 2
13.835000 -0.269407 0
13.840000 -0.169915 0
13.845000 0.038228 0
13.850000 0.351391 0
13.855000 0.718327 0
13.860000 1.033316 0
13.865000 1.174555 3
13.870000 1.077962 0
13.875000 0.780749 0
13.880000 0.394157 0
13.885000 0.034525 0
13.890000 -0.225561 0
13.895000 -0.362488 0
13.900000 -0.387020 4
13.905000 -0.331862 0
13.910000 -0.239702 0
13.915000 -0.147487 0
13.920000 -0.074622 0
13.925000 -0.022959 0
13.930000 0.014655 0
13.935000 0.046026 0
13.940000 0.076026 0
13.945000 0.106696 0
13.950000 0.138448 0
13.955000 0.170984 0
13.960000 0.203717 0
13.965000 0.235933 0
13.970000 0.266847 0
13.975000 0.295645 0
13.980000 0.321515 0
13.985000 0.343688 0
13.990000 0.361474 0
13.995000 0.374297 0
14.000000 0.381724 0
14.005000 0.383491 5
14.010000 0.379517 0
14.015000 0.369909 0
14.020000 0.354954 0
14.025000 0.335109 0
14.030000 0.310975 0
14.035000 0.283265 0
14.040000 0.252770 0
14.045000 0.220322 0
14.050000 0.186755 0
14.055000 0.152870 0
14.060000 0.119407 0
14.065000 0.087018 0
14.070000 0.056248 0
14.075000 0.027530 0
14.080000 0.001179 0
14.085000 -0.022606 0
14.090000 -0.043732 0
14.095000 -0.062200 0
14.100000 -0.078088 0
14.105000 -0.091536 0
14.110000 -0.102731 0
14.115000 -0.111887 0
14.120000 -0.119234 0
14.125000 -0.125007 0
14.130000 -0.129431 0
14.135000 -0.132720 0
14.140000 -0.135069 0
14.145000 -0.136652 0
14.150000 -0.136031 0
14.155000 -0.135041 0
14.160000 -0.134055 0
14.165000 -0.133074 0
14.170000 -0.132097 0
14.175000 -0.131124 0
14.180000 -0.130153 0
14.185000 -0.129182 0
14.190000 -0.128205 0
14.195000 -0.127214 0
14.200000 -0.126192 0
14.205000 -0.125112 0
14.210000 -0.123928 0
14.215000 -0.122567 0
14.220000 -0.120918 0
14.225000 -0.118818 0
14.230000 -0.116036 0
14.235000 -0.112264 0
14.240000 -0.107106 0
14.245000 -0.100085 0
14.250000 -0.090662 0
14.255000 -0.078281 0
14.260000 -0.062431 0
14.265000 -0.042738 0
14.270000 -0.019068 0
14.275000 0.008376 0
14.280000 0.038965 0
14.285000 0.071611 0
14.290000 0.104779 0
14.295000 0.136589 0
14.300000 0.164970 0
14.305000 0.187882 0
14.310000 0.203555 0
14.315000 0.210716 1
14.320000 0.208759 0
14.325000 0.197831 0
14.330000 0.178813 0
14.335000 0.153204 0
14.340000 0.122922 0
14.345000 0.090043 0
14.350000 0.056483 0
14.355000 0.023539 0
14.360000 -0.008824 0
14.365000 -0.042834 0
14.370000 -0.083087 0
14.375000 -0.134335 0
14.380000 -0.195959 0
14.385000 -0.255652 0
14.390000 -0.287821 2
14.395000 -0.259352 0
14.400000 -0.139140 0
14.405000 0.091168 0
14.410000 0.420432 0
14.415000 0.787062 0
14.420000 1.078947 0
14.425000 1.180115 3
14.430000 1.043118 0
14.435000 0.721580 0
14.440000 0.332174 0
14.445000 -0.014500 0
14.450000 -0.254917 0
14.455000 -0.372270 0
14.460000 -0.381520 4
14.465000 -0.317702 0
14.470000 -0.223479 0
14.475000 -0.133448 0
14.480000 -0.063968 0
14.485000 -0.014911 0
14.490000 0.021364 0
14.495000 0.052311 0
14.500000 0.082321 0
14.505000 0.113125 0
14.510000 0.144998 0
14.515000 0.177586 0
14.520000 0.210283 0
14.525000 0.242366 0
14.530000 0.273050 0
14.535000 0.301521 0
14.540000 0.326976 0
14.545000 0.348658 0
14.550000 0.365890 0
14.555000 0.378114 0
14.560000 0.384919 0
14.565000 0.386060 5
14.570000 0.381476 0
14.575000 0.371293 0
14.580000 0.355816 0
14.585000 0.335514 0
14.590000 0.310998 0
14.595000 0.282985 0
14.600000 0.252270 0
14.605000 0.219680 0
14.610000 0.186045 0
14.615000 0.152158 0
14.620000 0.118747 0
14.625000 0.086455 0
14.630000 0.055816 0
14.635000 0.027251 0
14.640000 0.001065 0
14.645000 -0.022551 0
14.650000 -0.043512 0
14.655000 -0.061824 0
14.660000 -0.077568 0
14.665000 -0.090889 0
14.670000 -0.101973 0
14.675000 -0.111035 0
14.680000 -0.118305 0
14.685000 -0.124015 0
14.690000 -0.128390 0
14.695000 -0.131641 0
14.700000 -0.133963 0
14.705000 -0.135526 0
14.710000 -0.134907 0
14.715000 -0.133922 0
14.720000 -0.132942 0
14.725000 -0.131966 0
14.730000 -0.130995 0
14.735000 -0.130028 0
14.740000 -0.129062 0
14.745000 -0.128096 0
14.750000 -0.127125 0
14.755000 -0.126139 0
14.760000 -0.125122 0
14.765000 -0.124046 0
14.770000 -0.122867 0
14.775000 -0.121511 0
14.780000 -0.119867 0
14.785000 -0.117773 0
14.790000 -0.115001 0
14.795000 -0.111243 0
14.800000 -0.106106 0
14.805000 -0.099117 0
14.810000 -0.089739 0
14.815000 -0.077419 0
14.820000 -0.061648 0
14.825000 -0.042049 0
14.830000 -0.018482 0
14.835000 0.008858 0
14.840000 0.039361 0
14.845000 0.071955 0
14.850000 0.105129 0
14.855000 0.137018 0
14.860000 0.165567 0
14.865000 0.188739 0
14.870000 0.204759 0
14.875000 0.212331 1
14.880000 0.210821 0
14.885000 0.200335 0
14.890000 0.181716 0
14.895000 0.156426 0
14.900000 0.126356 0
14.905000 0.093571 0
14.910000 0.059999 0
14.915000 0.026989 0
14.920000 -0.005377 0
14.925000 -0.039144 0
14.930000 -0.078749 0
14.935000 -0.129067 0
14.940000 -0.190139 0
14.945000 -0.250799 0
14.950000 -0.286534 2
14.955000 -0.264668 0
14.960000 -0.153683 0
14.965000 0.066372 0
14.970000 0.388033 0
14.975000 0.755345 0
14.980000 1.060345 0
14.985000 1.184736 3
14.990000 1.072448 0
14.995000 0.766665 0
15.000000 0.378849 0
15.005000 0.021916 0
15.010000 -0.234880 0
15.015000 -0.369571 0
15.020000 -0.393226 4
15.025000 -0.338086 0
15.030000 -0.246052 0
15.035000 -0.153533 0
15.040000 -0.079959 0
15.045000 -0.027545 0
15.050000 0.010573 0
15.055000 0.042154 0
15.060000 0.072164 0
15.065000 0.102758 0
15.070000 0.134426 0
15.075000 0.166913 0
15.080000 0.199661 0
15.085000 0.231979 0
15.090000 0.263105 0
15.095000 0.292240 0
15.100000 0.318587 0
15.105000 0.341384 0
15.110000 0.359938 0
15.115000 0.373665 0
15.120000 0.382114 0
15.125000 0.384993 5
15.130000 0.382188 0
15.135000 0.373766 0
15.140000 0.359971 0
15.145000 0.341218 0
15.150000 0.318064 0
15.155000 0.291185 0
15.160000 0.261341 0
15.165000 0.229343 0
15.170000 0.196010 0
15.175000 0.162141 0
15.180000 0.128482 0
15.185000 0.095699 0
15.190000 0.064363 0
15.195000 0.034934 0
15.200000 0.007758 0
15.205000 -0.016931 0
15.210000 -0.039008 0
15.215000 -0.058441 0
15.220000 -0.075280 0
15.225000 -0.089644 0
15.230000 -0.101698 0
15.235000 -0.111644 0
15.240000 -0.119703 0
15.245000 -0.126105 0
15.250000 -0.131075 0
15.255000 -0.134830 0
15.260000 -0.137569 0
15.265000 -0.139472 0
15.270000 -0.140373 0
15.275000 -0.139361 0
15.280000 -0.138353 0
15.285000 -0.137351 0
15.290000 -0.136353 0
15.295000 -0.135360 0
15.300000 -0.134369 0
15.305000 -0.133380 0
15.310000 -0.132389 0
15.315000 -0.131390 0
15.320000 -0.130370 0
15.325000 -0.129311 0
15.330000 -0.128177 0
15.335000 -0.126916 0
15.340000 -0.125442 0
15.345000 -0.123628 0
15.350000 -0.121291 0
15.355000 -0.118178 0
15.360000 -0.113957 0
15.365000 -0.108209 0
15.370000 -0.100444 0
15.375000 -0.090122 0
15.380000 -0.076702 0
15.385000 -0.059717 0
15.390000 -0.038858 0
15.395000 -0.014080 0
15.400000 0.014307 0
15.405000 0.045566 0
15.410000 0.078512 0
15.415000 0.111542 0
15.420000 0.142750 0
15.425000 0.170090 0
15.430000 0.191602 0
15.435000 0.205634 0
15.440000 0.211059 1
15.445000 0.207424 0
15.450000 0.195008 0
15.455000 0.174793 0
15.460000 0.148332 0
15.465000 0.117548 0
15.470000 0.084477 0
15.475000 0.050949 0
15.480000 0.018116 0
15.485000 -0.014259 0
15.490000 -0.048623 0
15.495000 -0.089651 0
15.500000 -0.141815 0
15.505000 -0.203841 0
15.510000 -0.262761 0
15.515000 -0.292828 2
15.520000 -0.261419 0
15.525000 -0.138274 0
15.530000 0.094092 0
15.535000 0.424074 0
15.540000 0.790790 0
15.545000 1.084219 0
15.550000 1.190106 3
15.555000 1.058933 0
15.560000 0.741157 0
15.565000 0.351950 0
15.570000 0.002342 0
15.575000 -0.242723 0
15.580000 -0.365054 0
15.585000 -0.378483 4
15.590000 -0.317181 0
15.595000 -0.223552 0
15.600000 -0.132725 0
15.605000 -0.061990 0
15.610000 -0.011927 0
15.615000 0.024876 0
15.620000 0.055974 0
15.625000 0.085941 0
15.630000 0.116638 0
15.635000 0.148409 0
15.640000 0.180931 0
15.645000 0.213616 0
15.650000 0.245750 0
15.655000 0.276558 0
15.660000 0.305233 0
15.665000 0.330974 0
15.670000 0.353021 0
15.675000 0.370694 0
15.680000 0.383424 0
15.685000 0.390787 0
15.690000 0.392522 5
15.695000 0.388547 0
15.700000 0.378968 0
15.705000 0.364066 0
15.710000 0.344290 0
15.715000 0.320232 0
15.720000 0.292594 0
15.725000 0.262156 0
15.730000 0.229741 0
15.735000 0.196173 0
15.740000 0.162248 0
15.745000 0.128702 0
15.750000 0.096184 0
15.755000 0.065243 0
15.760000 0.036315 0
15.765000 0.009720 0
15.770000 -0.014336 0
15.775000 -0.035751 0
15.780000 -0.054518 0
15.785000 -0.070708 0
15.790000 -0.084453 0
15.795000 -0.095933 0
15.800000 -0.105358 0
15.805000 -0.112954 0
15.810000 -0.118954 0
15.815000 -0.123581 0
15.820000 -0.127051 0
15.825000 -0.129558 0
15.830000 -0.131277 0
15.835000 -0.130699 0
15.840000 -0.129735 0
15.845000 -0.128776 0
15.850000 -0.127821 0
15.855000 -0.126871 0
15.860000 -0.125924 0
15.865000 -0.124980 0
15.870000 -0.124036 0
15.875000 -0.123088 0
15.880000 -0.122127 0
15.885000 -0.121141 0
15.890000 -0.120103 0
15.895000 -0.118975 0
15.900000 -0.117690 0
15.905000 -0.116149 0
15.910000 -0.114205 0
15.915000 -0.111648 0
15.920000 -0.108192 0
15.925000 -0.103469 0
15.930000 -0.097027 0
15.935000 -0.088346 0
15.940000 -0.076875 0
15.945000 -0.062090 0
15.950000 -0.043571 0
15.955000 -0.021106 0
15.960000 0.005214 0
15.965000 0.034900 0
15.970000 0.067017 0
15.975000 0.100180 0
15.980000 0.132624 0
15.985000 0.162340 0
15.990000 0.187275 0
15.995000 0.205562 0
16.000000 0.215752 0
16.005000 0.217002 1
16.010000 0.209192 0
16.015000 0.192941 0
16.020000 0.169530 0
16.025000 0.140728 0
16.030000 0.108565 0
16.035000 0.075039 0
16.040000 0.041738 0
16.045000 0.009245 0
16.050000 -0.023690 0
16.055000 -0.060759 0
16.060000 -0.107087 0
16.065000 -0.165090 0
16.070000 -0.228043 0
16.075000 -0.275924 0
16.080000 -0.278114 2
16.085000 -0.201774 0
16.090000 -0.021631 0
16.095000 0.266983 0
16.100000 0.627852 0
16.105000 0.970280 0
16.110000 1.172684 3
16.115000 1.148267 0
16.120000 0.902968 0
16.125000 0.530653 0
16.130000 0.151777 0
16.135000 -0.145765 0
16.140000 -0.324166 0
16.145000 -0.384336 4
16.150000 -0.352322 0
16.155000 -0.268448 0
16.160000 -0.172976 0
16.165000 -0.091984 0
16.170000 -0.032961 0
16.175000 0.008970 0
16.180000 0.041967 0
16.185000 0.072093 0
16.190000 0.102336 0
16.195000 0.133612 0
16.200000 0.165839 0
16.205000 0.198527 0
16.210000 0.231015 0
16.215000 0.262554 0
16.220000 0.292348 0
16.225000 0.319593 0
16.230000 0.343505 0
16.235000 0.363365 0
16.240000 0.378547 0
16.245000 0.388554 0
16.250000 0.393046 5
16.255000 0.391852 0
16.260000 0.384986 0
16.265000 0.372645 0
16.270000 0.355198 0
16.275000 0.333166 0
16.280000 0.307202 0
16.285000 0.278048 0
16.290000 0.246510 0
16.295000 0.213412 0
16.300000 0.179568 0
16.305000 0.145743 0
16.310000 0.112632 0
16.315000 0.080834 0
16.320000 0.050841 0
16.325000 0.023032 0
16.330000 -0.002333 0
16.335000 -0.025099 0
16.340000 -0.045213 0
16.345000 -0.062707 0
16.350000 -0.077686 0
16.355000 -0.090305 0
16.360000 -0.100762 0
16.365000 -0.109274 0
16.370000 -0.116072 0
16.375000 -0.121384 0
16.380000 -0.125430 0
16.385000 -0.128416 0
16.390000 -0.130526 0
16.395000 -0.131582 0
16.400000 -0.130613 0
16.405000 -0.129650 0
16.410000 -0.128691 0
16.415000 -0.127736 0
16.420000 -0.126786 0
16.425000 -0.125839 0
16.430000 -0.124893 0
16.435000 -0.123946 0
16.440000 -0.122992 0
16.445000 -0.122020 0
16.450000 -0.121012 0
16.455000 -0.119937 0
16.460000 -0.118745 0
16.465000 -0.117357 0
16.470000 -0.115652 0
16.475000 -0.113458 0
16.480000 -0.110532 0
16.485000 -0.106553 0
16.490000 -0.101114 0
16.495000 -0.093732 0
16.500000 -0.083868 0
16.505000 -0.070976 0
16.510000 -0.054569 0
16.515000 -0.034306 0
16.520000 -0.010100 0
16.525000 0.017792 0
16.530000 0.048691 0
16.535000 0.081464 0
16.540000 0.114548 0
16.545000 0.146056 0
16.550000 0.173940 0
16.555000 0.196202 0
16.560000 0.211134 0
16.565000 0.217533 1
16.570000 0.214860 0
16.575000 0.203316 0
16.580000 0.183817 0
16.585000 0.157873 0
16.590000 0.127391 0
16.595000 0.094420 0
16.600000 0.060837 0
16.605000 0.027890 0
16.610000 -0.004499 0
16.615000 -0.038576 0
16.620000 -0.078901 0
16.625000 -0.130156 0
16.630000 -0.191753 0
16.635000 -0.251663 0
16.640000 -0.284802 2
16.645000 -0.258559 0
16.650000 -0.142048 0
16.655000 0.083531 0
16.660000 0.408898 0
16.665000 0.776068 0
16.670000 1.076412 0
16.675000 1.193538 3
16.680000 1.072944 0
16.685000 0.761000 0
16.690000 0.372286 0
16.695000 0.019842 0
16.700000 -0.229074 0
16.705000 -0.354846 0
16.710000 -0.370664 4
16.715000 -0.310557 0
16.720000 -0.217200 0
16.725000 -0.126214 0
16.730000 -0.055284 0
16.735000 -0.005136 0
16.740000 0.031663 0
16.745000 0.062727 0
16.750000 0.092662 0
16.755000 0.123336 0
16.760000 0.155086 0
16.765000 0.187584 0
16.770000 0.220234 0
16.775000 0.252319 0
16.780000 0.283053 0
16.785000 0.311625 0
16.790000 0.337229 0
16.795000 0.359101 0
16.800000 0.376560 0
16.805000 0.389038 0
16.810000 0.396115 0
16.815000 0.397535 5
16.820000 0.393226 0
16.825000 0.383304 0
16.830000 0.368062 0
16.835000 0.347963 0
16.840000 0.323610 0
16.845000 0.295716 0
16.850000 0.265073 0
16.855000 0.232509 0
16.860000 0.198855 0
16.865000 0.164907 0
16.870000 0.131400 0
16.875000 0.098980 0
16.880000 0.068189 0
16.885000 0.039454 0
16.890000 0.013086 0
16.895000 -0.010717 0
16.900000 -0.031866 0
16.905000 -0.050362 0
16.910000 -0.066284 0
16.915000 -0.079772 0
16.920000 -0.091012 0
16.925000 -0.100218 0
16.930000 -0.107620 0
16.935000 -0.113450 0
16.940000 -0.117933 0
16.945000 -0.121283 0
16.950000 -0.123694 0
16.955000 -0.125339 0
16.960000 -0.124776 0
16.965000 -0.123841 0
16.970000 -0.122911 0
16.975000 -0.121986 0
16.980000 -0.121064 0
16.985000 -0.120146 0
16.990000 -0.119230 0
16.995000 -0.118314 0
17.000000 -0.117392 0
17.005000 -0.116455 0
17.010000 -0.115489 0
17.015000 -0.114464 0
17.020000 -0.113338 0
17.025000 -0.112038 0
17.030000 -0.110455 0
17.035000 -0.108429 0
17.040000 -0.105734 0
17.045000 -0.102065 0
17.050000 -0.097032 0
17.055000 -0.090163 0
17.060000 -0.080924 0
17.065000 -0.068759 0
17.070000 -0.053157 0
17.075000 -0.033736 0
17.080000 -0.010343 0
17.085000 0.016838 0
17.090000 0.047209 0
17.095000 0.079714 0
17.100000 0.112852 0
17.105000 0.144767 0
17.110000 0.173403 0
17.115000 0.196718 0
17.120000 0.212923 0
17.125000 0.220706 1
17.130000 0.219409 0
17.135000 0.209120 0
17.140000 0.190663 0
17.145000 0.165485 0
17.150000 0.135472 0
17.155000 0.102690 0
17.160000 0.069076 0
17.165000 0.036003 0
17.170000 0.003594 0
17.175000 -0.030137 0
17.180000 -0.069588 0
17.185000 -0.119672 0
17.190000 -0.180617 0
17.195000 -0.241541 0
17.200000 -0.278168 2
17.205000 -0.257873 0
17.210000 -0.148984 0
17.215000 0.068829 0
17.220000 0.388840 0
17.225000 0.756117 0
17.230000 1.063346 0
17.235000 1.191684 3
17.240000 1.080969 0
17.245000 0.773883 0
17.250000 0.385641 0
17.255000 0.031936 0
17.260000 -0.217927 0
17.265000 -0.343633 0
17.270000 -0.358602 4
17.275000 -0.297579 0
17.280000 -0.203961 0
17.285000 -0.113569 0
17.290000 -0.043690 0
17.295000 0.005494 0
17.300000 0.041707 0
17.305000 0.072543 0
17.310000 0.102459 0
17.315000 0.133193 0
17.320000 0.165002 0
17.325000 0.197514 0
17.330000 0.230106 0
17.335000 0.262038 0
17.340000 0.292506 0
17.345000 0.320683 0
17.350000 0.345752 0
17.355000 0.366946 0
17.360000 0.383589 0
17.365000 0.395126 0
17.370000 0.401155 0
17.375000 0.401451 5
17.380000 0.395976 0
17.385000 0.384886 0
17.390000 0.368516 0
17.395000 0.347370 0
17.400000 0.322091 0
17.405000 0.293425 0
17.410000 0.262191 0
17.415000 0.229235 0
17.420000 0.195397 0
17.425000 0.161472 0
17.430000 0.128185 0
17.435000 0.096165 0
17.440000 0.065928 0
17.445000 0.037874 0
17.450000 0.012283 0
17.455000 -0.010683 0
17.460000 -0.030962 0
17.465000 -0.048585 0
17.470000 -0.063657 0
17.475000 -0.076337 0
17.480000 -0.086828 0
17.485000 -0.095354 0
17.490000 -0.102151 0
17.495000 -0.107454 0
17.500000 -0.111489 0
17.505000 -0.114463 0
17.510000 -0.116567 0
17.515000 -0.117632 0
17.520000 -0.116734 0
17.525000 -0.115839 0
17.530000 -0.114949 0
17.535000 -0.114063 0
17.540000 -0.113181 0
17.545000 -0.112301 0
17.550000 -0.111422 0
17.555000 -0.110540 0
17.560000 -0.109649 0
17.565000 -0.108735 0
17.570000 -0.107778 0
17.575000 -0.106741 0
17.580000 -0.105566 0
17.585000 -0.104160 0
17.590000 -0.102385 0
17.595000 -0.100041 0
17.600000 -0.096854 0
17.605000 -0.092463 0
17.610000 -0.086421 0
17.615000 -0.078205 0
17.620000 -0.067254 0
17.625000 -0.053018 0
17.630000 -0.035050 0
17.635000 -0.013097 0
17.640000 0.012786 0
17.645000 0.042146 0
17.650000 0.074067 0
17.655000 0.107164 0
17.660000 0.139651 0
17.665000 0.169478 0
17.670000 0.194541 0
17.675000 0.212916 0
17.680000 0.223110 0
17.685000 0.224255 1
17.690000 0.216233 0
17.695000 0.199694 0
17.700000 0.175966 0
17.705000 0.146880 0
17.710000 0.114522 0
17.715000 0.080922 0
17.720000 0.047649 0
17.725000 0.015161 0
17.730000 -0.018077 0
17.735000 -0.056122 0
17.740000 -0.104167 0
17.745000 -0.163743 0
17.750000 -0.225966 0
17.755000 -0.268106 2
17.760000 -0.257684 0
17.765000 -0.161766 0
17.770000 0.042513 0
17.775000 0.352720 0
17.780000 0.719269 0
17.785000 1.037506 0
17.790000 1.184776 3
17.795000 1.093333 0
17.800000 0.798254 0
17.805000 0.411822 0
17.810000 0.052307 0
17.815000 -0.206655 0
17.820000 -0.341469 0
17.825000 -0.363548 4
17.830000 -0.306540 0
17.835000 -0.213859 0
17.840000 -0.122440 0
17.845000 -0.051000 0
17.850000 -0.000628 0
17.855000 0.036189 0
17.860000 0.067217 0
17.865000 0.097136 0
17.870000 0.127820 0
17.875000 0.159588 0
17.880000 0.192093 0
17.885000 0.224717 0
17.890000 0.256724 0
17.895000 0.287311 0
17.900000 0.315648 0
17.905000 0.340915 0
17.910000 0.362340 0
17.915000 0.379238 0
17.920000 0.391046 0
17.925000 0.397355 0
17.930000 0.397929 5
17.935000 0.392722 0
17.940000 0.381881 0
17.945000 0.365736 0
17.950000 0.344786 0
17.955000 0.319668 0
17.960000 0.291130 0
17.965000 0.259990 0
17.970000 0.227095 0
17.975000 0.193289 0
17.980000 0.159372 0
17.985000 0.126071 0
17.990000 0.094022 0
17.995000 0.063745 0
18.000000 0.035646 0
18.005000 0.010005 0
18.010000 -0.013009 0
18.015000 -0.033334 0
18.020000 -0.050997 0
18.025000 -0.066103 0
18.030000 -0.078812 0
18.035000 -0.089324 0
18.040000 -0.097865 0
18.045000 -0.104671 0
18.050000 -0.109979 0
18.055000 -0.114014 0
18.060000 -0.116985 0
18.065000 -0.119083 0
18.070000 -0.120140 0
18.075000 -0.119228 0
18.080000 -0.118322 0
18.085000 -0.117419 0
18.090000 -0.116521 0
18.095000 -0.115626 0
18.100000 -0.114734 0
18.105000 -0.113843 0
18.110000 -0.112949 0
18.115000 -0.112045 0
18.120000 -0.111120 0
18.125000 -0.110150 0
18.130000 -0.109101 0
18.135000 -0.107912 0
18.140000 -0.106491 0
18.145000 -0.104698 0
18.150000 -0.102332 0
18.155000 -0.099118 0
18.160000 -0.094691 0
18.165000 -0.088602 0
18.170000 -0.080327 0
18.175000 -0.069300 0
18.180000 -0.054974 0
18.185000 -0.036902 0
18.190000 -0.014836 0
18.195000 0.011158 0
18.200000 0.040616 0
18.205000 0.072604 0
18.210000 0.105723 0
18.215000 0.138170 0
18.220000 0.167885 0
18.225000 0.192760 0
18.230000 0.210877 0
18.235000 0.220759 0
18.240000 0.221561 1
18.245000 0.213195 0
18.250000 0.196342 0
18.255000 0.172359 0
18.260000 0.143098 0
18.265000 0.110653 0
18.270000 0.077051 0
18.275000 0.043829 0
18.280000 0.011370 0
18.285000 -0.021982 0
18.290000 -0.060415 0
18.295000 -0.109089 0
18.300000 -0.169150 0
18.305000 -0.230962 0
18.310000 -0.271005 2
18.315000 -0.256417 0
18.320000 -0.154467 0
18.325000 0.056760 0
18.330000 0.372565 0
18.335000 0.739656 0
18.340000 1.050272 0
18.345000 1.182713 3
18.350000 1.073587 0
18.355000 0.765721 0
18.360000 0.377288 0
18.365000 0.026197 0
18.370000 -0.218212 0
18.375000 -0.336944 0
18.380000 -0.345292 4
18.385000 -0.279971 0
18.390000 -0.185434 0
18.395000 -0.096866 0
18.400000 -0.029798 0
18.405000 0.017100 0
18.410000 0.052083 0
18.415000 0.082534 0
18.420000 0.112501 0
18.425000 0.143421 0
18.430000 0.175391 0
18.435000 0.207959 0
18.440000 0.240454 0
18.445000 0.272098 0
18.450000 0.302056 0
18.455000 0.329481 0
18.460000 0.353542 0
18.465000 0.373477 0
18.470000 0.388621 0
18.475000 0.398451 0
18.480000 0.402610 5
18.485000 0.400929 0
18.490000 0.393435 0
18.495000 0.380355 0
18.500000 0.362099 0
18.505000 0.339241 0
18.510000 0.312486 0
18.515000 0.282634 0
18.520000 0.250542 0
18.525000 0.217080 0
18.530000 0.183091 0
18.535000 0.149364 0
18.540000 0.116597 0
18.545000 0.085381 0
18.550000 0.056188 0
18.555000 0.029365 0
18.560000 0.005136 0
18.565000 -0.016390 0
18.570000 -0.035203 0
18.575000 -0.051378 0
18.580000 -0.065059 0
18.585000 -0.076435 0
18.590000 -0.085730 0
18.595000 -0.093182 0
18.600000 -0.099034 0
18.605000 -0.103521 0
18.610000 -0.106864 0
18.615000 -0.109265 0
18.620000 -0.110538 0
18.625000 -0.109675 0
18.630000 -0.108815 0
18.635000 -0.107960 0
18.640000 -0.107109 0
18.645000 -0.106262 0
18.650000 -0.105417 0
18.655000 -0.104574 0
18.660000 -0.103728 0
18.665000 -0.102874 0
18.670000 -0.102000 0
18.675000 -0.101087 0
18.680000 -0.100100 0
18.685000 -0.098983 0
18.690000 -0.097648 0
18.695000 -0.095958 0
18.700000 -0.093719 0
18.705000 -0.090656 0
18.710000 -0.086408 0
18.715000 -0.080523 0
18.720000 -0.072470 0
18.725000 -0.061671 0
18.730000 -0.047564 0
18.735000 -0.029683 0
18.740000 -0.007767 0
18.745000 0.018130 0
18.750000 0.047538 0
18.755000 0.079505 0
18.760000 0.112596 0
18.765000 0.144960 0
18.770000 0.174486 0
18.775000 0.199019 0
18.780000 0.216617 0
18.785000 0.225803 1
18.790000 0.225770 0
18.795000 0.216497 0
18.800000 0.198755 0
18.805000 0.173997 0
18.810000 0.144162 0
18.815000 0.111403 0
18.820000 0.077751 0
18.825000 0.044642 0
18.830000 0.012183 0
18.835000 -0.021786 0
18.840000 -0.061955 0
18.845000 -0.113282 0
18.850000 -0.175108 0
18.855000 -0.234381 0
18.860000 -0.264085 2
18.865000 -0.229683 0
18.870000 -0.099465 0
18.875000 0.143530 0
18.880000 0.482570 0
18.885000 0.845618 0
18.890000 1.111347 0
18.895000 1.166759 3
18.900000 0.982243 0
18.905000 0.633184 0
18.910000 0.246005 0
18.915000 -0.074539 0
18.920000 -0.277177 0
18.925000 -0.356067 4
18.930000 -0.334954 0
18.935000 -0.254983 0
18.940000 -0.159389 0
18.945000 -0.077307 0
18.950000 -0.017723 0
18.955000 0.024188 0
18.960000 0.056998 0
18.965000 0.087018 0
18.970000 0.117268 0
18.975000 0.148601 0
18.980000 0.180869 0
18.985000 0.213523 0
18.990000 0.245844 0
18.995000 0.277032 0
19.000000 0.306241 0
19.005000 0.332623 0
19.010000 0.355367 0
19.015000 0.373736 0
19.020000 0.387113 0
19.025000 0.395027 0
19.030000 0.397184 5
19.035000 0.393483 0
19.040000 0.384024 0
19.045000 0.369097 0
19.050000 0.349175 0
19.055000 0.324883 0
19.060000 0.296965 0
19.065000 0.266247 0
19.070000 0.233595 0
19.075000 0.199877 0
19.080000 0.165921 0
19.085000 0.132487 0
19.090000 0.100238 0
19.095000 0.069725 0
19.100000 0.041375 0
19.105000 0.015490 0
19.110000 -0.007747 0
19.115000 -0.028265 0
19.120000 -0.046086 0
19.125000 -0.061313 0
19.130000 -0.074108 0
19.135000 -0.084675 0
19.140000 -0.093246 0
19.145000 -0.100061 0
19.150000 -0.105364 0
19.155000 -0.109383 0
19.160000 -0.112335 0
19.165000 -0.114411 0
19.170000 -0.115456 0
19.175000 -0.114568 0
19.180000 -0.113684 0
19.185000 -0.112805 0
19.190000 -0.111929 0
19.195000 -0.111057 0
19.200000 -0.110188 0
19.205000 -0.109319 0
19.210000 -0.108445 0
19.215000 -0.107561 0
19.220000 -0.106650 0
19.225000 -0.105689 0
19.230000 -0.104636 0
19.235000 -0.103424 0
19.240000 -0.101949 0
19.245000 -0.100053 0
19.250000 -0.097512 0
19.255000 -0.094020 0
19.260000 -0.089179 0
19.265000 -0.082505 0
19.270000 -0.073442 0
19.275000 -0.061409 0
19.280000 -0.045869 0
19.285000 -0.026421 0
19.290000 -0.002913 0
19.295000 0.024452 0
19.300000 0.055018 0
19.305000 0.087642 0
19.310000 0.120711 0
19.315000 0.152249 0
19.320000 0.180094 0
19.325000 0.202141 0
19.330000 0.216598 0
19.335000 0.222231 1
19.340000 0.218534 0
19.345000 0.205803 0
19.350000 0.185099 0
19.355000 0.158099 0
19.360000 0.126865 0
19.365000 0.093550 0
19.370000 0.060019 0
19.375000 0.027286 0
19.380000 -0.005344 0
19.385000 -0.041111 0
19.390000 -0.085297 0
19.395000 -0.141479 0
19.400000 -0.204666 0
19.405000 -0.255862 0
19.410000 -0.263833 2
19.415000 -0.193851 0
19.420000 -0.018469 0
19.425000 0.268407 0
19.430000 0.629424 0
19.435000 0.968733 0
19.440000 1.158758 3
19.445000 1.112801 0
19.450000 0.846624 0
19.455000 0.466377 0
19.460000 0.097099 0
19.465000 -0.177522 0
19.470000 -0.327122 0
19.475000 -0.359876 4
19.480000 -0.308435 0
19.485000 -0.217093 0
19.490000 -0.124848 0
19.495000 -0.052261 0
19.500000 -0.001217 0
19.505000 0.035824 0
19.510000 0.066885 0
19.515000 0.096809 0
19.520000 0.127518 0
19.525000 0.159323 0
19.530000 0.191855 0
19.535000 0.224474 0
19.540000 0.256417 0
19.545000 0.286857 0
19.550000 0.314939 0
19.555000 0.339824 0
19.560000 0.360726 0
19.565000 0.376957 0
19.570000 0.387957 0
19.575000 0.393332 5
19.580000 0.392872 0
19.585000 0.386565 0
19.590000 0.374600 0
19.595000 0.357353 0
19.600000 0.335371 0
19.605000 0.309340 0
19.610000 0.280048 0
19.615000 0.248347 0
19.620000 0.215113 0
19.625000 0.181200 0
19.630000 0.147411 0
19.635000 0.114467 0
19.640000 0.082982 0
19.645000 0.053450 0
19.650000 0.026242 0
19.655000 0.001603 0
19.660000 -0.020338 0
19.665000 -0.039556 0
19.670000 -0.056114 0
19.675000 -0.070145 0
19.680000 -0.081834 0
19.685000 -0.091401 0
19.690000 -0.099084 0
19.695000 -0.105128 0
19.700000 -0.109769 0
19.705000 -0.113233 0
19.710000 -0.115724 0
19.715000 -0.117425 0
19.720000 -0.116902 0
19.725000 -0.116007 0
19.730000 -0.115116 0
19.735000 -0.114229 0
19.740000 -0.113346 0
19.745000 -0.112467 0
19.750000 -0.111588 0
19.755000 -0.110709 0
19.760000 -0.109822 0
19.765000 -0.108917 0
19.770000 -0.107976 0
19.775000 -0.106966 0
19.780000 -0.105834 0
19.785000 -0.104495 0
19.790000 -0.102819 0
19.795000 -0.100617 0
19.800000 -0.097623 0
19.805000 -0.093483 0
19.810000 -0.087753 0
19.815000 -0.079906 0
19.820000 -0.069364 0
19.825000 -0.055558 0
19.830000 -0.038006 0
19.835000 -0.016423 0
19.840000 0.009170 0
19.845000 0.038341 0
19.850000 0.070176 0
19.855000 0.103273 0
19.860000 0.135802 0
19.865000 0.165656 0
19.870000 0.190666 0
19.875000 0.208856 0
19.880000 0.218701 0
19.885000 0.219339 1
19.890000 0.210693 0
19.895000 0.193486 0
19.900000 0.169140 0
19.905000 0.139579 0
19.910000 0.106962 0
19.915000 0.073345 0
19.920000 0.040221 0
19.925000 0.007788 0
19.930000 -0.025989 0
19.935000 -0.065719 0
19.940000 -0.116471 0
19.945000 -0.177986 0
19.950000 -0.237762 0
19.955000 -0.269150 2
19.960000 -0.237571 0
19.965000 -0.110894 0
19.970000 0.128646 0
19.975000 0.465649 0
19.980000 0.829506 0
19.985000 1.099181 0
19.990000 1.160048 3
19.995000 0.979624 0
20.000000 0.632086 0
20.005000 0.244771 0
20.010000 -0.076200 0
20.015000 -0.278818 0
20.020000 -0.357168 4
20.025000 -0.335310 0
20.030000 -0.254851 0
20.035000 -0.159308 0
20.040000 -0.077712 0
20.045000 -0.018711 0
20.050000 0.022789 0
20.055000 0.055420 0
20.060000 0.085425 0
20.065000 0.115732 0
20.070000 0.147137 0
20.075000 0.179459 0
20.080000 0.212131 0
20.085000 0.244421 0
20.090000 0.275517 0
20.095000 0.304563 0
20.100000 0.330706 0
20.105000 0.353131 0
20.110000 0.371104 0
20.115000 0.384011 0
20.120000 0.391395 0
20.125000 0.392977 5
20.130000 0.388674 0
20.135000 0.378609 0
20.140000 0.363096 0
20.145000 0.342631 0
20.150000 0.317861 0
20.155000 0.289550 0
20.160000 0.258539 0
20.165000 0.225704 0
20.170000 0.191918 0
20.175000 0.158008 0
20.180000 0.124729 0
20.185000 0.092733 0
20.190000 0.062557 0
20.195000 0.034612 0
20.200000 0.009182 0
20.205000 -0.013568 0
20.210000 -0.033584 0
20.215000 -0.050906 0
20.220000 -0.065648 0
20.225000 -0.077984 0
20.230000 -0.088127 0
20.235000 -0.096313 0
20.240000 -0.102786 0
20.245000 -0.107788 0
20.250000 -0.111551 0
20.255000 -0.114285 0
20.260000 -0.116180 0
20.265000 -0.115691 0
20.270000 -0.114802 0
20.275000 -0.113917 0
20.280000 -0.113037 0
20.285000 -0.112160 0
20.290000 -0.111286 0
20.295000 -0.110415 0
20.300000 -0.109543 0
20.305000 -0.108665 0
20.310000 -0.107773 0
20.315000 -0.106849 0
20.320000 -0.105865 0
20.325000 -0.104772 0
20.330000 -0.103494 0
20.335000 -0.101910 0
20.340000 -0.099845 0
20.345000 -0.097047 0
20.350000 -0.093180 0
20.355000 -0.087815 0
20.360000 -0.080437 0
20.365000 -0.070471 0
20.370000 -0.057336 0
20.375000 -0.040523 0
20.380000 -0.019700 0
20.385000 0.005179 0
20.390000 0.033759 0
20.395000 0.065211 0
20.400000 0.098207 0
20.405000 0.130971 0
20.410000 0.161418 0
20.415000 0.187356 0
20.420000 0.206748 0
20.425000 0.217971 0
20.430000 0.220042 1
20.435000 0.212759 0
20.440000 0.196733 0
20.445000 0.173301 0
20.450000 0.144343 0
20.455000 0.112015 0
20.460000 0.078425 0
20.465000 0.045184 0
20.470000 0.012717 0
20.475000 -0.020694 0
20.480000 -0.059408 0
20.485000 -0.108707 0
20.490000 -0.169347 0
20.495000 -0.230406 0
20.500000 -0.266486 2
20.505000 -0.243177 0
20.510000 -0.127382 0
20.515000 0.100945 0
20.520000 0.430673 0
20.525000 0.796585 0
20.530000 1.079993 0
20.535000 1.161688 3
20.540000 1.001612 0
20.545000 0.665339 0
20.550000 0.276286 0
20.555000 -0.056528 0
20.560000 -0.275657 0
20.565000 -0.370433 4
20.570000 -0.361117 0
20.575000 -0.286809 0
20.580000 -0.191120 0
20.585000 -0.105743 0
20.590000 -0.042523 0
20.595000 0.001822 0
20.600000 0.035731 0
20.605000 0.066020 0
20.610000 0.096195 0
20.615000 0.127394 0
20.620000 0.159592 0
20.625000 0.192296 0
20.630000 0.224821 0
20.635000 0.256387 0
20.640000 0.286163 0
20.645000 0.313306 0
20.650000 0.337002 0
20.655000 0.356504 0
20.660000 0.371169 0
20.665000 0.380494 0
20.670000 0.384146 5
20.675000 0.381977 0
20.680000 0.374034 0
20.685000 0.360560 0
20.690000 0.341977 0
20.695000 0.318867 0
20.700000 0.291936 0
20.705000 0.261986 0
20.710000 0.229866 0
20.715000 0.196437 0
20.720000 0.162536 0
20.725000 0.128937 0
20.730000 0.096327 0
20.735000 0.065288 0
20.740000 0.036281 0
20.745000 0.009643 0
20.750000 -0.014407 0
20.755000 -0.035763 0
20.760000 -0.054420 0
20.765000 -0.070453 0
20.770000 -0.084005 0
20.775000 -0.095266 0
20.780000 -0.104456 0
20.785000 -0.111814 0
20.790000 -0.117578 0
20.795000 -0.121983 0
20.800000 -0.125247 0
20.805000 -0.127570 0
20.810000 -0.128764 0
20.815000 -0.127809 0
20.820000 -0.126860 0
20.825000 -0.125915 0
20.830000 -0.124974 0
20.835000 -0.124038 0
20.840000 -0.123105 0
20.845000 -0.122173 0
20.850000 -0.121240 0
20.855000 -0.120300 0
20.860000 -0.119341 0
20.865000 -0.118345 0
20.870000 -0.117280 0
20.875000 -0.116091 0
20.880000 -0.114693 0
20.885000 -0.112958 0
20.890000 -0.110696 0
20.895000 -0.107645 0
20.900000 -0.103454 0
20.905000 -0.097685 0
20.910000 -0.089818 0
20.915000 -0.079285 0
20.920000 -0.065521 0
20.925000 -0.048049 0
20.930000 -0.026579 0
20.935000 -0.001116 0
20.940000 0.027931 0
20.945000 0.059688 0
20.950000 0.092796 0
20.955000 0.125476 0
20.960000 0.155660 0
20.965000 0.181204 0
20.970000 0.200131 0
20.975000 0.210885 0
20.980000 0.212545 1
20.985000 0.204951 0
20.990000 0.188731 0
20.995000 0.165216 0
21.000000 0.136257 0
21.005000 0.103971 0
21.010000 0.070425 0
21.015000 0.037210 0
21.020000 0.004777 0
21.025000 -0.028478 0
21.030000 -0.066741 0
21.035000 -0.115252 0
21.040000 -0.175243 0
21.045000 -0.236986 0
21.050000 -0.276600 2
21.055000 -0.260725 0
21.060000 -0.156280 0
21.065000 0.058504 0
21.070000 0.377628 0
21.075000 0.744816 0
21.080000 1.048944 0
21.085000 1.168014 3
21.090000 1.045334 0
21.095000 0.730012 0
21.100000 0.341006 0
21.105000 -0.006491 0
21.110000 -0.246167 0
21.115000 -0.360807 0
21.120000 -0.366439 4
21.125000 -0.299844 0
21.130000 -0.205038 0
21.135000 -0.116576 0
21.140000 -0.049581 0
21.145000 -0.002629 0
21.150000 0.032467 0
21.155000 0.063027 0
21.160000 0.093083 0
21.165000 0.124078 0
21.170000 0.156121 0
21.175000 0.188773 0
21.180000 0.221373 0
21.185000 0.253152 0
21.190000 0.283288 0
21.195000 0.310938 0
21.200000 0.335281 0
21.205000 0.355556 0
21.210000 0.371100 0
21.215000 0.381384 0
21.220000 0.386043 5
21.225000 0.384896 0
21.230000 0.377956 0
21.235000 0.365431 0
21.240000 0.347712 0
21.245000 0.325353 0
21.250000 0.299042 0
21.255000 0.269564 0
21.260000 0.237762 0
21.265000 0.204498 0
21.270000 0.170614 0
21.275000 0.136896 0
21.280000 0.104049 0
21.285000 0.072674 0
21.290000 0.043255 0
21.295000 0.016152 0
21.300000 -0.008397 0
21.305000 -0.030264 0
21.310000 -0.049428 0
21.315000 -0.065950 0
21.320000 -0.079962 0
21.325000 -0.091644 0
21.330000 -0.101215 0
21.335000 -0.108908 0
21.340000 -0.114963 0
21.345000 -0.119616 0
21.350000 -0.123090 0
21.355000 -0.125586 0
21.360000 -0.127286 0
21.365000 -0.126721 0
21.370000 -0.125777 0
21.375000 -0.124838 0
21.380000 -0.123903 0
21.385000 -0.122972 0
21.390000 -0.122044 0
21.395000 -0.121119 0
21.400000 -0.120192 0
21.405000 -0.119260 0
21.410000 -0.118313 0
21.415000 -0.117332 0
21.420000 -0.116290 0
21.425000 -0.115137 0
21.430000 -0.113796 0
21.435000 -0.112147 0
21.440000 -0.110014 0
21.445000 -0.107152 0
21.450000 -0.103228 0
21.455000 -0.097822 0
21.460000 -0.090429 0
21.465000 -0.080488 0
21.470000 -0.067427 0
21.475000 -0.050746 0
21.480000 -0.030107 0
21.485000 -0.005447 0
21.490000 0.022915 0
21.495000 0.054204 0
21.500000 0.087162 0
21.505000 0.120086 0
21.510000 0.150958 0
21.515000 0.177630 0
21.520000 0.198073 0
21.525000 0.210625 0
21.530000 0.214219 1
21.535000 0.208532 0
21.540000 0.194028 0
21.545000 0.171904 0
21.550000 0.143916 0
21.555000 0.112149 0
21.560000 0.078707 0
21.565000 0.045327 0
21.570000 0.012773 0
21.575000 -0.020046 0
21.580000 -0.056783 0
21.585000 -0.102751 0
21.590000 -0.160627 0
21.595000 -0.223549 0
21.600000 -0.270594 2
21.605000 -0.269739 0
21.610000 -0.186990 0
21.615000 0.002954 0
21.620000 0.302025 0
21.625000 0.666579 0
21.630000 0.995753 0
21.635000 1.163800 3
21.640000 1.094512 0
21.645000 0.814639 0
21.650000 0.431514 0
21.655000 0.065190 0
21.660000 -0.205772 0
21.665000 -0.353437 0
21.670000 -0.386202 4
21.675000 -0.335698 0
21.680000 -0.244817 0
21.685000 -0.151808 0
21.690000 -0.077589 0
21.695000 -0.024910 0
21.700000 0.013199 0
21.705000 0.044719 0
21.710000 0.074722 0
21.715000 0.105358 0
21.720000 0.137085 0
21.725000 0.169612 0
21.730000 0.202351 0
21.735000 0.234582 0
21.740000 0.265511 0
21.745000 0.294316 0
21.750000 0.320176 0
21.755000 0.342315 0
21.760000 0.360034 0
21.765000 0.372754 0
21.770000 0.380042 0
21.775000 0.381634 5
21.780000 0.377454 0
21.785000 0.367617 0
21.790000 0.352422 0
21.795000 0.332338 0
21.800000 0.307978 0
21.805000 0.280069 0
21.810000 0.249416 0
21.815000 0.216859 0
21.820000 0.183242 0
21.825000 0.149369 0
21.830000 0.115981 0
21.835000 0.083728 0
21.840000 0.053152 0
21.845000 0.024677 0
21.850000 -0.001391 0
21.855000 -0.024865 0
21.860000 -0.045661 0
21.865000 -0.063791 0
21.870000 -0.079342 0
21.875000 -0.092465 0
21.880000 -0.103352 0
21.885000 -0.112223 0
21.890000 -0.119312 0
21.895000 -0.124855 0
21.900000 -0.129079 0
21.905000 -0.132197 0
21.910000 -0.134402 0
21.915000 -0.135510 0
21.920000 -0.134522 0
21.925000 -0.133539 0
21.930000 -0.132561 0
21.935000 -0.131587 0
21.940000 -0.130617 0
21.945000 -0.129651 0
21.950000 -0.128687 0
21.955000 -0.127721 0
21.960000 -0.126748 0
21.965000 -0.125758 0
21.970000 -0.124731 0
21.975000 -0.123636 0
21.980000 -0.122421 0
21.985000 -0.121003 0
21.990000 -0.119258 0
21.995000 -0.117005 0
22.000000 -0.113989 0
22.005000 -0.109875 0
22.010000 -0.104239 0
22.015000 -0.096576 0
22.020000 -0.086333 0
22.025000 -0.072951 0
22.030000 -0.055947 0
22.035000 -0.035007 0
22.040000 -0.010090 0
22.045000 0.018466 0
22.050000 0.049877 0
22.055000 0.082889 0
22.060000 0.115818 0
22.065000 0.146675 0
22.070000 0.173352 0
22.075000 0.193855 0
22.080000 0.206551 0
22.085000 0.210381 1
22.090000 0.205010 0
22.095000 0.190872 0
22.100000 0.169112 0
22.105000 0.141436 0
22.110000 0.109879 0
22.115000 0.076520 0
22.120000 0.043110 0
22.125000 0.010515 0
22.130000 -0.022120 0
22.135000 -0.058121 0
22.140000 -0.102668 0
22.145000 -0.159068 0
22.150000 -0.222193 0
22.155000 -0.273441 0
22.160000 -0.282491 2
22.165000 -0.215560 0
22.170000 -0.045542 0
22.175000 0.234980 0
22.180000 0.593108 0
22.185000 0.939862 0
22.190000 1.151426 3
22.195000 1.136416 0
22.200000 0.897835 0
22.205000 0.527804 0
22.210000 0.147726 0
22.215000 -0.152542 0
22.220000 -0.333718 0
22.225000 -0.395985 4
22.230000 -0.365147 0
22.235000 -0.281637 0
22.240000 -0.186065 0
22.245000 -0.104862 0
22.250000 -0.045691 0
22.255000 -0.003682 0
22.260000 0.029368 0
22.265000 0.059553 0
22.270000 0.089867 0
22.275000 0.121220 0
22.280000 0.153522 0
22.285000 0.186277 0
22.290000 0.218817 0
22.295000 0.250387 0
22.300000 0.280187 0
22.305000 0.307406 0
22.310000 0.331259 0
22.315000 0.351021 0
22.320000 0.366070 0
22.325000 0.375911 0
22.330000 0.380206 5
22.335000 0.378794 0
22.340000 0.371699 0
22.345000 0.359126 0
22.350000 0.341456 0
22.355000 0.319224 0
22.360000 0.293090 0
22.365000 0.263809 0
22.370000 0.232192 0
22.375000 0.199070 0
22.380000 0.165259 0
22.385000 0.131526 0
22.390000 0.098560 0
22.395000 0.066958 0
22.400000 0.037204 0
22.405000 0.009668 0
22.410000 -0.015397 0
22.415000 -0.037846 0
22.420000 -0.057635 0
22.425000 -0.074805 0
22.430000 -0.089466 0
22.435000 -0.101782 0
22.440000 -0.111952 0
22.445000 -0.120198 0
22.450000 -0.126753 0
22.455000 -0.131846 0
22.460000 -0.135697 0
22.465000 -0.138508 0
22.470000 -0.140466 0
22.475000 -0.141399 0
22.480000 -0.140382 0
22.485000 -0.139370 0
22.490000 -0.138362 0
22.495000 -0.137359 0
22.500000 -0.136361 0
22.505000 -0.135366 0
22.510000 -0.134372 0
22.515000 -0.133376 0
22.520000 -0.132372 0
22.525000 -0.131348 0
22.530000 -0.130284 0
22.535000 -0.129145 0
22.540000 -0.127878 0
22.545000 -0.126396 0
22.550000 -0.124570 0
22.555000 -0.122213 0
22.560000 -0.119067 0
22.565000 -0.114793 0
22.570000 -0.108965 0
22.575000 -0.101085 0
22.580000 -0.090603 0
22.585000 -0.076975 0
22.590000 -0.059735 0
22.595000 -0.038585 0
22.600000 -0.013502 0
22.605000 0.015169 0
22.610000 0.046644 0
22.615000 0.079683 0
22.620000 0.112628 0
22.625000 0.143528 0
22.630000 0.170310 0
22.635000 0.191014 0
22.640000 0.204024 0
22.645000 0.208276 1
22.650000 0.203408 0
22.655000 0.189806 0
22.660000 0.168556 0
22.665000 0.141300 0
22.670000 0.110020 0
22.675000 0.076767 0
22.680000 0.043315 0
22.685000 0.010645 0
22.690000 -0.021833 0
22.695000 -0.057065 0
22.700000 -0.100030 0
22.705000 -0.154618 0
22.710000 -0.217520 0
22.715000 -0.272732 0
22.720000 -0.291995 2
22.725000 -0.242007 0
22.730000 -0.094072 0
22.735000 0.164387 0
22.740000 0.511252 0
22.745000 0.871117 0
22.750000 1.125537 0
22.755000 1.169644 3
22.760000 0.980026 0
22.765000 0.630868 0
22.770000 0.242997 0
22.775000 -0.082535 0
22.780000 -0.294437 0
22.785000 -0.384622 4
22.790000 -0.373535 0
22.795000 -0.299099 0
22.800000 -0.203359 0
22.805000 -0.117181 0
22.810000 -0.052649 0
22.815000 -0.007132 0
22.820000 0.027444 0
22.825000 0.057929 0
22.830000 0.088035 0
22.835000 0.119077 0
22.840000 0.151145 0
22.845000 0.183814 0
22.850000 0.216449 0
22.855000 0.248313 0
22.860000 0.278615 0
22.865000 0.306545 0
22.870000 0.331308 0
22.875000 0.352161 0
22.880000 0.368454 0
22.885000 0.379655 0
22.890000 0.385385 0
22.895000 0.385437 5
22.900000 0.379783 0
22.905000 0.368585 0
22.910000 0.352177 0
22.915000 0.331056 0
22.920000 0.305851 0
22.925000 0.277296 0
22.930000 0.246188 0
22.935000 0.213358 0
22.940000 0.179626 0
22.945000 0.145774 0
22.950000 0.112514 0
22.955000 0.080469 0
22.960000 0.050153 0
22.965000 0.021967 0
22.970000 -0.003807 0
22.975000 -0.026994 0
22.980000 -0.047526 0
22.985000 -0.065422 0
22.990000 -0.080774 0
22.995000 -0.093733 0
23.000000 -0.104491 0
23.005000 -0.113264 0
23.010000 -0.120283 0
23.015000 -0.125778 0
23.020000 -0.129972 0
23.025000 -0.133074 0
23.030000 -0.135274 0
23.035000 -0.136381 0
23.040000 -0.135389 0
23.045000 -0.134402 0
23.050000 -0.133419 0
23.055000 -0.132441 0
23.060000 -0.131468 0
23.065000 -0.130497 0
23.070000 -0.129529 0
23.075000 -0.128560 0
23.080000 -0.127584 0
23.085000 -0.126593 0
23.090000 -0.125568 0
23.095000 -0.124480 0
23.100000 -0.123282 0
23.105000 -0.121896 0
23.110000 -0.120209 0
23.115000 -0.118051 0
23.120000 -0.115186 0
23.125000 -0.111299 0
23.130000 -0.105990 0
23.135000 -0.098779 0
23.140000 -0.089128 0
23.145000 -0.076486 0
23.150000 -0.060355 0
23.155000 -0.040379 0
23.160000 -0.016445 0
23.165000 0.011219 0
23.170000 0.041961 0
23.175000 0.074674 0
23.180000 0.107815 0
23.185000 0.139504 0
23.190000 0.167686 0
23.195000 0.190345 0
23.200000 0.205739 0
23.205000 0.212628 1
23.210000 0.210431 0
23.215000 0.199314 0
23.220000 0.180165 0
23.225000 0.154478 0
23.230000 0.124159 0
23.235000 0.091267 0
23.240000 0.057700 0
23.245000 0.024746 0
23.250000 -0.007619 0
23.255000 -0.041582 0
23.260000 -0.081677 0
23.265000 -0.132655 0
23.270000 -0.194105 0
23.275000 -0.254189 0
23.280000 -0.287883 2
23.285000 -0.262457 0
23.290000 -0.146798 0
23.295000 0.078141 0
23.300000 0.403247 0
23.305000 0.770424 0
23.310000 1.070542 0
23.315000 1.186704 3
23.320000 1.066011 0
23.325000 0.755669 0
23.330000 0.367297 0
23.335000 0.012051 0
23.340000 -0.242597 0
23.345000 -0.375624 0
23.350000 -0.398367 4
23.355000 -0.342930 0
23.360000 -0.250861 0
23.365000 -0.158253 0
23.370000 -0.084451 0
23.375000 -0.031764 0
23.380000 0.006556 0
23.385000 0.038232 0
23.390000 0.068261 0
23.395000 0.098837 0
23.400000 0.130482 0
23.405000 0.162958 0
23.410000 0.195721 0
23.415000 0.228090 0
23.420000 0.259313 0
23.425000 0.288599 0
23.430000 0.315158 0
23.435000 0.338231 0
23.440000 0.357126 0
23.445000 0.371254 0
23.450000 0.380159 0
23.455000 0.383537 5
23.460000 0.381260 0
23.465000 0.373376 0
23.470000 0.360114 0
23.475000 0.341866 0
23.480000 0.319172 0
23.485000 0.292690 0
23.490000 0.263167 0
23.495000 0.231400 0
23.500000 0.198203 0
23.505000 0.164372 0
23.510000 0.130654 0
23.515000 0.097723 0
23.520000 0.066157 0
23.525000 0.036429 0
23.530000 0.008899 0
23.535000 -0.016185 0
23.540000 -0.038680 0
23.545000 -0.058543 0
23.550000 -0.075810 0
23.555000 -0.090587 0
23.560000 -0.103033 0
23.565000 -0.113341 0
23.570000 -0.121727 0
23.575000 -0.128419 0
23.580000 -0.133642 0
23.585000 -0.137613 0
23.590000 -0.140532 0
23.595000 -0.142583 0
23.600000 -0.143583 0
23.605000 -0.142555 0
23.610000 -0.141532 0
23.615000 -0.140514 0
23.620000 -0.139500 0
23.625000 -0.138491 0
23.630000 -0.137486 0
23.635000 -0.136482 0
23.640000 -0.135478 0
23.645000 -0.134467 0
23.650000 -0.133441 0
23.655000 -0.132381 0
23.660000 -0.131258 0
23.665000 -0.130026 0
23.670000 -0.128609 0
23.675000 -0.126896 0
23.680000 -0.124721 0
23.685000 -0.121857 0
23.690000 -0.117997 0
23.695000 -0.112753 0
23.700000 -0.105659 0
23.705000 -0.096190 0
23.710000 -0.083806 0
23.715000 -0.068009 0
23.720000 -0.048434 0
23.725000 -0.024938 0
23.730000 0.002299 0
23.735000 0.032695 0
23.740000 0.065226 0
23.745000 0.098440 0
23.750000 0.130537 0
23.755000 0.159517 0
23.760000 0.183378 0
23.765000 0.200349 0
23.770000 0.209097 1
23.775000 0.208911 0
23.780000 0.199791 0
23.785000 0.182454 0
23.790000 0.158239 0
23.795000 0.128935 0
23.800000 0.096551 0
23.805000 0.063025 0
23.810000 0.029844 0
23.815000 -0.002557 0
23.820000 -0.035612 0
23.825000 -0.073142 0
23.830000 -0.120175 0
23.835000 -0.178711 0
23.840000 -0.241467 0
23.845000 -0.288141 0
23.850000 -0.288364 2
23.855000 -0.209933 0
23.860000 -0.028273 0
23.865000 0.260853 0
23.870000 0.621663 0
23.875000 0.965192 0
23.880000 1.171859 3
23.885000 1.154191 0
23.890000 0.914605 0
23.895000 0.544531 0
23.900000 0.164017 0
23.905000 -0.137775 0
23.910000 -0.321428 0
23.915000 -0.386535 4
23.920000 -0.358090 0
23.925000 -0.275803 0
23.930000 -0.180103 0
23.935000 -0.097911 0
23.940000 -0.037625 0
23.945000 0.005142 0
23.950000 0.038511 0
23.955000 0.068713 0
23.960000 0.098905 0
23.965000 0.130105 0
23.970000 0.162278 0
23.975000 0.194957 0
23.980000 0.227494 0
23.985000 0.259149 0
23.990000 0.289135 0
23.995000 0.316650 0
24.000000 0.340914 0
24.005000 0.361201 0
24.010000 0.376880 0
24.015000 0.387444 0
24.020000 0.392535 5
24.025000 0.391967 0
24.030000 0.385733 0
24.035000 0.374009 0
24.040000 0.357141 0
24.045000 0.335634 0
24.050000 0.310120 0
24.055000 0.281330 0
24.060000 0.250057 0
24.065000 0.217123 0
24.070000 0.183337 0
24.075000 0.149471 0
24.080000 0.116225 0
24.085000 0.084210 0
24.090000 0.053932 0
24.095000 0.025781 0
24.100000 0.000037 0
24.105000 -0.023133 0
24.110000 -0.043660 0
24.115000 -0.061565 0
24.120000 -0.076941 0
24.125000 -0.089935 0
24.130000 -0.100736 0
24.135000 -0.109561 0
24.140000 -0.116636 0
24.145000 -0.122189 0
24.150000 -0.126442 0
24.155000 -0.129601 0
24.160000 -0.131854 0
24.165000 -0.133006 0
24.170000 -0.132031 0
24.175000 -0.131060 0
24.180000 -0.130094 0
24.185000 -0.129133 0
24.190000 -0.128176 0
24.195000 -0.127222 0
24.200000 -0.126270 0
24.205000 -0.125318 0
24.210000 -0.124360 0
24.215000 -0.123388 0
24.220000 -0.122384 0
24.225000 -0.121322 0
24.230000 -0.120157 0
24.235000 -0.118818 0
24.240000 -0.117195 0
24.245000 -0.115131 0
24.250000 -0.112402 0
24.255000 -0.108707 0
24.260000 -0.103664 0
24.265000 -0.096810 0
24.270000 -0.087618 0
24.275000 -0.075542 0
24.280000 -0.060076 0
24.285000 -0.040834 0
24.290000 -0.017654 0
24.295000 0.009309 0
24.300000 0.039495 0
24.305000 0.071898 0
24.310000 0.105076 0
24.315000 0.137227 0
24.320000 0.166339 0
24.325000 0.190388 0
24.330000 0.207571 0
24.335000 0.216528 1
24.340000 0.216521 0
24.345000 0.207533 0
24.350000 0.190273 0
24.355000 0.166083 0
24.360000 0.136766 0
24.365000 0.104346 0
24.370000 0.070780 0
24.375000 0.037566 0
24.380000 0.005129 0
24.385000 -0.028006 0
24.390000 -0.065732 0
24.395000 -0.113108 0
24.400000 -0.171984 0
24.405000 -0.234632 0
24.410000 -0.280120 2
24.415000 -0.277562 0
24.420000 -0.194606 0
24.425000 -0.007114 0
24.430000 0.287567 0
24.435000 0.650366 0
24.440000 0.988446 0
24.445000 1.181133 3
24.450000 1.145584 0
24.455000 0.892291 0
24.460000 0.517359 0
24.465000 0.140295 0
24.470000 -0.153312 0
24.475000 -0.327521 0
24.480000 -0.384287 4
24.485000 -0.350154 0
24.490000 -0.265482 0
24.495000 -0.170127 0
24.500000 -0.089597 0
24.505000 -0.030980 0
24.510000 0.010727 0
24.515000 0.043640 0
24.520000 0.073748 0
24.525000 0.103992 0
24.530000 0.135268 0
24.535000 0.167492 0
24.540000 0.200172 0
24.545000 0.232652 0
24.550000 0.264186 0
24.555000 0.293983 0
24.560000 0.321240 0
24.565000 0.345180 0
24.570000 0.365084 0
24.575000 0.380329 0
24.580000 0.390420 0
24.585000 0.395012 5
24.590000 0.393934 0
24.595000 0.387196 0
24.600000 0.374988 0
24.605000 0.357674 0
24.610000 0.335770 0
24.615000 0.309920 0
24.620000 0.280860 0
24.625000 0.249391 0
24.630000 0.216334 0
24.635000 0.182499 0
24.640000 0.148650 0
24.645000 0.115483 0
24.650000 0.083599 0
24.655000 0.053493 0
24.660000 0.025548 0
24.665000 0.000030 0
24.670000 -0.022901 0
24.675000 -0.043187 0
24.680000 -0.060856 0
24.685000 -0.076006 0
24.690000 -0.088790 0
24.695000 -0.099400 0
24.700000 -0.108055 0
24.705000 -0.114981 0
24.710000 -0.120407 0
24.715000 -0.124554 0
24.720000 -0.127625 0
24.725000 -0.129808 0
24.730000 -0.130916 0
24.735000 -0.129951 0
24.740000 -0.128990 0
24.745000 -0.128035 0
24.750000 -0.127084 0
24.755000 -0.126137 0
24.760000 -0.125193 0
24.765000 -0.124251 0
24.770000 -0.123308 0
24.775000 -0.122359 0
24.780000 -0.121393 0
24.785000 -0.120395 0
24.790000 -0.119334 0
24.795000 -0.118163 0
24.800000 -0.116808 0
24.805000 -0.115156 0
24.810000 -0.113041 0
24.815000 -0.110232 0
24.820000 -0.106419 0
24.825000 -0.101210 0
24.830000 -0.094133 0
24.835000 -0.084658 0
24.840000 -0.072238 0
24.845000 -0.056374 0
24.850000 -0.036702 0
24.855000 -0.013089 0
24.860000 0.014266 0
24.865000 0.044754 0
24.870000 0.077318 0
24.875000 0.110467 0
24.880000 0.142365 0
24.885000 0.170985 0
24.890000 0.194316 0
24.895000 0.210593 0
24.900000 0.218519 1
24.905000 0.217437 0
24.910000 0.207416 0
24.915000 0.189247 0
24.920000 0.164339 0
24.925000 0.134536 0
24.930000 0.101873 0
24.935000 0.068277 0
24.940000 0.035156 0
24.945000 0.002752 0
24.950000 -0.030696 0
24.955000 -0.069346 0
24.960000 -0.118173 0
24.965000 -0.178194 0
24.970000 -0.240126 0
24.975000 -0.281459 2
24.980000 -0.270588 0
24.985000 -0.175609 0
24.990000 0.025823 0
24.995000 0.332317 0
25.000000 0.698146 0
25.005000 1.024398 0
25.010000 1.191014 3
25.015000 1.124639 0
25.020000 0.848534 0
25.025000 0.466652 0
25.030000 0.097221 0
25.035000 -0.180542 0
25.040000 -0.336836 0
25.045000 -0.377931 4
25.050000 -0.333348 0
25.055000 -0.244659 0
25.060000 -0.150485 0
25.065000 -0.073500 0
25.070000 -0.018246 0
25.075000 0.021398 0
25.080000 0.053467 0
25.085000 0.083439 0
25.090000 0.113820 0
25.095000 0.145273 0
25.100000 0.177605 0
25.105000 0.210282 0
25.110000 0.242620 0
25.115000 0.273856 0
25.120000 0.303191 0
25.125000 0.329817 0
25.130000 0.352961 0
25.135000 0.371916 0
25.140000 0.386080 0
25.145000 0.394984 0
25.150000 0.398318 5
25.155000 0.395949 0
25.160000 0.387929 0
25.165000 0.374489 0
25.170000 0.356033 0
25.175000 0.333113 0
25.180000 0.306402 0
25.185000 0.276662 0
25.190000 0.244706 0
25.195000 0.211361 0
25.200000 0.177434 0
25.205000 0.143680 0
25.210000 0.110776 0
25.215000 0.079300 0
25.220000 0.049722 0
25.225000 0.022394 0
25.230000 -0.002444 0
25.235000 -0.024661 0
25.240000 -0.044225 0
25.245000 -0.061183 0
25.250000 -0.075654 0
25.255000 -0.087803 0
25.260000 -0.097834 0
25.265000 -0.105970 0
25.270000 -0.112440 0
25.275000 -0.117474 0
25.280000 -0.121289 0
25.285000 -0.124085 0
25.290000 -0.126045 0
25.295000 -0.127003 0
25.300000 -0.126058 0
25.305000 -0.125117 0
25.310000 -0.124181 0
25.315000 -0.123249 0
25.320000 -0.122320 0
25.325000 -0.121395 0
25.330000 -0.120470 0
25.335000 -0.119543 0
25.340000 -0.118607 0
25.345000 -0.117649 0
25.350000 -0.116649 0
25.355000 -0.115572 0
25.360000 -0.114362 0
25.365000 -0.112930 0
25.370000 -0.111145 0
25.375000 -0.108818 0
25.380000 -0.105687 0
25.385000 -0.101410 0
25.390000 -0.095559 0
25.395000 -0.087634 0
25.400000 -0.077087 0
25.405000 -0.063378 0
25.410000 -0.046048 0
25.415000 -0.024810 0
25.420000 0.000348 0
25.425000 0.029066 0
25.430000 0.060549 0
25.435000 0.093546 0
25.440000 0.126398 0
25.445000 0.157154 0
25.450000 0.183753 0
25.455000 0.204245 0
25.460000 0.217032 0
25.465000 0.221069 1
25.470000 0.216005 0
25.475000 0.202237 0
25.480000 0.180853 0
25.485000 0.153494 0
25.490000 0.122134 0
25.495000 0.088816 0
25.500000 0.055304 0
25.505000 0.022574 0
25.510000 -0.009961 0
25.515000 -0.045225 0
25.520000 -0.088173 0
25.525000 -0.142709 0
25.530000 -0.205637 0
25.535000 -0.261183 0
25.540000 -0.281336 2
25.545000 -0.232940 0
25.550000 -0.087246 0
25.555000 0.168756 0
25.560000 0.514071 0
25.565000 0.874984 0
25.570000 1.134125 0
25.575000 1.185602 3
25.580000 1.002108 0
25.585000 0.654819 0
25.590000 0.266801 0
25.595000 -0.058454 0
25.600000 -0.268689 0
25.605000 -0.356115 4
25.610000 -0.342177 0
25.615000 -0.266007 0
25.620000 -0.170314 0
25.625000 -0.085595 0
25.630000 -0.022933 0
25.635000 0.021129 0
25.640000 0.054912 0
25.645000 0.085109 0
25.650000 0.115177 0
25.655000 0.146253 0
25.660000 0.178328 0
25.665000 0.210926 0
25.670000 0.243377 0
25.675000 0.274916 0
25.680000 0.304729 0
25.685000 0.331987 0
25.690000 0.355887 0
25.695000 0.375686 0
25.700000 0.390742 0
25.705000 0.400548 0
25.710000 0.404755 5
25.715000 0.403198 0
25.720000 0.395900 0
25.725000 0.383075 0
25.730000 0.365114 0
25.735000 0.342568 0
25.740000 0.316116 0
25.745000 0.286533 0
25.750000 0.254648 0
25.755000 0.221310 0
25.760000 0.187347 0
25.765000 0.153537 0
25.770000 0.120573 0
25.775000 0.089052 0
25.780000 0.059454 0
25.785000 0.032139 0
25.790000 0.007350 0
25.795000 -0.014784 0
25.800000 -0.034233 0
25.805000 -0.051051 0
25.810000 -0.065364 0
25.815000 -0.077345 0
25.820000 -0.087206 0
25.825000 -0.095176 0
25.830000 -0.101491 0
25.835000 -0.106385 0
25.840000 -0.110077 0
25.845000 -0.112772 0
25.850000 -0.114650 0
25.855000 -0.114166 0
25.860000 -0.113285 0
25.865000 -0.112407 0
25.870000 -0.111534 0
25.875000 -0.110665 0
25.880000 -0.109799 0
25.885000 -0.108936 0
25.890000 -0.108072 0
25.895000 -0.107203 0
25.900000 -0.106322 0
25.905000 -0.105413 0
25.910000 -0.104451 0
25.915000 -0.103393 0
25.920000 -0.102173 0
25.925000 -0.100685 0
25.930000 -0.098772 0
25.935000 -0.096215 0
25.940000 -0.092711 0
25.945000 -0.087875 0
25.950000 -0.081232 0
25.955000 -0.072245 0
25.960000 -0.060347 0
25.965000 -0.045011 0
25.970000 -0.025840 0
25.975000 -0.002664 0
25.980000 0.024349 0
25.985000 0.054605 0
25.990000 0.087043 0
25.995000 0.120144 0
26.000000 0.152023 0
26.005000 0.180589 0
26.010000 0.203768 0
26.015000 0.219745 0
26.020000 0.227201 1
26.025000 0.225491 0
26.030000 0.214735 0
26.035000 0.195806 0
26.040000 0.170208 0
26.045000 0.139879 0
26.050000 0.106923 0
26.055000 0.073280 0
26.060000 0.040259 0
26.065000 0.007806 0
26.070000 -0.026377 0
26.075000 -0.066984 0
26.080000 -0.118755 0
26.085000 -0.180728 0
26.090000 -0.239843 0
26.095000 -0.269624 2
26.100000 -0.236389 0
26.105000 -0.109096 0
26.110000 0.129424 0
26.115000 0.464708 0
26.120000 0.829661 0
26.125000 1.107844 0
26.130000 1.185383 3
26.135000 1.023838 0
26.140000 0.687540 0
26.145000 0.298253 0
26.150000 -0.036158 0
26.155000 -0.258248 0
26.160000 -0.356664 4
26.165000 -0.350663 0
26.170000 -0.278334 0
26.175000 -0.182862 0
26.180000 -0.096414 0
26.185000 -0.031785 0
26.190000 0.013592 0
26.195000 0.047969 0
26.200000 0.078314 0
26.205000 0.108348 0
26.210000 0.139354 0
26.215000 0.171385 0
26.220000 0.203986 0
26.225000 0.236496 0
26.230000 0.268156 0
26.235000 0.298150 0
26.240000 0.325649 0
26.245000 0.349842 0
26.250000 0.369981 0
26.255000 0.385413 0
26.260000 0.395619 0
26.265000 0.400238 5
26.270000 0.399090 0
26.275000 0.392187 0
26.280000 0.379730 0
26.285000 0.362101 0
26.290000 0.339842 0
26.295000 0.313628 0
26.300000 0.284228 0
26.305000 0.252475 0
26.310000 0.219217 0
26.315000 0.185289 0
26.320000 0.151470 0
26.325000 0.118465 0
26.330000 0.086875 0
26.335000 0.057188 0
26.340000 0.029771 0
26.345000 0.004874 0
26.350000 -0.017369 0
26.355000 -0.036923 0
26.360000 -0.053839 0
26.365000 -0.068240 0
26.370000 -0.080299 0
26.375000 -0.090225 0
26.380000 -0.098249 0
26.385000 -0.104608 0
26.390000 -0.109534 0
26.395000 -0.113250 0
26.400000 -0.115960 0
26.405000 -0.117846 0
26.410000 -0.117350 0
26.415000 -0.116452 0
26.420000 -0.115559 0
26.425000 -0.114671 0
26.430000 -0.113786 0
26.435000 -0.112905 0
26.440000 -0.112025 0
26.445000 -0.111146 0
26.450000 -0.110262 0
26.455000 -0.109366 0
26.460000 -0.108443 0
26.465000 -0.107467 0
26.470000 -0.106397 0
26.475000 -0.105165 0
26.480000 -0.103667 0
26.485000 -0.101747 0
26.490000 -0.099185 0
26.495000 -0.095680 0
26.500000 -0.090845 0
26.505000 -0.084206 0
26.510000 -0.075224 0
26.515000 -0.063332 0
26.520000 -0.048002 0
26.525000 -0.028831 0
26.530000 -0.005652 0
26.535000 0.021370 0
26.540000 0.051640 0
26.545000 0.084094 0
26.550000 0.117209 0
26.555000 0.149095 0
26.560000 0.177657 0
26.565000 0.200814 0
26.570000 0.216750 0
26.575000 0.224146 1
26.580000 0.222363 0
26.585000 0.211529 0
26.590000 0.192525 0
26.595000 0.166867 0
26.600000 0.136500 0
26.605000 0.103533 0
26.610000 0.069906 0
26.615000 0.036915 0
26.620000 0.004473 0
26.625000 -0.029776 0
26.630000 -0.070572 0
26.635000 -0.122614 0
26.640000 -0.184716 0
26.645000 -0.243446 0
26.650000 -0.271972 2
26.655000 -0.236472 0
26.660000 -0.106051 0
26.665000 0.135867 0
26.670000 0.473447 0
26.675000 0.837580 0
26.680000 1.110547 0
26.685000 1.179668 3
26.690000 1.009269 0
26.695000 0.667040 0
26.700000 0.278617 0
26.705000 -0.048282 0
26.710000 -0.258948 0
26.715000 -0.345182 4
26.720000 -0.329256 0
26.725000 -0.251652 0
26.730000 -0.156021 0
26.735000 -0.072706 0
26.740000 -0.011849 0
26.745000 0.030840 0
26.750000 0.063940 0
26.755000 0.093970 0
26.760000 0.124123 0
26.765000 0.155348 0
26.770000 0.187531 0
26.775000 0.220138 0
26.780000 0.252458 0
26.785000 0.283691 0
26.790000 0.312995 0
26.795000 0.339519 0
26.800000 0.362447 0
26.805000 0.381039 0
26.810000 0.394668 0
26.815000 0.402854 0
26.820000 0.405293 5
26.825000 0.401872 0
26.830000 0.392680 0
26.835000 0.377999 0
26.840000 0.358292 0
26.845000 0.334175 0
26.850000 0.306390 0
26.855000 0.275759 0
26.860000 0.243148 0
26.865000 0.209425 0
26.870000 0.175423 0
26.875000 0.141906 0
26.880000 0.109544 0
26.885000 0.078893 0
26.890000 0.050388 0
26.895000 0.024337 0
26.900000 0.000928 0
26.905000 -0.019761 0
26.910000 -0.037750 0
26.915000 -0.053137 0
26.920000 -0.066082 0
26.925000 -0.076788 0
26.930000 -0.085484 0
26.935000 -0.092414 0
26.940000 -0.097818 0
26.945000 -0.101929 0
26.950000 -0.104962 0
26.955000 -0.107111 0
26.960000 -0.108215 0
26.965000 -0.107363 0
26.970000 -0.106516 0
26.975000 -0.105672 0
26.980000 -0.104833 0
26.985000 -0.103996 0
26.990000 -0.103162 0
26.995000 -0.102328 0
27.000000 -0.101490 0
27.005000 -0.100641 0
27.010000 -0.099766 0
27.015000 -0.098843 0
27.020000 -0.097829 0
27.025000 -0.096660 0
27.030000 -0.095231 0
27.035000 -0.093390 0
27.040000 -0.090913 0
27.045000 -0.087499 0
27.050000 -0.082752 0
27.055000 -0.076192 0
27.060000 -0.067263 0
27.065000 -0.055386 0
27.070000 -0.040018 0
27.075000 -0.020753 0
27.080000 0.002575 0
27.085000 0.029776 0
27.090000 0.060212 0
27.095000 0.092756 0
27.100000 0.125810 0
27.105000 0.157406 0
27.110000 0.185384 0
27.115000 0.207631 0
27.120000 0.222340 0
27.125000 0.228251 1
27.130000 0.224833 0
27.135000 0.212356 0
27.140000 0.191858 0
27.145000 0.165000 0
27.150000 0.133838 0
27.155000 0.100527 0
27.160000 0.066952 0
27.165000 0.034164 0
27.170000 0.001535 0
27.175000 -0.034096 0
27.180000 -0.077986 0
27.185000 -0.133857 0
27.190000 -0.197065 0
27.195000 -0.249024 0
27.200000 -0.258730 2
27.205000 -0.191384 0
27.210000 -0.019156 0
27.215000 0.264901 0
27.220000 0.624896 0
27.225000 0.966387 0
27.230000 1.161741 3
27.235000 1.122088 0
27.240000 0.860054 0
27.245000 0.480837 0
27.250000 0.110397 0
27.255000 -0.166172 0
27.260000 -0.317575 0
27.265000 -0.351588 4
27.270000 -0.300784 0
27.275000 -0.209618 0
27.280000 -0.117356 0
27.285000 -0.044754 0
27.290000 0.006255 0
27.295000 0.043240 0
27.300000 0.074252 0
27.305000 0.104142 0
27.310000 0.134826 0
27.315000 0.166607 0
27.320000 0.199111 0
27.325000 0.231692 0
27.330000 0.263582 0
27.335000 0.293948 0
27.340000 0.321934 0
27.345000 0.346695 0
27.350000 0.367445 0
27.355000 0.383495 0
27.360000 0.394287 0
27.365000 0.399432 5
27.370000 0.398724 0
27.375000 0.392159 0
27.380000 0.379935 0
27.385000 0.362437 0
27.390000 0.340222 0
27.395000 0.313983 0
27.400000 0.284517 0
27.405000 0.252682 0
27.410000 0.219357 0
27.415000 0.185399 0
27.420000 0.151611 0
27.425000 0.118710 0
27.430000 0.087307 0
27.435000 0.057889 0
27.440000 0.030821 0
27.445000 0.006341 0
27.450000 -0.015430 0
27.455000 -0.034473 0
27.460000 -0.050858 0
27.465000 -0.064724 0
27.470000 -0.076260 0
27.475000 -0.085688 0
27.480000 -0.093249 0
27.485000 -0.099189 0
27.490000 -0.103744 0
27.495000 -0.107138 0
27.500000 -0.109577 0
27.505000 -0.110873 0
27.510000 -0.110008 0
27.515000 -0.109147 0
27.520000 -0.108290 0
27.525000 -0.107438 0
27.530000 -0.106589 0
27.535000 -0.105742 0
27.540000 -0.104897 0
27.545000 -0.104050 0
27.550000 -0.103194 0
27.555000 -0.102319 0
27.560000 -0.101404 0
27.565000 -0.100414 0
27.570000 -0.099292 0
27.575000 -0.097949 0
27.580000 -0.096247 0
27.585000 -0.093985 0
27.590000 -0.090886 0
27.595000 -0.086582 0
27.600000 -0.080612 0
27.605000 -0.072438 0
27.610000 -0.061477 0
27.615000 -0.047163 0
27.620000 -0.029036 0
27.625000 -0.006848 0
27.630000 0.019321 0
27.635000 0.048964 0
27.640000 0.081084 0
27.645000 0.114194 0
27.650000 0.146401 0
27.655000 0.175559 0
27.660000 0.199502 0
27.665000 0.216308 0
27.670000 0.224545 1
27.675000 0.223482 0
27.680000 0.213186 0
27.685000 0.194521 0
27.690000 0.169027 0
27.695000 0.138700 0
27.700000 0.105719 0
27.705000 0.072083 0
27.710000 0.039107 0
27.715000 0.006629 0
27.720000 -0.027927 0
27.725000 -0.069568 0
27.730000 -0.122875 0
27.735000 -0.185572 0
27.740000 -0.242049 0
27.745000 -0.263126 2
27.750000 -0.213685 0
27.755000 -0.063406 0
27.760000 0.200295 0
27.765000 0.551416 0
27.770000 0.905747 0
27.775000 1.136515 0
27.780000 1.141388 3
27.785000 0.913328 0
27.790000 0.545369 0
27.795000 0.165547 0
27.800000 -0.131381 0
27.805000 -0.305308 0
27.810000 -0.358284 4
27.815000 -0.319357 0
27.820000 -0.232060 0
27.825000 -0.137846 0
27.830000 -0.061177 0
27.835000 -0.006769 0
27.840000 0.032053 0
27.845000 0.063687 0
27.850000 0.093596 0
27.855000 0.124115 0
27.860000 0.155748 0
27.865000 0.188194 0
27.870000 0.220840 0
27.875000 0.252934 0
27.880000 0.283651 0
27.885000 0.312134 0
27.890000 0.337533 0
27.895000 0.359051 0
27.900000 0.375975 0
27.905000 0.387726 0
27.910000 0.393880 0
27.915000 0.394200 5
27.920000 0.388649 0
27.925000 0.377389 0
27.930000 0.360775 0
27.935000 0.339337 0
27.940000 0.313748 0
27.945000 0.284792 0
27.950000 0.253318 0
27.955000 0.220207 0
27.960000 0.186321 0
27.965000 0.152476 0
27.970000 0.119405 0
27.975000 0.087738 0
27.980000 0.057985 0
27.985000 0.030531 0
27.990000 0.005633 0
27.995000 -0.016566 0
28.000000 -0.036034 0
28.005000 -0.052827 0
28.010000 -0.067072 0
28.015000 -0.078953 0
28.020000 -0.088688 0
28.025000 -0.096516 0
28.030000 -0.102681 0
28.035000 -0.107424 0
28.040000 -0.110971 0
28.045000 -0.113530 0
28.050000 -0.115285 0
28.055000 -0.114779 0
28.060000 -0.113895 0
28.065000 -0.113015 0
28.070000 -0.112139 0
28.075000 -0.111266 0
28.080000 -0.110397 0
28.085000 -0.109529 0
28.090000 -0.108660 0
28.095000 -0.107784 0
28.100000 -0.106891 0
28.105000 -0.105961 0
28.110000 -0.104964 0
28.115000 -0.103847 0
28.120000 -0.102525 0
28.125000 -0.100868 0
28.130000 -0.098689 0
28.135000 -0.095721 0
28.140000 -0.091611 0
28.145000 -0.085913 0
28.150000 -0.078098 0
28.155000 -0.067586 0
28.160000 -0.053803 0
28.165000 -0.036267 0
28.170000 -0.014688 0
28.175000 0.010911 0
28.180000 0.040094 0
28.185000 0.071940 0
28.190000 0.105034 0
28.195000 0.137533 0
28.200000 0.167317 0
28.205000 0.192206 0
28.210000 0.210219 0
28.215000 0.219838 0
28.220000 0.220213 1
28.225000 0.211289 0
28.230000 0.193818 0
28.235000 0.169247 0
28.240000 0.139525 0
28.245000 0.106823 0
28.250000 0.073197 0
28.255000 0.040107 0
28.260000 0.007669 0
28.265000 -0.026291 0
28.270000 -0.066511 0
28.275000 -0.117974 0
28.280000 -0.179887 0
28.285000 -0.238812 0
28.290000 -0.267216 2
28.295000 -0.230173 0
28.300000 -0.095949 0
28.305000 0.151707 0
28.310000 0.493931 0
28.315000 0.855181 0
28.320000 1.111634 0
28.325000 1.152201 3
28.330000 0.953441 0
28.335000 0.597031 0
28.340000 0.212256 0
28.345000 -0.098374 0
28.350000 -0.287700 0
28.355000 -0.353562 4
28.360000 -0.322774 0
28.365000 -0.238443 0
28.370000 -0.143503 0
28.375000 -0.064740 0
28.380000 -0.008554 0
