0.000000 1.155720 3
0.005000 1.052680 0
0.010000 0.792004 0
0.015000 0.452720 0
0.020000 0.120051 0
0.025000 -0.145981 0
0.030000 -0.318167 0
0.035000 -0.394886 4
0.040000 -0.391799 0
0.045000 -0.335750 0
0.050000 -0.257227 0
0.055000 -0.181151 0
0.060000 -0.120767 0
0.065000 -0.077917 0
0.070000 -0.047916 0
0.075000 -0.024734 0
0.080000 -0.003839 0
0.085000 0.017285 0
0.090000 0.039715 0
0.095000 0.063756 0
0.100000 0.089365 0
0.105000 0.116331 0
0.110000 0.144347 0
0.115000 0.173031 0
0.120000 0.201934 0
0.125000 0.230555 0
0.130000 0.258350 0
0.135000 0.284750 0
0.140000 0.309177 0
0.145000 0.331069 0
0.150000 0.349898 0
0.155000 0.365193 0
0.160000 0.376554 0
0.165000 0.383678 0
0.170000 0.386363 5
0.175000 0.384524 0
0.180000 0.378194 0
0.185000 0.367522 0
0.190000 0.352770 0
0.195000 0.334299 0
0.200000 0.312557 0
0.205000 0.288057 0
0.210000 0.261362 0
0.215000 0.233057 0
0.220000 0.203735 0
0.225000 0.173969 0
0.230000 0.144302 0
0.235000 0.115225 0
0.240000 0.087169 0
0.245000 0.060496 0
0.250000 0.035495 0
0.255000 0.012378 0
0.260000 -0.008712 0
0.265000 -0.027704 0
0.270000 -0.044583 0
0.275000 -0.059390 0
0.280000 -0.072207 0
0.285000 -0.083150 0
0.290000 -0.092361 0
0.295000 -0.099995 0
0.300000 -0.106216 0
0.305000 -0.111190 0
0.310000 -0.115079 0
0.315000 -0.118034 0
0.320000 -0.120199 0
0.325000 -0.121702 0
0.330000 -0.122658 0
0.335000 -0.123166 0
0.340000 -0.123314 0
0.345000 -0.123038 0
0.350000 -0.121954 0
0.355000 -0.120876 0
0.360000 -0.119804 0
0.365000 -0.118736 0
0.370000 -0.117674 0
0.375000 -0.116618 0
0.380000 -0.115566 0
0.385000 -0.114520 0
0.390000 -0.113479 0
0.395000 -0.112442 0
0.400000 -0.111410 0
0.405000 -0.110382 0
0.410000 -0.109357 0
0.415000 -0.108332 0
0.420000 -0.107303 0
0.425000 -0.106265 0
0.430000 -0.105205 0
0.435000 -0.104106 0
0.440000 -0.102940 0
0.445000 -0.101663 0
0.450000 -0.100211 0
0.455000 -0.098492 0
0.460000 -0.096377 0
0.465000 -0.093692 0
0.470000 -0.090214 0
0.475000 -0.085664 0
0.480000 -0.079709 0
0.485000 -0.071979 0
0.490000 -0.062080 0
0.495000 -0.049631 0
0.500000 -0.034311 0
0.505000 -0.015909 0
0.510000 0.005612 0
0.515000 0.030063 0
0.520000 0.056980 0
0.525000 0.085609 0
0.530000 0.114912 0
0.535000 0.143612 0
0.540000 0.170280 0
0.545000 0.193441 0
0.550000 0.211718 0
0.555000 0.223958 0
0.560000 0.229357 1
0.565000 0.227549 0
0.570000 0.218645 0
0.575000 0.203224 0
0.580000 0.182272 0
0.585000 0.157076 0
0.590000 0.129094 0
0.595000 0.099813 0
0.600000 0.070598 0
0.605000 0.042528 0
0.610000 0.016150 0
0.615000 -0.008886 0
0.620000 -0.034297 0
0.625000 -0.063354 0
0.630000 -0.100035 0
0.635000 -0.146434 0
0.640000 -0.198942 0
0.645000 -0.245398 0
0.650000 -0.265724 2
0.655000 -0.236154 0
0.660000 -0.134787 0
0.665000 0.052431 0
0.670000 0.322593 0
0.675000 0.643238 0
0.680000 0.946305 0
0.685000 1.143966 0
0.690000 1.167418 3
0.695000 1.001455 0
0.700000 0.699880 0
0.705000 0.353963 0
0.710000 0.045464 0
0.715000 -0.177761 0
0.720000 -0.300943 0
0.725000 -0.332463 4
0.730000 -0.296058 0
0.735000 -0.223498 0
0.740000 -0.144636 0
0.745000 -0.078477 0
0.750000 -0.030737 0
0.755000 0.001998 0
0.760000 0.026125 0
0.765000 0.046975 0
0.770000 0.067667 0
0.775000 0.089582 0
0.780000 0.113144 0
0.785000 0.138341 0
0.790000 0.164963 0
0.795000 0.192693 0
0.800000 0.221127 0
0.805000 0.249792 0
0.810000 0.278153 0
0.815000 0.305631 0
0.820000 0.331622 0
0.825000 0.355513 0
0.830000 0.376711 0
0.835000 0.394664 0
0.840000 0.408884 0
0.845000 0.418970 0
0.850000 0.424626 0
0.855000 0.425673 5
0.860000 0.422058 0
0.865000 0.413859 0
0.870000 0.401282 0
0.875000 0.384647 0
0.880000 0.364379 0
0.885000 0.340989 0
0.890000 0.315050 0
0.895000 0.287173 0
0.900000 0.257987 0
0.905000 0.228110 0
0.910000 0.198133 0
0.915000 0.168597 0
0.920000 0.139982 0
0.925000 0.112693 0
0.930000 0.087058 0
0.935000 0.063321 0
0.940000 0.041647 0
0.945000 0.022125 0
0.950000 0.004779 0
0.955000 -0.010427 0
0.960000 -0.023579 0
0.965000 -0.034797 0
0.970000 -0.044230 0
0.975000 -0.052043 0
0.980000 -0.058410 0
0.985000 -0.063508 0
0.990000 -0.067505 0
0.995000 -0.070563 0
1.000000 -0.072830 0
1.005000 -0.074440 0
1.010000 -0.075511 0
1.015000 -0.076146 0
1.020000 -0.076431 0
1.025000 -0.075745 0
1.030000 -0.074897 0
1.035000 -0.074054 0
1.040000 -0.073215 0
1.045000 -0.072380 0
1.050000 -0.071549 0
1.055000 -0.070722 0
1.060000 -0.069900 0
1.065000 -0.069081 0
1.070000 -0.068267 0
1.075000 -0.067455 0
1.080000 -0.066647 0
1.085000 -0.065841 0
1.090000 -0.065034 0
1.095000 -0.064224 0
1.100000 -0.063404 0
1.105000 -0.062564 0
1.110000 -0.061685 0
1.115000 -0.060741 0
1.120000 -0.059686 0
1.125000 -0.058456 0
1.130000 -0.056952 0
1.135000 -0.055041 0
1.140000 -0.052537 0
1.145000 -0.049201 0
1.150000 -0.044732 0
1.155000 -0.038774 0
1.160000 -0.030928 0
1.165000 -0.020776 0
1.170000 -0.007922 0
1.175000 0.007955 0
1.180000 0.027039 0
1.185000 0.049308 0
1.190000 0.074477 0
1.195000 0.101951 0
1.200000 0.130816 0
1.205000 0.159862 0
1.210000 0.187653 0
1.215000 0.212635 0
1.220000 0.233275 0
1.225000 0.248218 0
1.230000 0.256430 0
1.235000 0.257317 1
1.240000 0.250795 0
1.245000 0.237304 0
1.250000 0.217754 0
1.255000 0.193427 0
1.260000 0.165833 0
1.265000 0.136557 0
1.270000 0.107086 0
1.275000 0.078633 0
1.280000 0.051884 0
1.285000 0.026603 0
1.290000 0.001115 0
1.295000 -0.027956 0
1.300000 -0.064818 0
1.305000 -0.111664 0
1.310000 -0.164398 0
1.315000 -0.209557 0
1.320000 -0.225290 2
1.325000 -0.186345 0
1.330000 -0.070327 0
1.335000 0.135225 0
1.340000 0.421644 0
1.345000 0.745320 0
1.350000 1.025653 0
1.355000 1.170902 3
1.360000 1.125189 0
1.365000 0.901861 0
1.370000 0.573971 0
1.375000 0.233282 0
1.380000 -0.049510 0
1.385000 -0.239125 0
1.390000 -0.329782 0
1.395000 -0.335619 4
1.400000 -0.283747 0
1.405000 -0.206232 0
1.410000 -0.129960 0
1.415000 -0.069480 0
1.420000 -0.026967 0
1.425000 0.002492 0
1.430000 0.025205 0
1.435000 0.045812 0
1.440000 0.066811 0
1.445000 0.089220 0
1.450000 0.113295 0
1.455000 0.138953 0
1.460000 0.165951 0
1.465000 0.193948 0
1.470000 0.222526 0
1.475000 0.251195 0
1.480000 0.279414 0
1.485000 0.306599 0
1.490000 0.332146 0
1.495000 0.355451 0
1.500000 0.375934 0
1.505000 0.393060 0
1.510000 0.406365 0
1.515000 0.415473 0
1.520000 0.420117 0
1.525000 0.420148 5
1.530000 0.415542 0
1.535000 0.406405 0
1.540000 0.392966 0
1.545000 0.375567 0
1.550000 0.354649 0
1.555000 0.330731 0
1.560000 0.304392 0
1.565000 0.276245 0
1.570000 0.246911 0
1.575000 0.217001 0
1.580000 0.187093 0
1.585000 0.157714 0
1.590000 0.129327 0
1.595000 0.102323 0
1.600000 0.077010 0
1.605000 0.053620 0
1.610000 0.032303 0
1.615000 0.013139 0
1.620000 -0.003861 0
1.625000 -0.018740 0
1.630000 -0.031586 0
1.635000 -0.042526 0
1.640000 -0.051708 0
1.645000 -0.059299 0
1.650000 -0.065472 0
1.655000 -0.070400 0
1.660000 -0.074252 0
1.665000 -0.077186 0
1.670000 -0.079347 0
1.675000 -0.080866 0
1.680000 -0.081859 0
1.685000 -0.082427 0
1.690000 -0.082655 0
1.695000 -0.081933 0
1.700000 -0.081055 0
1.705000 -0.080181 0
1.710000 -0.079311 0
1.715000 -0.078446 0
1.720000 -0.077585 0
1.725000 -0.076728 0
1.730000 -0.075876 0
1.735000 -0.075027 0
1.740000 -0.074183 0
1.745000 -0.073342 0
1.750000 -0.072504 0
1.755000 -0.071669 0
1.760000 -0.070833 0
1.765000 -0.069994 0
1.770000 -0.069144 0
1.775000 -0.068275 0
1.780000 -0.067367 0
1.785000 -0.066393 0
1.790000 -0.065310 0
1.795000 -0.064051 0
1.800000 -0.062521 0
1.805000 -0.060585 0
1.810000 -0.058061 0
1.815000 -0.054712 0
1.820000 -0.050241 0
1.825000 -0.044296 0
1.830000 -0.036480 0
1.835000 -0.026381 0
1.840000 -0.013603 0
1.845000 0.002176 0
1.850000 0.021144 0
1.855000 0.043290 0
1.860000 0.068344 0
1.865000 0.095733 0
1.870000 0.124569 0
1.875000 0.153667 0
1.880000 0.181614 0
1.885000 0.206873 0
1.890000 0.227917 0
1.895000 0.243383 0
1.900000 0.252215 0
1.905000 0.253782 1
1.910000 0.247958 0
1.915000 0.235129 0
1.920000 0.216158 0
1.925000 0.192284 0
1.930000 0.164990 0
1.935000 0.135846 0
1.940000 0.106349 0
1.945000 0.077743 0
1.950000 0.050790 0
1.955000 0.025400 0
1.960000 0.000124 0
1.965000 -0.028175 0
1.970000 -0.063680 0
1.975000 -0.109099 0
1.980000 -0.161543 0
1.985000 -0.209115 0
1.990000 -0.231173 2
1.995000 -0.202791 0
2.000000 -0.100864 0
2.005000 0.089243 0
2.010000 0.363541 0
2.015000 0.685592 0
2.020000 0.981027 0
2.025000 1.157629 3
2.030000 1.149579 0
2.035000 0.954875 0
2.040000 0.637751 0
2.045000 0.293891 0
2.050000 0.001659 0
2.055000 -0.197765 0
2.060000 -0.295764 0
2.065000 -0.305758 4
2.070000 -0.255448 0
2.075000 -0.178238 0
2.080000 -0.102252 0
2.085000 -0.042517 0
2.090000 -0.000992 0
2.095000 0.027635 0
2.100000 0.049868 0
2.105000 0.070320 0
2.110000 0.091375 0
2.115000 0.113946 0
2.120000 0.138224 0
2.125000 0.164084 0
2.130000 0.191247 0
2.135000 0.219340 0
2.140000 0.247904 0
2.145000 0.276413 0
2.150000 0.304289 0
2.155000 0.330911 0
2.160000 0.355648 0
2.165000 0.377874 0
2.170000 0.396999 0
2.175000 0.412492 0
2.180000 0.423904 0
2.185000 0.430890 0
2.190000 0.433229 5
2.195000 0.430826 0
2.200000 0.423727 0
2.205000 0.412110 0
2.210000 0.396281 0
2.215000 0.376657 0
2.220000 0.353750 0
2.225000 0.328144 0
2.230000 0.300466 0
2.235000 0.271366 0
2.240000 0.241487 0
2.245000 0.211443 0
2.250000 0.181802 0
2.255000 0.153064 0
2.260000 0.125655 0
2.265000 0.099916 0
2.270000 0.076104 0
2.275000 0.054389 0
2.280000 0.034864 0
2.285000 0.017550 0
2.290000 0.002409 0
2.295000 -0.010651 0
2.300000 -0.021756 0
2.305000 -0.031063 0
2.310000 -0.038744 0
2.315000 -0.044980 0
2.320000 -0.049952 0
2.325000 -0.053834 0
2.330000 -0.056792 0
2.335000 -0.058974 0
2.340000 -0.060517 0
2.345000 -0.061538 0
2.350000 -0.062140 0
2.355000 -0.062409 0
2.360000 -0.061779 0
2.365000 -0.061001 0
2.370000 -0.060227 0
2.375000 -0.059457 0
2.380000 -0.058691 0
2.385000 -0.057928 0
2.390000 -0.057170 0
2.395000 -0.056415 0
2.400000 -0.055663 0
2.405000 -0.054915 0
2.410000 -0.054170 0
2.415000 -0.053427 0
2.420000 -0.052685 0
2.425000 -0.051940 0
2.430000 -0.051189 0
2.435000 -0.050422 0
2.440000 -0.049624 0
2.445000 -0.048771 0
2.450000 -0.047826 0
2.455000 -0.046729 0
2.460000 -0.045393 0
2.465000 -0.043691 0
2.470000 -0.041452 0
2.475000 -0.038443 0
2.480000 -0.034373 0
2.485000 -0.028887 0
2.490000 -0.021582 0
2.495000 -0.012027 0
2.500000 0.000199 0
2.505000 0.015448 0
2.510000 0.033941 0
2.515000 0.055696 0
2.520000 0.080461 0
2.525000 0.107666 0
2.530000 0.136401 0
2.535000 0.165441 0
2.540000 0.193315 0
2.545000 0.218418 0
2.550000 0.239160 0
2.555000 0.254129 0
2.560000 0.262253 0
2.565000 0.262920 1
2.570000 0.256057 0
2.575000 0.242140 0
2.580000 0.222138 0
2.585000 0.197400 0
2.590000 0.169505 0
2.595000 0.140088 0
2.600000 0.110663 0
2.605000 0.082422 0
2.610000 0.055950 0
2.615000 0.030768 0
2.620000 0.004787 0
2.625000 -0.025809 0
2.630000 -0.065216 0
2.635000 -0.114467 0
2.640000 -0.166867 0
2.645000 -0.205662 0
2.650000 -0.206514 2
2.655000 -0.143550 0
2.660000 0.003842 0
2.665000 0.242311 0
2.670000 0.550723 0
2.675000 0.867797 0
2.680000 1.100520 0
2.685000 1.163797 3
2.690000 1.030618 0
2.695000 0.747892 0
2.700000 0.403353 0
2.705000 0.082818 0
2.710000 -0.159115 0
2.715000 -0.302073 0
2.720000 -0.350533 4
2.725000 -0.325527 0
2.730000 -0.257724 0
2.735000 -0.178062 0
2.740000 -0.108180 0
2.745000 -0.056414 0
2.750000 -0.020812 0
2.755000 0.004788 0
2.760000 0.026112 0
2.765000 0.046748 0
2.770000 0.068395 0
2.775000 0.091637 0
2.780000 0.116533 0
2.785000 0.142913 0
2.790000 0.170481 0
2.795000 0.198858 0
2.800000 0.227588 0
2.805000 0.256154 0
2.810000 0.283992 0
2.815000 0.310504 0
2.820000 0.335082 0
2.825000 0.357129 0
2.830000 0.376084 0
2.835000 0.391442 0
2.840000 0.402779 0
2.845000 0.409769 0
2.850000 0.412202 5
2.855000 0.409990 0
2.860000 0.403173 0
2.865000 0.391917 0
2.870000 0.376511 0
2.875000 0.357348 0
2.880000 0.334912 0
2.885000 0.309755 0
2.890000 0.282476 0
2.895000 0.253698 0
2.900000 0.224041 0
2.905000 0.194102 0
2.910000 0.164437 0
2.915000 0.135544 0
2.920000 0.107849 0
2.925000 0.081704 0
2.930000 0.057380 0
2.935000 0.035066 0
2.940000 0.014875 0
2.945000 -0.003147 0
2.950000 -0.019019 0
2.955000 -0.032808 0
2.960000 -0.044624 0
2.965000 -0.054605 0
2.970000 -0.062911 0
2.975000 -0.069714 0
2.980000 -0.075188 0
2.985000 -0.079503 0
2.990000 -0.082825 0
2.995000 -0.085306 0
3.000000 -0.087083 0
3.005000 -0.088280 0
3.010000 -0.089005 0
3.015000 -0.089352 0
3.020000 -0.089258 0
3.025000 -0.088343 0
3.030000 -0.087432 0
3.035000 -0.086527 0
3.040000 -0.085625 0
3.045000 -0.084728 0
3.050000 -0.083836 0
3.055000 -0.082948 0
3.060000 -0.082065 0
3.065000 -0.081185 0
3.070000 -0.080310 0
3.075000 -0.079438 0
3.080000 -0.078569 0
3.085000 -0.077701 0
3.090000 -0.076831 0
3.095000 -0.075956 0
3.100000 -0.075065 0
3.105000 -0.074146 0
3.110000 -0.073175 0
3.115000 -0.072117 0
3.120000 -0.070916 0
3.125000 -0.069492 0
3.130000 -0.067729 0
3.135000 -0.065467 0
3.140000 -0.062493 0
3.145000 -0.058537 0
3.150000 -0.053271 0
3.155000 -0.046316 0
3.160000 -0.037260 0
3.165000 -0.025694 0
3.170000 -0.011256 0
3.175000 0.006310 0
3.180000 0.027092 0
3.185000 0.050940 0
3.190000 0.077418 0
3.195000 0.105775 0
3.200000 0.134950 0
3.205000 0.163617 0
3.210000 0.190275 0
3.215000 0.213372 0
3.220000 0.231451 0
3.225000 0.243304 0
3.230000 0.248100 1
3.235000 0.245489 0
3.240000 0.235637 0
3.245000 0.219211 0
3.250000 0.197304 0
3.255000 0.171316 0
3.260000 0.142801 0
3.265000 0.113312 0
3.270000 0.084226 0
3.275000 0.056548 0
3.280000 0.030609 0
3.285000 0.005596 0
3.290000 -0.020917 0
3.295000 -0.052863 0
3.300000 -0.094017 0
3.305000 -0.144373 0
3.310000 -0.196027 0
3.315000 -0.231626 2
3.320000 -0.227268 0
3.325000 -0.158295 0
3.330000 -0.005579 0
3.335000 0.236200 0
3.340000 0.545541 0
3.345000 0.862916 0
3.350000 1.098900 0
3.355000 1.170799 3
3.360000 1.048598 0
3.365000 0.772949 0
3.370000 0.429592 0
3.375000 0.105086 0
3.380000 -0.143818 0
3.385000 -0.294646 0
3.390000 -0.350260 4
3.395000 -0.330434 0
3.400000 -0.265123 0
3.405000 -0.185447 0
3.410000 -0.114038 0
3.415000 -0.060412 0
3.420000 -0.023387 0
3.425000 0.002983 0
3.430000 0.024560 0
3.435000 0.045156 0
3.440000 0.066631 0
3.445000 0.089661 0
3.450000 0.114349 0
3.455000 0.140543 0
3.460000 0.167966 0
3.465000 0.196250 0
3.470000 0.224953 0
3.475000 0.253570 0
3.480000 0.281546 0
3.485000 0.308291 0
3.490000 0.333203 0
3.495000 0.355687 0
3.500000 0.375176 0
3.505000 0.391160 0
3.510000 0.403203 0
3.515000 0.410965 0
3.520000 0.414214 5
3.525000 0.412841 0
3.530000 0.406864 0
3.535000 0.396424 0
3.540000 0.381786 0
3.545000 0.363320 0
3.550000 0.341492 0
3.555000 0.316836 0
3.560000 0.289942 0
3.565000 0.261423 0
3.570000 0.231897 0
3.575000 0.201965 0
3.580000 0.172187 0
3.585000 0.143072 0
3.590000 0.115061 0
3.595000 0.088520 0
3.600000 0.063737 0
3.605000 0.040919 0
3.610000 0.020196 0
3.615000 0.001629 0
3.620000 -0.014786 0
3.625000 -0.029104 0
3.630000 -0.041424 0
3.635000 -0.051877 0
3.640000 -0.060618 0
3.645000 -0.067814 0
3.650000 -0.073638 0
3.655000 -0.078261 0
3.660000 -0.081849 0
3.665000 -0.084557 0
3.670000 -0.086526 0
3.675000 -0.087883 0
3.680000 -0.088739 0
3.685000 -0.089191 0
3.690000 -0.089321 0
3.695000 -0.088557 0
3.700000 -0.087646 0
3.705000 -0.086739 0
3.710000 -0.085836 0
3.715000 -0.084939 0
3.720000 -0.084045 0
3.725000 -0.083156 0
3.730000 -0.082272 0
3.735000 -0.081391 0
3.740000 -0.080515 0
3.745000 -0.079642 0
3.750000 -0.078773 0
3.755000 -0.077905 0
3.760000 -0.077038 0
3.765000 -0.076165 0
3.770000 -0.075282 0
3.775000 -0.074376 0
3.780000 -0.073428 0
3.785000 -0.072409 0
3.790000 -0.071271 0
3.795000 -0.069945 0
3.800000 -0.068331 0
3.805000 -0.066287 0
3.810000 -0.063624 0
3.815000 -0.060097 0
3.820000 -0.055403 0
3.825000 -0.049184 0
3.830000 -0.041041 0
3.835000 -0.030564 0
3.840000 -0.017366 0
3.845000 -0.001141 0
3.850000 0.018275 0
3.855000 0.040841 0
3.860000 0.066252 0
3.865000 0.093899 0
3.870000 0.122860 0
3.875000 0.151926 0
3.880000 0.179671 0
3.885000 0.204560 0
3.890000 0.225084 0
3.895000 0.239915 0
3.900000 0.248043 0
3.905000 0.248889 1
3.910000 0.242379 0
3.915000 0.228947 0
3.920000 0.209491 0
3.925000 0.185272 0
3.930000 0.157779 0
3.935000 0.128574 0
3.940000 0.099131 0
3.945000 0.070660 0
3.950000 0.043867 0
3.955000 0.018580 0
3.960000 -0.006760 0
3.965000 -0.035386 0
3.970000 -0.071460 0
3.975000 -0.117452 0
3.980000 -0.170013 0
3.985000 -0.216738 0
3.990000 -0.236710 2
3.995000 -0.205076 0
4.000000 -0.099110 0
4.005000 0.095128 0
4.010000 0.372517 0
4.015000 0.695191 0
4.020000 0.987877 0
4.025000 1.158938 3
4.030000 1.145724 0
4.035000 0.950909 0
4.040000 0.636694 0
4.045000 0.291504 0
4.050000 -0.009918 0
4.055000 -0.225474 0
4.060000 -0.343188 0
4.065000 -0.372046 4
4.070000 -0.335062 0
4.075000 -0.262610 0
4.080000 -0.183322 0
4.085000 -0.115855 0
4.090000 -0.066382 0
4.095000 -0.032135 0
4.100000 -0.007061 0
4.105000 0.014188 0
4.110000 0.034907 0
4.115000 0.056655 0
4.120000 0.079967 0
4.125000 0.104899 0
4.130000 0.131286 0
4.135000 0.158850 0
4.140000 0.187229 0
4.145000 0.215991 0
4.150000 0.244647 0
4.155000 0.272659 0
4.160000 0.299455 0
4.165000 0.324455 0
4.170000 0.347081 0
4.175000 0.366787 0
4.180000 0.383074 0
4.185000 0.395517 0
4.190000 0.403777 0
4.195000 0.407619 5
4.200000 0.406925 0
4.205000 0.401692 0
4.210000 0.392041 0
4.215000 0.378208 0
4.220000 0.360533 0
4.225000 0.339447 0
4.230000 0.315457 0
4.235000 0.289120 0
4.240000 0.261026 0
4.245000 0.231773 0
4.250000 0.201949 0
4.255000 0.172110 0
4.260000 0.142766 0
4.265000 0.114365 0
4.270000 0.087289 0
4.275000 0.061844 0
4.280000 0.038261 0
4.285000 0.016694 0
4.290000 -0.002769 0
4.295000 -0.020107 0
4.300000 -0.035350 0
4.305000 -0.048576 0
4.310000 -0.059898 0
4.315000 -0.069456 0
4.320000 -0.077404 0
4.325000 -0.083909 0
4.330000 -0.089138 0
4.335000 -0.093255 0
4.340000 -0.096416 0
4.345000 -0.098766 0
4.350000 -0.100437 0
4.355000 -0.101546 0
4.360000 -0.102196 0
4.365000 -0.102477 0
4.370000 -0.102321 0
4.375000 -0.101341 0
4.380000 -0.100366 0
4.385000 -0.099395 0
4.390000 -0.098430 0
4.395000 -0.097469 0
4.400000 -0.096513 0
4.405000 -0.095562 0
4.410000 -0.094616 0
4.415000 -0.093674 0
4.420000 -0.092736 0
4.425000 -0.091803 0
4.430000 -0.090872 0
4.435000 -0.089944 0
4.440000 -0.089016 0
4.445000 -0.088084 0
4.450000 -0.087141 0
4.455000 -0.086175 0
4.460000 -0.085170 0
4.465000 -0.084095 0
4.470000 -0.082907 0
4.475000 -0.081539 0
4.480000 -0.079896 0
4.485000 -0.077847 0
4.490000 -0.075213 0
4.495000 -0.071763 0
4.500000 -0.067213 0
4.505000 -0.061224 0
4.510000 -0.053415 0
4.515000 -0.043390 0
4.520000 -0.030767 0
4.525000 -0.015228 0
4.530000 0.003425 0
4.535000 0.025206 0
4.540000 0.049896 0
4.545000 0.076991 0
4.550000 0.105691 0
4.555000 0.134910 0
4.560000 0.163331 0
4.565000 0.189493 0
4.570000 0.211912 0
4.575000 0.229218 0
4.580000 0.240295 0
4.585000 0.244398 1
4.590000 0.241238 0
4.595000 0.231012 0
4.600000 0.214389 0
4.605000 0.192430 0
4.610000 0.166482 0
4.615000 0.138038 0
4.620000 0.108589 0
4.625000 0.079471 0
4.630000 0.051680 0
4.635000 0.025606 0
4.640000 0.000618 0
4.645000 -0.025400 0
4.650000 -0.056064 0
4.655000 -0.095237 0
4.660000 -0.143952 0
4.665000 -0.196485 0
4.670000 -0.238186 0
4.675000 -0.247213 2
4.680000 -0.199491 0
4.685000 -0.074425 0
4.690000 0.138419 0
4.695000 0.428637 0
4.700000 0.752514 0
4.705000 1.032150 0
4.710000 1.179912 3
4.715000 1.141619 0
4.720000 0.927517 0
4.725000 0.604814 0
4.730000 0.261329 0
4.735000 -0.032154 0
4.740000 -0.237604 0
4.745000 -0.345768 0
4.750000 -0.367210 4
4.755000 -0.325742 0
4.760000 -0.251693 0
4.765000 -0.172851 0
4.770000 -0.106695 0
4.775000 -0.058485 0
4.780000 -0.025064 0
4.785000 -0.000385 0
4.790000 0.020738 0
4.795000 0.041456 0
4.800000 0.063241 0
4.805000 0.086593 0
4.810000 0.111553 0
4.815000 0.137953 0
4.820000 0.165514 0
4.825000 0.193876 0
4.830000 0.222611 0
4.835000 0.251231 0
4.840000 0.279204 0
4.845000 0.305966 0
4.850000 0.330938 0
4.855000 0.353551 0
4.860000 0.373263 0
4.865000 0.389579 0
4.870000 0.402077 0
4.875000 0.410419 0
4.880000 0.414371 5
4.885000 0.413810 0
4.890000 0.408731 0
4.895000 0.399248 0
4.900000 0.385589 0
4.905000 0.368087 0
4.910000 0.347164 0
4.915000 0.323318 0
4.920000 0.297098 0
4.925000 0.269086 0
4.930000 0.239876 0
4.935000 0.210051 0
4.940000 0.180164 0
4.945000 0.150726 0
4.950000 0.122187 0
4.955000 0.094932 0
4.960000 0.069271 0
4.965000 0.045441 0
4.970000 0.023605 0
4.975000 0.003855 0
4.980000 -0.013778 0
4.985000 -0.029320 0
4.990000 -0.042841 0
4.995000 -0.054450 0
5.000000 -0.064280 0
5.005000 -0.072484 0
5.010000 -0.079226 0
5.015000 -0.084671 0
5.020000 -0.088983 0
5.025000 -0.092317 0
5.030000 -0.094820 0
5.035000 -0.096624 0
5.040000 -0.097848 0
5.045000 -0.098597 0
5.050000 -0.098961 0
5.055000 -0.099018 0
5.060000 -0.098202 0
5.065000 -0.097243 0
5.070000 -0.096288 0
5.075000 -0.095338 0
5.080000 -0.094393 0
5.085000 -0.093452 0
5.090000 -0.092516 0
5.095000 -0.091585 0
5.100000 -0.090658 0
5.105000 -0.089736 0
5.110000 -0.088817 0
5.115000 -0.087902 0
5.120000 -0.086990 0
5.125000 -0.086078 0
5.130000 -0.085163 0
5.135000 -0.084240 0
5.140000 -0.083298 0
5.145000 -0.082323 0
5.150000 -0.081288 0
5.155000 -0.080155 0
5.160000 -0.078867 0
5.165000 -0.077337 0
5.170000 -0.075448 0
5.175000 -0.073039 0
5.180000 -0.069899 0
5.185000 -0.065762 0
5.190000 -0.060311 0
5.195000 -0.053181 0
5.200000 -0.043980 0
5.205000 -0.032321 0
5.210000 -0.017861 0
5.215000 -0.000356 0
5.220000 0.020282 0
5.225000 0.043925 0
5.230000 0.070180 0
5.235000 0.098368 0
5.240000 0.127514 0
5.245000 0.156394 0
5.250000 0.183604 0
5.255000 0.207666 0
5.260000 0.227164 0
5.265000 0.240875 0
5.270000 0.247899 1
5.275000 0.247755 0
5.280000 0.240439 0
5.285000 0.226420 0
5.290000 0.206595 0
5.295000 0.182193 0
5.300000 0.154645 0
5.305000 0.125449 0
5.310000 0.096014 0
5.315000 0.067507 0
5.320000 0.040630 0
5.325000 0.015285 0
5.330000 -0.009892 0
5.335000 -0.037837 0
5.340000 -0.072533 0
5.345000 -0.116832 0
5.350000 -0.168771 0
5.355000 -0.218234 0
5.360000 -0.246647 2
5.365000 -0.230564 0
5.370000 -0.147135 0
5.375000 0.020127 0
5.380000 0.273180 0
5.385000 0.587161 0
5.390000 0.901438 0
5.395000 1.129674 0
5.400000 1.194891 3
5.405000 1.069641 0
5.410000 0.792690 0
5.415000 0.449097 0
5.420000 0.124383 0
5.425000 -0.125296 0
5.430000 -0.277523 0
5.435000 -0.334873 4
5.440000 -0.316644 0
5.445000 -0.252305 0
5.450000 -0.172748 0
5.455000 -0.100779 0
5.460000 -0.046343 0
5.465000 -0.008645 0
5.470000 0.018095 0
5.475000 0.039761 0
5.480000 0.060261 0
5.485000 0.081550 0
5.490000 0.104359 0
5.495000 0.128819 0
5.500000 0.154798 0
5.505000 0.182029 0
5.510000 0.210156 0
5.515000 0.238751 0
5.520000 0.267321 0
5.525000 0.295321 0
5.530000 0.322174 0
5.535000 0.347283 0
5.540000 0.370057 0
5.545000 0.389932 0
5.550000 0.406394 0
5.555000 0.419000 0
5.560000 0.427396 0
5.565000 0.431337 5
5.570000 0.430693 0
5.575000 0.425459 0
5.580000 0.415753 0
5.585000 0.401816 0
5.590000 0.383994 0
5.595000 0.362730 0
5.600000 0.338541 0
5.605000 0.311999 0
5.610000 0.283708 0
5.615000 0.254279 0
5.620000 0.224312 0
5.625000 0.194373 0
5.630000 0.164977 0
5.635000 0.136578 0
5.640000 0.109556 0
5.645000 0.084217 0
5.650000 0.060784 0
5.655000 0.039409 0
5.660000 0.020167 0
5.665000 0.003072 0
5.670000 -0.011915 0
5.675000 -0.024883 0
5.680000 -0.035953 0
5.685000 -0.045271 0
5.690000 -0.052999 0
5.695000 -0.059307 0
5.700000 -0.064367 0
5.705000 -0.068344 0
5.710000 -0.071395 0
5.715000 -0.073664 0
5.720000 -0.075283 0
5.725000 -0.076366 0
5.730000 -0.077015 0
5.735000 -0.077315 0
5.740000 -0.077211 0
5.745000 -0.076356 0
5.750000 -0.075506 0
5.755000 -0.074659 0
5.760000 -0.073817 0
5.765000 -0.072979 0
5.770000 -0.072146 0
5.775000 -0.071316 0
5.780000 -0.070490 0
5.785000 -0.069669 0
5.790000 -0.068851 0
5.795000 -0.068036 0
5.800000 -0.067223 0
5.805000 -0.066411 0
5.810000 -0.065596 0
5.815000 -0.064774 0
5.820000 -0.063935 0
5.825000 -0.063064 0
5.830000 -0.062137 0
5.835000 -0.061118 0
5.840000 -0.059948 0
5.845000 -0.058545 0
5.850000 -0.056789 0
5.855000 -0.054520 0
5.860000 -0.051523 0
5.865000 -0.047529 0
5.870000 -0.042209 0
5.875000 -0.035190 0
5.880000 -0.026067 0
5.885000 -0.014440 0
5.890000 0.000044 0
5.895000 0.017632 0
5.900000 0.038403 0
5.905000 0.062208 0
5.910000 0.088619 0
5.915000 0.116899 0
5.920000 0.146011 0
5.925000 0.174660 0
5.930000 0.201376 0
5.935000 0.224637 0
5.940000 0.243005 0
5.945000 0.255273 0
5.950000 0.260599 1
5.955000 0.258597 0
5.960000 0.249384 0
5.965000 0.233570 0
5.970000 0.212186 0
5.975000 0.186577 0
5.980000 0.158259 0
5.985000 0.128764 0
5.990000 0.099481 0
5.995000 0.071470 0
6.000000 0.045193 0
6.005000 0.020091 0
6.010000 -0.005901 0
6.015000 -0.036423 0
6.020000 -0.075451 0
6.025000 -0.124148 0
6.030000 -0.176770 0
6.035000 -0.218357 0
6.040000 -0.226540 2
6.045000 -0.176727 0
6.050000 -0.048084 0
6.055000 0.169379 0
6.060000 0.463437 0
6.065000 0.786894 0
6.070000 1.058159 0
6.075000 1.188883 3
6.080000 1.129001 0
6.085000 0.896236 0
6.090000 0.565146 0
6.095000 0.225803 0
6.100000 -0.053771 0
6.105000 -0.240220 0
6.110000 -0.328633 0
6.115000 -0.333317 4
6.120000 -0.281113 0
6.125000 -0.203597 0
6.130000 -0.127242 0
6.135000 -0.066476 0
6.140000 -0.023592 0
6.145000 0.006161 0
6.150000 0.029015 0
6.155000 0.049625 0
6.160000 0.070539 0
6.165000 0.092819 0
6.170000 0.116747 0
6.175000 0.142257 0
6.180000 0.169121 0
6.185000 0.197010 0
6.190000 0.225519 0
6.195000 0.254173 0
6.200000 0.282445 0
6.205000 0.309764 0
6.210000 0.335538 0
6.215000 0.359170 0
6.220000 0.380086 0
6.225000 0.397749 0
6.230000 0.411693 0
6.235000 0.421530 0
6.240000 0.426978 0
6.245000 0.427868 5
6.250000 0.424154 0
6.255000 0.415913 0
6.260000 0.403347 0
6.265000 0.386769 0
6.270000 0.366593 0
6.275000 0.343314 0
6.280000 0.317490 0
6.285000 0.289718 0
6.290000 0.260609 0
6.295000 0.230769 0
6.300000 0.200778 0
6.305000 0.171169 0
6.310000 0.142419 0
6.315000 0.114933 0
6.320000 0.089040 0
6.325000 0.064991 0
6.330000 0.042959 0
6.335000 0.023045 0
6.340000 0.005282 0
6.345000 -0.010356 0
6.350000 -0.023941 0
6.355000 -0.035584 0
6.360000 -0.045426 0
6.365000 -0.053626 0
6.370000 -0.060350 0
6.375000 -0.065772 0
6.380000 -0.070059 0
6.385000 -0.073371 0
6.390000 -0.075857 0
6.395000 -0.077653 0
6.400000 -0.078879 0
6.405000 -0.079639 0
6.410000 -0.080026 0
6.415000 -0.079976 0
6.420000 -0.079108 0
6.425000 -0.078243 0
6.430000 -0.077383 0
6.435000 -0.076528 0
6.440000 -0.075676 0
6.445000 -0.074829 0
6.450000 -0.073986 0
6.455000 -0.073147 0
6.460000 -0.072312 0
6.465000 -0.071481 0
6.470000 -0.070653 0
6.475000 -0.069828 0
6.480000 -0.069004 0
6.485000 -0.068179 0
6.490000 -0.067348 0
6.495000 -0.066504 0
6.500000 -0.065633 0
6.505000 -0.064715 0
6.510000 -0.063717 0
6.515000 -0.062589 0
6.520000 -0.061255 0
6.525000 -0.059610 0
6.530000 -0.057504 0
6.535000 -0.054739 0
6.540000 -0.051064 0
6.545000 -0.046166 0
6.550000 -0.039684 0
6.555000 -0.031219 0
6.560000 -0.020365 0
6.565000 -0.006750 0
6.570000 0.009913 0
6.575000 0.029758 0
6.580000 0.052710 0
6.585000 0.078426 0
6.590000 0.106261 0
6.595000 0.135264 0
6.600000 0.164206 0
6.605000 0.191657 0
6.610000 0.216094 0
6.615000 0.236036 0
6.620000 0.250196 0
6.625000 0.257611 0
6.630000 0.257756 1
6.635000 0.250600 0
6.640000 0.236615 0
6.645000 0.216722 0
6.650000 0.192190 0
6.655000 0.164503 0
6.660000 0.135204 0
6.665000 0.105743 0
6.670000 0.077299 0
6.675000 0.050540 0
6.680000 0.025250 0
6.685000 -0.000170 0
6.690000 -0.028964 0
6.695000 -0.065255 0
6.700000 -0.111420 0
6.705000 -0.164035 0
6.710000 -0.210744 0
6.715000 -0.230819 2
6.720000 -0.199662 0
6.725000 -0.094748 0
6.730000 0.097884 0
6.735000 0.373628 0
6.740000 0.695887 0
6.745000 0.991053 0
6.750000 1.168302 3
6.755000 1.162589 0
6.760000 0.970796 0
6.765000 0.655166 0
6.770000 0.310843 0
6.775000 0.016538 0
6.780000 -0.185824 0
6.785000 -0.286910 0
6.790000 -0.299518 4
6.795000 -0.250851 0
6.800000 -0.174127 0
6.805000 -0.097720 0
6.810000 -0.037180 0
6.815000 0.005074 0
6.820000 0.034139 0
6.825000 0.056531 0
6.830000 0.076962 0
6.835000 0.097908 0
6.840000 0.120339 0
6.845000 0.144472 0
6.850000 0.170196 0
6.855000 0.197242 0
6.860000 0.225243 0
6.865000 0.253750 0
6.870000 0.282244 0
6.875000 0.310151 0
6.880000 0.336859 0
6.885000 0.361738 0
6.890000 0.384166 0
6.895000 0.403550 0
6.900000 0.419356 0
6.905000 0.431129 0
6.910000 0.438518 0
6.915000 0.441286 5
6.920000 0.439330 0
6.925000 0.432679 0
6.930000 0.421496 0
6.935000 0.406074 0
6.940000 0.386816 0
6.945000 0.364222 0
6.950000 0.338865 0
6.955000 0.311366 0
6.960000 0.282370 0
6.965000 0.252518 0
6.970000 0.222427 0
6.975000 0.192667 0
6.980000 0.163747 0
6.985000 0.136100 0
6.990000 0.110077 0
6.995000 0.085945 0
7.000000 0.063886 0
7.005000 0.044003 0
7.010000 0.026328 0
7.015000 0.010828 0
7.020000 -0.002578 0
7.025000 -0.014013 0
7.030000 -0.023628 0
7.035000 -0.031593 0
7.040000 -0.038086 0
7.045000 -0.043288 0
7.050000 -0.047374 0
7.055000 -0.050510 0
7.060000 -0.052848 0
7.065000 -0.054525 0
7.070000 -0.055661 0
7.075000 -0.056362 0
7.080000 -0.056716 0
7.085000 -0.056123 0
7.090000 -0.055373 0
7.095000 -0.054627 0
7.100000 -0.053885 0
7.105000 -0.053147 0
7.110000 -0.052412 0
7.115000 -0.051681 0
7.120000 -0.050953 0
7.125000 -0.050229 0
7.130000 -0.049508 0
7.135000 -0.048790 0
7.140000 -0.048075 0
7.145000 -0.047360 0
7.150000 -0.046644 0
7.155000 -0.045922 0
7.160000 -0.045186 0
7.165000 -0.044424 0
7.170000 -0.043614 0
7.175000 -0.042722 0
7.180000 -0.041695 0
7.185000 -0.040453 0
7.190000 -0.038882 0
7.195000 -0.036821 0
7.200000 -0.034056 0
7.205000 -0.030312 0
7.210000 -0.025251 0
7.215000 -0.018484 0
7.220000 -0.009583 0
7.225000 0.001874 0
7.230000 0.016263 0
7.235000 0.033846 0
7.240000 0.054702 0
7.245000 0.078658 0
7.250000 0.105238 0
7.255000 0.133629 0
7.260000 0.162696 0
7.265000 0.191036 0
7.270000 0.217075 0
7.275000 0.239211 0
7.280000 0.255971 0
7.285000 0.266176 0
7.290000 0.269070 1
7.295000 0.264418 0
7.300000 0.252532 0
7.305000 0.234236 0
7.310000 0.210772 0
7.315000 0.183656 0
7.320000 0.154518 0
7.325000 0.124921 0
7.330000 0.096178 0
7.335000 0.069103 0
7.340000 0.043620 0
7.345000 0.018222 0
7.350000 -0.010378 0
7.355000 -0.046513 0
7.360000 -0.092765 0
7.365000 -0.145498 0
7.370000 -0.191405 0
7.375000 -0.208275 2
7.380000 -0.170133 0
7.385000 -0.053868 0
7.390000 0.153261 0
7.395000 0.441739 0
7.400000 0.765287 0
7.405000 1.039596 0
7.410000 1.171191 3
7.415000 1.108076 0
7.420000 0.871379 0
7.425000 0.538397 0
7.430000 0.200907 0
7.435000 -0.073266 0
7.440000 -0.252117 0
7.445000 -0.332380 4
7.450000 -0.330063 0
7.455000 -0.273509 0
7.460000 -0.194927 0
7.465000 -0.120135 0
7.470000 -0.062076 0
7.475000 -0.021665 0
7.480000 0.006519 0
7.485000 0.028707 0
7.490000 0.049259 0
7.495000 0.070425 0
7.500000 0.093080 0
7.505000 0.117410 0
7.510000 0.143298 0
7.515000 0.170484 0
7.520000 0.198609 0
7.525000 0.227238 0
7.530000 0.255871 0
7.535000 0.283952 0
7.540000 0.310888 0
7.545000 0.336069 0
7.550000 0.358891 0
7.555000 0.378773 0
7.560000 0.395191 0
7.565000 0.407692 0
7.570000 0.415918 0
7.575000 0.419623 5
7.580000 0.418682 0
7.585000 0.413100 0
7.590000 0.403009 0
7.595000 0.388666 0
7.600000 0.370439 0
7.605000 0.348791 0
7.610000 0.324262 0
7.615000 0.297443 0
7.620000 0.268957 0
7.625000 0.239430 0
7.630000 0.209469 0
7.635000 0.179647 0
7.640000 0.150479 0
7.645000 0.122413 0
7.650000 0.095822 0
7.655000 0.070998 0
7.660000 0.048151 0
7.665000 0.027412 0
7.670000 0.008843 0
7.675000 -0.007561 0
7.680000 -0.021857 0
7.685000 -0.034146 0
7.690000 -0.044563 0
7.695000 -0.053264 0
7.700000 -0.060419 0
7.705000 -0.066203 0
7.710000 -0.070790 0
7.715000 -0.074346 0
7.720000 -0.077028 0
7.725000 -0.078977 0
7.730000 -0.080321 0
7.735000 -0.081171 0
7.740000 -0.081624 0
7.745000 -0.081760 0
7.750000 -0.081029 0
7.755000 -0.080155 0
7.760000 -0.079285 0
7.765000 -0.078420 0
7.770000 -0.077559 0
7.775000 -0.076703 0
7.780000 -0.075850 0
7.785000 -0.075002 0
7.790000 -0.074158 0
7.795000 -0.073318 0
7.800000 -0.072481 0
7.805000 -0.071647 0
7.810000 -0.070814 0
7.815000 -0.069980 0
7.820000 -0.069141 0
7.825000 -0.068288 0
7.830000 -0.067408 0
7.835000 -0.066481 0
7.840000 -0.065472 0
7.845000 -0.064330 0
7.850000 -0.062976 0
7.855000 -0.061300 0
7.860000 -0.059148 0
7.865000 -0.056313 0
7.870000 -0.052532 0
7.875000 -0.047481 0
7.880000 -0.040784 0
7.885000 -0.032031 0
7.890000 -0.020808 0
7.895000 -0.006743 0
7.900000 0.010439 0
7.905000 0.030845 0
7.910000 0.054355 0
7.915000 0.080562 0
7.920000 0.108745 0
7.925000 0.137866 0
7.930000 0.166615 0
7.935000 0.193494 0
7.940000 0.216943 0
7.945000 0.235482 0
7.950000 0.247867 0
7.955000 0.253231 1
7.960000 0.251176 0
7.965000 0.241830 0
7.970000 0.225826 0
7.975000 0.204237 0
7.980000 0.178451 0
7.985000 0.150027 0
7.990000 0.120528 0
7.995000 0.091358 0
8.000000 0.063556 0
8.005000 0.037502 0
8.010000 0.012457 0
8.015000 -0.013929 0
8.020000 -0.045555 0
8.025000 -0.086291 0
8.030000 -0.136387 0
8.035000 -0.188281 0
8.040000 -0.224868 2
8.045000 -0.222264 0
8.050000 -0.155609 0
8.055000 -0.005405 0
8.060000 0.234231 0
8.065000 0.542526 0
8.070000 0.860515 0
8.075000 1.098637 0
8.080000 1.173263 3
8.085000 1.052638 0
8.090000 0.776534 0
8.095000 0.432870 0
8.100000 0.110009 0
8.105000 -0.134942 0
8.110000 -0.280236 0
8.115000 -0.329949 4
8.120000 -0.305302 0
8.125000 -0.237485 0
8.130000 -0.157953 0
8.135000 -0.088550 0
8.140000 -0.037471 0
8.145000 -0.002501 0
8.150000 0.022678 0
8.155000 0.043801 0
8.160000 0.064389 0
8.165000 0.086071 0
8.170000 0.109382 0
8.175000 0.134355 0
8.180000 0.160801 0
8.185000 0.188410 0
8.190000 0.216784 0
8.195000 0.245453 0
8.200000 0.273882 0
8.205000 0.301489 0
8.210000 0.327665 0
8.215000 0.351788 0
8.220000 0.373257 0
8.225000 0.391507 0
8.230000 0.406040 0
8.235000 0.416440 0
8.240000 0.422400 0
8.245000 0.423730 5
8.250000 0.420370 0
8.255000 0.412393 0
8.260000 0.399998 0
8.265000 0.383506 0
8.270000 0.363345 0
8.275000 0.340027 0
8.280000 0.314132 0
8.285000 0.286279 0
8.290000 0.257103 0
8.295000 0.227230 0
8.300000 0.197258 0
8.305000 0.167734 0
8.310000 0.139143 0
8.315000 0.111894 0
8.320000 0.086315 0
8.325000 0.062652 0
8.330000 0.041068 0
8.335000 0.021653 0
8.340000 0.004425 0
8.345000 -0.010656 0
8.350000 -0.023676 0
8.355000 -0.034761 0
8.360000 -0.044063 0
8.365000 -0.051750 0
8.370000 -0.057998 0
8.375000 -0.062985 0
8.380000 -0.066883 0
8.385000 -0.069852 0
8.390000 -0.072042 0
8.395000 -0.073585 0
8.400000 -0.074600 0
8.405000 -0.075188 0
8.410000 -0.075436 0
8.415000 -0.074748 0
8.420000 -0.073906 0
8.425000 -0.073067 0
8.430000 -0.072233 0
8.435000 -0.071403 0
8.440000 -0.070577 0
8.445000 -0.069756 0
8.450000 -0.068938 0
8.455000 -0.068124 0
8.460000 -0.067314 0
8.465000 -0.066507 0
8.470000 -0.065703 0
8.475000 -0.064901 0
8.480000 -0.064098 0
8.485000 -0.063290 0
8.490000 -0.062470 0
8.495000 -0.061626 0
8.500000 -0.060738 0
8.505000 -0.059774 0
8.510000 -0.058684 0
8.515000 -0.057395 0
8.520000 -0.055800 0
8.525000 -0.053747 0
8.530000 -0.051037 0
8.535000 -0.047408 0
8.540000 -0.042540 0
8.545000 -0.036057 0
8.550000 -0.027546 0
8.555000 -0.016586 0
8.560000 -0.002794 0
8.565000 0.014118 0
8.570000 0.034275 0
8.575000 0.057573 0
8.580000 0.083620 0
8.585000 0.111703 0
8.590000 0.140786 0
8.595000 0.169554 0
8.600000 0.196495 0
8.605000 0.220027 0
8.610000 0.238647 0
8.615000 0.251092 0
8.620000 0.256474 1
8.625000 0.254392 0
8.630000 0.244973 0
8.635000 0.228863 0
8.640000 0.207154 0
8.645000 0.181257 0
8.650000 0.152753 0
8.655000 0.123224 0
8.660000 0.094078 0
8.665000 0.066347 0
8.670000 0.040366 0
8.675000 0.015300 0
8.680000 -0.011347 0
8.685000 -0.043603 0
8.690000 -0.085243 0
8.695000 -0.135991 0
8.700000 -0.187298 0
8.705000 -0.220965 2
8.710000 -0.212404 0
8.715000 -0.136722 0
8.720000 0.024707 0
8.725000 0.275261 0
8.730000 0.589253 0
8.735000 0.901577 0
8.740000 1.119558 0
8.745000 1.163788 3
8.750000 1.015095 0
8.755000 0.724861 0
8.760000 0.379542 0
8.765000 0.061230 0
8.770000 -0.178539 0
8.775000 -0.320729 0
8.780000 -0.369847 4
8.785000 -0.346177 0
8.790000 -0.279341 0
8.795000 -0.199537 0
8.800000 -0.128424 0
8.805000 -0.074965 0
8.810000 -0.037887 0
8.815000 -0.011370 0
8.820000 0.010332 0
8.825000 0.030987 0
8.830000 0.052464 0
8.835000 0.075459 0
8.840000 0.100093 0
8.845000 0.126232 0
8.850000 0.153611 0
8.855000 0.181879 0
8.860000 0.210612 0
8.865000 0.239325 0
8.870000 0.267480 0
8.875000 0.294506 0
8.880000 0.319817 0
8.885000 0.342826 0
8.890000 0.362977 0
8.895000 0.379759 0
8.900000 0.392729 0
8.905000 0.401535 0
8.910000 0.405924 5
8.915000 0.405763 0
8.920000 0.401035 0
8.925000 0.391849 0
8.930000 0.378430 0
8.935000 0.361113 0
8.940000 0.340324 0
8.945000 0.316568 0
8.950000 0.290405 0
8.955000 0.262428 0
8.960000 0.233242 0
8.965000 0.203441 0
8.970000 0.173590 0
8.975000 0.144205 0
8.980000 0.115746 0
8.985000 0.088600 0
8.990000 0.063080 0
8.995000 0.039422 0
9.000000 0.017786 0
9.005000 -0.001739 0
9.010000 -0.019128 0
9.015000 -0.034412 0
9.020000 -0.047667 0
9.025000 -0.059009 0
9.030000 -0.068576 0
9.035000 -0.076527 0
9.040000 -0.083028 0
9.045000 -0.088248 0
9.050000 -0.092353 0
9.055000 -0.095501 0
9.060000 -0.097837 0
9.065000 -0.099494 0
9.070000 -0.100590 0
9.075000 -0.101229 0
9.080000 -0.101499 0
9.085000 -0.101337 0
9.090000 -0.100362 0
9.095000 -0.099391 0
9.100000 -0.098426 0
9.105000 -0.097465 0
9.110000 -0.096510 0
9.115000 -0.095558 0
9.120000 -0.094612 0
9.125000 -0.093670 0
9.130000 -0.092733 0
9.135000 -0.091800 0
9.140000 -0.090871 0
9.145000 -0.089945 0
9.150000 -0.089021 0
9.155000 -0.088097 0
9.160000 -0.087168 0
9.165000 -0.086226 0
9.170000 -0.085261 0
9.175000 -0.084252 0
9.180000 -0.083168 0
9.185000 -0.081962 0
9.190000 -0.080563 0
9.195000 -0.078870 0
9.200000 -0.076742 0
9.205000 -0.073993 0
9.210000 -0.070379 0
9.215000 -0.065604 0
9.220000 -0.059316 0
9.225000 -0.051127 0
9.230000 -0.040636 0
9.235000 -0.027465 0
9.240000 -0.011312 0
9.245000 0.007989 0
9.250000 0.030410 0
9.255000 0.055671 0
9.260000 0.083199 0
9.265000 0.112120 0
9.270000 0.141280 0
9.275000 0.169306 0
9.280000 0.194705 0
9.285000 0.215993 0
9.290000 0.231838 0
9.295000 0.241196 0
9.300000 0.243427 1
9.305000 0.238363 0
9.310000 0.226335 0
9.315000 0.208132 0
9.320000 0.184919 0
9.325000 0.158111 0
9.330000 0.129230 0
9.335000 0.099752 0
9.340000 0.070948 0
9.345000 0.043674 0
9.350000 0.018062 0
9.355000 -0.006946 0
9.360000 -0.033999 0
9.365000 -0.067052 0
9.370000 -0.109495 0
9.375000 -0.160545 0
9.380000 -0.211495 0
9.385000 -0.244699 2
9.390000 -0.236689 0
9.395000 -0.163727 0
9.400000 -0.007722 0
9.405000 0.235829 0
9.410000 0.545463 0
9.415000 0.863312 0
9.420000 1.102773 0
9.425000 1.182769 3
9.430000 1.071389 0
9.435000 0.804202 0
9.440000 0.462909 0
9.445000 0.133222 0
9.450000 -0.126181 0
9.455000 -0.290004 0
9.460000 -0.358398 4
9.465000 -0.348625 0
9.470000 -0.288762 0
9.475000 -0.209615 0
9.480000 -0.135292 0
9.485000 -0.077609 0
9.490000 -0.037190 0
9.495000 -0.008794 0
9.500000 0.013589 0
9.505000 0.034222 0
9.510000 0.055361 0
9.515000 0.077918 0
9.520000 0.102111 0
9.525000 0.127854 0
9.530000 0.154910 0
9.535000 0.182948 0
9.540000 0.211565 0
9.545000 0.240290 0
9.550000 0.268603 0
9.555000 0.295940 0
9.560000 0.321720 0
9.565000 0.345358 0
9.570000 0.366289 0
9.575000 0.383990 0
9.580000 0.398001 0
9.585000 0.407943 0
9.590000 0.413537 0
9.595000 0.414616 5
9.600000 0.411131 0
9.605000 0.403156 0
9.610000 0.390881 0
9.615000 0.374609 0
9.620000 0.354742 0
9.625000 0.331762 0
9.630000 0.306210 0
9.635000 0.278672 0
9.640000 0.249747 0
9.645000 0.220033 0
9.650000 0.190102 0
9.655000 0.160486 0
9.660000 0.131660 0
9.665000 0.104032 0
9.670000 0.077938 0
9.675000 0.053636 0
9.680000 0.031310 0
9.685000 0.011070 0
9.690000 -0.007041 0
9.695000 -0.023034 0
9.700000 -0.036975 0
9.705000 -0.048964 0
9.710000 -0.059135 0
9.715000 -0.067638 0
9.720000 -0.074639 0
9.725000 -0.080305 0
9.730000 -0.084802 0
9.735000 -0.088292 0
9.740000 -0.090923 0
9.745000 -0.092832 0
9.750000 -0.094142 0
9.755000 -0.094961 0
9.760000 -0.095382 0
9.765000 -0.095485 0
9.770000 -0.094691 0
9.775000 -0.093749 0
9.780000 -0.092812 0
9.785000 -0.091879 0
9.790000 -0.090951 0
9.795000 -0.090028 0
9.800000 -0.089109 0
9.805000 -0.088195 0
9.810000 -0.087285 0
9.815000 -0.086379 0
9.820000 -0.085478 0
9.825000 -0.084580 0
9.830000 -0.083684 0
9.835000 -0.082788 0
9.840000 -0.081890 0
9.845000 -0.080983 0
9.850000 -0.080057 0
9.855000 -0.079096 0
9.860000 -0.078074 0
9.865000 -0.076951 0
9.870000 -0.075667 0
9.875000 -0.074135 0
9.880000 -0.072231 0
9.885000 -0.069789 0
9.890000 -0.066590 0
9.895000 -0.062362 0
9.900000 -0.056774 0
9.905000 -0.049455 0
9.910000 -0.040005 0
9.915000 -0.028034 0
9.920000 -0.013202 0
9.925000 0.004720 0
9.930000 0.025796 0
9.935000 0.049859 0
9.940000 0.076468 0
9.945000 0.104882 0
9.950000 0.134068 0
9.955000 0.162745 0
9.960000 0.189463 0
9.965000 0.212726 0
9.970000 0.231121 0
9.975000 0.243466 0
9.980000 0.248931 1
9.985000 0.247132 0
9.990000 0.238174 0
9.995000 0.222643 0
10.000000 0.201541 0
10.005000 0.176180 0
10.010000 0.148044 0
10.015000 0.118644 0
10.020000 0.089361 0
10.025000 0.061272 0
10.030000 0.034896 0
10.035000 0.009805 0
10.040000 -0.015861 0
10.045000 -0.045535 0
10.050000 -0.083218 0
10.055000 -0.130655 0
10.060000 -0.183355 0
10.065000 -0.227936 0
10.070000 -0.243255 2
10.075000 -0.205077 0
10.080000 -0.091845 0
10.085000 0.108891 0
10.090000 0.390346 0
10.095000 0.713591 0
10.100000 1.004073 0
10.105000 1.172719 3
10.110000 1.158382 0
10.115000 0.962440 0
10.120000 0.647563 0
10.125000 0.302418 0
10.130000 0.001670 0
10.135000 -0.212829 0
10.140000 -0.329370 0
10.145000 -0.357178 4
10.150000 -0.319482 0
10.155000 -0.246774 0
10.160000 -0.167646 0
10.165000 -0.100576 0
10.170000 -0.051533 0
10.175000 -0.017621 0
10.180000 0.007244 0
10.185000 0.028381 0
10.190000 0.049045 0
10.195000 0.070763 0
10.200000 0.094054 0
10.205000 0.118964 0
10.210000 0.145326 0
10.215000 0.172856 0
10.220000 0.201189 0
10.225000 0.229892 0
10.230000 0.258470 0
10.235000 0.286383 0
10.240000 0.313059 0
10.245000 0.337913 0
10.250000 0.360370 0
10.255000 0.379880 0
10.260000 0.395949 0
10.265000 0.408152 0
10.270000 0.416154 0
10.275000 0.419726 5
10.280000 0.418753 0
10.285000 0.413239 0
10.290000 0.403312 0
10.295000 0.389211 0
10.300000 0.371284 0
10.305000 0.349969 0
10.310000 0.325775 0
10.315000 0.299263 0
10.320000 0.271027 0
10.325000 0.241666 0
10.330000 0.211768 0
10.335000 0.181887 0
10.340000 0.152532 0
10.345000 0.124148 0
10.350000 0.097112 0
10.355000 0.071727 0
10.360000 0.048219 0
10.365000 0.026739 0
10.370000 0.007368 0
10.375000 -0.009875 0
10.380000 -0.025025 0
10.385000 -0.038162 0
10.390000 -0.049403 0
10.395000 -0.058887 0
10.400000 -0.066773 0
10.405000 -0.073227 0
10.410000 -0.078416 0
10.415000 -0.082505 0
10.420000 -0.085648 0
10.425000 -0.087991 0
10.430000 -0.089664 0
10.435000 -0.090784 0
10.440000 -0.091452 0
10.445000 -0.091757 0
10.450000 -0.091635 0
10.455000 -0.090708 0
10.460000 -0.089786 0
10.465000 -0.088868 0
10.470000 -0.087955 0
10.475000 -0.087047 0
10.480000 -0.086143 0
10.485000 -0.085244 0
10.490000 -0.084349 0
10.495000 -0.083458 0
10.500000 -0.082571 0
10.505000 -0.081688 0
10.510000 -0.080808 0
10.515000 -0.079930 0
10.520000 -0.079051 0
10.525000 -0.078167 0
10.530000 -0.077271 0
10.535000 -0.076351 0
10.540000 -0.075388 0
10.545000 -0.074351 0
10.550000 -0.073194 0
10.555000 -0.071847 0
10.560000 -0.070212 0
10.565000 -0.068150 0
10.570000 -0.065478 0
10.575000 -0.061957 0
10.580000 -0.057296 0
10.585000 -0.051148 0
10.590000 -0.043129 0
10.595000 -0.032841 0
10.600000 -0.019906 0
10.605000 -0.004017 0
10.610000 0.015003 0
10.615000 0.037141 0
10.620000 0.062142 0
10.625000 0.089461 0
10.630000 0.118258 0
10.635000 0.147407 0
10.640000 0.175563 0
10.645000 0.201249 0
10.650000 0.222986 0
10.655000 0.239429 0
10.660000 0.249504 0
10.665000 0.252526 1
10.670000 0.248273 0
10.675000 0.237017 0
10.680000 0.219488 0
10.685000 0.196803 0
10.690000 0.170343 0
10.695000 0.141613 0
10.700000 0.112094 0
10.705000 0.083087 0
10.710000 0.055518 0
10.715000 0.029649 0
10.720000 0.004640 0
10.725000 -0.021884 0
10.730000 -0.053722 0
10.735000 -0.094539 0
10.740000 -0.144533 0
10.745000 -0.196567 0
10.750000 -0.234539 0
10.755000 -0.235793 2
10.760000 -0.176380 0
10.765000 -0.036827 0
10.770000 0.190678 0
10.775000 0.490797 0
10.780000 0.813291 0
10.785000 1.075869 0
10.790000 1.193252 3
10.795000 1.120309 0
10.800000 0.879019 0
10.805000 0.545218 0
10.810000 0.207399 0
10.815000 -0.068864 0
10.820000 -0.251994 0
10.825000 -0.337924 0
10.830000 -0.341177 4
10.835000 -0.288413 0
10.840000 -0.210787 0
10.845000 -0.134372 0
10.850000 -0.073416 0
10.855000 -0.030255 0
10.860000 -0.000253 0
10.865000 0.022750 0
10.870000 0.043412 0
10.875000 0.064310 0
10.880000 0.086535 0
10.885000 0.110394 0
10.890000 0.135833 0
10.895000 0.162634 0
10.900000 0.190479 0
10.905000 0.218974 0
10.910000 0.247656 0
10.915000 0.276009 0
10.920000 0.303474 0
10.925000 0.329468 0
10.930000 0.353402 0
10.935000 0.374705 0
10.940000 0.392844 0
10.945000 0.407346 0
10.950000 0.417819 0
10.955000 0.423968 0
10.960000 0.425609 5
10.965000 0.422675 0
10.970000 0.415225 0
10.975000 0.403436 0
10.980000 0.387597 0
10.985000 0.368100 0
10.990000 0.345419 0
10.995000 0.320093 0
11.000000 0.292705 0
11.005000 0.263857 0
11.010000 0.234149 0
11.015000 0.204162 0
11.020000 0.174433 0
11.025000 0.145447 0
11.030000 0.117622 0
11.035000 0.091302 0
11.040000 0.066756 0
11.045000 0.044174 0
11.050000 0.023674 0
11.055000 0.005308 0
11.060000 -0.010934 0
11.065000 -0.025111 0
11.070000 -0.037322 0
11.075000 -0.047697 0
11.080000 -0.056388 0
11.085000 -0.063558 0
11.090000 -0.069378 0
11.095000 -0.074013 0
11.100000 -0.077626 0
11.105000 -0.080368 0
11.110000 -0.082376 0
11.115000 -0.083775 0
11.120000 -0.084676 0
11.125000 -0.085171 0
11.130000 -0.085344 0
11.135000 -0.084603 0
11.140000 -0.083711 0
11.145000 -0.082824 0
11.150000 -0.081941 0
11.155000 -0.081063 0
11.160000 -0.080189 0
11.165000 -0.079319 0
11.170000 -0.078453 0
11.175000 -0.077592 0
11.180000 -0.076735 0
11.185000 -0.075881 0
11.190000 -0.075031 0
11.195000 -0.074183 0
11.200000 -0.073335 0
11.205000 -0.072484 0
11.210000 -0.071624 0
11.215000 -0.070746 0
11.220000 -0.069832 0
11.225000 -0.068859 0
11.230000 -0.067785 0
11.235000 -0.066550 0
11.240000 -0.065069 0
11.245000 -0.063216 0
11.250000 -0.060827 0
11.255000 -0.057682 0
11.260000 -0.053508 0
11.265000 -0.047974 0
11.270000 -0.040705 0
11.275000 -0.031303 0
11.280000 -0.019374 0
11.285000 -0.004578 0
11.290000 0.013317 0
11.295000 0.034372 0
11.300000 0.058418 0
11.305000 0.085010 0
11.310000 0.113401 0
11.315000 0.142549 0
11.320000 0.171164 0
11.325000 0.197790 0
11.330000 0.220922 0
11.335000 0.239148 0
11.340000 0.251285 0
11.345000 0.256512 1
11.350000 0.254455 0
11.355000 0.245236 0
11.360000 0.229457 0
11.365000 0.208139 0
11.370000 0.182605 0
11.375000 0.154351 0
11.380000 0.124892 0
11.385000 0.095605 0
11.390000 0.067552 0
11.395000 0.041222 0
11.400000 0.016122 0
11.405000 -0.009698 0
11.410000 -0.039755 0
11.415000 -0.078034 0
11.420000 -0.126031 0
11.425000 -0.178747 0
11.430000 -0.222186 0
11.435000 -0.234749 2
11.440000 -0.192103 0
11.445000 -0.072997 0
11.450000 0.134098 0
11.455000 0.420444 0
11.460000 0.744159 0
11.465000 1.028153 0
11.470000 1.183522 3
11.475000 1.149776 0
11.480000 0.934321 0
11.485000 0.609039 0
11.490000 0.267335 0
11.495000 -0.017728 0
11.500000 -0.209302 0
11.505000 -0.301024 0
11.510000 -0.307102 4
11.515000 -0.255082 0
11.520000 -0.177558 0
11.525000 -0.101701 0
11.530000 -0.041972 0
11.535000 -0.000254 0
11.540000 0.028601 0
11.545000 0.050963 0
11.550000 0.071419 0
11.555000 0.092384 0
11.560000 0.114813 0
11.565000 0.138925 0
11.570000 0.164618 0
11.575000 0.191631 0
11.580000 0.219609 0
11.585000 0.248117 0
11.590000 0.276649 0
11.595000 0.304648 0
11.600000 0.331516 0
11.605000 0.356637 0
11.610000 0.379398 0
11.615000 0.399216 0
11.620000 0.415558 0
11.625000 0.427966 0
11.630000 0.436080 0
11.635000 0.439651 5
11.640000 0.438552 0
11.645000 0.432791 0
11.650000 0.422504 0
11.655000 0.407952 0
11.660000 0.389509 0
11.665000 0.367646 0
11.670000 0.342910 0
11.675000 0.315901 0
11.680000 0.287247 0
11.685000 0.257580 0
11.690000 0.227512 0
11.695000 0.197618 0
11.700000 0.168414 0
11.705000 0.140349 0
11.710000 0.113791 0
11.715000 0.089030 0
11.720000 0.066269 0
11.725000 0.045636 0
11.730000 0.027186 0
11.735000 0.010908 0
11.740000 -0.003261 0
11.745000 -0.015427 0
11.750000 -0.025729 0
11.755000 -0.034326 0
11.760000 -0.041392 0
11.765000 -0.047104 0
11.770000 -0.051636 0
11.775000 -0.055154 0
11.780000 -0.057815 0
11.785000 -0.059761 0
11.790000 -0.061116 0
11.795000 -0.061991 0
11.800000 -0.062481 0
11.805000 -0.062525 0
11.810000 -0.061743 0
11.815000 -0.060966 0
11.820000 -0.060192 0
11.825000 -0.059422 0
11.830000 -0.058656 0
11.835000 -0.057894 0
11.840000 -0.057135 0
11.845000 -0.056380 0
11.850000 -0.055629 0
11.855000 -0.054881 0
11.860000 -0.054136 0
11.865000 -0.053393 0
11.870000 -0.052650 0
11.875000 -0.051905 0
11.880000 -0.051152 0
11.885000 -0.050382 0
11.890000 -0.049581 0
11.895000 -0.048724 0
11.900000 -0.047773 0
11.905000 -0.046669 0
11.910000 -0.045325 0
11.915000 -0.043618 0
11.920000 -0.041378 0
11.925000 -0.038381 0
11.930000 -0.034343 0
11.935000 -0.028920 0
11.940000 -0.021720 0
11.945000 -0.012322 0
11.950000 -0.000317 0
11.955000 0.014647 0
11.960000 0.032799 0
11.965000 0.054182 0
11.970000 0.078581 0
11.975000 0.105483 0
11.980000 0.134046 0
11.985000 0.163121 0
11.990000 0.191307 0
11.995000 0.217053 0
12.000000 0.238794 0
12.005000 0.255106 0
12.010000 0.264860 0
12.015000 0.267347 1
12.020000 0.262367 0
12.025000 0.250249 0
12.030000 0.231818 0
12.035000 0.208299 0
12.040000 0.181183 0
12.045000 0.152064 0
12.050000 0.122476 0
12.055000 0.093713 0
12.060000 0.066588 0
12.065000 0.041071 0
12.070000 0.015762 0
12.075000 -0.012463 0
12.080000 -0.047850 0
12.085000 -0.093216 0
12.090000 -0.145719 0
12.095000 -0.193295 0
12.100000 -0.214931 2
12.105000 -0.185262 0
12.110000 -0.080905 0
12.115000 0.112616 0
12.120000 0.390205 0
12.125000 0.712941 0
12.130000 1.003377 0
12.135000 1.168037 3
12.140000 1.144902 0
12.145000 0.938958 0
12.150000 0.618222 0
12.155000 0.274797 0
12.160000 -0.016909 0
12.165000 -0.217667 0
12.170000 -0.318913 0
12.175000 -0.332968 4
12.180000 -0.285882 0
12.185000 -0.209706 0
12.190000 -0.132379 0
12.195000 -0.069938 0
12.200000 -0.025696 0
12.205000 0.004813 0
12.210000 0.027954 0
12.215000 0.048607 0
12.220000 0.069474 0
12.225000 0.091693 0
12.230000 0.115572 0
12.235000 0.141054 0
12.240000 0.167906 0
12.245000 0.195797 0
12.250000 0.224314 0
12.255000 0.252974 0
12.260000 0.281240 0
12.265000 0.308530 0
12.270000 0.334241 0
12.275000 0.357767 0
12.280000 0.378523 0
12.285000 0.395969 0
12.290000 0.409632 0
12.295000 0.419127 0
12.300000 0.424176 0
12.305000 0.424616 5
12.310000 0.420414 0
12.315000 0.411663 0
12.320000 0.398581 0
12.325000 0.381501 0
12.330000 0.360856 0
12.335000 0.337162 0
12.340000 0.310991 0
12.345000 0.282956 0
12.350000 0.253680 0
12.355000 0.223775 0
12.360000 0.193825 0
12.365000 0.164361 0
12.370000 0.135854 0
12.375000 0.108700 0
12.380000 0.083216 0
12.385000 0.059640 0
12.390000 0.038130 0
12.395000 0.018769 0
12.400000 0.001575 0
12.405000 -0.013490 0
12.410000 -0.026514 0
12.415000 -0.037618 0
12.420000 -0.046951 0
12.425000 -0.054679 0
12.430000 -0.060974 0
12.435000 -0.066011 0
12.440000 -0.069958 0
12.445000 -0.072975 0
12.450000 -0.075208 0
12.455000 -0.076790 0
12.460000 -0.077838 0
12.465000 -0.078453 0
12.470000 -0.078722 0
12.475000 -0.078023 0
12.480000 -0.077164 0
12.485000 -0.076310 0
12.490000 -0.075459 0
12.495000 -0.074613 0
12.500000 -0.073771 0
12.505000 -0.072934 0
12.510000 -0.072100 0
12.515000 -0.071271 0
12.520000 -0.070445 0
12.525000 -0.069623 0
12.530000 -0.068804 0
12.535000 -0.067987 0
12.540000 -0.067170 0
12.545000 -0.066349 0
12.550000 -0.065519 0
12.555000 -0.064670 0
12.560000 -0.063783 0
12.565000 -0.062832 0
12.570000 -0.061775 0
12.575000 -0.060546 0
12.580000 -0.059052 0
12.585000 -0.057161 0
12.590000 -0.054693 0
12.595000 -0.051413 0
12.600000 -0.047028 0
12.605000 -0.041188 0
12.610000 -0.033498 0
12.615000 -0.023544 0
12.620000 -0.010928 0
12.625000 0.004676 0
12.630000 0.023467 0
12.635000 0.045445 0
12.640000 0.070352 0
12.645000 0.097632 0
12.650000 0.126408 0
12.655000 0.155507 0
12.660000 0.183524 0
12.665000 0.208922 0
12.670000 0.230169 0
12.675000 0.245888 0
12.680000 0.255006 0
12.685000 0.256873 1
12.690000 0.251338 0
12.695000 0.238768 0
12.700000 0.220009 0
12.705000 0.196288 0
12.710000 0.169083 0
12.715000 0.139967 0
12.720000 0.110443 0
12.725000 0.081771 0
12.730000 0.054738 0
12.735000 0.029293 0
12.740000 0.004041 0
12.745000 -0.024101 0
12.750000 -0.059315 0
12.755000 -0.104424 0
12.760000 -0.156789 0
12.765000 -0.204809 0
12.770000 -0.228045 2
12.775000 -0.201579 0
12.780000 -0.102131 0
12.785000 0.085326 0
12.790000 0.357531 0
12.795000 0.679084 0
12.800000 0.976447 0
12.805000 1.157254 3
12.810000 1.154294 0
12.815000 0.962952 0
12.820000 0.647648 0
12.825000 0.303284 0
12.830000 0.008543 0
12.835000 -0.194520 0
12.840000 -0.296401 0
12.845000 -0.309713 4
12.850000 -0.261491 0
12.855000 -0.184866 0
12.860000 -0.108270 0
12.865000 -0.047404 0
12.870000 -0.004842 0
12.875000 0.024438 0
12.880000 0.046947 0
12.885000 0.067433 0
12.890000 0.088400 0
12.895000 0.110839 0
12.900000 0.134978 0
12.905000 0.160710 0
12.910000 0.187770 0
12.915000 0.215795 0
12.920000 0.244337 0
12.925000 0.272882 0
12.930000 0.300859 0
12.935000 0.327656 0
12.940000 0.352647 0
12.945000 0.375210 0
12.950000 0.394752 0
12.955000 0.410738 0
12.960000 0.422711 0
12.965000 0.430316 0
12.970000 0.433313 5
12.975000 0.431592 0
12.980000 0.425177 0
12.985000 0.414227 0
12.990000 0.399027 0
12.995000 0.379975 0
13.000000 0.357566 0
13.005000 0.332368 0
13.010000 0.305000 0
13.015000 0.276103 0
13.020000 0.246319 0
13.025000 0.216265 0
13.030000 0.186512 0
13.035000 0.157572 0
13.040000 0.129880 0
13.045000 0.103794 0
13.050000 0.079582 0
13.055000 0.057432 0
13.060000 0.037452 0
13.065000 0.019675 0
13.070000 0.004076 0
13.075000 -0.009426 0
13.080000 -0.020950 0
13.085000 -0.030645 0
13.090000 -0.038680 0
13.095000 -0.045233 0
13.100000 -0.050484 0
13.105000 -0.054608 0
13.110000 -0.057771 0
13.115000 -0.060127 0
13.120000 -0.061813 0
13.125000 -0.062951 0
13.130000 -0.063646 0
13.135000 -0.063988 0
13.140000 -0.063362 0
13.145000 -0.062577 0
13.150000 -0.061795 0
13.155000 -0.061017 0
13.160000 -0.060243 0
13.165000 -0.059473 0
13.170000 -0.058706 0
13.175000 -0.057944 0
13.180000 -0.057185 0
13.185000 -0.056429 0
13.190000 -0.055677 0
13.195000 -0.054927 0
13.200000 -0.054178 0
13.205000 -0.053429 0
13.210000 -0.052674 0
13.215000 -0.051907 0
13.220000 -0.051115 0
13.225000 -0.050279 0
13.230000 -0.049364 0
13.235000 -0.048322 0
13.240000 -0.047075 0
13.245000 -0.045513 0
13.250000 -0.043482 0
13.255000 -0.040775 0
13.260000 -0.037123 0
13.265000 -0.032196 0
13.270000 -0.025610 0
13.275000 -0.016944 0
13.280000 -0.005771 0
13.285000 0.008291 0
13.290000 0.025520 0
13.295000 0.046020 0
13.300000 0.069652 0
13.305000 0.095980 0
13.310000 0.124233 0
13.315000 0.153318 0
13.320000 0.181861 0
13.325000 0.208308 0
13.330000 0.231056 0
13.335000 0.248610 0
13.340000 0.259746 0
13.345000 0.263651 1
13.350000 0.260018 0
13.355000 0.249087 0
13.360000 0.231617 0
13.365000 0.208798 0
13.370000 0.182115 0
13.375000 0.153187 0
13.380000 0.123594 0
13.385000 0.094694 0
13.390000 0.067388 0
13.395000 0.041757 0
13.400000 0.016536 0
13.405000 -0.011305 0
13.410000 -0.046057 0
13.415000 -0.090812 0
13.420000 -0.143144 0
13.425000 -0.191295 0
13.430000 -0.214198 2
13.435000 -0.186084 0
13.440000 -0.083029 0
13.445000 0.109900 0
13.450000 0.387658 0
13.455000 0.710499 0
13.460000 0.999233 0
13.465000 1.158910 3
13.470000 1.130583 0
13.475000 0.922019 0
13.480000 0.600801 0
13.485000 0.257352 0
13.490000 -0.035243 0
13.495000 -0.238104 0
13.500000 -0.342304 0
13.505000 -0.359408 4
13.510000 -0.314550 0
13.515000 -0.239117 0
13.520000 -0.161047 0
13.525000 -0.097013 0
13.530000 -0.051127 0
13.535000 -0.019429 0
13.540000 0.004346 0
13.545000 0.025218 0
13.550000 0.046071 0
13.555000 0.068171 0
13.560000 0.091901 0
13.565000 0.117238 0
13.570000 0.143977 0
13.575000 0.171806 0
13.580000 0.200334 0
13.585000 0.229099 0
13.590000 0.257583 0
13.595000 0.285224 0
13.600000 0.311434 0
13.605000 0.335617 0
13.610000 0.357193 0
13.615000 0.375619 0
13.620000 0.390412 0
13.625000 0.401171 0
13.630000 0.407591 0
13.635000 0.409482 5
13.640000 0.406772 0
13.645000 0.399515 0
13.650000 0.387887 0
13.655000 0.372179 0
13.660000 0.352786 0
13.665000 0.330188 0
13.670000 0.304928 0
13.675000 0.277598 0
13.680000 0.248805 0
13.685000 0.219158 0
13.690000 0.189241 0
13.695000 0.159600 0
13.700000 0.130720 0
13.705000 0.103023 0
13.710000 0.076854 0
13.715000 0.052479 0
13.720000 0.030089 0
13.725000 0.009797 0
13.730000 -0.008348 0
13.735000 -0.024361 0
13.740000 -0.038303 0
13.745000 -0.050280 0
13.750000 -0.060424 0
13.755000 -0.068891 0
13.760000 -0.075847 0
13.765000 -0.081464 0
13.770000 -0.085910 0
13.775000 -0.089347 0
13.780000 -0.091927 0
13.785000 -0.093788 0
13.790000 -0.095053 0
13.795000 -0.095831 0
13.800000 -0.096217 0
13.805000 -0.096288 0
13.810000 -0.095486 0
13.815000 -0.094540 0
13.820000 -0.093599 0
13.825000 -0.092662 0
13.830000 -0.091730 0
13.835000 -0.090803 0
13.840000 -0.089880 0
13.845000 -0.088962 0
13.850000 -0.088048 0
13.855000 -0.087139 0
13.860000 -0.086233 0
13.865000 -0.085331 0
13.870000 -0.084431 0
13.875000 -0.083530 0
13.880000 -0.082626 0
13.885000 -0.081711 0
13.890000 -0.080774 0
13.895000 -0.079796 0
13.900000 -0.078748 0
13.905000 -0.077586 0
13.910000 -0.076241 0
13.915000 -0.074615 0
13.920000 -0.072573 0
13.925000 -0.069930 0
13.930000 -0.066449 0
13.935000 -0.061835 0
13.940000 -0.055737 0
13.945000 -0.047767 0
13.950000 -0.037517 0
13.955000 -0.024602 0
13.960000 -0.008709 0
13.965000 0.010345 0
13.970000 0.032548 0
13.975000 0.057632 0
13.980000 0.085039 0
13.985000 0.113901 0
13.990000 0.143062 0
13.995000 0.171141 0
14.000000 0.196631 0
14.005000 0.218029 0
14.010000 0.233981 0
14.015000 0.243424 0
14.020000 0.245704 1
14.025000 0.240647 0
14.030000 0.228586 0
14.035000 0.210322 0
14.040000 0.187033 0
14.045000 0.160155 0
14.050000 0.131227 0
14.055000 0.101739 0
14.060000 0.072965 0
14.065000 0.045751 0
14.070000 0.020188 0
14.075000 -0.004867 0
14.080000 -0.032185 0
14.085000 -0.065802 0
14.090000 -0.108990 0
14.095000 -0.160483 0
14.100000 -0.210748 0
14.105000 -0.241271 2
14.110000 -0.228055 0
14.115000 -0.147374 0
14.120000 0.018105 0
14.125000 0.270775 0
14.130000 0.585105 0
14.135000 0.898196 0
14.140000 1.120835 0
14.145000 1.175208 3
14.150000 1.037072 0
14.155000 0.751706 0
14.160000 0.406799 0
14.165000 0.087201 0
14.170000 -0.153464 0
14.175000 -0.295383 0
14.180000 -0.343225 4
14.185000 -0.317992 0
14.190000 -0.250189 0
14.195000 -0.170557 0
14.200000 -0.100626 0
14.205000 -0.048744 0
14.210000 -0.013026 0
14.215000 0.012635 0
14.220000 0.033955 0
14.225000 0.054541 0
14.230000 0.076111 0
14.235000 0.099264 0
14.240000 0.124069 0
14.245000 0.150360 0
14.250000 0.177849 0
14.255000 0.206158 0
14.260000 0.234840 0
14.265000 0.263384 0
14.270000 0.291230 0
14.275000 0.317785 0
14.280000 0.342446 0
14.285000 0.364619 0
14.290000 0.383741 0
14.295000 0.399309 0
14.300000 0.410895 0
14.305000 0.418169 0
14.310000 0.420911 5
14.315000 0.419025 0
14.320000 0.412541 0
14.325000 0.401614 0
14.330000 0.386522 0
14.335000 0.367645 0
14.340000 0.345457 0
14.345000 0.320502 0
14.350000 0.293372 0
14.355000 0.264683 0
14.360000 0.235052 0
14.365000 0.205078 0
14.370000 0.175317 0
14.375000 0.146271 0
14.380000 0.118374 0
14.385000 0.091984 0
14.390000 0.067380 0
14.395000 0.044759 0
14.400000 0.024245 0
14.405000 0.005890 0
14.410000 -0.010314 0
14.415000 -0.024430 0
14.420000 -0.036561 0
14.425000 -0.046840 0
14.430000 -0.055425 0
14.435000 -0.062484 0
14.440000 -0.068189 0
14.445000 -0.072714 0
14.450000 -0.076221 0
14.455000 -0.078865 0
14.460000 -0.080784 0
14.465000 -0.082106 0
14.470000 -0.082939 0
14.475000 -0.083378 0
14.480000 -0.083503 0
14.485000 -0.082763 0
14.490000 -0.081880 0
14.495000 -0.081002 0
14.500000 -0.080128 0
14.505000 -0.079259 0
14.510000 -0.078394 0
14.515000 -0.077533 0
14.520000 -0.076677 0
14.525000 -0.075824 0
14.530000 -0.074976 0
14.535000 -0.074131 0
14.540000 -0.073288 0
14.545000 -0.072448 0
14.550000 -0.071606 0
14.555000 -0.070760 0
14.560000 -0.069901 0
14.565000 -0.069017 0
14.570000 -0.068088 0
14.575000 -0.067082 0
14.580000 -0.065950 0
14.585000 -0.064619 0
14.590000 -0.062983 0
14.595000 -0.060894 0
14.600000 -0.058158 0
14.605000 -0.054520 0
14.610000 -0.049669 0
14.615000 -0.043241 0
14.620000 -0.034834 0
14.625000 -0.024035 0
14.630000 -0.010468 0
14.635000 0.006160 0
14.640000 0.025989 0
14.645000 0.048945 0
14.650000 0.074682 0
14.655000 0.102549 0
14.660000 0.131579 0
14.665000 0.160527 0
14.670000 0.187944 0
14.675000 0.212287 0
14.680000 0.232064 0
14.685000 0.245981 0
14.690000 0.253081 1
14.695000 0.252854 0
14.700000 0.245299 0
14.705000 0.230919 0
14.710000 0.210674 0
14.715000 0.185868 0
14.720000 0.158009 0
14.725000 0.128661 0
14.730000 0.099271 0
14.735000 0.070995 0
14.740000 0.044439 0
14.745000 0.019259 0
14.750000 -0.006346 0
14.755000 -0.035834 0
14.760000 -0.073337 0
14.765000 -0.120737 0
14.770000 -0.173471 0
14.775000 -0.217702 0
14.780000 -0.231540 2
14.785000 -0.190034 0
14.790000 -0.071297 0
14.795000 0.136533 0
14.800000 0.424216 0
14.805000 0.747960 0
14.810000 1.027791 0
14.815000 1.173117 3
14.820000 1.131122 0
14.825000 0.913950 0
14.830000 0.589869 0
14.835000 0.246916 0
14.840000 -0.044625 0
14.845000 -0.247442 0
14.850000 -0.352898 0
14.855000 -0.372041 4
14.860000 -0.329056 0
14.865000 -0.254426 0
14.870000 -0.175776 0
14.875000 -0.110211 0
14.880000 -0.062614 0
14.885000 -0.029618 0
14.890000 -0.005141 0
14.895000 0.015945 0
14.900000 0.036716 0
14.905000 0.058594 0
14.910000 0.082050 0
14.915000 0.107112 0
14.920000 0.133605 0
14.925000 0.161244 0
14.930000 0.189665 0
14.935000 0.218435 0
14.940000 0.247063 0
14.945000 0.275011 0
14.950000 0.301713 0
14.955000 0.326590 0
14.960000 0.349070 0
14.965000 0.368612 0
14.970000 0.384726 0
14.975000 0.396990 0
14.980000 0.405073 0
14.985000 0.408748 5
14.990000 0.407899 0
14.995000 0.402529 0
15.000000 0.392761 0
15.005000 0.378833 0
15.010000 0.361083 0
15.015000 0.339944 0
15.020000 0.315917 0
15.025000 0.289558 0
15.030000 0.261453 0
15.035000 0.232196 0
15.040000 0.202371 0
15.045000 0.172529 0
15.050000 0.143177 0
15.055000 0.114763 0
15.060000 0.087665 0
15.065000 0.062188 0
15.070000 0.038563 0
15.075000 0.016945 0
15.080000 -0.002578 0
15.085000 -0.019981 0
15.090000 -0.035295 0
15.095000 -0.048595 0
15.100000 -0.059993 0
15.105000 -0.069625 0
15.110000 -0.077645 0
15.115000 -0.084219 0
15.120000 -0.089512 0
15.125000 -0.093687 0
15.130000 -0.096900 0
15.135000 -0.099296 0
15.140000 -0.101007 0
15.145000 -0.102150 0
15.150000 -0.102829 0
15.155000 -0.103132 0
15.160000 -0.102992 0
15.165000 -0.102009 0
15.170000 -0.101030 0
15.175000 -0.100057 0
15.180000 -0.099088 0
15.185000 -0.098124 0
15.190000 -0.097165 0
15.195000 -0.096210 0
15.200000 -0.095261 0
15.205000 -0.094315 0
15.210000 -0.093375 0
15.215000 -0.092438 0
15.220000 -0.091505 0
15.225000 -0.090574 0
15.230000 -0.089643 0
15.235000 -0.088709 0
15.240000 -0.087766 0
15.245000 -0.086802 0
15.250000 -0.085802 0
15.255000 -0.084737 0
15.260000 -0.083567 0
15.265000 -0.082230 0
15.270000 -0.080637 0
15.275000 -0.078662 0
15.280000 -0.076136 0
15.285000 -0.072841 0
15.290000 -0.068501 0
15.295000 -0.062788 0
15.300000 -0.055332 0
15.305000 -0.045739 0
15.310000 -0.033623 0
15.315000 -0.018654 0
15.320000 -0.000607 0
15.325000 0.020572 0
15.330000 0.044713 0
15.335000 0.071376 0
15.340000 0.099824 0
15.345000 0.129037 0
15.350000 0.157746 0
15.355000 0.184521 0
15.360000 0.207884 0
15.365000 0.226436 0
15.370000 0.239002 0
15.375000 0.244748 1
15.380000 0.243280 0
15.385000 0.234680 0
15.390000 0.219506 0
15.395000 0.198728 0
15.400000 0.173628 0
15.405000 0.145664 0
15.410000 0.116333 0
15.415000 0.087016 0
15.420000 0.058811 0
15.425000 0.032295 0
15.430000 0.007156 0
15.435000 -0.018277 0
15.440000 -0.047249 0
15.445000 -0.083759 0
15.450000 -0.130010 0
15.455000 -0.182554 0
15.460000 -0.229373 0
15.465000 -0.250417 2
15.470000 -0.221829 0
15.475000 -0.121536 0
15.480000 0.064723 0
15.485000 0.334252 0
15.490000 0.654701 0
15.495000 0.957863 0
15.500000 1.155527 0
15.505000 1.178562 3
15.510000 1.013838 0
15.515000 0.714296 0
15.520000 0.368283 0
15.525000 0.056107 0
15.530000 -0.173927 0
15.535000 -0.305604 0
15.540000 -0.345490 4
15.545000 -0.315391 0
15.550000 -0.245674 0
15.555000 -0.166138 0
15.560000 -0.097111 0
15.565000 -0.046086 0
15.570000 -0.010871 0
15.575000 0.014589 0
15.580000 0.035859 0
15.585000 0.056439 0
15.590000 0.077999 0
15.595000 0.101125 0
15.600000 0.125889 0
15.605000 0.152128 0
15.610000 0.179564 0
15.615000 0.207829 0
15.620000 0.236488 0
15.625000 0.265040 0
15.630000 0.292940 0
15.635000 0.319609 0
15.640000 0.344453 0
15.645000 0.366888 0
15.650000 0.386359 0
15.655000 0.402363 0
15.660000 0.414470 0
15.665000 0.422343 0
15.670000 0.425751 5
15.675000 0.424581 0
15.680000 0.418843 0
15.685000 0.408669 0
15.690000 0.394310 0
15.695000 0.376122 0
15.700000 0.354554 0
15.705000 0.330128 0
15.710000 0.303416 0
15.715000 0.275019 0
15.720000 0.245546 0
15.725000 0.215589 0
15.730000 0.185708 0
15.735000 0.156409 0
15.740000 0.128138 0
15.745000 0.101268 0
15.750000 0.076094 0
15.755000 0.052835 0
15.760000 0.031634 0
15.765000 0.012563 0
15.770000 -0.004367 0
15.775000 -0.019202 0
15.780000 -0.032029 0
15.785000 -0.042970 0
15.790000 -0.052174 0
15.795000 -0.059800 0
15.800000 -0.066019 0
15.805000 -0.071000 0
15.810000 -0.074908 0
15.815000 -0.077898 0
15.820000 -0.080114 0
15.825000 -0.081684 0
15.830000 -0.082724 0
15.835000 -0.083333 0
15.840000 -0.083596 0
15.845000 -0.083458 0
15.850000 -0.082572 0
15.855000 -0.081690 0
15.860000 -0.080813 0
15.865000 -0.079940 0
15.870000 -0.079072 0
15.875000 -0.078207 0
15.880000 -0.077348 0
15.885000 -0.076492 0
15.890000 -0.075640 0
15.895000 -0.074792 0
15.900000 -0.073948 0
15.905000 -0.073106 0
15.910000 -0.072264 0
15.915000 -0.071421 0
15.920000 -0.070570 0
15.925000 -0.069703 0
15.930000 -0.068805 0
15.935000 -0.067853 0
15.940000 -0.066810 0
15.945000 -0.065621 0
15.950000 -0.064204 0
15.955000 -0.062443 0
15.960000 -0.060180 0
15.965000 -0.057206 0
15.970000 -0.053255 0
15.975000 -0.048006 0
15.980000 -0.041090 0
15.985000 -0.032105 0
15.990000 -0.020651 0
15.995000 -0.006375 0
16.000000 0.010982 0
16.005000 0.031513 0
16.010000 0.055092 0
16.015000 0.081317 0
16.020000 0.109486 0
16.025000 0.138594 0
16.030000 0.167376 0
16.035000 0.194383 0
16.040000 0.218102 0
16.045000 0.237087 0
16.050000 0.250108 0
16.055000 0.256282 1
16.060000 0.255169 0
16.065000 0.246827 0
16.070000 0.231805 0
16.075000 0.211081 0
16.080000 0.185960 0
16.085000 0.157935 0
16.090000 0.128534 0
16.095000 0.099169 0
16.100000 0.070953 0
16.105000 0.044450 0
16.110000 0.019286 0
16.115000 -0.006346 0
16.120000 -0.035861 0
16.125000 -0.073319 0
16.130000 -0.120595 0
16.135000 -0.173330 0
16.140000 -0.218159 0
16.145000 -0.233780 2
16.150000 -0.195706 0
16.155000 -0.082141 0
16.160000 0.119428 0
16.165000 0.401865 0
16.170000 0.725234 0
16.175000 1.013575 0
16.180000 1.177042 3
16.185000 1.155005 0
16.190000 0.951460 0
16.195000 0.632433 0
16.200000 0.288269 0
16.205000 -0.006983 0
16.210000 -0.213300 0
16.215000 -0.320903 0
16.220000 -0.340773 4
16.225000 -0.297665 0
16.230000 -0.222883 0
16.235000 -0.144635 0
16.240000 -0.080053 0
16.245000 -0.033641 0
16.250000 -0.001629 0
16.255000 0.022243 0
16.260000 0.043065 0
16.265000 0.063795 0
16.270000 0.085745 0
16.275000 0.109320 0
16.280000 0.134507 0
16.285000 0.161106 0
16.290000 0.188808 0
16.295000 0.217226 0
16.300000 0.245901 0
16.305000 0.274318 0
16.310000 0.301915 0
16.315000 0.328106 0
16.320000 0.352295 0
16.325000 0.373901 0
16.330000 0.392380 0
16.335000 0.407247 0
16.340000 0.418096 0
16.345000 0.424618 0
16.350000 0.426619 5
16.355000 0.424021 0
16.360000 0.416873 0
16.365000 0.405345 0
16.370000 0.389725 0
16.375000 0.370402 0
16.380000 0.347852 0
16.385000 0.322617 0
16.390000 0.295284 0
16.395000 0.266462 0
16.400000 0.236760 0
16.405000 0.206763 0
16.410000 0.177017 0
16.415000 0.148012 0
16.420000 0.120171 0
16.425000 0.093844 0
16.430000 0.069300 0
16.435000 0.046733 0
16.440000 0.026261 0
16.445000 0.007934 0
16.450000 -0.008258 0
16.455000 -0.022376 0
16.460000 -0.034523 0
16.465000 -0.044831 0
16.470000 -0.053453 0
16.475000 -0.060557 0
16.480000 -0.066312 0
16.485000 -0.070888 0
16.490000 -0.074447 0
16.495000 -0.077141 0
16.500000 -0.079109 0
16.505000 -0.080475 0
16.510000 -0.081349 0
16.515000 -0.081824 0
16.520000 -0.081983 0
16.525000 -0.081254 0
16.530000 -0.080379 0
16.535000 -0.079508 0
16.540000 -0.078642 0
16.545000 -0.077780 0
16.550000 -0.076922 0
16.555000 -0.076069 0
16.560000 -0.075219 0
16.565000 -0.074374 0
16.570000 -0.073533 0
16.575000 -0.072695 0
16.580000 -0.071861 0
16.585000 -0.071028 0
16.590000 -0.070195 0
16.595000 -0.069357 0
16.600000 -0.068509 0
16.605000 -0.067640 0
16.610000 -0.066731 0
16.615000 -0.065754 0
16.620000 -0.064665 0
16.625000 -0.063398 0
16.630000 -0.061857 0
16.635000 -0.059909 0
16.640000 -0.057372 0
16.645000 -0.054013 0
16.650000 -0.049540 0
16.655000 -0.043608 0
16.660000 -0.035827 0
16.665000 -0.025792 0
16.670000 -0.013115 0
16.675000 0.002524 0
16.680000 0.021317 0
16.685000 0.043265 0
16.690000 0.068119 0
16.695000 0.095340 0
16.700000 0.124081 0
16.705000 0.153202 0
16.710000 0.181336 0
16.715000 0.206980 0
16.720000 0.228629 0
16.725000 0.244914 0
16.730000 0.254752 0
16.735000 0.257456 1
16.740000 0.252823 0
16.745000 0.241151 0
16.750000 0.223211 0
16.755000 0.200160 0
16.760000 0.173419 0
16.765000 0.144524 0
16.770000 0.114974 0
16.775000 0.086062 0
16.780000 0.058672 0
16.785000 0.032959 0
16.790000 0.007884 0
16.795000 -0.019208 0
16.800000 -0.052306 0
16.805000 -0.094840 0
16.810000 -0.146002 0
16.815000 -0.196923 0
16.820000 -0.229664 2
16.825000 -0.220451 0
16.830000 -0.145357 0
16.835000 0.013632 0
16.840000 0.260380 0
16.845000 0.571842 0
16.850000 0.887839 0
16.855000 1.120117 0
16.860000 1.188469 3
16.865000 1.063572 0
16.870000 0.786124 0
16.875000 0.442356 0
16.880000 0.118669 0
16.885000 -0.128685 0
16.890000 -0.277735 0
16.895000 -0.331730 4
16.900000 -0.310743 0
16.905000 -0.244908 0
16.910000 -0.165310 0
16.915000 -0.094349 0
16.920000 -0.041260 0
16.925000 -0.004672 0
16.930000 0.021417 0
16.935000 0.042840 0
16.940000 0.063354 0
16.945000 0.084781 0
16.950000 0.107773 0
16.955000 0.132423 0
16.960000 0.158575 0
16.965000 0.185946 0
16.970000 0.214166 0
16.975000 0.242790 0
16.980000 0.271310 0
16.985000 0.299169 0
16.990000 0.325775 0
16.995000 0.350523 0
17.000000 0.372819 0
17.005000 0.392098 0
17.010000 0.407849 0
17.015000 0.419640 0
17.020000 0.427135 0
17.025000 0.430106 5
17.030000 0.428449 0
17.035000 0.422188 0
17.040000 0.411470 0
17.045000 0.396566 0
17.050000 0.377850 0
17.055000 0.355794 0
17.060000 0.330936 0
17.065000 0.303868 0
17.070000 0.275206 0
17.075000 0.245568 0
17.080000 0.215553 0
17.085000 0.185723 0
17.090000 0.156582 0
17.095000 0.128570 0
17.100000 0.102047 0
17.105000 0.077298 0
17.110000 0.054525 0
17.115000 0.033856 0
17.120000 0.015345 0
17.125000 -0.001012 0
17.130000 -0.015276 0
17.135000 -0.027547 0
17.140000 -0.037958 0
17.145000 -0.046666 0
17.150000 -0.053838 0
17.155000 -0.059648 0
17.160000 -0.064268 0
17.165000 -0.067862 0
17.170000 -0.070585 0
17.175000 -0.072577 0
17.180000 -0.073964 0
17.185000 -0.074858 0
17.190000 -0.075354 0
17.195000 -0.075532 0
17.200000 -0.074834 0
17.205000 -0.073991 0
17.210000 -0.073152 0
17.215000 -0.072317 0
17.220000 -0.071487 0
17.225000 -0.070661 0
17.230000 -0.069838 0
17.235000 -0.069020 0
17.240000 -0.068206 0
17.245000 -0.067395 0
17.250000 -0.066588 0
17.255000 -0.065784 0
17.260000 -0.064981 0
17.265000 -0.064177 0
17.270000 -0.063367 0
17.275000 -0.062546 0
17.280000 -0.061700 0
17.285000 -0.060811 0
17.290000 -0.059845 0
17.295000 -0.058755 0
17.300000 -0.057469 0
17.305000 -0.055883 0
17.310000 -0.053850 0
17.315000 -0.051177 0
17.320000 -0.047611 0
17.325000 -0.042845 0
17.330000 -0.036514 0
17.335000 -0.028217 0
17.340000 -0.017542 0
17.345000 -0.004108 0
17.350000 0.012381 0
17.355000 0.032070 0
17.360000 0.054893 0
17.365000 0.080516 0
17.370000 0.108294 0
17.375000 0.137272 0
17.380000 0.166211 0
17.385000 0.193664 0
17.390000 0.218091 0
17.395000 0.237992 0
17.400000 0.252064 0
17.405000 0.259339 1
17.410000 0.259293 0
17.415000 0.251908 0
17.420000 0.237675 0
17.425000 0.217543 0
17.430000 0.192809 0
17.435000 0.164981 0
17.440000 0.135621 0
17.445000 0.106185 0
17.450000 0.077839 0
17.455000 0.051209 0
17.460000 0.025979 0
17.465000 0.000388 0
17.470000 -0.028989 0
17.475000 -0.066297 0
17.480000 -0.113520 0
17.485000 -0.166279 0
17.490000 -0.210942 0
17.495000 -0.225731 2
17.500000 -0.185681 0
17.505000 -0.068755 0
17.510000 0.137221 0
17.515000 0.423571 0
17.520000 0.747249 0
17.525000 1.028783 0
17.530000 1.177305 3
17.535000 1.134858 0
17.540000 0.912762 0
17.545000 0.584866 0
17.550000 0.244412 0
17.555000 -0.037016 0
17.560000 -0.224118 0
17.565000 -0.311625 0
17.570000 -0.314468 4
17.575000 -0.260609 0
17.580000 -0.182623 0
17.585000 -0.107229 0
17.590000 -0.048278 0
17.595000 -0.007212 0
17.600000 0.021276 0
17.605000 0.043519 0
17.610000 0.064002 0
17.615000 0.085060 0
17.620000 0.107602 0
17.625000 0.131827 0
17.630000 0.157624 0
17.635000 0.184727 0
17.640000 0.212778 0
17.645000 0.241338 0
17.650000 0.269899 0
17.655000 0.297901 0
17.660000 0.324746 0
17.665000 0.349818 0
17.670000 0.372504 0
17.675000 0.392222 0
17.680000 0.408442 0
17.685000 0.420712 0
17.690000 0.428675 0
17.695000 0.432085 5
17.700000 0.430825 0
17.705000 0.424905 0
17.710000 0.414467 0
17.715000 0.399778 0
17.720000 0.381217 0
17.725000 0.359257 0
17.730000 0.334449 0
17.735000 0.307394 0
17.740000 0.278721 0
17.745000 0.249061 0
17.750000 0.219026 0
17.755000 0.189187 0
17.760000 0.160058 0
17.765000 0.132085 0
17.770000 0.105634 0
17.775000 0.080988 0
17.780000 0.058350 0
17.785000 0.037843 0
17.790000 0.019519 0
17.795000 0.003365 0
17.800000 -0.010683 0
17.805000 -0.022734 0
17.810000 -0.032927 0
17.815000 -0.041423 0
17.820000 -0.048395 0
17.825000 -0.054020 0
17.830000 -0.058473 0
17.835000 -0.061920 0
17.840000 -0.064515 0
17.845000 -0.066401 0
17.850000 -0.067701 0
17.855000 -0.068526 0
17.860000 -0.068969 0
17.865000 -0.068972 0
17.870000 -0.068158 0
17.875000 -0.067348 0
17.880000 -0.066543 0
17.885000 -0.065741 0
17.890000 -0.064943 0
17.895000 -0.064150 0
17.900000 -0.063360 0
17.905000 -0.062574 0
17.910000 -0.061792 0
17.915000 -0.061013 0
17.920000 -0.060237 0
17.925000 -0.059464 0
17.930000 -0.058690 0
17.935000 -0.057915 0
17.940000 -0.057131 0
17.945000 -0.056331 0
17.950000 -0.055498 0
17.955000 -0.054609 0
17.960000 -0.053623 0
17.965000 -0.052481 0
17.970000 -0.051096 0
17.975000 -0.049342 0
17.980000 -0.047048 0
17.985000 -0.043986 0
17.990000 -0.039870 0
17.995000 -0.034355 0
18.000000 -0.027046 0
18.005000 -0.017524 0
18.010000 -0.005378 0
18.015000 0.009738 0
18.020000 0.028049 0
18.025000 0.049585 0
18.030000 0.074124 0
18.035000 0.101138 0
18.040000 0.129773 0
18.045000 0.158868 0
18.050000 0.187014 0
18.055000 0.212657 0
18.060000 0.234235 0
18.065000 0.250332 0
18.070000 0.259835 0
18.075000 0.262053 1
18.080000 0.256807 0
18.085000 0.244447 0
18.090000 0.225816 0
18.095000 0.202152 0
18.100000 0.174951 0
18.105000 0.145812 0
18.110000 0.116260 0
18.115000 0.087574 0
18.120000 0.060546 0
18.125000 0.035098 0
18.130000 0.009771 0
18.135000 -0.018628 0
18.140000 -0.054349 0
18.145000 -0.100074 0
18.150000 -0.152651 0
18.155000 -0.199635 0
18.160000 -0.219732 2
18.165000 -0.187542 0
18.170000 -0.079888 0
18.175000 0.117183 0
18.180000 0.397526 0
18.185000 0.720693 0
18.190000 1.007997 0
18.195000 1.166206 3
18.200000 1.135754 0
18.205000 0.924431 0
18.210000 0.601547 0
18.215000 0.258759 0
18.220000 -0.030820 0
18.225000 -0.229109 0
18.230000 -0.328210 0
18.235000 -0.340755 4
18.240000 -0.292866 0
18.245000 -0.216454 0
18.250000 -0.139193 0
18.255000 -0.076882 0
18.260000 -0.032715 0
18.265000 -0.002214 0
18.270000 0.020955 0
18.275000 0.041642 0
18.280000 0.062541 0
18.285000 0.084783 0
18.290000 0.108682 0
18.295000 0.134179 0
18.300000 0.161047 0
18.305000 0.188956 0
18.310000 0.217497 0
18.315000 0.246191 0
18.320000 0.274503 0
18.325000 0.301857 0
18.330000 0.327652 0
18.335000 0.351285 0
18.340000 0.372174 0
18.345000 0.389779 0
18.350000 0.403626 0
18.355000 0.413330 0
18.360000 0.418607 0
18.365000 0.419292 5
18.370000 0.415346 0
18.375000 0.406854 0
18.380000 0.394028 0
18.385000 0.377192 0
18.390000 0.356774 0
18.395000 0.333279 0
18.400000 0.307278 0
18.405000 0.279377 0
18.410000 0.250195 0
18.415000 0.220344 0
18.420000 0.190405 0
18.425000 0.160915 0
18.430000 0.132344 0
18.435000 0.105094 0
18.440000 0.079487 0
18.445000 0.055766 0
18.450000 0.034094 0
18.455000 0.014562 0
18.460000 -0.002808 0
18.465000 -0.018049 0
18.470000 -0.031243 0
18.475000 -0.042508 0
18.480000 -0.051991 0
18.485000 -0.059854 0
18.490000 -0.066270 0
18.495000 -0.071411 0
18.500000 -0.075446 0
18.505000 -0.078535 0
18.510000 -0.080827 0
18.515000 -0.082453 0
18.520000 -0.083533 0
18.525000 -0.084170 0
18.530000 -0.084451 0
18.535000 -0.084322 0
18.540000 -0.083431 0
18.545000 -0.082546 0
18.550000 -0.081664 0
18.555000 -0.080787 0
18.560000 -0.079914 0
18.565000 -0.079046 0
18.570000 -0.078182 0
18.575000 -0.077322 0
18.580000 -0.076466 0
18.585000 -0.075614 0
18.590000 -0.074766 0
18.595000 -0.073919 0
18.600000 -0.073073 0
18.605000 -0.072225 0
18.610000 -0.071369 0
18.615000 -0.070495 0
18.620000 -0.069589 0
18.625000 -0.068624 0
18.630000 -0.067562 0
18.635000 -0.066343 0
18.640000 -0.064880 0
18.645000 -0.063049 0
18.650000 -0.060681 0
18.655000 -0.057553 0
18.660000 -0.053385 0
18.665000 -0.047840 0
18.670000 -0.040531 0
18.675000 -0.031048 0
18.680000 -0.018988 0
18.685000 -0.004007 0
18.690000 0.014124 0
18.695000 0.035453 0
18.700000 0.059784 0
18.705000 0.086630 0
18.710000 0.115188 0
18.715000 0.144354 0
18.720000 0.172773 0
18.725000 0.198936 0
18.730000 0.221303 0
18.735000 0.238456 0
18.740000 0.249243 0
18.745000 0.252909 1
18.750000 0.249181 0
18.755000 0.238299 0
18.760000 0.220995 0
18.765000 0.198407 0
18.770000 0.171959 0
18.775000 0.143204 0
18.780000 0.113673 0
18.785000 0.084701 0
18.790000 0.057221 0
18.795000 0.031447 0
18.800000 0.006399 0
18.805000 -0.020542 0
18.810000 -0.053392 0
18.815000 -0.095693 0
18.820000 -0.146757 0
18.825000 -0.197715 0
18.830000 -0.230418 2
18.835000 -0.220737 0
18.840000 -0.144414 0
18.845000 0.016678 0
18.850000 0.265959 0
18.855000 0.578948 0
18.860000 0.893111 0
18.865000 1.118315 0
18.870000 1.175009 3
18.875000 1.037666 0
18.880000 0.751927 0
18.885000 0.406901 0
18.890000 0.088508 0
18.895000 -0.149492 0
18.900000 -0.287791 0
18.905000 -0.331855 4
18.910000 -0.303611 0
18.915000 -0.234321 0
18.920000 -0.154881 0
18.925000 -0.086277 0
18.930000 -0.036010 0
18.935000 -0.001562 0
18.940000 0.023382 0
18.945000 0.044444 0
18.950000 0.065048 0
18.955000 0.086763 0
18.960000 0.110105 0
18.965000 0.135101 0
18.970000 0.161559 0
18.975000 0.189172 0
18.980000 0.217544 0
18.985000 0.246209 0
18.990000 0.274636 0
18.995000 0.302250 0
19.000000 0.328444 0
19.005000 0.352605 0
19.010000 0.374133 0
19.015000 0.392469 0
19.020000 0.407115 0
19.025000 0.417658 0
19.030000 0.423788 0
19.035000 0.425313 5
19.040000 0.422167 0
19.045000 0.414417 0
19.050000 0.402253 0
19.055000 0.385989 0
19.060000 0.366041 0
19.065000 0.342915 0
19.070000 0.317181 0
19.075000 0.289450 0
19.080000 0.260353 0
19.085000 0.230511 0
19.090000 0.200522 0
19.095000 0.170932 0
19.100000 0.142229 0
19.105000 0.114825 0
19.110000 0.089056 0
19.115000 0.065173 0
19.120000 0.043347 0
19.125000 0.023673 0
19.130000 0.006180 0
19.135000 -0.009167 0
19.140000 -0.022448 0
19.145000 -0.033784 0
19.150000 -0.043322 0
19.155000 -0.051227 0
19.160000 -0.057673 0
19.165000 -0.062838 0
19.170000 -0.066891 0
19.175000 -0.069996 0
19.180000 -0.072301 0
19.185000 -0.073941 0
19.190000 -0.075036 0
19.195000 -0.075690 0
19.200000 -0.075992 0
19.205000 -0.075888 0
19.210000 -0.075040 0
19.215000 -0.074196 0
19.220000 -0.073356 0
19.225000 -0.072520 0
19.230000 -0.071689 0
19.235000 -0.070862 0
19.240000 -0.070038 0
19.245000 -0.069219 0
19.250000 -0.068404 0
19.255000 -0.067592 0
19.260000 -0.066783 0
19.265000 -0.065976 0
19.270000 -0.065169 0
19.275000 -0.064358 0
19.280000 -0.063538 0
19.285000 -0.062697 0
19.290000 -0.061818 0
19.295000 -0.060874 0
19.300000 -0.059819 0
19.305000 -0.058589 0
19.310000 -0.057086 0
19.315000 -0.055173 0
19.320000 -0.052667 0
19.325000 -0.049326 0
19.330000 -0.044849 0
19.335000 -0.038878 0
19.340000 -0.031011 0
19.345000 -0.020830 0
19.350000 -0.007937 0
19.355000 0.007988 0
19.360000 0.027128 0
19.365000 0.049456 0
19.370000 0.074680 0
19.375000 0.102198 0
19.380000 0.131084 0
19.385000 0.160119 0
19.390000 0.187856 0
19.395000 0.212733 0
19.400000 0.233217 0
19.405000 0.247954 0
19.410000 0.255919 0
19.415000 0.256534 1
19.420000 0.249735 0
19.425000 0.235981 0
19.430000 0.216203 0
19.435000 0.191702 0
19.440000 0.163999 0
19.445000 0.134683 0
19.450000 0.105239 0
19.455000 0.076865 0
19.460000 0.050212 0
19.465000 0.024980 0
19.470000 -0.000606 0
19.475000 -0.030021 0
19.480000 -0.067468 0
19.485000 -0.114889 0
19.490000 -0.167644 0
19.495000 -0.211598 0
19.500000 -0.224411 2
19.505000 -0.180736 0
19.510000 -0.058539 0
19.515000 0.153604 0
19.520000 0.444852 0
19.525000 0.768428 0
19.530000 1.041266 0
19.535000 1.172340 3
19.540000 1.112766 0
19.545000 0.881151 0
19.550000 0.550859 0
19.555000 0.210948 0
19.560000 -0.070758 0
19.565000 -0.260451 0
19.570000 -0.352516 0
19.575000 -0.360458 4
19.580000 -0.310351 0
19.585000 -0.233371 0
19.590000 -0.156211 0
19.595000 -0.093984 0
19.600000 -0.049684 0
19.605000 -0.018942 0
19.610000 0.004431 0
19.615000 0.025230 0
19.620000 0.046153 0
19.625000 0.068365 0
19.630000 0.092204 0
19.635000 0.117634 0
19.640000 0.144442 0
19.645000 0.172317 0
19.650000 0.200866 0
19.655000 0.229633 0
19.660000 0.258102 0
19.665000 0.285717 0
19.670000 0.311895 0
19.675000 0.336047 0
19.680000 0.357599 0
19.685000 0.376014 0
19.690000 0.390817 0
19.695000 0.401609 0
19.700000 0.408089 0
19.705000 0.410065 5
19.710000 0.407466 0
19.715000 0.400341 0
19.720000 0.388862 0
19.725000 0.373313 0
19.730000 0.354080 0
19.735000 0.331633 0
19.740000 0.306511 0
19.745000 0.279292 0
19.750000 0.250581 0
19.755000 0.220978 0
19.760000 0.191065 0
19.765000 0.161384 0
19.770000 0.132422 0
19.775000 0.104600 0
19.780000 0.078269 0
19.785000 0.053699 0
19.790000 0.031086 0
19.795000 0.010553 0
19.800000 -0.007849 0
19.805000 -0.024124 0
19.810000 -0.038329 0
19.815000 -0.050562 0
19.820000 -0.060952 0
19.825000 -0.069651 0
19.830000 -0.076821 0
19.835000 -0.082632 0
19.840000 -0.087251 0
19.845000 -0.090840 0
19.850000 -0.093551 0
19.855000 -0.095524 0
19.860000 -0.096882 0
19.865000 -0.097736 0
19.870000 -0.098183 0
19.875000 -0.098303 0
19.880000 -0.097499 0
19.885000 -0.096543 0
19.890000 -0.095592 0
19.895000 -0.094645 0
19.900000 -0.093703 0
19.905000 -0.092766 0
19.910000 -0.091834 0
19.915000 -0.090906 0
19.920000 -0.089983 0
19.925000 -0.089064 0
19.930000 -0.088149 0
19.935000 -0.087237 0
19.940000 -0.086328 0
19.945000 -0.085420 0
19.950000 -0.084509 0
19.955000 -0.083590 0
19.960000 -0.082653 0
19.965000 -0.081682 0
19.970000 -0.080652 0
19.975000 -0.079524 0
19.980000 -0.078238 0
19.985000 -0.076709 0
19.990000 -0.074814 0
19.995000 -0.072389 0
20.000000 -0.069217 0
20.005000 -0.065024 0
20.010000 -0.059484 0
20.015000 -0.052222 0
20.020000 -0.042839 0
20.025000 -0.030940 0
20.030000 -0.016182 0
20.035000 0.001670 0
20.040000 0.022684 0
20.045000 0.046700 0
20.050000 0.073280 0
20.055000 0.101686 0
20.060000 0.130883 0
20.065000 0.159587 0
20.070000 0.186344 0
20.075000 0.209647 0
20.080000 0.228079 0
20.085000 0.240447 0
20.090000 0.245918 1
20.095000 0.244107 0
20.100000 0.235121 0
20.105000 0.219551 0
20.110000 0.198408 0
20.115000 0.173013 0
20.120000 0.144859 0
20.125000 0.115462 0
20.130000 0.086208 0
20.135000 0.058169 0
20.140000 0.031850 0
20.145000 0.006786 0
20.150000 -0.018935 0
20.155000 -0.048807 0
20.160000 -0.086830 0
20.165000 -0.134597 0
20.170000 -0.187277 0
20.175000 -0.231049 0
20.180000 -0.244413 2
20.185000 -0.203013 0
20.190000 -0.085466 0
20.195000 0.120032 0
20.200000 0.405236 0
20.205000 0.728917 0
20.210000 1.014438 0
20.215000 1.172688 3
20.220000 1.143692 0
20.225000 0.933545 0
20.230000 0.611162 0
20.235000 0.268155 0
20.240000 -0.022137 0
20.245000 -0.221351 0
20.250000 -0.321372 0
20.255000 -0.334668 4
20.260000 -0.287251 0
20.265000 -0.211004 0
20.270000 -0.133678 0
20.275000 -0.071202 0
20.280000 -0.026883 0
20.285000 0.003704 0
20.290000 0.026894 0
20.295000 0.047561 0
20.300000 0.068417 0
20.305000 0.090609 0
20.310000 0.114456 0
20.315000 0.139903 0
20.320000 0.166725 0
20.325000 0.194592 0
20.330000 0.223097 0
20.335000 0.251763 0
20.340000 0.280055 0
20.345000 0.307397 0
20.350000 0.333191 0
20.355000 0.356832 0
20.360000 0.377738 0
20.365000 0.395369 0
20.370000 0.409251 0
20.375000 0.418996 0
20.380000 0.424319 0
20.385000 0.425055 5
20.390000 0.421159 0
20.395000 0.412716 0
20.400000 0.399936 0
20.405000 0.383142 0
20.410000 0.362756 0
20.415000 0.339287 0
20.420000 0.313300 0
20.425000 0.285401 0
20.430000 0.256211 0
20.435000 0.226340 0
20.440000 0.196371 0
20.445000 0.166840 0
20.450000 0.138219 0
20.455000 0.110912 0
20.460000 0.085241 0
20.465000 0.061451 0
20.470000 0.039708 0
20.475000 0.020102 0
20.480000 0.002659 0
20.485000 -0.012655 0
20.490000 -0.025919 0
20.495000 -0.037253 0
20.500000 -0.046801 0
20.505000 -0.054725 0
20.510000 -0.061198 0
20.515000 -0.066393 0
20.520000 -0.070478 0
20.525000 -0.073613 0
20.530000 -0.075947 0
20.535000 -0.077613 0
20.540000 -0.078730 0
20.545000 -0.079400 0
20.550000 -0.079714 0
20.555000 -0.079614 0
20.560000 -0.078747 0
20.565000 -0.077884 0
20.570000 -0.077026 0
20.575000 -0.076172 0
20.580000 -0.075323 0
20.585000 -0.074477 0
20.590000 -0.073636 0
20.595000 -0.072799 0
20.600000 -0.071965 0
20.605000 -0.071136 0
20.610000 -0.070310 0
20.615000 -0.069485 0
20.620000 -0.068662 0
20.625000 -0.067836 0
20.630000 -0.067002 0
20.635000 -0.066151 0
20.640000 -0.065268 0
20.645000 -0.064327 0
20.650000 -0.063290 0
20.655000 -0.062099 0
20.660000 -0.060667 0
20.665000 -0.058872 0
20.670000 -0.056546 0
20.675000 -0.053469 0
20.680000 -0.049362 0
20.685000 -0.043890 0
20.690000 -0.036669 0
20.695000 -0.027289 0
20.700000 -0.015346 0
20.705000 -0.000492 0
20.710000 0.017505 0
20.715000 0.038702 0
20.720000 0.062912 0
20.725000 0.089658 0
20.730000 0.118151 0
20.735000 0.147298 0
20.740000 0.175751 0
20.745000 0.202006 0
20.750000 0.224522 0
20.755000 0.241876 0
20.760000 0.252903 0
20.765000 0.256832 1
20.770000 0.253368 0
20.775000 0.242735 0
20.780000 0.225645 0
20.785000 0.203222 0
20.790000 0.176879 0
20.795000 0.148168 0
20.800000 0.118621 0
20.805000 0.089586 0
20.810000 0.062016 0
20.815000 0.036162 0
20.820000 0.011106 0
20.825000 -0.015700 0
20.830000 -0.048234 0
20.835000 -0.090121 0
20.840000 -0.140942 0
20.845000 -0.192235 0
20.850000 -0.226220 2
20.855000 -0.218928 0
20.860000 -0.145991 0
20.865000 0.011124 0
20.870000 0.256735 0
20.875000 0.567907 0
20.880000 0.883833 0
20.885000 1.115024 0
20.890000 1.180441 3
20.895000 1.054366 0
20.900000 0.778105 0
20.905000 0.434892 0
20.910000 0.108811 0
20.915000 -0.144226 0
20.920000 -0.301179 0
20.925000 -0.363616 4
20.930000 -0.349642 0
20.935000 -0.287668 0
20.940000 -0.208215 0
20.945000 -0.134644 0
20.950000 -0.077977 0
20.955000 -0.038349 0
20.960000 -0.010387 0
20.965000 0.011841 0
20.970000 0.032474 0
20.975000 0.053678 0
20.980000 0.076316 0
20.985000 0.100588 0
20.990000 0.126398 0
20.995000 0.153507 0
21.000000 0.181584 0
21.005000 0.210223 0
21.010000 0.238955 0
21.015000 0.267259 0
21.020000 0.294575 0
21.025000 0.320323 0
21.030000 0.343921 0
21.035000 0.364808 0
21.040000 0.382463 0
21.045000 0.396429 0
21.050000 0.406331 0
21.055000 0.411893 0
21.060000 0.412948 5
21.065000 0.409450 0
21.070000 0.401472 0
21.075000 0.389204 0
21.080000 0.372948 0
21.085000 0.353104 0
21.090000 0.330150 0
21.095000 0.304627 0
21.100000 0.277116 0
21.105000 0.248215 0
21.110000 0.218519 0
21.115000 0.188597 0
21.120000 0.158981 0
21.125000 0.130143 0
21.130000 0.102493 0
21.135000 0.076366 0
21.140000 0.052021 0
21.145000 0.029643 0
21.150000 0.009345 0
21.155000 -0.008829 0
21.160000 -0.024889 0
21.165000 -0.038897 0
21.170000 -0.050954 0
21.175000 -0.061189 0
21.180000 -0.069754 0
21.185000 -0.076811 0
21.190000 -0.082529 0
21.195000 -0.087072 0
21.200000 -0.090601 0
21.205000 -0.093265 0
21.210000 -0.095201 0
21.215000 -0.096532 0
21.220000 -0.097368 0
21.225000 -0.097801 0
21.230000 -0.097911 0
21.235000 -0.097108 0
21.240000 -0.096154 0
21.245000 -0.095205 0
21.250000 -0.094260 0
21.255000 -0.093320 0
21.260000 -0.092385 0
21.265000 -0.091455 0
21.270000 -0.090529 0
21.275000 -0.089607 0
21.280000 -0.088690 0
21.285000 -0.087777 0
21.290000 -0.086867 0
21.295000 -0.085960 0
21.300000 -0.085054 0
21.305000 -0.084145 0
21.310000 -0.083228 0
21.315000 -0.082294 0
21.320000 -0.081328 0
21.325000 -0.080304 0
21.330000 -0.079184 0
21.335000 -0.077913 0
21.340000 -0.076405 0
21.345000 -0.074543 0
21.350000 -0.072167 0
21.355000 -0.069066 0
21.360000 -0.064975 0
21.365000 -0.059573 0
21.370000 -0.052493 0
21.375000 -0.043341 0
21.380000 -0.031723 0
21.385000 -0.017293 0
21.390000 0.000198 0
21.395000 0.020839 0
21.400000 0.044500 0
21.405000 0.070783 0
21.410000 0.098995 0
21.415000 0.128150 0
21.420000 0.157003 0
21.425000 0.184131 0
21.430000 0.208043 0
21.435000 0.227311 0
21.440000 0.240710 0
21.445000 0.247351 1
21.450000 0.246774 0
21.455000 0.239002 0
21.460000 0.224541 0
21.465000 0.204323 0
21.470000 0.179611 0
21.475000 0.151864 0
21.480000 0.122590 0
21.485000 0.093200 0
21.490000 0.064838 0
21.495000 0.038149 0
21.500000 0.012916 0
21.505000 -0.012410 0
21.510000 -0.040977 0
21.515000 -0.076823 0
21.520000 -0.122426 0
21.525000 -0.174839 0
21.530000 -0.222562 0
21.535000 -0.245813 2
21.540000 -0.220625 0
21.545000 -0.124514 0
21.550000 0.057478 0
21.555000 0.323725 0
21.560000 0.643184 0
21.565000 0.948473 0
21.570000 1.150879 0
21.575000 1.179445 3
21.580000 1.019323 0
21.585000 0.721391 0
21.590000 0.375438 0
21.595000 0.063477 0
21.600000 -0.165333 0
21.605000 -0.294798 0
21.610000 -0.332027 4
21.615000 -0.299652 0
21.620000 -0.228804 0
21.625000 -0.149538 0
21.630000 -0.081781 0
21.635000 -0.032291 0
21.640000 0.001703 0
21.645000 0.026462 0
21.650000 0.047476 0
21.655000 0.068071 0
21.660000 0.089776 0
21.665000 0.113096 0
21.670000 0.138057 0
21.675000 0.164473 0
21.680000 0.192041 0
21.685000 0.220376 0
21.690000 0.249019 0
21.695000 0.277451 0
21.700000 0.305106 0
21.705000 0.331389 0
21.710000 0.355696 0
21.715000 0.377435 0
21.720000 0.396050 0
21.725000 0.411045 0
21.730000 0.422005 0
21.735000 0.428613 0
21.740000 0.430668 5
21.745000 0.428089 0
21.750000 0.420924 0
21.755000 0.409347 0
21.760000 0.393649 0
21.765000 0.374227 0
21.770000 0.351566 0
21.775000 0.326218 0
21.780000 0.298781 0
21.785000 0.269873 0
21.790000 0.240110 0
21.795000 0.210087 0
21.800000 0.180353 0
21.805000 0.151402 0
21.810000 0.123657 0
21.815000 0.097466 0
21.820000 0.073095 0
21.825000 0.050731 0
21.830000 0.030488 0
21.835000 0.012407 0
21.840000 -0.003528 0
21.845000 -0.017387 0
21.850000 -0.029277 0
21.855000 -0.039338 0
21.860000 -0.047727 0
21.865000 -0.054616 0
21.870000 -0.060176 0
21.875000 -0.064580 0
21.880000 -0.067990 0
21.885000 -0.070558 0
21.890000 -0.072422 0
21.895000 -0.073705 0
21.900000 -0.074514 0
21.905000 -0.074942 0
21.910000 -0.074927 0
21.915000 -0.074084 0
21.920000 -0.073245 0
21.925000 -0.072410 0
21.930000 -0.071579 0
21.935000 -0.070752 0
21.940000 -0.069929 0
21.945000 -0.069111 0
21.950000 -0.068296 0
21.955000 -0.067485 0
21.960000 -0.066678 0
21.965000 -0.065875 0
21.970000 -0.065073 0
21.975000 -0.064273 0
21.980000 -0.063471 0
21.985000 -0.062663 0
21.990000 -0.061841 0
21.995000 -0.060991 0
22.000000 -0.060091 0
22.005000 -0.059108 0
22.010000 -0.057988 0
22.015000 -0.056653 0
22.020000 -0.054992 0
22.025000 -0.052850 0
22.030000 -0.050021 0
22.035000 -0.046243 0
22.040000 -0.041193 0
22.045000 -0.034500 0
22.050000 -0.025758 0
22.055000 -0.014555 0
22.060000 -0.000526 0
22.065000 0.016602 0
22.070000 0.036937 0
22.075000 0.060362 0
22.080000 0.086482 0
22.085000 0.114588 0
22.090000 0.143664 0
22.095000 0.172421 0
22.100000 0.199383 0
22.105000 0.223006 0
22.110000 0.241817 0
22.115000 0.254572 0
22.120000 0.260384 1
22.125000 0.258828 0
22.130000 0.249993 0
22.135000 0.234468 0
22.140000 0.213284 0
22.145000 0.187791 0
22.150000 0.159523 0
22.155000 0.130034 0
22.160000 0.100737 0
22.165000 0.072711 0
22.170000 0.046429 0
22.175000 0.021322 0
22.180000 -0.004717 0
22.185000 -0.035392 0
22.190000 -0.074709 0
22.195000 -0.123699 0
22.200000 -0.176228 0
22.205000 -0.216753 0
22.210000 -0.222364 2
22.215000 -0.168192 0
22.220000 -0.033571 0
22.225000 0.190484 0
22.230000 0.489272 0
22.235000 0.811729 0
22.240000 1.073025 0
22.245000 1.185394 3
22.250000 1.105135 0
22.255000 0.858411 0
22.260000 0.522745 0
22.265000 0.186584 0
22.270000 -0.085711 0
22.275000 -0.263941 0
22.280000 -0.345120 4
22.285000 -0.344605 0
22.290000 -0.289625 0
22.295000 -0.211432 0
22.300000 -0.135648 0
22.305000 -0.075799 0
22.310000 -0.033632 0
22.315000 -0.004248 0
22.320000 0.018502 0
22.325000 0.039147 0
22.330000 0.060146 0
22.335000 0.082518 0
22.340000 0.106531 0
22.345000 0.132116 0
22.350000 0.159044 0
22.355000 0.186989 0
22.360000 0.215547 0
22.365000 0.244252 0
22.370000 0.272578 0
22.375000 0.299962 0
22.380000 0.325818 0
22.385000 0.349554 0
22.390000 0.370600 0
22.395000 0.388426 0
22.400000 0.402563 0
22.405000 0.412627 0
22.410000 0.418334 0
22.415000 0.419509 5
22.420000 0.416101 0
22.425000 0.408180 0
22.430000 0.395938 0
22.435000 0.379679 0
22.440000 0.359805 0
22.445000 0.336802 0
22.450000 0.311218 0
22.455000 0.283641 0
22.460000 0.254678 0
22.465000 0.224929 0
22.470000 0.194972 0
22.475000 0.165342 0
22.480000 0.136517 0
22.485000 0.108906 0
22.490000 0.082845 0
22.495000 0.058592 0
22.500000 0.036329 0
22.505000 0.016164 0
22.510000 -0.001861 0
22.515000 -0.017764 0
22.520000 -0.031610 0
22.525000 -0.043504 0
22.530000 -0.053582 0
22.535000 -0.061998 0
22.540000 -0.068917 0
22.545000 -0.074510 0
22.550000 -0.078944 0
22.555000 -0.082379 0
22.560000 -0.084965 0
22.565000 -0.086839 0
22.570000 -0.088124 0
22.575000 -0.088926 0
22.580000 -0.089338 0
22.585000 -0.089438 0
22.590000 -0.088670 0
22.595000 -0.087758 0
22.600000 -0.086850 0
22.605000 -0.085947 0
22.610000 -0.085049 0
22.615000 -0.084155 0
22.620000 -0.083265 0
22.625000 -0.082380 0
22.630000 -0.081499 0
22.635000 -0.080623 0
22.640000 -0.079750 0
22.645000 -0.078880 0
22.650000 -0.078012 0
22.655000 -0.077143 0
22.660000 -0.076271 0
22.665000 -0.075389 0
22.670000 -0.074484 0
22.675000 -0.073541 0
22.680000 -0.072530 0
22.685000 -0.071406 0
22.690000 -0.070106 0
22.695000 -0.068533 0
22.700000 -0.066555 0
22.705000 -0.063993 0
22.710000 -0.060615 0
22.715000 -0.056133 0
22.720000 -0.050203 0
22.725000 -0.042441 0
22.730000 -0.032443 0
22.735000 -0.019824 0
22.740000 -0.004262 0
22.745000 0.014439 0
22.750000 0.036288 0
22.755000 0.061050 0
22.760000 0.088202 0
22.765000 0.116917 0
22.770000 0.146080 0
22.775000 0.174340 0
22.780000 0.200212 0
22.785000 0.222194 0
22.790000 0.238915 0
22.795000 0.249275 0
22.800000 0.252561 1
22.805000 0.248531 0
22.810000 0.237444 0
22.815000 0.220029 0
22.820000 0.197406 0
22.825000 0.170970 0
22.830000 0.142241 0
22.835000 0.112719 0
22.840000 0.083717 0
22.845000 0.056168 0
22.850000 0.030322 0
22.855000 0.005304 0
22.860000 -0.021333 0
22.865000 -0.053455 0
22.870000 -0.094707 0
22.875000 -0.145040 0
22.880000 -0.196808 0
22.885000 -0.233274 2
22.890000 -0.231295 0
22.895000 -0.166771 0
22.900000 -0.020574 0
22.905000 0.213862 0
22.910000 0.518481 0
22.915000 0.839179 0
22.920000 1.090851 0
22.925000 1.189425 3
22.930000 1.095208 0
22.935000 0.836932 0
22.940000 0.497312 0
22.945000 0.166147 0
22.950000 -0.094403 0
22.955000 -0.257584 0
22.960000 -0.323674 4
22.965000 -0.311002 0
22.970000 -0.249091 0
22.975000 -0.169762 0
22.980000 -0.097079 0
22.985000 -0.041913 0
22.990000 -0.003812 0
22.995000 0.023050 0
23.000000 0.044713 0
23.005000 0.065191 0
23.010000 0.086479 0
23.015000 0.109311 0
23.020000 0.133813 0
23.025000 0.159842 0
23.030000 0.187122 0
23.035000 0.215283 0
23.040000 0.243881 0
23.045000 0.272408 0
23.050000 0.300304 0
23.055000 0.326972 0
23.060000 0.351803 0
23.065000 0.374195 0
23.070000 0.393576 0
23.075000 0.409430 0
23.080000 0.421318 0
23.085000 0.428895 0
23.090000 0.431932 5
23.095000 0.430320 0
23.100000 0.424082 0
23.105000 0.413366 0
23.110000 0.398443 0
23.115000 0.379694 0
23.120000 0.357592 0
23.125000 0.332684 0
23.130000 0.305566 0
23.135000 0.276860 0
23.140000 0.247190 0
23.145000 0.217160 0
23.150000 0.187334 0
23.155000 0.158219 0
23.160000 0.130256 0
23.165000 0.103805 0
23.170000 0.079148 0
23.175000 0.056487 0
23.180000 0.035943 0
23.185000 0.017569 0
23.190000 0.001356 0
23.195000 -0.012761 0
23.200000 -0.024887 0
23.205000 -0.035157 0
23.210000 -0.043732 0
23.215000 -0.050780 0
23.220000 -0.056478 0
23.225000 -0.060997 0
23.230000 -0.064504 0
23.235000 -0.067153 0
23.240000 -0.069084 0
23.245000 -0.070422 0
23.250000 -0.071276 0
23.255000 -0.071743 0
23.260000 -0.071758 0
23.265000 -0.070930 0
23.270000 -0.070107 0
23.275000 -0.069287 0
23.280000 -0.068472 0
23.285000 -0.067661 0
23.290000 -0.066853 0
23.295000 -0.066050 0
23.300000 -0.065251 0
23.305000 -0.064455 0
23.310000 -0.063663 0
23.315000 -0.062875 0
23.320000 -0.062088 0
23.325000 -0.061303 0
23.330000 -0.060516 0
23.335000 -0.059722 0
23.340000 -0.058914 0
23.345000 -0.058078 0
23.350000 -0.057192 0
23.355000 -0.056220 0
23.360000 -0.055109 0
23.365000 -0.053779 0
23.370000 -0.052116 0
23.375000 -0.049962 0
23.380000 -0.047108 0
23.385000 -0.043283 0
23.390000 -0.038163 0
23.395000 -0.031367 0
23.400000 -0.022485 0
23.405000 -0.011105 0
23.410000 0.003140 0
23.415000 0.020513 0
23.420000 0.041108 0
23.425000 0.064784 0
23.430000 0.091115 0
23.435000 0.119357 0
23.440000 0.148454 0
23.445000 0.177082 0
23.450000 0.203738 0
23.455000 0.226863 0
23.460000 0.244993 0
23.465000 0.256907 0
23.470000 0.261764 1
23.475000 0.259203 0
23.480000 0.249381 0
23.485000 0.232963 0
23.490000 0.211040 0
23.495000 0.185014 0
23.500000 0.156444 0
23.505000 0.126889 0
23.510000 0.097732 0
23.515000 0.069985 0
23.520000 0.043978 0
23.525000 0.018898 0
23.530000 -0.007694 0
23.535000 -0.039748 0
23.540000 -0.081041 0
23.545000 -0.131523 0
23.550000 -0.183178 0
23.555000 -0.218498 2
23.560000 -0.213452 0
23.565000 -0.143331 0
23.570000 0.010914 0
23.575000 0.254264 0
23.580000 0.564468 0
23.585000 0.880967 0
23.590000 1.113678 0
23.595000 1.180428 3
23.600000 1.053088 0
23.605000 0.774338 0
23.610000 0.430405 0
23.615000 0.107218 0
23.620000 -0.139465 0
23.625000 -0.287954 0
23.630000 -0.341595 4
23.635000 -0.320446 0
23.640000 -0.254555 0
23.645000 -0.174907 0
23.650000 -0.103849 0
23.655000 -0.050623 0
23.660000 -0.013901 0
23.665000 0.012293 0
23.670000 0.033783 0
23.675000 0.054338 0
23.680000 0.075790 0
23.685000 0.098801 0
23.690000 0.123467 0
23.695000 0.149636 0
23.700000 0.177028 0
23.705000 0.205276 0
23.710000 0.233937 0
23.715000 0.262507 0
23.720000 0.290431 0
23.725000 0.317120 0
23.730000 0.341973 0
23.735000 0.364394 0
23.740000 0.383820 0
23.745000 0.399740 0
23.750000 0.411721 0
23.755000 0.419422 0
23.760000 0.422614 5
23.765000 0.421188 0
23.770000 0.415160 0
23.775000 0.404675 0
23.780000 0.389994 0
23.785000 0.371489 0
23.790000 0.349624 0
23.795000 0.324934 0
23.800000 0.298005 0
23.805000 0.269450 0
23.810000 0.239888 0
23.815000 0.209917 0
23.820000 0.180098 0
23.825000 0.150938 0
23.830000 0.122880 0
23.835000 0.096288 0
23.840000 0.071451 0
23.845000 0.048576 0
23.850000 0.027794 0
23.855000 0.009166 0
23.860000 -0.007311 0
23.865000 -0.021691 0
23.870000 -0.034073 0
23.875000 -0.044588 0
23.880000 -0.053389 0
23.885000 -0.060643 0
23.890000 -0.066523 0
23.895000 -0.071201 0
23.900000 -0.074841 0
23.905000 -0.077599 0
23.910000 -0.079615 0
23.915000 -0.081017 0
23.920000 -0.081917 0
23.925000 -0.082411 0
23.930000 -0.082582 0
23.935000 -0.081852 0
23.940000 -0.080974 0
23.945000 -0.080101 0
23.950000 -0.079231 0
23.955000 -0.078366 0
23.960000 -0.077506 0
23.965000 -0.076649 0
23.970000 -0.075797 0
23.975000 -0.074949 0
23.980000 -0.074105 0
23.985000 -0.073265 0
23.990000 -0.072427 0
23.995000 -0.071591 0
24.000000 -0.070755 0
24.005000 -0.069914 0
24.010000 -0.069063 0
24.015000 -0.068189 0
24.020000 -0.067275 0
24.025000 -0.066289 0
24.030000 -0.065188 0
24.035000 -0.063902 0
24.040000 -0.062331 0
24.045000 -0.060338 0
24.050000 -0.057735 0
24.055000 -0.054280 0
24.060000 -0.049672 0
24.065000 -0.043556 0
24.070000 -0.035536 0
24.075000 -0.025200 0
24.080000 -0.012162 0
24.085000 0.003888 0
24.090000 0.023125 0
24.095000 0.045516 0
24.100000 0.070772 0
24.105000 0.098299 0
24.110000 0.127192 0
24.115000 0.156257 0
24.120000 0.184078 0
24.125000 0.209125 0
24.130000 0.229887 0
24.135000 0.245024 0
24.140000 0.253507 0
24.145000 0.254734 1
24.150000 0.248600 0
24.155000 0.235513 0
24.160000 0.216344 0
24.165000 0.192335 0
24.170000 0.164964 0
24.175000 0.135791 0
24.180000 0.106297 0
24.185000 0.077713 0
24.190000 0.050783 0
24.195000 0.025403 0
24.200000 0.000120 0
24.205000 -0.028196 0
24.210000 -0.063697 0
24.215000 -0.109079 0
24.220000 -0.161505 0
24.225000 -0.209229 0
24.230000 -0.231828 2
24.235000 -0.204562 0
24.240000 -0.104397 0
24.245000 0.083470 0
24.250000 0.355712 0
24.255000 0.677220 0
24.260000 0.975181 0
24.265000 1.157944 3
24.270000 1.157662 0
24.275000 0.969616 0
24.280000 0.656796 0
24.285000 0.311750 0
24.290000 0.012650 0
24.295000 -0.197412 0
24.300000 -0.307330 0
24.305000 -0.327966 4
24.310000 -0.284679 0
24.315000 -0.209664 0
24.320000 -0.131756 0
24.325000 -0.068113 0
24.330000 -0.022833 0
24.335000 0.008279 0
24.340000 0.031651 0
24.345000 0.052324 0
24.350000 0.073126 0
24.355000 0.095257 0
24.360000 0.119053 0
24.365000 0.144464 0
24.370000 0.171262 0
24.375000 0.199113 0
24.380000 0.227603 0
24.385000 0.256246 0
24.390000 0.284501 0
24.395000 0.311781 0
24.400000 0.337478 0
24.405000 0.360981 0
24.410000 0.381699 0
24.415000 0.399089 0
24.420000 0.412673 0
24.425000 0.422066 0
24.430000 0.426988 0
24.435000 0.427278 5
24.440000 0.422908 0
24.445000 0.413974 0
24.450000 0.400701 0
24.455000 0.383430 0
24.460000 0.362602 0
24.465000 0.338739 0
24.470000 0.312424 0
24.475000 0.284275 0
24.480000 0.254920 0
24.485000 0.224976 0
24.490000 0.195027 0
24.495000 0.165607 0
24.500000 0.137184 0
24.505000 0.110150 0
24.510000 0.084820 0
24.515000 0.061423 0
24.520000 0.040113 0
24.525000 0.020966 0
24.530000 0.003994 0
24.535000 -0.010849 0
24.540000 -0.023654 0
24.545000 -0.034549 0
24.550000 -0.043685 0
24.555000 -0.051232 0
24.560000 -0.057365 0
24.565000 -0.062257 0
24.570000 -0.066079 0
24.575000 -0.068989 0
24.580000 -0.071134 0
24.585000 -0.072644 0
24.590000 -0.073636 0
24.595000 -0.074208 0
24.600000 -0.074446 0
24.605000 -0.073761 0
24.610000 -0.072923 0
24.615000 -0.072090 0
24.620000 -0.071261 0
24.625000 -0.070435 0
24.630000 -0.069614 0
24.635000 -0.068797 0
24.640000 -0.067984 0
24.645000 -0.067175 0
24.650000 -0.066370 0
24.655000 -0.065568 0
24.660000 -0.064769 0
24.665000 -0.063971 0
24.670000 -0.063173 0
24.675000 -0.062370 0
24.680000 -0.061555 0
24.685000 -0.060717 0
24.690000 -0.059836 0
24.695000 -0.058881 0
24.700000 -0.057804 0
24.705000 -0.056534 0
24.710000 -0.054965 0
24.715000 -0.052954 0
24.720000 -0.050303 0
24.725000 -0.046759 0
24.730000 -0.042010 0
24.735000 -0.035689 0
24.740000 -0.027386 0
24.745000 -0.016686 0
24.750000 -0.003203 0
24.755000 0.013360 0
24.760000 0.033149 0
24.765000 0.056087 0
24.770000 0.081823 0
24.775000 0.109691 0
24.780000 0.138704 0
24.785000 0.167592 0
24.790000 0.194880 0
24.795000 0.219001 0
24.800000 0.238448 0
24.805000 0.251923 0
24.810000 0.258483 1
24.815000 0.257644 0
24.820000 0.249447 0
24.825000 0.234446 0
24.830000 0.213651 0
24.835000 0.188412 0
24.840000 0.160275 0
24.845000 0.130819 0
24.850000 0.101488 0
24.855000 0.073399 0
24.860000 0.047060 0
24.865000 0.021940 0
24.870000 -0.004050 0
24.875000 -0.034638 0
24.880000 -0.073891 0
24.885000 -0.122882 0
24.890000 -0.175389 0
24.895000 -0.215594 0
24.900000 -0.220211 2
24.905000 -0.164065 0
24.910000 -0.026425 0
24.915000 0.201205 0
24.920000 0.502598 0
24.925000 0.824086 0
24.930000 1.078497 0
24.935000 1.178308 3
24.940000 1.083324 0
24.945000 0.824915 0
24.950000 0.485387 0
24.955000 0.154074 0
24.960000 -0.107061 0
24.965000 -0.271191 0
24.970000 -0.338380 4
24.975000 -0.326667 0
24.980000 -0.265296 0
24.985000 -0.185967 0
24.990000 -0.112862 0
24.995000 -0.057113 0
25.000000 -0.018503 0
25.005000 0.008693 0
25.010000 0.030526 0
25.015000 0.051069 0
25.020000 0.072368 0
25.025000 0.095191 0
25.030000 0.119680 0
25.035000 0.145703 0
25.040000 0.172988 0
25.045000 0.201174 0
25.050000 0.229822 0
25.055000 0.258431 0
25.060000 0.286445 0
25.065000 0.313275 0
25.070000 0.338315 0
25.075000 0.360964 0
25.080000 0.380652 0
25.085000 0.396860 0
25.090000 0.409144 0
25.095000 0.417154 0
25.100000 0.420651 5
25.105000 0.419518 0
25.110000 0.413763 0
25.115000 0.403524 0
25.120000 0.389058 0
25.125000 0.370734 0
25.130000 0.349015 0
25.135000 0.324437 0
25.140000 0.297588 0
25.145000 0.269086 0
25.150000 0.239552 0
25.155000 0.209590 0
25.160000 0.179766 0
25.165000 0.150594 0
25.170000 0.122517 0
25.175000 0.095907 0
25.180000 0.071054 0
25.185000 0.048168 0
25.190000 0.027381 0
25.195000 0.008754 0
25.200000 -0.007714 0
25.205000 -0.022079 0
25.210000 -0.034440 0
25.215000 -0.044929 0
25.220000 -0.053702 0
25.225000 -0.060926 0
25.230000 -0.066775 0
25.235000 -0.071422 0
25.240000 -0.075033 0
25.245000 -0.077763 0
25.250000 -0.079754 0
25.255000 -0.081133 0
25.260000 -0.082013 0
25.265000 -0.082490 0
25.270000 -0.082645 0
25.275000 -0.081913 0
25.280000 -0.081035 0
25.285000 -0.080161 0
25.290000 -0.079291 0
25.295000 -0.078426 0
25.300000 -0.077565 0
25.305000 -0.076709 0
25.310000 -0.075856 0
25.315000 -0.075008 0
25.320000 -0.074163 0
25.325000 -0.073322 0
25.330000 -0.072484 0
25.335000 -0.071648 0
25.340000 -0.070811 0
25.345000 -0.069969 0
25.350000 -0.069115 0
25.355000 -0.068237 0
25.360000 -0.067316 0
25.365000 -0.066319 0
25.370000 -0.065199 0
25.375000 -0.063883 0
25.380000 -0.062267 0
25.385000 -0.060206 0
25.390000 -0.057505 0
25.395000 -0.053911 0
25.400000 -0.049115 0
25.405000 -0.042751 0
25.410000 -0.034418 0
25.415000 -0.023701 0
25.420000 -0.010219 0
25.425000 0.006323 0
25.430000 0.026073 0
25.435000 0.048961 0
25.440000 0.074646 0
25.445000 0.102480 0
25.450000 0.131499 0
25.455000 0.160456 0
25.460000 0.187896 0
25.465000 0.212273 0
25.470000 0.232085 0
25.475000 0.246032 0
25.480000 0.253149 1
25.485000 0.252926 0
25.490000 0.245358 0
25.495000 0.230954 0
25.500000 0.210678 0
25.505000 0.185839 0
25.510000 0.157957 0
25.515000 0.128599 0
25.520000 0.099216 0
25.525000 0.070963 0
25.530000 0.044437 0
25.535000 0.019270 0
25.540000 -0.006383 0
25.545000 -0.036027 0
25.550000 -0.073798 0
25.555000 -0.121464 0
25.560000 -0.174193 0
25.565000 -0.217794 0
25.570000 -0.230085 2
25.575000 -0.186018 0
25.580000 -0.063853 0
25.585000 0.147721 0
25.590000 0.438208 0
25.595000 0.761899 0
25.600000 1.037197 0
25.605000 1.173746 3
25.610000 1.119002 0
25.615000 0.889472 0
25.620000 0.559416 0
25.625000 0.219727 0
25.630000 -0.060567 0
25.635000 -0.247503 0
25.640000 -0.335993 0
25.645000 -0.340435 4
25.650000 -0.287913 0
25.655000 -0.210251 0
25.660000 -0.134028 0
25.665000 -0.073584 0
25.670000 -0.031040 0
25.675000 -0.001517 0
25.680000 0.021248 0
25.685000 0.041880 0
25.690000 0.062879 0
25.695000 0.085272 0
25.700000 0.109324 0
25.705000 0.134956 0
25.710000 0.161932 0
25.715000 0.189916 0
25.720000 0.218494 0
25.725000 0.247184 0
25.730000 0.275451 0
25.735000 0.302716 0
25.740000 0.328382 0
25.745000 0.351849 0
25.750000 0.372538 0
25.755000 0.389916 0
25.760000 0.403516 0
25.765000 0.412960 0
25.770000 0.417973 0
25.775000 0.418397 5
25.780000 0.414201 0
25.785000 0.405476 0
25.790000 0.392440 0
25.795000 0.375423 0
25.800000 0.354852 0
25.805000 0.331236 0
25.810000 0.305146 0
25.815000 0.277184 0
25.820000 0.247970 0
25.825000 0.218111 0
25.830000 0.188186 0
25.835000 0.158725 0
25.840000 0.130195 0
25.845000 0.102995 0
25.850000 0.077443 0
25.855000 0.053778 0
25.860000 0.032162 0
25.865000 0.012682 0
25.870000 -0.004640 0
25.875000 -0.019838 0
25.880000 -0.032994 0
25.885000 -0.044228 0
25.890000 -0.053685 0
25.895000 -0.061527 0
25.900000 -0.067925 0
25.905000 -0.073053 0
25.910000 -0.077077 0
25.915000 -0.080158 0
25.920000 -0.082442 0
25.925000 -0.084062 0
25.930000 -0.085137 0
25.935000 -0.085768 0
25.940000 -0.086045 0
25.945000 -0.085910 0
25.950000 -0.085012 0
25.955000 -0.084118 0
25.960000 -0.083229 0
25.965000 -0.082344 0
25.970000 -0.081463 0
25.975000 -0.080587 0
25.980000 -0.079716 0
25.985000 -0.078848 0
25.990000 -0.077985 0
25.995000 -0.077125 0
26.000000 -0.076269 0
26.005000 -0.075415 0
26.010000 -0.074562 0
26.015000 -0.073707 0
26.020000 -0.072844 0
26.025000 -0.071964 0
26.030000 -0.071052 0
26.035000 -0.070084 0
26.040000 -0.069021 0
26.045000 -0.067805 0
26.050000 -0.066351 0
26.055000 -0.064538 0
26.060000 -0.062200 0
26.065000 -0.059118 0
26.070000 -0.055017 0
26.075000 -0.049564 0
26.080000 -0.042378 0
26.085000 -0.033050 0
26.090000 -0.021177 0
26.095000 -0.006411 0
26.100000 0.011489 0
26.105000 0.032583 0
26.110000 0.056699 0
26.115000 0.083373 0
26.120000 0.111833 0
26.125000 0.141002 0
26.130000 0.169549 0
26.135000 0.195977 0
26.140000 0.218752 0
26.145000 0.236443 0
26.150000 0.247874 0
26.155000 0.252250 1
26.160000 0.249250 0
26.165000 0.239064 0
26.170000 0.222375 0
26.175000 0.200280 0
26.180000 0.174173 0
26.185000 0.145597 0
26.190000 0.116085 0
26.195000 0.086998 0
26.200000 0.059323 0
26.205000 0.033378 0
26.210000 0.008352 0
26.215000 -0.018159 0
26.220000 -0.050049 0
26.225000 -0.091074 0
26.230000 -0.141315 0
26.235000 -0.193119 0
26.240000 -0.229502 2
26.245000 -0.226901 0
26.250000 -0.160817 0
26.255000 -0.011966 0
26.260000 0.225755 0
26.265000 0.532668 0
26.270000 0.851853 0
26.275000 1.095675 0
26.280000 1.180355 3
26.285000 1.071631 0
26.290000 0.805128 0
26.295000 0.463781 0
26.300000 0.134719 0
26.305000 -0.122770 0
26.310000 -0.283581 0
26.315000 -0.348494 4
26.320000 -0.335629 0
26.325000 -0.273903 0
26.330000 -0.194513 0
26.335000 -0.121258 0
26.340000 -0.065186 0
26.345000 -0.026201 0
26.350000 0.001282 0
26.355000 0.023263 0
26.360000 0.043837 0
26.365000 0.065096 0
26.370000 0.087844 0
26.375000 0.112245 0
26.380000 0.138182 0
26.385000 0.165397 0
26.390000 0.193540 0
26.395000 0.222186 0
26.400000 0.250848 0
26.405000 0.278985 0
26.410000 0.306019 0
26.415000 0.331355 0
26.420000 0.354400 0
26.425000 0.374587 0
26.430000 0.391396 0
26.435000 0.404377 0
26.440000 0.413169 0
26.445000 0.417519 5
26.450000 0.417286 0
26.455000 0.412457 0
26.460000 0.403142 0
26.465000 0.389571 0
26.470000 0.372085 0
26.475000 0.351119 0
26.480000 0.327188 0
26.485000 0.300860 0
26.490000 0.272738 0
26.495000 0.243435 0
26.500000 0.213551 0
26.505000 0.183657 0
26.510000 0.154271 0
26.515000 0.125854 0
26.520000 0.098791 0
26.525000 0.073392 0
26.530000 0.049888 0
26.535000 0.028433 0
26.540000 0.009109 0
26.545000 -0.008065 0
26.550000 -0.023128 0
26.555000 -0.036164 0
26.560000 -0.047292 0
26.565000 -0.056658 0
26.570000 -0.064423 0
26.575000 -0.070757 0
26.580000 -0.075832 0
26.585000 -0.079813 0
26.590000 -0.082859 0
26.595000 -0.085115 0
26.600000 -0.086712 0
26.605000 -0.087768 0
26.610000 -0.088383 0
26.615000 -0.088645 0
26.620000 -0.088497 0
26.625000 -0.087586 0
26.630000 -0.086679 0
26.635000 -0.085777 0
26.640000 -0.084880 0
26.645000 -0.083987 0
26.650000 -0.083098 0
26.655000 -0.082214 0
26.660000 -0.081334 0
26.665000 -0.080458 0
26.670000 -0.079586 0
26.675000 -0.078718 0
26.680000 -0.077852 0
26.685000 -0.076987 0
26.690000 -0.076120 0
26.695000 -0.075246 0
26.700000 -0.074356 0
26.705000 -0.073435 0
26.710000 -0.072461 0
26.715000 -0.071396 0
26.720000 -0.070185 0
26.725000 -0.068745 0
26.730000 -0.066960 0
26.735000 -0.064671 0
26.740000 -0.061665 0
26.745000 -0.057676 0
26.750000 -0.052379 0
26.755000 -0.045400 0
26.760000 -0.036336 0
26.765000 -0.024785 0
26.770000 -0.010391 0
26.775000 0.007100 0
26.780000 0.027777 0
26.785000 0.051501 0
26.790000 0.077857 0
26.795000 0.106122 0
26.800000 0.135270 0
26.805000 0.164016 0
26.810000 0.190893 0
26.815000 0.214377 0
26.820000 0.233022 0
26.825000 0.245608 0
26.830000 0.251275 1
26.835000 0.249616 0
26.840000 0.240729 0
26.845000 0.225204 0
26.850000 0.204060 0
26.855000 0.178632 0
26.860000 0.150433 0
26.865000 0.121000 0
26.870000 0.091732 0
26.875000 0.063705 0
26.880000 0.037411 0
26.885000 0.012336 0
26.890000 -0.013527 0
26.895000 -0.043776 0
26.900000 -0.082419 0
26.905000 -0.130788 0
26.910000 -0.183427 0
26.915000 -0.225670 0
26.920000 -0.235305 2
26.925000 -0.187694 0
26.930000 -0.061767 0
26.935000 0.152967 0
26.940000 0.445191 0
26.945000 0.768862 0
26.950000 1.043112 0
26.955000 1.179080 3
26.960000 1.125669 0
26.965000 0.899303 0
26.970000 0.571253 0
26.975000 0.229974 0
26.980000 -0.055883 0
26.985000 -0.251160 0
26.990000 -0.348992 0
26.995000 -0.361803 4
27.000000 -0.314794 0
27.005000 -0.238798 0
27.010000 -0.160912 0
27.015000 -0.097143 0
27.020000 -0.051342 0
27.025000 -0.019590 0
27.030000 0.004260 0
27.035000 0.025157 0
27.040000 0.045977 0
27.045000 0.068001 0
27.050000 0.091631 0
27.055000 0.116859 0
27.060000 0.143492 0
27.065000 0.171230 0
27.070000 0.199698 0
27.075000 0.228449 0
27.080000 0.256982 0
27.085000 0.284751 0
27.090000 0.311180 0
27.095000 0.335686 0
27.100000 0.357697 0
27.105000 0.376675 0
27.110000 0.392135 0
27.115000 0.403669 0
27.120000 0.410958 0
27.125000 0.413794 5
27.130000 0.412081 0
27.135000 0.405844 0
27.140000 0.395230 0
27.145000 0.380499 0
27.150000 0.362011 0
27.155000 0.340217 0
27.160000 0.315635 0
27.165000 0.288834 0
27.170000 0.260406 0
27.175000 0.230950 0
27.180000 0.201048 0
27.185000 0.171248 0
27.190000 0.142047 0
27.195000 0.113880 0
27.200000 0.087113 0
27.205000 0.062034 0
27.210000 0.038858 0
27.215000 0.017724 0
27.220000 -0.001295 0
27.225000 -0.018190 0
27.230000 -0.033004 0
27.235000 -0.045823 0
27.240000 -0.056766 0
27.245000 -0.065977 0
27.250000 -0.073615 0
27.255000 -0.079847 0
27.260000 -0.084840 0
27.265000 -0.088756 0
27.270000 -0.091749 0
27.275000 -0.093962 0
27.280000 -0.095522 0
27.285000 -0.096546 0
27.290000 -0.097131 0
27.295000 -0.097364 0
27.300000 -0.097185 0
27.305000 -0.096231 0
27.310000 -0.095281 0
27.315000 -0.094336 0
27.320000 -0.093396 0
27.325000 -0.092460 0
27.330000 -0.091529 0
27.335000 -0.090603 0
27.340000 -0.089681 0
27.345000 -0.088764 0
27.350000 -0.087850 0
27.355000 -0.086941 0
27.360000 -0.086035 0
27.365000 -0.085130 0
27.370000 -0.084224 0
27.375000 -0.083313 0
27.380000 -0.082388 0
27.385000 -0.081438 0
27.390000 -0.080443 0
27.395000 -0.079369 0
27.400000 -0.078168 0
27.405000 -0.076768 0
27.410000 -0.075067 0
27.415000 -0.072921 0
27.420000 -0.070141 0
27.425000 -0.066485 0
27.430000 -0.061653 0
27.435000 -0.055296 0
27.440000 -0.047027 0
27.445000 -0.036448 0
27.450000 -0.023188 0
27.455000 -0.006952 0
27.460000 0.012420 0
27.465000 0.034894 0
27.470000 0.060185 0
27.475000 0.087720 0
27.480000 0.116630 0
27.485000 0.145767 0
27.490000 0.173769 0
27.495000 0.199157 0
27.500000 0.220462 0
27.505000 0.236361 0
27.510000 0.245815 0
27.515000 0.248181 1
27.520000 0.243284 0
27.525000 0.231439 0
27.530000 0.213415 0
27.535000 0.190355 0
27.540000 0.163653 0
27.545000 0.134818 0
27.550000 0.105317 0
27.555000 0.076424 0
27.560000 0.049022 0
27.565000 0.023297 0
27.570000 -0.001702 0
27.575000 -0.028483 0
27.580000 -0.060907 0
27.585000 -0.102500 0
27.590000 -0.153007 0
27.595000 -0.204616 0
27.600000 -0.240608 2
27.605000 -0.238069 0
27.610000 -0.173232 0
27.615000 -0.027241 0
27.620000 0.206447 0
27.625000 0.510319 0
27.630000 0.831566 0
27.635000 1.086578 0
27.640000 1.191655 3
27.645000 1.105666 0
27.650000 0.854406 0
27.655000 0.517147 0
27.660000 0.182620 0
27.665000 -0.085721 0
27.670000 -0.258921 0
27.675000 -0.335097 4
27.680000 -0.330555 0
27.685000 -0.273238 0
27.690000 -0.194577 0
27.695000 -0.119711 0
27.700000 -0.061330 0
27.705000 -0.020473 0
27.710000 0.008071 0
27.715000 0.030433 0
27.720000 0.050986 0
27.725000 0.072042 0
27.730000 0.094529 0
27.735000 0.118668 0
27.740000 0.144368 0
27.745000 0.171384 0
27.750000 0.199378 0
27.755000 0.227937 0
27.760000 0.256579 0
27.765000 0.284772 0
27.770000 0.311941 0
27.775000 0.337494 0
27.780000 0.360837 0
27.785000 0.381398 0
27.790000 0.398650 0
27.795000 0.412133 0
27.800000 0.421474 0
27.805000 0.426403 0
27.810000 0.426765 5
27.815000 0.422527 0
27.820000 0.413783 0
27.825000 0.400747 0
27.830000 0.383744 0
27.835000 0.363196 0
27.840000 0.339608 0
27.845000 0.313542 0
27.850000 0.285596 0
27.855000 0.256381 0
27.860000 0.226502 0
27.865000 0.196533 0
27.870000 0.167001 0
27.875000 0.138374 0
27.880000 0.111049 0
27.885000 0.085347 0
27.890000 0.061510 0
27.895000 0.039703 0
27.900000 0.020019 0
27.905000 0.002485 0
27.910000 -0.012931 0
27.915000 -0.026305 0
27.920000 -0.037752 0
27.925000 -0.047414 0
27.930000 -0.055451 0
27.935000 -0.062032 0
27.940000 -0.067328 0
27.945000 -0.071505 0
27.950000 -0.074724 0
27.955000 -0.077132 0
27.960000 -0.078861 0
27.965000 -0.080032 0
27.970000 -0.080748 0
27.975000 -0.081098 0
27.980000 -0.081022 0
27.985000 -0.080148 0
27.990000 -0.079278 0
27.995000 -0.078413 0
28.000000 -0.077552 0
28.005000 -0.076696 0
28.010000 -0.075844 0
28.015000 -0.074995 0
28.020000 -0.074152 0
28.025000 -0.073312 0
28.030000 -0.072475 0
28.035000 -0.071643 0
28.040000 -0.070812 0
28.045000 -0.069983 0
28.050000 -0.069153 0
28.055000 -0.068316 0
28.060000 -0.067465 0
28.065000 -0.066586 0
28.070000 -0.065657 0
28.075000 -0.064646 0
28.080000 -0.063499 0
28.085000 -0.062139 0
28.090000 -0.060457 0
28.095000 -0.058301 0
28.100000 -0.055468 0
28.105000 -0.051703 0
28.110000 -0.046689 0
28.115000 -0.040061 0
28.120000 -0.031420 0
28.125000 -0.020361 0
28.130000 -0.006516 0
28.135000 0.010391 0
28.140000 0.030480 0
28.145000 0.053659 0
28.150000 0.079562 0
28.155000 0.107524 0
28.160000 0.136571 0
28.165000 0.165459 0
28.170000 0.192749 0
28.175000 0.216917 0
28.180000 0.236495 0
28.185000 0.250214 0
28.190000 0.257141 1
28.195000 0.256783 0
28.200000 0.249146 0
28.205000 0.234733 0
28.210000 0.214491 0
28.215000 0.189707 0
28.220000 0.161870 0
28.225000 0.132522 0
28.230000 0.103099 0
28.235000 0.074753 0
28.240000 0.048110 0
28.245000 0.022879 0
28.250000 -0.002635 0
28.255000 -0.031767 0
28.260000 -0.068622 0
28.265000 -0.115346 0
28.270000 -0.168046 0
28.275000 -0.213823 0
28.280000 -0.231593 2
28.285000 -0.196745 0
28.290000 -0.087082 0
28.295000 0.110602 0
28.300000 0.390265 0
28.305000 0.713255 0
28.310000 1.004315 0
28.315000 1.172908 3
28.320000 1.157188 0
28.325000 0.959681 0
28.330000 0.643861 0
28.335000 0.298922 0
28.340000 -0.000497 0
28.345000 -0.212932 0
28.350000 -0.327150 0
28.355000 -0.352837 4
28.360000 -0.313650 0
28.365000 -0.240336 0
28.370000 -0.161420 0
28.375000 -0.095031 0
28.380000 -0.046733 0
28.385000 -0.013372 0
28.390000 0.011197 0
28.395000 0.032236 0
28.400000 0.052917 0
28.405000 0.074702 0
