0.000000 1.137807 3
0.005000 1.055541 0
0.010000 0.845641 0
0.015000 0.561036 0
0.020000 0.263570 0
0.025000 0.002977 0
0.030000 -0.191967 0
0.035000 -0.311543 0
0.040000 -0.359758 4
0.045000 -0.350233 0
0.050000 -0.302814 0
0.055000 -0.238994 0
0.060000 -0.176559 0
0.065000 -0.125922 0
0.070000 -0.089859 0
0.075000 -0.066005 0
0.080000 -0.050075 0
0.085000 -0.038138 0
0.090000 -0.027508 0
0.095000 -0.016671 0
0.100000 -0.004890 0
0.105000 0.008166 0
0.110000 0.022640 0
0.115000 0.038590 0
0.120000 0.056024 0
0.125000 0.074914 0
0.130000 0.095190 0
0.135000 0.116739 0
0.140000 0.139405 0
0.145000 0.162985 0
0.150000 0.187233 0
0.155000 0.211860 0
0.160000 0.236536 0
0.165000 0.260903 0
0.170000 0.284576 0
0.175000 0.307156 0
0.180000 0.328239 0
0.185000 0.347430 0
0.190000 0.364352 0
0.195000 0.378660 0
0.200000 0.390051 0
0.205000 0.398278 0
0.210000 0.403154 0
0.215000 0.404559 5
0.220000 0.402450 0
0.225000 0.396857 0
0.230000 0.387883 0
0.235000 0.375704 0
0.240000 0.360560 0
0.245000 0.342748 0
0.250000 0.322610 0
0.255000 0.300527 0
0.260000 0.276900 0
0.265000 0.252145 0
0.270000 0.226674 0
0.275000 0.200890 0
0.280000 0.175173 0
0.285000 0.149870 0
0.290000 0.125293 0
0.295000 0.101711 0
0.300000 0.079345 0
0.305000 0.058370 0
0.310000 0.038915 0
0.315000 0.021063 0
0.320000 0.004854 0
0.325000 -0.009707 0
0.330000 -0.022649 0
0.335000 -0.034029 0
0.340000 -0.043926 0
0.345000 -0.052435 0
0.350000 -0.059662 0
0.355000 -0.065720 0
0.360000 -0.070727 0
0.365000 -0.074799 0
0.370000 -0.078047 0
0.375000 -0.080579 0
0.380000 -0.082494 0
0.385000 -0.083883 0
0.390000 -0.084828 0
0.395000 -0.085403 0
0.400000 -0.085672 0
0.405000 -0.085690 0
0.410000 -0.085504 0
0.415000 -0.085156 0
0.420000 -0.084678 0
0.425000 -0.084099 0
0.430000 -0.083440 0
0.435000 -0.082693 0
0.440000 -0.081782 0
0.445000 -0.080875 0
0.450000 -0.079973 0
0.455000 -0.079075 0
0.460000 -0.078182 0
0.465000 -0.077293 0
0.470000 -0.076408 0
0.475000 -0.075528 0
0.480000 -0.074653 0
0.485000 -0.073781 0
0.490000 -0.072914 0
0.495000 -0.072052 0
0.500000 -0.071193 0
0.505000 -0.070339 0
0.510000 -0.069490 0
0.515000 -0.068644 0
0.520000 -0.067803 0
0.525000 -0.066965 0
0.530000 -0.066132 0
0.535000 -0.065302 0
0.540000 -0.064476 0
0.545000 -0.063653 0
0.550000 -0.062831 0
0.555000 -0.062009 0
0.560000 -0.061185 0
0.565000 -0.060352 0
0.570000 -0.059505 0
0.575000 -0.058630 0
0.580000 -0.057711 0
0.585000 -0.056721 0
0.590000 -0.055622 0
0.595000 -0.054361 0
0.600000 -0.052865 0
0.605000 -0.051035 0
0.610000 -0.048745 0
0.615000 -0.045835 0
0.620000 -0.042111 0
0.625000 -0.037345 0
0.630000 -0.031283 0
0.635000 -0.023651 0
0.640000 -0.014177 0
0.645000 -0.002609 0
0.650000 0.011252 0
0.655000 0.027523 0
0.660000 0.046200 0
0.665000 0.067134 0
0.670000 0.090000 0
0.675000 0.114290 0
0.680000 0.139311 0
0.685000 0.164215 0
0.690000 0.188030 0
0.695000 0.209729 0
0.700000 0.228295 0
0.705000 0.242799 0
0.710000 0.252482 0
0.715000 0.256816 1
0.720000 0.255551 0
0.725000 0.248741 0
0.730000 0.236741 0
0.735000 0.220171 0
0.740000 0.199868 0
0.745000 0.176814 0
0.750000 0.152057 0
0.755000 0.126632 0
0.760000 0.101493 0
0.765000 0.077448 0
0.770000 0.055107 0
0.775000 0.034809 0
0.780000 0.016503 0
0.785000 -0.000443 0
0.790000 -0.017499 0
0.795000 -0.037082 0
0.800000 -0.062182 0
0.805000 -0.095109 0
0.810000 -0.135403 0
0.815000 -0.177736 0
0.820000 -0.211120 0
0.825000 -0.220209 2
0.830000 -0.188174 0
0.835000 -0.099896 0
0.840000 0.054609 0
0.845000 0.275025 0
0.850000 0.543408 0
0.855000 0.818917 0
0.860000 1.042362 0
0.865000 1.154459 3
0.870000 1.122700 0
0.875000 0.953958 0
0.880000 0.690275 0
0.885000 0.390819 0
0.890000 0.109923 0
0.895000 -0.116040 0
0.900000 -0.270311 0
0.905000 -0.351331 0
0.910000 -0.368209 4
0.915000 -0.337542 0
0.920000 -0.279858 0
0.925000 -0.214801 0
0.930000 -0.156581 0
0.935000 -0.111909 0
0.940000 -0.081043 0
0.945000 -0.060633 0
0.950000 -0.046494 0
0.955000 -0.035224 0
0.960000 -0.024646 0
0.965000 -0.013584 0
0.970000 -0.001476 0
0.975000 0.011930 0
0.980000 0.026746 0
0.985000 0.043013 0
0.990000 0.060732 0
0.995000 0.079868 0
1.000000 0.100345 0
1.005000 0.122050 0
1.010000 0.144825 0
1.015000 0.168470 0
1.020000 0.192743 0
1.025000 0.217363 0
1.030000 0.242012 0
1.035000 0.266343 0
1.040000 0.289986 0
1.045000 0.312556 0
1.050000 0.333665 0
1.055000 0.352932 0
1.060000 0.369995 0
1.065000 0.384518 0
1.070000 0.396207 0
1.075000 0.404818 0
1.080000 0.410161 0
1.085000 0.412115 5
1.090000 0.410624 0
1.095000 0.405704 0
1.100000 0.397441 0
1.105000 0.385989 0
1.110000 0.371565 0
1.115000 0.354440 0
1.120000 0.334934 0
1.125000 0.313403 0
1.130000 0.290229 0
1.135000 0.265807 0
1.140000 0.240537 0
1.145000 0.214812 0
1.150000 0.189006 0
1.155000 0.163468 0
1.160000 0.138514 0
1.165000 0.114421 0
1.170000 0.091423 0
1.175000 0.069713 0
1.180000 0.049434 0
1.185000 0.030691 0
1.190000 0.013545 0
1.195000 -0.001982 0
1.200000 -0.015900 0
1.205000 -0.028247 0
1.210000 -0.039086 0
1.215000 -0.048500 0
1.220000 -0.056584 0
1.225000 -0.063444 0
1.230000 -0.069190 0
1.235000 -0.073935 0
1.240000 -0.077789 0
1.245000 -0.080860 0
1.250000 -0.083250 0
1.255000 -0.085052 0
1.260000 -0.086352 0
1.265000 -0.087229 0
1.270000 -0.087751 0
1.275000 -0.087980 0
1.280000 -0.087967 0
1.285000 -0.087759 0
1.290000 -0.087392 0
1.295000 -0.086900 0
1.300000 -0.086309 0
1.305000 -0.085640 0
1.310000 -0.084883 0
1.315000 -0.083961 0
1.320000 -0.083043 0
1.325000 -0.082130 0
1.330000 -0.081222 0
1.335000 -0.080318 0
1.340000 -0.079418 0
1.345000 -0.078523 0
1.350000 -0.077633 0
1.355000 -0.076746 0
1.360000 -0.075865 0
1.365000 -0.074987 0
1.370000 -0.074114 0
1.375000 -0.073246 0
1.380000 -0.072382 0
1.385000 -0.071522 0
1.390000 -0.070666 0
1.395000 -0.069814 0
1.400000 -0.068967 0
1.405000 -0.068124 0
1.410000 -0.067285 0
1.415000 -0.066449 0
1.420000 -0.065616 0
1.425000 -0.064786 0
1.430000 -0.063957 0
1.435000 -0.063127 0
1.440000 -0.062292 0
1.445000 -0.061446 0
1.450000 -0.060581 0
1.455000 -0.059684 0
1.460000 -0.058734 0
1.465000 -0.057701 0
1.470000 -0.056545 0
1.475000 -0.055207 0
1.480000 -0.053611 0
1.485000 -0.051652 0
1.490000 -0.049201 0
1.495000 -0.046094 0
1.500000 -0.042136 0
1.505000 -0.037101 0
1.510000 -0.030740 0
1.515000 -0.022787 0
1.520000 -0.012983 0
1.525000 -0.001092 0
1.530000 0.013069 0
1.535000 0.029597 0
1.540000 0.048478 0
1.545000 0.069552 0
1.550000 0.092496 0
1.555000 0.116810 0
1.560000 0.141826 0
1.565000 0.166722 0
1.570000 0.190567 0
1.575000 0.212372 0
1.580000 0.231155 0
1.585000 0.246018 0
1.590000 0.256212 0
1.595000 0.261203 1
1.600000 0.260717 0
1.605000 0.254765 0
1.610000 0.243643 0
1.615000 0.227905 0
1.620000 0.208321 0
1.625000 0.185811 0
1.630000 0.161376 0
1.635000 0.136022 0
1.640000 0.110696 0
1.645000 0.086222 0
1.650000 0.063253 0
1.655000 0.042212 0
1.660000 0.023202 0
1.665000 0.005849 0
1.670000 -0.010916 0
1.675000 -0.029051 0
1.680000 -0.051293 0
1.685000 -0.080374 0
1.690000 -0.117389 0
1.695000 -0.159709 0
1.700000 -0.199496 0
1.705000 -0.223906 2
1.710000 -0.217131 0
1.715000 -0.163317 0
1.720000 -0.049508 0
1.725000 0.130729 0
1.730000 0.371577 0
1.735000 0.648139 0
1.740000 0.913929 0
1.745000 1.109411 0
1.750000 1.182194 3
1.755000 1.106657 0
1.760000 0.897409 0
1.765000 0.611306 0
1.770000 0.314908 0
1.775000 0.060440 0
1.780000 -0.123505 0
1.785000 -0.229001 0
1.790000 -0.262650 4
1.795000 -0.241087 0
1.800000 -0.186786 0
1.805000 -0.122278 0
1.810000 -0.064217 0
1.815000 -0.020435 0
1.820000 0.008892 0
1.825000 0.027681 0
1.830000 0.040561 0
1.835000 0.051066 0
1.840000 0.061305 0
1.845000 0.072329 0
1.850000 0.084607 0
1.855000 0.098337 0
1.860000 0.113598 0
1.865000 0.130411 0
1.870000 0.148750 0
1.875000 0.168546 0
1.880000 0.189679 0
1.885000 0.211984 0
1.890000 0.235242 0
1.895000 0.259182 0
1.900000 0.283488 0
1.905000 0.307801 0
1.910000 0.331726 0
1.915000 0.354842 0
1.920000 0.376717 0
1.925000 0.396912 0
1.930000 0.415006 0
1.935000 0.430601 0
1.940000 0.443341 0
1.945000 0.452922 0
1.950000 0.459107 0
1.955000 0.461732 5
1.960000 0.460712 0
1.965000 0.456047 0
1.970000 0.447822 0
1.975000 0.436203 0
1.980000 0.421429 0
1.985000 0.403809 0
1.990000 0.383704 0
1.995000 0.361520 0
2.000000 0.337690 0
2.005000 0.312662 0
2.010000 0.286883 0
2.015000 0.260787 0
2.020000 0.234784 0
2.025000 0.209248 0
2.030000 0.184510 0
2.035000 0.160852 0
2.040000 0.138503 0
2.045000 0.117640 0
2.050000 0.098388 0
2.055000 0.080821 0
2.060000 0.064968 0
2.065000 0.050818 0
2.070000 0.038327 0
2.075000 0.027420 0
2.080000 0.018002 0
2.085000 0.009964 0
2.090000 0.003184 0
2.095000 -0.002462 0
2.100000 -0.007101 0
2.105000 -0.010854 0
2.110000 -0.013840 0
2.115000 -0.016166 0
2.120000 -0.017933 0
2.125000 -0.019231 0
2.130000 -0.020139 0
2.135000 -0.020727 0
2.140000 -0.021055 0
2.145000 -0.021174 0
2.150000 -0.021125 0
2.155000 -0.020946 0
2.160000 -0.020664 0
2.165000 -0.020304 0
2.170000 -0.019738 0
2.175000 -0.019141 0
2.180000 -0.018546 0
2.185000 -0.017955 0
2.190000 -0.017367 0
2.195000 -0.016781 0
2.200000 -0.016198 0
2.205000 -0.015619 0
2.210000 -0.015042 0
2.215000 -0.014468 0
2.220000 -0.013897 0
2.225000 -0.013329 0
2.230000 -0.012763 0
2.235000 -0.012200 0
2.240000 -0.011641 0
2.245000 -0.011084 0
2.250000 -0.010529 0
2.255000 -0.009978 0
2.260000 -0.009429 0
2.265000 -0.008882 0
2.270000 -0.008337 0
2.275000 -0.007793 0
2.280000 -0.007249 0
2.285000 -0.006704 0
2.290000 -0.006152 0
2.295000 -0.005589 0
2.300000 -0.005005 0
2.305000 -0.004385 0
2.310000 -0.003708 0
2.315000 -0.002938 0
2.320000 -0.002028 0
2.325000 -0.000910 0
2.330000 0.000510 0
2.335000 0.002357 0
2.340000 0.004791 0
2.345000 0.008009 0
2.350000 0.012248 0
2.355000 0.017778 0
2.360000 0.024892 0
2.365000 0.033887 0
2.370000 0.045039 0
2.375000 0.058571 0
2.380000 0.074611 0
2.385000 0.093157 0
2.390000 0.114039 0
2.395000 0.136890 0
2.400000 0.161135 0
2.405000 0.185995 0
2.410000 0.210519 0
2.415000 0.233637 0
2.420000 0.254231 0
2.425000 0.271222 0
2.430000 0.283664 0
2.435000 0.290827 0
2.440000 0.292269 1
2.445000 0.287878 0
2.450000 0.277884 0
2.455000 0.262839 0
2.460000 0.243564 0
2.465000 0.221074 0
2.470000 0.196488 0
2.475000 0.170939 0
2.480000 0.145485 0
2.485000 0.121033 0
2.490000 0.098281 0
2.495000 0.077631 0
2.500000 0.059062 0
2.505000 0.041906 0
2.510000 0.024562 0
2.515000 0.004365 0
2.520000 -0.021911 0
2.525000 -0.056487 0
2.530000 -0.098071 0
2.535000 -0.139579 0
2.540000 -0.167713 2
2.545000 -0.165060 0
2.550000 -0.113672 0
2.555000 0.001190 0
2.560000 0.186485 0
2.565000 0.434111 0
2.570000 0.712564 0
2.575000 0.965524 0
2.580000 1.125930 0
2.585000 1.143498 3
2.590000 1.011579 0
2.595000 0.768655 0
2.600000 0.472888 0
2.605000 0.183115 0
2.610000 -0.058149 0
2.615000 -0.229195 0
2.620000 -0.325354 0
2.625000 -0.353943 4
2.630000 -0.330704 0
2.635000 -0.276283 0
2.640000 -0.211353 0
2.645000 -0.151605 0
2.650000 -0.105059 0
2.655000 -0.072724 0
2.660000 -0.051449 0
2.665000 -0.036934 0
2.670000 -0.025579 0
2.675000 -0.015051 0
2.680000 -0.004084 0
2.685000 0.007924 0
2.690000 0.021243 0
2.695000 0.035989 0
2.700000 0.052207 0
2.705000 0.069897 0
2.710000 0.089022 0
2.715000 0.109505 0
2.720000 0.131227 0
2.725000 0.154024 0
2.730000 0.177689 0
2.735000 0.201970 0
2.740000 0.226575 0
2.745000 0.251173 0
2.750000 0.275406 0
2.755000 0.298892 0
2.760000 0.321233 0
2.765000 0.342034 0
2.770000 0.360904 0
2.775000 0.377476 0
2.780000 0.391413 0
2.785000 0.402422 0
2.790000 0.410264 0
2.795000 0.414761 0
2.800000 0.415804 5
2.805000 0.413354 0
2.810000 0.407447 0
2.815000 0.398193 0
2.820000 0.385768 0
2.825000 0.370412 0
2.830000 0.352423 0
2.835000 0.332141 0
2.840000 0.309942 0
2.845000 0.286224 0
2.850000 0.261397 0
2.855000 0.235869 0
2.860000 0.210037 0
2.865000 0.184274 0
2.870000 0.158925 0
2.875000 0.134297 0
2.880000 0.110656 0
2.885000 0.088221 0
2.890000 0.067166 0
2.895000 0.047619 0
2.900000 0.029663 0
2.905000 0.013340 0
2.910000 -0.001344 0
2.915000 -0.014417 0
2.920000 -0.025934 0
2.925000 -0.035969 0
2.930000 -0.044617 0
2.935000 -0.051983 0
2.940000 -0.058177 0
2.945000 -0.063315 0
2.950000 -0.067512 0
2.955000 -0.070879 0
2.960000 -0.073522 0
2.965000 -0.075540 0
2.970000 -0.077025 0
2.975000 -0.078059 0
2.980000 -0.078715 0
2.985000 -0.079058 0
2.990000 -0.079144 0
2.995000 -0.079021 0
3.000000 -0.078730 0
3.005000 -0.078304 0
3.010000 -0.077774 0
3.015000 -0.077160 0
3.020000 -0.076454 0
3.025000 -0.075574 0
3.030000 -0.074698 0
3.035000 -0.073826 0
3.040000 -0.072959 0
3.045000 -0.072096 0
3.050000 -0.071238 0
3.055000 -0.070384 0
3.060000 -0.069534 0
3.065000 -0.068688 0
3.070000 -0.067846 0
3.075000 -0.067009 0
3.080000 -0.066176 0
3.085000 -0.065347 0
3.090000 -0.064522 0
3.095000 -0.063701 0
3.100000 -0.062885 0
3.105000 -0.062072 0
3.110000 -0.061263 0
3.115000 -0.060458 0
3.120000 -0.059657 0
3.125000 -0.058859 0
3.130000 -0.058065 0
3.135000 -0.057272 0
3.140000 -0.056479 0
3.145000 -0.055685 0
3.150000 -0.054885 0
3.155000 -0.054073 0
3.160000 -0.053239 0
3.165000 -0.052367 0
3.170000 -0.051437 0
3.175000 -0.050414 0
3.180000 -0.049252 0
3.185000 -0.047889 0
3.190000 -0.046236 0
3.195000 -0.044181 0
3.200000 -0.041581 0
3.205000 -0.038257 0
3.210000 -0.033999 0
3.215000 -0.028566 0
3.220000 -0.021694 0
3.225000 -0.013111 0
3.230000 -0.002557 0
3.235000 0.010192 0
3.240000 0.025294 0
3.245000 0.042806 0
3.250000 0.062651 0
3.255000 0.084595 0
3.260000 0.108224 0
3.265000 0.132945 0
3.270000 0.157992 0
3.275000 0.182462 0
3.280000 0.205359 0
3.285000 0.225666 0
3.290000 0.242408 0
3.295000 0.254740 0
3.300000 0.262009 0
3.305000 0.263814 1
3.310000 0.260041 0
3.315000 0.250879 0
3.320000 0.236794 0
3.325000 0.218502 0
3.330000 0.196897 0
3.335000 0.172986 0
3.340000 0.147807 0
3.345000 0.122359 0
3.350000 0.097532 0
3.355000 0.074056 0
3.360000 0.052439 0
3.365000 0.032888 0
3.370000 0.015167 0
3.375000 -0.001622 0
3.380000 -0.019271 0
3.385000 -0.040447 0
3.390000 -0.068062 0
3.395000 -0.103725 0
3.400000 -0.145576 0
3.405000 -0.186513 0
3.410000 -0.214062 2
3.415000 -0.212264 0
3.420000 -0.164689 0
3.425000 -0.057537 0
3.430000 0.116696 0
3.435000 0.353451 0
3.440000 0.628864 0
3.445000 0.896550 0
3.450000 1.095728 0
3.455000 1.171976 3
3.460000 1.100062 0
3.465000 0.896391 0
3.470000 0.613775 0
3.475000 0.315651 0
3.480000 0.053631 0
3.485000 -0.142285 0
3.490000 -0.261945 0
3.495000 -0.309465 4
3.500000 -0.298910 0
3.505000 -0.250717 0
3.510000 -0.186848 0
3.515000 -0.125194 0
3.520000 -0.075897 0
3.525000 -0.041294 0
3.530000 -0.018668 0
3.535000 -0.003591 0
3.540000 0.007838 0
3.545000 0.018209 0
3.550000 0.028935 0
3.555000 0.040691 0
3.560000 0.053773 0
3.565000 0.068307 0
3.570000 0.084342 0
3.575000 0.101880 0
3.580000 0.120882 0
3.585000 0.141266 0
3.590000 0.162907 0
3.595000 0.185633 0
3.600000 0.209224 0
3.605000 0.233416 0
3.610000 0.257899 0
3.615000 0.282328 0
3.620000 0.306323 0
3.625000 0.329486 0
3.630000 0.351405 0
3.635000 0.371667 0
3.640000 0.389872 0
3.645000 0.405645 0
3.650000 0.418647 0
3.655000 0.428590 0
3.660000 0.435244 0
3.665000 0.438445 5
3.670000 0.438106 0
3.675000 0.434213 0
3.680000 0.426834 0
3.685000 0.416110 0
3.690000 0.402252 0
3.695000 0.385538 0
3.700000 0.366296 0
3.705000 0.344899 0
3.710000 0.321749 0
3.715000 0.297269 0
3.720000 0.271883 0
3.725000 0.246010 0
3.730000 0.220049 0
3.735000 0.194372 0
3.740000 0.169312 0
3.745000 0.145162 0
3.750000 0.122168 0
3.755000 0.100526 0
3.760000 0.080384 0
3.765000 0.061841 0
3.770000 0.044954 0
3.775000 0.029737 0
3.780000 0.016170 0
3.785000 0.004202 0
3.790000 -0.006240 0
3.795000 -0.015252 0
3.800000 -0.022940 0
3.805000 -0.029418 0
3.810000 -0.034807 0
3.815000 -0.039224 0
3.820000 -0.042787 0
3.825000 -0.045605 0
3.830000 -0.047782 0
3.835000 -0.049413 0
3.840000 -0.050584 0
3.845000 -0.051369 0
3.850000 -0.051837 0
3.855000 -0.052045 0
3.860000 -0.052042 0
3.865000 -0.051871 0
3.870000 -0.051566 0
3.875000 -0.051156 0
3.880000 -0.050664 0
3.885000 -0.050081 0
3.890000 -0.049332 0
3.895000 -0.048587 0
3.900000 -0.047846 0
3.905000 -0.047109 0
3.910000 -0.046375 0
3.915000 -0.045644 0
3.920000 -0.044918 0
3.925000 -0.044195 0
3.930000 -0.043476 0
3.935000 -0.042760 0
3.940000 -0.042048 0
3.945000 -0.041339 0
3.950000 -0.040634 0
3.955000 -0.039932 0
3.960000 -0.039234 0
3.965000 -0.038539 0
3.970000 -0.037848 0
3.975000 -0.037160 0
3.980000 -0.036475 0
3.985000 -0.035794 0
3.990000 -0.035114 0
3.995000 -0.034437 0
4.000000 -0.033760 0
4.005000 -0.033082 0
4.010000 -0.032399 0
4.015000 -0.031705 0
4.020000 -0.030992 0
4.025000 -0.030246 0
4.030000 -0.029446 0
4.035000 -0.028562 0
4.040000 -0.027549 0
4.045000 -0.026347 0
4.050000 -0.024871 0
4.055000 -0.023009 0
4.060000 -0.020618 0
4.065000 -0.017520 0
4.070000 -0.013502 0
4.075000 -0.008316 0
4.080000 -0.001691 0
4.085000 0.006655 0
4.090000 0.016995 0
4.095000 0.029565 0
4.100000 0.044529 0
4.105000 0.061950 0
4.110000 0.081749 0
4.115000 0.103677 0
4.120000 0.127300 0
4.125000 0.151989 0
4.130000 0.176937 0
4.135000 0.201195 0
4.140000 0.223725 0
4.145000 0.243470 0
4.150000 0.259436 0
4.155000 0.270774 0
4.160000 0.276851 0
4.165000 0.277311 1
4.170000 0.272109 0
4.175000 0.261511 0
4.180000 0.246077 0
4.185000 0.226606 0
4.190000 0.204072 0
4.195000 0.179538 0
4.200000 0.154076 0
4.205000 0.128688 0
4.210000 0.104242 0
4.215000 0.081411 0
4.220000 0.060606 0
4.225000 0.041863 0
4.230000 0.024655 0
4.235000 0.007635 0
4.240000 -0.011537 0
4.245000 -0.035894 0
4.250000 -0.067989 0
4.255000 -0.107791 0
4.260000 -0.150417 0
4.265000 -0.185106 0
4.270000 -0.196392 2
4.275000 -0.167033 0
4.280000 -0.081367 0
4.285000 0.071124 0
4.290000 0.290486 0
4.295000 0.558648 0
4.300000 0.833838 0
4.305000 1.055342 0
4.310000 1.162763 3
4.315000 1.124832 0
4.320000 0.953873 0
4.325000 0.690513 0
4.330000 0.391209 0
4.335000 0.108173 0
4.340000 -0.122887 0
4.345000 -0.284693 0
4.350000 -0.374532 0
4.355000 -0.400000 4
4.360000 -0.376038 0
4.365000 -0.321878 0
4.370000 -0.256818 0
4.375000 -0.195841 0
4.380000 -0.147112 0
4.385000 -0.112301 0
4.390000 -0.088905 0
4.395000 -0.072949 0
4.400000 -0.060838 0
4.405000 -0.050072 0
4.410000 -0.039203 0
4.415000 -0.027498 0
4.420000 -0.014613 0
4.425000 -0.000395 0
4.430000 0.015222 0
4.435000 0.032259 0
4.440000 0.050700 0
4.445000 0.070493 0
4.450000 0.091553 0
4.455000 0.113754 0
4.460000 0.136932 0
4.465000 0.160883 0
4.470000 0.185364 0
4.475000 0.210095 0
4.480000 0.234766 0
4.485000 0.259041 0
4.490000 0.282562 0
4.495000 0.304962 0
4.500000 0.325874 0
4.505000 0.344934 0
4.510000 0.361802 0
4.515000 0.376161 0
4.520000 0.387735 0
4.525000 0.396293 0
4.530000 0.401660 0
4.535000 0.403718 5
4.540000 0.402414 0
4.545000 0.397761 0
4.550000 0.389837 0
4.555000 0.378783 0
4.560000 0.364800 0
4.565000 0.348139 0
4.570000 0.329100 0
4.575000 0.308014 0
4.580000 0.285242 0
4.585000 0.261160 0
4.590000 0.236147 0
4.595000 0.210581 0
4.600000 0.184825 0
4.605000 0.159220 0
4.610000 0.134078 0
4.615000 0.109678 0
4.620000 0.086260 0
4.625000 0.064024 0
4.630000 0.043128 0
4.635000 0.023688 0
4.640000 0.005783 0
4.645000 -0.010548 0
4.650000 -0.025297 0
4.655000 -0.038486 0
4.660000 -0.050164 0
4.665000 -0.060396 0
4.670000 -0.069268 0
4.675000 -0.076873 0
4.680000 -0.083315 0
4.685000 -0.088699 0
4.690000 -0.093133 0
4.695000 -0.096722 0
4.700000 -0.099566 0
4.705000 -0.101762 0
4.710000 -0.103398 0
4.715000 -0.104556 0
4.720000 -0.105307 0
4.725000 -0.105718 0
4.730000 -0.105846 0
4.735000 -0.105740 0
4.740000 -0.105444 0
4.745000 -0.104993 0
4.750000 -0.104419 0
4.755000 -0.103747 0
4.760000 -0.102999 0
4.765000 -0.102162 0
4.770000 -0.101153 0
4.775000 -0.100150 0
4.780000 -0.099151 0
4.785000 -0.098158 0
4.790000 -0.097169 0
4.795000 -0.096186 0
4.800000 -0.095207 0
4.805000 -0.094233 0
4.810000 -0.093265 0
4.815000 -0.092300 0
4.820000 -0.091341 0
4.825000 -0.090387 0
4.830000 -0.089437 0
4.835000 -0.088492 0
4.840000 -0.087552 0
4.845000 -0.086616 0
4.850000 -0.085685 0
4.855000 -0.084759 0
4.860000 -0.083837 0
4.865000 -0.082919 0
4.870000 -0.082006 0
4.875000 -0.081096 0
4.880000 -0.080190 0
4.885000 -0.079287 0
4.890000 -0.078384 0
4.895000 -0.077480 0
4.900000 -0.076571 0
4.905000 -0.075650 0
4.910000 -0.074709 0
4.915000 -0.073734 0
4.920000 -0.072705 0
4.925000 -0.071591 0
4.930000 -0.070354 0
4.935000 -0.068935 0
4.940000 -0.067260 0
4.945000 -0.065231 0
4.950000 -0.062722 0
4.955000 -0.059579 0
4.960000 -0.055618 0
4.965000 -0.050624 0
4.970000 -0.044362 0
4.975000 -0.036582 0
4.980000 -0.027032 0
4.985000 -0.015484 0
4.990000 -0.001753 0
4.995000 0.014275 0
5.000000 0.032612 0
5.005000 0.053145 0
5.010000 0.075610 0
5.015000 0.099585 0
5.020000 0.124483 0
5.025000 0.149570 0
5.030000 0.173993 0
5.035000 0.196825 0
5.040000 0.217119 0
5.045000 0.233977 0
5.050000 0.246607 0
5.055000 0.254395 0
5.060000 0.256946 1
5.065000 0.254120 0
5.070000 0.246047 0
5.075000 0.233113 0
5.080000 0.215931 0
5.085000 0.195293 0
5.090000 0.172110 0
5.095000 0.147345 0
5.100000 0.121947 0
5.105000 0.096792 0
5.110000 0.072632 0
5.115000 0.050046 0
5.120000 0.029389 0
5.125000 0.010698 0
5.130000 -0.006462 0
5.135000 -0.023199 0
5.140000 -0.041459 0
5.145000 -0.063884 0
5.150000 -0.093056 0
5.155000 -0.129979 0
5.160000 -0.172176 0
5.165000 -0.212331 0
5.170000 -0.238415 2
5.175000 -0.235480 0
5.180000 -0.188291 0
5.185000 -0.083989 0
5.190000 0.084788 0
5.195000 0.315034 0
5.200000 0.587060 0
5.205000 0.860850 0
5.210000 1.081214 0
5.215000 1.194033 3
5.220000 1.165358 0
5.225000 0.996854 0
5.230000 0.731990 0
5.235000 0.432177 0
5.240000 0.153276 0
5.245000 -0.068083 0
5.250000 -0.215803 0
5.255000 -0.289426 0
5.260000 -0.299409 4
5.265000 -0.263732 0
5.270000 -0.203888 0
5.275000 -0.139587 0
5.280000 -0.084180 0
5.285000 -0.043081 0
5.290000 -0.015449 0
5.295000 0.002626 0
5.300000 0.015373 0
5.305000 0.025970 0
5.310000 0.036325 0
5.315000 0.047415 0
5.320000 0.059687 0
5.325000 0.073337 0
5.330000 0.088449 0
5.335000 0.105048 0
5.340000 0.123119 0
5.345000 0.142607 0
5.350000 0.163416 0
5.355000 0.185408 0
5.360000 0.208397 0
5.365000 0.232152 0
5.370000 0.256402 0
5.375000 0.280831 0
5.380000 0.305092 0
5.385000 0.328809 0
5.390000 0.351588 0
5.395000 0.373026 0
5.400000 0.392722 0
5.405000 0.410293 0
5.410000 0.425380 0
5.415000 0.437663 0
5.420000 0.446872 0
5.425000 0.452797 0
5.430000 0.455292 5
5.435000 0.454283 0
5.440000 0.449773 0
5.445000 0.441836 0
5.450000 0.430622 0
5.455000 0.416345 0
5.460000 0.399281 0
5.465000 0.379756 0
5.470000 0.358137 0
5.475000 0.334819 0
5.480000 0.310211 0
5.485000 0.284730 0
5.490000 0.258782 0
5.495000 0.232757 0
5.500000 0.207015 0
5.505000 0.181884 0
5.510000 0.157647 0
5.515000 0.134546 0
5.520000 0.112775 0
5.525000 0.092478 0
5.530000 0.073756 0
5.535000 0.056668 0
5.540000 0.041230 0
5.545000 0.027426 0
5.550000 0.015210 0
5.555000 0.004511 0
5.560000 -0.004760 0
5.565000 -0.012704 0
5.570000 -0.019435 0
5.575000 -0.025067 0
5.580000 -0.029716 0
5.585000 -0.033498 0
5.590000 -0.036520 0
5.595000 -0.038885 0
5.600000 -0.040689 0
5.605000 -0.042016 0
5.610000 -0.042944 0
5.615000 -0.043539 0
5.620000 -0.043862 0
5.625000 -0.043962 0
5.630000 -0.043883 0
5.635000 -0.043660 0
5.640000 -0.043324 0
5.645000 -0.042900 0
5.650000 -0.042407 0
5.655000 -0.041729 0
5.660000 -0.041022 0
5.665000 -0.040318 0
5.670000 -0.039618 0
5.675000 -0.038922 0
5.680000 -0.038229 0
5.685000 -0.037539 0
5.690000 -0.036853 0
5.695000 -0.036170 0
5.700000 -0.035491 0
5.705000 -0.034815 0
5.710000 -0.034142 0
5.715000 -0.033473 0
5.720000 -0.032807 0
5.725000 -0.032144 0
5.730000 -0.031485 0
5.735000 -0.030829 0
5.740000 -0.030176 0
5.745000 -0.029526 0
5.750000 -0.028880 0
5.755000 -0.028235 0
5.760000 -0.027593 0
5.765000 -0.026953 0
5.770000 -0.026312 0
5.775000 -0.025669 0
5.780000 -0.025019 0
5.785000 -0.024357 0
5.790000 -0.023673 0
5.795000 -0.022951 0
5.800000 -0.022170 0
5.805000 -0.021297 0
5.810000 -0.020286 0
5.815000 -0.019072 0
5.820000 -0.017568 0
5.825000 -0.015661 0
5.830000 -0.013205 0
5.835000 -0.010021 0
5.840000 -0.005896 0
5.845000 -0.000585 0
5.850000 0.006179 0
5.855000 0.014671 0
5.860000 0.025153 0
5.865000 0.037852 0
5.870000 0.052923 0
5.875000 0.070417 0
5.880000 0.090252 0
5.885000 0.112181 0
5.890000 0.135773 0
5.895000 0.160417 0
5.900000 0.185325 0
5.905000 0.209574 0
5.910000 0.232155 0
5.915000 0.252036 0
5.920000 0.268243 0
5.925000 0.279935 0
5.930000 0.286477 0
5.935000 0.287495 1
5.940000 0.282911 0
5.945000 0.272951 0
5.950000 0.258124 0
5.955000 0.239182 0
5.960000 0.217050 0
5.965000 0.192756 0
5.970000 0.167351 0
5.975000 0.141830 0
5.980000 0.117071 0
5.985000 0.093778 0
5.990000 0.072418 0
5.995000 0.053131 0
6.000000 0.035570 0
6.005000 0.018663 0
6.010000 0.000403 0
6.015000 -0.022040 0
6.020000 -0.051490 0
6.025000 -0.088997 0
6.030000 -0.131593 0
6.035000 -0.170769 0
6.040000 -0.192832 2
6.045000 -0.181229 0
6.050000 -0.119709 0
6.055000 0.004474 0
6.060000 0.196391 0
6.065000 0.446894 0
6.070000 0.725582 0
6.075000 0.980041 0
6.080000 1.148098 0
6.085000 1.181348 3
6.090000 1.068051 0
6.095000 0.838147 0
6.100000 0.546473 0
6.105000 0.251909 0
6.110000 -0.000586 0
6.115000 -0.186214 0
6.120000 -0.297609 0
6.125000 -0.339850 4
6.130000 -0.326804 0
6.135000 -0.277942 0
6.140000 -0.213963 0
6.145000 -0.151811 0
6.150000 -0.101362 0
6.155000 -0.065250 0
6.160000 -0.041219 0
6.165000 -0.025141 0
6.170000 -0.013173 0
6.175000 -0.002636 0
6.180000 0.008006 0
6.185000 0.019523 0
6.190000 0.032264 0
6.195000 0.046384 0
6.200000 0.061948 0
6.205000 0.078971 0
6.210000 0.097432 0
6.215000 0.117272 0
6.220000 0.138391 0
6.225000 0.160648 0
6.230000 0.183861 0
6.235000 0.207802 0
6.240000 0.232204 0
6.245000 0.256761 0
6.250000 0.281135 0
6.255000 0.304962 0
6.260000 0.327862 0
6.265000 0.349445 0
6.270000 0.369326 0
6.275000 0.387131 0
6.280000 0.402513 0
6.285000 0.415161 0
6.290000 0.424810 0
6.295000 0.431249 0
6.300000 0.434330 5
6.305000 0.433973 0
6.310000 0.430169 0
6.315000 0.422978 0
6.320000 0.412531 0
6.325000 0.399023 0
6.330000 0.382709 0
6.335000 0.363892 0
6.340000 0.342919 0
6.345000 0.320164 0
6.350000 0.296021 0
6.355000 0.270892 0
6.360000 0.245172 0
6.365000 0.219246 0
6.370000 0.193472 0
6.375000 0.168180 0
6.380000 0.143662 0
6.385000 0.120167 0
6.390000 0.097902 0
6.395000 0.077029 0
6.400000 0.057664 0
6.405000 0.039882 0
6.410000 0.023720 0
6.415000 0.009177 0
6.420000 -0.003778 0
6.425000 -0.015199 0
6.430000 -0.025164 0
6.435000 -0.033764 0
6.440000 -0.041103 0
6.445000 -0.047291 0
6.450000 -0.052440 0
6.455000 -0.056662 0
6.460000 -0.060066 0
6.465000 -0.062756 0
6.470000 -0.064828 0
6.475000 -0.066373 0
6.480000 -0.067469 0
6.485000 -0.068190 0
6.490000 -0.068598 0
6.495000 -0.068749 0
6.500000 -0.068691 0
6.505000 -0.068463 0
6.510000 -0.068100 0
6.515000 -0.067630 0
6.520000 -0.067076 0
6.525000 -0.066427 0
6.530000 -0.065596 0
6.535000 -0.064770 0
6.540000 -0.063948 0
6.545000 -0.063130 0
6.550000 -0.062317 0
6.555000 -0.061507 0
6.560000 -0.060701 0
6.565000 -0.059899 0
6.570000 -0.059102 0
6.575000 -0.058308 0
6.580000 -0.057518 0
6.585000 -0.056732 0
6.590000 -0.055951 0
6.595000 -0.055173 0
6.600000 -0.054398 0
6.605000 -0.053628 0
6.610000 -0.052862 0
6.615000 -0.052099 0
6.620000 -0.051340 0
6.625000 -0.050584 0
6.630000 -0.049832 0
6.635000 -0.049083 0
6.640000 -0.048336 0
6.645000 -0.047589 0
6.650000 -0.046842 0
6.655000 -0.046091 0
6.660000 -0.045331 0
6.665000 -0.044553 0
6.670000 -0.043746 0
6.675000 -0.042892 0
6.680000 -0.041962 0
6.685000 -0.040920 0
6.690000 -0.039712 0
6.695000 -0.038263 0
6.700000 -0.036479 0
6.705000 -0.034234 0
6.710000 -0.031373 0
6.715000 -0.027707 0
6.720000 -0.023017 0
6.725000 -0.017056 0
6.730000 -0.009561 0
6.735000 -0.000269 0
6.740000 0.011066 0
6.745000 0.024639 0
6.750000 0.040571 0
6.755000 0.058875 0
6.760000 0.079424 0
6.765000 0.101931 0
6.770000 0.125932 0
6.775000 0.150792 0
6.780000 0.175716 0
6.785000 0.199790 0
6.790000 0.222027 0
6.795000 0.241436 0
6.800000 0.257092 0
6.805000 0.268208 0
6.810000 0.274201 0
6.815000 0.274741 1
6.820000 0.269782 0
6.825000 0.259565 0
6.830000 0.244599 0
6.835000 0.225619 0
6.840000 0.203523 0
6.845000 0.179307 0
6.850000 0.153985 0
6.855000 0.128521 0
6.860000 0.103770 0
6.865000 0.080422 0
6.870000 0.058949 0
6.875000 0.039520 0
6.880000 0.021863 0
6.885000 0.005045 0
6.890000 -0.012736 0
6.895000 -0.034123 0
6.900000 -0.061951 0
6.905000 -0.097744 0
6.910000 -0.139634 0
6.915000 -0.180677 0
6.920000 -0.208722 2
6.925000 -0.208209 0
6.930000 -0.163037 0
6.935000 -0.059532 0
6.940000 0.110124 0
6.945000 0.342507 0
6.950000 0.616002 0
6.955000 0.887108 0
6.960000 1.097030 0
6.965000 1.190573 3
6.970000 1.136513 0
6.975000 0.943254 0
6.980000 0.663867 0
6.985000 0.365184 0
6.990000 0.102355 0
6.995000 -0.092675 0
7.000000 -0.209414 0
7.005000 -0.252685 4
7.010000 -0.237884 0
7.015000 -0.186933 0
7.020000 -0.122730 0
7.025000 -0.063056 0
7.030000 -0.017047 0
7.035000 0.014190 0
7.040000 0.034200 0
7.045000 0.047658 0
7.050000 0.058310 0
7.055000 0.068457 0
7.060000 0.079279 0
7.065000 0.091306 0
7.070000 0.104764 0
7.075000 0.119745 0
7.080000 0.136277 0
7.085000 0.154341 0
7.090000 0.173875 0
7.095000 0.194768 0
7.100000 0.216861 0
7.105000 0.239943 0
7.110000 0.263754 0
7.115000 0.287983 0
7.120000 0.312279 0
7.125000 0.336252 0
7.130000 0.359485 0
7.135000 0.381546 0
7.140000 0.402000 0
7.145000 0.420420 0
7.150000 0.436404 0
7.155000 0.449590 0
7.160000 0.459664 0
7.165000 0.466379 0
7.170000 0.469556 5
7.175000 0.469100 0
7.180000 0.464995 0
7.185000 0.457313 0
7.190000 0.446205 0
7.195000 0.431901 0
7.200000 0.414696 0
7.205000 0.394944 0
7.210000 0.373043 0
7.215000 0.349423 0
7.220000 0.324529 0
7.225000 0.298809 0
7.230000 0.272701 0
7.235000 0.246617 0
7.240000 0.220939 0
7.245000 0.196005 0
7.250000 0.172104 0
7.255000 0.149477 0
7.260000 0.128308 0
7.265000 0.108730 0
7.270000 0.090828 0
7.275000 0.074637 0
7.280000 0.060153 0
7.285000 0.047336 0
7.290000 0.036118 0
7.295000 0.026407 0
7.300000 0.018096 0
7.305000 0.011064 0
7.310000 0.005189 0
7.315000 0.000343 0
7.320000 -0.003596 0
7.325000 -0.006746 0
7.330000 -0.009218 0
7.335000 -0.011114 0
7.340000 -0.012525 0
7.345000 -0.013532 0
7.350000 -0.014207 0
7.355000 -0.014611 0
7.360000 -0.014797 0
7.365000 -0.014809 0
7.370000 -0.014683 0
7.375000 -0.014450 0
7.380000 -0.014135 0
7.385000 -0.013728 0
7.390000 -0.013161 0
7.395000 -0.012596 0
7.400000 -0.012035 0
7.405000 -0.011476 0
7.410000 -0.010919 0
7.415000 -0.010366 0
7.420000 -0.009815 0
7.425000 -0.009267 0
7.430000 -0.008722 0
7.435000 -0.008180 0
7.440000 -0.007640 0
7.445000 -0.007103 0
7.450000 -0.006569 0
7.455000 -0.006037 0
7.460000 -0.005508 0
7.465000 -0.004981 0
7.470000 -0.004457 0
7.475000 -0.003936 0
7.480000 -0.003417 0
7.485000 -0.002899 0
7.490000 -0.002383 0
7.495000 -0.001867 0
7.500000 -0.001349 0
7.505000 -0.000826 0
7.510000 -0.000294 0
7.515000 0.000258 0
7.520000 0.000842 0
7.525000 0.001479 0
7.530000 0.002199 0
7.535000 0.003049 0
7.540000 0.004090 0
7.545000 0.005412 0
7.550000 0.007132 0
7.555000 0.009401 0
7.560000 0.012410 0
7.565000 0.016386 0
7.570000 0.021594 0
7.575000 0.028321 0
7.580000 0.036867 0
7.585000 0.047513 0
7.590000 0.060495 0
7.595000 0.075967 0
7.600000 0.093957 0
7.605000 0.114334 0
7.610000 0.136776 0
7.615000 0.160753 0
7.620000 0.185530 0
7.625000 0.210191 0
7.630000 0.233688 0
7.635000 0.254905 0
7.640000 0.272751 0
7.645000 0.286243 0
7.650000 0.294597 0
7.655000 0.297304 1
7.660000 0.294176 0
7.665000 0.285370 0
7.670000 0.271366 0
7.675000 0.252932 0
7.680000 0.231045 0
7.685000 0.206808 0
7.690000 0.181357 0
7.695000 0.155772 0
7.700000 0.131000 0
7.705000 0.107792 0
7.710000 0.086623 0
7.715000 0.067587 0
7.720000 0.050189 0
7.725000 0.033065 0
7.730000 0.013786 0
7.735000 -0.010837 0
7.740000 -0.043455 0
7.745000 -0.083827 0
7.750000 -0.126351 0
7.755000 -0.159088 0
7.760000 -0.165310 2
7.765000 -0.126878 0
7.770000 -0.027972 0
7.775000 0.140723 0
7.780000 0.375459 0
7.785000 0.650855 0
7.790000 0.915913 0
7.795000 1.104027 0
7.800000 1.158279 3
7.805000 1.060752 0
7.810000 0.840407 0
7.815000 0.551788 0
7.820000 0.255841 0
7.825000 0.000130 0
7.830000 -0.188666 0
7.835000 -0.302275 0
7.840000 -0.345570 4
7.845000 -0.332661 0
7.850000 -0.283524 0
7.855000 -0.219398 0
7.860000 -0.157532 0
7.865000 -0.107775 0
7.870000 -0.072509 0
7.875000 -0.049213 0
7.880000 -0.033610 0
7.885000 -0.021847 0
7.890000 -0.011309 0
7.895000 -0.000531 0
7.900000 0.011203 0
7.905000 0.024211 0
7.910000 0.038633 0
7.915000 0.054525 0
7.920000 0.071896 0
7.925000 0.090716 0
7.930000 0.110916 0
7.935000 0.132384 0
7.940000 0.154964 0
7.945000 0.178458 0
7.950000 0.202620 0
7.955000 0.227163 0
7.960000 0.251763 0
7.965000 0.276064 0
7.970000 0.299685 0
7.975000 0.322231 0
7.980000 0.343302 0
7.985000 0.362503 0
7.990000 0.379462 0
7.995000 0.393834 0
8.000000 0.405316 0
8.005000 0.413660 0
8.010000 0.418676 0
8.015000 0.420242 5
8.020000 0.418309 0
8.025000 0.412902 0
8.030000 0.404119 0
8.035000 0.392127 0
8.040000 0.377159 0
8.045000 0.359506 0
8.050000 0.339504 0
8.055000 0.317526 0
8.060000 0.293970 0
8.065000 0.269246 0
8.070000 0.243765 0
8.075000 0.217927 0
8.080000 0.192113 0
8.085000 0.166671 0
8.090000 0.141916 0
8.095000 0.118119 0
8.100000 0.095507 0
8.105000 0.074260 0
8.110000 0.054511 0
8.115000 0.036350 0
8.120000 0.019822 0
8.125000 0.004938 0
8.130000 -0.008328 0
8.135000 -0.020026 0
8.140000 -0.030232 0
8.145000 -0.039037 0
8.150000 -0.046546 0
8.155000 -0.052870 0
8.160000 -0.058125 0
8.165000 -0.062426 0
8.170000 -0.065885 0
8.175000 -0.068610 0
8.180000 -0.070701 0
8.185000 -0.072249 0
8.190000 -0.073340 0
8.195000 -0.074046 0
8.200000 -0.074433 0
8.205000 -0.074559 0
8.210000 -0.074472 0
8.215000 -0.074214 0
8.220000 -0.073819 0
8.225000 -0.073317 0
8.230000 -0.072730 0
8.235000 -0.072049 0
8.240000 -0.071191 0
8.245000 -0.070337 0
8.250000 -0.069487 0
8.255000 -0.068641 0
8.260000 -0.067800 0
8.265000 -0.066963 0
8.270000 -0.066130 0
8.275000 -0.065301 0
8.280000 -0.064477 0
8.285000 -0.063656 0
8.290000 -0.062840 0
8.295000 -0.062028 0
8.300000 -0.061219 0
8.305000 -0.060415 0
8.310000 -0.059615 0
8.315000 -0.058818 0
8.320000 -0.058026 0
8.325000 -0.057237 0
8.330000 -0.056453 0
8.335000 -0.055672 0
8.340000 -0.054894 0
8.345000 -0.054119 0
8.350000 -0.053345 0
8.355000 -0.052573 0
8.360000 -0.051798 0
8.365000 -0.051018 0
8.370000 -0.050225 0
8.375000 -0.049409 0
8.380000 -0.048557 0
8.385000 -0.047645 0
8.390000 -0.046640 0
8.395000 -0.045495 0
8.400000 -0.044147 0
8.405000 -0.042507 0
8.410000 -0.040462 0
8.415000 -0.037867 0
8.420000 -0.034543 0
8.425000 -0.030277 0
8.430000 -0.024826 0
8.435000 -0.017926 0
8.440000 -0.009303 0
8.445000 0.001304 0
8.450000 0.014118 0
8.455000 0.029295 0
8.460000 0.046886 0
8.465000 0.066809 0
8.470000 0.088822 0
8.475000 0.112502 0
8.480000 0.137242 0
8.485000 0.162268 0
8.490000 0.186664 0
8.495000 0.209429 0
8.500000 0.229541 0
8.505000 0.246027 0
8.510000 0.258046 0
8.515000 0.264958 0
8.520000 0.266377 1
8.525000 0.262211 0
8.530000 0.252666 0
8.535000 0.238233 0
8.540000 0.219644 0
8.545000 0.197809 0
8.550000 0.173744 0
8.555000 0.148493 0
8.560000 0.123051 0
8.565000 0.098301 0
8.570000 0.074959 0
8.575000 0.053512 0
8.580000 0.034135 0
8.585000 0.016540 0
8.590000 -0.000255 0
8.595000 -0.018140 0
8.600000 -0.039862 0
8.605000 -0.068299 0
8.610000 -0.104807 0
8.615000 -0.147020 0
8.620000 -0.187187 0
8.625000 -0.212266 2
8.630000 -0.206014 0
8.635000 -0.152079 0
8.640000 -0.037125 0
8.645000 0.145289 0
8.650000 0.388591 0
8.655000 0.666009 0
8.660000 0.928381 0
8.665000 1.114122 0
8.670000 1.171292 3
8.675000 1.080024 0
8.680000 0.862476 0
8.685000 0.574297 0
8.690000 0.278373 0
8.695000 0.023695 0
8.700000 -0.162607 0
8.705000 -0.272537 0
8.710000 -0.311685 4
8.715000 -0.295123 0
8.720000 -0.243763 0
8.725000 -0.179323 0
8.730000 -0.118833 0
8.735000 -0.071373 0
8.740000 -0.038464 0
8.745000 -0.017012 0
8.750000 -0.002567 0
8.755000 0.008624 0
8.760000 0.018984 0
8.765000 0.029811 0
8.770000 0.041718 0
8.775000 0.054972 0
8.780000 0.069686 0
8.785000 0.085902 0
8.790000 0.103617 0
8.795000 0.122788 0
8.800000 0.143328 0
8.805000 0.165107 0
8.810000 0.187947 0
8.815000 0.211624 0
8.820000 0.235867 0
8.825000 0.260364 0
8.830000 0.284764 0
8.835000 0.308688 0
8.840000 0.331734 0
8.845000 0.353490 0
8.850000 0.373545 0
8.855000 0.391501 0
8.860000 0.406987 0
8.865000 0.419671 0
8.870000 0.429269 0
8.875000 0.435558 0
8.880000 0.438384 5
8.885000 0.437667 0
8.890000 0.433402 0
8.895000 0.425663 0
8.900000 0.414601 0
8.905000 0.400433 0
8.910000 0.383442 0
8.915000 0.363962 0
8.920000 0.342368 0
8.925000 0.319066 0
8.930000 0.294476 0
8.935000 0.269024 0
8.940000 0.243126 0
8.945000 0.217178 0
8.950000 0.191549 0
8.955000 0.166568 0
8.960000 0.142523 0
8.965000 0.119654 0
8.970000 0.098152 0
8.975000 0.078161 0
8.980000 0.059776 0
8.985000 0.043048 0
8.990000 0.027989 0
8.995000 0.014575 0
9.000000 0.002755 0
9.005000 -0.007551 0
9.010000 -0.016435 0
9.015000 -0.024006 0
9.020000 -0.030379 0
9.025000 -0.035674 0
9.030000 -0.040008 0
9.035000 -0.043499 0
9.040000 -0.046254 0
9.045000 -0.048378 0
9.050000 -0.049964 0
9.055000 -0.051096 0
9.060000 -0.051850 0
9.065000 -0.052292 0
9.070000 -0.052478 0
9.075000 -0.052458 0
9.080000 -0.052272 0
9.085000 -0.051955 0
9.090000 -0.051535 0
9.095000 -0.051035 0
9.100000 -0.050447 0
9.105000 -0.049696 0
9.110000 -0.048950 0
9.115000 -0.048207 0
9.120000 -0.047467 0
9.125000 -0.046732 0
9.130000 -0.046000 0
9.135000 -0.045271 0
9.140000 -0.044546 0
9.145000 -0.043825 0
9.150000 -0.043108 0
9.155000 -0.042394 0
9.160000 -0.041684 0
9.165000 -0.040977 0
9.170000 -0.040273 0
9.175000 -0.039574 0
9.180000 -0.038877 0
9.185000 -0.038184 0
9.190000 -0.037495 0
9.195000 -0.036808 0
9.200000 -0.036125 0
9.205000 -0.035444 0
9.210000 -0.034764 0
9.215000 -0.034086 0
9.220000 -0.033405 0
9.225000 -0.032720 0
9.230000 -0.032023 0
9.235000 -0.031307 0
9.240000 -0.030556 0
9.245000 -0.029750 0
9.250000 -0.028858 0
9.255000 -0.027834 0
9.260000 -0.026616 0
9.265000 -0.025118 0
9.270000 -0.023227 0
9.275000 -0.020798 0
9.280000 -0.017651 0
9.285000 -0.013570 0
9.290000 -0.008308 0
9.295000 -0.001591 0
9.300000 0.006862 0
9.305000 0.017322 0
9.310000 0.030021 0
9.315000 0.045120 0
9.320000 0.062674 0
9.325000 0.082595 0
9.330000 0.104626 0
9.335000 0.128323 0
9.340000 0.153047 0
9.345000 0.177985 0
9.350000 0.202182 0
9.355000 0.224600 0
9.360000 0.244183 0
9.365000 0.259945 0
9.370000 0.271045 0
9.375000 0.276863 0
9.380000 0.277060 1
9.385000 0.271602 0
9.390000 0.260772 0
9.395000 0.245140 0
9.400000 0.225514 0
9.405000 0.202871 0
9.410000 0.178276 0
9.415000 0.152798 0
9.420000 0.127435 0
9.425000 0.103044 0
9.430000 0.080291 0
9.435000 0.059571 0
9.440000 0.040904 0
9.445000 0.023736 0
9.450000 0.006684 0
9.455000 -0.012623 0
9.460000 -0.037226 0
9.465000 -0.069622 0
9.470000 -0.109641 0
9.475000 -0.152204 0
9.480000 -0.186364 0
9.485000 -0.196558 2
9.490000 -0.165563 0
9.495000 -0.077847 0
9.500000 0.076857 0
9.505000 0.298140 0
9.510000 0.567266 0
9.515000 0.841787 0
9.520000 1.060723 0
9.525000 1.164152 3
9.530000 1.124444 0
9.535000 0.951791 0
9.540000 0.687365 0
9.545000 0.387924 0
9.550000 0.105655 0
9.555000 -0.123982 0
9.560000 -0.284020 0
9.565000 -0.372030 0
9.570000 -0.395870 4
9.575000 -0.370708 0
9.580000 -0.315924 0
9.585000 -0.250811 0
9.590000 -0.190202 0
9.595000 -0.142034 0
9.600000 -0.107772 0
9.605000 -0.084792 0
9.610000 -0.069094 0
9.615000 -0.057108 0
9.620000 -0.046379 0
9.625000 -0.035497 0
9.630000 -0.023751 0
9.635000 -0.010811 0
9.640000 0.003470 0
9.645000 0.019156 0
9.650000 0.036264 0
9.655000 0.054777 0
9.660000 0.074641 0
9.665000 0.095768 0
9.670000 0.118029 0
9.675000 0.141256 0
9.680000 0.165241 0
9.685000 0.189738 0
9.690000 0.214464 0
9.695000 0.239104 0
9.700000 0.263319 0
9.705000 0.286750 0
9.710000 0.309027 0
9.715000 0.329780 0
9.720000 0.348648 0
9.725000 0.365289 0
9.730000 0.379390 0
9.735000 0.390676 0
9.740000 0.398921 0
9.745000 0.403954 0
9.750000 0.405663 5
9.755000 0.404003 0
9.760000 0.398991 0
9.765000 0.390714 0
9.770000 0.379320 0
9.775000 0.365016 0
9.780000 0.348060 0
9.785000 0.328757 0
9.790000 0.307445 0
9.795000 0.284487 0
9.800000 0.260261 0
9.805000 0.235149 0
9.810000 0.209529 0
9.815000 0.183762 0
9.820000 0.158189 0
9.825000 0.133118 0
9.830000 0.108824 0
9.835000 0.085544 0
9.840000 0.063472 0
9.845000 0.042760 0
9.850000 0.023522 0
9.855000 0.005828 0
9.860000 -0.010285 0
9.865000 -0.024814 0
9.870000 -0.037787 0
9.875000 -0.049253 0
9.880000 -0.059284 0
9.885000 -0.067965 0
9.890000 -0.075393 0
9.895000 -0.081671 0
9.900000 -0.086907 0
9.905000 -0.091209 0
9.910000 -0.094680 0
9.915000 -0.097423 0
9.920000 -0.099530 0
9.925000 -0.101091 0
9.930000 -0.102186 0
9.935000 -0.102886 0
9.940000 -0.103255 0
9.945000 -0.103349 0
9.950000 -0.103218 0
9.955000 -0.102904 0
9.960000 -0.102440 0
9.965000 -0.101858 0
9.970000 -0.101183 0
9.975000 -0.100434 0
9.980000 -0.099601 0
9.985000 -0.098605 0
9.990000 -0.097614 0
9.995000 -0.096628 0
10.000000 -0.095647 0
10.005000 -0.094671 0
10.010000 -0.093700 0
10.015000 -0.092734 0
10.020000 -0.091773 0
10.025000 -0.090816 0
10.030000 -0.089864 0
10.035000 -0.088917 0
10.040000 -0.087975 0
10.045000 -0.087037 0
10.050000 -0.086104 0
10.055000 -0.085175 0
10.060000 -0.084252 0
10.065000 -0.083332 0
10.070000 -0.082418 0
10.075000 -0.081507 0
10.080000 -0.080602 0
10.085000 -0.079700 0
10.090000 -0.078802 0
10.095000 -0.077907 0
10.100000 -0.077014 0
10.105000 -0.076121 0
10.110000 -0.075226 0
10.115000 -0.074325 0
10.120000 -0.073411 0
10.125000 -0.072472 0
10.130000 -0.071496 0
10.135000 -0.070458 0
10.140000 -0.069327 0
10.145000 -0.068058 0
10.150000 -0.066590 0
10.155000 -0.064841 0
10.160000 -0.062707 0
10.165000 -0.060054 0
10.170000 -0.056718 0
10.175000 -0.052507 0
10.180000 -0.047199 0
10.185000 -0.040552 0
10.190000 -0.032312 0
10.195000 -0.022233 0
10.200000 -0.010093 0
10.205000 0.004276 0
10.210000 0.020961 0
10.215000 0.039942 0
10.220000 0.061062 0
10.225000 0.084013 0
10.230000 0.108320 0
10.235000 0.133349 0
10.240000 0.158325 0
10.245000 0.182362 0
10.250000 0.204519 0
10.255000 0.223852 0
10.260000 0.239483 0
10.265000 0.250670 0
10.270000 0.256855 0
10.275000 0.257721 1
10.280000 0.253212 0
10.285000 0.243540 0
10.290000 0.229169 0
10.295000 0.210779 0
10.300000 0.189211 0
10.305000 0.165402 0
10.310000 0.140322 0
10.315000 0.114906 0
10.320000 0.089998 0
10.325000 0.066300 0
10.330000 0.044327 0
10.335000 0.024341 0
10.340000 0.006239 0
10.345000 -0.010620 0
10.350000 -0.027625 0
10.355000 -0.047012 0
10.360000 -0.071536 0
10.365000 -0.103446 0
10.370000 -0.142741 0
10.375000 -0.185324 0
10.380000 -0.222069 0
10.385000 -0.239586 2
10.390000 -0.222451 0
10.395000 -0.155917 0
10.400000 -0.028642 0
10.405000 0.163668 0
10.410000 0.412595 0
10.415000 0.690961 0
10.420000 0.951744 0
10.425000 1.137547 0
10.430000 1.200000 3
10.435000 1.116388 0
10.440000 0.905841 0
10.445000 0.620958 0
10.450000 0.323108 0
10.455000 0.061728 0
10.460000 -0.134450 0
10.465000 -0.255582 0
10.470000 -0.305456 4
10.475000 -0.297418 0
10.480000 -0.251054 0
10.485000 -0.187721 0
10.490000 -0.125261 0
10.495000 -0.074304 0
10.500000 -0.037874 0
10.505000 -0.013783 0
10.510000 0.002195 0
10.515000 0.014009 0
10.520000 0.024402 0
10.525000 0.034934 0
10.530000 0.046375 0
10.535000 0.059071 0
10.540000 0.073173 0
10.545000 0.088743 0
10.550000 0.105794 0
10.555000 0.124299 0
10.560000 0.144194 0
10.565000 0.165370 0
10.570000 0.187678 0
10.575000 0.210920 0
10.580000 0.234856 0
10.585000 0.259204 0
10.590000 0.283642 0
10.595000 0.307817 0
10.600000 0.331350 0
10.605000 0.353846 0
10.610000 0.374906 0
10.615000 0.394134 0
10.620000 0.411153 0
10.625000 0.425618 0
10.630000 0.437220 0
10.635000 0.445705 0
10.640000 0.450878 0
10.645000 0.452610 5
10.650000 0.450844 0
10.655000 0.445600 0
10.660000 0.436967 0
10.665000 0.425108 0
10.670000 0.410249 0
10.675000 0.392676 0
10.680000 0.372721 0
10.685000 0.350754 0
10.690000 0.327173 0
10.695000 0.302386 0
10.700000 0.276804 0
10.705000 0.250831 0
10.710000 0.224847 0
10.715000 0.199206 0
10.720000 0.174224 0
10.725000 0.150179 0
10.730000 0.127300 0
10.735000 0.105772 0
10.740000 0.085734 0
10.745000 0.067276 0
10.750000 0.050452 0
10.755000 0.035271 0
10.760000 0.021715 0
10.765000 0.009732 0
10.770000 -0.000750 0
10.775000 -0.009822 0
10.780000 -0.017586 0
10.785000 -0.024155 0
10.790000 -0.029643 0
10.795000 -0.034166 0
10.800000 -0.037836 0
10.805000 -0.040762 0
10.810000 -0.043044 0
10.815000 -0.044775 0
10.820000 -0.046040 0
10.825000 -0.046914 0
10.830000 -0.047463 0
10.835000 -0.047744 0
10.840000 -0.047808 0
10.845000 -0.047697 0
10.850000 -0.047446 0
10.855000 -0.047084 0
10.860000 -0.046635 0
10.865000 -0.046120 0
10.870000 -0.045422 0
10.875000 -0.044696 0
10.880000 -0.043975 0
10.885000 -0.043256 0
10.890000 -0.042542 0
10.895000 -0.041831 0
10.900000 -0.041123 0
10.905000 -0.040419 0
10.910000 -0.039718 0
10.915000 -0.039021 0
10.920000 -0.038328 0
10.925000 -0.037638 0
10.930000 -0.036951 0
10.935000 -0.036268 0
10.940000 -0.035588 0
10.945000 -0.034911 0
10.950000 -0.034238 0
10.955000 -0.033568 0
10.960000 -0.032902 0
10.965000 -0.032238 0
10.970000 -0.031577 0
10.975000 -0.030919 0
10.980000 -0.030261 0
10.985000 -0.029604 0
10.990000 -0.028945 0
10.995000 -0.028279 0
11.000000 -0.027601 0
11.005000 -0.026902 0
11.010000 -0.026166 0
11.015000 -0.025372 0
11.020000 -0.024488 0
11.025000 -0.023469 0
11.030000 -0.022251 0
11.035000 -0.020750 0
11.040000 -0.018855 0
11.045000 -0.016422 0
11.050000 -0.013276 0
11.055000 -0.009207 0
11.060000 -0.003975 0
11.065000 0.002685 0
11.070000 0.011045 0
11.075000 0.021369 0
11.080000 0.033884 0
11.085000 0.048753 0
11.090000 0.066037 0
11.095000 0.085667 0
11.100000 0.107415 0
11.105000 0.130873 0
11.110000 0.155450 0
11.115000 0.180383 0
11.120000 0.204769 0
11.125000 0.227610 0
11.130000 0.247882 0
11.135000 0.264607 0
11.140000 0.276928 0
11.145000 0.284186 0
11.150000 0.285972 1
11.155000 0.282169 0
11.160000 0.272959 0
11.165000 0.258810 0
11.170000 0.240436 0
11.175000 0.218737 0
11.180000 0.194722 0
11.185000 0.169435 0
11.190000 0.143880 0
11.195000 0.118950 0
11.200000 0.095377 0
11.205000 0.073670 0
11.210000 0.054035 0
11.215000 0.036228 0
11.220000 0.019334 0
11.225000 0.001541 0
11.230000 -0.019845 0
11.235000 -0.047740 0
11.240000 -0.083706 0
11.245000 -0.125756 0
11.250000 -0.166602 0
11.255000 -0.193570 2
11.260000 -0.190566 0
11.265000 -0.141124 0
11.270000 -0.031540 0
11.275000 0.145376 0
11.280000 0.384378 0
11.285000 0.660513 0
11.290000 0.926230 0
11.295000 1.120232 0
11.300000 1.188854 3
11.305000 1.111104 0
11.310000 0.906353 0
11.315000 0.624616 0
11.320000 0.325740 0
11.325000 0.059248 0
11.330000 -0.144948 0
11.335000 -0.275498 0
11.340000 -0.334671 4
11.345000 -0.334318 0
11.350000 -0.292781 0
11.355000 -0.230894 0
11.360000 -0.166987 0
11.365000 -0.112925 0
11.370000 -0.073091 0
11.375000 -0.046226 0
11.380000 -0.028443 0
11.385000 -0.015693 0
11.390000 -0.004967 0
11.395000 0.005544 0
11.400000 0.016776 0
11.405000 0.029162 0
11.410000 0.042895 0
11.415000 0.058060 0
11.420000 0.074682 0
11.425000 0.092750 0
11.430000 0.112215 0
11.435000 0.132990 0
11.440000 0.154946 0
11.445000 0.177912 0
11.450000 0.201672 0
11.455000 0.225971 0
11.460000 0.250514 0
11.465000 0.274971 0
11.470000 0.298988 0
11.475000 0.322186 0
11.480000 0.344179 0
11.485000 0.364580 0
11.490000 0.383011 0
11.495000 0.399118 0
11.500000 0.412577 0
11.505000 0.423111 0
11.510000 0.430492 0
11.515000 0.434555 0
11.520000 0.435198 5
11.525000 0.432393 0
11.530000 0.426178 0
11.535000 0.416666 0
11.540000 0.404031 0
11.545000 0.388512 0
11.550000 0.370399 0
11.555000 0.350025 0
11.560000 0.327756 0
11.565000 0.303983 0
11.570000 0.279104 0
11.575000 0.253518 0
11.580000 0.227612 0
11.585000 0.201753 0
11.590000 0.176280 0
11.595000 0.151496 0
11.600000 0.127663 0
11.605000 0.105001 0
11.610000 0.083684 0
11.615000 0.063844 0
11.620000 0.045567 0
11.625000 0.028901 0
11.630000 0.013856 0
11.635000 0.000411 0
11.640000 -0.011482 0
11.645000 -0.021894 0
11.650000 -0.030913 0
11.655000 -0.038639 0
11.660000 -0.045179 0
11.665000 -0.050645 0
11.670000 -0.055150 0
11.675000 -0.058804 0
11.680000 -0.061712 0
11.685000 -0.063972 0
11.690000 -0.065678 0
11.695000 -0.066911 0
11.700000 -0.067747 0
11.705000 -0.068251 0
11.710000 -0.068481 0
11.715000 -0.068487 0
11.720000 -0.068312 0
11.725000 -0.067991 0
11.730000 -0.067554 0
11.735000 -0.067027 0
11.740000 -0.066428 0
11.745000 -0.065632 0
11.750000 -0.064806 0
11.755000 -0.063984 0
11.760000 -0.063166 0
11.765000 -0.062352 0
11.770000 -0.061542 0
11.775000 -0.060736 0
11.780000 -0.059934 0
11.785000 -0.059136 0
11.790000 -0.058342 0
11.795000 -0.057552 0
11.800000 -0.056766 0
11.805000 -0.055984 0
11.810000 -0.055206 0
11.815000 -0.054432 0
11.820000 -0.053661 0
11.825000 -0.052895 0
11.830000 -0.052132 0
11.835000 -0.051373 0
11.840000 -0.050617 0
11.845000 -0.049865 0
11.850000 -0.049116 0
11.855000 -0.048369 0
11.860000 -0.047624 0
11.865000 -0.046879 0
11.870000 -0.046131 0
11.875000 -0.045375 0
11.880000 -0.044606 0
11.885000 -0.043812 0
11.890000 -0.042978 0
11.895000 -0.042080 0
11.900000 -0.041085 0
11.905000 -0.039944 0
11.910000 -0.038593 0
11.915000 -0.036943 0
11.920000 -0.034882 0
11.925000 -0.032264 0
11.930000 -0.028914 0
11.935000 -0.024624 0
11.940000 -0.019156 0
11.945000 -0.012252 0
11.950000 -0.003647 0
11.955000 0.006912 0
11.960000 0.019644 0
11.965000 0.034699 0
11.970000 0.052134 0
11.975000 0.071876 0
11.980000 0.093701 0
11.985000 0.117211 0
11.990000 0.141834 0
11.995000 0.166834 0
12.000000 0.191336 0
12.005000 0.214377 0
12.010000 0.234960 0
12.015000 0.252129 0
12.020000 0.265037 0
12.025000 0.273019 0
12.030000 0.275645 1
12.035000 0.272761 0
12.040000 0.264497 0
12.045000 0.251266 0
12.050000 0.233721 0
12.055000 0.212704 0
12.060000 0.189180 0
12.065000 0.164164 0
12.070000 0.138644 0
12.075000 0.113524 0
12.080000 0.089561 0
12.085000 0.067319 0
12.090000 0.047096 0
12.095000 0.028816 0
12.100000 0.011832 0
12.105000 -0.005298 0
12.110000 -0.024918 0
12.115000 -0.049911 0
12.120000 -0.082549 0
12.125000 -0.122552 0
12.130000 -0.165116 0
12.135000 -0.200058 0
12.140000 -0.212883 2
12.145000 -0.187373 0
12.150000 -0.108554 0
12.155000 0.034221 0
12.160000 0.242837 0
12.165000 0.503794 0
12.170000 0.782383 0
12.175000 1.024421 0
12.180000 1.170511 0
12.185000 1.178967 3
12.190000 1.039953 0
12.195000 0.789290 0
12.200000 0.491016 0
12.205000 0.207215 0
12.210000 -0.020010 0
12.215000 -0.171614 0
12.220000 -0.246361 0
12.225000 -0.255308 4
12.230000 -0.217856 0
12.235000 -0.157067 0
12.240000 -0.093576 0
12.245000 -0.040591 0
12.250000 -0.002624 0
12.255000 0.022157 0
12.260000 0.038221 0
12.265000 0.049871 0
12.270000 0.060075 0
12.275000 0.070485 0
12.280000 0.081890 0
12.285000 0.094633 0
12.290000 0.108856 0
12.295000 0.124616 0
12.300000 0.141917 0
12.305000 0.160718 0
12.310000 0.180936 0
12.315000 0.202438 0
12.320000 0.225041 0
12.325000 0.248513 0
12.330000 0.272571 0
12.335000 0.296889 0
12.340000 0.321099 0
12.345000 0.344800 0
12.350000 0.367572 0
12.355000 0.388982 0
12.360000 0.408600 0
12.365000 0.426013 0
12.370000 0.440837 0
12.375000 0.452732 0
12.380000 0.461415 0
12.385000 0.466667 0
12.390000 0.468345 5
12.395000 0.466388 0
12.400000 0.460816 0
12.405000 0.451734 0
12.410000 0.439322 0
12.415000 0.423836 0
12.420000 0.405595 0
12.425000 0.384968 0
12.430000 0.362363 0
12.435000 0.338214 0
12.440000 0.312967 0
12.445000 0.287063 0
12.450000 0.260927 0
12.455000 0.234961 0
12.460000 0.209526 0
12.465000 0.184941 0
12.470000 0.161477 0
12.475000 0.139352 0
12.480000 0.118732 0
12.485000 0.099731 0
12.490000 0.082416 0
12.495000 0.066809 0
12.500000 0.052892 0
12.505000 0.040617 0
12.510000 0.029908 0
12.515000 0.020667 0
12.520000 0.012783 0
12.525000 0.006137 0
12.530000 0.000603 0
12.535000 -0.003943 0
12.540000 -0.007621 0
12.545000 -0.010547 0
12.550000 -0.012828 0
12.555000 -0.014562 0
12.560000 -0.015837 0
12.565000 -0.016730 0
12.570000 -0.017311 0
12.575000 -0.017637 0
12.580000 -0.017758 0
12.585000 -0.017716 0
12.590000 -0.017546 0
12.595000 -0.017276 0
12.600000 -0.016928 0
12.605000 -0.016379 0
12.610000 -0.015798 0
12.615000 -0.015220 0
12.620000 -0.014646 0
12.625000 -0.014074 0
12.630000 -0.013504 0
12.635000 -0.012938 0
12.640000 -0.012375 0
12.645000 -0.011814 0
12.650000 -0.011256 0
12.655000 -0.010701 0
12.660000 -0.010149 0
12.665000 -0.009599 0
12.670000 -0.009052 0
12.675000 -0.008508 0
12.680000 -0.007967 0
12.685000 -0.007428 0
12.690000 -0.006892 0
12.695000 -0.006358 0
12.700000 -0.005827 0
12.705000 -0.005297 0
12.710000 -0.004769 0
12.715000 -0.004240 0
12.720000 -0.003710 0
12.725000 -0.003174 0
12.730000 -0.002627 0
12.735000 -0.002059 0
12.740000 -0.001458 0
12.745000 -0.000800 0
12.750000 -0.000054 0
12.755000 0.000827 0
12.760000 0.001909 0
12.765000 0.003282 0
12.770000 0.005066 0
12.775000 0.007417 0
12.780000 0.010526 0
12.785000 0.014624 0
12.790000 0.019975 0
12.795000 0.026868 0
12.800000 0.035597 0
12.805000 0.046441 0
12.810000 0.059629 0
12.815000 0.075302 0
12.820000 0.093479 0
12.825000 0.114018 0
12.830000 0.136585 0
12.835000 0.160640 0
12.840000 0.185444 0
12.845000 0.210079 0
12.850000 0.233498 0
12.855000 0.254597 0
12.860000 0.272293 0
12.865000 0.285618 0
12.870000 0.293804 0
12.875000 0.296355 1
12.880000 0.293094 0
12.885000 0.284184 0
12.890000 0.270109 0
12.895000 0.251633 0
12.900000 0.229729 0
12.905000 0.205491 0
12.910000 0.180046 0
12.915000 0.154467 0
12.920000 0.129692 0
12.925000 0.106469 0
12.930000 0.085273 0
12.935000 0.066205 0
12.940000 0.048788 0
12.945000 0.031695 0
12.950000 0.012545 0
12.955000 -0.011817 0
12.960000 -0.044078 0
12.965000 -0.084169 0
12.970000 -0.126806 0
12.975000 -0.160434 0
12.980000 -0.168631 2
12.985000 -0.133379 0
12.990000 -0.038736 0
12.995000 0.125119 0
13.000000 0.355632 0
13.005000 0.629429 0
13.010000 0.897721 0
13.015000 1.094881 0
13.020000 1.162456 3
13.025000 1.080034 0
13.030000 0.869966 0
13.035000 0.585214 0
13.040000 0.287639 0
13.045000 0.026981 0
13.050000 -0.167993 0
13.055000 -0.287582 0
13.060000 -0.335810 4
13.065000 -0.326316 0
13.070000 -0.278961 0
13.075000 -0.215246 0
13.080000 -0.152948 0
13.085000 -0.102466 0
13.090000 -0.066559 0
13.095000 -0.042851 0
13.100000 -0.027054 0
13.105000 -0.015241 0
13.110000 -0.004726 0
13.115000 0.006000 0
13.120000 0.017673 0
13.125000 0.030623 0
13.130000 0.044992 0
13.135000 0.060837 0
13.140000 0.078168 0
13.145000 0.096955 0
13.150000 0.117128 0
13.155000 0.138575 0
13.160000 0.161139 0
13.165000 0.184616 0
13.170000 0.208760 0
13.175000 0.233281 0
13.180000 0.257851 0
13.185000 0.282109 0
13.190000 0.305671 0
13.195000 0.328137 0
13.200000 0.349104 0
13.205000 0.368176 0
13.210000 0.384976 0
13.215000 0.399160 0
13.220000 0.410426 0
13.225000 0.418524 0
13.230000 0.423270 0
13.235000 0.424545 5
13.240000 0.422305 0
13.245000 0.416581 0
13.250000 0.407478 0
13.255000 0.395172 0
13.260000 0.379903 0
13.265000 0.361969 0
13.270000 0.341713 0
13.275000 0.319515 0
13.280000 0.295779 0
13.285000 0.270918 0
13.290000 0.245347 0
13.295000 0.219467 0
13.300000 0.193658 0
13.305000 0.168269 0
13.310000 0.143609 0
13.315000 0.119947 0
13.320000 0.097504 0
13.325000 0.076456 0
13.330000 0.056929 0
13.335000 0.039006 0
13.340000 0.022728 0
13.345000 0.008099 0
13.350000 -0.004912 0
13.355000 -0.016362 0
13.360000 -0.026328 0
13.365000 -0.034906 0
13.370000 -0.042203 0
13.375000 -0.048334 0
13.380000 -0.053414 0
13.385000 -0.057559 0
13.390000 -0.060882 0
13.395000 -0.063490 0
13.400000 -0.065481 0
13.405000 -0.066948 0
13.410000 -0.067971 0
13.415000 -0.068625 0
13.420000 -0.068973 0
13.425000 -0.069071 0
13.430000 -0.068965 0
13.435000 -0.068697 0
13.440000 -0.068299 0
13.445000 -0.067800 0
13.450000 -0.067221 0
13.455000 -0.066554 0
13.460000 -0.065724 0
13.465000 -0.064897 0
13.470000 -0.064074 0
13.475000 -0.063256 0
13.480000 -0.062441 0
13.485000 -0.061631 0
13.490000 -0.060825 0
13.495000 -0.060022 0
13.500000 -0.059224 0
13.505000 -0.058430 0
13.510000 -0.057639 0
13.515000 -0.056853 0
13.520000 -0.056070 0
13.525000 -0.055292 0
13.530000 -0.054517 0
13.535000 -0.053746 0
13.540000 -0.052979 0
13.545000 -0.052216 0
13.550000 -0.051456 0
13.555000 -0.050699 0
13.560000 -0.049946 0
13.565000 -0.049195 0
13.570000 -0.048445 0
13.575000 -0.047695 0
13.580000 -0.046942 0
13.585000 -0.046180 0
13.590000 -0.045403 0
13.595000 -0.044598 0
13.600000 -0.043747 0
13.605000 -0.042824 0
13.610000 -0.041792 0
13.615000 -0.040595 0
13.620000 -0.039160 0
13.625000 -0.037389 0
13.630000 -0.035153 0
13.635000 -0.032293 0
13.640000 -0.028613 0
13.645000 -0.023885 0
13.650000 -0.017853 0
13.655000 -0.010244 0
13.660000 -0.000785 0
13.665000 0.010775 0
13.670000 0.024633 0
13.675000 0.040903 0
13.680000 0.059578 0
13.685000 0.080504 0
13.690000 0.103353 0
13.695000 0.127608 0
13.700000 0.152576 0
13.705000 0.177400 0
13.710000 0.201109 0
13.715000 0.222672 0
13.720000 0.241073 0
13.725000 0.255389 0
13.730000 0.264865 0
13.735000 0.268979 1
13.740000 0.267491 0
13.745000 0.260464 0
13.750000 0.248260 0
13.755000 0.231507 0
13.760000 0.211049 0
13.765000 0.187870 0
13.770000 0.163018 0
13.775000 0.137530 0
13.780000 0.112355 0
13.785000 0.088297 0
13.790000 0.065958 0
13.795000 0.045667 0
13.800000 0.027361 0
13.805000 0.010381 0
13.810000 -0.006769 0
13.815000 -0.026537 0
13.820000 -0.051918 0
13.825000 -0.085167 0
13.830000 -0.125697 0
13.835000 -0.167997 0
13.840000 -0.200897 0
13.845000 -0.208947 2
13.850000 -0.175318 0
13.855000 -0.084996 0
13.860000 0.071760 0
13.865000 0.294164 0
13.870000 0.563542 0
13.875000 0.838259 0
13.880000 1.058722 0
13.885000 1.166071 3
13.890000 1.125769 0
13.895000 0.946178 0
13.900000 0.674715 0
13.905000 0.374947 0
13.910000 0.102377 0
13.915000 -0.108329 0
13.920000 -0.243387 0
13.925000 -0.304453 4
13.930000 -0.303918 0
13.935000 -0.261352 0
13.940000 -0.198939 0
13.945000 -0.135808 0
13.950000 -0.083756 0
13.955000 -0.046471 0
13.960000 -0.021921 0
13.965000 -0.005768 0
13.970000 0.006099 0
13.975000 0.016528 0
13.980000 0.027123 0
13.985000 0.038663 0
13.990000 0.051496 0
13.995000 0.065768 0
14.000000 0.081539 0
14.005000 0.098818 0
14.010000 0.117572 0
14.015000 0.137729 0
14.020000 0.159169 0
14.025000 0.181729 0
14.030000 0.205195 0
14.035000 0.229309 0
14.040000 0.253769 0
14.045000 0.278232 0
14.050000 0.302323 0
14.055000 0.325645 0
14.060000 0.347786 0
14.065000 0.368330 0
14.070000 0.386874 0
14.075000 0.403037 0
14.080000 0.416473 0
14.085000 0.426883 0
14.090000 0.434028 0
14.095000 0.437735 0
14.100000 0.437903 5
14.105000 0.434509 0
14.110000 0.427609 0
14.115000 0.417334 0
14.120000 0.403888 0
14.125000 0.387540 0
14.130000 0.368613 0
14.135000 0.347476 0
14.140000 0.324531 0
14.145000 0.300198 0
14.150000 0.274903 0
14.155000 0.249069 0
14.160000 0.223099 0
14.165000 0.197369 0
14.170000 0.172220 0
14.175000 0.147950 0
14.180000 0.124811 0
14.185000 0.103006 0
14.190000 0.082689 0
14.195000 0.063965 0
14.200000 0.046895 0
14.205000 0.031498 0
14.210000 0.017757 0
14.215000 0.005625 0
14.220000 -0.004972 0
14.225000 -0.014125 0
14.230000 -0.021940 0
14.235000 -0.028533 0
14.240000 -0.034022 0
14.245000 -0.038528 0
14.250000 -0.042167 0
14.255000 -0.045050 0
14.260000 -0.047282 0
14.265000 -0.048959 0
14.270000 -0.050167 0
14.275000 -0.050984 0
14.280000 -0.051478 0
14.285000 -0.051706 0
14.290000 -0.051721 0
14.295000 -0.051563 0
14.300000 -0.051268 0
14.305000 -0.050867 0
14.310000 -0.050382 0
14.315000 -0.049804 0
14.320000 -0.049057 0
14.325000 -0.048313 0
14.330000 -0.047573 0
14.335000 -0.046837 0
14.340000 -0.046104 0
14.345000 -0.045375 0
14.350000 -0.044650 0
14.355000 -0.043929 0
14.360000 -0.043211 0
14.365000 -0.042496 0
14.370000 -0.041785 0
14.375000 -0.041078 0
14.380000 -0.040374 0
14.385000 -0.039674 0
14.390000 -0.038977 0
14.395000 -0.038284 0
14.400000 -0.037594 0
14.405000 -0.036907 0
14.410000 -0.036223 0
14.415000 -0.035543 0
14.420000 -0.034865 0
14.425000 -0.034189 0
14.430000 -0.033513 0
14.435000 -0.032836 0
14.440000 -0.032155 0
14.445000 -0.031463 0
14.450000 -0.030752 0
14.455000 -0.030008 0
14.460000 -0.029211 0
14.465000 -0.028330 0
14.470000 -0.027322 0
14.475000 -0.026125 0
14.480000 -0.024656 0
14.485000 -0.022802 0
14.490000 -0.020421 0
14.495000 -0.017334 0
14.500000 -0.013327 0
14.505000 -0.008154 0
14.510000 -0.001541 0
14.515000 0.006794 0
14.520000 0.017126 0
14.525000 0.029689 0
14.530000 0.044652 0
14.535000 0.062075 0
14.540000 0.081880 0
14.545000 0.103817 0
14.550000 0.127448 0
14.555000 0.152142 0
14.560000 0.177089 0
14.565000 0.201334 0
14.570000 0.223836 0
14.575000 0.243534 0
14.580000 0.259434 0
14.585000 0.270685 0
14.590000 0.276657 0
14.595000 0.277000 1
14.600000 0.271673 0
14.605000 0.260952 0
14.610000 0.245404 0
14.615000 0.225837 0
14.620000 0.203230 0
14.625000 0.178653 0
14.630000 0.153178 0
14.635000 0.127809 0
14.640000 0.103411 0
14.645000 0.080650 0
14.650000 0.059926 0
14.655000 0.041260 0
14.660000 0.024094 0
14.665000 0.007033 0
14.670000 -0.012308 0
14.675000 -0.036985 0
14.680000 -0.069490 0
14.685000 -0.109601 0
14.690000 -0.152129 0
14.695000 -0.185984 0
14.700000 -0.195469 2
14.705000 -0.163287 0
14.710000 -0.073917 0
14.715000 0.082750 0
14.720000 0.305890 0
14.725000 0.575996 0
14.730000 0.849656 0
14.735000 1.065253 0
14.740000 1.163168 3
14.745000 1.116721 0
14.750000 0.937863 0
14.755000 0.669679 0
14.760000 0.369920 0
14.765000 0.090582 0
14.770000 -0.133834 0
14.775000 -0.287496 0
14.780000 -0.369002 0
14.785000 -0.387126 4
14.790000 -0.357834 0
14.795000 -0.300977 0
14.800000 -0.235790 0
14.805000 -0.176526 0
14.810000 -0.130309 0
14.815000 -0.097898 0
14.820000 -0.076288 0
14.825000 -0.061405 0
14.830000 -0.049785 0
14.835000 -0.039132 0
14.840000 -0.028162 0
14.845000 -0.016241 0
14.850000 -0.003080 0
14.855000 0.011449 0
14.860000 0.027400 0
14.865000 0.044782 0
14.870000 0.063571 0
14.875000 0.083704 0
14.880000 0.105083 0
14.885000 0.127570 0
14.890000 0.150982 0
14.895000 0.175102 0
14.900000 0.199668 0
14.905000 0.224386 0
14.910000 0.248929 0
14.915000 0.272947 0
14.920000 0.296073 0
14.925000 0.317930 0
14.930000 0.338145 0
14.935000 0.356356 0
14.940000 0.372225 0
14.945000 0.385445 0
14.950000 0.395753 0
14.955000 0.402937 0
14.960000 0.406842 0
14.965000 0.407378 5
14.970000 0.404520 0
14.975000 0.398312 0
14.980000 0.388863 0
14.985000 0.376346 0
14.990000 0.360991 0
14.995000 0.343079 0
15.000000 0.322931 0
15.005000 0.300903 0
15.010000 0.277370 0
15.015000 0.252717 0
15.020000 0.227332 0
15.025000 0.201591 0
15.030000 0.175852 0
15.035000 0.150447 0
15.040000 0.125675 0
15.045000 0.101797 0
15.050000 0.079033 0
15.055000 0.057562 0
15.060000 0.037518 0
15.065000 0.018996 0
15.070000 0.002051 0
15.075000 -0.013298 0
15.080000 -0.027063 0
15.085000 -0.039284 0
15.090000 -0.050023 0
15.095000 -0.059361 0
15.100000 -0.067389 0
15.105000 -0.074211 0
15.110000 -0.079934 0
15.115000 -0.084667 0
15.120000 -0.088518 0
15.125000 -0.091590 0
15.130000 -0.093983 0
15.135000 -0.095789 0
15.140000 -0.097092 0
15.145000 -0.097969 0
15.150000 -0.098487 0
15.155000 -0.098708 0
15.160000 -0.098682 0
15.165000 -0.098456 0
15.170000 -0.098068 0
15.175000 -0.097549 0
15.180000 -0.096928 0
15.185000 -0.096225 0
15.190000 -0.095429 0
15.195000 -0.094454 0
15.200000 -0.093484 0
15.205000 -0.092519 0
15.210000 -0.091559 0
15.215000 -0.090603 0
15.220000 -0.089652 0
15.225000 -0.088706 0
15.230000 -0.087765 0
15.235000 -0.086828 0
15.240000 -0.085896 0
15.245000 -0.084969 0
15.250000 -0.084046 0
15.255000 -0.083128 0
15.260000 -0.082215 0
15.265000 -0.081306 0
15.270000 -0.080401 0
15.275000 -0.079501 0
15.280000 -0.078606 0
15.285000 -0.077714 0
15.290000 -0.076827 0
15.295000 -0.075945 0
15.300000 -0.075065 0
15.305000 -0.074189 0
15.310000 -0.073315 0
15.315000 -0.072442 0
15.320000 -0.071567 0
15.325000 -0.070686 0
15.330000 -0.069793 0
15.335000 -0.068878 0
15.340000 -0.067927 0
15.345000 -0.066918 0
15.350000 -0.065819 0
15.355000 -0.064589 0
15.360000 -0.063166 0
15.365000 -0.061471 0
15.370000 -0.059401 0
15.375000 -0.056822 0
15.380000 -0.053573 0
15.385000 -0.049461 0
15.390000 -0.044262 0
15.395000 -0.037734 0
15.400000 -0.029618 0
15.405000 -0.019665 0
15.410000 -0.007648 0
15.415000 0.006608 0
15.420000 0.023194 0
15.425000 0.042095 0
15.430000 0.063157 0
15.435000 0.086070 0
15.440000 0.110356 0
15.445000 0.135373 0
15.450000 0.160336 0
15.455000 0.184349 0
15.460000 0.206454 0
15.465000 0.225697 0
15.470000 0.241192 0
15.475000 0.252188 0
15.480000 0.258131 0
15.485000 0.258711 1
15.490000 0.253884 0
15.495000 0.243881 0
15.500000 0.229188 0
15.505000 0.210508 0
15.510000 0.188702 0
15.515000 0.164727 0
15.520000 0.139564 0
15.525000 0.114155 0
15.530000 0.089341 0
15.535000 0.065817 0
15.540000 0.044076 0
15.545000 0.024344 0
15.550000 0.006456 0
15.555000 -0.010331 0
15.560000 -0.027553 0
15.565000 -0.047593 0
15.570000 -0.073250 0
15.575000 -0.106558 0
15.580000 -0.146910 0
15.585000 -0.189256 0
15.590000 -0.223420 0
15.595000 -0.235226 2
15.600000 -0.208959 0
15.605000 -0.130160 0
15.610000 0.011502 0
15.615000 0.218077 0
15.620000 0.477143 0
15.625000 0.756187 0
15.630000 1.003680 0
15.635000 1.161672 0
15.640000 1.187052 3
15.645000 1.067968 0
15.650000 0.833435 0
15.655000 0.539986 0
15.660000 0.247061 0
15.665000 -0.000946 0
15.670000 -0.180332 0
15.675000 -0.284869 0
15.680000 -0.320704 4
15.685000 -0.302695 0
15.690000 -0.251033 0
15.695000 -0.186569 0
15.700000 -0.125730 0
15.705000 -0.077477 0
15.710000 -0.043573 0
15.715000 -0.021237 0
15.720000 -0.006204 0
15.725000 0.005259 0
15.730000 0.015645 0
15.735000 0.026339 0
15.740000 0.038013 0
15.745000 0.050967 0
15.750000 0.065333 0
15.755000 0.081164 0
15.760000 0.098467 0
15.765000 0.117210 0
15.770000 0.137323 0
15.775000 0.158694 0
15.780000 0.181168 0
15.785000 0.204547 0
15.790000 0.228586 0
15.795000 0.253003 0
15.800000 0.277474 0
15.805000 0.301648 0
15.810000 0.325147 0
15.815000 0.347580 0
15.820000 0.368551 0
15.825000 0.387669 0
15.830000 0.404564 0
15.835000 0.418895 0
15.840000 0.430360 0
15.845000 0.438710 0
15.850000 0.443756 0
15.855000 0.445373 5
15.860000 0.443510 0
15.865000 0.438187 0
15.870000 0.429496 0
15.875000 0.417600 0
15.880000 0.402724 0
15.885000 0.385153 0
15.890000 0.365216 0
15.895000 0.343280 0
15.900000 0.319738 0
15.905000 0.294995 0
15.910000 0.269459 0
15.915000 0.243527 0
15.920000 0.217578 0
15.925000 0.191963 0
15.930000 0.166997 0
15.935000 0.142954 0
15.940000 0.120064 0
15.945000 0.098512 0
15.950000 0.078436 0
15.955000 0.059930 0
15.960000 0.043047 0
15.965000 0.027800 0
15.970000 0.014172 0
15.975000 0.002114 0
15.980000 -0.008443 0
15.985000 -0.017589 0
15.990000 -0.025425 0
15.995000 -0.032061 0
16.000000 -0.037610 0
16.005000 -0.042187 0
16.010000 -0.045904 0
16.015000 -0.048868 0
16.020000 -0.051181 0
16.025000 -0.052935 0
16.030000 -0.054214 0
16.035000 -0.055095 0
16.040000 -0.055645 0
16.045000 -0.055921 0
16.050000 -0.055974 0
16.055000 -0.055847 0
16.060000 -0.055575 0
16.065000 -0.055189 0
16.070000 -0.054714 0
16.075000 -0.054169 0
16.080000 -0.053433 0
16.085000 -0.052667 0
16.090000 -0.051906 0
16.095000 -0.051148 0
16.100000 -0.050394 0
16.105000 -0.049643 0
16.110000 -0.048897 0
16.115000 -0.048154 0
16.120000 -0.047415 0
16.125000 -0.046680 0
16.130000 -0.045948 0
16.135000 -0.045220 0
16.140000 -0.044495 0
16.145000 -0.043774 0
16.150000 -0.043057 0
16.155000 -0.042343 0
16.160000 -0.041633 0
16.165000 -0.040926 0
16.170000 -0.040223 0
16.175000 -0.039523 0
16.180000 -0.038826 0
16.185000 -0.038132 0
16.190000 -0.037439 0
16.195000 -0.036747 0
16.200000 -0.036054 0
16.205000 -0.035356 0
16.210000 -0.034649 0
16.215000 -0.033924 0
16.220000 -0.033167 0
16.225000 -0.032361 0
16.230000 -0.031478 0
16.235000 -0.030476 0
16.240000 -0.029301 0
16.245000 -0.027876 0
16.250000 -0.026100 0
16.255000 -0.023844 0
16.260000 -0.020944 0
16.265000 -0.017205 0
16.270000 -0.012400 0
16.275000 -0.006274 0
16.280000 0.001441 0
16.285000 0.011013 0
16.290000 0.022683 0
16.295000 0.036641 0
16.300000 0.052992 0
16.305000 0.071722 0
16.310000 0.092672 0
16.315000 0.115512 0
16.320000 0.139731 0
16.325000 0.164643 0
16.330000 0.189407 0
16.335000 0.213069 0
16.340000 0.234616 0
16.345000 0.253051 0
16.350000 0.267464 0
16.355000 0.277106 0
16.360000 0.281454 1
16.365000 0.280257 0
16.370000 0.273558 0
16.375000 0.261692 0
16.380000 0.245258 0
16.385000 0.225066 0
16.390000 0.202073 0
16.395000 0.177307 0
16.400000 0.151789 0
16.405000 0.126466 0
16.410000 0.102150 0
16.415000 0.079464 0
16.420000 0.058780 0
16.425000 0.040109 0
16.430000 0.022925 0
16.435000 0.005924 0
16.440000 -0.013128 0
16.445000 -0.037136 0
16.450000 -0.068621 0
16.455000 -0.107818 0
16.460000 -0.150551 0
16.465000 -0.187125 0
16.470000 -0.203173 2
16.475000 -0.182212 0
16.480000 -0.108723 0
16.485000 0.028687 0
16.490000 0.232862 0
16.495000 0.491364 0
16.500000 0.770184 0
16.505000 1.014888 0
16.510000 1.164768 0
16.515000 1.176447 3
16.520000 1.044848 0
16.525000 0.803337 0
16.530000 0.508160 0
16.535000 0.216739 0
16.540000 -0.028705 0
16.545000 -0.205888 0
16.550000 -0.309169 0
16.555000 -0.344707 4
16.560000 -0.327011 0
16.565000 -0.275745 0
16.570000 -0.211287 0
16.575000 -0.149881 0
16.580000 -0.100632 0
16.585000 -0.065621 0
16.590000 -0.042348 0
16.595000 -0.026678 0
16.600000 -0.014868 0
16.605000 -0.004350 0
16.610000 0.006341 0
16.615000 0.017932 0
16.620000 0.030754 0
16.625000 0.044953 0
16.630000 0.060591 0
16.635000 0.077682 0
16.640000 0.096204 0
16.645000 0.116094 0
16.650000 0.137255 0
16.655000 0.159546 0
16.660000 0.182782 0
16.665000 0.206740 0
16.670000 0.231151 0
16.675000 0.255714 0
16.680000 0.280093 0
16.685000 0.303927 0
16.690000 0.326838 0
16.695000 0.348440 0
16.700000 0.368352 0
16.705000 0.386201 0
16.710000 0.401645 0
16.715000 0.414372 0
16.720000 0.424120 0
16.725000 0.430676 0
16.730000 0.433893 5
16.735000 0.433688 0
16.740000 0.430049 0
16.745000 0.423033 0
16.750000 0.412765 0
16.755000 0.399437 0
16.760000 0.383297 0
16.765000 0.364644 0
16.770000 0.343819 0
16.775000 0.321191 0
16.780000 0.297150 0
16.785000 0.272093 0
16.790000 0.246416 0
16.795000 0.220499 0
16.800000 0.194701 0
16.805000 0.169353 0
16.810000 0.144747 0
16.815000 0.121137 0
16.820000 0.098730 0
16.825000 0.077694 0
16.830000 0.058148 0
16.835000 0.040173 0
16.840000 0.023807 0
16.845000 0.009056 0
16.850000 -0.004106 0
16.855000 -0.015733 0
16.860000 -0.025896 0
16.865000 -0.034687 0
16.870000 -0.042204 0
16.875000 -0.048558 0
16.880000 -0.053859 0
16.885000 -0.058218 0
16.890000 -0.061745 0
16.895000 -0.064543 0
16.900000 -0.066709 0
16.905000 -0.068333 0
16.910000 -0.069498 0
16.915000 -0.070275 0
16.920000 -0.070729 0
16.925000 -0.070917 0
16.930000 -0.070888 0
16.935000 -0.070682 0
16.940000 -0.070334 0
16.945000 -0.069875 0
16.950000 -0.069327 0
16.955000 -0.068711 0
16.960000 -0.067902 0
16.965000 -0.067065 0
16.970000 -0.066231 0
16.975000 -0.065402 0
16.980000 -0.064577 0
16.985000 -0.063756 0
16.990000 -0.062939 0
16.995000 -0.062126 0
17.000000 -0.061317 0
17.005000 -0.060513 0
17.010000 -0.059712 0
17.015000 -0.058915 0
17.020000 -0.058122 0
17.025000 -0.057334 0
17.030000 -0.056549 0
17.035000 -0.055768 0
17.040000 -0.054991 0
17.045000 -0.054217 0
17.050000 -0.053448 0
17.055000 -0.052682 0
17.060000 -0.051919 0
17.065000 -0.051160 0
17.070000 -0.050403 0
17.075000 -0.049648 0
17.080000 -0.048892 0
17.085000 -0.048134 0
17.090000 -0.047368 0
17.095000 -0.046589 0
17.100000 -0.045785 0
17.105000 -0.044941 0
17.110000 -0.044033 0
17.115000 -0.043029 0
17.120000 -0.041879 0
17.125000 -0.040521 0
17.130000 -0.038867 0
17.135000 -0.036803 0
17.140000 -0.034189 0
17.145000 -0.030850 0
17.150000 -0.026578 0
17.155000 -0.021140 0
17.160000 -0.014280 0
17.165000 -0.005733 0
17.170000 0.004753 0
17.175000 0.017395 0
17.180000 0.032349 0
17.185000 0.049673 0
17.190000 0.069305 0
17.195000 0.091028 0
17.200000 0.114458 0
17.205000 0.139038 0
17.210000 0.164045 0
17.215000 0.188618 0
17.220000 0.211804 0
17.225000 0.232614 0
17.230000 0.250091 0
17.235000 0.263383 0
17.240000 0.271814 0
17.245000 0.274933 1
17.250000 0.272562 0
17.255000 0.264805 0
17.260000 0.252045 0
17.265000 0.234910 0
17.270000 0.214220 0
17.275000 0.190926 0
17.280000 0.166031 0
17.285000 0.140527 0
17.290000 0.115321 0
17.295000 0.091188 0
17.300000 0.068713 0
17.305000 0.048232 0
17.310000 0.029724 0
17.315000 0.012636 0
17.320000 -0.004345 0
17.325000 -0.023430 0
17.330000 -0.047458 0
17.335000 -0.078880 0
17.340000 -0.117934 0
17.345000 -0.160628 0
17.350000 -0.197655 0
17.355000 -0.215152 2
17.360000 -0.197077 0
17.365000 -0.128154 0
17.370000 0.003177 0
17.375000 0.200704 0
17.380000 0.454217 0
17.385000 0.733184 0
17.390000 0.986614 0
17.395000 1.154847 0
17.400000 1.191378 3
17.405000 1.079075 0
17.410000 0.845986 0
17.415000 0.552092 0
17.420000 0.260617 0
17.425000 0.017854 0
17.430000 -0.152653 0
17.435000 -0.246067 0
17.440000 -0.270594 4
17.445000 -0.243477 0
17.450000 -0.186902 0
17.455000 -0.122371 0
17.460000 -0.065282 0
17.465000 -0.022519 0
17.470000 0.006149 0
17.475000 0.024645 0
17.480000 0.037449 0
17.485000 0.047959 0
17.490000 0.058209 0
17.495000 0.069223 0
17.500000 0.081464 0
17.505000 0.095129 0
17.510000 0.110298 0
17.515000 0.126995 0
17.520000 0.145199 0
17.525000 0.164844 0
17.530000 0.185823 0
17.535000 0.207979 0
17.540000 0.231107 0
17.545000 0.254952 0
17.550000 0.279216 0
17.555000 0.303555 0
17.560000 0.327594 0
17.565000 0.350930 0
17.570000 0.373141 0
17.575000 0.393806 0
17.580000 0.412509 0
17.585000 0.428855 0
17.590000 0.442488 0
17.595000 0.453095 0
17.600000 0.460425 0
17.605000 0.464294 0
17.610000 0.464592 5
17.615000 0.461290 0
17.620000 0.454440 0
17.625000 0.444171 0
17.630000 0.430688 0
17.635000 0.414265 0
17.640000 0.395229 0
17.645000 0.373959 0
17.650000 0.350862 0
17.655000 0.326370 0
17.660000 0.300917 0
17.665000 0.274933 0
17.670000 0.248831 0
17.675000 0.222993 0
17.680000 0.197763 0
17.685000 0.173444 0
17.690000 0.150287 0
17.695000 0.128497 0
17.700000 0.108224 0
17.705000 0.089571 0
17.710000 0.072594 0
17.715000 0.057307 0
17.720000 0.043689 0
17.725000 0.031685 0
17.730000 0.021219 0
17.735000 0.012193 0
17.740000 0.004496 0
17.745000 -0.001990 0
17.750000 -0.007387 0
17.755000 -0.011816 0
17.760000 -0.015397 0
17.765000 -0.018241 0
17.770000 -0.020452 0
17.775000 -0.022127 0
17.780000 -0.023351 0
17.785000 -0.024199 0
17.790000 -0.024739 0
17.795000 -0.025028 0
17.800000 -0.025114 0
17.805000 -0.025038 0
17.810000 -0.024835 0
17.815000 -0.024531 0
17.820000 -0.024151 0
17.825000 -0.023566 0
17.830000 -0.022950 0
17.835000 -0.022336 0
17.840000 -0.021726 0
17.845000 -0.021119 0
17.850000 -0.020514 0
17.855000 -0.019913 0
17.860000 -0.019315 0
17.865000 -0.018720 0
17.870000 -0.018127 0
17.875000 -0.017538 0
17.880000 -0.016952 0
17.885000 -0.016368 0
17.890000 -0.015788 0
17.895000 -0.015210 0
17.900000 -0.014635 0
17.905000 -0.014063 0
17.910000 -0.013494 0
17.915000 -0.012927 0
17.920000 -0.012363 0
17.925000 -0.011801 0
17.930000 -0.011241 0
17.935000 -0.010681 0
17.940000 -0.010120 0
17.945000 -0.009555 0
17.950000 -0.008981 0
17.955000 -0.008391 0
17.960000 -0.007773 0
17.965000 -0.007107 0
17.970000 -0.006368 0
17.975000 -0.005513 0
17.980000 -0.004488 0
17.985000 -0.003212 0
17.990000 -0.001581 0
17.995000 0.000544 0
18.000000 0.003335 0
18.005000 0.007002 0
18.010000 0.011790 0
18.015000 0.017973 0
18.020000 0.025840 0
18.025000 0.035673 0
18.030000 0.047724 0
18.035000 0.062179 0
18.040000 0.079120 0
18.045000 0.098491 0
18.050000 0.120065 0
18.055000 0.143421 0
18.060000 0.167939 0
18.065000 0.192809 0
18.070000 0.217070 0
18.075000 0.239664 0
18.080000 0.259507 0
18.085000 0.275574 0
18.090000 0.286985 0
18.095000 0.293086 0
18.100000 0.293505 1
18.105000 0.288191 0
18.110000 0.277422 0
18.115000 0.261773 0
18.120000 0.242071 0
18.125000 0.219317 0
18.130000 0.194605 0
18.135000 0.169029 0
18.140000 0.143609 0
18.145000 0.119217 0
18.150000 0.096518 0
18.155000 0.075897 0
18.160000 0.057328 0
18.165000 0.040169 0
18.170000 0.022885 0
18.175000 0.002924 0
18.180000 -0.022850 0
18.185000 -0.056732 0
18.190000 -0.097843 0
18.195000 -0.139899 0
18.200000 -0.170591 0
18.205000 -0.173331 2
18.210000 -0.130545 0
18.215000 -0.027192 0
18.220000 0.145188 0
18.225000 0.382101 0
18.230000 0.657982 0
18.235000 0.922727 0
18.240000 1.111496 0
18.245000 1.168759 3
18.250000 1.076167 0
18.255000 0.858414 0
18.260000 0.570430 0
18.265000 0.274264 0
18.270000 0.018464 0
18.275000 -0.169813 0
18.280000 -0.282267 0
18.285000 -0.324033 4
18.290000 -0.309655 0
18.295000 -0.259573 0
18.300000 -0.195312 0
18.305000 -0.134085 0
18.310000 -0.085421 0
18.315000 -0.051306 0
18.320000 -0.028935 0
18.325000 -0.013934 0
18.330000 -0.002487 0
18.335000 0.007933 0
18.340000 0.018710 0
18.345000 0.030507 0
18.350000 0.043617 0
18.355000 0.058166 0
18.360000 0.074202 0
18.365000 0.091729 0
18.370000 0.110710 0
18.375000 0.131067 0
18.380000 0.152678 0
18.385000 0.175378 0
18.390000 0.198953 0
18.395000 0.223146 0
18.400000 0.247656 0
18.405000 0.272146 0
18.410000 0.296246 0
18.415000 0.319564 0
18.420000 0.341697 0
18.425000 0.362237 0
18.430000 0.380789 0
18.435000 0.396978 0
18.440000 0.410466 0
18.445000 0.420960 0
18.450000 0.428224 0
18.455000 0.432085 0
18.460000 0.432444 5
18.465000 0.429273 0
18.470000 0.422624 0
18.475000 0.412620 0
18.480000 0.399458 0
18.485000 0.383395 0
18.490000 0.364745 0
18.495000 0.343866 0
18.500000 0.321149 0
18.505000 0.297005 0
18.510000 0.271853 0
18.515000 0.246107 0
18.520000 0.220167 0
18.525000 0.194408 0
18.530000 0.169170 0
18.535000 0.144753 0
18.540000 0.121413 0
18.545000 0.099359 0
18.550000 0.078751 0
18.555000 0.059703 0
18.560000 0.042283 0
18.565000 0.026521 0
18.570000 0.012407 0
18.575000 -0.000098 0
18.580000 -0.011060 0
18.585000 -0.020566 0
18.590000 -0.028715 0
18.595000 -0.035618 0
18.600000 -0.041392 0
18.605000 -0.046154 0
18.610000 -0.050021 0
18.615000 -0.053103 0
18.620000 -0.055505 0
18.625000 -0.057326 0
18.630000 -0.058652 0
18.635000 -0.059564 0
18.640000 -0.060130 0
18.645000 -0.060413 0
18.650000 -0.060465 0
18.655000 -0.060330 0
18.660000 -0.060046 0
18.665000 -0.059645 0
18.670000 -0.059151 0
18.675000 -0.058587 0
18.680000 -0.057828 0
18.685000 -0.057041 0
18.690000 -0.056258 0
18.695000 -0.055478 0
18.700000 -0.054702 0
18.705000 -0.053931 0
18.710000 -0.053163 0
18.715000 -0.052399 0
18.720000 -0.051638 0
18.725000 -0.050882 0
18.730000 -0.050129 0
18.735000 -0.049380 0
18.740000 -0.048635 0
18.745000 -0.047893 0
18.750000 -0.047156 0
18.755000 -0.046422 0
18.760000 -0.045691 0
18.765000 -0.044964 0
18.770000 -0.044240 0
18.775000 -0.043520 0
18.780000 -0.042803 0
18.785000 -0.042089 0
18.790000 -0.041376 0
18.795000 -0.040663 0
18.800000 -0.039948 0
18.805000 -0.039228 0
18.810000 -0.038495 0
18.815000 -0.037740 0
18.820000 -0.036949 0
18.825000 -0.036097 0
18.830000 -0.035154 0
18.835000 -0.034071 0
18.840000 -0.032783 0
18.845000 -0.031202 0
18.850000 -0.029213 0
18.855000 -0.026668 0
18.860000 -0.023383 0
18.865000 -0.019143 0
18.870000 -0.013699 0
18.875000 -0.006782 0
18.880000 0.001888 0
18.885000 0.012573 0
18.890000 0.025498 0
18.895000 0.040815 0
18.900000 0.058566 0
18.905000 0.078655 0
18.910000 0.100819 0
18.915000 0.124606 0
18.920000 0.149380 0
18.925000 0.174332 0
18.930000 0.198519 0
18.935000 0.220912 0
18.940000 0.240475 0
18.945000 0.256234 0
18.950000 0.267364 0
18.955000 0.273253 0
18.960000 0.273562 1
18.965000 0.268255 0
18.970000 0.257602 0
18.975000 0.242158 0
18.980000 0.222712 0
18.985000 0.200221 0
18.990000 0.175733 0
18.995000 0.150302 0
19.000000 0.124920 0
19.005000 0.100445 0
19.010000 0.077548 0
19.015000 0.056649 0
19.020000 0.037809 0
19.025000 0.020552 0
19.030000 0.003618 0
19.035000 -0.015220 0
19.040000 -0.038921 0
19.045000 -0.070125 0
19.050000 -0.109180 0
19.055000 -0.151896 0
19.060000 -0.188348 0
19.065000 -0.203758 2
19.070000 -0.181187 0
19.075000 -0.104794 0
19.080000 0.036814 0
19.085000 0.245783 0
19.090000 0.507822 0
19.095000 0.785907 0
19.100000 1.022607 0
19.105000 1.156389 3
19.110000 1.145454 0
19.115000 0.989521 0
19.120000 0.730399 0
19.125000 0.431156 0
19.130000 0.150593 0
19.135000 -0.072327 0
19.140000 -0.220408 0
19.145000 -0.293075 0
19.150000 -0.301286 4
19.155000 -0.263869 0
19.160000 -0.203140 0
19.165000 -0.139199 0
19.170000 -0.085175 0
19.175000 -0.045876 0
19.180000 -0.019853 0
19.185000 -0.002873 0
19.190000 0.009331 0
19.195000 0.019807 0
19.200000 0.030307 0
19.205000 0.041693 0
19.210000 0.054350 0
19.215000 0.068443 0
19.220000 0.084037 0
19.225000 0.101147 0
19.230000 0.119744 0
19.235000 0.139758 0
19.240000 0.161074 0
19.245000 0.183530 0
19.250000 0.206915 0
19.255000 0.230974 0
19.260000 0.255403 0
19.265000 0.279860 0
19.270000 0.303970 0
19.275000 0.327333 0
19.280000 0.349533 0
19.285000 0.370152 0
19.290000 0.388782 0
19.295000 0.405038 0
19.300000 0.418569 0
19.305000 0.429072 0
19.310000 0.436303 0
19.315000 0.440086 0
19.320000 0.440317 5
19.325000 0.436972 0
19.330000 0.430104 0
19.335000 0.419846 0
19.340000 0.406402 0
19.345000 0.390043 0
19.350000 0.371095 0
19.355000 0.349930 0
19.360000 0.326952 0
19.365000 0.302587 0
19.370000 0.277263 0
19.375000 0.251406 0
19.380000 0.225423 0
19.385000 0.199691 0
19.390000 0.174553 0
19.395000 0.150307 0
19.400000 0.127207 0
19.405000 0.105454 0
19.410000 0.085201 0
19.415000 0.066552 0
19.420000 0.049565 0
19.425000 0.034258 0
19.430000 0.020611 0
19.435000 0.008575 0
19.440000 -0.001925 0
19.445000 -0.010984 0
19.450000 -0.018710 0
19.455000 -0.025218 0
19.460000 -0.030630 0
19.465000 -0.035065 0
19.470000 -0.038641 0
19.475000 -0.041469 0
19.480000 -0.043655 0
19.485000 -0.045294 0
19.490000 -0.046471 0
19.495000 -0.047264 0
19.500000 -0.047740 0
19.505000 -0.047957 0
19.510000 -0.047964 0
19.515000 -0.047804 0
19.520000 -0.047511 0
19.525000 -0.047114 0
19.530000 -0.046637 0
19.535000 -0.046070 0
19.540000 -0.045342 0
19.545000 -0.044617 0
19.550000 -0.043895 0
19.555000 -0.043177 0
19.560000 -0.042463 0
19.565000 -0.041752 0
19.570000 -0.041045 0
19.575000 -0.040341 0
19.580000 -0.039641 0
19.585000 -0.038945 0
19.590000 -0.038251 0
19.595000 -0.037562 0
19.600000 -0.036875 0
19.605000 -0.036193 0
19.610000 -0.035513 0
19.615000 -0.034837 0
19.620000 -0.034164 0
19.625000 -0.033494 0
19.630000 -0.032828 0
19.635000 -0.032164 0
19.640000 -0.031503 0
19.645000 -0.030843 0
19.650000 -0.030183 0
19.655000 -0.029521 0
19.660000 -0.028853 0
19.665000 -0.028173 0
19.670000 -0.027470 0
19.675000 -0.026730 0
19.680000 -0.025929 0
19.685000 -0.025033 0
19.690000 -0.023994 0
19.695000 -0.022743 0
19.700000 -0.021189 0
19.705000 -0.019211 0
19.710000 -0.016654 0
19.715000 -0.013328 0
19.720000 -0.009005 0
19.725000 -0.003428 0
19.730000 0.003683 0
19.735000 0.012614 0
19.740000 0.023630 0
19.745000 0.036952 0
19.750000 0.052717 0
19.755000 0.070944 0
19.760000 0.091498 0
19.765000 0.114065 0
19.770000 0.138137 0
19.775000 0.163010 0
19.780000 0.187812 0
19.785000 0.211542 0
19.790000 0.233134 0
19.795000 0.251534 0
19.800000 0.265783 0
19.805000 0.275098 0
19.810000 0.278944 1
19.815000 0.277085 0
19.820000 0.269603 0
19.825000 0.256895 0
19.830000 0.239635 0
19.835000 0.218716 0
19.840000 0.195171 0
19.845000 0.170090 0
19.850000 0.144535 0
19.855000 0.119466 0
19.860000 0.095680 0
19.865000 0.073746 0
19.870000 0.053921 0
19.875000 0.036006 0
19.880000 0.019103 0
19.885000 0.001371 0
19.890000 -0.019981 0
19.895000 -0.047995 0
19.900000 -0.084251 0
19.905000 -0.126486 0
19.910000 -0.166725 0
19.915000 -0.191343 2
19.920000 -0.183338 0
19.925000 -0.125699 0
19.930000 -0.004846 0
19.935000 0.184998 0
19.940000 0.434893 0
19.945000 0.713594 0
19.950000 0.966657 0
19.955000 1.129710 0
19.960000 1.153836 3
19.965000 1.032423 0
19.970000 0.797584 0
19.975000 0.504505 0
19.980000 0.211172 0
19.985000 -0.038754 0
19.990000 -0.221527 0
19.995000 -0.330398 0
20.000000 -0.370734 4
20.005000 -0.356475 0
20.010000 -0.306997 0
20.015000 -0.242788 0
20.020000 -0.180557 0
20.025000 -0.130020 0
20.030000 -0.093758 0
20.035000 -0.069533 0
20.040000 -0.053257 0
20.045000 -0.041112 0
20.050000 -0.030428 0
20.055000 -0.019662 0
20.060000 -0.008041 0
20.065000 0.004792 0
20.070000 0.018992 0
20.075000 0.034626 0
20.080000 0.051712 0
20.085000 0.070230 0
20.090000 0.090124 0
20.095000 0.111296 0
20.100000 0.133611 0
20.105000 0.156890 0
20.110000 0.180910 0
20.115000 0.205410 0
20.120000 0.230090 0
20.125000 0.254617 0
20.130000 0.278633 0
20.135000 0.301763 0
20.140000 0.323620 0
20.145000 0.343822 0
20.150000 0.361997 0
20.155000 0.377799 0
20.160000 0.390913 0
20.165000 0.401072 0
20.170000 0.408059 0
20.175000 0.411719 0
20.180000 0.411964 5
20.185000 0.408774 0
20.190000 0.402199 0
20.195000 0.392359 0
20.200000 0.379437 0
20.205000 0.363677 0
20.210000 0.345373 0
20.215000 0.324859 0
20.220000 0.302505 0
20.225000 0.278698 0
20.230000 0.253833 0
20.235000 0.228307 0
20.240000 0.202502 0
20.245000 0.176779 0
20.250000 0.151471 0
20.255000 0.126876 0
20.260000 0.103249 0
20.265000 0.080806 0
20.270000 0.059715 0
20.275000 0.040103 0
20.280000 0.022053 0
20.285000 0.005609 0
20.290000 -0.009221 0
20.295000 -0.022459 0
20.300000 -0.034156 0
20.305000 -0.044381 0
20.310000 -0.053224 0
20.315000 -0.060784 0
20.320000 -0.067168 0
20.325000 -0.072488 0
20.330000 -0.076854 0
20.335000 -0.080376 0
20.340000 -0.083159 0
20.345000 -0.085300 0
20.350000 -0.086890 0
20.355000 -0.088011 0
20.360000 -0.088737 0
20.365000 -0.089135 0
20.370000 -0.089260 0
20.375000 -0.089163 0
20.380000 -0.088885 0
20.385000 -0.088462 0
20.390000 -0.087925 0
20.395000 -0.087297 0
20.400000 -0.086599 0
20.405000 -0.085703 0
20.410000 -0.084776 0
20.415000 -0.083854 0
20.420000 -0.082937 0
20.425000 -0.082025 0
20.430000 -0.081117 0
20.435000 -0.080213 0
20.440000 -0.079314 0
20.445000 -0.078420 0
20.450000 -0.077530 0
20.455000 -0.076644 0
20.460000 -0.075763 0
20.465000 -0.074886 0
20.470000 -0.074014 0
20.475000 -0.073145 0
20.480000 -0.072282 0
20.485000 -0.071422 0
20.490000 -0.070567 0
20.495000 -0.069716 0
20.500000 -0.068869 0
20.505000 -0.068026 0
20.510000 -0.067186 0
20.515000 -0.066349 0
20.520000 -0.065515 0
20.525000 -0.064681 0
20.530000 -0.063845 0
20.535000 -0.063003 0
20.540000 -0.062148 0
20.545000 -0.061272 0
20.550000 -0.060358 0
20.555000 -0.059385 0
20.560000 -0.058320 0
20.565000 -0.057119 0
20.570000 -0.055720 0
20.575000 -0.054039 0
20.580000 -0.051967 0
20.585000 -0.049368 0
20.590000 -0.046071 0
20.595000 -0.041874 0
20.600000 -0.036547 0
20.605000 -0.029836 0
20.610000 -0.021479 0
20.615000 -0.011220 0
20.620000 0.001166 0
20.625000 0.015844 0
20.630000 0.032890 0
20.635000 0.052259 0
20.640000 0.073761 0
20.645000 0.097037 0
20.650000 0.121555 0
20.655000 0.146618 0
20.660000 0.171385 0
20.665000 0.194912 0
20.670000 0.216214 0
20.675000 0.234325 0
20.680000 0.248374 0
20.685000 0.257653 0
20.690000 0.261677 1
20.695000 0.260221 0
20.700000 0.253347 0
20.705000 0.241397 0
20.710000 0.224960 0
20.715000 0.204832 0
20.720000 0.181946 0
20.725000 0.157301 0
20.730000 0.131894 0
20.735000 0.106648 0
20.740000 0.082362 0
20.745000 0.059654 0
20.750000 0.038905 0
20.755000 0.020162 0
20.760000 0.002973 0
20.765000 -0.013837 0
20.770000 -0.032332 0
20.775000 -0.055295 0
20.780000 -0.085341 0
20.785000 -0.123219 0
20.790000 -0.165749 0
20.795000 -0.204514 0
20.800000 -0.226286 2
20.805000 -0.215201 0
20.810000 -0.155670 0
20.815000 -0.035296 0
20.820000 0.151387 0
20.825000 0.397034 0
20.830000 0.674850 0
20.835000 0.936890 0
20.840000 1.123666 0
20.845000 1.184808 3
20.850000 1.099827 0
20.855000 0.889175 0
20.860000 0.604646 0
20.865000 0.306640 0
20.870000 0.044055 0
20.875000 -0.154371 0
20.880000 -0.278452 0
20.885000 -0.331465 4
20.890000 -0.326147 0
20.895000 -0.281513 0
20.900000 -0.218617 0
20.905000 -0.155431 0
20.910000 -0.103058 0
20.915000 -0.065086 0
20.920000 -0.039726 0
20.925000 -0.022904 0
20.930000 -0.010629 0
20.935000 -0.000043 0
20.940000 0.010522 0
20.945000 0.021909 0
20.950000 0.034503 0
20.955000 0.048473 0
20.960000 0.063891 0
20.965000 0.080777 0
20.970000 0.099112 0
20.975000 0.118839 0
20.980000 0.139862 0
20.985000 0.162039 0
20.990000 0.185190 0
20.995000 0.209087 0
21.000000 0.233461 0
21.005000 0.258007 0
21.010000 0.282383 0
21.015000 0.306223 0
21.020000 0.329142 0
21.025000 0.350747 0
21.030000 0.370648 0
21.035000 0.388468 0
21.040000 0.403855 0
21.045000 0.416495 0
21.050000 0.426119 0
21.055000 0.432516 0
21.060000 0.435536 5
21.065000 0.435100 0
21.070000 0.431199 0
21.075000 0.423896 0
21.080000 0.413326 0
21.085000 0.399688 0
21.090000 0.383241 0
21.095000 0.364295 0
21.100000 0.343201 0
21.105000 0.320339 0
21.110000 0.296107 0
21.115000 0.270912 0
21.120000 0.245152 0
21.125000 0.219215 0
21.130000 0.193460 0
21.135000 0.168218 0
21.140000 0.143778 0
21.145000 0.120390 0
21.150000 0.098257 0
21.155000 0.077538 0
21.160000 0.058346 0
21.165000 0.040752 0
21.170000 0.024786 0
21.175000 0.010446 0
21.180000 -0.002304 0
21.185000 -0.013523 0
21.190000 -0.023291 0
21.195000 -0.031703 0
21.200000 -0.038865 0
21.205000 -0.044888 0
21.210000 -0.049886 0
21.215000 -0.053972 0
21.220000 -0.057255 0
21.225000 -0.059838 0
21.230000 -0.061819 0
21.235000 -0.063284 0
21.240000 -0.064315 0
21.245000 -0.064983 0
21.250000 -0.065348 0
21.255000 -0.065466 0
21.260000 -0.065383 0
21.265000 -0.065138 0
21.270000 -0.064763 0
21.275000 -0.064287 0
21.280000 -0.063732 0
21.285000 -0.063086 0
21.290000 -0.062273 0
21.295000 -0.061463 0
21.300000 -0.060658 0
21.305000 -0.059856 0
21.310000 -0.059059 0
21.315000 -0.058265 0
21.320000 -0.057476 0
21.325000 -0.056690 0
21.330000 -0.055909 0
21.335000 -0.055131 0
21.340000 -0.054357 0
21.345000 -0.053587 0
21.350000 -0.052821 0
21.355000 -0.052058 0
21.360000 -0.051300 0
21.365000 -0.050545 0
21.370000 -0.049794 0
21.375000 -0.049046 0
21.380000 -0.048302 0
21.385000 -0.047562 0
21.390000 -0.046824 0
21.395000 -0.046090 0
21.400000 -0.045357 0
21.405000 -0.044624 0
21.410000 -0.043889 0
21.415000 -0.043148 0
21.420000 -0.042396 0
21.425000 -0.041621 0
21.430000 -0.040811 0
21.435000 -0.039942 0
21.440000 -0.038985 0
21.445000 -0.037894 0
21.450000 -0.036607 0
21.455000 -0.035040 0
21.460000 -0.033086 0
21.465000 -0.030605 0
21.470000 -0.027424 0
21.475000 -0.023340 0
21.480000 -0.018116 0
21.485000 -0.011496 0
21.490000 -0.003210 0
21.495000 0.007002 0
21.500000 0.019368 0
21.505000 0.034054 0
21.510000 0.051133 0
21.515000 0.070554 0
21.520000 0.092110 0
21.525000 0.115426 0
21.530000 0.139944 0
21.535000 0.164937 0
21.540000 0.189535 0
21.545000 0.212770 0
21.550000 0.233634 0
21.555000 0.251149 0
21.560000 0.264449 0
21.565000 0.272839 0
21.570000 0.275866 1
21.575000 0.273350 0
21.580000 0.265406 0
21.585000 0.252432 0
21.590000 0.235078 0
21.595000 0.214189 0
21.600000 0.190737 0
21.605000 0.165748 0
21.610000 0.140225 0
21.615000 0.115085 0
21.620000 0.091098 0
21.625000 0.068836 0
21.630000 0.048605 0
21.635000 0.030326 0
21.640000 0.013342 0
21.645000 -0.003820 0
21.650000 -0.023545 0
21.655000 -0.048754 0
21.660000 -0.081695 0
21.665000 -0.121950 0
21.670000 -0.164430 0
21.675000 -0.198578 0
21.680000 -0.209555 2
21.685000 -0.180940 0
21.690000 -0.097770 0
21.695000 0.050264 0
21.700000 0.264098 0
21.705000 0.528414 0
21.710000 0.806047 0
21.715000 1.040829 0
21.720000 1.173397 3
21.725000 1.165578 0
21.730000 1.017875 0
21.735000 0.766741 0
21.740000 0.469253 0
21.745000 0.181227 0
21.750000 -0.057647 0
21.755000 -0.227273 0
21.760000 -0.323464 0
21.765000 -0.353269 4
21.770000 -0.331697 0
21.775000 -0.278508 0
21.780000 -0.213735 0
21.785000 -0.152988 0
21.790000 -0.104721 0
21.795000 -0.070573 0
21.800000 -0.047868 0
21.805000 -0.032483 0
21.810000 -0.020766 0
21.815000 -0.010234 0
21.820000 0.000517 0
21.825000 0.012184 0
21.830000 0.025085 0
21.835000 0.039359 0
21.840000 0.055067 0
21.845000 0.072221 0
21.850000 0.090797 0
21.855000 0.110735 0
21.860000 0.131936 0
21.865000 0.154259 0
21.870000 0.177523 0
21.875000 0.201504 0
21.880000 0.225938 0
21.885000 0.250526 0
21.890000 0.274934 0
21.895000 0.298807 0
21.900000 0.321769 0
21.905000 0.343439 0
21.910000 0.363435 0
21.915000 0.381392 0
21.920000 0.396967 0
21.925000 0.409850 0
21.930000 0.419777 0
21.935000 0.426537 0
21.940000 0.429978 0
21.945000 0.430016 5
21.950000 0.426634 0
21.955000 0.419882 0
21.960000 0.409882 0
21.965000 0.396817 0
21.970000 0.380930 0
21.975000 0.362513 0
21.980000 0.341900 0
21.985000 0.319455 0
21.990000 0.295564 0
21.995000 0.270620 0
22.000000 0.245015 0
22.005000 0.219129 0
22.010000 0.193322 0
22.015000 0.167923 0
22.020000 0.143228 0
22.025000 0.119493 0
22.030000 0.096932 0
22.035000 0.075714 0
22.040000 0.055965 0
22.045000 0.037771 0
22.050000 0.021177 0
22.055000 0.006191 0
22.060000 -0.007206 0
22.065000 -0.019064 0
22.070000 -0.029451 0
22.075000 -0.038454 0
22.080000 -0.046172 0
22.085000 -0.052710 0
22.090000 -0.058178 0
22.095000 -0.062688 0
22.100000 -0.066347 0
22.105000 -0.069261 0
22.110000 -0.071526 0
22.115000 -0.073233 0
22.120000 -0.074466 0
22.125000 -0.075298 0
22.130000 -0.075794 0
22.135000 -0.076014 0
22.140000 -0.076007 0
22.145000 -0.075814 0
22.150000 -0.075473 0
22.155000 -0.075014 0
22.160000 -0.074462 0
22.165000 -0.073837 0
22.170000 -0.073005 0
22.175000 -0.072142 0
22.180000 -0.071284 0
22.185000 -0.070429 0
22.190000 -0.069579 0
22.195000 -0.068733 0
22.200000 -0.067891 0
22.205000 -0.067054 0
22.210000 -0.066220 0
22.215000 -0.065391 0
22.220000 -0.064566 0
22.225000 -0.063745 0
22.230000 -0.062928 0
22.235000 -0.062115 0
22.240000 -0.061307 0
22.245000 -0.060502 0
22.250000 -0.059701 0
22.255000 -0.058904 0
22.260000 -0.058111 0
22.265000 -0.057322 0
22.270000 -0.056537 0
22.275000 -0.055755 0
22.280000 -0.054975 0
22.285000 -0.054198 0
22.290000 -0.053422 0
22.295000 -0.052644 0
22.300000 -0.051860 0
22.305000 -0.051066 0
22.310000 -0.050253 0
22.315000 -0.049406 0
22.320000 -0.048506 0
22.325000 -0.047525 0
22.330000 -0.046420 0
22.335000 -0.045136 0
22.340000 -0.043596 0
22.345000 -0.041699 0
22.350000 -0.039317 0
22.355000 -0.036290 0
22.360000 -0.032427 0
22.365000 -0.027507 0
22.370000 -0.021284 0
22.375000 -0.013499 0
22.380000 -0.003893 0
22.385000 0.007769 0
22.390000 0.021671 0
22.395000 0.037920 0
22.400000 0.056512 0
22.405000 0.077307 0
22.410000 0.100003 0
22.415000 0.124128 0
22.420000 0.149043 0
22.425000 0.173957 0
22.430000 0.197962 0
22.435000 0.220087 0
22.440000 0.239359 0
22.445000 0.254874 0
22.450000 0.265864 0
22.455000 0.271764 0
22.460000 0.272253 1
22.465000 0.267291 0
22.470000 0.257115 0
22.475000 0.242224 0
22.480000 0.223339 0
22.485000 0.201340 0
22.490000 0.177204 0
22.495000 0.151928 0
22.500000 0.126465 0
22.505000 0.101662 0
22.510000 0.078210 0
22.515000 0.056591 0
22.520000 0.037001 0
22.525000 0.019218 0
22.530000 0.002403 0
22.535000 -0.015118 0
22.540000 -0.035865 0
22.545000 -0.062667 0
22.550000 -0.097313 0
22.555000 -0.138569 0
22.560000 -0.180418 0
22.565000 -0.211656 0
22.570000 -0.217362 2
22.575000 -0.181583 0
22.580000 -0.090209 0
22.585000 0.065903 0
22.590000 0.286177 0
22.595000 0.553661 0
22.600000 0.830190 0
22.605000 1.060112 0
22.610000 1.186171 3
22.615000 1.170388 0
22.620000 1.011487 0
22.625000 0.751290 0
22.630000 0.451867 0
22.635000 0.170927 0
22.640000 -0.053147 0
22.645000 -0.203195 0
22.650000 -0.278339 0
22.655000 -0.289025 4
22.660000 -0.253492 0
22.665000 -0.193616 0
22.670000 -0.129432 0
22.675000 -0.074405 0
22.680000 -0.033860 0
22.685000 -0.006780 0
22.690000 0.010873 0
22.695000 0.023371 0
22.700000 0.033866 0
22.705000 0.044219 0
22.710000 0.055368 0
22.715000 0.067739 0
22.720000 0.081514 0
22.725000 0.096769 0
22.730000 0.113527 0
22.735000 0.131766 0
22.740000 0.151426 0
22.745000 0.172402 0
22.750000 0.194545 0
22.755000 0.217660 0
22.760000 0.241503 0
22.765000 0.265789 0
22.770000 0.290191 0
22.775000 0.314348 0
22.780000 0.337872 0
22.785000 0.360359 0
22.790000 0.381397 0
22.795000 0.400583 0
22.800000 0.417529 0
22.805000 0.431880 0
22.810000 0.443322 0
22.815000 0.451596 0
22.820000 0.456506 0
22.825000 0.457924 5
22.830000 0.455799 0
22.835000 0.450155 0
22.840000 0.441095 0
22.845000 0.428792 0
22.850000 0.413487 0
22.855000 0.395481 0
22.860000 0.375122 0
22.865000 0.352794 0
22.870000 0.328908 0
22.875000 0.303885 0
22.880000 0.278146 0
22.885000 0.252099 0
22.890000 0.226131 0
22.895000 0.200594 0
22.900000 0.175804 0
22.905000 0.152031 0
22.910000 0.129498 0
22.915000 0.108380 0
22.920000 0.088805 0
22.925000 0.070852 0
22.930000 0.054560 0
22.935000 0.039929 0
22.940000 0.026926 0
22.945000 0.015491 0
22.950000 0.005541 0
22.955000 -0.003023 0
22.960000 -0.010310 0
22.965000 -0.016437 0
22.970000 -0.021522 0
22.975000 -0.025683 0
22.980000 -0.029033 0
22.985000 -0.031679 0
22.990000 -0.033722 0
22.995000 -0.035252 0
23.000000 -0.036350 0
23.005000 -0.037090 0
23.010000 -0.037533 0
23.015000 -0.037735 0
23.020000 -0.037742 0
23.025000 -0.037593 0
23.030000 -0.037321 0
23.035000 -0.036952 0
23.040000 -0.036508 0
23.045000 -0.035861 0
23.050000 -0.035183 0
23.055000 -0.034509 0
23.060000 -0.033838 0
23.065000 -0.033170 0
23.070000 -0.032506 0
23.075000 -0.031845 0
23.080000 -0.031187 0
23.085000 -0.030533 0
23.090000 -0.029881 0
23.095000 -0.029233 0
23.100000 -0.028589 0
23.105000 -0.027947 0
23.110000 -0.027309 0
23.115000 -0.026674 0
23.120000 -0.026042 0
23.125000 -0.025413 0
23.130000 -0.024787 0
23.135000 -0.024164 0
23.140000 -0.023544 0
23.145000 -0.022927 0
23.150000 -0.022311 0
23.155000 -0.021697 0
23.160000 -0.021083 0
23.165000 -0.020466 0
23.170000 -0.019843 0
23.175000 -0.019208 0
23.180000 -0.018550 0
23.185000 -0.017855 0
23.190000 -0.017101 0
23.195000 -0.016254 0
23.200000 -0.015267 0
23.205000 -0.014075 0
23.210000 -0.012589 0
23.215000 -0.010692 0
23.220000 -0.008235 0
23.225000 -0.005034 0
23.230000 -0.000870 0
23.235000 0.004508 0
23.240000 0.011372 0
23.245000 0.020003 0
23.250000 0.030667 0
23.255000 0.043588 0
23.260000 0.058915 0
23.265000 0.076686 0
23.270000 0.096798 0
23.275000 0.118976 0
23.280000 0.142755 0
23.285000 0.167482 0
23.290000 0.192331 0
23.295000 0.216344 0
23.300000 0.238481 0
23.305000 0.257697 0
23.310000 0.273021 0
23.315000 0.283633 0
23.320000 0.288941 1
23.325000 0.288628 0
23.330000 0.282689 0
23.335000 0.271426 0
23.340000 0.255427 0
23.345000 0.235508 0
23.350000 0.212650 0
23.355000 0.187914 0
23.360000 0.162361 0
23.365000 0.136975 0
23.370000 0.112602 0
23.375000 0.089889 0
23.380000 0.069216 0
23.385000 0.050579 0
23.390000 0.033399 0
23.395000 0.016259 0
23.400000 -0.003231 0
23.405000 -0.028104 0
23.410000 -0.060795 0
23.415000 -0.101022 0
23.420000 -0.143586 0
23.425000 -0.177472 0
23.430000 -0.187140 2
23.435000 -0.155466 0
23.440000 -0.067055 0
23.445000 0.088212 0
23.450000 0.309810 0
23.455000 0.578985 0
23.460000 0.853461 0
23.465000 1.072599 0
23.470000 1.176769 3
23.475000 1.133196 0
23.480000 0.951813 0
23.485000 0.679832 0
23.490000 0.380006 0
23.495000 0.107085 0
23.500000 -0.104607 0
23.505000 -0.241239 0
23.510000 -0.304201 0
23.515000 -0.305475 4
23.520000 -0.264190 0
23.525000 -0.202238 0
23.530000 -0.138756 0
23.535000 -0.085832 0
23.540000 -0.047551 0
23.545000 -0.022182 0
23.550000 -0.005512 0
23.555000 0.006595 0
23.560000 0.017067 0
23.565000 0.027589 0
23.570000 0.038994 0
23.575000 0.051655 0
23.580000 0.065734 0
23.585000 0.081296 0
23.590000 0.098357 0
23.595000 0.116889 0
23.600000 0.136827 0
23.605000 0.158061 0
23.610000 0.180435 0
23.615000 0.203748 0
23.620000 0.227752 0
23.625000 0.252157 0
23.630000 0.276632 0
23.635000 0.300813 0
23.640000 0.324312 0
23.645000 0.346724 0
23.650000 0.367641 0
23.655000 0.386659 0
23.660000 0.403397 0
23.665000 0.417505 0
23.670000 0.428676 0
23.675000 0.436659 0
23.680000 0.441265 0
23.685000 0.442377 5
23.690000 0.439949 0
23.695000 0.434017 0
23.700000 0.424688 0
23.705000 0.412144 0
23.710000 0.396632 0
23.715000 0.378455 0
23.720000 0.357964 0
23.725000 0.335547 0
23.730000 0.311613 0
23.735000 0.286582 0
23.740000 0.260875 0
23.745000 0.234895 0
23.750000 0.209024 0
23.755000 0.183613 0
23.760000 0.158971 0
23.765000 0.135364 0
23.770000 0.113010 0
23.775000 0.092081 0
23.780000 0.072698 0
23.785000 0.054939 0
23.790000 0.038838 0
23.795000 0.024395 0
23.800000 0.011572 0
23.805000 0.000310 0
23.810000 -0.009476 0
23.815000 -0.017886 0
23.820000 -0.025028 0
23.825000 -0.031019 0
23.830000 -0.035977 0
23.835000 -0.040019 0
23.840000 -0.043259 0
23.845000 -0.045802 0
23.850000 -0.047748 0
23.855000 -0.049186 0
23.860000 -0.050197 0
23.865000 -0.050853 0
23.870000 -0.051217 0
23.875000 -0.051342 0
23.880000 -0.051274 0
23.885000 -0.051053 0
23.890000 -0.050709 0
23.895000 -0.050271 0
23.900000 -0.049758 0
23.905000 -0.049045 0
23.910000 -0.048302 0
23.915000 -0.047562 0
23.920000 -0.046826 0
23.925000 -0.046093 0
23.930000 -0.045364 0
23.935000 -0.044639 0
23.940000 -0.043918 0
23.945000 -0.043200 0
23.950000 -0.042485 0
23.955000 -0.041774 0
23.960000 -0.041067 0
23.965000 -0.040363 0
23.970000 -0.039663 0
23.975000 -0.038966 0
23.980000 -0.038273 0
23.985000 -0.037583 0
23.990000 -0.036897 0
23.995000 -0.036213 0
24.000000 -0.035533 0
24.005000 -0.034856 0
24.010000 -0.034181 0
24.015000 -0.033508 0
24.020000 -0.032835 0
24.025000 -0.032159 0
24.030000 -0.031478 0
24.035000 -0.030785 0
24.040000 -0.030070 0
24.045000 -0.029319 0
24.050000 -0.028509 0
24.055000 -0.027608 0
24.060000 -0.026569 0
24.065000 -0.025328 0
24.070000 -0.023796 0
24.075000 -0.021859 0
24.080000 -0.019368 0
24.085000 -0.016142 0
24.090000 -0.011963 0
24.095000 -0.006583 0
24.100000 0.000270 0
24.105000 0.008874 0
24.110000 0.019497 0
24.115000 0.032363 0
24.120000 0.047625 0
24.125000 0.065329 0
24.130000 0.085378 0
24.135000 0.107507 0
24.140000 0.131264 0
24.145000 0.156008 0
24.150000 0.180926 0
24.155000 0.205068 0
24.160000 0.227401 0
24.165000 0.246883 0
24.170000 0.262539 0
24.175000 0.273539 0
24.180000 0.279276 0
24.185000 0.279415 1
24.190000 0.273927 0
24.195000 0.263092 0
24.200000 0.247475 0
24.205000 0.227876 0
24.210000 0.205262 0
24.215000 0.180686 0
24.220000 0.155208 0
24.225000 0.129819 0
24.230000 0.105375 0
24.235000 0.082541 0
24.240000 0.061722 0
24.245000 0.042956 0
24.250000 0.025730 0
24.255000 0.008723 0
24.260000 -0.010360 0
24.265000 -0.034515 0
24.270000 -0.066311 0
24.275000 -0.105855 0
24.280000 -0.148549 0
24.285000 -0.184006 0
24.290000 -0.197101 2
24.295000 -0.170781 0
24.300000 -0.089354 0
24.305000 0.058073 0
24.310000 0.272553 0
24.315000 0.537895 0
24.320000 0.814746 0
24.325000 1.044106 0
24.330000 1.165045 3
24.335000 1.139540 0
24.340000 0.970907 0
24.345000 0.704570 0
24.350000 0.404779 0
24.355000 0.129151 0
24.360000 -0.085597 0
24.365000 -0.224381 0
24.370000 -0.288249 0
24.375000 -0.289434 4
24.380000 -0.247657 0
24.385000 -0.185463 0
24.390000 -0.122372 0
24.395000 -0.070427 0
24.400000 -0.033362 0
24.405000 -0.009078 0
24.410000 0.006847 0
24.415000 0.018563 0
24.420000 0.028914 0
24.425000 0.039486 0
24.430000 0.051040 0
24.435000 0.063912 0
24.440000 0.078243 0
24.445000 0.094088 0
24.450000 0.111454 0
24.455000 0.130303 0
24.460000 0.150557 0
24.465000 0.172089 0
24.470000 0.194727 0
24.475000 0.218248 0
24.480000 0.242384 0
24.485000 0.266820 0
24.490000 0.291204 0
24.495000 0.315149 0
24.500000 0.338247 0
24.505000 0.360079 0
24.510000 0.380224 0
24.515000 0.398274 0
24.520000 0.413849 0
24.525000 0.426605 0
24.530000 0.436252 0
24.535000 0.442559 0
24.540000 0.445369 5
24.545000 0.444598 0
24.550000 0.440242 0
24.555000 0.432379 0
24.560000 0.421161 0
24.565000 0.406816 0
24.570000 0.389634 0
24.575000 0.369959 0
24.580000 0.348176 0
24.585000 0.324701 0
24.590000 0.299965 0
24.595000 0.274402 0
24.600000 0.248435 0
24.605000 0.222466 0
24.610000 0.196865 0
24.615000 0.171965 0
24.620000 0.148052 0
24.625000 0.125362 0
24.630000 0.104083 0
24.635000 0.084352 0
24.640000 0.066256 0
24.645000 0.049841 0
24.650000 0.035110 0
24.655000 0.022030 0
24.660000 0.010543 0
24.665000 0.000565 0
24.670000 -0.008006 0
24.675000 -0.015281 0
24.680000 -0.021380 0
24.685000 -0.026425 0
24.690000 -0.030537 0
24.695000 -0.033831 0
24.700000 -0.036417 0
24.705000 -0.038398 0
24.710000 -0.039866 0
24.715000 -0.040904 0
24.720000 -0.041586 0
24.725000 -0.041974 0
24.730000 -0.042125 0
24.735000 -0.042084 0
24.740000 -0.041891 0
24.745000 -0.041577 0
24.750000 -0.041171 0
24.755000 -0.040692 0
24.760000 -0.040023 0
24.765000 -0.039324 0
24.770000 -0.038629 0
24.775000 -0.037938 0
24.780000 -0.037249 0
24.785000 -0.036565 0
24.790000 -0.035883 0
24.795000 -0.035205 0
24.800000 -0.034531 0
24.805000 -0.033860 0
24.810000 -0.033192 0
24.815000 -0.032527 0
24.820000 -0.031866 0
24.825000 -0.031208 0
24.830000 -0.030554 0
24.835000 -0.029902 0
24.840000 -0.029254 0
24.845000 -0.028609 0
24.850000 -0.027967 0
24.855000 -0.027328 0
24.860000 -0.026691 0
24.865000 -0.026056 0
24.870000 -0.025422 0
24.875000 -0.024787 0
24.880000 -0.024147 0
24.885000 -0.023498 0
24.890000 -0.022831 0
24.895000 -0.022134 0
24.900000 -0.021387 0
24.905000 -0.020560 0
24.910000 -0.019612 0
24.915000 -0.018483 0
24.920000 -0.017090 0
24.925000 -0.015324 0
24.930000 -0.013043 0
24.935000 -0.010070 0
24.940000 -0.006190 0
24.945000 -0.001155 0
24.950000 0.005311 0
24.955000 0.013496 0
24.960000 0.023679 0
24.965000 0.036103 0
24.970000 0.050942 0
24.975000 0.068262 0
24.980000 0.087988 0
24.985000 0.109871 0
24.990000 0.133467 0
24.995000 0.158134 0
25.000000 0.183049 0
25.005000 0.207240 0
25.010000 0.229646 0
25.015000 0.249190 0
25.020000 0.264864 0
25.025000 0.275813 0
25.030000 0.281411 1
25.035000 0.281321 0
25.040000 0.275523 0
25.045000 0.264324 0
25.050000 0.248324 0
25.055000 0.228365 0
25.060000 0.205455 0
25.065000 0.180686 0
25.070000 0.155145 0
25.075000 0.129836 0
25.080000 0.105615 0
25.085000 0.083123 0
25.090000 0.062718 0
25.095000 0.044339 0
25.100000 0.027291 0
25.105000 0.009978 0
25.110000 -0.010202 0
25.115000 -0.036374 0
25.120000 -0.070698 0
25.125000 -0.112035 0
25.130000 -0.153780 0
25.135000 -0.183379 0
25.140000 -0.184177 2
25.145000 -0.138725 0
25.150000 -0.032261 0
25.155000 0.143210 0
25.160000 0.382469 0
25.165000 0.659063 0
25.170000 0.922250 0
25.175000 1.107328 0
25.180000 1.159831 3
25.185000 1.062332 0
25.190000 0.842261 0
25.195000 0.553834 0
25.200000 0.257717 0
25.205000 0.001381 0
25.210000 -0.188413 0
25.215000 -0.303227 0
25.220000 -0.347737 4
25.225000 -0.335832 0
25.230000 -0.287303 0
25.235000 -0.223311 0
25.240000 -0.161184 0
25.245000 -0.110953 0
25.250000 -0.075195 0
25.255000 -0.051515 0
25.260000 -0.035676 0
25.265000 -0.023805 0
25.270000 -0.013243 0
25.275000 -0.002490 0
25.280000 0.009191 0
25.285000 0.022133 0
25.290000 0.036480 0
25.295000 0.052290 0
25.300000 0.069577 0
25.305000 0.088311 0
25.310000 0.108426 0
25.315000 0.129815 0
25.320000 0.152326 0
25.325000 0.175764 0
25.330000 0.199887 0
25.335000 0.224415 0
25.340000 0.249028 0
25.345000 0.273372 0
25.350000 0.297072 0
25.355000 0.319736 0
25.360000 0.340964 0
25.365000 0.360365 0
25.370000 0.377564 0
25.375000 0.392215 0
25.380000 0.404014 0
25.385000 0.412706 0
25.390000 0.418096 0
25.395000 0.420056 5
25.400000 0.418528 0
25.405000 0.413528 0
25.410000 0.405146 0
25.415000 0.393539 0
25.420000 0.378933 0
25.425000 0.361609 0
25.430000 0.341897 0
25.435000 0.320163 0
25.440000 0.296801 0
25.445000 0.272218 0
25.450000 0.246822 0
25.455000 0.221016 0
25.460000 0.195179 0
25.465000 0.169664 0
25.470000 0.144790 0
25.475000 0.120832 0
25.480000 0.098024 0
25.485000 0.076553 0
25.490000 0.056557 0
25.495000 0.038133 0
25.500000 0.021334 0
25.505000 0.006174 0
25.510000 -0.007364 0
25.515000 -0.019329 0
25.520000 -0.029790 0
25.525000 -0.038836 0
25.530000 -0.046570 0
25.535000 -0.053101 0
25.540000 -0.058543 0
25.545000 -0.063013 0
25.550000 -0.066621 0
25.555000 -0.069477 0
25.560000 -0.071681 0
25.565000 -0.073326 0
25.570000 -0.074497 0
25.575000 -0.075271 0
25.580000 -0.075714 0
25.585000 -0.075885 0
25.590000 -0.075834 0
25.595000 -0.075604 0
25.600000 -0.075230 0
25.605000 -0.074743 0
25.610000 -0.074168 0
25.615000 -0.073524 0
25.620000 -0.072690 0
25.625000 -0.071829 0
25.630000 -0.070972 0
25.635000 -0.070119 0
25.640000 -0.069270 0
25.645000 -0.068426 0
25.650000 -0.067585 0
25.655000 -0.066749 0
25.660000 -0.065918 0
25.665000 -0.065090 0
25.670000 -0.064266 0
25.675000 -0.063447 0
25.680000 -0.062631 0
25.685000 -0.061820 0
25.690000 -0.061013 0
25.695000 -0.060210 0
25.700000 -0.059410 0
25.705000 -0.058615 0
25.710000 -0.057823 0
25.715000 -0.057035 0
25.720000 -0.056251 0
25.725000 -0.055470 0
25.730000 -0.054690 0
25.735000 -0.053912 0
25.740000 -0.053133 0
25.745000 -0.052349 0
25.750000 -0.051555 0
25.755000 -0.050743 0
25.760000 -0.049899 0
25.765000 -0.049002 0
25.770000 -0.048025 0
25.775000 -0.046926 0
25.780000 -0.045645 0
25.785000 -0.044105 0
25.790000 -0.042201 0
25.795000 -0.039799 0
25.800000 -0.036732 0
25.805000 -0.032799 0
25.810000 -0.027769 0
25.815000 -0.021384 0
25.820000 -0.013373 0
25.825000 -0.003469 0
25.830000 0.008565 0
25.835000 0.022911 0
25.840000 0.039661 0
25.845000 0.058782 0
25.850000 0.080093 0
25.855000 0.103238 0
25.860000 0.127679 0
25.865000 0.152703 0
25.870000 0.177445 0
25.875000 0.200935 0
25.880000 0.222154 0
25.885000 0.240108 0
25.890000 0.253903 0
25.895000 0.262818 0
25.900000 0.266369 1
25.905000 0.264349 0
25.910000 0.256850 0
25.915000 0.244254 0
25.920000 0.227202 0
25.925000 0.206537 0
25.930000 0.183238 0
25.935000 0.158342 0
25.940000 0.132864 0
25.945000 0.107738 0
25.950000 0.083749 0
25.955000 0.061481 0
25.960000 0.041253 0
25.965000 0.022991 0
25.970000 0.006038 0
25.975000 -0.011088 0
25.980000 -0.030800 0
25.985000 -0.056052 0
25.990000 -0.089097 0
25.995000 -0.129445 0
26.000000 -0.171822 0
26.005000 -0.205402 0
26.010000 -0.215075 2
26.015000 -0.184233 0
26.020000 -0.097883 0
26.025000 0.054048 0
26.030000 0.271756 0
26.035000 0.538466 0
26.040000 0.815033 0
26.045000 1.043715 0
26.050000 1.165254 3
26.055000 1.143507 0
26.060000 0.982292 0
26.065000 0.722341 0
26.070000 0.423203 0
26.075000 0.140546 0
26.080000 -0.087906 0
26.085000 -0.244509 0
26.090000 -0.327288 0
26.095000 -0.345253 4
26.100000 -0.315104 0
26.105000 -0.257610 0
26.110000 -0.192674 0
26.115000 -0.134667 0
26.120000 -0.090324 0
26.125000 -0.059832 0
26.130000 -0.039756 0
26.135000 -0.025866 0
26.140000 -0.014759 0
26.145000 -0.004277 0
26.150000 0.006732 0
26.155000 0.018816 0
26.160000 0.032217 0
26.165000 0.047043 0
26.170000 0.063332 0
26.175000 0.081081 0
26.180000 0.100252 0
26.185000 0.120766 0
26.190000 0.142501 0
26.195000 0.165294 0
26.200000 0.188939 0
26.205000 0.213185 0
26.210000 0.237742 0
26.215000 0.262283 0
26.220000 0.286454 0
26.225000 0.309877 0
26.230000 0.332162 0
26.235000 0.352915 0
26.240000 0.371752 0
26.245000 0.388311 0
26.250000 0.402258 0
26.255000 0.413304 0
26.260000 0.421211 0
26.265000 0.425800 0
26.270000 0.426961 5
26.275000 0.424653 0
26.280000 0.418906 0
26.285000 0.409825 0
26.290000 0.397580 0
26.295000 0.382403 0
26.300000 0.364583 0
26.305000 0.344454 0
26.310000 0.322382 0
26.315000 0.298760 0
26.320000 0.273992 0
26.325000 0.248480 0
26.330000 0.222618 0
26.335000 0.196779 0
26.340000 0.171308 0
26.345000 0.146512 0
26.350000 0.122660 0
26.355000 0.099976 0
26.360000 0.078639 0
26.365000 0.058782 0
26.370000 0.040495 0
26.375000 0.023827 0
26.380000 0.008788 0
26.385000 -0.004641 0
26.390000 -0.016510 0
26.395000 -0.026891 0
26.400000 -0.035871 0
26.405000 -0.043552 0
26.410000 -0.050043 0
26.415000 -0.055458 0
26.420000 -0.059909 0
26.425000 -0.063509 0
26.430000 -0.066363 0
26.435000 -0.068571 0
26.440000 -0.070225 0
26.445000 -0.071410 0
26.450000 -0.072199 0
26.455000 -0.072659 0
26.460000 -0.072848 0
26.465000 -0.072815 0
26.470000 -0.072604 0
26.475000 -0.072249 0
26.480000 -0.071780 0
26.485000 -0.071223 0
26.490000 -0.070597 0
26.495000 -0.069779 0
26.500000 -0.068932 0
26.505000 -0.068089 0
26.510000 -0.067250 0
26.515000 -0.066416 0
26.520000 -0.065586 0
26.525000 -0.064760 0
26.530000 -0.063938 0
26.535000 -0.063120 0
26.540000 -0.062306 0
26.545000 -0.061497 0
26.550000 -0.060691 0
26.555000 -0.059889 0
26.560000 -0.059092 0
26.565000 -0.058298 0
26.570000 -0.057508 0
26.575000 -0.056722 0
26.580000 -0.055940 0
26.585000 -0.055162 0
26.590000 -0.054388 0
26.595000 -0.053617 0
26.600000 -0.052848 0
26.605000 -0.052083 0
26.610000 -0.051318 0
26.615000 -0.050553 0
26.620000 -0.049784 0
26.625000 -0.049007 0
26.630000 -0.048213 0
26.635000 -0.047391 0
26.640000 -0.046522 0
26.645000 -0.045581 0
26.650000 -0.044529 0
26.655000 -0.043314 0
26.660000 -0.041862 0
26.665000 -0.040078 0
26.670000 -0.037837 0
26.675000 -0.034984 0
26.680000 -0.031329 0
26.685000 -0.026651 0
26.690000 -0.020702 0
26.695000 -0.013218 0
26.700000 -0.003930 0
26.705000 0.007408 0
26.710000 0.020994 0
26.715000 0.036952 0
26.720000 0.055292 0
26.725000 0.075886 0
26.730000 0.098442 0
26.735000 0.122490 0
26.740000 0.147383 0
26.745000 0.172315 0
26.750000 0.196360 0
26.755000 0.218521 0
26.760000 0.237797 0
26.765000 0.253261 0
26.770000 0.264125 0
26.775000 0.269816 0
26.780000 0.270015 1
26.785000 0.264697 0
26.790000 0.254123 0
26.795000 0.238827 0
26.800000 0.219566 0
26.805000 0.197259 0
26.810000 0.172916 0
26.815000 0.147557 0
26.820000 0.122149 0
26.825000 0.097540 0
26.830000 0.074405 0
26.835000 0.053190 0
26.840000 0.034023 0
26.845000 0.016558 0
26.850000 -0.000249 0
26.855000 -0.018344 0
26.860000 -0.040478 0
26.865000 -0.069435 0
26.870000 -0.106381 0
26.875000 -0.148727 0
26.880000 -0.188587 0
26.885000 -0.212967 2
26.890000 -0.205855 0
26.895000 -0.151207 0
26.900000 -0.035977 0
26.905000 0.146134 0
26.910000 0.388758 0
26.915000 0.665886 0
26.920000 0.929622 0
26.925000 1.119502 0
26.930000 1.183593 3
26.935000 1.101951 0
26.940000 0.895544 0
26.945000 0.613615 0
26.950000 0.314676 0
26.955000 0.047253 0
26.960000 -0.159060 0
26.965000 -0.292698 0
26.970000 -0.355416 0
26.975000 -0.358368 4
26.980000 -0.319166 0
26.985000 -0.258160 0
26.990000 -0.193674 0
26.995000 -0.138042 0
27.000000 -0.096318 0
27.005000 -0.067794 0
27.010000 -0.048849 0
27.015000 -0.035442 0
27.020000 -0.024441 0
27.025000 -0.013894 0
27.030000 -0.002762 0
27.035000 0.009449 0
27.040000 0.022963 0
27.045000 0.037877 0
27.050000 0.054227 0
27.055000 0.072012 0
27.060000 0.091192 0
27.065000 0.111693 0
27.070000 0.133400 0
27.075000 0.156156 0
27.080000 0.179767 0
27.085000 0.203992 0
27.090000 0.228557 0
27.095000 0.253151 0
27.100000 0.277434 0
27.105000 0.301044 0
27.110000 0.323607 0
27.115000 0.344741 0
27.120000 0.364075 0
27.125000 0.381251 0
27.130000 0.395941 0
27.135000 0.407851 0
27.140000 0.416738 0
27.145000 0.422412 0
27.150000 0.424744 5
27.155000 0.423673 0
27.160000 0.419205 0
27.165000 0.411413 0
27.170000 0.400438 0
27.175000 0.386481 0
27.180000 0.369800 0
27.185000 0.350699 0
27.190000 0.329518 0
27.195000 0.306629 0
27.200000 0.282414 0
27.205000 0.257267 0
27.210000 0.231573 0
27.215000 0.205705 0
27.220000 0.180010 0
27.225000 0.154808 0
27.230000 0.130382 0
27.235000 0.106973 0
27.240000 0.084783 0
27.245000 0.063967 0
27.250000 0.044642 0
27.255000 0.026879 0
27.260000 0.010716 0
27.265000 -0.003848 0
27.270000 -0.016839 0
27.275000 -0.028311 0
27.280000 -0.038337 0
27.285000 -0.047006 0
27.290000 -0.054418 0
27.295000 -0.060679 0
27.300000 -0.065899 0
27.305000 -0.070188 0
27.310000 -0.073651 0
27.315000 -0.076393 0
27.320000 -0.078507 0
27.325000 -0.080083 0
27.330000 -0.081201 0
27.335000 -0.081933 0
27.340000 -0.082343 0
27.345000 -0.082486 0
27.350000 -0.082411 0
27.355000 -0.082159 0
27.360000 -0.081765 0
27.365000 -0.081258 0
27.370000 -0.080661 0
27.375000 -0.079995 0
27.380000 -0.079131 0
27.385000 -0.078237 0
27.390000 -0.077348 0
27.395000 -0.076464 0
27.400000 -0.075583 0
27.405000 -0.074707 0
27.410000 -0.073836 0
27.415000 -0.072969 0
27.420000 -0.072106 0
27.425000 -0.071247 0
27.430000 -0.070393 0
27.435000 -0.069543 0
27.440000 -0.068697 0
27.445000 -0.067856 0
27.450000 -0.067018 0
27.455000 -0.066185 0
27.460000 -0.065356 0
27.465000 -0.064531 0
27.470000 -0.063710 0
27.475000 -0.062893 0
27.480000 -0.062080 0
27.485000 -0.061270 0
27.490000 -0.060463 0
27.495000 -0.059658 0
27.500000 -0.058854 0
27.505000 -0.058049 0
27.510000 -0.057238 0
27.515000 -0.056416 0
27.520000 -0.055575 0
27.525000 -0.054700 0
27.530000 -0.053772 0
27.535000 -0.052762 0
27.540000 -0.051628 0
27.545000 -0.050315 0
27.550000 -0.048745 0
27.555000 -0.046819 0
27.560000 -0.044409 0
27.565000 -0.041356 0
27.570000 -0.037472 0
27.575000 -0.032537 0
27.580000 -0.026307 0
27.585000 -0.018525 0
27.590000 -0.008934 0
27.595000 0.002699 0
27.600000 0.016559 0
27.605000 0.032755 0
27.610000 0.051286 0
27.615000 0.072017 0
27.620000 0.094659 0
27.625000 0.118750 0
27.630000 0.143662 0
27.635000 0.168619 0
27.640000 0.192726 0
27.645000 0.215022 0
27.650000 0.234540 0
27.655000 0.250374 0
27.660000 0.261753 0
27.665000 0.268098 0
27.670000 0.269070 1
27.675000 0.264605 0
27.680000 0.254914 0
27.685000 0.240470 0
27.690000 0.221968 0
27.695000 0.200269 0
27.700000 0.176336 0
27.705000 0.151158 0
27.710000 0.125689 0
27.715000 0.100784 0
27.720000 0.077151 0
27.725000 0.055296 0
27.730000 0.035456 0
27.735000 0.017479 0
27.740000 0.000630 0
27.745000 -0.016628 0
27.750000 -0.036685 0
27.755000 -0.062369 0
27.760000 -0.095734 0
27.765000 -0.136166 0
27.770000 -0.178541 0
27.775000 -0.212546 0
27.780000 -0.223835 2
27.785000 -0.196552 0
27.790000 -0.116167 0
27.795000 0.027574 0
27.800000 0.236367 0
27.805000 0.497004 0
27.810000 0.775786 0
27.815000 1.020057 0
27.820000 1.171568 0
27.825000 1.188300 3
27.830000 1.061969 0
27.835000 0.822574 0
27.840000 0.527627 0
27.845000 0.236289 0
27.850000 -0.008065 0
27.855000 -0.182851 0
27.860000 -0.282727 0
27.865000 -0.314516 4
27.870000 -0.293592 0
27.875000 -0.240427 0
27.880000 -0.175789 0
27.885000 -0.115694 0
27.890000 -0.068560 0
27.895000 -0.035705 0
27.900000 -0.014126 0
27.905000 0.000470 0
27.910000 0.011740 0
27.915000 0.022084 0
27.920000 0.032815 0
27.925000 0.044565 0
27.930000 0.057614 0
27.935000 0.072085 0
27.940000 0.088027 0
27.945000 0.105441 0
27.950000 0.124294 0
27.955000 0.144510 0
27.960000 0.165974 0
27.965000 0.188525 0
27.970000 0.211959 0
27.975000 0.236028 0
27.980000 0.260442 0
27.985000 0.284875 0
27.990000 0.308969 0
27.995000 0.332345 0
28.000000 0.354608 0
28.005000 0.375360 0
28.010000 0.394213 0
28.015000 0.410796 0
28.020000 0.424772 0
28.025000 0.435843 0
28.030000 0.443768 0
28.035000 0.448362 0
28.040000 0.449512 5
28.045000 0.447174 0
28.050000 0.441377 0
28.055000 0.432225 0
28.060000 0.419888 0
28.065000 0.404603 0
28.070000 0.386660 0
28.075000 0.366396 0
28.080000 0.344185 0
28.085000 0.320422 0
28.090000 0.295517 0
28.095000 0.269875 0
28.100000 0.243896 0
28.105000 0.217955 0
28.110000 0.192399 0
28.115000 0.167537 0
28.120000 0.143640 0
28.125000 0.120930 0
28.130000 0.099585 0
28.135000 0.079737 0
28.140000 0.061474 0
28.145000 0.044841 0
28.150000 0.029847 0
28.155000 0.016468 0
28.160000 0.004651 0
28.165000 -0.005677 0
28.170000 -0.014608 0
28.175000 -0.022245 0
28.180000 -0.028700 0
28.185000 -0.034087 0
28.190000 -0.038521 0
28.195000 -0.042113 0
28.200000 -0.044970 0
28.205000 -0.047193 0
28.210000 -0.048872 0
28.215000 -0.050091 0
28.220000 -0.050925 0
28.225000 -0.051438 0
28.230000 -0.051688 0
28.235000 -0.051723 0
28.240000 -0.051585 0
28.245000 -0.051309 0
28.250000 -0.050924 0
28.255000 -0.050454 0
28.260000 -0.049887 0
28.265000 -0.049139 0
28.270000 -0.048395 0
28.275000 -0.047654 0
28.280000 -0.046918 0
28.285000 -0.046185 0
28.290000 -0.045456 0
28.295000 -0.044730 0
28.300000 -0.044008 0
28.305000 -0.043290 0
28.310000 -0.042575 0
28.315000 -0.041863 0
28.320000 -0.041156 0
28.325000 -0.040451 0
28.330000 -0.039751 0
28.335000 -0.039054 0
28.340000 -0.038360 0
28.345000 -0.037669 0
28.350000 -0.036982 0
28.355000 -0.036299 0
28.360000 -0.035618 0
28.365000 -0.034940 0
28.370000 -0.034265 0
28.375000 -0.033591 0
28.380000 -0.032918 0
28.385000 -0.032242 0
28.390000 -0.031561 0
28.395000 -0.030867 0
