0.000000 1.153655 3
0.005000 1.036058 0
0.010000 0.741580 0
0.015000 0.371563 0
0.020000 0.028143 0
0.025000 -0.224651 0
0.030000 -0.364763 0
0.035000 -0.400000 4
0.040000 -0.357635 0
0.045000 -0.274992 0
0.050000 -0.186744 0
0.055000 -0.113844 0
0.060000 -0.061280 0
0.065000 -0.024050 0
0.070000 0.005237 0
0.075000 0.032041 0
0.080000 0.059149 0
0.085000 0.087525 0
0.090000 0.117228 0
0.095000 0.147933 0
0.100000 0.179142 0
0.105000 0.210256 0
0.110000 0.240610 0
0.115000 0.269499 0
0.120000 0.296200 0
0.125000 0.320006 0
0.130000 0.340254 0
0.135000 0.356355 0
0.140000 0.367824 0
0.145000 0.374302 0
0.150000 0.375575 5
0.155000 0.371587 0
0.160000 0.362438 0
0.165000 0.348386 0
0.170000 0.329830 0
0.175000 0.307294 0
0.180000 0.281398 0
0.185000 0.252834 0
0.190000 0.222333 0
0.195000 0.190634 0
0.200000 0.158454 0
0.205000 0.126465 0
0.210000 0.095268 0
0.215000 0.065382 0
0.220000 0.037229 0
0.225000 0.011132 0
0.230000 -0.012687 0
0.235000 -0.034098 0
0.240000 -0.053059 0
0.245000 -0.069600 0
0.250000 -0.083814 0
0.255000 -0.095841 0
0.260000 -0.105853 0
0.265000 -0.114046 0
0.270000 -0.120626 0
0.275000 -0.125796 0
0.280000 -0.129758 0
0.285000 -0.132697 0
0.290000 -0.134785 0
0.295000 -0.136174 0
0.300000 -0.136997 0
0.305000 -0.136205 0
0.310000 -0.135143 0
0.315000 -0.134087 0
0.320000 -0.133036 0
0.325000 -0.131990 0
0.330000 -0.130949 0
0.335000 -0.129913 0
0.340000 -0.128880 0
0.345000 -0.127850 0
0.350000 -0.126820 0
0.355000 -0.125785 0
0.360000 -0.124737 0
0.365000 -0.123662 0
0.370000 -0.122534 0
0.375000 -0.121316 0
0.380000 -0.119945 0
0.385000 -0.118328 0
0.390000 -0.116330 0
0.395000 -0.113760 0
0.400000 -0.110362 0
0.405000 -0.105809 0
0.410000 -0.099701 0
0.415000 -0.091578 0
0.420000 -0.080948 0
0.425000 -0.067337 0
0.430000 -0.050348 0
0.435000 -0.029745 0
0.440000 -0.005539 0
0.445000 0.021935 0
0.450000 0.051965 0
0.455000 0.083443 0
0.460000 0.114906 0
0.465000 0.144627 0
0.470000 0.170766 0
0.475000 0.191553 0
0.480000 0.205487 0
0.485000 0.211517 1
0.490000 0.209169 0
0.495000 0.198615 0
0.500000 0.180650 0
0.505000 0.156590 0
0.510000 0.128120 0
0.515000 0.097083 0
0.520000 0.065254 0
0.525000 0.034039 0
0.530000 0.004037 0
0.535000 -0.025611 0
0.540000 -0.057834 0
0.545000 -0.097247 0
0.550000 -0.147450 0
0.555000 -0.205903 0
0.560000 -0.259210 0
0.565000 -0.283067 2
0.570000 -0.247905 0
0.575000 -0.126843 0
0.580000 0.095351 0
0.585000 0.408136 0
0.590000 0.757810 0
0.595000 1.046668 0
0.600000 1.169503 3
0.605000 1.073243 0
0.610000 0.792081 0
0.615000 0.424423 0
0.620000 0.074964 0
0.625000 -0.187789 0
0.630000 -0.338246 0
0.635000 -0.382015 4
0.640000 -0.345078 0
0.645000 -0.264480 0
0.650000 -0.175759 0
0.655000 -0.101323 0
0.660000 -0.047333 0
0.665000 -0.009270 0
0.670000 0.020307 0
0.675000 0.047085 0
0.680000 0.074039 0
0.685000 0.102233 0
0.690000 0.131770 0
0.695000 0.162340 0
0.700000 0.193452 0
0.705000 0.224509 0
0.710000 0.254849 0
0.715000 0.283764 0
0.720000 0.310531 0
0.725000 0.334436 0
0.730000 0.354812 0
0.735000 0.371062 0
0.740000 0.382695 0
0.745000 0.389342 0
0.750000 0.390781 5
0.755000 0.386949 0
0.760000 0.377939 0
0.765000 0.364004 0
0.770000 0.345538 0
0.775000 0.323063 0
0.780000 0.297199 0
0.785000 0.268637 0
0.790000 0.238111 0
0.795000 0.206363 0
0.800000 0.174113 0
0.805000 0.142037 0
0.810000 0.110742 0
0.815000 0.080748 0
0.820000 0.052484 0
0.825000 0.026273 0
0.830000 0.002342 0
0.835000 -0.019177 0
0.840000 -0.038242 0
0.845000 -0.054882 0
0.850000 -0.069189 0
0.855000 -0.081303 0
0.860000 -0.091398 0
0.865000 -0.099668 0
0.870000 -0.106321 0
0.875000 -0.111563 0
0.880000 -0.115593 0
0.885000 -0.118599 0
0.890000 -0.120753 0
0.895000 -0.122207 0
0.900000 -0.123095 0
0.905000 -0.122371 0
0.910000 -0.121379 0
0.915000 -0.120391 0
0.920000 -0.119408 0
0.925000 -0.118430 0
0.930000 -0.117457 0
0.935000 -0.116488 0
0.940000 -0.115522 0
0.945000 -0.114559 0
0.950000 -0.113595 0
0.955000 -0.112625 0
0.960000 -0.111642 0
0.965000 -0.110631 0
0.970000 -0.109566 0
0.975000 -0.108408 0
0.980000 -0.107093 0
0.985000 -0.105527 0
0.990000 -0.103572 0
0.995000 -0.101034 0
1.000000 -0.097652 0
1.005000 -0.093096 0
1.010000 -0.086959 0
1.015000 -0.078778 0
1.020000 -0.068060 0
1.025000 -0.054329 0
1.030000 -0.037195 0
1.035000 -0.016434 0
1.040000 0.007927 0
1.045000 0.035530 0
1.050000 0.065635 0
1.055000 0.097104 0
1.060000 0.128447 0
1.065000 0.157917 0
1.070000 0.183668 0
1.075000 0.203934 0
1.080000 0.217238 0
1.085000 0.222564 1
1.090000 0.219488 0
1.095000 0.208233 0
1.100000 0.189644 0
1.105000 0.165082 0
1.110000 0.136259 0
1.115000 0.105028 0
1.120000 0.073151 0
1.125000 0.041987 0
1.130000 0.012031 0
1.135000 -0.017758 0
1.140000 -0.050528 0
1.145000 -0.090976 0
1.150000 -0.142351 0
1.155000 -0.201155 0
1.160000 -0.252690 0
1.165000 -0.271660 2
1.170000 -0.228287 0
1.175000 -0.096393 0
1.180000 0.137249 0
1.185000 0.457935 0
1.190000 0.806101 0
1.195000 1.080147 0
1.200000 1.177611 3
1.205000 1.055014 0
1.210000 0.756707 0
1.215000 0.385969 0
1.220000 0.045166 0
1.225000 -0.202771 0
1.230000 -0.337198 0
1.235000 -0.367240 4
1.240000 -0.321342 0
1.245000 -0.237477 0
1.250000 -0.150027 0
1.255000 -0.078923 0
1.260000 -0.028110 0
1.265000 0.007946 0
1.270000 0.036652 0
1.275000 0.063257 0
1.280000 0.090339 0
1.285000 0.118735 0
1.290000 0.148444 0
1.295000 0.179107 0
1.300000 0.210203 0
1.305000 0.241119 0
1.310000 0.271175 0
1.315000 0.299650 0
1.320000 0.325817 0
1.325000 0.348964 0
1.330000 0.368430 0
1.335000 0.383636 0
1.340000 0.394111 0
1.345000 0.399517 0
1.350000 0.399666 5
1.355000 0.394530 0
1.360000 0.384245 0
1.365000 0.369100 0
1.370000 0.349526 0
1.375000 0.326076 0
1.380000 0.299397 0
1.385000 0.270199 0
1.390000 0.239227 0
1.395000 0.207225 0
1.400000 0.174910 0
1.405000 0.142946 0
1.410000 0.111920 0
1.415000 0.082334 0
1.420000 0.054587 0
1.425000 0.028979 0
1.430000 0.005707 0
1.435000 -0.015122 0
1.440000 -0.033489 0
1.445000 -0.049444 0
1.450000 -0.063097 0
1.455000 -0.074599 0
1.460000 -0.084136 0
1.465000 -0.091908 0
1.470000 -0.098124 0
1.475000 -0.102990 0
1.480000 -0.106705 0
1.485000 -0.109452 0
1.490000 -0.111398 0
1.495000 -0.112690 0
1.500000 -0.113207 0
1.505000 -0.112260 0
1.510000 -0.111318 0
1.515000 -0.110381 0
1.520000 -0.109448 0
1.525000 -0.108519 0
1.530000 -0.107595 0
1.535000 -0.106675 0
1.540000 -0.105757 0
1.545000 -0.104841 0
1.550000 -0.103922 0
1.555000 -0.102995 0
1.560000 -0.102049 0
1.565000 -0.101065 0
1.570000 -0.100014 0
1.575000 -0.098846 0
1.580000 -0.097486 0
1.585000 -0.095821 0
1.590000 -0.093691 0
1.595000 -0.090873 0
1.600000 -0.087074 0
1.605000 -0.081928 0
1.610000 -0.074998 0
1.615000 -0.065798 0
1.620000 -0.053833 0
1.625000 -0.038652 0
1.630000 -0.019926 0
1.635000 0.002465 0
1.640000 0.028350 0
1.645000 0.057196 0
1.650000 0.088067 0
1.655000 0.119642 0
1.660000 0.150281 0
1.665000 0.178153 0
1.670000 0.201413 0
1.675000 0.218396 0
1.680000 0.227823 0
1.685000 0.228951 1
1.690000 0.221675 0
1.695000 0.206542 0
1.700000 0.184684 0
1.705000 0.157674 0
1.710000 0.127341 0
1.715000 0.095536 0
1.720000 0.063869 0
1.725000 0.033325 0
1.730000 0.003676 0
1.735000 -0.027223 0
1.740000 -0.063582 0
1.745000 -0.109904 0
1.750000 -0.166474 0
1.755000 -0.223888 0
1.760000 -0.260956 2
1.765000 -0.248704 0
1.770000 -0.158144 0
1.775000 0.031170 0
1.780000 0.318869 0
1.785000 0.665770 0
1.790000 0.984777 0
1.795000 1.165760 3
1.800000 1.133424 0
1.805000 0.896039 0
1.810000 0.540740 0
1.815000 0.177988 0
1.820000 -0.110769 0
1.825000 -0.289219 0
1.830000 -0.356481 4
1.835000 -0.334906 0
1.840000 -0.260635 0
1.845000 -0.171337 0
1.850000 -0.093212 0
1.855000 -0.035588 0
1.860000 0.004700 0
1.865000 0.035155 0
1.870000 0.062025 0
1.875000 0.088754 0
1.880000 0.116656 0
1.885000 0.145933 0
1.890000 0.176309 0
1.895000 0.207298 0
1.900000 0.238306 0
1.905000 0.268663 0
1.910000 0.297651 0
1.915000 0.324534 0
1.920000 0.348584 0
1.925000 0.369117 0
1.930000 0.385519 0
1.935000 0.397283 0
1.940000 0.404029 0
1.945000 0.405526 5
1.950000 0.401702 0
1.955000 0.392652 0
1.960000 0.378631 0
1.965000 0.360041 0
1.970000 0.337415 0
1.975000 0.311384 0
1.980000 0.282656 0
1.985000 0.251978 0
1.990000 0.220103 0
1.995000 0.187766 0
2.000000 0.155649 0
2.005000 0.124364 0
2.010000 0.094435 0
2.015000 0.066286 0
2.020000 0.040238 0
2.025000 0.016511 0
2.030000 -0.004775 0
2.035000 -0.023583 0
2.040000 -0.039955 0
2.045000 -0.053991 0
2.050000 -0.065841 0
2.055000 -0.075686 0
2.060000 -0.083728 0
2.065000 -0.090177 0
2.070000 -0.095243 0
2.075000 -0.099126 0
2.080000 -0.102014 0
2.085000 -0.104079 0
2.090000 -0.105471 0
2.095000 -0.106066 0
2.100000 -0.105154 0
2.105000 -0.104248 0
2.110000 -0.103345 0
2.115000 -0.102448 0
2.120000 -0.101554 0
2.125000 -0.100665 0
2.130000 -0.099779 0
2.135000 -0.098896 0
2.140000 -0.098014 0
2.145000 -0.097130 0
2.150000 -0.096237 0
2.155000 -0.095326 0
2.160000 -0.094378 0
2.165000 -0.093363 0
2.170000 -0.092232 0
2.175000 -0.090909 0
2.180000 -0.089283 0
2.185000 -0.087190 0
2.190000 -0.084408 0
2.195000 -0.080640 0
2.200000 -0.075515 0
2.205000 -0.068591 0
2.210000 -0.059379 0
2.215000 -0.047377 0
2.220000 -0.032132 0
2.225000 -0.013316 0
2.230000 0.009184 0
2.235000 0.035183 0
2.240000 0.064123 0
2.245000 0.095042 0
2.250000 0.126584 0
2.255000 0.157076 0
2.260000 0.184663 0
2.265000 0.207484 0
2.270000 0.223882 0
2.275000 0.232601 0
2.280000 0.232942 1
2.285000 0.224861 0
2.290000 0.208969 0
2.295000 0.186462 0
2.300000 0.158968 0
2.305000 0.128348 0
2.310000 0.096458 0
2.315000 0.064873 0
2.320000 0.034469 0
2.325000 0.004799 0
2.330000 -0.026611 0
2.335000 -0.064228 0
2.340000 -0.112312 0
2.345000 -0.169974 0
2.350000 -0.225819 0
2.355000 -0.256723 2
2.360000 -0.232829 0
2.365000 -0.125705 0
2.370000 0.082638 0
2.375000 0.386005 0
2.380000 0.735590 0
2.385000 1.035572 0
2.390000 1.176642 3
2.395000 1.097489 0
2.400000 0.825648 0
2.405000 0.459666 0
2.410000 0.108160 0
2.415000 -0.156765 0
2.420000 -0.307930 0
2.425000 -0.350937 4
2.430000 -0.312661 0
2.435000 -0.231321 0
2.440000 -0.143119 0
2.445000 -0.070198 0
2.450000 -0.017921 0
2.455000 0.018870 0
2.460000 0.047782 0
2.465000 0.074352 0
2.470000 0.101332 0
2.475000 0.129630 0
2.480000 0.159262 0
2.485000 0.189864 0
2.490000 0.220908 0
2.495000 0.251765 0
2.500000 0.281738 0
2.505000 0.310094 0
2.510000 0.336087 0
2.515000 0.358992 0
2.520000 0.378138 0
2.525000 0.392939 0
2.530000 0.402924 0
2.535000 0.407762 5
2.540000 0.407277 0
2.545000 0.401457 0
2.550000 0.390461 0
2.555000 0.374605 0
2.560000 0.354349 0
2.565000 0.330273 0
2.570000 0.303052 0
2.575000 0.273420 0
2.580000 0.242139 0
2.585000 0.209967 0
2.590000 0.177626 0
2.595000 0.145779 0
2.600000 0.115008 0
2.605000 0.085799 0
2.610000 0.058536 0
2.615000 0.033497 0
2.620000 0.010858 0
2.625000 -0.009299 0
2.630000 -0.026977 0
2.635000 -0.042246 0
2.640000 -0.055234 0
2.645000 -0.066109 0
2.650000 -0.075065 0
2.655000 -0.082313 0
2.660000 -0.088064 0
2.665000 -0.092528 0
2.670000 -0.095902 0
2.675000 -0.098366 0
2.680000 -0.100084 0
2.685000 -0.101198 0
2.690000 -0.100600 0
2.695000 -0.099716 0
2.700000 -0.098836 0
2.705000 -0.097961 0
2.710000 -0.097090 0
2.715000 -0.096223 0
2.720000 -0.095360 0
2.725000 -0.094500 0
2.730000 -0.093641 0
2.735000 -0.092782 0
2.740000 -0.091918 0
2.745000 -0.091039 0
2.750000 -0.090131 0
2.755000 -0.089170 0
2.760000 -0.088114 0
2.765000 -0.086898 0
2.770000 -0.085425 0
2.775000 -0.083549 0
2.780000 -0.081070 0
2.785000 -0.077716 0
2.790000 -0.073139 0
2.795000 -0.066916 0
2.800000 -0.058564 0
2.805000 -0.047576 0
2.810000 -0.033468 0
2.815000 -0.015859 0
2.820000 0.005448 0
2.825000 0.030370 0
2.830000 0.058468 0
2.835000 0.088895 0
2.840000 0.120398 0
2.845000 0.151368 0
2.850000 0.179966 0
2.855000 0.204292 0
2.860000 0.222592 0
2.865000 0.233466 0
2.870000 0.236043 1
2.875000 0.230097 0
2.880000 0.216081 0
2.885000 0.195063 0
2.890000 0.168600 0
2.895000 0.138535 0
2.900000 0.106769 0
2.905000 0.074991 0
2.910000 0.044291 0
2.915000 0.014577 0
2.920000 -0.016173 0
2.925000 -0.052139 0
2.930000 -0.097991 0
2.935000 -0.154333 0
2.940000 -0.211968 0
2.945000 -0.249528 2
2.950000 -0.237489 0
2.955000 -0.146241 0
2.960000 0.044965 0
2.965000 0.335141 0
2.970000 0.682800 0
2.975000 0.997298 0
2.980000 1.166525 3
2.985000 1.118007 0
2.990000 0.866982 0
2.995000 0.506608 0
3.000000 0.148507 0
3.005000 -0.128859 0
3.010000 -0.293180 0
3.015000 -0.347011 4
3.020000 -0.315570 0
3.025000 -0.236788 0
3.030000 -0.148032 0
3.035000 -0.073295 0
3.040000 -0.019365 0
3.045000 0.018387 0
3.050000 0.047663 0
3.055000 0.074272 0
3.060000 0.101173 0
3.065000 0.129374 0
3.070000 0.158928 0
3.075000 0.189484 0
3.080000 0.220515 0
3.085000 0.251388 0
3.090000 0.281407 0
3.095000 0.309829 0
3.100000 0.335903 0
3.105000 0.358896 0
3.110000 0.378128 0
3.115000 0.393007 0
3.120000 0.403054 0
3.125000 0.407933 5
3.130000 0.407464 0
3.135000 0.401638 0
3.140000 0.390612 0
3.145000 0.374706 0
3.150000 0.354386 0
3.155000 0.330241 0
3.160000 0.302950 0
3.165000 0.273257 0
3.170000 0.241930 0
3.175000 0.209733 0
3.180000 0.177395 0
3.185000 0.145580 0
3.190000 0.114872 0
3.195000 0.085756 0
3.200000 0.058613 0
3.205000 0.033718 0
3.210000 0.011242 0
3.215000 -0.008739 0
3.220000 -0.026233 0
3.225000 -0.041316 0
3.230000 -0.054120 0
3.235000 -0.064819 0
3.240000 -0.073610 0
3.245000 -0.080706 0
3.250000 -0.086322 0
3.255000 -0.090667 0
3.260000 -0.093938 0
3.265000 -0.096315 0
3.270000 -0.097962 0
3.275000 -0.099017 0
3.280000 -0.098420 0
3.285000 -0.097547 0
3.290000 -0.096678 0
3.295000 -0.095814 0
3.300000 -0.094953 0
3.305000 -0.094097 0
3.310000 -0.093244 0
3.315000 -0.092395 0
3.320000 -0.091546 0
3.325000 -0.090696 0
3.330000 -0.089839 0
3.335000 -0.088966 0
3.340000 -0.088060 0
3.345000 -0.087094 0
3.350000 -0.086021 0
3.355000 -0.084772 0
3.360000 -0.083237 0
3.365000 -0.081262 0
3.370000 -0.078627 0
3.375000 -0.075044 0
3.380000 -0.070142 0
3.385000 -0.063480 0
3.390000 -0.054562 0
3.395000 -0.042875 0
3.400000 -0.027948 0
3.405000 -0.009433 0
3.410000 0.012805 0
3.415000 0.038600 0
3.420000 0.067403 0
3.425000 0.098252 0
3.430000 0.129776 0
3.435000 0.160276 0
3.440000 0.187858 0
3.445000 0.210626 0
3.450000 0.226890 0
3.455000 0.235376 0
3.460000 0.235390 1
3.465000 0.226909 0
3.470000 0.210588 0
3.475000 0.187677 0
3.480000 0.159858 0
3.485000 0.129037 0
3.490000 0.097098 0
3.495000 0.065596 0
3.500000 0.035314 0
3.505000 0.005581 0
3.510000 -0.026420 0
3.515000 -0.065412 0
3.520000 -0.115320 0
3.525000 -0.173836 0
3.530000 -0.227216 0
3.535000 -0.250119 2
3.540000 -0.211712 0
3.545000 -0.084325 0
3.550000 0.146609 0
3.555000 0.466717 0
3.560000 0.814443 0
3.565000 1.084055 0
3.570000 1.170441 3
3.575000 1.033131 0
3.580000 0.724025 0
3.585000 0.352241 0
3.590000 0.020556 0
3.595000 -0.211680 0
3.600000 -0.328232 0
3.605000 -0.342343 4
3.610000 -0.286048 0
3.615000 -0.199035 0
3.620000 -0.114363 0
3.625000 -0.048577 0
3.630000 -0.002535 0
3.635000 0.030650 0
3.640000 0.058233 0
3.645000 0.084754 0
3.650000 0.112186 0
3.655000 0.141020 0
3.660000 0.171085 0
3.665000 0.201934 0
3.670000 0.232984 0
3.675000 0.263567 0
3.680000 0.292958 0
3.685000 0.320402 0
3.690000 0.345149 0
3.695000 0.366483 0
3.700000 0.383756 0
3.705000 0.396425 0
3.710000 0.404072 0
3.715000 0.406432 5
3.720000 0.403404 0
3.725000 0.395059 0
3.730000 0.381636 0
3.735000 0.363530 0
3.740000 0.341272 0
3.745000 0.315502 0
3.750000 0.286939 0
3.755000 0.256347 0
3.760000 0.224500 0
3.765000 0.192152 0
3.770000 0.160005 0
3.775000 0.128689 0
3.780000 0.098742 0
3.785000 0.070600 0
3.790000 0.044590 0
3.795000 0.020933 0
3.800000 -0.000247 0
3.805000 -0.018921 0
3.810000 -0.035134 0
3.815000 -0.048994 0
3.820000 -0.060657 0
3.825000 -0.070312 0
3.830000 -0.078168 0
3.835000 -0.084439 0
3.840000 -0.089341 0
3.845000 -0.093077 0
3.850000 -0.095837 0
3.855000 -0.097793 0
3.860000 -0.099096 0
3.865000 -0.099636 0
3.870000 -0.098757 0
3.875000 -0.097882 0
3.880000 -0.097012 0
3.885000 -0.096146 0
3.890000 -0.095284 0
3.895000 -0.094425 0
3.900000 -0.093570 0
3.905000 -0.092717 0
3.910000 -0.091864 0
3.915000 -0.091007 0
3.920000 -0.090139 0
3.925000 -0.089245 0
3.930000 -0.088304 0
3.935000 -0.087278 0
3.940000 -0.086107 0
3.945000 -0.084700 0
3.950000 -0.082921 0
3.955000 -0.080577 0
3.960000 -0.077407 0
3.965000 -0.073072 0
3.970000 -0.067155 0
3.975000 -0.059175 0
3.980000 -0.048616 0
3.985000 -0.034983 0
3.990000 -0.017866 0
3.995000 0.002963 0
4.000000 0.027462 0
4.005000 0.055233 0
4.010000 0.085465 0
4.015000 0.116928 0
4.020000 0.148023 0
4.025000 0.176900 0
4.030000 0.201628 0
4.035000 0.220409 0
4.040000 0.231791 0
4.045000 0.234852 1
4.050000 0.229325 0
4.055000 0.215634 0
4.060000 0.194842 0
4.065000 0.168509 0
4.070000 0.138502 0
4.075000 0.106750 0
4.080000 0.074970 0
4.085000 0.044272 0
4.090000 0.014558 0
4.095000 -0.016242 0
4.100000 -0.052393 0
4.105000 -0.098593 0
4.110000 -0.155225 0
4.115000 -0.212501 0
4.120000 -0.248251 2
4.125000 -0.232319 0
4.130000 -0.134950 0
4.135000 0.063910 0
4.140000 0.360888 0
4.145000 0.709860 0
4.150000 1.015237 0
4.155000 1.164340 3
4.160000 1.091714 0
4.165000 0.823316 0
4.170000 0.457993 0
4.175000 0.106093 0
4.180000 -0.158899 0
4.185000 -0.309355 0
4.190000 -0.351095 4
4.195000 -0.311574 0
4.200000 -0.229628 0
4.205000 -0.141690 0
4.210000 -0.069609 0
4.215000 -0.018232 0
4.220000 0.017949 0
4.225000 0.046602 0
4.230000 0.073155 0
4.235000 0.100236 0
4.240000 0.128670 0
4.245000 0.158425 0
4.250000 0.189115 0
4.255000 0.220190 0
4.260000 0.251003 0
4.265000 0.280845 0
4.270000 0.308968 0
4.275000 0.334615 0
4.280000 0.357057 0
4.285000 0.375624 0
4.290000 0.389737 0
4.295000 0.398939 0
4.300000 0.402917 5
4.305000 0.401520 0
4.310000 0.394768 0
4.315000 0.382850 0
4.320000 0.366116 0
4.325000 0.345058 0
4.330000 0.320286 0
4.335000 0.292500 0
4.340000 0.262453 0
4.345000 0.230919 0
4.350000 0.198661 0
4.355000 0.166400 0
4.360000 0.134789 0
4.365000 0.104395 0
4.370000 0.075684 0
4.375000 0.049018 0
4.380000 0.024650 0
4.385000 0.002730 0
4.390000 -0.016684 0
4.395000 -0.033617 0
4.400000 -0.048158 0
4.405000 -0.060452 0
4.410000 -0.070679 0
4.415000 -0.079041 0
4.420000 -0.085755 0
4.425000 -0.091034 0
4.430000 -0.095088 0
4.435000 -0.098111 0
4.440000 -0.100279 0
4.445000 -0.101751 0
4.450000 -0.102401 0
4.455000 -0.101508 0
4.460000 -0.100620 0
4.465000 -0.099736 0
4.470000 -0.098856 0
4.475000 -0.097980 0
4.480000 -0.097109 0
4.485000 -0.096241 0
4.490000 -0.095375 0
4.495000 -0.094511 0
4.500000 -0.093644 0
4.505000 -0.092768 0
4.510000 -0.091872 0
4.515000 -0.090937 0
4.520000 -0.089930 0
4.525000 -0.088800 0
4.530000 -0.087466 0
4.535000 -0.085808 0
4.540000 -0.083650 0
4.545000 -0.080755 0
4.550000 -0.076807 0
4.555000 -0.071414 0
4.560000 -0.064111 0
4.565000 -0.054390 0
4.570000 -0.041742 0
4.575000 -0.025722 0
4.580000 -0.006036 0
4.585000 0.017367 0
4.590000 0.044206 0
4.595000 0.073801 0
4.600000 0.105049 0
4.605000 0.136458 0
4.610000 0.166237 0
4.615000 0.192461 0
4.620000 0.213268 0
4.625000 0.227078 0
4.630000 0.232788 1
4.635000 0.229920 0
4.640000 0.218685 0
4.645000 0.199959 0
4.650000 0.175167 0
4.655000 0.146102 0
4.660000 0.114702 0
4.665000 0.082784 0
4.670000 0.051698 0
4.675000 0.021803 0
4.680000 -0.008284 0
4.685000 -0.042208 0
4.690000 -0.084901 0
4.695000 -0.138745 0
4.700000 -0.197635 0
4.705000 -0.243108 0
4.710000 -0.246698 2
4.715000 -0.177581 0
4.720000 -0.011540 0
4.725000 0.257331 0
4.730000 0.598198 0
4.735000 0.929682 0
4.740000 1.138342 3
4.745000 1.136992 0
4.750000 0.921878 0
4.755000 0.574597 0
4.760000 0.208085 0
4.765000 -0.090078 0
4.770000 -0.278618 0
4.775000 -0.354005 4
4.780000 -0.337490 0
4.785000 -0.265259 0
4.790000 -0.175975 0
4.795000 -0.097119 0
4.800000 -0.038864 0
4.805000 0.001729 0
4.810000 0.032274 0
4.815000 0.059163 0
4.820000 0.085915 0
4.825000 0.113857 0
4.830000 0.143186 0
4.835000 0.173612 0
4.840000 0.204635 0
4.845000 0.235647 0
4.850000 0.265959 0
4.855000 0.294841 0
4.860000 0.321539 0
4.865000 0.345316 0
4.870000 0.365478 0
4.875000 0.381411 0
4.880000 0.392610 0
4.885000 0.398706 0
4.890000 0.399483 5
4.895000 0.394893 0
4.900000 0.385056 0
4.905000 0.370258 0
4.910000 0.350931 0
4.915000 0.327638 0
4.920000 0.301041 0
4.925000 0.271870 0
4.930000 0.240891 0
4.935000 0.208869 0
4.940000 0.176543 0
4.945000 0.144594 0
4.950000 0.113624 0
4.955000 0.084142 0
4.960000 0.056553 0
4.965000 0.031156 0
4.970000 0.008144 0
4.975000 -0.012383 0
4.980000 -0.030417 0
4.985000 -0.046018 0
4.990000 -0.059307 0
4.995000 -0.070448 0
5.000000 -0.079634 0
5.005000 -0.087074 0
5.010000 -0.092985 0
5.015000 -0.097576 0
5.020000 -0.101049 0
5.025000 -0.103587 0
5.030000 -0.105358 0
5.035000 -0.106506 0
5.040000 -0.105891 0
5.045000 -0.104980 0
5.050000 -0.104075 0
5.055000 -0.103173 0
5.060000 -0.102276 0
5.065000 -0.101384 0
5.070000 -0.100495 0
5.075000 -0.099609 0
5.080000 -0.098726 0
5.085000 -0.097842 0
5.090000 -0.096953 0
5.095000 -0.096050 0
5.100000 -0.095121 0
5.105000 -0.094139 0
5.110000 -0.093065 0
5.115000 -0.091834 0
5.120000 -0.090351 0
5.125000 -0.088472 0
5.130000 -0.085997 0
5.135000 -0.082654 0
5.140000 -0.078096 0
5.145000 -0.071899 0
5.150000 -0.063577 0
5.155000 -0.052618 0
5.160000 -0.038536 0
5.165000 -0.020941 0
5.170000 0.000365 0
5.175000 0.025301 0
5.180000 0.053427 0
5.185000 0.083889 0
5.190000 0.115420 0
5.195000 0.146398 0
5.200000 0.174966 0
5.205000 0.199211 0
5.210000 0.217371 0
5.215000 0.228044 0
5.220000 0.230371 1
5.225000 0.224147 0
5.230000 0.209850 0
5.235000 0.188582 0
5.240000 0.161928 0
5.245000 0.131753 0
5.250000 0.099972 0
5.255000 0.068260 0
5.260000 0.037667 0
5.265000 0.007994 0
5.270000 -0.022949 0
5.275000 -0.059500 0
5.280000 -0.106244 0
5.285000 -0.163195 0
5.290000 -0.220061 0
5.295000 -0.254335 2
5.300000 -0.235895 0
5.305000 -0.135353 0
5.310000 0.066710 0
5.315000 0.365962 0
5.320000 0.715216 0
5.325000 1.018511 0
5.330000 1.164120 3
5.335000 1.088696 0
5.340000 0.819633 0
5.345000 0.454431 0
5.350000 0.101770 0
5.355000 -0.165484 0
5.360000 -0.319343 0
5.365000 -0.364767 4
5.370000 -0.328129 0
5.375000 -0.247397 0
5.380000 -0.158921 0
5.385000 -0.085295 0
5.390000 -0.032325 0
5.395000 0.004931 0
5.400000 0.034076 0
5.405000 0.060731 0
5.410000 0.087732 0
5.415000 0.116036 0
5.420000 0.145679 0
5.425000 0.176312 0
5.430000 0.207409 0
5.435000 0.238350 0
5.440000 0.268441 0
5.445000 0.296954 0
5.450000 0.323142 0
5.455000 0.346284 0
5.460000 0.365704 0
5.465000 0.380816 0
5.470000 0.391141 0
5.475000 0.396340 5
5.480000 0.396230 0
5.485000 0.390789 0
5.490000 0.380165 0
5.495000 0.364663 0
5.500000 0.344733 0
5.505000 0.320948 0
5.510000 0.293975 0
5.515000 0.264542 0
5.520000 0.233408 0
5.525000 0.201331 0
5.530000 0.169034 0
5.535000 0.137183 0
5.540000 0.106365 0
5.545000 0.077072 0
5.550000 0.049696 0
5.555000 0.024523 0
5.560000 0.001734 0
5.565000 -0.018580 0
5.570000 -0.036415 0
5.575000 -0.051837 0
5.580000 -0.064968 0
5.585000 -0.075972 0
5.590000 -0.085043 0
5.595000 -0.092388 0
5.600000 -0.098219 0
5.605000 -0.102745 0
5.610000 -0.106165 0
5.615000 -0.108660 0
5.620000 -0.110394 0
5.625000 -0.111511 0
5.630000 -0.110870 0
5.635000 -0.109935 0
5.640000 -0.109004 0
5.645000 -0.108078 0
5.650000 -0.107157 0
5.655000 -0.106240 0
5.660000 -0.105327 0
5.665000 -0.104417 0
5.670000 -0.103509 0
5.675000 -0.102602 0
5.680000 -0.101690 0
5.685000 -0.100765 0
5.690000 -0.099814 0
5.695000 -0.098814 0
5.700000 -0.097725 0
5.705000 -0.096487 0
5.710000 -0.095006 0
5.715000 -0.093146 0
5.720000 -0.090713 0
5.725000 -0.087447 0
5.730000 -0.083010 0
5.735000 -0.076991 0
5.740000 -0.068915 0
5.745000 -0.058275 0
5.750000 -0.044584 0
5.755000 -0.027441 0
5.760000 -0.006620 0
5.765000 0.017843 0
5.770000 0.045565 0
5.775000 0.075763 0
5.780000 0.107242 0
5.785000 0.138447 0
5.790000 0.167569 0
5.795000 0.192710 0
5.800000 0.212084 0
5.805000 0.224228 0
5.810000 0.228183 1
5.815000 0.223619 0
5.820000 0.210878 0
5.825000 0.190939 0
5.830000 0.165283 0
5.835000 0.135718 0
5.840000 0.104149 0
5.845000 0.072314 0
5.850000 0.041436 0
5.855000 0.011675 0
5.860000 -0.018612 0
5.865000 -0.053268 0
5.870000 -0.097112 0
5.875000 -0.151887 0
5.880000 -0.210484 0
5.885000 -0.253647 2
5.890000 -0.252860 0
5.895000 -0.177975 0
5.900000 -0.005929 0
5.905000 0.267596 0
5.910000 0.610068 0
5.915000 0.939514 0
5.920000 1.144067 3
5.925000 1.139290 0
5.930000 0.923110 0
5.935000 0.576242 0
5.940000 0.209072 0
5.945000 -0.092090 0
5.950000 -0.285638 0
5.955000 -0.366866 4
5.960000 -0.355450 0
5.965000 -0.286087 0
5.970000 -0.196882 0
5.975000 -0.116096 0
5.980000 -0.055360 0
5.985000 -0.012853 0
5.990000 0.018700 0
5.995000 0.045895 0
6.000000 0.072575 0
6.005000 0.100313 0
6.010000 0.129432 0
6.015000 0.159711 0
6.020000 0.190692 0
6.025000 0.221798 0
6.030000 0.252376 0
6.035000 0.281718 0
6.040000 0.309093 0
6.045000 0.333774 0
6.050000 0.355068 0
6.055000 0.372351 0
6.060000 0.385097 0
6.065000 0.392900 0
6.070000 0.395502 5
6.075000 0.392799 0
6.080000 0.384852 0
6.085000 0.371882 0
6.090000 0.354262 0
6.095000 0.332495 0
6.100000 0.307190 0
6.105000 0.279039 0
6.110000 0.248777 0
6.115000 0.217157 0
6.120000 0.184913 0
6.125000 0.152740 0
6.130000 0.121263 0
6.135000 0.091024 0
6.140000 0.062470 0
6.145000 0.035944 0
6.150000 0.011689 0
6.155000 -0.010153 0
6.160000 -0.029525 0
6.165000 -0.046452 0
6.170000 -0.061019 0
6.175000 -0.073364 0
6.180000 -0.083661 0
6.185000 -0.092105 0
6.190000 -0.098906 0
6.195000 -0.104271 0
6.200000 -0.108405 0
6.205000 -0.111498 0
6.210000 -0.113724 0
6.215000 -0.115240 0
6.220000 -0.116181 0
6.225000 -0.115494 0
6.230000 -0.114536 0
6.235000 -0.113582 0
6.240000 -0.112634 0
6.245000 -0.111689 0
6.250000 -0.110750 0
6.255000 -0.109814 0
6.260000 -0.108881 0
6.265000 -0.107951 0
6.270000 -0.107020 0
6.275000 -0.106083 0
6.280000 -0.105131 0
6.285000 -0.104150 0
6.290000 -0.103114 0
6.295000 -0.101980 0
6.300000 -0.100684 0
6.305000 -0.099127 0
6.310000 -0.097165 0
6.315000 -0.094598 0
6.320000 -0.091156 0
6.325000 -0.086496 0
6.330000 -0.080202 0
6.335000 -0.071798 0
6.340000 -0.060784 0
6.345000 -0.046686 0
6.350000 -0.029124 0
6.355000 -0.007898 0
6.360000 0.016923 0
6.365000 0.044923 0
6.370000 0.075295 0
6.375000 0.106828 0
6.380000 0.137962 0
6.385000 0.166902 0
6.390000 0.191776 0
6.395000 0.210835 0
6.400000 0.222656 0
6.405000 0.226318 1
6.410000 0.221518 0
6.415000 0.208615 0
6.420000 0.188585 0
6.425000 0.162899 0
6.430000 0.133340 0
6.435000 0.101787 0
6.440000 0.069960 0
6.445000 0.039073 0
6.450000 0.009311 0
6.455000 -0.020891 0
6.460000 -0.055261 0
6.465000 -0.098577 0
6.470000 -0.152834 0
6.475000 -0.211611 0
6.480000 -0.256615 0
6.485000 -0.260107 2
6.490000 -0.192167 0
6.495000 -0.029122 0
6.500000 0.235561 0
6.505000 0.574029 0
6.510000 0.910157 0
6.515000 1.134438 0
6.520000 1.157074 3
6.525000 0.964841 0
6.530000 0.629161 0
6.535000 0.258593 0
6.540000 -0.056127 0
6.545000 -0.267484 0
6.550000 -0.366093 0
6.555000 -0.368142 4
6.560000 -0.306067 0
6.565000 -0.217892 0
6.570000 -0.134079 0
6.575000 -0.069228 0
6.580000 -0.023545 0
6.585000 0.009686 0
6.590000 0.037410 0
6.595000 0.064017 0
6.600000 0.091465 0
6.605000 0.120276 0
6.610000 0.150320 0
6.615000 0.181185 0
6.620000 0.212327 0
6.625000 0.243118 0
6.630000 0.272870 0
6.635000 0.300866 0
6.640000 0.326384 0
6.645000 0.348729 0
6.650000 0.367262 0
6.655000 0.381432 0
6.660000 0.390800 0
6.665000 0.395066 5
6.670000 0.394077 0
6.675000 0.387841 0
6.680000 0.376527 0
6.685000 0.360452 0
6.690000 0.340071 0
6.695000 0.315953 0
6.700000 0.288755 0
6.705000 0.259190 0
6.710000 0.227998 0
6.715000 0.195915 0
6.720000 0.163644 0
6.725000 0.131829 0
6.730000 0.101042 0
6.735000 0.071761 0
6.740000 0.044367 0
6.745000 0.019141 0
6.750000 -0.003736 0
6.755000 -0.024173 0
6.760000 -0.042162 0
6.765000 -0.057760 0
6.770000 -0.071084 0
6.775000 -0.082290 0
6.780000 -0.091563 0
6.785000 -0.099105 0
6.790000 -0.105121 0
6.795000 -0.109817 0
6.800000 -0.113387 0
6.805000 -0.116012 0
6.810000 -0.117855 0
6.815000 -0.119060 0
6.820000 -0.119510 0
6.825000 -0.118532 0
6.830000 -0.117559 0
6.835000 -0.116590 0
6.840000 -0.115626 0
6.845000 -0.114667 0
6.850000 -0.113712 0
6.855000 -0.112761 0
6.860000 -0.111813 0
6.865000 -0.110866 0
6.870000 -0.109917 0
6.875000 -0.108959 0
6.880000 -0.107982 0
6.885000 -0.106967 0
6.890000 -0.105883 0
6.895000 -0.104682 0
6.900000 -0.103288 0
6.905000 -0.101587 0
6.910000 -0.099421 0
6.915000 -0.096567 0
6.920000 -0.092735 0
6.925000 -0.087560 0
6.930000 -0.080610 0
6.935000 -0.071404 0
6.940000 -0.059449 0
6.945000 -0.044299 0
6.950000 -0.025624 0
6.955000 -0.003300 0
6.960000 0.022513 0
6.965000 0.051295 0
6.970000 0.082134 0
6.975000 0.113734 0
6.980000 0.144480 0
6.985000 0.172562 0
6.990000 0.196145 0
6.995000 0.213566 0
7.000000 0.223527 0
7.005000 0.225253 1
7.010000 0.218597 0
7.015000 0.204055 0
7.020000 0.182709 0
7.025000 0.156091 0
7.030000 0.126000 0
7.035000 0.094279 0
7.040000 0.062562 0
7.045000 0.031909 0
7.050000 0.002252 0
7.055000 -0.028306 0
7.060000 -0.063752 0
7.065000 -0.108701 0
7.070000 -0.164245 0
7.075000 -0.222484 0
7.080000 -0.263811 2
7.085000 -0.260109 0
7.090000 -0.182150 0
7.095000 -0.007866 0
7.100000 0.266440 0
7.105000 0.608796 0
7.110000 0.939620 0
7.115000 1.149955 0
7.120000 1.155556 3
7.125000 0.950127 0
7.130000 0.608748 0
7.135000 0.239312 0
7.140000 -0.070576 0
7.145000 -0.276267 0
7.150000 -0.370029 4
7.155000 -0.368803 0
7.160000 -0.305164 0
7.165000 -0.216727 0
7.170000 -0.133264 0
7.175000 -0.068821 0
7.180000 -0.023375 0
7.185000 0.009772 0
7.190000 0.037482 0
7.195000 0.064088 0
7.200000 0.091527 0
7.205000 0.120322 0
7.210000 0.150346 0
7.215000 0.181197 0
7.220000 0.212336 0
7.225000 0.243143 0
7.230000 0.272939 0
7.235000 0.301016 0
7.240000 0.326657 0
7.245000 0.349172 0
7.250000 0.367927 0
7.255000 0.382369 0
7.260000 0.392058 0
7.265000 0.396686 5
7.270000 0.396091 0
7.275000 0.390269 0
7.280000 0.379374 0
7.285000 0.363709 0
7.290000 0.343713 0
7.295000 0.319939 0
7.300000 0.293030 0
7.305000 0.263687 0
7.310000 0.232642 0
7.315000 0.200624 0
7.320000 0.168336 0
7.325000 0.136425 0
7.330000 0.105465 0
7.335000 0.075944 0
7.340000 0.048252 0
7.345000 0.022683 0
7.350000 -0.000570 0
7.355000 -0.021404 0
7.360000 -0.039797 0
7.365000 -0.055797 0
7.370000 -0.069511 0
7.375000 -0.081087 0
7.380000 -0.090703 0
7.385000 -0.098558 0
7.390000 -0.104855 0
7.395000 -0.109798 0
7.400000 -0.113582 0
7.405000 -0.116389 0
7.410000 -0.118385 0
7.415000 -0.119716 0
7.420000 -0.120253 0
7.425000 -0.119271 0
7.430000 -0.118294 0
7.435000 -0.117321 0
7.440000 -0.116354 0
7.445000 -0.115391 0
7.450000 -0.114433 0
7.455000 -0.113478 0
7.460000 -0.112527 0
7.465000 -0.111578 0
7.470000 -0.110628 0
7.475000 -0.109671 0
7.480000 -0.108699 0
7.485000 -0.107695 0
7.490000 -0.106634 0
7.495000 -0.105473 0
7.500000 -0.104146 0
7.505000 -0.102555 0
7.510000 -0.100556 0
7.515000 -0.097951 0
7.520000 -0.094476 0
7.525000 -0.089793 0
7.530000 -0.083495 0
7.535000 -0.075119 0
7.540000 -0.064177 0
7.545000 -0.050203 0
7.550000 -0.032821 0
7.555000 -0.011823 0
7.560000 0.012741 0
7.565000 0.040496 0
7.570000 0.070687 0
7.575000 0.102168 0
7.580000 0.133452 0
7.585000 0.162803 0
7.590000 0.188392 0
7.595000 0.208481 0
7.600000 0.221618 0
7.605000 0.226807 1
7.610000 0.223638 0
7.615000 0.212338 0
7.620000 0.193745 0
7.625000 0.169203 0
7.630000 0.140404 0
7.635000 0.109184 0
7.640000 0.077286 0
7.645000 0.046072 0
7.650000 0.016065 0
7.655000 -0.013697 0
7.660000 -0.046242 0
7.665000 -0.086193 0
7.670000 -0.136961 0
7.675000 -0.195620 0
7.680000 -0.248374 0
7.685000 -0.270760 2
7.690000 -0.233373 0
7.695000 -0.109730 0
7.700000 0.114817 0
7.705000 0.428991 0
7.710000 0.778501 0
7.715000 1.065787 0
7.720000 1.186631 3
7.725000 1.089446 0
7.730000 0.808680 0
7.735000 0.441243 0
7.740000 0.090569 0
7.745000 -0.175027 0
7.750000 -0.329374 0
7.755000 -0.377179 4
7.760000 -0.343387 0
7.765000 -0.264238 0
7.770000 -0.175201 0
7.775000 -0.099388 0
7.780000 -0.043892 0
7.785000 -0.004784 0
7.790000 0.025265 0
7.795000 0.052110 0
7.800000 0.078927 0
7.805000 0.106918 0
7.810000 0.136258 0
7.815000 0.166676 0
7.820000 0.197702 0
7.825000 0.228764 0
7.830000 0.259216 0
7.835000 0.288367 0
7.840000 0.315503 0
7.845000 0.339919 0
7.850000 0.360948 0
7.855000 0.377986 0
7.860000 0.390528 0
7.865000 0.398184 0
7.870000 0.400707 5
7.875000 0.397998 0
7.880000 0.390115 0
7.885000 0.377273 0
7.890000 0.359829 0
7.895000 0.338266 0
7.900000 0.313175 0
7.905000 0.285222 0
7.910000 0.255121 0
7.915000 0.223603 0
7.920000 0.191387 0
7.925000 0.159153 0
7.930000 0.127523 0
7.935000 0.097035 0
7.940000 0.068141 0
7.945000 0.041192 0
7.950000 0.016445 0
7.955000 -0.005944 0
7.960000 -0.025900 0
7.965000 -0.043431 0
7.970000 -0.058607 0
7.975000 -0.071549 0
7.980000 -0.082418 0
7.985000 -0.091401 0
7.990000 -0.098696 0
7.995000 -0.104509 0
8.000000 -0.109039 0
8.005000 -0.112477 0
8.010000 -0.115000 0
8.015000 -0.116764 0
8.020000 -0.117911 0
8.025000 -0.117248 0
8.030000 -0.116281 0
8.035000 -0.115319 0
8.040000 -0.114362 0
8.045000 -0.113409 0
8.050000 -0.112461 0
8.055000 -0.111517 0
8.060000 -0.110577 0
8.065000 -0.109639 0
8.070000 -0.108703 0
8.075000 -0.107764 0
8.080000 -0.106817 0
8.085000 -0.105850 0
8.090000 -0.104845 0
8.095000 -0.103771 0
8.100000 -0.102580 0
8.105000 -0.101198 0
8.110000 -0.099514 0
8.115000 -0.097370 0
8.120000 -0.094550 0
8.125000 -0.090770 0
8.130000 -0.085672 0
8.135000 -0.078834 0
8.140000 -0.069782 0
8.145000 -0.058030 0
8.150000 -0.043133 0
8.155000 -0.024756 0
8.160000 -0.002756 0
8.165000 0.022734 0
8.170000 0.051239 0
8.175000 0.081899 0
8.180000 0.113473 0
8.185000 0.144400 0
8.190000 0.172911 0
8.195000 0.197190 0
8.200000 0.215563 0
8.205000 0.226686 0
8.210000 0.229713 1
8.215000 0.224396 0
8.220000 0.211124 0
8.225000 0.190872 0
8.230000 0.165083 0
8.235000 0.135497 0
8.240000 0.103944 0
8.245000 0.072098 0
8.250000 0.041159 0
8.255000 0.011359 0
8.260000 -0.018721 0
8.265000 -0.052583 0
8.270000 -0.094903 0
8.275000 -0.148113 0
8.280000 -0.207084 0
8.285000 -0.255400 0
8.290000 -0.266934 2
8.295000 -0.212366 0
8.300000 -0.067078 0
8.305000 0.179285 0
8.310000 0.507417 0
8.315000 0.852850 0
8.320000 1.112612 0
8.325000 1.189122 3
8.330000 1.047757 0
8.335000 0.739475 0
8.340000 0.367721 0
8.345000 0.031049 0
8.350000 -0.211503 0
8.355000 -0.341482 0
8.360000 -0.368775 4
8.365000 -0.321719 0
8.370000 -0.237638 0
8.375000 -0.150169 0
8.380000 -0.078857 0
8.385000 -0.027685 0
8.390000 0.008686 0
8.395000 0.037551 0
8.400000 0.064166 0
8.405000 0.091171 0
8.410000 0.119456 0
8.415000 0.149056 0
8.420000 0.179637 0
8.425000 0.210700 0
8.430000 0.241648 0
8.435000 0.271823 0
8.440000 0.300522 0
8.445000 0.327030 0
8.450000 0.350645 0
8.455000 0.370711 0
8.460000 0.386645 0
8.465000 0.397966 0
8.470000 0.404318 0
8.475000 0.405489 5
8.480000 0.401421 0
8.485000 0.392212 0
8.490000 0.378114 0
8.495000 0.359522 0
8.500000 0.336951 0
8.505000 0.311014 0
8.510000 0.282397 0
8.515000 0.251822 0
8.520000 0.220022 0
8.525000 0.187712 0
8.530000 0.155558 0
8.535000 0.124163 0
8.540000 0.094046 0
8.545000 0.065631 0
8.550000 0.039246 0
8.555000 0.015117 0
8.560000 -0.006619 0
8.565000 -0.025915 0
8.570000 -0.042796 0
8.575000 -0.057347 0
8.580000 -0.069704 0
8.585000 -0.080036 0
8.590000 -0.088536 0
8.595000 -0.095405 0
8.600000 -0.100848 0
8.605000 -0.105064 0
8.610000 -0.108239 0
8.615000 -0.110546 0
8.620000 -0.112138 0
8.625000 -0.113149 0
8.630000 -0.112486 0
8.635000 -0.111543 0
8.640000 -0.110605 0
8.645000 -0.109671 0
8.650000 -0.108741 0
8.655000 -0.107816 0
8.660000 -0.106895 0
8.665000 -0.105978 0
8.670000 -0.105063 0
8.675000 -0.104147 0
8.680000 -0.103228 0
8.685000 -0.102297 0
8.690000 -0.101341 0
8.695000 -0.100339 0
8.700000 -0.099254 0
8.705000 -0.098032 0
8.710000 -0.096586 0
8.715000 -0.094792 0
8.720000 -0.092473 0
8.725000 -0.089391 0
8.730000 -0.085237 0
8.735000 -0.079628 0
8.740000 -0.072122 0
8.745000 -0.062234 0
8.750000 -0.049484 0
8.755000 -0.033455 0
8.760000 -0.013864 0
8.765000 0.009344 0
8.770000 0.035926 0
8.775000 0.065275 0
8.780000 0.096393 0
8.785000 0.127914 0
8.790000 0.158185 0
8.795000 0.185394 0
8.800000 0.207747 0
8.805000 0.223662 0
8.810000 0.231950 0
8.815000 0.231970 1
8.820000 0.223701 0
8.825000 0.207752 0
8.830000 0.185290 0
8.835000 0.157892 0
8.840000 0.127361 0
8.845000 0.095506 0
8.850000 0.063877 0
8.855000 0.033388 0
8.860000 0.003741 0
8.865000 -0.027253 0
8.870000 -0.063771 0
8.875000 -0.110208 0
8.880000 -0.166785 0
8.885000 -0.224288 0
8.890000 -0.262037 2
8.895000 -0.251690 0
8.900000 -0.164699 0
8.905000 0.019517 0
8.910000 0.302033 0
8.915000 0.647176 0
8.920000 0.972453 0
8.925000 1.169714 3
8.930000 1.159868 0
8.935000 0.942301 0
8.940000 0.595302 0
8.945000 0.227769 0
8.950000 -0.074892 0
8.955000 -0.271061 0
8.960000 -0.355463 4
8.965000 -0.346937 0
8.970000 -0.279330 0
8.975000 -0.190363 0
8.980000 -0.108649 0
8.985000 -0.046602 0
8.990000 -0.003054 0
8.995000 0.029037 0
9.000000 0.056353 0
9.005000 0.082922 0
9.010000 0.110457 0
9.015000 0.139363 0
9.020000 0.169460 0
9.025000 0.200316 0
9.030000 0.231374 0
9.035000 0.261998 0
9.040000 0.291496 0
9.045000 0.319150 0
9.050000 0.344240 0
9.055000 0.366077 0
9.060000 0.384032 0
9.065000 0.397567 0
9.070000 0.406261 0
9.075000 0.409828 5
9.080000 0.408136 0
9.085000 0.401214 0
9.090000 0.389245 0
9.095000 0.372567 0
9.100000 0.351646 0
9.105000 0.327064 0
9.110000 0.299485 0
9.115000 0.269625 0
9.120000 0.238224 0
9.125000 0.206016 0
9.130000 0.173696 0
9.135000 0.141903 0
9.140000 0.111195 0
9.145000 0.082040 0
9.150000 0.054807 0
9.155000 0.029767 0
9.160000 0.007088 0
9.165000 -0.013147 0
9.170000 -0.030937 0
9.175000 -0.046348 0
9.180000 -0.059502 0
9.185000 -0.070556 0
9.190000 -0.079700 0
9.195000 -0.087134 0
9.200000 -0.093065 0
9.205000 -0.097698 0
9.210000 -0.101224 0
9.215000 -0.103823 0
9.220000 -0.105656 0
9.225000 -0.106866 0
9.230000 -0.106258 0
9.235000 -0.105346 0
9.240000 -0.104439 0
9.245000 -0.103535 0
9.250000 -0.102637 0
9.255000 -0.101742 0
9.260000 -0.100852 0
9.265000 -0.099965 0
9.270000 -0.099080 0
9.275000 -0.098196 0
9.280000 -0.097309 0
9.285000 -0.096413 0
9.290000 -0.095495 0
9.295000 -0.094537 0
9.300000 -0.093506 0
9.305000 -0.092352 0
9.310000 -0.090996 0
9.315000 -0.089321 0
9.320000 -0.087163 0
9.325000 -0.084294 0
9.330000 -0.080417 0
9.335000 -0.075163 0
9.340000 -0.068093 0
9.345000 -0.058724 0
9.350000 -0.046566 0
9.355000 -0.031181 0
9.360000 -0.012252 0
9.365000 0.010323 0
9.370000 0.036354 0
9.375000 0.065292 0
9.380000 0.096193 0
9.385000 0.127730 0
9.390000 0.158270 0
9.395000 0.185996 0
9.400000 0.209081 0
9.405000 0.225888 0
9.410000 0.235155 0
9.415000 0.236158 1
9.420000 0.228800 0
9.425000 0.213626 0
9.430000 0.191757 0
9.435000 0.164752 0
9.440000 0.134418 0
9.445000 0.102592 0
9.450000 0.070874 0
9.455000 0.040263 0
9.460000 0.010578 0
9.465000 -0.020233 0
9.470000 -0.056278 0
9.475000 -0.102082 0
9.480000 -0.158268 0
9.485000 -0.216138 0
9.490000 -0.255330 2
9.495000 -0.247417 0
9.500000 -0.163428 0
9.505000 0.017838 0
9.510000 0.298238 0
9.515000 0.642788 0
9.520000 0.968993 0
9.525000 1.167710 3
9.530000 1.158611 0
9.535000 0.940190 0
9.540000 0.592320 0
9.545000 0.225422 0
9.550000 -0.074661 0
9.555000 -0.266850 0
9.560000 -0.346814 4
9.565000 -0.334493 0
9.570000 -0.264723 0
9.575000 -0.175579 0
9.580000 -0.095130 0
9.585000 -0.034783 0
9.590000 0.007414 0
9.595000 0.038766 0
9.600000 0.065834 0
9.605000 0.092425 0
9.610000 0.120086 0
9.615000 0.149129 0
9.620000 0.179326 0
9.625000 0.210219 0
9.630000 0.241228 0
9.635000 0.271697 0
9.640000 0.300919 0
9.645000 0.328161 0
9.650000 0.352698 0
9.655000 0.373836 0
9.660000 0.390954 0
9.665000 0.403525 0
9.670000 0.411148 0
9.675000 0.413565 5
9.680000 0.410676 0
9.685000 0.402545 0
9.690000 0.389397 0
9.695000 0.371605 0
9.700000 0.349676 0
9.705000 0.324223 0
9.710000 0.295937 0
9.715000 0.265554 0
9.720000 0.233827 0
9.725000 0.201493 0
9.730000 0.169241 0
9.735000 0.137699 0
9.740000 0.107406 0
9.745000 0.078806 0
9.750000 0.052241 0
9.755000 0.027952 0
9.760000 0.006079 0
9.765000 -0.013323 0
9.770000 -0.030279 0
9.775000 -0.044878 0
9.780000 -0.057258 0
9.785000 -0.067592 0
9.790000 -0.076078 0
9.795000 -0.082924 0
9.800000 -0.088340 0
9.805000 -0.092527 0
9.810000 -0.095677 0
9.815000 -0.097964 0
9.820000 -0.099543 0
9.825000 -0.100550 0
9.830000 -0.099939 0
9.835000 -0.099059 0
9.840000 -0.098182 0
9.845000 -0.097310 0
9.850000 -0.096443 0
9.855000 -0.095579 0
9.860000 -0.094719 0
9.865000 -0.093862 0
9.870000 -0.093006 0
9.875000 -0.092149 0
9.880000 -0.091286 0
9.885000 -0.090407 0
9.890000 -0.089499 0
9.895000 -0.088533 0
9.900000 -0.087468 0
9.905000 -0.086239 0
9.910000 -0.084745 0
9.915000 -0.082841 0
9.920000 -0.080324 0
9.925000 -0.076923 0
9.930000 -0.072293 0
9.935000 -0.066014 0
9.940000 -0.057611 0
9.945000 -0.046583 0
9.950000 -0.032456 0
9.955000 -0.014855 0
9.960000 0.006413 0
9.965000 0.031269 0
9.970000 0.059288 0
9.975000 0.089648 0
9.980000 0.121127 0
9.985000 0.152155 0
9.990000 0.180930 0
9.995000 0.205580 0
10.000000 0.224364 0
10.005000 0.235872 0
10.010000 0.239198 1
10.015000 0.234063 0
10.020000 0.220846 0
10.025000 0.200542 0
10.030000 0.174635 0
10.035000 0.144917 0
10.040000 0.113266 0
10.045000 0.081392 0
10.050000 0.050486 0
10.055000 0.020684 0
10.060000 -0.009649 0
10.065000 -0.044310 0
10.070000 -0.088066 0
10.075000 -0.142713 0
10.080000 -0.201448 0
10.085000 -0.245556 0
10.090000 -0.247072 2
10.095000 -0.176140 0
10.100000 -0.009470 0
10.105000 0.258572 0
10.110000 0.598526 0
10.115000 0.932509 0
10.120000 1.150578 0
10.125000 1.164863 3
10.130000 0.964134 0
10.135000 0.623246 0
10.140000 0.254233 0
10.145000 -0.052419 0
10.150000 -0.251781 0
10.155000 -0.337502 4
10.160000 -0.328757 0
10.165000 -0.260478 0
10.170000 -0.171479 0
10.175000 -0.090720 0
10.180000 -0.030153 0
10.185000 0.012078 0
10.190000 0.043377 0
10.195000 0.070401 0
10.200000 0.096987 0
10.205000 0.124670 0
10.210000 0.153746 0
10.215000 0.183971 0
10.220000 0.214870 0
10.225000 0.245851 0
10.230000 0.276242 0
10.235000 0.305321 0
10.240000 0.332343 0
10.245000 0.356569 0
10.250000 0.377304 0
10.255000 0.393921 0
10.260000 0.405900 0
10.265000 0.412848 0
10.270000 0.414524 5
10.275000 0.410849 0
10.280000 0.401912 0
10.285000 0.387966 0
10.290000 0.369415 0
10.295000 0.346793 0
10.300000 0.320740 0
10.305000 0.291971 0
10.310000 0.261239 0
10.315000 0.229310 0
10.320000 0.196923 0
10.325000 0.164769 0
10.330000 0.133465 0
10.335000 0.103537 0
10.340000 0.075413 0
10.345000 0.049413 0
10.350000 0.025753 0
10.355000 0.004554 0
10.360000 -0.014155 0
10.365000 -0.030419 0
10.370000 -0.044343 0
10.375000 -0.056081 0
10.380000 -0.065819 0
10.385000 -0.073761 0
10.390000 -0.080121 0
10.395000 -0.085110 0
10.400000 -0.088930 0
10.405000 -0.091770 0
10.410000 -0.093799 0
10.415000 -0.095169 0
10.420000 -0.095763 0
10.425000 -0.094903 0
10.430000 -0.094048 0
10.435000 -0.093196 0
10.440000 -0.092349 0
10.445000 -0.091506 0
10.450000 -0.090667 0
10.455000 -0.089831 0
10.460000 -0.088997 0
10.465000 -0.088163 0
10.470000 -0.087326 0
10.475000 -0.086479 0
10.480000 -0.085610 0
10.485000 -0.084699 0
10.490000 -0.083711 0
10.495000 -0.082593 0
10.500000 -0.081260 0
10.505000 -0.079590 0
10.510000 -0.077404 0
10.515000 -0.074460 0
10.520000 -0.070440 0
10.525000 -0.064951 0
10.530000 -0.057531 0
10.535000 -0.047675 0
10.540000 -0.034884 0
10.545000 -0.018725 0
10.550000 0.001083 0
10.555000 0.024579 0
10.560000 0.051473 0
10.565000 0.081082 0
10.570000 0.112311 0
10.575000 0.143680 0
10.580000 0.173423 0
10.585000 0.199640 0
10.590000 0.220492 0
10.595000 0.234415 0
10.600000 0.240310 1
10.605000 0.237690 0
10.610000 0.226739 0
10.615000 0.208297 0
10.620000 0.183749 0
10.625000 0.154851 0
10.630000 0.123514 0
10.635000 0.091546 0
10.640000 0.060331 0
10.645000 0.030327 0
10.650000 0.000352 0
10.655000 -0.032989 0
10.660000 -0.074557 0
10.665000 -0.127251 0
10.670000 -0.186293 0
10.675000 -0.234953 0
10.680000 -0.246045 2
10.685000 -0.188951 0
10.690000 -0.038269 0
10.695000 0.215522 0
10.700000 0.548938 0
10.705000 0.889639 0
10.710000 1.127733 0
10.715000 1.167669 3
10.720000 0.987520 0
10.725000 0.655646 0
10.730000 0.284888 0
10.735000 -0.029339 0
10.740000 -0.237555 0
10.745000 -0.330798 4
10.750000 -0.327046 0
10.755000 -0.261032 0
10.760000 -0.172274 0
10.765000 -0.090864 0
10.770000 -0.029623 0
10.775000 0.012983 0
10.780000 0.044408 0
10.785000 0.071448 0
10.790000 0.098027 0
10.795000 0.125711 0
10.800000 0.154798 0
10.805000 0.185038 0
10.810000 0.215946 0
10.815000 0.246918 0
10.820000 0.277270 0
10.825000 0.306269 0
10.830000 0.333157 0
10.835000 0.357188 0
10.840000 0.377658 0
10.845000 0.393938 0
10.850000 0.405509 0
10.855000 0.411986 0
10.860000 0.413137 5
10.865000 0.408900 0
10.870000 0.399382 0
10.875000 0.384858 0
10.880000 0.365755 0
10.885000 0.342631 0
10.890000 0.316147 0
10.895000 0.287036 0
10.900000 0.256066 0
10.905000 0.224011 0
10.910000 0.191615 0
10.915000 0.159569 0
10.920000 0.128482 0
10.925000 0.098871 0
10.930000 0.071148 0
10.935000 0.045617 0
10.940000 0.022476 0
10.945000 0.001827 0
10.950000 -0.016319 0
10.955000 -0.032022 0
10.960000 -0.045403 0
10.965000 -0.056627 0
10.970000 -0.065887 0
10.975000 -0.073395 0
10.980000 -0.079368 0
10.985000 -0.084018 0
10.990000 -0.087547 0
10.995000 -0.090141 0
11.000000 -0.091965 0
11.005000 -0.093168 0
11.010000 -0.092618 0
11.015000 -0.091773 0
11.020000 -0.090934 0
11.025000 -0.090098 0
11.030000 -0.089266 0
11.035000 -0.088438 0
11.040000 -0.087614 0
11.045000 -0.086792 0
11.050000 -0.085972 0
11.055000 -0.085152 0
11.060000 -0.084325 0
11.065000 -0.083484 0
11.070000 -0.082614 0
11.075000 -0.081689 0
11.080000 -0.080668 0
11.085000 -0.079483 0
11.090000 -0.078033 0
11.095000 -0.076172 0
11.100000 -0.073691 0
11.105000 -0.070309 0
11.110000 -0.065670 0
11.115000 -0.059339 0
11.120000 -0.050823 0
11.125000 -0.039606 0
11.130000 -0.025203 0
11.135000 -0.007241 0
11.140000 0.014453 0
11.145000 0.039758 0
11.150000 0.068180 0
11.155000 0.098807 0
11.160000 0.130311 0
11.165000 0.161017 0
11.170000 0.189038 0
11.175000 0.212453 0
11.180000 0.229528 0
11.185000 0.238923 0
11.190000 0.239867 1
11.195000 0.232259 0
11.200000 0.216688 0
11.205000 0.194356 0
11.210000 0.166918 0
11.215000 0.136280 0
11.220000 0.104350 0
11.225000 0.072740 0
11.230000 0.042329 0
11.235000 0.012603 0
11.240000 -0.019080 0
11.245000 -0.057371 0
11.250000 -0.106450 0
11.255000 -0.164672 0
11.260000 -0.219130 0
11.265000 -0.245002 2
11.270000 -0.211379 0
11.275000 -0.089970 0
11.280000 0.135034 0
11.285000 0.451373 0
11.290000 0.799952 0
11.295000 1.075989 0
11.300000 1.172232 3
11.305000 1.043494 0
11.310000 0.738757 0
11.315000 0.367219 0
11.320000 0.033585 0
11.325000 -0.200976 0
11.330000 -0.319299 0
11.335000 -0.334381 4
11.340000 -0.278414 0
11.345000 -0.191458 0
11.350000 -0.106891 0
11.355000 -0.041344 0
11.360000 0.004425 0
11.365000 0.037411 0
11.370000 0.064897 0
11.375000 0.091398 0
11.380000 0.118847 0
11.385000 0.147708 0
11.390000 0.177792 0
11.395000 0.208639 0
11.400000 0.239656 0
11.405000 0.270165 0
11.410000 0.299429 0
11.415000 0.326688 0
11.420000 0.351184 0
11.425000 0.372198 0
11.430000 0.389083 0
11.435000 0.401299 0
11.440000 0.408438 0
11.445000 0.410247 5
11.450000 0.406641 0
11.455000 0.397709 0
11.460000 0.383711 0
11.465000 0.365062 0
11.470000 0.342312 0
11.475000 0.316120 0
11.480000 0.287220 0
11.485000 0.256386 0
11.490000 0.224399 0
11.495000 0.192015 0
11.500000 0.159933 0
11.505000 0.128777 0
11.510000 0.099073 0
11.515000 0.071244 0
11.520000 0.045602 0
11.525000 0.022355 0
11.530000 0.001606 0
11.535000 -0.016626 0
11.540000 -0.032402 0
11.545000 -0.045841 0
11.550000 -0.057108 0
11.555000 -0.066400 0
11.560000 -0.073928 0
11.565000 -0.079911 0
11.570000 -0.084564 0
11.575000 -0.088090 0
11.580000 -0.090677 0
11.585000 -0.092493 0
11.590000 -0.093686 0
11.595000 -0.093131 0
11.600000 -0.092285 0
11.605000 -0.091442 0
11.610000 -0.090604 0
11.615000 -0.089769 0
11.620000 -0.088939 0
11.625000 -0.088112 0
11.630000 -0.087288 0
11.635000 -0.086466 0
11.640000 -0.085642 0
11.645000 -0.084812 0
11.650000 -0.083967 0
11.655000 -0.083091 0
11.660000 -0.082158 0
11.665000 -0.081123 0
11.670000 -0.079917 0
11.675000 -0.078434 0
11.680000 -0.076520 0
11.685000 -0.073959 0
11.690000 -0.070460 0
11.695000 -0.065654 0
11.700000 -0.059095 0
11.705000 -0.050280 0
11.710000 -0.038689 0
11.715000 -0.023843 0
11.720000 -0.005385 0
11.725000 0.016825 0
11.730000 0.042618 0
11.735000 0.071437 0
11.740000 0.102297 0
11.745000 0.133800 0
11.750000 0.164213 0
11.755000 0.191610 0
11.760000 0.214072 0
11.765000 0.229899 0
11.770000 0.237829 1
11.775000 0.237199 0
11.780000 0.228038 0
11.785000 0.211063 0
11.790000 0.187590 0
11.795000 0.159357 0
11.800000 0.128309 0
11.805000 0.096337 0
11.810000 0.064952 0
11.815000 0.034806 0
11.820000 0.004957 0
11.825000 -0.027784 0
11.830000 -0.068336 0
11.835000 -0.120095 0
11.840000 -0.179079 0
11.845000 -0.229131 0
11.850000 -0.242943 2
11.855000 -0.189149 0
11.860000 -0.041367 0
11.865000 0.210779 0
11.870000 0.543904 0
11.875000 0.884193 0
11.880000 1.119146 0
11.885000 1.152072 3
11.890000 0.964383 0
11.895000 0.628463 0
11.900000 0.258680 0
11.905000 -0.050541 0
11.910000 -0.251746 0
11.915000 -0.337849 4
11.920000 -0.328406 0
11.925000 -0.259303 0
11.930000 -0.170217 0
11.935000 -0.090281 0
11.940000 -0.030944 0
11.945000 0.010251 0
11.950000 0.040991 0
11.955000 0.067877 0
11.960000 0.094568 0
11.965000 0.122453 0
11.970000 0.151737 0
11.975000 0.182128 0
11.980000 0.213117 0
11.985000 0.244080 0
11.990000 0.274318 0
11.995000 0.303083 0
12.000000 0.329611 0
12.005000 0.353150 0
12.010000 0.372999 0
12.015000 0.388540 0
12.020000 0.399268 0
12.025000 0.404821 0
12.030000 0.404995 5
12.035000 0.399759 0
12.040000 0.389256 0
12.045000 0.373794 0
12.050000 0.353835 0
12.055000 0.329965 0
12.060000 0.302873 0
12.065000 0.273308 0
12.070000 0.242053 0
12.075000 0.209884 0
12.080000 0.177545 0
12.085000 0.145713 0
12.090000 0.114984 0
12.095000 0.085853 0
12.100000 0.058710 0
12.105000 0.033832 0
12.110000 0.011394 0
12.115000 -0.008528 0
12.120000 -0.025945 0
12.125000 -0.040936 0
12.130000 -0.053637 0
12.135000 -0.064225 0
12.140000 -0.072904 0
12.145000 -0.079888 0
12.150000 -0.085397 0
12.155000 -0.089643 0
12.160000 -0.092824 0
12.165000 -0.095123 0
12.170000 -0.096701 0
12.175000 -0.097429 0
12.180000 -0.096560 0
12.185000 -0.095697 0
12.190000 -0.094837 0
12.195000 -0.093982 0
12.200000 -0.093131 0
12.205000 -0.092283 0
12.210000 -0.091439 0
12.215000 -0.090598 0
12.220000 -0.089758 0
12.225000 -0.088915 0
12.230000 -0.088064 0
12.235000 -0.087193 0
12.240000 -0.086284 0
12.245000 -0.085304 0
12.250000 -0.084203 0
12.255000 -0.082899 0
12.260000 -0.081273 0
12.265000 -0.079148 0
12.270000 -0.076285 0
12.275000 -0.072366 0
12.280000 -0.066993 0
12.285000 -0.059698 0
12.290000 -0.049965 0
12.295000 -0.037279 0
12.300000 -0.021193 0
12.305000 -0.001415 0
12.310000 0.022100 0
12.315000 0.049052 0
12.320000 0.078736 0
12.325000 0.110017 0
12.330000 0.141365 0
12.335000 0.170955 0
12.340000 0.196838 0
12.345000 0.217143 0
12.350000 0.230301 0
12.355000 0.235246 1
12.360000 0.231552 0
12.365000 0.219502 0
12.370000 0.200041 0
12.375000 0.174662 0
12.380000 0.145206 0
12.385000 0.113635 0
12.390000 0.081749 0
12.395000 0.050818 0
12.400000 0.021012 0
12.405000 -0.009379 0
12.410000 -0.044355 0
12.415000 -0.088835 0
12.420000 -0.144262 0
12.425000 -0.202523 0
12.430000 -0.242841 2
12.435000 -0.235358 0
12.440000 -0.149431 0
12.445000 0.037020 0
12.450000 0.324330 0
12.455000 0.671514 0
12.460000 0.986511 0
12.465000 1.154466 3
12.470000 1.102496 0
12.475000 0.848217 0
12.480000 0.486677 0
12.485000 0.130190 0
12.490000 -0.143433 0
12.495000 -0.303037 0
12.500000 -0.352311 4
12.505000 -0.317522 0
12.510000 -0.237278 0
12.515000 -0.148845 0
12.520000 -0.075395 0
12.525000 -0.022793 0
12.530000 0.014099 0
12.535000 0.043024 0
12.540000 0.069614 0
12.545000 0.096645 0
12.550000 0.125018 0
12.555000 0.154727 0
12.560000 0.185396 0
12.565000 0.216479 0
12.570000 0.247329 0
12.575000 0.277234 0
12.580000 0.305443 0
12.585000 0.331198 0
12.590000 0.353762 0
12.595000 0.372460 0
12.600000 0.386708 0
12.605000 0.396042 0
12.610000 0.400143 5
12.615000 0.398858 0
12.620000 0.392202 0
12.625000 0.380364 0
12.630000 0.363691 0
12.635000 0.342679 0
12.640000 0.317939 0
12.645000 0.290173 0
12.650000 0.260138 0
12.655000 0.228614 0
12.660000 0.196365 0
12.665000 0.164117 0
12.670000 0.132525 0
12.675000 0.102158 0
12.680000 0.073484 0
12.685000 0.046865 0
12.690000 0.022552 0
12.695000 0.000695 0
12.700000 -0.018650 0
12.705000 -0.035508 0
12.710000 -0.049973 0
12.715000 -0.062191 0
12.720000 -0.072342 0
12.725000 -0.080632 0
12.730000 -0.087278 0
12.735000 -0.092495 0
12.740000 -0.096493 0
12.745000 -0.099465 0
12.750000 -0.101589 0
12.755000 -0.103022 0
12.760000 -0.103643 0
12.765000 -0.102744 0
12.770000 -0.101849 0
12.775000 -0.100959 0
12.780000 -0.100073 0
12.785000 -0.099191 0
12.790000 -0.098314 0
12.795000 -0.097440 0
12.800000 -0.096568 0
12.805000 -0.095697 0
12.810000 -0.094823 0
12.815000 -0.093940 0
12.820000 -0.093035 0
12.825000 -0.092089 0
12.830000 -0.091068 0
12.835000 -0.089917 0
12.840000 -0.088552 0
12.845000 -0.086846 0
12.850000 -0.084621 0
12.855000 -0.081627 0
12.860000 -0.077540 0
12.865000 -0.071957 0
12.870000 -0.064407 0
12.875000 -0.054373 0
12.880000 -0.041349 0
12.885000 -0.024901 0
12.890000 -0.004757 0
12.895000 0.019099 0
12.900000 0.046337 0
12.905000 0.076222 0
12.910000 0.107592 0
12.915000 0.138899 0
12.920000 0.168318 0
12.925000 0.193908 0
12.930000 0.213825 0
12.935000 0.226537 0
12.940000 0.231019 1
12.945000 0.226888 0
12.950000 0.214461 0
12.955000 0.194709 0
12.960000 0.169135 0
12.965000 0.139579 0
12.970000 0.107989 0
12.975000 0.076140 0
12.980000 0.045271 0
12.985000 0.015506 0
12.990000 -0.014913 0
12.995000 -0.050005 0
13.000000 -0.094647 0
13.005000 -0.150167 0
13.010000 -0.208353 0
13.015000 -0.248444 2
13.020000 -0.240743 0
13.025000 -0.154816 0
13.030000 0.031283 0
13.035000 0.318010 0
13.040000 0.665008 0
13.045000 0.981267 0
13.050000 1.152560 3
13.055000 1.105745 0
13.060000 0.856290 0
13.065000 0.496545 0
13.070000 0.137866 0
13.075000 -0.140987 0
13.080000 -0.307205 0
13.085000 -0.362867 4
13.090000 -0.332757 0
13.095000 -0.254524 0
13.100000 -0.165571 0
13.105000 -0.090224 0
13.110000 -0.035653 0
13.115000 0.002551 0
13.120000 0.032069 0
13.125000 0.058778 0
13.130000 0.085715 0
13.135000 0.113933 0
13.140000 0.143508 0
13.145000 0.174103 0
13.150000 0.205195 0
13.155000 0.236160 0
13.160000 0.266305 0
13.165000 0.294894 0
13.170000 0.321176 0
13.175000 0.344420 0
13.180000 0.363945 0
13.185000 0.379156 0
13.190000 0.389569 0
13.195000 0.394839 5
13.200000 0.394779 0
13.205000 0.389365 0
13.210000 0.378747 0
13.215000 0.363231 0
13.220000 0.343272 0
13.225000 0.319449 0
13.230000 0.292434 0
13.235000 0.262962 0
13.240000 0.231800 0
13.245000 0.199710 0
13.250000 0.167420 0
13.255000 0.135600 0
13.260000 0.104838 0
13.265000 0.075626 0
13.270000 0.048354 0
13.275000 0.023305 0
13.280000 0.000658 0
13.285000 -0.019503 0
13.290000 -0.037177 0
13.295000 -0.052435 0
13.300000 -0.065404 0
13.305000 -0.076252 0
13.310000 -0.085174 0
13.315000 -0.092382 0
13.320000 -0.098089 0
13.325000 -0.102504 0
13.330000 -0.105827 0
13.335000 -0.108240 0
13.340000 -0.109904 0
13.345000 -0.110964 0
13.350000 -0.110316 0
13.355000 -0.109384 0
13.360000 -0.108456 0
13.365000 -0.107533 0
13.370000 -0.106614 0
13.375000 -0.105700 0
13.380000 -0.104789 0
13.385000 -0.103882 0
13.390000 -0.102977 0
13.395000 -0.102071 0
13.400000 -0.101159 0
13.405000 -0.100233 0
13.410000 -0.099278 0
13.415000 -0.098268 0
13.420000 -0.097160 0
13.425000 -0.095888 0
13.430000 -0.094352 0
13.435000 -0.092403 0
13.440000 -0.089836 0
13.445000 -0.086373 0
13.450000 -0.081659 0
13.455000 -0.075264 0
13.460000 -0.066702 0
13.465000 -0.055459 0
13.470000 -0.041057 0
13.475000 -0.023121 0
13.480000 -0.001473 0
13.485000 0.023778 0
13.490000 0.052158 0
13.495000 0.082780 0
13.500000 0.114349 0
13.505000 0.145222 0
13.510000 0.173537 0
13.515000 0.197387 0
13.520000 0.215037 0
13.525000 0.225125 0
13.530000 0.226838 1
13.535000 0.220023 0
13.540000 0.205205 0
13.545000 0.183523 0
13.550000 0.156583 0
13.555000 0.126259 0
13.560000 0.094451 0
13.565000 0.062807 0
13.570000 0.032312 0
13.575000 0.002666 0
13.580000 -0.028458 0
13.585000 -0.065482 0
13.590000 -0.112874 0
13.595000 -0.170195 0
13.600000 -0.226487 0
13.605000 -0.258702 2
13.610000 -0.236611 0
13.615000 -0.131181 0
13.620000 0.076143 0
13.625000 0.379365 0
13.630000 0.728955 0
13.635000 1.027347 0
13.640000 1.163816 3
13.645000 1.079628 0
13.650000 0.805342 0
13.655000 0.439025 0
13.660000 0.087788 0
13.665000 -0.177349 0
13.670000 -0.329469 0
13.675000 -0.373882 4
13.680000 -0.336877 0
13.685000 -0.256090 0
13.690000 -0.167531 0
13.695000 -0.093660 0
13.700000 -0.040364 0
13.705000 -0.002838 0
13.710000 0.026461 0
13.715000 0.053170 0
13.720000 0.080168 0
13.725000 0.108448 0
13.730000 0.138068 0
13.735000 0.168693 0
13.740000 0.199811 0
13.745000 0.230808 0
13.750000 0.261005 0
13.755000 0.289678 0
13.760000 0.316092 0
13.765000 0.339526 0
13.770000 0.359310 0
13.775000 0.374853 0
13.780000 0.385670 0
13.785000 0.391413 0
13.790000 0.391884 5
13.795000 0.387044 0
13.800000 0.377022 0
13.805000 0.362104 0
13.810000 0.342718 0
13.815000 0.319420 0
13.820000 0.292857 0
13.825000 0.263745 0
13.830000 0.232835 0
13.835000 0.200877 0
13.840000 0.168595 0
13.845000 0.136660 0
13.850000 0.105664 0
13.855000 0.076113 0
13.860000 0.048410 0
13.865000 0.022856 0
13.870000 -0.000349 0
13.875000 -0.021102 0
13.880000 -0.039383 0
13.885000 -0.055244 0
13.890000 -0.068797 0
13.895000 -0.080198 0
13.900000 -0.089632 0
13.905000 -0.097303 0
13.910000 -0.103422 0
13.915000 -0.108196 0
13.920000 -0.111825 0
13.925000 -0.114493 0
13.930000 -0.116366 0
13.935000 -0.117592 0
13.940000 -0.118056 0
13.945000 -0.117085 0
13.950000 -0.116119 0
13.955000 -0.115157 0
13.960000 -0.114200 0
13.965000 -0.113248 0
13.970000 -0.112301 0
13.975000 -0.111357 0
13.980000 -0.110415 0
13.985000 -0.109475 0
13.990000 -0.108532 0
13.995000 -0.107580 0
14.000000 -0.106607 0
14.005000 -0.105593 0
14.010000 -0.104506 0
14.015000 -0.103293 0
14.020000 -0.101874 0
14.025000 -0.100129 0
14.030000 -0.097886 0
14.035000 -0.094913 0
14.040000 -0.090901 0
14.045000 -0.085468 0
14.050000 -0.078164 0
14.055000 -0.068495 0
14.060000 -0.055964 0
14.065000 -0.040131 0
14.070000 -0.020698 0
14.075000 0.002408 0
14.080000 0.028951 0
14.085000 0.058313 0
14.090000 0.089471 0
14.095000 0.121021 0
14.100000 0.151254 0
14.105000 0.178305 0
14.110000 0.200335 0
14.115000 0.215736 0
14.120000 0.223326 1
14.125000 0.222499 0
14.130000 0.213304 0
14.135000 0.196442 0
14.140000 0.173179 0
14.145000 0.145183 0
14.150000 0.114328 0
14.155000 0.082446 0
14.160000 0.051040 0
14.165000 0.020848 0
14.170000 -0.008813 0
14.175000 -0.040717 0
14.180000 -0.079482 0
14.185000 -0.129013 0
14.190000 -0.187306 0
14.195000 -0.241385 0
14.200000 -0.266902 2
14.205000 -0.233761 0
14.210000 -0.114373 0
14.215000 0.107066 0
14.220000 0.419997 0
14.225000 0.769456 0
14.230000 1.055414 0
14.235000 1.171246 3
14.240000 1.067177 0
14.245000 0.781110 0
14.250000 0.412473 0
14.255000 0.064998 0
14.260000 -0.194429 0
14.265000 -0.341461 0
14.270000 -0.382447 4
14.275000 -0.343767 0
14.280000 -0.262526 0
14.285000 -0.173958 0
14.290000 -0.100000 0
14.295000 -0.046452 0
14.300000 -0.008651 0
14.305000 0.020820 0
14.310000 0.047581 0
14.315000 0.074552 0
14.320000 0.102769 0
14.325000 0.132325 0
14.330000 0.162907 0
14.335000 0.194021 0
14.340000 0.225073 0
14.345000 0.255400 0
14.350000 0.284296 0
14.355000 0.311040 0
14.360000 0.334920 0
14.365000 0.355270 0
14.370000 0.371496 0
14.375000 0.383108 0
14.380000 0.389740 0
14.385000 0.391170 5
14.390000 0.387334 0
14.395000 0.378327 0
14.400000 0.364400 0
14.405000 0.345947 0
14.410000 0.323487 0
14.415000 0.297639 0
14.420000 0.269092 0
14.425000 0.238578 0
14.430000 0.206836 0
14.435000 0.174588 0
14.440000 0.142505 0
14.445000 0.111196 0
14.450000 0.081181 0
14.455000 0.052887 0
14.460000 0.026641 0
14.465000 0.002669 0
14.470000 -0.018897 0
14.475000 -0.038010 0
14.480000 -0.054700 0
14.485000 -0.069057 0
14.490000 -0.081220 0
14.495000 -0.091361 0
14.500000 -0.099676 0
14.505000 -0.106369 0
14.510000 -0.111647 0
14.515000 -0.115709 0
14.520000 -0.118743 0
14.525000 -0.120920 0
14.530000 -0.122394 0
14.535000 -0.123298 0
14.540000 -0.122576 0
14.545000 -0.121583 0
14.550000 -0.120594 0
14.555000 -0.119610 0
14.560000 -0.118631 0
14.565000 -0.117657 0
14.570000 -0.116687 0
14.575000 -0.115720 0
14.580000 -0.114756 0
14.585000 -0.113791 0
14.590000 -0.112822 0
14.595000 -0.111839 0
14.600000 -0.110828 0
14.605000 -0.109766 0
14.610000 -0.108614 0
14.615000 -0.107309 0
14.620000 -0.105759 0
14.625000 -0.103830 0
14.630000 -0.101330 0
14.635000 -0.098006 0
14.640000 -0.093530 0
14.645000 -0.087501 0
14.650000 -0.079460 0
14.655000 -0.068916 0
14.660000 -0.055392 0
14.665000 -0.038489 0
14.670000 -0.017972 0
14.675000 0.006153 0
14.680000 0.033551 0
14.685000 0.063512 0
14.690000 0.094929 0
14.695000 0.126337 0
14.700000 0.156008 0
14.705000 0.182100 0
14.710000 0.202841 0
14.715000 0.216726 0
14.720000 0.222701 1
14.725000 0.220295 0
14.730000 0.209678 0
14.735000 0.191645 0
14.740000 0.167518 0
14.745000 0.138982 0
14.750000 0.107885 0
14.755000 0.076002 0
14.760000 0.044738 0
14.765000 0.014688 0
14.770000 -0.015019 0
14.775000 -0.047330 0
14.780000 -0.086870 0
14.785000 -0.137217 0
14.790000 -0.195754 0
14.795000 -0.248960 0
14.800000 -0.272416 2
14.805000 -0.236499 0
14.810000 -0.114370 0
14.815000 0.109017 0
14.820000 0.422675 0
14.825000 0.772199 0
14.830000 1.059325 0
14.835000 1.179038 3
14.840000 1.080703 0
14.845000 0.799358 0
14.850000 0.431854 0
14.855000 0.081327 0
14.860000 -0.184156 0
14.865000 -0.338517 0
14.870000 -0.386442 4
14.875000 -0.352791 0
14.880000 -0.273703 0
14.885000 -0.184596 0
14.890000 -0.108611 0
14.895000 -0.052920 0
14.900000 -0.013655 0
14.905000 0.016495 0
14.910000 0.043396 0
14.915000 0.070244 0
14.920000 0.098258 0
14.925000 0.127620 0
14.930000 0.158064 0
14.935000 0.189125 0
14.940000 0.220232 0
14.945000 0.250742 0
14.950000 0.279966 0
14.955000 0.307194 0
14.960000 0.331721 0
14.965000 0.352879 0
14.970000 0.370066 0
14.975000 0.382773 0
14.980000 0.390610 0
14.985000 0.393324 5
14.990000 0.390813 0
14.995000 0.383131 0
15.000000 0.370485 0
15.005000 0.353228 0
15.010000 0.331839 0
15.015000 0.306903 0
15.020000 0.279083 0
15.025000 0.249088 0
15.030000 0.217650 0
15.035000 0.185485 0
15.040000 0.153276 0
15.045000 0.121642 0
15.050000 0.091129 0
15.055000 0.062188 0
15.060000 0.035176 0
15.065000 0.010353 0
15.070000 -0.012120 0
15.075000 -0.032166 0
15.080000 -0.049787 0
15.085000 -0.065051 0
15.090000 -0.078076 0
15.095000 -0.089022 0
15.100000 -0.098071 0
15.105000 -0.105424 0
15.110000 -0.111285 0
15.115000 -0.115852 0
15.120000 -0.119318 0
15.125000 -0.121859 0
15.130000 -0.123633 0
15.135000 -0.124782 0
15.140000 -0.125188 0
15.145000 -0.124181 0
15.150000 -0.123180 0
15.155000 -0.122183 0
15.160000 -0.121192 0
15.165000 -0.120205 0
15.170000 -0.119222 0
15.175000 -0.118244 0
15.180000 -0.117268 0
15.185000 -0.116294 0
15.190000 -0.115318 0
15.195000 -0.114335 0
15.200000 -0.113333 0
15.205000 -0.112295 0
15.210000 -0.111191 0
15.215000 -0.109977 0
15.220000 -0.108579 0
15.225000 -0.106890 0
15.230000 -0.104760 0
15.235000 -0.101976 0
15.240000 -0.098261 0
15.245000 -0.093267 0
15.250000 -0.086577 0
15.255000 -0.077721 0
15.260000 -0.066215 0
15.265000 -0.051608 0
15.270000 -0.033550 0
15.275000 -0.011878 0
15.280000 0.013309 0
15.285000 0.041572 0
15.290000 0.072092 0
15.295000 0.103672 0
15.300000 0.134781 0
15.305000 0.163671 0
15.310000 0.188526 0
15.315000 0.207650 0
15.320000 0.219660 0
15.325000 0.223649 1
15.330000 0.219300 0
15.335000 0.206930 0
15.340000 0.187449 0
15.345000 0.162252 0
15.350000 0.133049 0
15.355000 0.101667 0
15.360000 0.069810 0
15.365000 0.038754 0
15.370000 0.008881 0
15.375000 -0.020985 0
15.380000 -0.054087 0
15.385000 -0.095076 0
15.390000 -0.146939 0
15.395000 -0.205810 0
15.400000 -0.256808 0
15.405000 -0.274833 2
15.410000 -0.230605 0
15.415000 -0.098471 0
15.420000 0.134547 0
15.425000 0.454269 0
15.430000 0.802897 0
15.435000 1.081178 0
15.440000 1.187373 3
15.445000 1.076180 0
15.450000 0.787064 0
15.455000 0.418031 0
15.460000 0.070329 0
15.465000 -0.190602 0
15.470000 -0.340515 0
15.475000 -0.385031 4
15.480000 -0.349372 0
15.485000 -0.269573 0
15.490000 -0.180573 0
15.495000 -0.104963 0
15.500000 -0.049578 0
15.505000 -0.010467 0
15.510000 0.019627 0
15.515000 0.046509 0
15.520000 0.073340 0
15.525000 0.101329 0
15.530000 0.130663 0
15.535000 0.161077 0
15.540000 0.192115 0
15.545000 0.223209 0
15.550000 0.253725 0
15.555000 0.282980 0
15.560000 0.310268 0
15.565000 0.334891 0
15.570000 0.356185 0
15.575000 0.373548 0
15.580000 0.386472 0
15.585000 0.394563 0
15.590000 0.397562 5
15.595000 0.395359 0
15.600000 0.387998 0
15.605000 0.375675 0
15.610000 0.358729 0
15.615000 0.337629 0
15.620000 0.312945 0
15.625000 0.285331 0
15.630000 0.255487 0
15.635000 0.224138 0
15.640000 0.191998 0
15.645000 0.159747 0
15.650000 0.128009 0
15.655000 0.097330 0
15.660000 0.068173 0
15.665000 0.040900 0
15.670000 0.015781 0
15.675000 -0.007012 0
15.680000 -0.027393 0
15.685000 -0.045355 0
15.690000 -0.060955 0
15.695000 -0.074306 0
15.700000 -0.085560 0
15.705000 -0.094897 0
15.710000 -0.102513 0
15.715000 -0.108610 0
15.720000 -0.113387 0
15.725000 -0.117036 0
15.730000 -0.119734 0
15.735000 -0.121642 0
15.740000 -0.122904 0
15.745000 -0.123391 0
15.750000 -0.122393 0
15.755000 -0.121400 0
15.760000 -0.120413 0
15.765000 -0.119430 0
15.770000 -0.118452 0
15.775000 -0.117478 0
15.780000 -0.116509 0
15.785000 -0.115542 0
15.790000 -0.114578 0
15.795000 -0.113613 0
15.800000 -0.112641 0
15.805000 -0.111654 0
15.810000 -0.110636 0
15.815000 -0.109562 0
15.820000 -0.108390 0
15.825000 -0.107056 0
15.830000 -0.105464 0
15.835000 -0.103476 0
15.840000 -0.100898 0
15.845000 -0.097474 0
15.850000 -0.092877 0
15.855000 -0.086710 0
15.860000 -0.078520 0
15.865000 -0.067827 0
15.870000 -0.054167 0
15.875000 -0.037156 0
15.880000 -0.016571 0
15.885000 0.007577 0
15.890000 0.034959 0
15.895000 0.064881 0
15.900000 0.096267 0
15.905000 0.127695 0
15.910000 0.157483 0
15.915000 0.183834 0
15.920000 0.205005 0
15.925000 0.219502 0
15.930000 0.226253 1
15.935000 0.224736 0
15.940000 0.215052 0
15.945000 0.197910 0
15.950000 0.174539 0
15.955000 0.146549 0
15.960000 0.115735 0
15.965000 0.083861 0
15.970000 0.052392 0
15.975000 0.022103 0
15.980000 -0.007509 0
15.985000 -0.038869 0
15.990000 -0.076266 0
15.995000 -0.123841 0
16.000000 -0.181069 0
16.005000 -0.237754 0
16.010000 -0.272560 2
16.015000 -0.257198 0
16.020000 -0.163810 0
16.025000 0.027005 0
16.030000 0.314558 0
16.035000 0.661114 0
16.040000 0.983149 0
16.045000 1.173864 3
16.050000 1.157293 0
16.055000 0.935733 0
16.060000 0.587867 0
16.065000 0.220262 0
16.070000 -0.083531 0
16.075000 -0.282355 0
16.080000 -0.370403 4
16.085000 -0.365438 0
16.090000 -0.300096 0
16.095000 -0.211420 0
16.100000 -0.128348 0
16.105000 -0.064308 0
16.110000 -0.019072 0
16.115000 0.014012 0
16.120000 0.041705 0
16.125000 0.068287 0
16.130000 0.095682 0
16.135000 0.124421 0
16.140000 0.154387 0
16.145000 0.185190 0
16.150000 0.216302 0
16.155000 0.247115 0
16.160000 0.276963 0
16.165000 0.305145 0
16.170000 0.330958 0
16.175000 0.353717 0
16.180000 0.372790 0
16.185000 0.387627 0
16.190000 0.397780 0
16.195000 0.402933 5
16.200000 0.402910 0
16.205000 0.397689 0
16.210000 0.387404 0
16.215000 0.372334 0
16.220000 0.352896 0
16.225000 0.329621 0
16.230000 0.303131 0
16.235000 0.274110 0
16.240000 0.243278 0
16.245000 0.211356 0
16.250000 0.179043 0
16.255000 0.146989 0
16.260000 0.115776 0
16.265000 0.085902 0
16.270000 0.057773 0
16.275000 0.031697 0
16.280000 0.007888 0
16.285000 -0.013535 0
16.290000 -0.032531 0
16.295000 -0.049133 0
16.300000 -0.063433 0
16.305000 -0.075568 0
16.310000 -0.085707 0
16.315000 -0.094042 0
16.320000 -0.100773 0
16.325000 -0.106101 0
16.330000 -0.110222 0
16.335000 -0.113321 0
16.340000 -0.115564 0
16.345000 -0.117104 0
16.350000 -0.118072 0
16.355000 -0.117382 0
16.360000 -0.116415 0
16.365000 -0.115452 0
16.370000 -0.114494 0
16.375000 -0.113540 0
16.380000 -0.112591 0
16.385000 -0.111647 0
16.390000 -0.110705 0
16.395000 -0.109767 0
16.400000 -0.108828 0
16.405000 -0.107886 0
16.410000 -0.106932 0
16.415000 -0.105955 0
16.420000 -0.104933 0
16.425000 -0.103833 0
16.430000 -0.102600 0
16.435000 -0.101152 0
16.440000 -0.099369 0
16.445000 -0.097083 0
16.450000 -0.094062 0
16.455000 -0.090009 0
16.460000 -0.084554 0
16.465000 -0.077265 0
16.470000 -0.067666 0
16.475000 -0.055281 0
16.480000 -0.039684 0
16.485000 -0.020578 0
16.490000 0.002132 0
16.495000 0.028250 0
16.500000 0.057235 0
16.505000 0.088163 0
16.510000 0.119741 0
16.515000 0.150378 0
16.520000 0.178300 0
16.525000 0.201719 0
16.530000 0.219020 0
16.535000 0.228939 0
16.540000 0.230724 1
16.545000 0.224224 0
16.550000 0.209911 0
16.555000 0.188823 0
16.560000 0.162440 0
16.565000 0.132508 0
16.570000 0.100834 0
16.575000 0.069041 0
16.580000 0.038236 0
16.585000 0.008506 0
16.590000 -0.021756 0
16.595000 -0.056210 0
16.600000 -0.099468 0
16.605000 -0.153500 0
16.610000 -0.212384 0
16.615000 -0.258966 0
16.620000 -0.266879 2
16.625000 -0.207152 0
16.630000 -0.055978 0
16.635000 0.195664 0
16.640000 0.526573 0
16.645000 0.870589 0
16.650000 1.124768 0
16.655000 1.193863 3
16.660000 1.045894 0
16.665000 0.733997 0
16.670000 0.361982 0
16.675000 0.027263 0
16.680000 -0.212518 0
16.685000 -0.339853 0
16.690000 -0.365141 4
16.695000 -0.316945 0
16.700000 -0.232531 0
16.705000 -0.145239 0
16.710000 -0.074266 0
16.715000 -0.023372 0
16.720000 0.012842 0
16.725000 0.041640 0
16.730000 0.068231 0
16.735000 0.095224 0
16.740000 0.123499 0
16.745000 0.153084 0
16.750000 0.183647 0
16.755000 0.214690 0
16.760000 0.245619 0
16.765000 0.275776 0
16.770000 0.304462 0
16.775000 0.330964 0
16.780000 0.354581 0
16.785000 0.374660 0
16.790000 0.390619 0
16.795000 0.401978 0
16.800000 0.408379 0
16.805000 0.409610 5
16.810000 0.405609 0
16.815000 0.396473 0
16.820000 0.382451 0
16.825000 0.363932 0
16.830000 0.341427 0
16.835000 0.315548 0
16.840000 0.286973 0
16.845000 0.256425 0
16.850000 0.224633 0
16.855000 0.192310 0
16.860000 0.160124 0
16.865000 0.128676 0
16.870000 0.098487 0
16.875000 0.069984 0
16.880000 0.043496 0
16.885000 0.019255 0
16.890000 -0.002602 0
16.895000 -0.022022 0
16.900000 -0.039028 0
16.905000 -0.053703 0
16.910000 -0.066180 0
16.915000 -0.076626 0
16.920000 -0.085232 0
16.925000 -0.092198 0
16.930000 -0.097730 0
16.935000 -0.102026 0
16.940000 -0.105273 0
16.945000 -0.107642 0
16.950000 -0.109288 0
16.955000 -0.110347 0
16.960000 -0.109703 0
16.965000 -0.108773 0
16.970000 -0.107849 0
16.975000 -0.106929 0
16.980000 -0.106013 0
16.985000 -0.105102 0
16.990000 -0.104194 0
16.995000 -0.103290 0
17.000000 -0.102389 0
17.005000 -0.101487 0
17.010000 -0.100582 0
17.015000 -0.099666 0
17.020000 -0.098726 0
17.025000 -0.097743 0
17.030000 -0.096681 0
17.035000 -0.095487 0
17.040000 -0.094080 0
17.045000 -0.092338 0
17.050000 -0.090092 0
17.055000 -0.087110 0
17.060000 -0.083090 0
17.065000 -0.077659 0
17.070000 -0.070381 0
17.075000 -0.060775 0
17.080000 -0.048361 0
17.085000 -0.032711 0
17.090000 -0.013527 0
17.095000 0.009276 0
17.100000 0.035492 0
17.105000 0.064556 0
17.110000 0.095520 0
17.115000 0.127062 0
17.120000 0.157559 0
17.125000 0.185218 0
17.130000 0.208236 0
17.135000 0.225002 0
17.140000 0.234274 0
17.145000 0.235338 1
17.150000 0.228093 0
17.155000 0.213070 0
17.160000 0.191366 0
17.165000 0.164508 0
17.170000 0.134277 0
17.175000 0.102489 0
17.180000 0.070742 0
17.185000 0.040064 0
17.190000 0.010370 0
17.195000 -0.020227 0
17.200000 -0.055657 0
17.205000 -0.100483 0
17.210000 -0.155880 0
17.215000 -0.214306 0
17.220000 -0.256750 2
17.225000 -0.255678 0
17.230000 -0.182150 0
17.235000 -0.013828 0
17.240000 0.254426 0
17.245000 0.593956 0
17.250000 0.929577 0
17.255000 1.154501 0
17.260000 1.181015 3
17.265000 0.993286 0
17.270000 0.659626 0
17.275000 0.288602 0
17.280000 -0.028063 0
17.285000 -0.241828 0
17.290000 -0.342642 0
17.295000 -0.346324 4
17.300000 -0.285152 0
17.305000 -0.197237 0
17.310000 -0.113312 0
17.315000 -0.048266 0
17.320000 -0.002469 0
17.325000 0.030765 0
17.330000 0.058416 0
17.335000 0.084916 0
17.340000 0.112246 0
17.345000 0.140940 0
17.350000 0.170871 0
17.355000 0.201629 0
17.360000 0.232668 0
17.365000 0.263360 0
17.370000 0.293016 0
17.375000 0.320918 0
17.380000 0.346342 0
17.385000 0.368590 0
17.390000 0.387025 0
17.395000 0.401093 0
17.400000 0.410355 0
17.405000 0.414509 5
17.410000 0.413404 0
17.415000 0.407048 0
17.420000 0.395610 0
17.425000 0.379410 0
17.430000 0.358904 0
17.435000 0.334662 0
17.440000 0.307344 0
17.445000 0.277665 0
17.450000 0.246365 0
17.455000 0.214182 0
17.460000 0.181819 0
17.465000 0.149923 0
17.470000 0.119062 0
17.475000 0.089717 0
17.480000 0.062266 0
17.485000 0.036989 0
17.490000 0.014066 0
17.495000 -0.006413 0
17.500000 -0.024442 0
17.505000 -0.040079 0
17.510000 -0.053443 0
17.515000 -0.064691 0
17.520000 -0.074008 0
17.525000 -0.081596 0
17.530000 -0.087663 0
17.535000 -0.092413 0
17.540000 -0.096041 0
17.545000 -0.098728 0
17.550000 -0.100636 0
17.555000 -0.101909 0
17.560000 -0.102432 0
17.565000 -0.101539 0
17.570000 -0.100651 0
17.575000 -0.099766 0
17.580000 -0.098887 0
17.585000 -0.098011 0
17.590000 -0.097139 0
17.595000 -0.096271 0
17.600000 -0.095405 0
17.605000 -0.094539 0
17.610000 -0.093671 0
17.615000 -0.092794 0
17.620000 -0.091896 0
17.625000 -0.090958 0
17.630000 -0.089950 0
17.635000 -0.088821 0
17.640000 -0.087494 0
17.645000 -0.085853 0
17.650000 -0.083737 0
17.655000 -0.080918 0
17.660000 -0.077104 0
17.665000 -0.071924 0
17.670000 -0.064942 0
17.675000 -0.055675 0
17.680000 -0.043630 0
17.685000 -0.028364 0
17.690000 -0.009556 0
17.695000 0.012904 0
17.700000 0.038837 0
17.705000 0.067699 0
17.710000 0.098553 0
17.715000 0.130078 0
17.720000 0.160639 0
17.725000 0.188416 0
17.730000 0.211576 0
17.735000 0.228471 0
17.740000 0.237829 0
17.745000 0.238915 1
17.750000 0.231626 0
17.755000 0.216500 0
17.760000 0.194659 0
17.765000 0.167663 0
17.770000 0.137324 0
17.775000 0.105485 0
17.780000 0.073753 0
17.785000 0.043129 0
17.790000 0.013430 0
17.795000 -0.017408 0
17.800000 -0.053512 0
17.805000 -0.099411 0
17.810000 -0.155681 0
17.815000 -0.213495 0
17.820000 -0.252318 2
17.825000 -0.243585 0
17.830000 -0.158285 0
17.835000 0.024658 0
17.840000 0.306643 0
17.845000 0.651752 0
17.850000 0.976381 0
17.855000 1.171028 3
17.860000 1.155060 0
17.865000 0.930109 0
17.870000 0.579370 0
17.875000 0.213935 0
17.880000 -0.081583 0
17.885000 -0.267861 0
17.890000 -0.342058 4
17.895000 -0.325321 0
17.900000 -0.253300 0
17.905000 -0.164071 0
17.910000 -0.084885 0
17.915000 -0.026087 0
17.920000 0.014968 0
17.925000 0.045738 0
17.930000 0.072634 0
17.935000 0.099261 0
17.940000 0.127027 0
17.945000 0.156175 0
17.950000 0.186445 0
17.955000 0.217358 0
17.960000 0.248322 0
17.965000 0.278670 0
17.970000 0.307684 0
17.975000 0.334626 0
17.980000 0.358765 0
17.985000 0.379413 0
17.990000 0.395952 0
17.995000 0.407868 0
18.000000 0.414773 0
18.005000 0.416429 5
18.010000 0.412759 0
18.015000 0.403851 0
18.020000 0.389953 0
18.025000 0.371466 0
18.030000 0.348916 0
18.035000 0.322935 0
18.040000 0.294230 0
18.045000 0.263548 0
18.050000 0.231647 0
18.055000 0.199260 0
18.060000 0.167076 0
18.065000 0.135708 0
18.070000 0.105686 0
18.075000 0.077436 0
18.080000 0.051283 0
18.085000 0.027450 0
18.090000 0.006060 0
18.095000 -0.012850 0
18.100000 -0.029320 0
18.105000 -0.043449 0
18.110000 -0.055386 0
18.115000 -0.065312 0
18.120000 -0.073430 0
18.125000 -0.079950 0
18.130000 -0.085082 0
18.135000 -0.089027 0
18.140000 -0.091975 0
18.145000 -0.094097 0
18.150000 -0.095543 0
18.155000 -0.096190 0
18.160000 -0.095328 0
18.165000 -0.094470 0
18.170000 -0.093617 0
18.175000 -0.092768 0
18.180000 -0.091923 0
18.185000 -0.091081 0
18.190000 -0.090243 0
18.195000 -0.089408 0
18.200000 -0.088573 0
18.205000 -0.087736 0
18.210000 -0.086890 0
18.215000 -0.086025 0
18.220000 -0.085123 0
18.225000 -0.084153 0
18.230000 -0.083067 0
18.235000 -0.081787 0
18.240000 -0.080202 0
18.245000 -0.078146 0
18.250000 -0.075397 0
18.255000 -0.071655 0
18.260000 -0.066548 0
18.265000 -0.059632 0
18.270000 -0.050416 0
18.275000 -0.038396 0
18.280000 -0.023121 0
18.285000 -0.004266 0
18.290000 0.018277 0
18.295000 0.044314 0
18.300000 0.073278 0
18.305000 0.104191 0
18.310000 0.135686 0
18.315000 0.166079 0
18.320000 0.193507 0
18.325000 0.216110 0
18.330000 0.232236 0
18.335000 0.240642 0
18.340000 0.240649 1
18.345000 0.232234 0
18.350000 0.216034 0
18.355000 0.193267 0
18.360000 0.165576 0
18.365000 0.134830 0
18.370000 0.102887 0
18.375000 0.071302 0
18.380000 0.040913 0
18.385000 0.011196 0
18.390000 -0.020430 0
18.395000 -0.058500 0
18.400000 -0.107170 0
18.405000 -0.165149 0
18.410000 -0.220413 0
18.415000 -0.249283 2
18.420000 -0.221704 0
18.425000 -0.109490 0
18.430000 0.104498 0
18.435000 0.412174 0
18.440000 0.761829 0
18.445000 1.055350 0
18.450000 1.184254 3
18.455000 1.090827 0
18.460000 0.808833 0
18.465000 0.440469 0
18.470000 0.093762 0
18.475000 -0.162209 0
18.480000 -0.303299 0
18.485000 -0.337437 4
18.490000 -0.293266 0
18.495000 -0.209797 0
18.500000 -0.122555 0
18.505000 -0.052007 0
18.510000 -0.001969 0
18.515000 0.033425 0
18.520000 0.061748 0
18.525000 0.088214 0
18.530000 0.115297 0
18.535000 0.143744 0
18.540000 0.173495 0
18.545000 0.204152 0
18.550000 0.235162 0
18.555000 0.265879 0
18.560000 0.295592 0
18.565000 0.323556 0
18.570000 0.349019 0
18.575000 0.371256 0
18.580000 0.389603 0
18.585000 0.403489 0
18.590000 0.412461 0
18.595000 0.416215 5
18.600000 0.414604 0
18.605000 0.407654 0
18.610000 0.395556 0
18.615000 0.378662 0
18.620000 0.357466 0
18.625000 0.332576 0
18.630000 0.304690 0
18.635000 0.274559 0
18.640000 0.242953 0
18.645000 0.210631 0
18.650000 0.178311 0
18.655000 0.146642 0
18.660000 0.116189 0
18.665000 0.087417 0
18.670000 0.060684 0
18.675000 0.036243 0
18.680000 0.014244 0
18.685000 -0.005254 0
18.690000 -0.022274 0
18.695000 -0.036907 0
18.700000 -0.049295 0
18.705000 -0.059615 0
18.710000 -0.068071 0
18.715000 -0.074876 0
18.720000 -0.080245 0
18.725000 -0.084384 0
18.730000 -0.087489 0
18.735000 -0.089736 0
18.740000 -0.091283 0
18.745000 -0.092001 0
18.750000 -0.091160 0
18.755000 -0.090323 0
18.760000 -0.089490 0
18.765000 -0.088662 0
18.770000 -0.087837 0
18.775000 -0.087016 0
18.780000 -0.086198 0
18.785000 -0.085383 0
18.790000 -0.084569 0
18.795000 -0.083752 0
18.800000 -0.082926 0
18.805000 -0.082082 0
18.810000 -0.081199 0
18.815000 -0.080248 0
18.820000 -0.079178 0
18.825000 -0.077911 0
18.830000 -0.076331 0
18.835000 -0.074268 0
18.840000 -0.071491 0
18.845000 -0.067692 0
18.850000 -0.062487 0
18.855000 -0.055419 0
18.860000 -0.045984 0
18.865000 -0.033672 0
18.870000 -0.018033 0
18.875000 0.001245 0
18.880000 0.024239 0
18.885000 0.050707 0
18.890000 0.080015 0
18.895000 0.111106 0
18.900000 0.142532 0
18.905000 0.172538 0
18.910000 0.199210 0
18.915000 0.220679 0
18.920000 0.235328 0
18.925000 0.241995 1
18.930000 0.240124 0
18.935000 0.229843 0
18.940000 0.211945 0
18.945000 0.187790 0
18.950000 0.159128 0
18.955000 0.127883 0
18.960000 0.095896 0
18.965000 0.064602 0
18.970000 0.034532 0
18.975000 0.004600 0
18.980000 -0.028512 0
18.985000 -0.069692 0
18.990000 -0.122035 0
18.995000 -0.181077 0
19.000000 -0.230316 0
19.005000 -0.242520 2
19.010000 -0.186788 0
19.015000 -0.037336 0
19.020000 0.215707 0
19.025000 0.548940 0
19.030000 0.889527 0
19.035000 1.126610 0
19.040000 1.164143 3
19.045000 0.981123 0
19.050000 0.647526 0
19.055000 0.277168 0
19.060000 -0.034719 0
19.065000 -0.239492 0
19.070000 -0.329096 4
19.075000 -0.322353 0
19.080000 -0.254675 0
19.085000 -0.165740 0
19.090000 -0.085172 0
19.095000 -0.025043 0
19.100000 0.016716 0
19.105000 0.047707 0
19.110000 0.074625 0
19.115000 0.101242 0
19.120000 0.129019 0
19.125000 0.158200 0
19.130000 0.188506 0
19.135000 0.219439 0
19.140000 0.250381 0
19.145000 0.280638 0
19.150000 0.309468 0
19.155000 0.336107 0
19.160000 0.359806 0
19.165000 0.379861 0
19.170000 0.395651 0
19.175000 0.406663 0
19.180000 0.412528 0
19.185000 0.413030 5
19.190000 0.408128 0
19.195000 0.397951 0
19.200000 0.382796 0
19.205000 0.363113 0
19.210000 0.339479 0
19.215000 0.312571 0
19.220000 0.283136 0
19.225000 0.251951 0
19.230000 0.219792 0
19.235000 0.187404 0
19.240000 0.155468 0
19.245000 0.124587 0
19.250000 0.095264 0
19.255000 0.067895 0
19.260000 0.042768 0
19.265000 0.020065 0
19.270000 -0.000130 0
19.275000 -0.017818 0
19.280000 -0.033073 0
19.285000 -0.046026 0
19.290000 -0.056851 0
19.295000 -0.065747 0
19.300000 -0.072929 0
19.305000 -0.078615 0
19.310000 -0.083017 0
19.315000 -0.086336 0
19.320000 -0.088754 0
19.325000 -0.090436 0
19.330000 -0.091524 0
19.335000 -0.090963 0
19.340000 -0.090127 0
19.345000 -0.089295 0
19.350000 -0.088467 0
19.355000 -0.087644 0
19.360000 -0.086824 0
19.365000 -0.086007 0
19.370000 -0.085193 0
19.375000 -0.084381 0
19.380000 -0.083566 0
19.385000 -0.082743 0
19.390000 -0.081903 0
19.395000 -0.081027 0
19.400000 -0.080087 0
19.405000 -0.079033 0
19.410000 -0.077790 0
19.415000 -0.076244 0
19.420000 -0.074230 0
19.425000 -0.071516 0
19.430000 -0.067799 0
19.435000 -0.062693 0
19.440000 -0.055739 0
19.445000 -0.046430 0
19.450000 -0.034248 0
19.455000 -0.018730 0
19.460000 0.000443 0
19.465000 0.023360 0
19.470000 0.049781 0
19.475000 0.079070 0
19.480000 0.110163 0
19.485000 0.141591 0
19.490000 0.171576 0
19.495000 0.198179 0
19.500000 0.219507 0
19.505000 0.233932 0
19.510000 0.240294 1
19.515000 0.238055 0
19.520000 0.227374 0
19.525000 0.209086 0
19.530000 0.184597 0
19.535000 0.155697 0
19.540000 0.124339 0
19.545000 0.092369 0
19.550000 0.061185 0
19.555000 0.031211 0
19.560000 0.001142 0
19.565000 -0.032611 0
19.570000 -0.075020 0
19.575000 -0.128644 0
19.580000 -0.187612 0
19.585000 -0.233574 0
19.590000 -0.237946 2
19.595000 -0.169618 0
19.600000 -0.004074 0
19.605000 0.264741 0
19.610000 0.605715 0
19.615000 0.936578 0
19.620000 1.142915 3
19.625000 1.137635 0
19.630000 0.918146 0
19.635000 0.568417 0
19.640000 0.203426 0
19.645000 -0.089481 0
19.650000 -0.270617 0
19.655000 -0.338316 4
19.660000 -0.315700 0
19.665000 -0.240412 0
19.670000 -0.151318 0
19.675000 -0.074696 0
19.680000 -0.019035 0
19.685000 0.019693 0
19.690000 0.049322 0
19.695000 0.075968 0
19.700000 0.102804 0
19.705000 0.130933 0
19.710000 0.160435 0
19.715000 0.190962 0
19.720000 0.221980 0
19.725000 0.252848 0
19.730000 0.282852 0
19.735000 0.311240 0
19.740000 0.337243 0
19.745000 0.360117 0
19.750000 0.379172 0
19.755000 0.393808 0
19.760000 0.403545 0
19.765000 0.408049 5
19.770000 0.407149 0
19.775000 0.400848 0
19.780000 0.389322 0
19.785000 0.372913 0
19.790000 0.352109 0
19.795000 0.327522 0
19.800000 0.299856 0
19.805000 0.269871 0
19.810000 0.238354 0
19.815000 0.206078 0
19.820000 0.173775 0
19.825000 0.142111 0
19.830000 0.111662 0
19.835000 0.082903 0
19.840000 0.056201 0
19.845000 0.031812 0
19.850000 0.009888 0
19.855000 -0.009513 0
19.860000 -0.026417 0
19.865000 -0.040918 0
19.870000 -0.053162 0
19.875000 -0.063333 0
19.880000 -0.071639 0
19.885000 -0.078297 0
19.890000 -0.083525 0
19.895000 -0.087534 0
19.900000 -0.090519 0
19.905000 -0.092658 0
19.910000 -0.094109 0
19.915000 -0.094755 0
19.920000 -0.093900 0
19.925000 -0.093050 0
19.930000 -0.092203 0
19.935000 -0.091361 0
19.940000 -0.090523 0
19.945000 -0.089689 0
19.950000 -0.088857 0
19.955000 -0.088028 0
19.960000 -0.087200 0
19.965000 -0.086367 0
19.970000 -0.085524 0
19.975000 -0.084658 0
19.980000 -0.083747 0
19.985000 -0.082756 0
19.990000 -0.081626 0
19.995000 -0.080269 0
20.000000 -0.078551 0
20.005000 -0.076284 0
20.010000 -0.073206 0
20.015000 -0.068982 0
20.020000 -0.063193 0
20.025000 -0.055355 0
20.030000 -0.044948 0
20.035000 -0.031463 0
20.040000 -0.014484 0
20.045000 0.006230 0
20.050000 0.030644 0
20.055000 0.058361 0
20.060000 0.088566 0
20.065000 0.120013 0
20.070000 0.151083 0
20.075000 0.179898 0
20.080000 0.204502 0
20.085000 0.223080 0
20.090000 0.234170 0
20.095000 0.236862 1
20.100000 0.230914 0
20.105000 0.216787 0
20.110000 0.195591 0
20.115000 0.168933 0
20.120000 0.138715 0
20.125000 0.106889 0
20.130000 0.075158 0
20.135000 0.044568 0
20.140000 0.014859 0
20.145000 -0.016305 0
20.150000 -0.053432 0
20.155000 -0.101066 0
20.160000 -0.158616 0
20.165000 -0.214525 0
20.170000 -0.244828 2
20.175000 -0.218479 0
20.180000 -0.106171 0
20.185000 0.109804 0
20.190000 0.420269 0
20.195000 0.769609 0
20.200000 1.054236 0
20.205000 1.163692 3
20.210000 1.047776 0
20.215000 0.750709 0
20.220000 0.379934 0
20.225000 0.041912 0
20.230000 -0.199320 0
20.235000 -0.324371 0
20.240000 -0.344788 4
20.245000 -0.291895 0
20.250000 -0.205673 0
20.255000 -0.120268 0
20.260000 -0.053393 0
20.265000 -0.006559 0
20.270000 0.027010 0
20.275000 0.054712 0
20.280000 0.081240 0
20.285000 0.108652 0
20.290000 0.137472 0
20.295000 0.167535 0
20.300000 0.198393 0
20.305000 0.229461 0
20.310000 0.260062 0
20.315000 0.289465 0
20.320000 0.316910 0
20.325000 0.341636 0
20.330000 0.362923 0
20.335000 0.380118 0
20.340000 0.392674 0
20.345000 0.400174 0
20.350000 0.402354 5
20.355000 0.399121 0
20.360000 0.390551 0
20.365000 0.376895 0
20.370000 0.358558 0
20.375000 0.336083 0
20.380000 0.310123 0
20.385000 0.281407 0
20.390000 0.250709 0
20.395000 0.218810 0
20.400000 0.186467 0
20.405000 0.154385 0
20.410000 0.123192 0
20.415000 0.093421 0
20.420000 0.065500 0
20.425000 0.039751 0
20.430000 0.016386 0
20.435000 -0.004485 0
20.440000 -0.022839 0
20.445000 -0.038731 0
20.450000 -0.052278 0
20.455000 -0.063641 0
20.460000 -0.073016 0
20.465000 -0.080615 0
20.470000 -0.086654 0
20.475000 -0.091351 0
20.480000 -0.094908 0
20.485000 -0.097515 0
20.490000 -0.099341 0
20.495000 -0.100535 0
20.500000 -0.099952 0
20.505000 -0.099071 0
20.510000 -0.098195 0
20.515000 -0.097323 0
20.520000 -0.096455 0
20.525000 -0.095591 0
20.530000 -0.094731 0
20.535000 -0.093874 0
20.540000 -0.093019 0
20.545000 -0.092163 0
20.550000 -0.091302 0
20.555000 -0.090426 0
20.560000 -0.089521 0
20.565000 -0.088561 0
20.570000 -0.087503 0
20.575000 -0.086279 0
20.580000 -0.084787 0
20.585000 -0.082877 0
20.590000 -0.080335 0
20.595000 -0.076878 0
20.600000 -0.072141 0
20.605000 -0.065683 0
20.610000 -0.057004 0
20.615000 -0.045584 0
20.620000 -0.030937 0
20.625000 -0.012698 0
20.630000 0.009293 0
20.635000 0.034889 0
20.640000 0.063560 0
20.645000 0.094352 0
20.650000 0.125892 0
20.655000 0.156466 0
20.660000 0.184157 0
20.665000 0.207038 0
20.670000 0.223387 0
20.675000 0.231908 1
20.680000 0.231894 0
20.685000 0.223325 0
20.690000 0.206874 0
20.695000 0.183819 0
20.700000 0.155878 0
20.705000 0.124987 0
20.710000 0.093050 0
20.715000 0.061619 0
20.720000 0.031422 0
20.725000 0.001655 0
20.730000 -0.030712 0
20.735000 -0.070545 0
20.740000 -0.121513 0
20.745000 -0.180341 0
20.750000 -0.231764 0
20.755000 -0.249071 2
20.760000 -0.200896 0
20.765000 -0.060210 0
20.770000 0.184957 0
20.775000 0.514245 0
20.780000 0.857477 0
20.785000 1.103528 0
20.790000 1.152339 3
20.795000 0.979499 0
20.800000 0.651425 0
20.805000 0.280216 0
20.810000 -0.037491 0
20.815000 -0.250468 0
20.820000 -0.348382 4
20.825000 -0.348222 0
20.830000 -0.284099 0
20.835000 -0.195521 0
20.840000 -0.113208 0
20.845000 -0.050801 0
20.850000 -0.007301 0
20.855000 0.024619 0
20.860000 0.051862 0
20.865000 0.078499 0
20.870000 0.106192 0
20.875000 0.135289 0
20.880000 0.165559 0
20.885000 0.196530 0
20.890000 0.227604 0
20.895000 0.258105 0
20.900000 0.287304 0
20.905000 0.314445 0
20.910000 0.338783 0
20.915000 0.359611 0
20.920000 0.376298 0
20.925000 0.388315 0
20.930000 0.395269 0
20.935000 0.396916 5
20.940000 0.393180 0
20.945000 0.384157 0
20.950000 0.370107 0
20.955000 0.351443 0
20.960000 0.328714 0
20.965000 0.302570 0
20.970000 0.273736 0
20.975000 0.242979 0
20.980000 0.211070 0
20.985000 0.178756 0
20.990000 0.146729 0
20.995000 0.115607 0
21.000000 0.085913 0
21.005000 0.058070 0
21.010000 0.032390 0
21.015000 0.009082 0
21.020000 -0.011745 0
21.025000 -0.030069 0
21.030000 -0.045946 0
21.035000 -0.059488 0
21.040000 -0.070858 0
21.045000 -0.080246 0
21.050000 -0.087861 0
21.055000 -0.093919 0
21.060000 -0.098633 0
21.065000 -0.102205 0
21.070000 -0.104823 0
21.075000 -0.106656 0
21.080000 -0.107852 0
21.085000 -0.107238 0
21.090000 -0.106321 0
21.095000 -0.105408 0
21.100000 -0.104500 0
21.105000 -0.103597 0
21.110000 -0.102698 0
21.115000 -0.101802 0
21.120000 -0.100910 0
21.125000 -0.100020 0
21.130000 -0.099130 0
21.135000 -0.098236 0
21.140000 -0.097329 0
21.145000 -0.096396 0
21.150000 -0.095412 0
21.155000 -0.094340 0
21.160000 -0.093116 0
21.165000 -0.091646 0
21.170000 -0.089789 0
21.175000 -0.087348 0
21.180000 -0.084055 0
21.185000 -0.079564 0
21.190000 -0.073454 0
21.195000 -0.065240 0
21.200000 -0.054408 0
21.205000 -0.040465 0
21.210000 -0.023016 0
21.215000 -0.001851 0
21.220000 0.022962 0
21.225000 0.050994 0
21.230000 0.081403 0
21.235000 0.112931 0
21.240000 0.143958 0
21.245000 0.172623 0
21.250000 0.197005 0
21.255000 0.215327 0
21.260000 0.226171 0
21.265000 0.228662 1
21.270000 0.222582 0
21.275000 0.208399 0
21.280000 0.187214 0
21.285000 0.160611 0
21.290000 0.130463 0
21.295000 0.098693 0
21.300000 0.066986 0
21.305000 0.036398 0
21.310000 0.006731 0
21.315000 -0.024217 0
21.320000 -0.060808 0
21.325000 -0.107633 0
21.330000 -0.164646 0
21.335000 -0.221392 0
21.340000 -0.255137 2
21.345000 -0.235587 0
21.350000 -0.133313 0
21.355000 0.070890 0
21.360000 0.371981 0
21.365000 0.721419 0
21.370000 1.021875 0
21.375000 1.161591 3
21.380000 1.080147 0
21.385000 0.807172 0
21.390000 0.441059 0
21.395000 0.089774 0
21.400000 -0.175080 0
21.405000 -0.326476 0
21.410000 -0.369921 4
21.415000 -0.332060 0
21.420000 -0.250876 0
21.425000 -0.162482 0
21.430000 -0.089138 0
21.435000 -0.036411 0
21.440000 0.000718 0
21.445000 0.029829 0
21.450000 0.056500 0
21.455000 0.083533 0
21.460000 0.111870 0
21.465000 0.141543 0
21.470000 0.172201 0
21.475000 0.203321 0
21.480000 0.234280 0
21.485000 0.264391 0
21.490000 0.292922 0
21.495000 0.319133 0
21.500000 0.342300 0
21.505000 0.361752 0
21.510000 0.376902 0
21.515000 0.387274 0
21.520000 0.392527 5
21.525000 0.392477 0
21.530000 0.387103 0
21.535000 0.376549 0
21.540000 0.361120 0
21.545000 0.341262 0
21.550000 0.317545 0
21.555000 0.290633 0
21.560000 0.261253 0
21.565000 0.230162 0
21.570000 0.198114 0
21.575000 0.165834 0
21.580000 0.133987 0
21.585000 0.103159 0
21.590000 0.073846 0
21.595000 0.046438 0
21.600000 0.021224 0
21.605000 -0.001612 0
21.610000 -0.021977 0
21.615000 -0.039865 0
21.620000 -0.055339 0
21.625000 -0.068522 0
21.630000 -0.079574 0
21.635000 -0.088688 0
21.640000 -0.096071 0
21.645000 -0.101935 0
21.650000 -0.106488 0
21.655000 -0.109927 0
21.660000 -0.112437 0
21.665000 -0.114180 0
21.670000 -0.115302 0
21.675000 -0.114646 0
21.680000 -0.113692 0
21.685000 -0.112742 0
21.690000 -0.111798 0
21.695000 -0.110858 0
21.700000 -0.109922 0
21.705000 -0.108991 0
21.710000 -0.108063 0
21.715000 -0.107138 0
21.720000 -0.106212 0
21.725000 -0.105283 0
21.730000 -0.104342 0
21.735000 -0.103375 0
21.740000 -0.102361 0
21.745000 -0.101262 0
21.750000 -0.100018 0
21.755000 -0.098539 0
21.760000 -0.096692 0
21.765000 -0.094287 0
21.770000 -0.091069 0
21.775000 -0.086708 0
21.780000 -0.080796 0
21.785000 -0.072866 0
21.790000 -0.062411 0
21.795000 -0.048942 0
21.800000 -0.032050 0
21.805000 -0.011493 0
21.810000 0.012715 0
21.815000 0.040221 0
21.820000 0.070276 0
21.825000 0.101721 0
21.830000 0.133029 0
21.835000 0.162410 0
21.840000 0.187971 0
21.845000 0.207913 0
21.850000 0.220742 0
21.855000 0.225451 1
21.860000 0.221652 0
21.865000 0.209630 0
21.870000 0.190306 0
21.875000 0.165120 0
21.880000 0.135853 0
21.885000 0.104408 0
21.890000 0.072548 0
21.895000 0.041562 0
21.900000 0.011743 0
21.905000 -0.018339 0
21.910000 -0.052315 0
21.915000 -0.095029 0
21.920000 -0.148795 0
21.925000 -0.207671 0
21.930000 -0.253695 0
21.935000 -0.259077 2
21.940000 -0.193507 0
21.945000 -0.032753 0
21.950000 0.230326 0
21.955000 0.568278 0
21.960000 0.904666 0
21.965000 1.128885 0
21.970000 1.150220 3
21.975000 0.956029 0
21.980000 0.619239 0
21.985000 0.248980 0
21.990000 -0.064167 0
21.995000 -0.273233 0
22.000000 -0.369411 0
22.005000 -0.369422 4
22.010000 -0.306135 0
22.015000 -0.217713 0
22.020000 -0.134359 0
22.025000 -0.070213 0
22.030000 -0.025107 0
22.035000 0.007807 0
22.040000 0.035433 0
22.045000 0.062067 0
22.050000 0.089589 0
22.055000 0.118483 0
22.060000 0.148596 0
22.065000 0.179508 0
22.070000 0.210665 0
22.075000 0.241431 0
22.080000 0.271115 0
22.085000 0.298994 0
22.090000 0.324343 0
22.095000 0.346467 0
22.100000 0.364730 0
22.105000 0.378583 0
22.110000 0.387597 0
22.115000 0.391478 5
22.120000 0.390088 0
22.125000 0.383446 0
22.130000 0.371733 0
22.135000 0.355282 0
22.140000 0.334562 0
22.145000 0.310151 0
22.150000 0.282716 0
22.155000 0.252979 0
22.160000 0.221683 0
22.165000 0.189565 0
22.170000 0.157327 0
22.175000 0.125611 0
22.180000 0.094980 0
22.185000 0.065904 0
22.190000 0.038756 0
22.195000 0.013806 0
22.200000 -0.008774 0
22.205000 -0.028904 0
22.210000 -0.046583 0
22.215000 -0.061879 0
22.220000 -0.074912 0
22.225000 -0.085846 0
22.230000 -0.094867 0
22.235000 -0.102180 0
22.240000 -0.107994 0
22.245000 -0.112511 0
22.250000 -0.115926 0
22.255000 -0.118418 0
22.260000 -0.120149 0
22.265000 -0.121260 0
22.270000 -0.120577 0
22.275000 -0.119594 0
22.280000 -0.118615 0
22.285000 -0.117641 0
22.290000 -0.116672 0
22.295000 -0.115708 0
22.300000 -0.114747 0
22.305000 -0.113791 0
22.310000 -0.112837 0
22.315000 -0.111884 0
22.320000 -0.110928 0
22.325000 -0.109962 0
22.330000 -0.108974 0
22.335000 -0.107943 0
22.340000 -0.106837 0
22.345000 -0.105600 0
22.350000 -0.104152 0
22.355000 -0.102371 0
22.360000 -0.100084 0
22.365000 -0.097058 0
22.370000 -0.092984 0
22.375000 -0.087483 0
22.380000 -0.080108 0
22.385000 -0.070370 0
22.390000 -0.057777 0
22.395000 -0.041900 0
22.400000 -0.022444 0
22.405000 0.000663 0
22.410000 0.027187 0
22.415000 0.056521 0
22.420000 0.087662 0
22.425000 0.119227 0
22.430000 0.149539 0
22.435000 0.176755 0
22.440000 0.199054 0
22.445000 0.214833 0
22.450000 0.222900 1
22.455000 0.222619 0
22.460000 0.213998 0
22.465000 0.197685 0
22.470000 0.174893 0
22.475000 0.147246 0
22.480000 0.116583 0
22.485000 0.084732 0
22.490000 0.053227 0
22.495000 0.022905 0
22.500000 -0.006710 0
22.505000 -0.038091 0
22.510000 -0.075655 0
22.515000 -0.123608 0
22.520000 -0.181136 0
22.525000 -0.237167 0
22.530000 -0.269104 2
22.535000 -0.247580 0
22.540000 -0.144363 0
22.545000 0.058952 0
22.550000 0.357881 0
22.555000 0.707056 0
22.560000 1.014360 0
22.565000 1.170966 3
22.570000 1.111646 0
22.575000 0.856890 0
22.580000 0.496548 0
22.585000 0.136925 0
22.590000 -0.146144 0
22.595000 -0.319838 0
22.600000 -0.384458 4
22.605000 -0.362116 0
22.610000 -0.287923 0
22.615000 -0.198452 0
22.620000 -0.119463 0
22.625000 -0.060588 0
22.630000 -0.019196 0
22.635000 0.011929 0
22.640000 0.039062 0
22.645000 0.065804 0
22.650000 0.093614 0
22.655000 0.122786 0
22.660000 0.153098 0
22.665000 0.184105 0
22.670000 0.215246 0
22.675000 0.245885 0
22.680000 0.275337 0
22.685000 0.302888 0
22.690000 0.327830 0
22.695000 0.349486 0
22.700000 0.367240 0
22.705000 0.380568 0
22.710000 0.389061 0
22.715000 0.392446 5
22.720000 0.390602 0
22.725000 0.383562 0
22.730000 0.371516 0
22.735000 0.354800 0
22.740000 0.333881 0
22.745000 0.309334 0
22.750000 0.281816 0
22.755000 0.252037 0
22.760000 0.220727 0
22.765000 0.188611 0
22.770000 0.156377 0
22.775000 0.124656 0
22.780000 0.094003 0
22.785000 0.064881 0
22.790000 0.037660 0
22.795000 0.012608 0
22.800000 -0.010101 0
22.805000 -0.030383 0
22.810000 -0.048233 0
22.815000 -0.063712 0
22.820000 -0.076937 0
22.825000 -0.088062 0
22.830000 -0.097271 0
22.835000 -0.104764 0
22.840000 -0.110743 0
22.845000 -0.115411 0
22.850000 -0.118960 0
22.855000 -0.121568 0
22.860000 -0.123398 0
22.865000 -0.124590 0
22.870000 -0.125025 0
22.875000 -0.124019 0
22.880000 -0.123019 0
22.885000 -0.122023 0
22.890000 -0.121032 0
22.895000 -0.120046 0
22.900000 -0.119064 0
22.905000 -0.118087 0
22.910000 -0.117112 0
22.915000 -0.116139 0
22.920000 -0.115165 0
22.925000 -0.114183 0
22.930000 -0.113183 0
22.935000 -0.112148 0
22.940000 -0.111050 0
22.945000 -0.109843 0
22.950000 -0.108456 0
22.955000 -0.106785 0
22.960000 -0.104678 0
22.965000 -0.101926 0
22.970000 -0.098255 0
22.975000 -0.093316 0
22.980000 -0.086694 0
22.985000 -0.077920 0
22.990000 -0.066506 0
22.995000 -0.051999 0
23.000000 -0.034043 0
23.005000 -0.012467 0
23.010000 0.012636 0
23.015000 0.040836 0
23.020000 0.071320 0
23.025000 0.102893 0
23.030000 0.134026 0
23.035000 0.162967 0
23.040000 0.187894 0
23.045000 0.207101 0
23.050000 0.219195 0
23.055000 0.223261 1
23.060000 0.218975 0
23.065000 0.206649 0
23.070000 0.187195 0
23.075000 0.162009 0
23.080000 0.132809 0
23.085000 0.101426 0
23.090000 0.069571 0
23.095000 0.038521 0
23.100000 0.008654 0
23.105000 -0.021223 0
23.110000 -0.054383 0
23.115000 -0.095494 0
23.120000 -0.147503 0
23.125000 -0.206395 0
23.130000 -0.257057 0
23.135000 -0.274168 2
23.140000 -0.228344 0
23.145000 -0.094007 0
23.150000 0.141435 0
23.155000 0.462852 0
23.160000 0.810992 0
23.165000 1.085496 0
23.170000 1.185130 3
23.175000 1.066812 0
23.180000 0.773280 0
23.185000 0.403475 0
23.190000 0.057806 0
23.195000 -0.199755 0
23.200000 -0.346137 0
23.205000 -0.387704 4
23.210000 -0.350131 0
23.215000 -0.269574 0
23.220000 -0.180710 0
23.225000 -0.105645 0
23.230000 -0.050796 0
23.235000 -0.012024 0
23.240000 0.017930 0
23.245000 0.044791 0
23.250000 0.071656 0
23.255000 0.099693 0
23.260000 0.129070 0
23.265000 0.159518 0
23.270000 0.190575 0
23.275000 0.221675 0
23.280000 0.252180 0
23.285000 0.281409 0
23.290000 0.308656 0
23.295000 0.333224 0
23.300000 0.354451 0
23.305000 0.371737 0
23.310000 0.384576 0
23.315000 0.392577 0
23.320000 0.395486 5
23.325000 0.393195 0
23.330000 0.385750 0
23.335000 0.373351 0
23.340000 0.356339 0
23.345000 0.335183 0
23.350000 0.310456 0
23.355000 0.282811 0
23.360000 0.252949 0
23.365000 0.221593 0
23.370000 0.189457 0
23.375000 0.157219 0
23.380000 0.125502 0
23.385000 0.094852 0
23.390000 0.065726 0
23.395000 0.038488 0
23.400000 0.013405 0
23.405000 -0.009351 0
23.410000 -0.029696 0
23.415000 -0.047623 0
23.420000 -0.063191 0
23.425000 -0.076512 0
23.430000 -0.087738 0
23.435000 -0.097050 0
23.440000 -0.104644 0
23.445000 -0.110720 0
23.450000 -0.115479 0
23.455000 -0.119111 0
23.460000 -0.121794 0
23.465000 -0.123689 0
23.470000 -0.124938 0
23.475000 -0.125413 0
23.480000 -0.124405 0
23.485000 -0.123402 0
23.490000 -0.122404 0
23.495000 -0.121412 0
23.500000 -0.120424 0
23.505000 -0.119440 0
23.510000 -0.118461 0
23.515000 -0.117485 0
23.520000 -0.116511 0
23.525000 -0.115536 0
23.530000 -0.114555 0
23.535000 -0.113558 0
23.540000 -0.112531 0
23.545000 -0.111448 0
23.550000 -0.110267 0
23.555000 -0.108924 0
23.560000 -0.107325 0
23.565000 -0.105329 0
23.570000 -0.102746 0
23.575000 -0.099319 0
23.580000 -0.094721 0
23.585000 -0.088558 0
23.590000 -0.080376 0
23.595000 -0.069696 0
23.600000 -0.056053 0
23.605000 -0.039065 0
23.610000 -0.018505 0
23.615000 0.005617 0
23.620000 0.032977 0
23.625000 0.062884 0
23.630000 0.094269 0
23.635000 0.125714 0
23.640000 0.155542 0
23.645000 0.181957 0
23.650000 0.203216 0
23.655000 0.217822 0
23.660000 0.224696 1
23.665000 0.223311 0
23.670000 0.213757 0
23.675000 0.196731 0
23.680000 0.173458 0
23.685000 0.145539 0
23.690000 0.114766 0
23.695000 0.082904 0
23.700000 0.051425 0
23.705000 0.021121 0
23.710000 -0.008480 0
23.715000 -0.039760 0
23.720000 -0.076979 0
23.725000 -0.124312 0
23.730000 -0.181392 0
23.735000 -0.238273 0
23.740000 -0.273857 2
23.745000 -0.259961 0
23.750000 -0.168657 0
23.755000 0.019741 0
23.760000 0.305213 0
23.765000 0.651147 0
23.770000 0.975130 0
23.775000 1.170460 3
23.780000 1.159936 0
23.785000 0.943757 0
23.790000 0.598390 0
23.795000 0.229775 0
23.800000 -0.077650 0
23.805000 -0.281338 0
23.810000 -0.374275 4
23.815000 -0.373228 0
23.820000 -0.310106 0
23.825000 -0.221814 0
23.830000 -0.137841 0
23.835000 -0.072480 0
23.840000 -0.026157 0
23.845000 0.007549 0
23.850000 0.035476 0
23.855000 0.062071 0
23.860000 0.089390 0
23.865000 0.118037 0
23.870000 0.147932 0
23.875000 0.178699 0
23.880000 0.209826 0
23.885000 0.240713 0
23.890000 0.270703 0
23.895000 0.299103 0
23.900000 0.325212 0
23.905000 0.348348 0
23.910000 0.367875 0
23.915000 0.383235 0
23.920000 0.393972 0
23.925000 0.399755 0
23.930000 0.400392 5
23.935000 0.395843 0
23.940000 0.386219 0
23.945000 0.371782 0
23.950000 0.352927 0
23.955000 0.330168 0
23.960000 0.304112 0
23.965000 0.275433 0
23.970000 0.244841 0
23.975000 0.213056 0
23.980000 0.180776 0
23.985000 0.148657 0
23.990000 0.117288 0
23.995000 0.087179 0
24.000000 0.058749 0
24.005000 0.032320 0
24.010000 0.008120 0
24.015000 -0.013715 0
24.020000 -0.033133 0
24.025000 -0.050153 0
24.030000 -0.064858 0
24.035000 -0.077375 0
24.040000 -0.087869 0
24.045000 -0.096525 0
24.050000 -0.103542 0
24.055000 -0.109120 0
24.060000 -0.113457 0
24.065000 -0.116736 0
24.070000 -0.119130 0
24.075000 -0.120791 0
24.080000 -0.121855 0
24.085000 -0.121163 0
24.090000 -0.120176 0
24.095000 -0.119195 0
24.100000 -0.118218 0
24.105000 -0.117246 0
24.110000 -0.116279 0
24.115000 -0.115316 0
24.120000 -0.114357 0
24.125000 -0.113401 0
24.130000 -0.112445 0
24.135000 -0.111488 0
24.140000 -0.110521 0
24.145000 -0.109535 0
24.150000 -0.108512 0
24.155000 -0.107420 0
24.160000 -0.106213 0
24.165000 -0.104819 0
24.170000 -0.103128 0
24.175000 -0.100988 0
24.180000 -0.098188 0
24.185000 -0.094452 0
24.190000 -0.089432 0
24.195000 -0.082716 0
24.200000 -0.073840 0
24.205000 -0.062328 0
24.210000 -0.047733 0
24.215000 -0.029712 0
24.220000 -0.008103 0
24.225000 0.017000 0
24.230000 0.045171 0
24.235000 0.075613 0
24.240000 0.107155 0
24.245000 0.138300 0
24.250000 0.167330 0
24.255000 0.192453 0
24.260000 0.211985 0
24.265000 0.224535 0
24.270000 0.229168 1
24.275000 0.225523 0
24.280000 0.213858 0
24.285000 0.195019 0
24.290000 0.170339 0
24.295000 0.141482 0
24.300000 0.110247 0
24.305000 0.078344 0
24.310000 0.047108 0
24.315000 0.017073 0
24.320000 -0.012655 0
24.325000 -0.044967 0
24.330000 -0.084366 0
24.335000 -0.134393 0
24.340000 -0.192781 0
24.345000 -0.246912 0
24.350000 -0.273561 2
24.355000 -0.244041 0
24.360000 -0.131707 0
24.365000 0.079777 0
24.370000 0.383667 0
24.375000 0.733316 0
24.380000 1.038056 0
24.385000 1.192895 3
24.390000 1.134556 0
24.395000 0.881493 0
24.400000 0.521934 0
24.405000 0.161067 0
24.410000 -0.125223 0
24.415000 -0.303328 0
24.420000 -0.372551 4
24.425000 -0.353943 0
24.430000 -0.281754 0
24.435000 -0.192371 0
24.440000 -0.112179 0
24.445000 -0.051778 0
24.450000 -0.009236 0
24.455000 0.022463 0
24.460000 0.049716 0
24.465000 0.076334 0
24.470000 0.103929 0
24.475000 0.132877 0
24.480000 0.162999 0
24.485000 0.193875 0
24.490000 0.224964 0
24.495000 0.255648 0
24.500000 0.285253 0
24.505000 0.313081 0
24.510000 0.338429 0
24.515000 0.360621 0
24.520000 0.379039 0
24.525000 0.393146 0
24.530000 0.402516 0
24.535000 0.406855 5
24.540000 0.406011 0
24.545000 0.399987 0
24.550000 0.388937 0
24.555000 0.373163 0
24.560000 0.353098 0
24.565000 0.329289 0
24.570000 0.302365 0
24.575000 0.273019 0
24.580000 0.241968 0
24.585000 0.209932 0
24.590000 0.177602 0
24.595000 0.145618 0
24.600000 0.114549 0
24.605000 0.084880 0
24.610000 0.057002 0
24.615000 0.031210 0
24.620000 0.007703 0
24.625000 -0.013409 0
24.630000 -0.032098 0
24.635000 -0.048405 0
24.640000 -0.062427 0
24.645000 -0.074308 0
24.650000 -0.084218 0
24.655000 -0.092351 0
24.660000 -0.098908 0
24.665000 -0.104088 0
24.670000 -0.108087 0
24.675000 -0.111085 0
24.680000 -0.113248 0
24.685000 -0.114726 0
24.690000 -0.115647 0
24.695000 -0.114960 0
24.700000 -0.114005 0
24.705000 -0.113054 0
24.710000 -0.112108 0
24.715000 -0.111166 0
24.720000 -0.110229 0
24.725000 -0.109296 0
24.730000 -0.108366 0
24.735000 -0.107439 0
24.740000 -0.106511 0
24.745000 -0.105579 0
24.750000 -0.104635 0
24.755000 -0.103665 0
24.760000 -0.102648 0
24.765000 -0.101548 0
24.770000 -0.100308 0
24.775000 -0.098844 0
24.780000 -0.097032 0
24.785000 -0.094697 0
24.790000 -0.091603 0
24.795000 -0.087446 0
24.800000 -0.081851 0
24.805000 -0.074381 0
24.810000 -0.064561 0
24.815000 -0.051916 0
24.820000 -0.036032 0
24.825000 -0.016624 0
24.830000 0.006378 0
24.835000 0.032753 0
24.840000 0.061930 0
24.845000 0.092953 0
24.850000 0.124506 0
24.855000 0.154982 0
24.860000 0.182604 0
24.865000 0.205594 0
24.870000 0.222360 0
24.875000 0.231679 0
24.880000 0.232840 1
24.885000 0.225740 0
24.890000 0.210892 0
24.895000 0.189369 0
24.900000 0.162672 0
24.905000 0.132556 0
24.910000 0.100816 0
24.915000 0.069051 0
24.920000 0.038317 0
24.925000 0.008613 0
24.930000 -0.021793 0
24.935000 -0.056661 0
24.940000 -0.100565 0
24.945000 -0.155152 0
24.950000 -0.213914 0
24.955000 -0.259101 0
24.960000 -0.264062 2
24.965000 -0.199974 0
24.970000 -0.043591 0
24.975000 0.212949 0
24.980000 0.546476 0
24.985000 0.888664 0
24.990000 1.135879 0
24.995000 1.194950 3
25.000000 1.038116 0
25.005000 0.721258 0
25.010000 0.349048 0
25.015000 0.017577 0
25.020000 -0.217442 0
25.025000 -0.339978 0
25.030000 -0.361395 4
25.035000 -0.310850 0
25.040000 -0.225711 0
25.045000 -0.138864 0
25.050000 -0.068789 0
25.055000 -0.018690 0
25.060000 0.017048 0
25.065000 0.045649 0
25.070000 0.072206 0
25.075000 0.099230 0
25.080000 0.127550 0
25.085000 0.157172 0
25.090000 0.187752 0
25.095000 0.218789 0
25.100000 0.249686 0
25.105000 0.279781 0
25.110000 0.308374 0
25.115000 0.334754 0
25.120000 0.358221 0
25.125000 0.378123 0
25.130000 0.393883 0
25.135000 0.405024 0
25.140000 0.411197 0
25.145000 0.412195 5
25.150000 0.407962 0
25.155000 0.398601 0
25.160000 0.384368 0
25.165000 0.365658 0
25.170000 0.342987 0
25.175000 0.316968 0
25.180000 0.288284 0
25.185000 0.257656 0
25.190000 0.225816 0
25.195000 0.193473 0
25.200000 0.161293 0
25.205000 0.129876 0
25.210000 0.099736 0
25.215000 0.071298 0
25.220000 0.044887 0
25.225000 0.020730 0
25.230000 -0.001039 0
25.235000 -0.020371 0
25.240000 -0.037291 0
25.245000 -0.051885 0
25.250000 -0.064287 0
25.255000 -0.074666 0
25.260000 -0.083213 0
25.265000 -0.090129 0
25.270000 -0.095618 0
25.275000 -0.099879 0
25.280000 -0.103098 0
25.285000 -0.105446 0
25.290000 -0.107078 0
25.295000 -0.108127 0
25.300000 -0.107491 0
25.305000 -0.106572 0
25.310000 -0.105658 0
25.315000 -0.104749 0
25.320000 -0.103844 0
25.325000 -0.102944 0
25.330000 -0.102047 0
25.335000 -0.101154 0
25.340000 -0.100263 0
25.345000 -0.099372 0
25.350000 -0.098477 0
25.355000 -0.097570 0
25.360000 -0.096640 0
25.365000 -0.095664 0
25.370000 -0.094608 0
25.375000 -0.093418 0
25.380000 -0.092010 0
25.385000 -0.090262 0
25.390000 -0.088002 0
25.395000 -0.084995 0
25.400000 -0.080937 0
25.405000 -0.075452 0
25.410000 -0.068102 0
25.415000 -0.058405 0
25.420000 -0.045882 0
25.425000 -0.030108 0
25.430000 -0.010793 0
25.435000 0.012139 0
25.440000 0.038469 0
25.445000 0.067618 0
25.450000 0.098621 0
25.455000 0.130145 0
25.460000 0.160557 0
25.465000 0.188060 0
25.470000 0.210857 0
25.475000 0.227346 0
25.480000 0.236304 0
25.485000 0.237038 1
25.490000 0.229473 0
25.495000 0.214163 0
25.500000 0.192223 0
25.505000 0.165194 0
25.510000 0.134863 0
25.515000 0.103040 0
25.520000 0.071311 0
25.525000 0.040673 0
25.530000 0.010983 0
25.535000 -0.019722 0
25.540000 -0.055438 0
25.545000 -0.100686 0
25.550000 -0.156412 0
25.555000 -0.214660 0
25.560000 -0.256013 2
25.565000 -0.252744 0
25.570000 -0.176020 0
25.575000 -0.003922 0
25.580000 0.267758 0
25.585000 0.608769 0
25.590000 0.942253 0
25.595000 1.161067 0
25.600000 1.179396 3
25.605000 0.985178 0
25.610000 0.648393 0
25.615000 0.277932 0
25.620000 -0.035717 0
25.625000 -0.245517 0
25.630000 -0.342520 0
25.635000 -0.343280 4
25.640000 -0.280507 0
25.645000 -0.192292 0
25.650000 -0.108904 0
25.655000 -0.044633 0
25.660000 0.000556 0
25.665000 0.033462 0
25.670000 0.061000 0
25.675000 0.087500 0
25.680000 0.114870 0
25.685000 0.143609 0
25.690000 0.173572 0
25.695000 0.204344 0
25.700000 0.235375 0
25.705000 0.266032 0
25.710000 0.295625 0
25.715000 0.323434 0
25.720000 0.348737 0
25.725000 0.370837 0
25.730000 0.389097 0
25.735000 0.402970 0
25.740000 0.412020 0
25.745000 0.415952 5
25.750000 0.414620 0
25.755000 0.408040 0
25.760000 0.396387 0
25.765000 0.379988 0
25.770000 0.359303 0
25.775000 0.334909 0
25.780000 0.307467 0
25.785000 0.277695 0
25.790000 0.246334 0
25.795000 0.214122 0
25.800000 0.181760 0
25.805000 0.149891 0
25.810000 0.119083 0
25.815000 0.089808 0
25.820000 0.062443 0
25.825000 0.037263 0
25.830000 0.014444 0
25.835000 -0.005929 0
25.840000 -0.023851 0
25.845000 -0.039387 0
25.850000 -0.052655 0
25.855000 -0.063814 0
25.860000 -0.073051 0
25.865000 -0.080569 0
25.870000 -0.086575 0
25.875000 -0.091273 0
25.880000 -0.094859 0
25.885000 -0.097510 0
25.890000 -0.099391 0
25.895000 -0.100643 0
25.900000 -0.101154 0
25.905000 -0.100267 0
25.910000 -0.099385 0
25.915000 -0.098507 0
25.920000 -0.097633 0
25.925000 -0.096764 0
25.930000 -0.095898 0
25.935000 -0.095036 0
25.940000 -0.094176 0
25.945000 -0.093317 0
25.950000 -0.092454 0
25.955000 -0.091582 0
25.960000 -0.090688 0
25.965000 -0.089754 0
25.970000 -0.088746 0
25.975000 -0.087614 0
25.980000 -0.086279 0
25.985000 -0.084624 0
25.990000 -0.082481 0
25.995000 -0.079622 0
26.000000 -0.075749 0
26.005000 -0.070487 0
26.010000 -0.063398 0
26.015000 -0.053995 0
26.020000 -0.041787 0
26.025000 -0.026335 0
26.030000 -0.007327 0
26.035000 0.015332 0
26.040000 0.041444 0
26.045000 0.070444 0
26.050000 0.101370 0
26.055000 0.132881 0
26.060000 0.163327 0
26.065000 0.190880 0
26.070000 0.213712 0
26.075000 0.230191 0
26.080000 0.239072 0
26.085000 0.239655 1
26.090000 0.231874 0
26.095000 0.216307 0
26.100000 0.194105 0
26.105000 0.166850 0
26.110000 0.136365 0
26.115000 0.104486 0
26.120000 0.072797 0
26.125000 0.042245 0
26.130000 0.012553 0
26.135000 -0.018478 0
26.140000 -0.055076 0
26.145000 -0.101681 0
26.150000 -0.158431 0
26.155000 -0.215776 0
26.160000 -0.252496 2
26.165000 -0.239740 0
26.170000 -0.148731 0
26.175000 0.040785 0
26.180000 0.328386 0
26.185000 0.675169 0
26.190000 0.994715 0
26.195000 1.177506 3
26.200000 1.147726 0
26.205000 0.912113 0
26.210000 0.557359 0
26.215000 0.194192 0
26.220000 -0.095407 0
26.225000 -0.274723 0
26.230000 -0.342672 4
26.235000 -0.321531 0
26.240000 -0.247465 0
26.245000 -0.158234 0
26.250000 -0.080135 0
26.255000 -0.022551 0
26.260000 0.017677 0
26.265000 0.048064 0
26.270000 0.074868 0
26.275000 0.101535 0
26.280000 0.129379 0
26.285000 0.158599 0
26.290000 0.188916 0
26.295000 0.219846 0
26.300000 0.250790 0
26.305000 0.281077 0
26.310000 0.309989 0
26.315000 0.336787 0
26.320000 0.360743 0
26.325000 0.381170 0
26.330000 0.397457 0
26.335000 0.409095 0
26.340000 0.415707 0
26.345000 0.417062 5
26.350000 0.413093 0
26.355000 0.403896 0
26.360000 0.389729 0
26.365000 0.370998 0
26.370000 0.348239 0
26.375000 0.322087 0
26.380000 0.293251 0
26.385000 0.262480 0
26.390000 0.230530 0
26.395000 0.198134 0
26.400000 0.165976 0
26.405000 0.134665 0
26.410000 0.104724 0
26.415000 0.076576 0
26.420000 0.050540 0
26.425000 0.026831 0
26.430000 0.005569 0
26.435000 -0.013214 0
26.440000 -0.029560 0
26.445000 -0.043573 0
26.450000 -0.055403 0
26.455000 -0.065233 0
26.460000 -0.073265 0
26.465000 -0.079711 0
26.470000 -0.084780 0
26.475000 -0.088672 0
26.480000 -0.091577 0
26.485000 -0.093663 0
26.490000 -0.095081 0
26.495000 -0.095710 0
26.500000 -0.094850 0
26.505000 -0.093995 0
26.510000 -0.093144 0
26.515000 -0.092297 0
26.520000 -0.091454 0
26.525000 -0.090615 0
26.530000 -0.089780 0
26.535000 -0.088946 0
26.540000 -0.088114 0
26.545000 -0.087278 0
26.550000 -0.086434 0
26.555000 -0.085570 0
26.560000 -0.084667 0
26.565000 -0.083695 0
26.570000 -0.082603 0
26.575000 -0.081314 0
26.580000 -0.079713 0
26.585000 -0.077632 0
26.590000 -0.074845 0
26.595000 -0.071050 0
26.600000 -0.065871 0
26.605000 -0.058861 0
26.610000 -0.049527 0
26.615000 -0.037368 0
26.620000 -0.021936 0
26.625000 -0.002914 0
26.630000 0.019794 0
26.635000 0.045978 0
26.640000 0.075052 0
26.645000 0.106022 0
26.650000 0.137503 0
26.655000 0.167802 0
26.660000 0.195052 0
26.665000 0.217397 0
26.670000 0.233202 0
26.675000 0.241244 1
26.680000 0.240874 0
26.685000 0.232098 0
26.690000 0.215581 0
26.695000 0.192562 0
26.700000 0.164697 0
26.705000 0.133861 0
26.710000 0.101902 0
26.715000 0.070357 0
26.720000 0.040017 0
26.725000 0.010286 0
26.730000 -0.021512 0
26.735000 -0.059963 0
26.740000 -0.109109 0
26.745000 -0.167304 0
26.750000 -0.222015 0
26.755000 -0.249168 2
26.760000 -0.218626 0
26.765000 -0.102473 0
26.770000 0.115724 0
26.775000 0.426453 0
26.780000 0.775989 0
26.785000 1.064847 0
26.790000 1.185442 3
26.795000 1.084047 0
26.800000 0.797069 0
26.805000 0.427801 0
26.810000 0.083237 0
26.815000 -0.169257 0
26.820000 -0.306826 0
26.825000 -0.338161 4
26.830000 -0.292312 0
26.835000 -0.208310 0
26.840000 -0.121317 0
26.845000 -0.051290 0
26.850000 -0.001688 0
26.855000 0.033468 0
26.860000 0.061709 0
26.865000 0.088174 0
26.870000 0.115282 0
26.875000 0.143758 0
26.880000 0.173531 0
26.885000 0.204201 0
26.890000 0.235214 0
26.895000 0.265924 0
26.900000 0.295621 0
26.905000 0.323561 0
26.910000 0.348995 0
26.915000 0.371200 0
26.920000 0.389514 0
26.925000 0.403367 0
26.930000 0.412309 0
26.935000 0.416037 5
26.940000 0.414407 0
26.945000 0.407442 0
26.950000 0.395337 0
26.955000 0.378442 0
26.960000 0.357249 0
26.965000 0.332366 0
26.970000 0.304489 0
26.975000 0.274366 0
26.980000 0.242767 0
26.985000 0.210450 0
26.990000 0.178129 0
26.995000 0.146455 0
27.000000 0.115990 0
27.005000 0.087201 0
27.010000 0.060445 0
27.015000 0.035976 0
27.020000 0.013946 0
27.025000 -0.005587 0
27.030000 -0.022644 0
27.035000 -0.037314 0
27.040000 -0.049737 0
27.045000 -0.060093 0
27.050000 -0.068582 0
27.055000 -0.075417 0
27.060000 -0.080812 0
27.065000 -0.084976 0
27.070000 -0.088101 0
27.075000 -0.090365 0
27.080000 -0.091925 0
27.085000 -0.092652 0
27.090000 -0.091808 0
27.095000 -0.090968 0
27.100000 -0.090132 0
27.105000 -0.089300 0
27.110000 -0.088472 0
27.115000 -0.087648 0
27.120000 -0.086827 0
27.125000 -0.086009 0
27.130000 -0.085192 0
27.135000 -0.084372 0
27.140000 -0.083544 0
27.145000 -0.082698 0
27.150000 -0.081814 0
27.155000 -0.080864 0
27.160000 -0.079798 0
27.165000 -0.078540 0
27.170000 -0.076975 0
27.175000 -0.074937 0
27.180000 -0.072200 0
27.185000 -0.068459 0
27.190000 -0.063334 0
27.195000 -0.056374 0
27.200000 -0.047077 0
27.205000 -0.034935 0
27.210000 -0.019490 0
27.215000 -0.000423 0
27.220000 0.022360 0
27.225000 0.048637 0
27.230000 0.077800 0
27.235000 0.108822 0
27.240000 0.140278 0
27.245000 0.170432 0
27.250000 0.197381 0
27.255000 0.219250 0
27.260000 0.234401 0
27.265000 0.241640 1
27.270000 0.240367 0
27.275000 0.230662 0
27.280000 0.213273 0
27.285000 0.189518 0
27.290000 0.161125 0
27.295000 0.130009 0
27.300000 0.098022 0
27.305000 0.066641 0
27.310000 0.036491 0
27.315000 0.006641 0
27.320000 -0.026039 0
27.325000 -0.066382 0
27.330000 -0.117824 0
27.335000 -0.176758 0
27.340000 -0.227775 0
27.345000 -0.244397 2
27.350000 -0.195759 0
27.355000 -0.055322 0
27.360000 0.188762 0
27.365000 0.516949 0
27.370000 0.861184 0
27.375000 1.112670 0
27.380000 1.171308 3
27.385000 1.007878 0
27.390000 0.684276 0
27.395000 0.312609 0
27.400000 -0.008399 0
27.405000 -0.225429 0
27.410000 -0.326895 0
27.415000 -0.329194 4
27.420000 -0.266292 0
27.425000 -0.177973 0
27.430000 -0.095459 0
27.435000 -0.032811 0
27.440000 0.010795 0
27.445000 0.042699 0
27.450000 0.069866 0
27.455000 0.096411 0
27.460000 0.124015 0
27.465000 0.153027 0
27.470000 0.183215 0
27.475000 0.214103 0
27.480000 0.245088 0
27.485000 0.275490 0
27.490000 0.304574 0
27.495000 0.331579 0
27.500000 0.355757 0
27.505000 0.376398 0
27.510000 0.392867 0
27.515000 0.404639 0
27.520000 0.411320 0
27.525000 0.412673 5
27.530000 0.408628 0
27.535000 0.399287 0
27.540000 0.384921 0
27.545000 0.365952 0
27.550000 0.342937 0
27.555000 0.316537 0
27.560000 0.287485 0
27.565000 0.256552 0
27.570000 0.224514 0
27.575000 0.192120 0
27.580000 0.160061 0
27.585000 0.128953 0
27.590000 0.099316 0
27.595000 0.071563 0
27.600000 0.046003 0
27.605000 0.022835 0
27.610000 0.002161 0
27.615000 -0.016004 0
27.620000 -0.031723 0
27.625000 -0.045115 0
27.630000 -0.056345 0
27.635000 -0.065609 0
27.640000 -0.073118 0
27.645000 -0.079089 0
27.650000 -0.083736 0
27.655000 -0.087261 0
27.660000 -0.089850 0
27.665000 -0.091670 0
27.670000 -0.092869 0
27.675000 -0.092319 0
27.680000 -0.091476 0
27.685000 -0.090637 0
27.690000 -0.089803 0
27.695000 -0.088973 0
27.700000 -0.088146 0
27.705000 -0.087324 0
27.710000 -0.086504 0
27.715000 -0.085685 0
27.720000 -0.084865 0
27.725000 -0.084040 0
27.730000 -0.083200 0
27.735000 -0.082330 0
27.740000 -0.081404 0
27.745000 -0.080379 0
27.750000 -0.079187 0
27.755000 -0.077727 0
27.760000 -0.075846 0
27.765000 -0.073335 0
27.770000 -0.069909 0
27.775000 -0.065205 0
27.780000 -0.058785 0
27.785000 -0.050152 0
27.790000 -0.038789 0
27.795000 -0.024212 0
27.800000 -0.006056 0
27.805000 0.015840 0
27.810000 0.041336 0
27.815000 0.069915 0
27.820000 0.100634 0
27.825000 0.132140 0
27.830000 0.162736 0
27.835000 0.190518 0
27.840000 0.213567 0
27.845000 0.230162 0
27.850000 0.238991 0
27.855000 0.239326 1
27.860000 0.231115 0
27.865000 0.214998 0
27.870000 0.192218 0
27.875000 0.164464 0
27.880000 0.133658 0
27.885000 0.101701 0
27.890000 0.070171 0
27.895000 0.039862 0
27.900000 0.010105 0
27.905000 -0.021951 0
27.910000 -0.061073 0
27.915000 -0.111183 0
27.920000 -0.169796 0
27.925000 -0.222782 0
27.930000 -0.244343 2
27.935000 -0.203336 0
27.940000 -0.072115 0
27.945000 0.163227 0
27.950000 0.486441 0
27.955000 0.832906 0
27.960000 1.094522 0
27.965000 1.167352 3
27.970000 1.016217 0
27.975000 0.698975 0
27.980000 0.327083 0
27.985000 0.001609 0
27.990000 -0.221355 0
27.995000 -0.328361 0
28.000000 -0.334729 4
28.005000 -0.273935 0
28.010000 -0.185955 0
28.015000 -0.102764 0
28.020000 -0.039231 0
28.025000 0.005012 0
28.030000 0.037231 0
28.035000 0.064499 0
28.040000 0.091050 0
28.045000 0.118634 0
28.050000 0.147630 0
28.055000 0.177814 0
28.060000 0.208713 0
28.065000 0.239728 0
28.070000 0.270173 0
28.075000 0.299313 0
28.080000 0.326387 0
28.085000 0.350640 0
28.090000 0.371359 0
28.095000 0.387908 0
28.100000 0.399755 0
28.105000 0.406506 0
28.110000 0.407919 5
28.115000 0.403924 0
28.120000 0.394622 0
28.125000 0.380285 0
28.130000 0.361336 0
28.135000 0.338335 0
28.140000 0.311944 0
28.145000 0.282900 0
28.150000 0.251976 0
28.155000 0.219952 0
28.160000 0.187579 0
28.165000 0.155550 0
28.170000 0.124482 0
28.175000 0.094894 0
28.180000 0.067200 0
28.185000 0.041708 0
28.190000 0.018616 0
28.195000 -0.001976 0
28.200000 -0.020057 0
28.205000 -0.035689 0
28.210000 -0.048994 0
28.215000 -0.060140 0
28.220000 -0.069323 0
28.225000 -0.076755 0
28.230000 -0.082655 0
28.235000 -0.087236 0
28.240000 -0.090702 0
28.245000 -0.093237 0
28.250000 -0.095010 0
28.255000 -0.096166 0
28.260000 -0.095596 0
28.265000 -0.094737 0
28.270000 -0.093882 0
28.275000 -0.093031 0
28.280000 -0.092185 0
28.285000 -0.091343 0
28.290000 -0.090504 0
28.295000 -0.089668 0
28.300000 -0.088833 0
28.305000 -0.087997 0
28.310000 -0.087155 0
28.315000 -0.086298 0
28.320000 -0.085409 0
28.325000 -0.084462 0
28.330000 -0.083411 0
28.335000 -0.082188 0
28.340000 -0.080685 0
28.345000 -0.078746 0
28.350000 -0.076155 0
28.355000 -0.072620 0
28.360000 -0.067770 0
28.365000 -0.061160 0
28.370000 -0.052286 0
28.375000 -0.040629 0
28.380000 -0.025712 0
28.385000 -0.007184 0
28.390000 0.015092 0
