0.000000 1.147088 3
0.005000 1.054035 0
0.010000 0.817550 0
0.015000 0.503325 0
0.020000 0.185110 0
0.025000 -0.081538 0
0.030000 -0.267945 0
0.035000 -0.367927 0
0.040000 -0.390885 4
0.045000 -0.356878 0
0.050000 -0.291544 0
0.055000 -0.219183 0
0.060000 -0.156378 0
0.065000 -0.109647 0
0.070000 -0.077671 0
0.075000 -0.055575 0
0.080000 -0.038418 0
0.085000 -0.022748 0
0.090000 -0.006669 0
0.095000 0.010678 0
0.100000 0.029605 0
0.105000 0.050177 0
0.110000 0.072335 0
0.115000 0.095950 0
0.120000 0.120829 0
0.125000 0.146721 0
0.130000 0.173315 0
0.135000 0.200251 0
0.140000 0.227117 0
0.145000 0.253468 0
0.150000 0.278828 0
0.155000 0.302710 0
0.160000 0.324628 0
0.165000 0.344115 0
0.170000 0.360736 0
0.175000 0.374107 0
0.180000 0.383909 0
0.185000 0.389900 0
0.190000 0.391922 5
0.195000 0.389913 0
0.200000 0.383905 0
0.205000 0.374025 0
0.210000 0.360490 0
0.215000 0.343600 0
0.220000 0.323725 0
0.225000 0.301290 0
0.230000 0.276765 0
0.235000 0.250644 0
0.240000 0.223428 0
0.245000 0.195614 0
0.250000 0.167674 0
0.255000 0.140048 0
0.260000 0.113131 0
0.265000 0.087263 0
0.270000 0.062730 0
0.275000 0.039754 0
0.280000 0.018500 0
0.285000 -0.000926 0
0.290000 -0.018473 0
0.295000 -0.034135 0
0.300000 -0.047950 0
0.305000 -0.059990 0
0.310000 -0.070353 0
0.315000 -0.079158 0
0.320000 -0.086537 0
0.325000 -0.092628 0
0.330000 -0.097572 0
0.335000 -0.101508 0
0.340000 -0.104569 0
0.345000 -0.106878 0
0.350000 -0.108549 0
0.355000 -0.109686 0
0.360000 -0.110379 0
0.365000 -0.110709 0
0.370000 -0.110744 0
0.375000 -0.110542 0
0.380000 -0.110152 0
0.385000 -0.109547 0
0.390000 -0.108538 0
0.395000 -0.107533 0
0.400000 -0.106534 0
0.405000 -0.105540 0
0.410000 -0.104551 0
0.415000 -0.103566 0
0.420000 -0.102587 0
0.425000 -0.101612 0
0.430000 -0.100643 0
0.435000 -0.099678 0
0.440000 -0.098718 0
0.445000 -0.097762 0
0.450000 -0.096812 0
0.455000 -0.095865 0
0.460000 -0.094923 0
0.465000 -0.093985 0
0.470000 -0.093049 0
0.475000 -0.092114 0
0.480000 -0.091177 0
0.485000 -0.090233 0
0.490000 -0.089275 0
0.495000 -0.088289 0
0.500000 -0.087256 0
0.505000 -0.086145 0
0.510000 -0.084913 0
0.515000 -0.083494 0
0.520000 -0.081800 0
0.525000 -0.079709 0
0.530000 -0.077063 0
0.535000 -0.073659 0
0.540000 -0.069254 0
0.545000 -0.063559 0
0.550000 -0.056257 0
0.555000 -0.047013 0
0.560000 -0.035507 0
0.565000 -0.021461 0
0.570000 -0.004686 0
0.575000 0.014871 0
0.580000 0.037089 0
0.585000 0.061632 0
0.590000 0.087929 0
0.595000 0.115177 0
0.600000 0.142362 0
0.605000 0.168315 0
0.610000 0.191790 0
0.615000 0.211561 0
0.620000 0.226528 0
0.625000 0.235815 0
0.630000 0.238859 1
0.635000 0.235464 0
0.640000 0.225824 0
0.645000 0.210502 0
0.650000 0.190379 0
0.655000 0.166567 0
0.660000 0.140311 0
0.665000 0.112876 0
0.670000 0.085449 0
0.675000 0.059037 0
0.680000 0.034351 0
0.685000 0.011643 0
0.690000 -0.009565 0
0.695000 -0.030829 0
0.700000 -0.054950 0
0.705000 -0.085442 0
0.710000 -0.124756 0
0.715000 -0.171404 0
0.720000 -0.217342 0
0.725000 -0.247534 2
0.730000 -0.242430 0
0.735000 -0.182108 0
0.740000 -0.050586 0
0.745000 0.158727 0
0.750000 0.434372 0
0.755000 0.737600 0
0.760000 1.002527 0
0.765000 1.154899 3
0.770000 1.143250 0
0.775000 0.967444 0
0.780000 0.679185 0
0.785000 0.354301 0
0.790000 0.060160 0
0.795000 -0.161988 0
0.800000 -0.297027 0
0.805000 -0.348776 4
0.810000 -0.333982 0
0.815000 -0.277440 0
0.820000 -0.205409 0
0.825000 -0.138246 0
0.830000 -0.086158 0
0.835000 -0.050046 0
0.840000 -0.025630 0
0.845000 -0.007612 0
0.850000 0.008055 0
0.855000 0.023729 0
0.860000 0.040525 0
0.865000 0.058874 0
0.870000 0.078886 0
0.875000 0.100528 0
0.880000 0.123681 0
0.885000 0.148160 0
0.890000 0.173721 0
0.895000 0.200058 0
0.900000 0.226808 0
0.905000 0.253560 0
0.910000 0.279860 0
0.915000 0.305227 0
0.920000 0.329160 0
0.925000 0.351162 0
0.930000 0.370751 0
0.935000 0.387477 0
0.940000 0.400943 0
0.945000 0.410816 0
0.950000 0.416843 0
0.955000 0.418859 5
0.960000 0.416796 0
0.965000 0.410685 0
0.970000 0.400656 0
0.975000 0.386931 0
0.980000 0.369817 0
0.985000 0.349694 0
0.990000 0.327003 0
0.995000 0.302225 0
1.000000 0.275865 0
1.005000 0.248439 0
1.010000 0.220452 0
1.015000 0.192388 0
1.020000 0.164690 0
1.025000 0.137756 0
1.030000 0.111929 0
1.035000 0.087491 0
1.040000 0.064661 0
1.045000 0.043596 0
1.050000 0.024394 0
1.055000 0.007100 0
1.060000 -0.008293 0
1.065000 -0.021830 0
1.070000 -0.033593 0
1.075000 -0.043687 0
1.080000 -0.052238 0
1.085000 -0.059384 0
1.090000 -0.065267 0
1.095000 -0.070032 0
1.100000 -0.073819 0
1.105000 -0.076761 0
1.110000 -0.078982 0
1.115000 -0.080594 0
1.120000 -0.081700 0
1.125000 -0.082388 0
1.130000 -0.082735 0
1.135000 -0.082807 0
1.140000 -0.082661 0
1.145000 -0.082342 0
1.150000 -0.081549 0
1.155000 -0.080679 0
1.160000 -0.079814 0
1.165000 -0.078953 0
1.170000 -0.078097 0
1.175000 -0.077244 0
1.180000 -0.076396 0
1.185000 -0.075552 0
1.190000 -0.074712 0
1.195000 -0.073877 0
1.200000 -0.073046 0
1.205000 -0.072218 0
1.210000 -0.071395 0
1.215000 -0.070576 0
1.220000 -0.069760 0
1.225000 -0.068947 0
1.230000 -0.068137 0
1.235000 -0.067328 0
1.240000 -0.066517 0
1.245000 -0.065701 0
1.250000 -0.064872 0
1.255000 -0.064020 0
1.260000 -0.063125 0
1.265000 -0.062162 0
1.270000 -0.061089 0
1.275000 -0.059846 0
1.280000 -0.058349 0
1.285000 -0.056482 0
1.290000 -0.054092 0
1.295000 -0.050982 0
1.300000 -0.046911 0
1.305000 -0.041592 0
1.310000 -0.034705 0
1.315000 -0.025908 0
1.320000 -0.014867 0
1.325000 -0.001290 0
1.330000 0.015031 0
1.335000 0.034173 0
1.340000 0.056031 0
1.345000 0.080285 0
1.350000 0.106373 0
1.355000 0.133488 0
1.360000 0.160603 0
1.365000 0.186529 0
1.370000 0.209991 0
1.375000 0.229731 0
1.380000 0.244618 0
1.385000 0.253756 0
1.390000 0.256570 1
1.395000 0.252870 0
1.400000 0.242865 0
1.405000 0.227149 0
1.410000 0.206640 0
1.415000 0.182490 0
1.420000 0.155977 0
1.425000 0.128398 0
1.430000 0.100951 0
1.435000 0.074638 0
1.440000 0.050137 0
1.445000 0.027619 0
1.450000 0.006444 0
1.455000 -0.015195 0
1.460000 -0.040366 0
1.465000 -0.072640 0
1.470000 -0.113956 0
1.475000 -0.161510 0
1.480000 -0.205362 0
1.485000 -0.228677 2
1.490000 -0.210927 0
1.495000 -0.132342 0
1.500000 0.021447 0
1.505000 0.252892 0
1.510000 0.542634 0
1.515000 0.841497 0
1.520000 1.076208 0
1.525000 1.175240 3
1.530000 1.102711 0
1.535000 0.878059 0
1.540000 0.567068 0
1.545000 0.247300 0
1.550000 -0.021700 0
1.555000 -0.209032 0
1.560000 -0.308019 0
1.565000 -0.328675 4
1.570000 -0.292305 0
1.575000 -0.225841 0
1.580000 -0.154213 0
1.585000 -0.093651 0
1.590000 -0.049703 0
1.595000 -0.020140 0
1.600000 0.000348 0
1.605000 0.016679 0
1.610000 0.032071 0
1.615000 0.048189 0
1.620000 0.065735 0
1.625000 0.084940 0
1.630000 0.105821 0
1.635000 0.128290 0
1.640000 0.152187 0
1.645000 0.177285 0
1.650000 0.203296 0
1.655000 0.229871 0
1.660000 0.256609 0
1.665000 0.283059 0
1.670000 0.308738 0
1.675000 0.333139 0
1.680000 0.355752 0
1.685000 0.376075 0
1.690000 0.393637 0
1.695000 0.408016 0
1.700000 0.418850 0
1.705000 0.425857 0
1.710000 0.428844 5
1.715000 0.427715 0
1.720000 0.422477 0
1.725000 0.413240 0
1.730000 0.400211 0
1.735000 0.383685 0
1.740000 0.364040 0
1.745000 0.341712 0
1.750000 0.317188 0
1.755000 0.290983 0
1.760000 0.263621 0
1.765000 0.235623 0
1.770000 0.207485 0
1.775000 0.179667 0
1.780000 0.152581 0
1.785000 0.126584 0
1.790000 0.101968 0
1.795000 0.078963 0
1.800000 0.057734 0
1.805000 0.038384 0
1.810000 0.020961 0
1.815000 0.005460 0
1.820000 -0.008164 0
1.825000 -0.019993 0
1.830000 -0.030137 0
1.835000 -0.038724 0
1.840000 -0.045894 0
1.845000 -0.051793 0
1.850000 -0.056569 0
1.855000 -0.060364 0
1.860000 -0.063314 0
1.865000 -0.065545 0
1.870000 -0.067171 0
1.875000 -0.068294 0
1.880000 -0.069004 0
1.885000 -0.069378 0
1.890000 -0.069483 0
1.895000 -0.069373 0
1.900000 -0.069096 0
1.905000 -0.068365 0
1.910000 -0.067561 0
1.915000 -0.066762 0
1.920000 -0.065966 0
1.925000 -0.065174 0
1.930000 -0.064386 0
1.935000 -0.063602 0
1.940000 -0.062822 0
1.945000 -0.062046 0
1.950000 -0.061273 0
1.955000 -0.060505 0
1.960000 -0.059740 0
1.965000 -0.058979 0
1.970000 -0.058221 0
1.975000 -0.057467 0
1.980000 -0.056715 0
1.985000 -0.055965 0
1.990000 -0.055215 0
1.995000 -0.054462 0
2.000000 -0.053700 0
2.005000 -0.052922 0
2.010000 -0.052113 0
2.015000 -0.051251 0
2.020000 -0.050304 0
2.025000 -0.049222 0
2.030000 -0.047933 0
2.035000 -0.046337 0
2.040000 -0.044300 0
2.045000 -0.041644 0
2.050000 -0.038146 0
2.055000 -0.033536 0
2.060000 -0.027502 0
2.065000 -0.019702 0
2.070000 -0.009787 0
2.075000 0.002565 0
2.080000 0.017613 0
2.085000 0.035499 0
2.090000 0.056201 0
2.095000 0.079489 0
2.100000 0.104890 0
2.105000 0.131676 0
2.110000 0.158880 0
2.115000 0.185341 0
2.120000 0.209775 0
2.125000 0.230878 0
2.130000 0.247439 0
2.135000 0.258450 0
2.140000 0.263211 1
2.145000 0.261403 0
2.150000 0.253119 0
2.155000 0.238856 0
2.160000 0.219471 0
2.165000 0.196086 0
2.170000 0.169988 0
2.175000 0.142505 0
2.180000 0.114896 0
2.185000 0.088237 0
2.190000 0.063303 0
2.195000 0.040391 0
2.200000 0.019027 0
2.205000 -0.002403 0
2.210000 -0.026845 0
2.215000 -0.057971 0
2.220000 -0.098172 0
2.225000 -0.145393 0
2.230000 -0.190404 0
2.235000 -0.216663 2
2.240000 -0.203374 0
2.245000 -0.130090 0
2.250000 0.018478 0
2.255000 0.245889 0
2.260000 0.533826 0
2.265000 0.833389 0
2.270000 1.070249 0
2.275000 1.170977 3
2.280000 1.099068 0
2.285000 0.874975 0
2.290000 0.564245 0
2.295000 0.244343 0
2.300000 -0.025124 0
2.305000 -0.213117 0
2.310000 -0.312814 0
2.315000 -0.334097 4
2.320000 -0.298153 0
2.325000 -0.231848 0
2.330000 -0.160138 0
2.335000 -0.099351 0
2.340000 -0.055153 0
2.345000 -0.025392 0
2.350000 -0.004781 0
2.355000 0.011610 0
2.360000 0.027024 0
2.365000 0.043145 0
2.370000 0.060685 0
2.375000 0.079880 0
2.380000 0.100751 0
2.385000 0.123210 0
2.390000 0.147100 0
2.395000 0.172196 0
2.400000 0.198211 0
2.405000 0.224799 0
2.410000 0.251560 0
2.415000 0.278046 0
2.420000 0.303774 0
2.425000 0.328239 0
2.430000 0.350932 0
2.435000 0.371351 0
2.440000 0.389026 0
2.445000 0.403532 0
2.450000 0.414506 0
2.455000 0.421664 0
2.460000 0.424810 5
2.465000 0.423845 0
2.470000 0.418773 0
2.475000 0.409700 0
2.480000 0.396827 0
2.485000 0.380449 0
2.490000 0.360938 0
2.495000 0.338728 0
2.500000 0.314304 0
2.505000 0.288178 0
2.510000 0.260874 0
2.515000 0.232913 0
2.520000 0.204791 0
2.525000 0.176969 0
2.530000 0.149861 0
2.535000 0.123825 0
2.540000 0.099157 0
2.545000 0.076089 0
2.550000 0.054789 0
2.555000 0.035364 0
2.560000 0.017861 0
2.565000 0.002282 0
2.570000 -0.011420 0
2.575000 -0.023324 0
2.580000 -0.033537 0
2.585000 -0.042187 0
2.590000 -0.049413 0
2.595000 -0.055361 0
2.600000 -0.060179 0
2.605000 -0.064008 0
2.610000 -0.066986 0
2.615000 -0.069238 0
2.620000 -0.070879 0
2.625000 -0.072011 0
2.630000 -0.072726 0
2.635000 -0.073101 0
2.640000 -0.073203 0
2.645000 -0.073087 0
2.650000 -0.072802 0
2.655000 -0.072054 0
2.660000 -0.071231 0
2.665000 -0.070413 0
2.670000 -0.069599 0
2.675000 -0.068789 0
2.680000 -0.067983 0
2.685000 -0.067181 0
2.690000 -0.066383 0
2.695000 -0.065589 0
2.700000 -0.064799 0
2.705000 -0.064013 0
2.710000 -0.063231 0
2.715000 -0.062452 0
2.720000 -0.061678 0
2.725000 -0.060906 0
2.730000 -0.060137 0
2.735000 -0.059370 0
2.740000 -0.058604 0
2.745000 -0.057834 0
2.750000 -0.057057 0
2.755000 -0.056264 0
2.760000 -0.055442 0
2.765000 -0.054570 0
2.770000 -0.053616 0
2.775000 -0.052532 0
2.780000 -0.051249 0
2.785000 -0.049670 0
2.790000 -0.047663 0
2.795000 -0.045056 0
2.800000 -0.041631 0
2.805000 -0.037121 0
2.810000 -0.031219 0
2.815000 -0.023585 0
2.820000 -0.013871 0
2.825000 -0.001751 0
2.830000 0.013042 0
2.835000 0.030663 0
2.840000 0.051108 0
2.845000 0.074171 0
2.850000 0.099402 0
2.855000 0.126103 0
2.860000 0.153329 0
2.865000 0.179938 0
2.870000 0.204657 0
2.875000 0.226182 0
2.880000 0.243287 0
2.885000 0.254941 0
2.890000 0.260408 1
2.895000 0.259326 0
2.900000 0.251742 0
2.905000 0.238113 0
2.910000 0.219256 0
2.915000 0.196268 0
2.920000 0.170421 0
2.925000 0.143042 0
2.930000 0.115401 0
2.935000 0.088600 0
2.940000 0.063454 0
2.945000 0.040325 0
2.950000 0.018852 0
2.955000 -0.002428 0
2.960000 -0.026308 0
2.965000 -0.056440 0
2.970000 -0.095520 0
2.975000 -0.142209 0
2.980000 -0.188238 0
2.985000 -0.217879 2
2.990000 -0.210654 0
2.995000 -0.145853 0
3.000000 -0.007274 0
3.005000 0.210604 0
3.010000 0.492879 0
3.015000 0.794763 0
3.020000 1.044260 0
3.025000 1.165895 3
3.030000 1.117303 0
3.035000 0.912076 0
3.040000 0.609690 0
3.045000 0.286401 0
3.050000 0.004733 0
3.055000 -0.200002 0
3.060000 -0.317229 0
3.065000 -0.353791 4
3.070000 -0.328434 0
3.075000 -0.266774 0
3.080000 -0.194365 0
3.085000 -0.129679 0
3.090000 -0.080854 0
3.095000 -0.047408 0
3.100000 -0.024600 0
3.105000 -0.007276 0
3.110000 0.008271 0
3.115000 0.024111 0
3.120000 0.041190 0
3.125000 0.059857 0
3.130000 0.080187 0
3.135000 0.102127 0
3.140000 0.125546 0
3.145000 0.150251 0
3.150000 0.175986 0
3.155000 0.202434 0
3.160000 0.229227 0
3.165000 0.255946 0
3.170000 0.282132 0
3.175000 0.307300 0
3.180000 0.330953 0
3.185000 0.352595 0
3.190000 0.371749 0
3.195000 0.387975 0
3.200000 0.400887 0
3.205000 0.410164 0
3.210000 0.415568 0
3.215000 0.416950 5
3.220000 0.414257 0
3.225000 0.407536 0
3.230000 0.396930 0
3.235000 0.382676 0
3.240000 0.365091 0
3.245000 0.344565 0
3.250000 0.321543 0
3.255000 0.296510 0
3.260000 0.269974 0
3.265000 0.242447 0
3.270000 0.214431 0
3.275000 0.186402 0
3.280000 0.158798 0
3.285000 0.132008 0
3.290000 0.106366 0
3.295000 0.082144 0
3.300000 0.059552 0
3.305000 0.038740 0
3.310000 0.019797 0
3.315000 0.002759 0
3.320000 -0.012382 0
3.325000 -0.025680 0
3.330000 -0.037217 0
3.335000 -0.047103 0
3.340000 -0.055464 0
3.345000 -0.062440 0
3.350000 -0.068171 0
3.355000 -0.072803 0
3.360000 -0.076475 0
3.365000 -0.079317 0
3.370000 -0.081452 0
3.375000 -0.082993 0
3.380000 -0.084037 0
3.385000 -0.084673 0
3.390000 -0.084977 0
3.395000 -0.085013 0
3.400000 -0.084835 0
3.405000 -0.084490 0
3.410000 -0.083684 0
3.415000 -0.082804 0
3.420000 -0.081928 0
3.425000 -0.081057 0
3.430000 -0.080189 0
3.435000 -0.079327 0
3.440000 -0.078468 0
3.445000 -0.077614 0
3.450000 -0.076764 0
3.455000 -0.075918 0
3.460000 -0.075077 0
3.465000 -0.074239 0
3.470000 -0.073406 0
3.475000 -0.072576 0
3.480000 -0.071750 0
3.485000 -0.070928 0
3.490000 -0.070108 0
3.495000 -0.069288 0
3.500000 -0.068467 0
3.505000 -0.067640 0
3.510000 -0.066800 0
3.515000 -0.065936 0
3.520000 -0.065028 0
3.525000 -0.064049 0
3.530000 -0.062957 0
3.535000 -0.061691 0
3.540000 -0.060165 0
3.545000 -0.058261 0
3.550000 -0.055825 0
3.555000 -0.052657 0
3.560000 -0.048514 0
3.565000 -0.043108 0
3.570000 -0.036118 0
3.575000 -0.027203 0
3.580000 -0.016031 0
3.585000 -0.002314 0
3.590000 0.014150 0
3.595000 0.033429 0
3.600000 0.055412 0
3.605000 0.079767 0
3.610000 0.105924 0
3.615000 0.133067 0
3.620000 0.160167 0
3.625000 0.186032 0
3.630000 0.209388 0
3.635000 0.228985 0
3.640000 0.243702 0
3.645000 0.252654 0
3.650000 0.255280 1
3.655000 0.251401 0
3.660000 0.241238 0
3.665000 0.225394 0
3.670000 0.204788 0
3.675000 0.180576 0
3.680000 0.154035 0
3.685000 0.126454 0
3.690000 0.099026 0
3.695000 0.072746 0
3.700000 0.048284 0
3.705000 0.025799 0
3.710000 0.004639 0
3.715000 -0.017010 0
3.720000 -0.042224 0
3.725000 -0.074558 0
3.730000 -0.115921 0
3.735000 -0.163481 0
3.740000 -0.207287 0
3.745000 -0.230534 2
3.750000 -0.212747 0
3.755000 -0.134220 0
3.760000 0.019388 0
3.765000 0.250561 0
3.770000 0.540106 0
3.775000 0.839149 0
3.780000 1.074721 0
3.785000 1.175336 3
3.790000 1.105926 0
3.795000 0.886397 0
3.800000 0.578489 0
3.805000 0.256670 0
3.810000 -0.019977 0
3.815000 -0.219012 0
3.820000 -0.331456 0
3.825000 -0.364777 4
3.830000 -0.337730 0
3.835000 -0.275507 0
3.840000 -0.203036 0
3.845000 -0.138293 0
3.850000 -0.089235 0
3.855000 -0.055453 0
3.860000 -0.032344 0
3.865000 -0.014836 0
3.870000 0.000774 0
3.875000 0.016587 0
3.880000 0.033582 0
3.885000 0.052132 0
3.890000 0.072325 0
3.895000 0.094118 0
3.900000 0.117393 0
3.905000 0.141965 0
3.910000 0.167592 0
3.915000 0.193975 0
3.920000 0.220759 0
3.925000 0.247542 0
3.930000 0.273882 0
3.935000 0.299309 0
3.940000 0.323338 0
3.945000 0.345481 0
3.950000 0.365267 0
3.955000 0.382256 0
3.960000 0.396056 0
3.965000 0.406336 0
3.970000 0.412841 0
3.975000 0.415399 5
3.980000 0.413933 0
3.985000 0.408459 0
3.990000 0.399089 0
3.995000 0.386025 0
4.000000 0.369553 0
4.005000 0.350032 0
4.010000 0.327880 0
4.015000 0.303558 0
4.020000 0.277558 0
4.025000 0.250380 0
4.030000 0.222521 0
4.035000 0.194460 0
4.040000 0.166642 0
4.045000 0.139468 0
4.050000 0.113290 0
4.055000 0.088401 0
4.060000 0.065036 0
4.065000 0.043367 0
4.070000 0.023512 0
4.075000 0.005531 0
4.080000 -0.010565 0
4.085000 -0.024804 0
4.090000 -0.037254 0
4.095000 -0.048009 0
4.100000 -0.057183 0
4.105000 -0.064908 0
4.110000 -0.071320 0
4.115000 -0.076560 0
4.120000 -0.080768 0
4.125000 -0.084077 0
4.130000 -0.086613 0
4.135000 -0.088491 0
4.140000 -0.089816 0
4.145000 -0.090682 0
4.150000 -0.091171 0
4.155000 -0.091352 0
4.160000 -0.091287 0
4.165000 -0.091025 0
4.170000 -0.090536 0
4.175000 -0.089622 0
4.180000 -0.088712 0
4.185000 -0.087806 0
4.190000 -0.086906 0
4.195000 -0.086009 0
4.200000 -0.085117 0
4.205000 -0.084230 0
4.210000 -0.083347 0
4.215000 -0.082468 0
4.220000 -0.081594 0
4.225000 -0.080724 0
4.230000 -0.079859 0
4.235000 -0.078997 0
4.240000 -0.078140 0
4.245000 -0.077286 0
4.250000 -0.076436 0
4.255000 -0.075588 0
4.260000 -0.074741 0
4.265000 -0.073892 0
4.270000 -0.073038 0
4.275000 -0.072170 0
4.280000 -0.071277 0
4.285000 -0.070341 0
4.290000 -0.069334 0
4.295000 -0.068215 0
4.300000 -0.066925 0
4.305000 -0.065378 0
4.310000 -0.063462 0
4.315000 -0.061026 0
4.320000 -0.057877 0
4.325000 -0.053778 0
4.330000 -0.048452 0
4.335000 -0.041585 0
4.340000 -0.032846 0
4.345000 -0.021908 0
4.350000 -0.008483 0
4.355000 0.007641 0
4.360000 0.026547 0
4.365000 0.048155 0
4.370000 0.072176 0
4.375000 0.098089 0
4.380000 0.125137 0
4.385000 0.152349 0
4.390000 0.178585 0
4.395000 0.202607 0
4.400000 0.223179 0
4.405000 0.239166 0
4.410000 0.249638 0
4.415000 0.253961 1
4.420000 0.251859 0
4.425000 0.243442 0
4.430000 0.229197 0
4.435000 0.209943 0
4.440000 0.186748 0
4.445000 0.160837 0
4.450000 0.133479 0
4.455000 0.105884 0
4.460000 0.079106 0
4.465000 0.053931 0
4.470000 0.030730 0
4.475000 0.009212 0
4.480000 -0.011912 0
4.485000 -0.035179 0
4.490000 -0.064046 0
4.495000 -0.101418 0
4.500000 -0.146944 0
4.505000 -0.194183 0
4.510000 -0.229551 0
4.515000 -0.234193 2
4.520000 -0.187917 0
4.525000 -0.073482 0
4.530000 0.118429 0
4.535000 0.381334 0
4.540000 0.683203 0
4.545000 0.963442 0
4.550000 1.147170 0
4.555000 1.175961 3
4.560000 1.037288 0
4.565000 0.771060 0
4.570000 0.448500 0
4.575000 0.140107 0
4.580000 -0.106061 0
4.585000 -0.268380 0
4.590000 -0.345632 0
4.595000 -0.350602 4
4.600000 -0.305456 0
4.605000 -0.236166 0
4.610000 -0.165383 0
4.615000 -0.106916 0
4.620000 -0.064758 0
4.625000 -0.036187 0
4.630000 -0.016048 0
4.635000 0.000264 0
4.640000 0.015739 0
4.645000 0.031935 0
4.650000 0.049520 0
4.655000 0.068720 0
4.660000 0.089557 0
4.665000 0.111951 0
4.670000 0.135757 0
4.675000 0.160765 0
4.680000 0.186710 0
4.685000 0.213266 0
4.690000 0.240061 0
4.695000 0.266674 0
4.700000 0.292650 0
4.705000 0.317510 0
4.710000 0.340767 0
4.715000 0.361938 0
4.720000 0.380565 0
4.725000 0.396224 0
4.730000 0.408548 0
4.735000 0.417236 0
4.740000 0.422068 0
4.745000 0.422911 5
4.750000 0.419725 0
4.755000 0.412567 0
4.760000 0.401588 0
4.765000 0.387026 0
4.770000 0.369198 0
4.775000 0.348490 0
4.780000 0.325339 0
4.785000 0.300221 0
4.790000 0.273634 0
4.795000 0.246077 0
4.800000 0.218042 0
4.805000 0.189994 0
4.810000 0.162361 0
4.815000 0.135526 0
4.820000 0.109815 0
4.825000 0.085498 0
4.830000 0.062784 0
4.835000 0.041821 0
4.840000 0.022703 0
4.845000 0.005469 0
4.850000 -0.009887 0
4.855000 -0.023411 0
4.860000 -0.035181 0
4.865000 -0.045302 0
4.870000 -0.053894 0
4.875000 -0.061094 0
4.880000 -0.067038 0
4.885000 -0.071870 0
4.890000 -0.075724 0
4.895000 -0.078732 0
4.900000 -0.081016 0
4.905000 -0.082687 0
4.910000 -0.083845 0
4.915000 -0.084578 0
4.920000 -0.084964 0
4.925000 -0.085069 0
4.930000 -0.084949 0
4.935000 -0.084650 0
4.940000 -0.084147 0
4.945000 -0.083265 0
4.950000 -0.082387 0
4.955000 -0.081513 0
4.960000 -0.080643 0
4.965000 -0.079778 0
4.970000 -0.078917 0
4.975000 -0.078061 0
4.980000 -0.077209 0
4.985000 -0.076361 0
4.990000 -0.075517 0
4.995000 -0.074677 0
5.000000 -0.073842 0
5.005000 -0.073010 0
5.010000 -0.072183 0
5.015000 -0.071359 0
5.020000 -0.070537 0
5.025000 -0.069718 0
5.030000 -0.068898 0
5.035000 -0.068075 0
5.040000 -0.067243 0
5.045000 -0.066394 0
5.050000 -0.065513 0
5.055000 -0.064579 0
5.060000 -0.063560 0
5.065000 -0.062407 0
5.070000 -0.061051 0
5.075000 -0.059397 0
5.080000 -0.057317 0
5.085000 -0.054645 0
5.090000 -0.051169 0
5.095000 -0.046636 0
5.100000 -0.040754 0
5.105000 -0.033198 0
5.110000 -0.023637 0
5.115000 -0.011753 0
5.120000 0.002714 0
5.125000 0.019930 0
5.130000 0.039919 0
5.135000 0.062519 0
5.140000 0.087351 0
5.145000 0.113798 0
5.150000 0.141016 0
5.155000 0.167956 0
5.160000 0.193430 0
5.165000 0.216191 0
5.170000 0.235029 0
5.175000 0.248881 0
5.180000 0.256926 0
5.185000 0.258668 1
5.190000 0.253983 0
5.195000 0.243136 0
5.200000 0.226753 0
5.205000 0.205764 0
5.210000 0.181311 0
5.215000 0.154648 0
5.220000 0.127034 0
5.225000 0.099628 0
5.230000 0.073390 0
5.235000 0.048964 0
5.240000 0.026492 0
5.245000 0.005330 0
5.250000 -0.016295 0
5.255000 -0.041377 0
5.260000 -0.073405 0
5.265000 -0.114359 0
5.270000 -0.161761 0
5.275000 -0.206310 0
5.280000 -0.231959 2
5.285000 -0.218814 0
5.290000 -0.147350 0
5.295000 -0.002756 0
5.300000 0.219181 0
5.305000 0.502949 0
5.310000 0.804830 0
5.315000 1.055785 0
5.320000 1.183315 3
5.325000 1.143917 0
5.330000 0.945985 0
5.335000 0.646941 0
5.340000 0.322825 0
5.345000 0.037353 0
5.350000 -0.172619 0
5.355000 -0.295268 0
5.360000 -0.336535 4
5.365000 -0.314507 0
5.370000 -0.254482 0
5.375000 -0.182190 0
5.380000 -0.116687 0
5.385000 -0.066785 0
5.390000 -0.032469 0
5.395000 -0.009163 0
5.400000 0.008331 0
5.405000 0.023837 0
5.410000 0.039528 0
5.415000 0.056411 0
5.420000 0.074865 0
5.425000 0.094980 0
5.430000 0.116711 0
5.435000 0.139933 0
5.440000 0.164458 0
5.445000 0.190035 0
5.450000 0.216354 0
5.455000 0.243052 0
5.460000 0.269714 0
5.465000 0.295887 0
5.470000 0.321090 0
5.475000 0.344824 0
5.480000 0.366596 0
5.485000 0.385927 0
5.490000 0.402375 0
5.495000 0.415548 0
5.500000 0.425120 0
5.505000 0.430843 0
5.510000 0.432561 5
5.515000 0.430211 0
5.520000 0.423828 0
5.525000 0.413547 0
5.530000 0.399593 0
5.535000 0.382276 0
5.540000 0.361977 0
5.545000 0.339134 0
5.550000 0.314227 0
5.555000 0.287762 0
5.560000 0.260250 0
5.565000 0.232193 0
5.570000 0.204069 0
5.575000 0.176322 0
5.580000 0.149345 0
5.585000 0.123477 0
5.590000 0.098998 0
5.595000 0.076125 0
5.600000 0.055015 0
5.605000 0.035763 0
5.610000 0.018414 0
5.615000 0.002961 0
5.620000 -0.010640 0
5.625000 -0.022470 0
5.630000 -0.032635 0
5.635000 -0.041260 0
5.640000 -0.048480 0
5.645000 -0.054439 0
5.650000 -0.059280 0
5.655000 -0.063142 0
5.660000 -0.066157 0
5.665000 -0.068450 0
5.670000 -0.070133 0
5.675000 -0.071307 0
5.680000 -0.072060 0
5.685000 -0.072471 0
5.690000 -0.072605 0
5.695000 -0.072519 0
5.700000 -0.072259 0
5.705000 -0.071517 0
5.710000 -0.070697 0
5.715000 -0.069882 0
5.720000 -0.069070 0
5.725000 -0.068263 0
5.730000 -0.067460 0
5.735000 -0.066660 0
5.740000 -0.065865 0
5.745000 -0.065073 0
5.750000 -0.064286 0
5.755000 -0.063502 0
5.760000 -0.062723 0
5.765000 -0.061947 0
5.770000 -0.061175 0
5.775000 -0.060406 0
5.780000 -0.059640 0
5.785000 -0.058876 0
5.790000 -0.058114 0
5.795000 -0.057350 0
5.800000 -0.056581 0
5.805000 -0.055800 0
5.810000 -0.054996 0
5.815000 -0.054153 0
5.820000 -0.053245 0
5.825000 -0.052233 0
5.830000 -0.051059 0
5.835000 -0.049644 0
5.840000 -0.047876 0
5.845000 -0.045608 0
5.850000 -0.042650 0
5.855000 -0.038768 0
5.860000 -0.033683 0
5.865000 -0.027080 0
5.870000 -0.018621 0
5.875000 -0.007970 0
5.880000 0.005170 0
5.885000 0.021024 0
5.890000 0.039689 0
5.895000 0.061092 0
5.900000 0.084951 0
5.905000 0.110746 0
5.910000 0.137713 0
5.915000 0.164864 0
5.920000 0.191039 0
5.925000 0.214977 0
5.930000 0.235416 0
5.935000 0.251203 0
5.940000 0.261396 0
5.945000 0.265361 1
5.950000 0.262835 0
5.955000 0.253951 0
5.960000 0.239232 0
5.965000 0.219534 0
5.970000 0.195964 0
5.975000 0.169780 0
5.980000 0.142275 0
5.985000 0.114670 0
5.990000 0.088009 0
5.995000 0.063049 0
6.000000 0.040086 0
6.005000 0.018689 0
6.010000 -0.002661 0
6.015000 -0.026764 0
6.020000 -0.057193 0
6.025000 -0.096498 0
6.030000 -0.143247 0
6.035000 -0.189298 0
6.040000 -0.219320 2
6.045000 -0.213380 0
6.050000 -0.151228 0
6.055000 -0.016790 0
6.060000 0.196093 0
6.065000 0.474557 0
6.070000 0.777360 0
6.075000 1.036029 0
6.080000 1.175649 3
6.085000 1.148339 0
6.090000 0.958704 0
6.095000 0.662985 0
6.100000 0.338531 0
6.105000 0.051208 0
6.110000 -0.160525 0
6.115000 -0.284141 0
6.120000 -0.325525 4
6.125000 -0.303098 0
6.130000 -0.242683 0
6.135000 -0.170430 0
6.140000 -0.105488 0
6.145000 -0.056442 0
6.150000 -0.022955 0
6.155000 -0.000237 0
6.160000 0.016953 0
6.165000 0.032375 0
6.170000 0.048117 0
6.175000 0.065125 0
6.180000 0.083740 0
6.185000 0.104034 0
6.190000 0.125948 0
6.195000 0.149347 0
6.200000 0.174027 0
6.205000 0.199724 0
6.210000 0.226113 0
6.215000 0.252812 0
6.220000 0.279392 0
6.225000 0.305384 0
6.230000 0.330290 0
6.235000 0.353605 0
6.240000 0.374824 0
6.245000 0.393469 0
6.250000 0.409098 0
6.255000 0.421327 0
6.260000 0.429845 0
6.265000 0.434423 0
6.270000 0.434927 5
6.275000 0.431323 0
6.280000 0.423680 0
6.285000 0.412162 0
6.290000 0.397029 0
6.295000 0.378622 0
6.300000 0.357352 0
6.305000 0.333683 0
6.310000 0.308115 0
6.315000 0.281168 0
6.320000 0.253361 0
6.325000 0.225200 0
6.330000 0.197159 0
6.335000 0.169668 0
6.340000 0.143109 0
6.345000 0.117799 0
6.350000 0.093998 0
6.355000 0.071897 0
6.360000 0.051627 0
6.365000 0.033261 0
6.370000 0.016819 0
6.375000 0.002274 0
6.380000 -0.010440 0
6.385000 -0.021419 0
6.390000 -0.030781 0
6.395000 -0.038660 0
6.400000 -0.045200 0
6.405000 -0.050547 0
6.410000 -0.054845 0
6.415000 -0.058233 0
6.420000 -0.060841 0
6.425000 -0.062788 0
6.430000 -0.064182 0
6.435000 -0.065118 0
6.440000 -0.065681 0
6.445000 -0.065941 0
6.450000 -0.065959 0
6.455000 -0.065786 0
6.460000 -0.065396 0
6.465000 -0.064607 0
6.470000 -0.063821 0
6.475000 -0.063040 0
6.480000 -0.062263 0
6.485000 -0.061490 0
6.490000 -0.060720 0
6.495000 -0.059954 0
6.500000 -0.059192 0
6.505000 -0.058434 0
6.510000 -0.057680 0
6.515000 -0.056929 0
6.520000 -0.056182 0
6.525000 -0.055439 0
6.530000 -0.054699 0
6.535000 -0.053962 0
6.540000 -0.053227 0
6.545000 -0.052493 0
6.550000 -0.051758 0
6.555000 -0.051018 0
6.560000 -0.050267 0
6.565000 -0.049495 0
6.570000 -0.048686 0
6.575000 -0.047814 0
6.580000 -0.046840 0
6.585000 -0.045710 0
6.590000 -0.044343 0
6.595000 -0.042628 0
6.600000 -0.040417 0
6.605000 -0.037520 0
6.610000 -0.033699 0
6.615000 -0.028671 0
6.620000 -0.022116 0
6.625000 -0.013689 0
6.630000 -0.003048 0
6.635000 0.010112 0
6.640000 0.026015 0
6.645000 0.044758 0
6.650000 0.066261 0
6.655000 0.090224 0
6.660000 0.116103 0
6.665000 0.143103 0
6.670000 0.170202 0
6.675000 0.196204 0
6.680000 0.219819 0
6.685000 0.239768 0
6.690000 0.254892 0
6.695000 0.264266 0
6.700000 0.267291 1
6.705000 0.263755 0
6.710000 0.253859 0
6.715000 0.238194 0
6.720000 0.217685 0
6.725000 0.193497 0
6.730000 0.166927 0
6.735000 0.139289 0
6.740000 0.111797 0
6.745000 0.085462 0
6.750000 0.060964 0
6.755000 0.038455 0
6.760000 0.017247 0
6.765000 -0.004550 0
6.770000 -0.030102 0
6.775000 -0.063003 0
6.780000 -0.105000 0
6.785000 -0.152782 0
6.790000 -0.195657 0
6.795000 -0.216074 2
6.800000 -0.193097 0
6.805000 -0.107012 0
6.810000 0.055823 0
6.815000 0.295896 0
6.820000 0.590154 0
6.825000 0.884832 0
6.830000 1.103966 0
6.835000 1.178276 3
6.840000 1.079838 0
6.845000 0.837408 0
6.850000 0.520450 0
6.855000 0.204926 0
6.860000 -0.053874 0
6.865000 -0.229063 0
6.870000 -0.316685 0
6.875000 -0.328477 4
6.880000 -0.286712 0
6.885000 -0.218359 0
6.890000 -0.147416 0
6.895000 -0.088718 0
6.900000 -0.046639 0
6.905000 -0.018371 0
6.910000 0.001453 0
6.915000 0.017565 0
6.920000 0.032980 0
6.925000 0.049223 0
6.930000 0.066928 0
6.935000 0.086294 0
6.940000 0.107327 0
6.945000 0.129931 0
6.950000 0.153940 0
6.955000 0.179126 0
6.960000 0.205195 0
6.965000 0.231799 0
6.970000 0.258531 0
6.975000 0.284944 0
6.980000 0.310553 0
6.985000 0.334855 0
6.990000 0.357342 0
6.995000 0.377518 0
7.000000 0.394917 0
7.005000 0.409121 0
7.010000 0.419775 0
7.015000 0.426602 0
7.020000 0.429415 5
7.025000 0.428123 0
7.030000 0.422738 0
7.035000 0.413371 0
7.040000 0.400231 0
7.045000 0.383616 0
7.050000 0.363900 0
7.055000 0.341521 0
7.060000 0.316962 0
7.065000 0.290736 0
7.070000 0.263364 0
7.075000 0.235363 0
7.080000 0.207225 0
7.085000 0.179409 0
7.090000 0.152324 0
7.095000 0.126323 0
7.100000 0.101699 0
7.105000 0.078679 0
7.110000 0.057428 0
7.115000 0.038050 0
7.120000 0.020593 0
7.125000 0.005053 0
7.130000 -0.008614 0
7.135000 -0.020490 0
7.140000 -0.030681 0
7.145000 -0.039315 0
7.150000 -0.046531 0
7.155000 -0.052475 0
7.160000 -0.057293 0
7.165000 -0.061126 0
7.170000 -0.064111 0
7.175000 -0.066373 0
7.180000 -0.068025 0
7.185000 -0.069170 0
7.190000 -0.069899 0
7.195000 -0.070288 0
7.200000 -0.070405 0
7.205000 -0.070305 0
7.210000 -0.070034 0
7.215000 -0.069300 0
7.220000 -0.068492 0
7.225000 -0.067687 0
7.230000 -0.066887 0
7.235000 -0.066090 0
7.240000 -0.065298 0
7.245000 -0.064509 0
7.250000 -0.063725 0
7.255000 -0.062944 0
7.260000 -0.062167 0
7.265000 -0.061394 0
7.270000 -0.060625 0
7.275000 -0.059859 0
7.280000 -0.059097 0
7.285000 -0.058339 0
7.290000 -0.057583 0
7.295000 -0.056829 0
7.300000 -0.056075 0
7.305000 -0.055319 0
7.310000 -0.054555 0
7.315000 -0.053776 0
7.320000 -0.052969 0
7.325000 -0.052113 0
7.330000 -0.051177 0
7.335000 -0.050116 0
7.340000 -0.048861 0
7.345000 -0.047318 0
7.350000 -0.045359 0
7.355000 -0.042815 0
7.360000 -0.039472 0
7.365000 -0.035068 0
7.370000 -0.029300 0
7.375000 -0.021833 0
7.380000 -0.012318 0
7.385000 -0.000428 0
7.390000 0.014109 0
7.395000 0.031459 0
7.400000 0.051636 0
7.405000 0.074453 0
7.410000 0.099489 0
7.415000 0.126069 0
7.420000 0.153277 0
7.425000 0.179994 0
7.430000 0.204961 0
7.435000 0.226878 0
7.440000 0.244511 0
7.445000 0.256806 0
7.450000 0.262994 1
7.455000 0.262668 0
7.460000 0.255828 0
7.465000 0.242880 0
7.470000 0.224600 0
7.475000 0.202050 0
7.480000 0.176481 0
7.485000 0.149214 0
7.490000 0.121528 0
7.495000 0.094546 0
7.500000 0.069128 0
7.505000 0.045709 0
7.510000 0.024050 0
7.515000 0.002872 0
7.520000 -0.020419 0
7.525000 -0.049413 0
7.530000 -0.087109 0
7.535000 -0.132990 0
7.540000 -0.179988 0
7.545000 -0.213491 0
7.550000 -0.213570 2
7.555000 -0.159330 0
7.560000 -0.033573 0
7.565000 0.171507 0
7.570000 0.445218 0
7.575000 0.748275 0
7.580000 1.012517 0
7.585000 1.160898 3
7.590000 1.142981 0
7.595000 0.961887 0
7.600000 0.670853 0
7.605000 0.346027 0
7.610000 0.054067 0
7.615000 -0.164816 0
7.620000 -0.296373 0
7.625000 -0.345043 4
7.630000 -0.328020 0
7.635000 -0.270340 0
7.640000 -0.198187 0
7.645000 -0.131564 0
7.650000 -0.080236 0
7.655000 -0.044777 0
7.660000 -0.020781 0
7.665000 -0.002967 0
7.670000 0.012641 0
7.675000 0.028331 0
7.680000 0.045176 0
7.685000 0.063586 0
7.690000 0.083662 0
7.695000 0.105364 0
7.700000 0.128571 0
7.705000 0.153094 0
7.710000 0.178686 0
7.715000 0.205036 0
7.720000 0.231779 0
7.725000 0.258501 0
7.730000 0.284745 0
7.735000 0.310028 0
7.740000 0.333849 0
7.745000 0.355710 0
7.750000 0.375128 0
7.755000 0.391659 0
7.760000 0.404905 0
7.765000 0.414539 0
7.770000 0.420312 0
7.775000 0.422064 5
7.780000 0.419734 0
7.785000 0.413358 0
7.790000 0.403073 0
7.795000 0.389106 0
7.800000 0.371771 0
7.805000 0.351452 0
7.810000 0.328593 0
7.815000 0.303677 0
7.820000 0.277214 0
7.825000 0.249719 0
7.830000 0.221696 0
7.835000 0.193627 0
7.840000 0.165954 0
7.845000 0.139072 0
7.850000 0.113320 0
7.855000 0.088974 0
7.860000 0.066252 0
7.865000 0.045304 0
7.870000 0.026227 0
7.875000 0.009058 0
7.880000 -0.006209 0
7.885000 -0.019624 0
7.890000 -0.031271 0
7.895000 -0.041257 0
7.900000 -0.049709 0
7.905000 -0.056766 0
7.910000 -0.062572 0
7.915000 -0.067269 0
7.920000 -0.070998 0
7.925000 -0.073893 0
7.930000 -0.076075 0
7.935000 -0.077657 0
7.940000 -0.078740 0
7.945000 -0.079412 0
7.950000 -0.079748 0
7.955000 -0.079815 0
7.960000 -0.079667 0
7.965000 -0.079350 0
7.970000 -0.078570 0
7.975000 -0.077715 0
7.980000 -0.076865 0
7.985000 -0.076018 0
7.990000 -0.075176 0
7.995000 -0.074339 0
8.000000 -0.073505 0
8.005000 -0.072675 0
8.010000 -0.071850 0
8.015000 -0.071029 0
8.020000 -0.070212 0
8.025000 -0.069398 0
8.030000 -0.068589 0
8.035000 -0.067784 0
8.040000 -0.066982 0
8.045000 -0.066183 0
8.050000 -0.065386 0
8.055000 -0.064591 0
8.060000 -0.063793 0
8.065000 -0.062989 0
8.070000 -0.062171 0
8.075000 -0.061329 0
8.080000 -0.060442 0
8.085000 -0.059482 0
8.090000 -0.058408 0
8.095000 -0.057155 0
8.100000 -0.055638 0
8.105000 -0.053737 0
8.110000 -0.051293 0
8.115000 -0.048105 0
8.120000 -0.043926 0
8.125000 -0.038466 0
8.130000 -0.031400 0
8.135000 -0.022384 0
8.140000 -0.011089 0
8.145000 0.002772 0
8.150000 0.019396 0
8.155000 0.038839 0
8.160000 0.060977 0
8.165000 0.085461 0
8.170000 0.111700 0
8.175000 0.138860 0
8.180000 0.165890 0
8.185000 0.191584 0
8.190000 0.214663 0
8.195000 0.233876 0
8.200000 0.248113 0
8.205000 0.256510 0
8.210000 0.258536 1
8.215000 0.254047 0
8.220000 0.243302 0
8.225000 0.226937 0
8.230000 0.205906 0
8.235000 0.181384 0
8.240000 0.154660 0
8.245000 0.127024 0
8.250000 0.099659 0
8.255000 0.073535 0
8.260000 0.049279 0
8.265000 0.026977 0
8.270000 0.005861 0
8.275000 -0.016047 0
8.280000 -0.041954 0
8.285000 -0.075373 0
8.290000 -0.117810 0
8.295000 -0.165620 0
8.300000 -0.207858 0
8.305000 -0.226947 2
8.310000 -0.202170 0
8.315000 -0.114174 0
8.320000 0.050287 0
8.325000 0.291355 0
8.330000 0.585900 0
8.335000 0.880618 0
8.340000 1.100450 0
8.345000 1.176801 3
8.350000 1.081870 0
8.355000 0.843453 0
8.360000 0.528284 0
8.365000 0.210691 0
8.370000 -0.053874 0
8.375000 -0.237249 0
8.380000 -0.333873 0
8.385000 -0.353783 4
8.390000 -0.317644 0
8.395000 -0.251474 0
8.400000 -0.179516 0
8.405000 -0.117897 0
8.410000 -0.072548 0
8.415000 -0.041722 0
8.420000 -0.020388 0
8.425000 -0.003646 0
8.430000 0.011836 0
8.435000 0.027852 0
8.440000 0.045195 0
8.445000 0.064143 0
8.450000 0.084744 0
8.455000 0.106929 0
8.460000 0.130559 0
8.465000 0.155432 0
8.470000 0.181284 0
8.475000 0.207797 0
8.480000 0.234597 0
8.485000 0.261264 0
8.490000 0.287339 0
8.495000 0.312342 0
8.500000 0.335778 0
8.505000 0.357158 0
8.510000 0.376014 0
8.515000 0.391916 0
8.520000 0.404486 0
8.525000 0.413416 0
8.530000 0.418476 0
8.535000 0.419527 5
8.540000 0.416524 0
8.545000 0.409522 0
8.550000 0.398668 0
8.555000 0.384202 0
8.560000 0.366443 0
8.565000 0.345779 0
8.570000 0.322654 0
8.575000 0.297548 0
8.580000 0.270964 0
8.585000 0.243409 0
8.590000 0.215381 0
8.595000 0.187348 0
8.600000 0.159744 0
8.605000 0.132954 0
8.610000 0.107306 0
8.615000 0.083070 0
8.620000 0.060456 0
8.625000 0.039610 0
8.630000 0.020624 0
8.635000 0.003533 0
8.640000 -0.011670 0
8.645000 -0.025037 0
8.650000 -0.036648 0
8.655000 -0.046610 0
8.660000 -0.055050 0
8.665000 -0.062102 0
8.670000 -0.067908 0
8.675000 -0.072611 0
8.680000 -0.076348 0
8.685000 -0.079251 0
8.690000 -0.081442 0
8.695000 -0.083030 0
8.700000 -0.084117 0
8.705000 -0.084790 0
8.710000 -0.085125 0
8.715000 -0.085187 0
8.720000 -0.085031 0
8.725000 -0.084703 0
8.730000 -0.083899 0
8.735000 -0.083018 0
8.740000 -0.082141 0
8.745000 -0.081268 0
8.750000 -0.080400 0
8.755000 -0.079536 0
8.760000 -0.078676 0
8.765000 -0.077821 0
8.770000 -0.076970 0
8.775000 -0.076123 0
8.780000 -0.075281 0
8.785000 -0.074442 0
8.790000 -0.073608 0
8.795000 -0.072777 0
8.800000 -0.071951 0
8.805000 -0.071127 0
8.810000 -0.070307 0
8.815000 -0.069487 0
8.820000 -0.068667 0
8.825000 -0.067842 0
8.830000 -0.067006 0
8.835000 -0.066148 0
8.840000 -0.065253 0
8.845000 -0.064295 0
8.850000 -0.063237 0
8.855000 -0.062023 0
8.860000 -0.060575 0
8.865000 -0.058787 0
8.870000 -0.056515 0
8.875000 -0.053574 0
8.880000 -0.049737 0
8.885000 -0.044729 0
8.890000 -0.038242 0
8.895000 -0.029942 0
8.900000 -0.019494 0
8.905000 -0.006597 0
8.910000 0.008983 0
8.915000 0.027358 0
8.920000 0.048480 0
8.925000 0.072096 0
8.930000 0.097721 0
8.935000 0.124628 0
8.940000 0.151867 0
8.945000 0.178305 0
8.950000 0.202701 0
8.955000 0.223797 0
8.960000 0.240423 0
8.965000 0.251608 0
8.970000 0.256667 1
8.975000 0.255277 0
8.980000 0.247503 0
8.985000 0.233800 0
8.990000 0.214965 0
8.995000 0.192059 0
9.000000 0.166310 0
9.005000 0.139003 0
9.010000 0.111371 0
9.015000 0.084493 0
9.020000 0.059188 0
9.025000 0.035860 0
9.030000 0.014261 0
9.035000 -0.006860 0
9.040000 -0.030014 0
9.045000 -0.058683 0
9.050000 -0.095853 0
9.055000 -0.141283 0
9.060000 -0.188591 0
9.065000 -0.224120 0
9.070000 -0.228823 2
9.075000 -0.182276 0
9.080000 -0.067065 0
9.085000 0.126107 0
9.090000 0.390318 0
9.095000 0.692493 0
9.100000 0.970643 0
9.105000 1.149048 0
9.110000 1.170017 3
9.115000 1.023534 0
9.120000 0.752220 0
9.125000 0.428706 0
9.130000 0.123191 0
9.135000 -0.117596 0
9.140000 -0.273488 0
9.145000 -0.344482 4
9.150000 -0.344380 0
9.155000 -0.296106 0
9.160000 -0.225862 0
9.165000 -0.155854 0
9.170000 -0.099022 0
9.175000 -0.058523 0
9.180000 -0.031157 0
9.185000 -0.011676 0
9.190000 0.004400 0
9.195000 0.019893 0
9.200000 0.036233 0
9.205000 0.054017 0
9.210000 0.073435 0
9.215000 0.094492 0
9.220000 0.117097 0
9.225000 0.141092 0
9.230000 0.166259 0
9.235000 0.192318 0
9.240000 0.218935 0
9.245000 0.245724 0
9.250000 0.272254 0
9.255000 0.298060 0
9.260000 0.322658 0
9.265000 0.345554 0
9.270000 0.366266 0
9.275000 0.384334 0
9.280000 0.399343 0
9.285000 0.410935 0
9.290000 0.418820 0
9.295000 0.422796 5
9.300000 0.422747 0
9.305000 0.418655 0
9.310000 0.410600 0
9.315000 0.398753 0
9.320000 0.383376 0
9.325000 0.364805 0
9.330000 0.343445 0
9.335000 0.319747 0
9.340000 0.294199 0
9.345000 0.267304 0
9.350000 0.239568 0
9.355000 0.211480 0
9.360000 0.183500 0
9.365000 0.156048 0
9.370000 0.129496 0
9.375000 0.104157 0
9.380000 0.080285 0
9.385000 0.058073 0
9.390000 0.037654 0
9.395000 0.019105 0
9.400000 0.002452 0
9.405000 -0.012325 0
9.410000 -0.025285 0
9.415000 -0.036514 0
9.420000 -0.046125 0
9.425000 -0.054245 0
9.430000 -0.061013 0
9.435000 -0.066569 0
9.440000 -0.071054 0
9.445000 -0.074605 0
9.450000 -0.077351 0
9.455000 -0.079411 0
9.460000 -0.080894 0
9.465000 -0.081895 0
9.470000 -0.082500 0
9.475000 -0.082783 0
9.480000 -0.082806 0
9.485000 -0.082622 0
9.490000 -0.082275 0
9.495000 -0.081478 0
9.500000 -0.080609 0
9.505000 -0.079744 0
9.510000 -0.078883 0
9.515000 -0.078027 0
9.520000 -0.077175 0
9.525000 -0.076327 0
9.530000 -0.075484 0
9.535000 -0.074644 0
9.540000 -0.073809 0
9.545000 -0.072978 0
9.550000 -0.072151 0
9.555000 -0.071328 0
9.560000 -0.070509 0
9.565000 -0.069694 0
9.570000 -0.068881 0
9.575000 -0.068071 0
9.580000 -0.067262 0
9.585000 -0.066452 0
9.590000 -0.065635 0
9.595000 -0.064807 0
9.600000 -0.063954 0
9.605000 -0.063060 0
9.610000 -0.062098 0
9.615000 -0.061027 0
9.620000 -0.059789 0
9.625000 -0.058302 0
9.630000 -0.056452 0
9.635000 -0.054092 0
9.640000 -0.051028 0
9.645000 -0.047027 0
9.650000 -0.041809 0
9.655000 -0.035060 0
9.660000 -0.026446 0
9.665000 -0.015636 0
9.670000 -0.002338 0
9.675000 0.013666 0
9.680000 0.032465 0
9.685000 0.053982 0
9.690000 0.077931 0
9.695000 0.103791 0
9.700000 0.130803 0
9.705000 0.157988 0
9.710000 0.184196 0
9.715000 0.208180 0
9.720000 0.228692 0
9.725000 0.244588 0
9.730000 0.254935 0
9.735000 0.259098 1
9.740000 0.256805 0
9.745000 0.248179 0
9.750000 0.233721 0
9.755000 0.214267 0
9.760000 0.190904 0
9.765000 0.164869 0
9.770000 0.137443 0
9.775000 0.109841 0
9.780000 0.083113 0
9.785000 0.058033 0
9.790000 0.034939 0
9.795000 0.013479 0
9.800000 -0.007736 0
9.805000 -0.031360 0
9.810000 -0.060910 0
9.815000 -0.099147 0
9.820000 -0.145260 0
9.825000 -0.192060 0
9.830000 -0.225179 0
9.835000 -0.225255 2
9.840000 -0.172039 0
9.845000 -0.048762 0
9.850000 0.152575 0
9.855000 0.422772 0
9.860000 0.725756 0
9.865000 0.997266 0
9.870000 1.162011 0
9.875000 1.166105 3
9.880000 1.004484 0
9.885000 0.724172 0
9.890000 0.399526 0
9.895000 0.099394 0
9.900000 -0.132245 0
9.905000 -0.277788 0
9.910000 -0.339161 4
9.915000 -0.331635 0
9.920000 -0.279091 0
9.925000 -0.207808 0
9.930000 -0.139124 0
9.935000 -0.084639 0
9.940000 -0.046369 0
9.945000 -0.020545 0
9.950000 -0.001868 0
9.955000 0.013938 0
9.960000 0.029464 0
9.965000 0.045979 0
9.970000 0.063996 0
9.975000 0.083663 0
9.980000 0.104966 0
9.985000 0.127800 0
9.990000 0.151995 0
9.995000 0.177318 0
10.000000 0.203480 0
10.005000 0.230132 0
10.010000 0.256875 0
10.015000 0.283269 0
10.020000 0.308840 0
10.025000 0.333095 0
10.030000 0.355541 0
10.035000 0.375692 0
10.040000 0.393096 0
10.045000 0.407345 0
10.050000 0.418092 0
10.055000 0.425064 0
10.060000 0.428077 5
10.065000 0.427038 0
10.070000 0.421951 0
10.075000 0.412920 0
10.080000 0.400140 0
10.085000 0.383894 0
10.090000 0.364540 0
10.095000 0.342500 0
10.100000 0.318239 0
10.105000 0.292254 0
10.110000 0.265055 0
10.115000 0.237147 0
10.120000 0.209017 0
10.125000 0.181119 0
10.130000 0.153862 0
10.135000 0.127605 0
10.140000 0.102646 0
10.145000 0.079223 0
10.150000 0.057512 0
10.155000 0.037630 0
10.160000 0.019638 0
10.165000 0.003547 0
10.170000 -0.010677 0
10.175000 -0.023100 0
10.180000 -0.033821 0
10.185000 -0.042958 0
10.190000 -0.050644 0
10.195000 -0.057019 0
10.200000 -0.062226 0
10.205000 -0.066406 0
10.210000 -0.069693 0
10.215000 -0.072215 0
10.220000 -0.074089 0
10.225000 -0.075418 0
10.230000 -0.076296 0
10.235000 -0.076805 0
10.240000 -0.077014 0
10.245000 -0.076983 0
10.250000 -0.076761 0
10.255000 -0.076322 0
10.260000 -0.075479 0
10.265000 -0.074639 0
10.270000 -0.073804 0
10.275000 -0.072973 0
10.280000 -0.072146 0
10.285000 -0.071324 0
10.290000 -0.070505 0
10.295000 -0.069691 0
10.300000 -0.068880 0
10.305000 -0.068074 0
10.310000 -0.067271 0
10.315000 -0.066473 0
10.320000 -0.065678 0
10.325000 -0.064887 0
10.330000 -0.064099 0
10.335000 -0.063314 0
10.340000 -0.062531 0
10.345000 -0.061747 0
10.350000 -0.060960 0
10.355000 -0.060165 0
10.360000 -0.059352 0
10.365000 -0.058508 0
10.370000 -0.057612 0
10.375000 -0.056629 0
10.380000 -0.055513 0
10.385000 -0.054192 0
10.390000 -0.052571 0
10.395000 -0.050519 0
10.400000 -0.047866 0
10.405000 -0.044396 0
10.410000 -0.039852 0
10.415000 -0.033932 0
10.420000 -0.026309 0
10.425000 -0.016643 0
10.430000 -0.004615 0
10.435000 0.010035 0
10.440000 0.027466 0
10.445000 0.047686 0
10.450000 0.070513 0
10.455000 0.095535 0
10.460000 0.122099 0
10.465000 0.149318 0
10.470000 0.176106 0
10.475000 0.201240 0
10.480000 0.223450 0
10.485000 0.241524 0
10.490000 0.254413 0
10.495000 0.261335 0
10.500000 0.261849 1
10.505000 0.255905 0
10.510000 0.243846 0
10.515000 0.226378 0
10.520000 0.204500 0
10.525000 0.179407 0
10.530000 0.152386 0
10.535000 0.124700 0
10.540000 0.097487 0
10.545000 0.071656 0
10.550000 0.047747 0
10.555000 0.025723 0
10.560000 0.004637 0
10.565000 -0.017685 0
10.570000 -0.044563 0
10.575000 -0.079353 0
10.580000 -0.122976 0
10.585000 -0.170851 0
10.590000 -0.211099 0
10.595000 -0.225646 2
10.600000 -0.193908 0
10.605000 -0.097210 0
10.610000 0.076439 0
10.615000 0.325073 0
10.620000 0.622671 0
10.625000 0.913441 0
10.630000 1.122171 0
10.635000 1.183397 3
10.640000 1.073530 0
10.645000 0.824335 0
10.650000 0.505609 0
10.655000 0.191590 0
10.660000 -0.064520 0
10.665000 -0.237228 0
10.670000 -0.323173 0
10.675000 -0.334164 4
10.680000 -0.292217 0
10.685000 -0.223886 0
10.690000 -0.152826 0
10.695000 -0.093769 0
10.700000 -0.051206 0
10.705000 -0.022504 0
10.710000 -0.002399 0
10.715000 0.013833 0
10.720000 0.029247 0
10.725000 0.045417 0
10.730000 0.063010 0
10.735000 0.082243 0
10.740000 0.103132 0
10.745000 0.125592 0
10.750000 0.149465 0
10.755000 0.174533 0
10.760000 0.200516 0
10.765000 0.227076 0
10.770000 0.253821 0
10.775000 0.280316 0
10.780000 0.306089 0
10.785000 0.330647 0
10.790000 0.353490 0
10.795000 0.374125 0
10.800000 0.392089 0
10.805000 0.406960 0
10.810000 0.418375 0
10.815000 0.426045 0
10.820000 0.429766 5
10.825000 0.429427 0
10.830000 0.425016 0
10.835000 0.416619 0
10.840000 0.404420 0
10.845000 0.388689 0
10.850000 0.369776 0
10.855000 0.348098 0
10.860000 0.324118 0
10.865000 0.298334 0
10.870000 0.271259 0
10.875000 0.243404 0
10.880000 0.215263 0
10.885000 0.187300 0
10.890000 0.159932 0
10.895000 0.133528 0
10.900000 0.108396 0
10.905000 0.084782 0
10.910000 0.062872 0
10.915000 0.042789 0
10.920000 0.024600 0
10.925000 0.008319 0
10.930000 -0.006080 0
10.935000 -0.018666 0
10.940000 -0.029534 0
10.945000 -0.038801 0
10.950000 -0.046602 0
10.955000 -0.053076 0
10.960000 -0.058369 0
10.965000 -0.062621 0
10.970000 -0.065971 0
10.975000 -0.068546 0
10.980000 -0.070463 0
10.985000 -0.071830 0
10.990000 -0.072741 0
10.995000 -0.073278 0
11.000000 -0.073512 0
11.005000 -0.073504 0
11.010000 -0.073303 0
11.015000 -0.072883 0
11.020000 -0.072057 0
11.025000 -0.071234 0
11.030000 -0.070416 0
11.035000 -0.069602 0
11.040000 -0.068792 0
11.045000 -0.067986 0
11.050000 -0.067184 0
11.055000 -0.066386 0
11.060000 -0.065592 0
11.065000 -0.064802 0
11.070000 -0.064016 0
11.075000 -0.063234 0
11.080000 -0.062455 0
11.085000 -0.061680 0
11.090000 -0.060908 0
11.095000 -0.060139 0
11.100000 -0.059371 0
11.105000 -0.058603 0
11.110000 -0.057832 0
11.115000 -0.057051 0
11.120000 -0.056251 0
11.125000 -0.055420 0
11.130000 -0.054532 0
11.135000 -0.053556 0
11.140000 -0.052439 0
11.145000 -0.051110 0
11.150000 -0.049467 0
11.155000 -0.047377 0
11.160000 -0.044662 0
11.165000 -0.041101 0
11.170000 -0.036429 0
11.175000 -0.030338 0
11.180000 -0.022495 0
11.185000 -0.012559 0
11.190000 -0.000212 0
11.195000 0.014795 0
11.200000 0.032607 0
11.205000 0.053208 0
11.210000 0.076380 0
11.215000 0.101674 0
11.220000 0.128395 0
11.225000 0.155612 0
11.230000 0.182204 0
11.235000 0.206923 0
11.240000 0.228492 0
11.245000 0.245707 0
11.250000 0.257553 0
11.255000 0.263298 1
11.260000 0.262569 0
11.265000 0.255390 0
11.270000 0.242184 0
11.275000 0.223726 0
11.280000 0.201072 0
11.285000 0.175457 0
11.290000 0.148180 0
11.295000 0.120498 0
11.300000 0.093517 0
11.305000 0.068082 0
11.310000 0.044631 0
11.315000 0.022943 0
11.320000 0.001796 0
11.325000 -0.021316 0
11.330000 -0.049907 0
11.335000 -0.087024 0
11.340000 -0.132471 0
11.345000 -0.179806 0
11.350000 -0.215179 0
11.355000 -0.219272 2
11.360000 -0.171413 0
11.365000 -0.054087 0
11.370000 0.141774 0
11.375000 0.408379 0
11.380000 0.710965 0
11.385000 0.985577 0
11.390000 1.155642 0
11.395000 1.165004 3
11.400000 1.006978 0
11.405000 0.728189 0
11.410000 0.403659 0
11.415000 0.103258 0
11.420000 -0.128342 0
11.425000 -0.273326 0
11.430000 -0.333737 4
11.435000 -0.325166 0
11.440000 -0.271884 0
11.445000 -0.200441 0
11.450000 -0.132171 0
11.455000 -0.078423 0
11.460000 -0.040898 0
11.465000 -0.015622 0
11.470000 0.002757 0
11.475000 0.018464 0
11.480000 0.034016 0
11.485000 0.050623 0
11.490000 0.068762 0
11.495000 0.088567 0
11.500000 0.110010 0
11.505000 0.132981 0
11.510000 0.157299 0
11.515000 0.182724 0
11.520000 0.208954 0
11.525000 0.235630 0
11.530000 0.262343 0
11.535000 0.288641 0
11.540000 0.314043 0
11.545000 0.338047 0
11.550000 0.360154 0
11.555000 0.379878 0
11.560000 0.396765 0
11.565000 0.410414 0
11.570000 0.420484 0
11.575000 0.426716 0
11.580000 0.428940 5
11.585000 0.427080 0
11.590000 0.421161 0
11.595000 0.411307 0
11.600000 0.397736 0
11.605000 0.380751 0
11.610000 0.360732 0
11.615000 0.338114 0
11.620000 0.313380 0
11.625000 0.287038 0
11.630000 0.259602 0
11.635000 0.231581 0
11.640000 0.203461 0
11.645000 0.175689 0
11.650000 0.148668 0
11.655000 0.122742 0
11.660000 0.098197 0
11.665000 0.075255 0
11.670000 0.054077 0
11.675000 0.034763 0
11.680000 0.017358 0
11.685000 0.001859 0
11.690000 -0.011780 0
11.695000 -0.023638 0
11.700000 -0.033821 0
11.705000 -0.042456 0
11.710000 -0.049680 0
11.715000 -0.055637 0
11.720000 -0.060470 0
11.725000 -0.064320 0
11.730000 -0.067322 0
11.735000 -0.069599 0
11.740000 -0.071266 0
11.745000 -0.072424 0
11.750000 -0.073161 0
11.755000 -0.073557 0
11.760000 -0.073677 0
11.765000 -0.073577 0
11.770000 -0.073304 0
11.775000 -0.072556 0
11.780000 -0.071732 0
11.785000 -0.070911 0
11.790000 -0.070094 0
11.795000 -0.069282 0
11.800000 -0.068473 0
11.805000 -0.067669 0
11.810000 -0.066869 0
11.815000 -0.066072 0
11.820000 -0.065280 0
11.825000 -0.064491 0
11.830000 -0.063707 0
11.835000 -0.062926 0
11.840000 -0.062149 0
11.845000 -0.061375 0
11.850000 -0.060604 0
11.855000 -0.059836 0
11.860000 -0.059068 0
11.865000 -0.058298 0
11.870000 -0.057522 0
11.875000 -0.056734 0
11.880000 -0.055921 0
11.885000 -0.055065 0
11.890000 -0.054139 0
11.895000 -0.053101 0
11.900000 -0.051890 0
11.905000 -0.050420 0
11.910000 -0.048574 0
11.915000 -0.046197 0
11.920000 -0.043090 0
11.925000 -0.039008 0
11.930000 -0.033662 0
11.935000 -0.026728 0
11.940000 -0.017865 0
11.945000 -0.006738 0
11.950000 0.006943 0
11.955000 0.023380 0
11.960000 0.042641 0
11.965000 0.064612 0
11.970000 0.088957 0
11.975000 0.115097 0
11.980000 0.142208 0
11.985000 0.169250 0
11.990000 0.195019 0
11.995000 0.218236 0
12.000000 0.237643 0
12.005000 0.252119 0
12.010000 0.260785 0
12.015000 0.263090 1
12.020000 0.258873 0
12.025000 0.248373 0
12.030000 0.232214 0
12.035000 0.211338 0
12.040000 0.186915 0
12.045000 0.160233 0
12.050000 0.132588 0
12.055000 0.105170 0
12.060000 0.078962 0
12.065000 0.054607 0
12.070000 0.032219 0
12.075000 0.011064 0
12.080000 -0.010791 0
12.085000 -0.036524 0
12.090000 -0.069675 0
12.095000 -0.111865 0
12.100000 -0.159655 0
12.105000 -0.202315 0
12.110000 -0.222396 2
12.115000 -0.199176 0
12.120000 -0.113165 0
12.125000 0.049150 0
12.130000 0.288386 0
12.135000 0.582097 0
12.140000 0.877622 0
12.145000 1.100035 0
12.150000 1.180066 3
12.155000 1.088284 0
12.160000 0.851092 0
12.165000 0.536016 0
12.170000 0.218609 0
12.175000 -0.044923 0
12.180000 -0.226321 0
12.185000 -0.320354 0
12.190000 -0.337635 4
12.195000 -0.299503 0
12.200000 -0.232490 0
12.205000 -0.160911 0
12.210000 -0.100486 0
12.215000 -0.056544 0
12.220000 -0.026870 0
12.225000 -0.006251 0
12.230000 0.010165 0
12.235000 0.025584 0
12.240000 0.041678 0
12.245000 0.059169 0
12.250000 0.078296 0
12.255000 0.099086 0
12.260000 0.121458 0
12.265000 0.145259 0
12.270000 0.170272 0
12.275000 0.196222 0
12.280000 0.222772 0
12.285000 0.249532 0
12.290000 0.276066 0
12.295000 0.301904 0
12.300000 0.326550 0
12.305000 0.349503 0
12.310000 0.370267 0
12.315000 0.388376 0
12.320000 0.403403 0
12.325000 0.414980 0
12.330000 0.422816 0
12.335000 0.426700 5
12.340000 0.426519 0
12.345000 0.422256 0
12.350000 0.413995 0
12.355000 0.401917 0
12.360000 0.386292 0
12.365000 0.367468 0
12.370000 0.345862 0
12.375000 0.321939 0
12.380000 0.296198 0
12.385000 0.269153 0
12.390000 0.241319 0
12.395000 0.213191 0
12.400000 0.185235 0
12.405000 0.157872 0
12.410000 0.131471 0
12.415000 0.106343 0
12.420000 0.082736 0
12.425000 0.060834 0
12.430000 0.040763 0
12.435000 0.022589 0
12.440000 0.006328 0
12.445000 -0.008049 0
12.450000 -0.020610 0
12.455000 -0.031450 0
12.460000 -0.040689 0
12.465000 -0.048460 0
12.470000 -0.054904 0
12.475000 -0.060167 0
12.480000 -0.064391 0
12.485000 -0.067713 0
12.490000 -0.070262 0
12.495000 -0.072155 0
12.500000 -0.073499 0
12.505000 -0.074389 0
12.510000 -0.074907 0
12.515000 -0.075123 0
12.520000 -0.075099 0
12.525000 -0.074884 0
12.530000 -0.074451 0
12.535000 -0.073617 0
12.540000 -0.072787 0
12.545000 -0.071961 0
12.550000 -0.071139 0
12.555000 -0.070322 0
12.560000 -0.069508 0
12.565000 -0.068698 0
12.570000 -0.067893 0
12.575000 -0.067091 0
12.580000 -0.066294 0
12.585000 -0.065500 0
12.590000 -0.064710 0
12.595000 -0.063924 0
12.600000 -0.063142 0
12.605000 -0.062363 0
12.610000 -0.061586 0
12.615000 -0.060811 0
12.620000 -0.060036 0
12.625000 -0.059256 0
12.630000 -0.058466 0
12.635000 -0.057658 0
12.640000 -0.056815 0
12.645000 -0.055914 0
12.650000 -0.054920 0
12.655000 -0.053780 0
12.660000 -0.052419 0
12.665000 -0.050733 0
12.670000 -0.048583 0
12.675000 -0.045788 0
12.680000 -0.042121 0
12.685000 -0.037310 0
12.690000 -0.031044 0
12.695000 -0.022986 0
12.700000 -0.012794 0
12.705000 -0.000156 0
12.710000 0.015172 0
12.715000 0.033316 0
12.720000 0.054241 0
12.725000 0.077702 0
12.730000 0.103218 0
12.735000 0.130063 0
12.740000 0.157275 0
12.745000 0.183709 0
12.750000 0.208102 0
12.755000 0.229175 0
12.760000 0.245738 0
12.765000 0.256806 0
12.770000 0.261687 1
12.775000 0.260060 0
12.780000 0.252007 0
12.785000 0.238004 0
12.790000 0.218876 0
12.795000 0.195716 0
12.800000 0.169779 0
12.805000 0.142371 0
12.810000 0.114738 0
12.815000 0.087957 0
12.820000 0.062826 0
12.825000 0.039697 0
12.830000 0.018218 0
12.835000 -0.003038 0
12.840000 -0.026793 0
12.845000 -0.056638 0
12.850000 -0.095308 0
12.855000 -0.141734 0
12.860000 -0.188178 0
12.865000 -0.219563 2
12.870000 -0.215929 0
12.875000 -0.156756 0
12.880000 -0.025528 0
12.885000 0.184533 0
12.890000 0.461343 0
12.895000 0.764296 0
12.900000 1.024909 0
12.905000 1.167409 3
12.910000 1.143323 0
12.915000 0.957139 0
12.920000 0.663526 0
12.925000 0.338842 0
12.930000 0.048994 0
12.935000 -0.166816 0
12.940000 -0.295155 0
12.945000 -0.341023 4
12.950000 -0.322012 0
12.955000 -0.263347 0
12.960000 -0.191119 0
12.965000 -0.124993 0
12.970000 -0.074337 0
12.975000 -0.039446 0
12.980000 -0.015808 0
12.985000 0.001834 0
12.990000 0.017391 0
12.995000 0.033092 0
13.000000 0.049975 0
13.005000 0.068432 0
13.010000 0.088555 0
13.015000 0.110302 0
13.020000 0.133548 0
13.025000 0.158102 0
13.030000 0.183712 0
13.035000 0.210066 0
13.040000 0.236798 0
13.045000 0.263490 0
13.050000 0.289684 0
13.055000 0.314894 0
13.060000 0.338621 0
13.065000 0.360366 0
13.070000 0.379647 0
13.075000 0.396020 0
13.080000 0.409092 0
13.085000 0.418538 0
13.090000 0.424113 0
13.095000 0.425661 5
13.100000 0.423126 0
13.105000 0.416548 0
13.110000 0.406067 0
13.115000 0.391917 0
13.120000 0.374415 0
13.125000 0.353947 0
13.130000 0.330961 0
13.135000 0.305943 0
13.140000 0.279400 0
13.145000 0.251850 0
13.150000 0.223797 0
13.155000 0.195720 0
13.160000 0.168060 0
13.165000 0.141210 0
13.170000 0.115504 0
13.175000 0.091218 0
13.180000 0.068565 0
13.185000 0.047693 0
13.190000 0.028696 0
13.195000 0.011609 0
13.200000 -0.003578 0
13.205000 -0.016917 0
13.210000 -0.028491 0
13.215000 -0.038410 0
13.220000 -0.046802 0
13.225000 -0.053805 0
13.230000 -0.059564 0
13.235000 -0.064223 0
13.240000 -0.067920 0
13.245000 -0.070789 0
13.250000 -0.072952 0
13.255000 -0.074521 0
13.260000 -0.075595 0
13.265000 -0.076262 0
13.270000 -0.076598 0
13.275000 -0.076667 0
13.280000 -0.076524 0
13.285000 -0.076215 0
13.290000 -0.075449 0
13.295000 -0.074610 0
13.300000 -0.073775 0
13.305000 -0.072944 0
13.310000 -0.072117 0
13.315000 -0.071295 0
13.320000 -0.070476 0
13.325000 -0.069662 0
13.330000 -0.068851 0
13.335000 -0.068045 0
13.340000 -0.067243 0
13.345000 -0.066444 0
13.350000 -0.065650 0
13.355000 -0.064859 0
13.360000 -0.064072 0
13.365000 -0.063287 0
13.370000 -0.062505 0
13.375000 -0.061723 0
13.380000 -0.060939 0
13.385000 -0.060149 0
13.390000 -0.059344 0
13.395000 -0.058513 0
13.400000 -0.057636 0
13.405000 -0.056685 0
13.410000 -0.055614 0
13.415000 -0.054362 0
13.420000 -0.052838 0
13.425000 -0.050920 0
13.430000 -0.048448 0
13.435000 -0.045217 0
13.440000 -0.040978 0
13.445000 -0.035436 0
13.450000 -0.028265 0
13.455000 -0.019123 0
13.460000 -0.007679 0
13.465000 0.006348 0
13.470000 0.023147 0
13.475000 0.042764 0
13.480000 0.065061 0
13.485000 0.089672 0
13.490000 0.115990 0
13.495000 0.143164 0
13.500000 0.170131 0
13.505000 0.195675 0
13.510000 0.218514 0
13.515000 0.237404 0
13.520000 0.251248 0
13.525000 0.259202 0
13.530000 0.260761 1
13.535000 0.255807 0
13.540000 0.244628 0
13.545000 0.227887 0
13.550000 0.206555 0
13.555000 0.181821 0
13.560000 0.154978 0
13.565000 0.127313 0
13.570000 0.099997 0
13.575000 0.073981 0
13.580000 0.049861 0
13.585000 0.027673 0
13.590000 0.006571 0
13.595000 -0.015522 0
13.600000 -0.041882 0
13.605000 -0.075974 0
13.610000 -0.119031 0
13.615000 -0.166909 0
13.620000 -0.208096 0
13.625000 -0.224622 2
13.630000 -0.195705 0
13.635000 -0.102268 0
13.640000 0.068240 0
13.645000 0.314565 0
13.650000 0.611382 0
13.655000 0.903122 0
13.660000 1.113973 0
13.665000 1.177308 3
13.670000 1.069324 0
13.675000 0.821497 0
13.680000 0.503214 0
13.685000 0.188709 0
13.690000 -0.068534 0
13.695000 -0.242676 0
13.700000 -0.330058 0
13.705000 -0.342243 4
13.710000 -0.301055 0
13.715000 -0.232972 0
13.720000 -0.161735 0
13.725000 -0.102275 0
13.730000 -0.059288 0
13.735000 -0.030261 0
13.740000 -0.009961 0
13.745000 0.006363 0
13.750000 0.021808 0
13.755000 0.037978 0
13.760000 0.055556 0
13.765000 0.074770 0
13.770000 0.095640 0
13.775000 0.118083 0
13.780000 0.141943 0
13.785000 0.167006 0
13.790000 0.192993 0
13.795000 0.219570 0
13.800000 0.246348 0
13.805000 0.272894 0
13.810000 0.298739 0
13.815000 0.323390 0
13.820000 0.346349 0
13.825000 0.367124 0
13.830000 0.385251 0
13.835000 0.400306 0
13.840000 0.411925 0
13.845000 0.419814 0
13.850000 0.423766 5
13.855000 0.423666 0
13.860000 0.419496 0
13.865000 0.411338 0
13.870000 0.399369 0
13.875000 0.383855 0
13.880000 0.365142 0
13.885000 0.343640 0
13.890000 0.319811 0
13.895000 0.294150 0
13.900000 0.267168 0
13.905000 0.239375 0
13.910000 0.211268 0
13.915000 0.183308 0
13.920000 0.155919 0
13.925000 0.129469 0
13.930000 0.104271 0
13.935000 0.080576 0
13.940000 0.058572 0
13.945000 0.038385 0
13.950000 0.020087 0
13.955000 0.003697 0
13.960000 -0.010811 0
13.965000 -0.023501 0
13.970000 -0.034468 0
13.975000 -0.043826 0
13.980000 -0.051708 0
13.985000 -0.058254 0
13.990000 -0.063608 0
13.995000 -0.067912 0
14.000000 -0.071303 0
14.005000 -0.073910 0
14.010000 -0.075852 0
14.015000 -0.077235 0
14.020000 -0.078154 0
14.025000 -0.078694 0
14.030000 -0.078925 0
14.035000 -0.078909 0
14.040000 -0.078698 0
14.045000 -0.078261 0
14.050000 -0.077408 0
14.055000 -0.076559 0
14.060000 -0.075714 0
14.065000 -0.074874 0
14.070000 -0.074037 0
14.075000 -0.073205 0
14.080000 -0.072377 0
14.085000 -0.071553 0
14.090000 -0.070734 0
14.095000 -0.069918 0
14.100000 -0.069106 0
14.105000 -0.068299 0
14.110000 -0.067495 0
14.115000 -0.066695 0
14.120000 -0.065898 0
14.125000 -0.065104 0
14.130000 -0.064312 0
14.135000 -0.063520 0
14.140000 -0.062725 0
14.145000 -0.061921 0
14.150000 -0.061101 0
14.155000 -0.060250 0
14.160000 -0.059347 0
14.165000 -0.058360 0
14.170000 -0.057240 0
14.175000 -0.055918 0
14.180000 -0.054297 0
14.185000 -0.052247 0
14.190000 -0.049597 0
14.195000 -0.046133 0
14.200000 -0.041595 0
14.205000 -0.035680 0
14.210000 -0.028058 0
14.215000 -0.018389 0
14.220000 -0.006351 0
14.225000 0.008318 0
14.230000 0.025777 0
14.235000 0.046035 0
14.240000 0.068903 0
14.245000 0.093965 0
14.250000 0.120562 0
14.255000 0.147794 0
14.260000 0.174566 0
14.265000 0.199645 0
14.270000 0.221753 0
14.275000 0.239675 0
14.280000 0.252362 0
14.285000 0.259039 0
14.290000 0.259278 1
14.295000 0.253046 0
14.300000 0.240707 0
14.305000 0.222988 0
14.310000 0.200906 0
14.315000 0.175673 0
14.320000 0.148584 0
14.325000 0.120906 0
14.330000 0.093773 0
14.335000 0.068077 0
14.340000 0.044329 0
14.345000 0.022434 0
14.350000 0.001354 0
14.355000 -0.021206 0
14.360000 -0.048652 0
14.365000 -0.084260 0
14.370000 -0.128578 0
14.375000 -0.176343 0
14.380000 -0.214899 0
14.385000 -0.225617 2
14.390000 -0.187779 0
14.395000 -0.083063 0
14.400000 0.099481 0
14.405000 0.355664 0
14.410000 0.655925 0
14.415000 0.940860 0
14.420000 1.134155 0
14.425000 1.173690 3
14.430000 1.043584 0
14.435000 0.781938 0
14.440000 0.460219 0
14.445000 0.150505 0
14.450000 -0.097549 0
14.455000 -0.261376 0
14.460000 -0.339434 0
14.465000 -0.344576 4
14.470000 -0.299274 0
14.475000 -0.229875 0
14.480000 -0.159273 0
14.485000 -0.101272 0
14.490000 -0.059686 0
14.495000 -0.031600 0
14.500000 -0.011766 0
14.505000 0.004417 0
14.510000 0.019890 0
14.515000 0.036157 0
14.520000 0.053853 0
14.525000 0.073184 0
14.530000 0.094161 0
14.535000 0.116697 0
14.540000 0.140636 0
14.545000 0.165759 0
14.550000 0.191790 0
14.555000 0.218393 0
14.560000 0.245181 0
14.565000 0.271723 0
14.570000 0.297552 0
14.575000 0.322181 0
14.580000 0.345113 0
14.585000 0.365862 0
14.590000 0.383968 0
14.595000 0.399010 0
14.600000 0.410628 0
14.605000 0.418530 0
14.610000 0.422512 5
14.615000 0.422458 0
14.620000 0.418350 0
14.625000 0.410267 0
14.630000 0.398384 0
14.635000 0.382963 0
14.640000 0.364346 0
14.645000 0.342937 0
14.650000 0.319194 0
14.655000 0.293607 0
14.660000 0.266682 0
14.665000 0.238927 0
14.670000 0.210833 0
14.675000 0.182864 0
14.680000 0.155439 0
14.685000 0.128929 0
14.690000 0.103647 0
14.695000 0.079847 0
14.700000 0.057719 0
14.705000 0.037395 0
14.710000 0.018949 0
14.715000 0.002403 0
14.720000 -0.012264 0
14.725000 -0.025113 0
14.730000 -0.036234 0
14.735000 -0.045740 0
14.740000 -0.053761 0
14.745000 -0.060436 0
14.750000 -0.065907 0
14.755000 -0.070316 0
14.760000 -0.073800 0
14.765000 -0.076486 0
14.770000 -0.078495 0
14.775000 -0.079934 0
14.780000 -0.080899 0
14.785000 -0.081474 0
14.790000 -0.081733 0
14.795000 -0.081737 0
14.800000 -0.081539 0
14.805000 -0.081181 0
14.810000 -0.080387 0
14.815000 -0.079523 0
14.820000 -0.078664 0
14.825000 -0.077809 0
14.830000 -0.076958 0
14.835000 -0.076111 0
14.840000 -0.075269 0
14.845000 -0.074430 0
14.850000 -0.073596 0
14.855000 -0.072766 0
14.860000 -0.071940 0
14.865000 -0.071119 0
14.870000 -0.070301 0
14.875000 -0.069487 0
14.880000 -0.068676 0
14.885000 -0.067869 0
14.890000 -0.067063 0
14.895000 -0.066259 0
14.900000 -0.065452 0
14.905000 -0.064638 0
14.910000 -0.063811 0
14.915000 -0.062957 0
14.920000 -0.062057 0
14.925000 -0.061083 0
14.930000 -0.059990 0
14.935000 -0.058717 0
14.940000 -0.057176 0
14.945000 -0.055245 0
14.950000 -0.052768 0
14.955000 -0.049543 0
14.960000 -0.045326 0
14.965000 -0.039827 0
14.970000 -0.032725 0
14.975000 -0.023683 0
14.980000 -0.012372 0
14.985000 0.001489 0
14.990000 0.018095 0
14.995000 0.037504 0
15.000000 0.059594 0
15.005000 0.084027 0
15.010000 0.110225 0
15.015000 0.137370 0
15.020000 0.164432 0
15.025000 0.190226 0
15.030000 0.213486 0
15.035000 0.232974 0
15.040000 0.247581 0
15.045000 0.256434 0
15.050000 0.258981 1
15.055000 0.255048 0
15.060000 0.244857 0
15.065000 0.229006 0
15.070000 0.208409 0
15.075000 0.184209 0
15.080000 0.157674 0
15.085000 0.130085 0
15.090000 0.102627 0
15.095000 0.076293 0
15.100000 0.051758 0
15.105000 0.029199 0
15.110000 0.008003 0
15.115000 -0.013586 0
15.120000 -0.038573 0
15.125000 -0.070503 0
15.130000 -0.111420 0
15.135000 -0.158837 0
15.140000 -0.203300 0
15.145000 -0.228474 2
15.150000 -0.214143 0
15.155000 -0.140558 0
15.160000 0.007074 0
15.165000 0.232423 0
15.170000 0.518540 0
15.175000 0.819432 0
15.180000 1.064010 0
15.185000 1.179734 3
15.190000 1.126863 0
15.195000 0.919146 0
15.200000 0.615976 0
15.205000 0.292694 0
15.210000 0.010928 0
15.215000 -0.194441 0
15.220000 -0.312841 0
15.225000 -0.350848 4
15.230000 -0.326795 0
15.235000 -0.265890 0
15.240000 -0.193498 0
15.245000 -0.128229 0
15.250000 -0.078568 0
15.255000 -0.044372 0
15.260000 -0.021075 0
15.265000 -0.003534 0
15.270000 0.012032 0
15.275000 0.027775 0
15.280000 0.044698 0
15.285000 0.063181 0
15.290000 0.083316 0
15.295000 0.105060 0
15.300000 0.128292 0
15.305000 0.152826 0
15.310000 0.178418 0
15.315000 0.204762 0
15.320000 0.231501 0
15.325000 0.258227 0
15.330000 0.284494 0
15.335000 0.309825 0
15.340000 0.333729 0
15.345000 0.355717 0
15.350000 0.375312 0
15.355000 0.392073 0
15.360000 0.405607 0
15.365000 0.415585 0
15.370000 0.421754 0
15.375000 0.423949 5
15.380000 0.422098 0
15.385000 0.416227 0
15.390000 0.406455 0
15.395000 0.392996 0
15.400000 0.376146 0
15.405000 0.356274 0
15.410000 0.333808 0
15.415000 0.309219 0
15.420000 0.283002 0
15.425000 0.255665 0
15.430000 0.227709 0
15.435000 0.199610 0
15.440000 0.171815 0
15.445000 0.144721 0
15.450000 0.118676 0
15.455000 0.093965 0
15.460000 0.070817 0
15.465000 0.049397 0
15.470000 0.029813 0
15.475000 0.012116 0
15.480000 -0.003688 0
15.485000 -0.017637 0
15.490000 -0.029804 0
15.495000 -0.040288 0
15.500000 -0.049210 0
15.505000 -0.056702 0
15.510000 -0.062905 0
15.515000 -0.067960 0
15.520000 -0.072007 0
15.525000 -0.075180 0
15.530000 -0.077602 0
15.535000 -0.079390 0
15.540000 -0.080645 0
15.545000 -0.081459 0
15.550000 -0.081911 0
15.555000 -0.082072 0
15.560000 -0.081997 0
15.565000 -0.081737 0
15.570000 -0.081264 0
15.575000 -0.080396 0
15.580000 -0.079532 0
15.585000 -0.078673 0
15.590000 -0.077818 0
15.595000 -0.076967 0
15.600000 -0.076120 0
15.605000 -0.075277 0
15.610000 -0.074439 0
15.615000 -0.073605 0
15.620000 -0.072775 0
15.625000 -0.071949 0
15.630000 -0.071127 0
15.635000 -0.070309 0
15.640000 -0.069495 0
15.645000 -0.068684 0
15.650000 -0.067876 0
15.655000 -0.067070 0
15.660000 -0.066264 0
15.665000 -0.065454 0
15.670000 -0.064636 0
15.675000 -0.063801 0
15.680000 -0.062935 0
15.685000 -0.062016 0
15.690000 -0.061012 0
15.695000 -0.059874 0
15.700000 -0.058534 0
15.705000 -0.056895 0
15.710000 -0.054829 0
15.715000 -0.052166 0
15.720000 -0.048695 0
15.725000 -0.044159 0
15.730000 -0.038260 0
15.735000 -0.030674 0
15.740000 -0.021062 0
15.745000 -0.009108 0
15.750000 0.005451 0
15.755000 0.022778 0
15.760000 0.042888 0
15.765000 0.065609 0
15.770000 0.090546 0
15.775000 0.117061 0
15.780000 0.144287 0
15.785000 0.171155 0
15.790000 0.196456 0
15.795000 0.218929 0
15.800000 0.237362 0
15.805000 0.250697 0
15.810000 0.258135 0
15.815000 0.259208 1
15.820000 0.253832 0
15.825000 0.242315 0
15.830000 0.225330 0
15.835000 0.203844 0
15.840000 0.179031 0
15.845000 0.152164 0
15.850000 0.124508 0
15.855000 0.097209 0
15.860000 0.071202 0
15.865000 0.047073 0
15.870000 0.024868 0
15.875000 0.003775 0
15.880000 -0.018206 0
15.885000 -0.044263 0
15.890000 -0.077840 0
15.895000 -0.120355 0
15.900000 -0.168163 0
15.905000 -0.210486 0
15.910000 -0.230069 2
15.915000 -0.206549 0
15.920000 -0.120810 0
15.925000 0.040459 0
15.930000 0.278116 0
15.935000 0.570779 0
15.940000 0.867689 0
15.945000 1.095726 0
15.950000 1.185690 3
15.955000 1.105263 0
15.960000 0.876792 0
15.965000 0.565026 0
15.970000 0.245160 0
15.975000 -0.025035 0
15.980000 -0.215186 0
15.985000 -0.318222 0
15.990000 -0.343228 4
15.995000 -0.310321 0
16.000000 -0.245453 0
16.005000 -0.173321 0
16.010000 -0.110789 0
16.015000 -0.064448 0
16.020000 -0.032910 0
16.025000 -0.011208 0
16.030000 0.005641 0
16.035000 0.021084 0
16.040000 0.036994 0
16.045000 0.054208 0
16.050000 0.073025 0
16.055000 0.093497 0
16.060000 0.115563 0
16.065000 0.139085 0
16.070000 0.163862 0
16.075000 0.189634 0
16.080000 0.216082 0
16.085000 0.242832 0
16.090000 0.269464 0
16.095000 0.295522 0
16.100000 0.320520 0
16.105000 0.343963 0
16.110000 0.365361 0
16.115000 0.384241 0
16.120000 0.400172 0
16.125000 0.412772 0
16.130000 0.421731 0
16.135000 0.426816 0
16.140000 0.427886 5
16.145000 0.424895 0
16.150000 0.417895 0
16.155000 0.407035 0
16.160000 0.392553 0
16.165000 0.374769 0
16.170000 0.354073 0
16.175000 0.330910 0
16.180000 0.305762 0
16.185000 0.279134 0
16.190000 0.251535 0
16.195000 0.223463 0
16.200000 0.195391 0
16.205000 0.167752 0
16.210000 0.140932 0
16.215000 0.115261 0
16.220000 0.091009 0
16.225000 0.068383 0
16.230000 0.047532 0
16.235000 0.028545 0
16.240000 0.011459 0
16.245000 -0.003738 0
16.250000 -0.017096 0
16.255000 -0.028698 0
16.260000 -0.038652 0
16.265000 -0.047083 0
16.270000 -0.054130 0
16.275000 -0.059934 0
16.280000 -0.064637 0
16.285000 -0.068377 0
16.290000 -0.071287 0
16.295000 -0.073488 0
16.300000 -0.075092 0
16.305000 -0.076196 0
16.310000 -0.076889 0
16.315000 -0.077248 0
16.320000 -0.077336 0
16.325000 -0.077208 0
16.330000 -0.076911 0
16.335000 -0.076144 0
16.340000 -0.075301 0
16.345000 -0.074463 0
16.350000 -0.073628 0
16.355000 -0.072798 0
16.360000 -0.071972 0
16.365000 -0.071150 0
16.370000 -0.070333 0
16.375000 -0.069519 0
16.380000 -0.068709 0
16.385000 -0.067904 0
16.390000 -0.067102 0
16.395000 -0.066304 0
16.400000 -0.065510 0
16.405000 -0.064720 0
16.410000 -0.063932 0
16.415000 -0.063147 0
16.420000 -0.062363 0
16.425000 -0.061578 0
16.430000 -0.060787 0
16.435000 -0.059984 0
16.440000 -0.059158 0
16.445000 -0.058292 0
16.450000 -0.057360 0
16.455000 -0.056322 0
16.460000 -0.055120 0
16.465000 -0.053675 0
16.470000 -0.051873 0
16.475000 -0.049567 0
16.480000 -0.046567 0
16.485000 -0.042638 0
16.490000 -0.037501 0
16.495000 -0.030841 0
16.500000 -0.022323 0
16.505000 -0.011611 0
16.510000 0.001590 0
16.515000 0.017500 0
16.520000 0.036216 0
16.525000 0.057663 0
16.530000 0.081558 0
16.535000 0.107379 0
16.540000 0.134366 0
16.545000 0.161534 0
16.550000 0.187726 0
16.555000 0.211687 0
16.560000 0.232161 0
16.565000 0.247998 0
16.570000 0.258257 0
16.575000 0.262306 1
16.580000 0.259876 0
16.585000 0.251098 0
16.590000 0.236485 0
16.595000 0.216885 0
16.600000 0.193398 0
16.605000 0.167275 0
16.610000 0.139803 0
16.615000 0.112201 0
16.620000 0.085517 0
16.625000 0.060514 0
16.630000 0.037504 0
16.635000 0.016087 0
16.640000 -0.005205 0
16.645000 -0.029118 0
16.650000 -0.059204 0
16.655000 -0.098101 0
16.660000 -0.144618 0
16.665000 -0.190978 0
16.670000 -0.222213 2
16.675000 -0.218597 0
16.680000 -0.159870 0
16.685000 -0.029679 0
16.690000 0.178861 0
16.695000 0.454310 0
16.700000 0.757394 0
16.705000 1.021180 0
16.710000 1.170485 3
16.715000 1.154513 0
16.720000 0.974715 0
16.725000 0.684166 0
16.730000 0.359279 0
16.735000 0.067092 0
16.740000 -0.151928 0
16.745000 -0.283445 0
16.750000 -0.331930 4
16.755000 -0.314684 0
16.760000 -0.256870 0
16.765000 -0.184757 0
16.770000 -0.118342 0
16.775000 -0.067310 0
16.780000 -0.032136 0
16.785000 -0.008357 0
16.790000 0.009321 0
16.795000 0.024852 0
16.800000 0.040502 0
16.805000 0.057327 0
16.810000 0.075726 0
16.815000 0.095796 0
16.820000 0.117493 0
16.825000 0.140692 0
16.830000 0.165204 0
16.835000 0.190776 0
16.840000 0.217094 0
16.845000 0.243791 0
16.850000 0.270448 0
16.855000 0.296604 0
16.860000 0.321773 0
16.865000 0.345453 0
16.870000 0.367142 0
16.875000 0.386359 0
16.880000 0.402657 0
16.885000 0.415644 0
16.890000 0.424993 0
16.895000 0.430460 0
16.900000 0.431892 5
16.905000 0.429233 0
16.910000 0.422526 0
16.915000 0.411914 0
16.920000 0.397634 0
16.925000 0.380005 0
16.930000 0.359419 0
16.935000 0.336326 0
16.940000 0.311213 0
16.945000 0.284593 0
16.950000 0.256983 0
16.955000 0.228888 0
16.960000 0.200789 0
16.965000 0.173126 0
16.970000 0.146290 0
16.975000 0.120615 0
16.980000 0.096375 0
16.985000 0.073780 0
16.990000 0.052975 0
16.995000 0.034052 0
17.000000 0.017043 0
17.005000 0.001935 0
17.010000 -0.011324 0
17.015000 -0.022822 0
17.020000 -0.032670 0
17.025000 -0.040997 0
17.030000 -0.047942 0
17.035000 -0.053650 0
17.040000 -0.058266 0
17.045000 -0.061929 0
17.050000 -0.064772 0
17.055000 -0.066916 0
17.060000 -0.068472 0
17.065000 -0.069541 0
17.070000 -0.070208 0
17.075000 -0.070549 0
17.080000 -0.070628 0
17.085000 -0.070499 0
17.090000 -0.070206 0
17.095000 -0.069469 0
17.100000 -0.068659 0
17.105000 -0.067854 0
17.110000 -0.067053 0
17.115000 -0.066255 0
17.120000 -0.065462 0
17.125000 -0.064673 0
17.130000 -0.063887 0
17.135000 -0.063106 0
17.140000 -0.062328 0
17.145000 -0.061554 0
17.150000 -0.060784 0
17.155000 -0.060018 0
17.160000 -0.059255 0
17.165000 -0.058496 0
17.170000 -0.057739 0
17.175000 -0.056984 0
17.180000 -0.056229 0
17.185000 -0.055472 0
17.190000 -0.054707 0
17.195000 -0.053926 0
17.200000 -0.053117 0
17.205000 -0.052258 0
17.210000 -0.051320 0
17.215000 -0.050255 0
17.220000 -0.048997 0
17.225000 -0.047451 0
17.230000 -0.045492 0
17.235000 -0.042950 0
17.240000 -0.039615 0
17.245000 -0.035228 0
17.250000 -0.029490 0
17.255000 -0.022068 0
17.260000 -0.012620 0
17.265000 -0.000818 0
17.270000 0.013609 0
17.275000 0.030831 0
17.280000 0.050868 0
17.285000 0.073547 0
17.290000 0.098463 0
17.295000 0.124965 0
17.300000 0.152161 0
17.305000 0.178953 0
17.310000 0.204104 0
17.315000 0.226326 0
17.320000 0.244387 0
17.325000 0.257223 0
17.330000 0.264043 0
17.335000 0.264405 1
17.340000 0.258265 0
17.345000 0.245984 0
17.350000 0.228289 0
17.355000 0.206205 0
17.360000 0.180950 0
17.365000 0.153832 0
17.370000 0.126128 0
17.375000 0.098979 0
17.380000 0.073281 0
17.385000 0.049544 0
17.390000 0.027655 0
17.395000 0.006541 0
17.400000 -0.016148 0
17.405000 -0.043867 0
17.410000 -0.079872 0
17.415000 -0.124534 0
17.420000 -0.172231 0
17.425000 -0.209853 0
17.430000 -0.218397 2
17.435000 -0.176993 0
17.440000 -0.067465 0
17.445000 0.120511 0
17.450000 0.381265 0
17.455000 0.682776 0
17.460000 0.963094 0
17.465000 1.145126 0
17.470000 1.169168 3
17.475000 1.023352 0
17.480000 0.751019 0
17.485000 0.427184 0
17.490000 0.123771 0
17.495000 -0.112243 0
17.500000 -0.261487 0
17.505000 -0.325222 4
17.510000 -0.318755 0
17.515000 -0.266437 0
17.520000 -0.195183 0
17.525000 -0.126779 0
17.530000 -0.072894 0
17.535000 -0.035341 0
17.540000 -0.010113 0
17.545000 0.008202 0
17.550000 0.023867 0
17.555000 0.039407 0
17.560000 0.056028 0
17.565000 0.074200 0
17.570000 0.094048 0
17.575000 0.115544 0
17.580000 0.138569 0
17.585000 0.162939 0
17.590000 0.188406 0
17.595000 0.214662 0
17.600000 0.241338 0
17.605000 0.268016 0
17.610000 0.294237 0
17.615000 0.319509 0
17.620000 0.343326 0
17.625000 0.365180 0
17.630000 0.384584 0
17.635000 0.401084 0
17.640000 0.414278 0
17.645000 0.423832 0
17.650000 0.429496 0
17.655000 0.431108 5
17.660000 0.428609 0
17.665000 0.422039 0
17.670000 0.411538 0
17.675000 0.397342 0
17.680000 0.379773 0
17.685000 0.359225 0
17.690000 0.336151 0
17.695000 0.311045 0
17.700000 0.284422 0
17.705000 0.256807 0
17.710000 0.228708 0
17.715000 0.200612 0
17.720000 0.172961 0
17.725000 0.146150 0
17.730000 0.120516 0
17.735000 0.096330 0
17.740000 0.073804 0
17.745000 0.053084 0
17.750000 0.034256 0
17.755000 0.017352 0
17.760000 0.002357 0
17.765000 -0.010785 0
17.770000 -0.022165 0
17.775000 -0.031896 0
17.780000 -0.040109 0
17.785000 -0.046947 0
17.790000 -0.052555 0
17.795000 -0.057078 0
17.800000 -0.060658 0
17.805000 -0.063427 0
17.810000 -0.065506 0
17.815000 -0.067008 0
17.820000 -0.068030 0
17.825000 -0.068659 0
17.830000 -0.068970 0
17.835000 -0.069025 0
17.840000 -0.068878 0
17.845000 -0.068499 0
17.850000 -0.067695 0
17.855000 -0.066894 0
17.860000 -0.066098 0
17.865000 -0.065305 0
17.870000 -0.064517 0
17.875000 -0.063732 0
17.880000 -0.062951 0
17.885000 -0.062174 0
17.890000 -0.061401 0
17.895000 -0.060632 0
17.900000 -0.059867 0
17.905000 -0.059105 0
17.910000 -0.058347 0
17.915000 -0.057593 0
17.920000 -0.056841 0
17.925000 -0.056092 0
17.930000 -0.055345 0
17.935000 -0.054597 0
17.940000 -0.053846 0
17.945000 -0.053085 0
17.950000 -0.052305 0
17.955000 -0.051492 0
17.960000 -0.050623 0
17.965000 -0.049663 0
17.970000 -0.048559 0
17.975000 -0.047237 0
17.980000 -0.045595 0
17.985000 -0.043491 0
17.990000 -0.040744 0
17.995000 -0.037127 0
18.000000 -0.032365 0
18.005000 -0.026143 0
18.010000 -0.018122 0
18.015000 -0.007954 0
18.020000 0.004677 0
18.025000 0.020016 0
18.030000 0.038191 0
18.035000 0.059160 0
18.040000 0.082672 0
18.045000 0.108231 0
18.050000 0.135094 0
18.055000 0.162277 0
18.060000 0.188612 0
18.065000 0.212819 0
18.070000 0.233605 0
18.075000 0.249777 0
18.080000 0.260353 0
18.085000 0.264664 1
18.090000 0.262418 0
18.095000 0.253735 0
18.100000 0.239136 0
18.105000 0.219487 0
18.110000 0.195919 0
18.115000 0.169714 0
18.120000 0.142193 0
18.125000 0.114600 0
18.130000 0.087994 0
18.135000 0.063132 0
18.140000 0.040283 0
18.145000 0.018947 0
18.150000 -0.002524 0
18.155000 -0.027093 0
18.160000 -0.058407 0
18.165000 -0.098785 0
18.170000 -0.146068 0
18.175000 -0.190957 0
18.180000 -0.216928 2
18.185000 -0.203287 0
18.190000 -0.129732 0
18.195000 0.018908 0
18.200000 0.246160 0
18.205000 0.533885 0
18.210000 0.833641 0
18.215000 1.071663 0
18.220000 1.174731 3
18.225000 1.106217 0
18.230000 0.885348 0
18.235000 0.576128 0
18.240000 0.255272 0
18.245000 -0.017331 0
18.250000 -0.209800 0
18.255000 -0.314384 0
18.260000 -0.340071 4
18.265000 -0.307230 0
18.270000 -0.242244 0
18.275000 -0.170185 0
18.280000 -0.108035 0
18.285000 -0.062256 0
18.290000 -0.031247 0
18.295000 -0.009904 0
18.300000 0.006782 0
18.305000 0.022213 0
18.310000 0.038205 0
18.315000 0.055551 0
18.320000 0.074526 0
18.325000 0.095171 0
18.330000 0.117411 0
18.335000 0.141101 0
18.340000 0.166028 0
18.345000 0.191920 0
18.350000 0.218444 0
18.355000 0.245213 0
18.360000 0.271793 0
18.365000 0.297713 0
18.370000 0.322478 0
18.375000 0.345583 0
18.380000 0.366530 0
18.385000 0.384848 0
18.390000 0.400104 0
18.395000 0.411926 0
18.400000 0.420014 0
18.405000 0.424153 0
18.410000 0.424222 5
18.415000 0.420198 0
18.420000 0.412161 0
18.425000 0.400286 0
18.430000 0.384841 0
18.435000 0.366171 0
18.440000 0.344693 0
18.445000 0.320871 0
18.450000 0.295204 0
18.455000 0.268211 0
18.460000 0.240407 0
18.465000 0.212291 0
18.470000 0.184331 0
18.475000 0.156953 0
18.480000 0.130529 0
18.485000 0.105372 0
18.490000 0.081734 0
18.495000 0.059801 0
18.500000 0.039700 0
18.505000 0.021500 0
18.510000 0.005216 0
18.515000 -0.009179 0
18.520000 -0.021753 0
18.525000 -0.032603 0
18.530000 -0.041846 0
18.535000 -0.049617 0
18.540000 -0.056059 0
18.545000 -0.061316 0
18.550000 -0.065533 0
18.555000 -0.068846 0
18.560000 -0.071385 0
18.565000 -0.073268 0
18.570000 -0.074602 0
18.575000 -0.075481 0
18.580000 -0.075989 0
18.585000 -0.076196 0
18.590000 -0.076162 0
18.595000 -0.075938 0
18.600000 -0.075497 0
18.605000 -0.074658 0
18.610000 -0.073823 0
18.615000 -0.072991 0
18.620000 -0.072165 0
18.625000 -0.071342 0
18.630000 -0.070523 0
18.635000 -0.069708 0
18.640000 -0.068898 0
18.645000 -0.068091 0
18.650000 -0.067289 0
18.655000 -0.066490 0
18.660000 -0.065696 0
18.665000 -0.064905 0
18.670000 -0.064117 0
18.675000 -0.063333 0
18.680000 -0.062552 0
18.685000 -0.061772 0
18.690000 -0.060991 0
18.695000 -0.060206 0
18.700000 -0.059410 0
18.705000 -0.058595 0
18.710000 -0.057744 0
18.715000 -0.056833 0
18.720000 -0.055825 0
18.725000 -0.054666 0
18.730000 -0.053279 0
18.735000 -0.051556 0
18.740000 -0.049355 0
18.745000 -0.046491 0
18.750000 -0.042730 0
18.755000 -0.037798 0
18.760000 -0.031377 0
18.765000 -0.023128 0
18.770000 -0.012710 0
18.775000 0.000187 0
18.780000 0.015798 0
18.785000 0.034237 0
18.790000 0.055447 0
18.795000 0.079159 0
18.800000 0.104866 0
18.805000 0.131808 0
18.810000 0.158999 0
18.815000 0.185270 0
18.820000 0.209347 0
18.825000 0.229949 0
18.830000 0.245901 0
18.835000 0.256242 0
18.840000 0.260323 1
18.845000 0.257870 0
18.850000 0.249016 0
18.855000 0.234290 0
18.860000 0.214561 0
18.865000 0.190953 0
18.870000 0.164741 0
18.875000 0.137236 0
18.880000 0.109670 0
18.885000 0.083092 0
18.890000 0.058252 0
18.895000 0.035418 0
18.900000 0.014099 0
18.905000 -0.007327 0
18.910000 -0.031784 0
18.915000 -0.062893 0
18.920000 -0.103016 0
18.925000 -0.150167 0
18.930000 -0.195344 0
18.935000 -0.222358 2
18.940000 -0.210753 0
18.945000 -0.140277 0
18.950000 0.004469 0
18.955000 0.227771 0
18.960000 0.513065 0
18.965000 0.814072 0
18.970000 1.058595 0
18.975000 1.172834 3
18.980000 1.117758 0
18.985000 0.908263 0
18.990000 0.604290 0
18.995000 0.281283 0
19.000000 0.000601 0
19.005000 -0.203265 0
19.010000 -0.320078 0
19.015000 -0.356682 4
19.020000 -0.331615 0
19.025000 -0.270203 0
19.030000 -0.197775 0
19.035000 -0.132771 0
19.040000 -0.083465 0
19.045000 -0.049562 0
19.050000 -0.026436 0
19.055000 -0.008956 0
19.060000 0.006622 0
19.065000 0.022417 0
19.070000 0.039410 0
19.075000 0.057969 0
19.080000 0.078182 0
19.085000 0.100002 0
19.090000 0.123307 0
19.095000 0.147908 0
19.100000 0.173558 0
19.105000 0.199951 0
19.110000 0.226725 0
19.115000 0.253471 0
19.120000 0.279741 0
19.125000 0.305056 0
19.130000 0.328925 0
19.135000 0.350857 0
19.140000 0.370376 0
19.145000 0.387041 0
19.150000 0.400462 0
19.155000 0.410312 0
19.160000 0.416341 0
19.165000 0.418387 5
19.170000 0.416383 0
19.175000 0.410358 0
19.180000 0.400437 0
19.185000 0.386838 0
19.190000 0.369861 0
19.195000 0.349879 0
19.200000 0.327323 0
19.205000 0.302665 0
19.210000 0.276405 0
19.215000 0.249050 0
19.220000 0.221099 0
19.225000 0.193032 0
19.230000 0.165290 0
19.235000 0.138271 0
19.240000 0.112318 0
19.245000 0.087717 0
19.250000 0.064689 0
19.255000 0.043399 0
19.260000 0.023949 0
19.265000 0.006392 0
19.270000 -0.009274 0
19.275000 -0.023086 0
19.280000 -0.035121 0
19.285000 -0.045479 0
19.290000 -0.054281 0
19.295000 -0.061662 0
19.300000 -0.067761 0
19.305000 -0.072722 0
19.310000 -0.076684 0
19.315000 -0.079779 0
19.320000 -0.082132 0
19.325000 -0.083856 0
19.330000 -0.085055 0
19.335000 -0.085819 0
19.340000 -0.086227 0
19.345000 -0.086346 0
19.350000 -0.086235 0
19.355000 -0.085942 0
19.360000 -0.085440 0
19.365000 -0.084551 0
19.370000 -0.083666 0
19.375000 -0.082786 0
19.380000 -0.081910 0
19.385000 -0.081039 0
19.390000 -0.080172 0
19.395000 -0.079309 0
19.400000 -0.078450 0
19.405000 -0.077596 0
19.410000 -0.076746 0
19.415000 -0.075901 0
19.420000 -0.075059 0
19.425000 -0.074221 0
19.430000 -0.073388 0
19.435000 -0.072557 0
19.440000 -0.071730 0
19.445000 -0.070904 0
19.450000 -0.070078 0
19.455000 -0.069249 0
19.460000 -0.068411 0
19.465000 -0.067554 0
19.470000 -0.066665 0
19.475000 -0.065720 0
19.480000 -0.064686 0
19.485000 -0.063514 0
19.490000 -0.062130 0
19.495000 -0.060437 0
19.500000 -0.058301 0
19.505000 -0.055549 0
19.510000 -0.051964 0
19.515000 -0.047284 0
19.520000 -0.041210 0
19.525000 -0.033410 0
19.530000 -0.023550 0
19.535000 -0.011314 0
19.540000 0.003552 0
19.545000 0.021197 0
19.550000 0.041619 0
19.555000 0.064622 0
19.560000 0.089785 0
19.565000 0.116444 0
19.570000 0.143704 0
19.575000 0.170476 0
19.580000 0.195539 0
19.585000 0.217630 0
19.590000 0.235546 0
19.595000 0.248255 0
19.600000 0.254988 0
19.605000 0.255320 1
19.610000 0.249215 0
19.615000 0.237026 0
19.620000 0.219464 0
19.625000 0.197530 0
19.630000 0.172417 0
19.635000 0.145405 0
19.640000 0.117750 0
19.645000 0.090583 0
19.650000 0.064803 0
19.655000 0.040944 0
19.660000 0.018961 0
19.665000 -0.002090 0
19.670000 -0.024379 0
19.675000 -0.051211 0
19.680000 -0.085926 0
19.685000 -0.129463 0
19.690000 -0.177310 0
19.695000 -0.217714 0
19.700000 -0.232745 2
19.705000 -0.201923 0
19.710000 -0.106594 0
19.715000 0.065359 0
19.720000 0.312396 0
19.725000 0.609317 0
19.730000 0.901355 0
19.735000 1.113880 0
19.740000 1.180878 3
19.745000 1.078243 0
19.750000 0.835335 0
19.755000 0.518930 0
19.760000 0.202070 0
19.765000 -0.061219 0
19.770000 -0.243648 0
19.775000 -0.339947 0
19.780000 -0.360066 4
19.785000 -0.324355 0
19.790000 -0.258452 0
19.795000 -0.186364 0
19.800000 -0.124238 0
19.805000 -0.078222 0
19.810000 -0.046804 0
19.815000 -0.025079 0
19.820000 -0.008155 0
19.825000 0.007358 0
19.830000 0.023313 0
19.835000 0.040547 0
19.840000 0.059362 0
19.845000 0.079819 0
19.850000 0.101858 0
19.855000 0.125349 0
19.860000 0.150099 0
19.865000 0.175856 0
19.870000 0.202312 0
19.875000 0.229105 0
19.880000 0.255827 0
19.885000 0.282032 0
19.890000 0.307247 0
19.895000 0.330986 0
19.900000 0.352767 0
19.905000 0.372122 0
19.910000 0.388618 0
19.915000 0.401874 0
19.920000 0.411571 0
19.925000 0.417465 0
19.930000 0.419401 5
19.935000 0.417314 0
19.940000 0.411235 0
19.945000 0.401290 0
19.950000 0.387692 0
19.955000 0.370739 0
19.960000 0.350797 0
19.965000 0.328291 0
19.970000 0.303686 0
19.975000 0.277475 0
19.980000 0.250156 0
19.985000 0.222225 0
19.990000 0.194154 0
19.995000 0.166383 0
20.000000 0.139304 0
20.005000 0.113262 0
20.010000 0.088542 0
20.015000 0.065369 0
20.020000 0.043909 0
20.025000 0.024270 0
20.030000 0.006507 0
20.035000 -0.009373 0
20.040000 -0.023407 0
20.045000 -0.035663 0
20.050000 -0.046239 0
20.055000 -0.055251 0
20.060000 -0.062831 0
20.065000 -0.069116 0
20.070000 -0.074247 0
20.075000 -0.078362 0
20.080000 -0.081593 0
20.085000 -0.084065 0
20.090000 -0.085893 0
20.095000 -0.087179 0
20.100000 -0.088015 0
20.105000 -0.088483 0
20.110000 -0.088650 0
20.115000 -0.088576 0
20.120000 -0.088310 0
20.125000 -0.087823 0
20.130000 -0.086922 0
20.135000 -0.086026 0
20.140000 -0.085134 0
20.145000 -0.084247 0
20.150000 -0.083363 0
20.155000 -0.082485 0
20.160000 -0.081611 0
20.165000 -0.080741 0
20.170000 -0.079875 0
20.175000 -0.079014 0
20.180000 -0.078157 0
20.185000 -0.077304 0
20.190000 -0.076455 0
20.195000 -0.075610 0
20.200000 -0.074769 0
20.205000 -0.073932 0
20.210000 -0.073096 0
20.215000 -0.072261 0
20.220000 -0.071424 0
20.225000 -0.070581 0
20.230000 -0.069723 0
20.235000 -0.068840 0
20.240000 -0.067912 0
20.245000 -0.066911 0
20.250000 -0.065795 0
20.255000 -0.064503 0
20.260000 -0.062949 0
20.265000 -0.061017 0
20.270000 -0.058555 0
20.275000 -0.055369 0
20.280000 -0.051220 0
20.285000 -0.045827 0
20.290000 -0.038879 0
20.295000 -0.030043 0
20.300000 -0.018994 0
20.305000 -0.005447 0
20.310000 0.010801 0
20.315000 0.029828 0
20.320000 0.051545 0
20.325000 0.075653 0
20.330000 0.101621 0
20.335000 0.128686 0
20.340000 0.155869 0
20.345000 0.182028 0
20.350000 0.205928 0
20.355000 0.226337 0
20.360000 0.242128 0
20.365000 0.252384 0
20.370000 0.256484 1
20.375000 0.254164 0
20.380000 0.245548 0
20.385000 0.231131 0
20.390000 0.211740 0
20.395000 0.188445 0
20.400000 0.162470 0
20.405000 0.135081 0
20.410000 0.107483 0
20.415000 0.080721 0
20.420000 0.055572 0
20.425000 0.032397 0
20.430000 0.010890 0
20.435000 -0.010255 0
20.440000 -0.033587 0
20.445000 -0.062560 0
20.450000 -0.100050 0
20.455000 -0.145650 0
20.460000 -0.192863 0
20.465000 -0.228077 0
20.470000 -0.232461 2
20.475000 -0.185880 0
20.480000 -0.071166 0
20.485000 0.120934 0
20.490000 0.383904 0
20.495000 0.685765 0
20.500000 0.966084 0
20.505000 1.150168 0
20.510000 1.179646 3
20.515000 1.041212 0
20.520000 0.774701 0
20.525000 0.452000 0
20.530000 0.144116 0
20.535000 -0.100783 0
20.540000 -0.261275 0
20.545000 -0.336483 0
20.550000 -0.339608 4
20.555000 -0.293225 0
20.560000 -0.223544 0
20.565000 -0.153144 0
20.570000 -0.095504 0
20.575000 -0.054228 0
20.580000 -0.026336 0
20.585000 -0.006599 0
20.590000 0.009540 0
20.595000 0.024989 0
20.600000 0.041236 0
20.605000 0.058909 0
20.610000 0.078212 0
20.615000 0.099156 0
20.620000 0.121655 0
20.625000 0.145554 0
20.630000 0.170637 0
20.635000 0.196629 0
20.640000 0.223199 0
20.645000 0.249960 0
20.650000 0.276487 0
20.655000 0.302315 0
20.660000 0.326960 0
20.665000 0.349929 0
20.670000 0.370737 0
20.675000 0.388926 0
20.680000 0.404076 0
20.685000 0.415825 0
20.690000 0.423881 0
20.695000 0.428036 0
20.700000 0.428170 5
20.705000 0.424260 0
20.710000 0.416380 0
20.715000 0.404698 0
20.720000 0.389469 0
20.725000 0.371029 0
20.730000 0.349776 0
20.735000 0.326161 0
20.740000 0.300671 0
20.745000 0.273808 0
20.750000 0.246078 0
20.755000 0.217971 0
20.760000 0.189949 0
20.765000 0.162436 0
20.770000 0.135804 0
20.775000 0.110371 0
20.780000 0.086393 0
20.785000 0.064067 0
20.790000 0.043529 0
20.795000 0.024859 0
20.800000 0.008084 0
20.805000 -0.006813 0
20.810000 -0.019888 0
20.815000 -0.031228 0
20.820000 -0.040943 0
20.825000 -0.049160 0
20.830000 -0.056017 0
20.835000 -0.061656 0
20.840000 -0.066216 0
20.845000 -0.069835 0
20.850000 -0.072643 0
20.855000 -0.074758 0
20.860000 -0.076291 0
20.865000 -0.077337 0
20.870000 -0.077983 0
20.875000 -0.078304 0
20.880000 -0.078361 0
20.885000 -0.078208 0
20.890000 -0.077891 0
20.895000 -0.077117 0
20.900000 -0.076269 0
20.905000 -0.075426 0
20.910000 -0.074587 0
20.915000 -0.073752 0
20.920000 -0.072922 0
20.925000 -0.072095 0
20.930000 -0.071272 0
20.935000 -0.070454 0
20.940000 -0.069640 0
20.945000 -0.068830 0
20.950000 -0.068023 0
20.955000 -0.067221 0
20.960000 -0.066422 0
20.965000 -0.065627 0
20.970000 -0.064835 0
20.975000 -0.064046 0
20.980000 -0.063257 0
20.985000 -0.062467 0
20.990000 -0.061671 0
20.995000 -0.060863 0
21.000000 -0.060032 0
21.005000 -0.059160 0
21.010000 -0.058222 0
21.015000 -0.057177 0
21.020000 -0.055969 0
21.025000 -0.054517 0
21.030000 -0.052709 0
21.035000 -0.050397 0
21.040000 -0.047394 0
21.045000 -0.043466 0
21.050000 -0.038337 0
21.055000 -0.031693 0
21.060000 -0.023201 0
21.065000 -0.012529 0
21.070000 0.000618 0
21.075000 0.016461 0
21.080000 0.035100 0
21.085000 0.056465 0
21.090000 0.080283 0
21.095000 0.106044 0
21.100000 0.133001 0
21.105000 0.160186 0
21.110000 0.186455 0
21.115000 0.210565 0
21.120000 0.231265 0
21.125000 0.247404 0
21.130000 0.258034 0
21.135000 0.262504 1
21.140000 0.260523 0
21.145000 0.252192 0
21.150000 0.237996 0
21.155000 0.218755 0
21.160000 0.195544 0
21.165000 0.169597 0
21.170000 0.142194 0
21.175000 0.114558 0
21.180000 0.087748 0
21.185000 0.062555 0
21.190000 0.039345 0
21.195000 0.017809 0
21.200000 -0.003382 0
21.205000 -0.026818 0
21.210000 -0.056001 0
21.215000 -0.093790 0
21.220000 -0.139630 0
21.225000 -0.186701 0
21.230000 -0.220968 0
21.235000 -0.223231 2
21.240000 -0.173180 0
21.245000 -0.053761 0
21.250000 0.143641 0
21.255000 0.410948 0
21.260000 0.713599 0
21.265000 0.988521 0
21.270000 1.160269 0
21.275000 1.173062 3
21.280000 1.017998 0
21.285000 0.740496 0
21.290000 0.416033 0
21.295000 0.115275 0
21.300000 -0.116530 0
21.305000 -0.261352 0
21.310000 -0.321285 4
21.315000 -0.312130 0
21.320000 -0.258431 0
21.325000 -0.186938 0
21.330000 -0.118996 0
21.335000 -0.065792 0
21.340000 -0.028814 0
21.345000 -0.003946 0
21.350000 0.014194 0
21.355000 0.029797 0
21.360000 0.045330 0
21.365000 0.061962 0
21.370000 0.080149 0
21.375000 0.100010 0
21.380000 0.121513 0
21.385000 0.144540 0
21.390000 0.168905 0
21.395000 0.194360 0
21.400000 0.220596 0
21.405000 0.247248 0
21.410000 0.273896 0
21.415000 0.300082 0
21.420000 0.325318 0
21.425000 0.349097 0
21.430000 0.370916 0
21.435000 0.390288 0
21.440000 0.406760 0
21.445000 0.419933 0
21.450000 0.429475 0
21.455000 0.435134 0
21.460000 0.436750 5
21.465000 0.434263 0
21.470000 0.427710 0
21.475000 0.417233 0
21.480000 0.403064 0
21.485000 0.385523 0
21.490000 0.365001 0
21.495000 0.341948 0
21.500000 0.316856 0
21.505000 0.290239 0
21.510000 0.262617 0
21.515000 0.234501 0
21.520000 0.206373 0
21.525000 0.178677 0
21.530000 0.151808 0
21.535000 0.126102 0
21.540000 0.101835 0
21.545000 0.079217 0
21.550000 0.058398 0
21.555000 0.039464 0
21.560000 0.022452 0
21.565000 0.007346 0
21.570000 -0.005907 0
21.575000 -0.017395 0
21.580000 -0.027230 0
21.585000 -0.035543 0
21.590000 -0.042475 0
21.595000 -0.048171 0
21.600000 -0.052776 0
21.605000 -0.056431 0
21.610000 -0.059267 0
21.615000 -0.061409 0
21.620000 -0.062966 0
21.625000 -0.064038 0
21.630000 -0.064713 0
21.635000 -0.065064 0
21.640000 -0.065155 0
21.645000 -0.065041 0
21.650000 -0.064691 0
21.655000 -0.063906 0
21.660000 -0.063124 0
21.665000 -0.062347 0
21.670000 -0.061573 0
21.675000 -0.060803 0
21.680000 -0.060037 0
21.685000 -0.059274 0
21.690000 -0.058516 0
21.695000 -0.057761 0
21.700000 -0.057010 0
21.705000 -0.056263 0
21.710000 -0.055519 0
21.715000 -0.054779 0
21.720000 -0.054042 0
21.725000 -0.053309 0
21.730000 -0.052578 0
21.735000 -0.051848 0
21.740000 -0.051118 0
21.745000 -0.050385 0
21.750000 -0.049643 0
21.755000 -0.048884 0
21.760000 -0.048094 0
21.765000 -0.047251 0
21.770000 -0.046322 0
21.775000 -0.045257 0
21.780000 -0.043985 0
21.785000 -0.042408 0
21.790000 -0.040391 0
21.795000 -0.037759 0
21.800000 -0.034291 0
21.805000 -0.029720 0
21.810000 -0.023738 0
21.815000 -0.016007 0
21.820000 -0.006181 0
21.825000 0.006060 0
21.830000 0.020975 0
21.835000 0.038712 0
21.840000 0.059256 0
21.845000 0.082390 0
21.850000 0.107661 0
21.855000 0.134362 0
21.860000 0.161551 0
21.865000 0.188087 0
21.870000 0.212708 0
21.875000 0.234118 0
21.880000 0.251106 0
21.885000 0.262652 0
21.890000 0.268031 1
21.895000 0.266886 0
21.900000 0.259267 0
21.905000 0.245626 0
21.910000 0.226772 0
21.915000 0.203792 0
21.920000 0.177946 0
21.925000 0.150550 0
21.930000 0.122868 0
21.935000 0.095995 0
21.940000 0.070753 0
21.945000 0.047518 0
21.950000 0.025966 0
21.955000 0.004698 0
21.960000 -0.018999 0
21.965000 -0.048736 0
21.970000 -0.087313 0
21.975000 -0.133722 0
21.980000 -0.180235 0
21.985000 -0.211686 2
21.990000 -0.207951 0
21.995000 -0.148344 0
22.000000 -0.016257 0
22.005000 0.194979 0
22.010000 0.472777 0
22.015000 0.775554 0
22.020000 1.033751 0
22.025000 1.171259 3
22.030000 1.140150 0
22.035000 0.946563 0
22.040000 0.648549 0
22.045000 0.324540 0
22.050000 0.040275 0
22.055000 -0.166679 0
22.060000 -0.284850 0
22.065000 -0.321134 4
22.070000 -0.294896 0
22.075000 -0.232595 0
22.080000 -0.160393 0
22.085000 -0.096799 0
22.090000 -0.049503 0
22.095000 -0.017479 0
22.100000 0.004334 0
22.105000 0.021129 0
22.110000 0.036496 0
22.115000 0.052364 0
22.120000 0.069582 0
22.125000 0.088441 0
22.130000 0.108988 0
22.135000 0.131150 0
22.140000 0.154776 0
22.145000 0.179652 0
22.150000 0.205498 0
22.155000 0.231974 0
22.160000 0.258682 0
22.165000 0.285179 0
22.170000 0.310981 0
22.175000 0.335583 0
22.180000 0.358469 0
22.185000 0.379134 0
22.190000 0.397099 0
22.195000 0.411929 0
22.200000 0.423252 0
22.205000 0.430770 0
22.210000 0.434278 5
22.215000 0.433665 0
22.220000 0.428926 0
22.225000 0.420156 0
22.230000 0.407552 0
22.235000 0.391401 0
22.240000 0.372072 0
22.245000 0.350000 0
22.250000 0.325668 0
22.255000 0.299592 0
22.260000 0.272299 0
22.265000 0.244315 0
22.270000 0.216140 0
22.275000 0.188242 0
22.280000 0.161042 0
22.285000 0.134901 0
22.290000 0.110122 0
22.295000 0.086941 0
22.300000 0.065529 0
22.305000 0.045996 0
22.310000 0.028393 0
22.315000 0.012720 0
22.320000 -0.001067 0
22.325000 -0.013048 0
22.330000 -0.023330 0
22.335000 -0.032042 0
22.340000 -0.039323 0
22.345000 -0.045322 0
22.350000 -0.050186 0
22.355000 -0.054059 0
22.360000 -0.057078 0
22.365000 -0.059369 0
22.370000 -0.061049 0
22.375000 -0.062221 0
22.380000 -0.062975 0
22.385000 -0.063389 0
22.390000 -0.063531 0
22.395000 -0.063457 0
22.400000 -0.063214 0
22.405000 -0.062512 0
22.410000 -0.061738 0
22.415000 -0.060967 0
22.420000 -0.060200 0
22.425000 -0.059437 0
22.430000 -0.058678 0
22.435000 -0.057922 0
22.440000 -0.057170 0
22.445000 -0.056422 0
22.450000 -0.055678 0
22.455000 -0.054937 0
22.460000 -0.054200 0
22.465000 -0.053467 0
22.470000 -0.052737 0
22.475000 -0.052010 0
22.480000 -0.051285 0
22.485000 -0.050562 0
22.490000 -0.049839 0
22.495000 -0.049112 0
22.500000 -0.048377 0
22.505000 -0.047624 0
22.510000 -0.046840 0
22.515000 -0.046002 0
22.520000 -0.045076 0
22.525000 -0.044011 0
22.530000 -0.042736 0
22.535000 -0.041146 0
22.540000 -0.039106 0
22.545000 -0.036433 0
22.550000 -0.032900 0
22.555000 -0.028234 0
22.560000 -0.022118 0
22.565000 -0.014207 0
22.570000 -0.004151 0
22.575000 0.008372 0
22.580000 0.023614 0
22.585000 0.041707 0
22.590000 0.062615 0
22.595000 0.086086 0
22.600000 0.111622 0
22.605000 0.138468 0
22.610000 0.165633 0
22.615000 0.191932 0
22.620000 0.216068 0
22.625000 0.236734 0
22.630000 0.252727 0
22.635000 0.263062 0
22.640000 0.267075 1
22.645000 0.264489 0
22.650000 0.255447 0
22.655000 0.240494 0
22.660000 0.220529 0
22.665000 0.196709 0
22.670000 0.170337 0
22.675000 0.142749 0
22.680000 0.115191 0
22.685000 0.088713 0
22.690000 0.064040 0
22.695000 0.041382 0
22.700000 0.020120 0
22.705000 -0.001565 0
22.710000 -0.026814 0
22.715000 -0.059287 0
22.720000 -0.100919 0
22.725000 -0.148636 0
22.730000 -0.191888 0
22.735000 -0.213058 2
22.740000 -0.190960 0
22.745000 -0.105561 0
22.750000 0.057044 0
22.755000 0.297385 0
22.760000 0.591965 0
22.765000 0.885979 0
22.770000 1.102294 0
22.775000 1.171385 3
22.780000 1.067145 0
22.785000 0.821061 0
22.790000 0.503097 0
22.795000 0.188591 0
22.800000 -0.068185 0
22.805000 -0.241169 0
22.810000 -0.326881 0
22.815000 -0.337297 4
22.820000 -0.294760 0
22.825000 -0.226146 0
22.830000 -0.155251 0
22.835000 -0.096696 0
22.840000 -0.054730 0
22.845000 -0.026506 0
22.850000 -0.006673 0
22.855000 0.009474 0
22.860000 0.024929 0
22.865000 0.041211 0
22.870000 0.058951 0
22.875000 0.078348 0
22.880000 0.099408 0
22.885000 0.122036 0
22.890000 0.146069 0
22.895000 0.171278 0
22.900000 0.197373 0
22.905000 0.224007 0
22.910000 0.250778 0
22.915000 0.277238 0
22.920000 0.302908 0
22.925000 0.327286 0
22.930000 0.349865 0
22.935000 0.370153 0
22.940000 0.387683 0
22.945000 0.402037 0
22.950000 0.412859 0
22.955000 0.419872 0
22.960000 0.422884 5
22.965000 0.421801 0
22.970000 0.416631 0
22.975000 0.407480 0
22.980000 0.394552 0
22.985000 0.378139 0
22.990000 0.358611 0
22.995000 0.336400 0
23.000000 0.311985 0
23.005000 0.285876 0
23.010000 0.258592 0
23.015000 0.230649 0
23.020000 0.202539 0
23.025000 0.174720 0
23.030000 0.147604 0
23.035000 0.121547 0
23.040000 0.096845 0
23.045000 0.073728 0
23.050000 0.052367 0
23.055000 0.032869 0
23.060000 0.015285 0
23.065000 -0.000383 0
23.070000 -0.014177 0
23.075000 -0.026175 0
23.080000 -0.036482 0
23.085000 -0.045222 0
23.090000 -0.052535 0
23.095000 -0.058563 0
23.100000 -0.063454 0
23.105000 -0.067348 0
23.110000 -0.070382 0
23.115000 -0.072682 0
23.120000 -0.074363 0
23.125000 -0.075527 0
23.130000 -0.076266 0
23.135000 -0.076659 0
23.140000 -0.076772 0
23.145000 -0.076663 0
23.150000 -0.076380 0
23.155000 -0.075617 0
23.160000 -0.074777 0
23.165000 -0.073941 0
23.170000 -0.073109 0
23.175000 -0.072282 0
23.180000 -0.071458 0
23.185000 -0.070639 0
23.190000 -0.069824 0
23.195000 -0.069013 0
23.200000 -0.068206 0
23.205000 -0.067403 0
23.210000 -0.066603 0
23.215000 -0.065808 0
23.220000 -0.065017 0
23.225000 -0.064229 0
23.230000 -0.063443 0
23.235000 -0.062661 0
23.240000 -0.061878 0
23.245000 -0.061094 0
23.250000 -0.060304 0
23.255000 -0.059500 0
23.260000 -0.058671 0
23.265000 -0.057798 0
23.270000 -0.056851 0
23.275000 -0.055788 0
23.280000 -0.054546 0
23.285000 -0.053035 0
23.290000 -0.051135 0
23.295000 -0.048685 0
23.300000 -0.045481 0
23.305000 -0.041269 0
23.310000 -0.035757 0
23.315000 -0.028614 0
23.320000 -0.019494 0
23.325000 -0.008064 0
23.330000 0.005961 0
23.335000 0.022771 0
23.340000 0.042413 0
23.345000 0.064745 0
23.350000 0.089396 0
23.355000 0.115748 0
23.360000 0.142935 0
23.365000 0.169881 0
23.370000 0.195353 0
23.375000 0.218059 0
23.380000 0.236743 0
23.385000 0.250311 0
23.390000 0.257923 0
23.395000 0.259092 1
23.400000 0.253724 0
23.405000 0.242135 0
23.410000 0.225018 0
23.415000 0.203375 0
23.420000 0.178417 0
23.425000 0.151455 0
23.430000 0.123780 0
23.435000 0.096560 0
23.440000 0.070724 0
23.445000 0.046828 0
23.450000 0.024829 0
23.455000 0.003744 0
23.460000 -0.018679 0
23.465000 -0.045855 0
23.470000 -0.081155 0
23.475000 -0.125276 0
23.480000 -0.173077 0
23.485000 -0.211870 0
23.490000 -0.222825 2
23.495000 -0.184932 0
23.500000 -0.079616 0
23.505000 0.104129 0
23.510000 0.361724 0
23.515000 0.662497 0
23.520000 0.945411 0
23.525000 1.133009 0
23.530000 1.163797 3
23.535000 1.024980 0
23.540000 0.758569 0
23.545000 0.436000 0
23.550000 0.127895 0
23.555000 -0.117704 0
23.560000 -0.279273 0
23.565000 -0.355724 0
23.570000 -0.359982 4
23.575000 -0.314345 0
23.580000 -0.244854 0
23.585000 -0.174130 0
23.590000 -0.115869 0
23.595000 -0.073935 0
23.600000 -0.045522 0
23.605000 -0.025451 0
23.610000 -0.009133 0
23.615000 0.006395 0
23.620000 0.022667 0
23.625000 0.040341 0
23.630000 0.059633 0
23.635000 0.080563 0
23.640000 0.103050 0
23.645000 0.126944 0
23.650000 0.152034 0
23.655000 0.178052 0
23.660000 0.204672 0
23.665000 0.231515 0
23.670000 0.258160 0
23.675000 0.284149 0
23.680000 0.309001 0
23.685000 0.332229 0
23.690000 0.353347 0
23.695000 0.371898 0
23.700000 0.387460 0
23.705000 0.399666 0
23.710000 0.408220 0
23.715000 0.412903 0
23.720000 0.413586 5
23.725000 0.410237 0
23.730000 0.402915 0
23.735000 0.391777 0
23.740000 0.377067 0
23.745000 0.359107 0
23.750000 0.338287 0
23.755000 0.315048 0
23.760000 0.289869 0
23.765000 0.263249 0
23.770000 0.235690 0
23.775000 0.207683 0
23.780000 0.179692 0
23.785000 0.152145 0
23.790000 0.125419 0
23.795000 0.099841 0
23.800000 0.075674 0
23.805000 0.053125 0
23.810000 0.032338 0
23.815000 0.013403 0
23.820000 -0.003645 0
23.825000 -0.018814 0
23.830000 -0.032155 0
23.835000 -0.043747 0
23.840000 -0.053698 0
23.845000 -0.062130 0
23.850000 -0.069178 0
23.855000 -0.074982 0
23.860000 -0.079684 0
23.865000 -0.083420 0
23.870000 -0.086321 0
23.875000 -0.088507 0
23.880000 -0.090089 0
23.885000 -0.091166 0
23.890000 -0.091827 0
23.895000 -0.092147 0
23.900000 -0.092191 0
23.905000 -0.092016 0
23.910000 -0.091666 0
23.915000 -0.090828 0
23.920000 -0.089912 0
23.925000 -0.089001 0
23.930000 -0.088094 0
23.935000 -0.087192 0
23.940000 -0.086294 0
23.945000 -0.085401 0
23.950000 -0.084512 0
23.955000 -0.083628 0
23.960000 -0.082748 0
23.965000 -0.081872 0
23.970000 -0.081001 0
23.975000 -0.080134 0
23.980000 -0.079271 0
23.985000 -0.078412 0
23.990000 -0.077557 0
23.995000 -0.076704 0
24.000000 -0.075853 0
24.005000 -0.075002 0
24.010000 -0.074147 0
24.015000 -0.073283 0
24.020000 -0.072400 0
24.025000 -0.071483 0
24.030000 -0.070510 0
24.035000 -0.069445 0
24.040000 -0.068239 0
24.045000 -0.066818 0
24.050000 -0.065084 0
24.055000 -0.062902 0
24.060000 -0.060099 0
24.065000 -0.056459 0
24.070000 -0.051720 0
24.075000 -0.045584 0
24.080000 -0.037724 0
24.085000 -0.027807 0
24.090000 -0.015521 0
24.095000 -0.000616 0
24.100000 0.017056 0
24.105000 0.037492 0
24.110000 0.060499 0
24.115000 0.085661 0
24.120000 0.112321 0
24.125000 0.139598 0
24.130000 0.166413 0
24.135000 0.191561 0
24.140000 0.213788 0
24.145000 0.231900 0
24.150000 0.244864 0
24.155000 0.251905 0
24.160000 0.252587 1
24.165000 0.246851 0
24.170000 0.235027 0
24.175000 0.217802 0
24.180000 0.196149 0
24.185000 0.171243 0
24.190000 0.144349 0
24.195000 0.116719 0
24.200000 0.089486 0
24.205000 0.063567 0
24.210000 0.039531 0
24.215000 0.017403 0
24.220000 -0.003647 0
24.225000 -0.025634 0
24.230000 -0.051740 0
24.235000 -0.085374 0
24.240000 -0.127910 0
24.245000 -0.175689 0
24.250000 -0.217984 0
24.255000 -0.237667 2
24.260000 -0.214522 0
24.265000 -0.129545 0
24.270000 0.030580 0
24.275000 0.266962 0
24.280000 0.558882 0
24.285000 0.856592 0
24.290000 1.087801 0
24.295000 1.183172 3
24.300000 1.109747 0
24.305000 0.888135 0
24.310000 0.579710 0
24.315000 0.257879 0
24.320000 -0.019157 0
24.325000 -0.219291 0
24.330000 -0.333439 0
24.335000 -0.368700 4
24.340000 -0.343321 0
24.345000 -0.282017 0
24.350000 -0.209526 0
24.355000 -0.144019 0
24.360000 -0.093888 0
24.365000 -0.059138 0
24.370000 -0.035380 0
24.375000 -0.017555 0
24.380000 -0.001875 0
24.385000 0.013864 0
24.390000 0.030712 0
24.395000 0.049078 0
24.400000 0.069073 0
24.405000 0.090668 0
24.410000 0.113750 0
24.415000 0.138150 0
24.420000 0.163635 0
24.425000 0.189919 0
24.430000 0.216661 0
24.435000 0.243472 0
24.440000 0.269923 0
24.445000 0.295555 0
24.450000 0.319890 0
24.455000 0.342449 0
24.460000 0.362761 0
24.465000 0.380386 0
24.470000 0.394926 0
24.475000 0.406040 0
24.480000 0.413459 0
24.485000 0.416993 5
24.490000 0.416542 0
24.495000 0.412100 0
24.500000 0.403751 0
24.505000 0.391672 0
24.510000 0.376124 0
24.515000 0.357441 0
24.520000 0.336019 0
24.525000 0.312303 0
24.530000 0.286768 0
24.535000 0.259908 0
24.540000 0.232216 0
24.545000 0.204169 0
24.550000 0.176219 0
24.555000 0.148778 0
24.560000 0.122209 0
24.565000 0.096824 0
24.570000 0.072873 0
24.575000 0.050550 0
24.580000 0.029990 0
24.585000 0.011274 0
24.590000 -0.005568 0
24.595000 -0.020551 0
24.600000 -0.033726 0
24.605000 -0.045176 0
24.610000 -0.055006 0
24.615000 -0.063338 0
24.620000 -0.070307 0
24.625000 -0.076051 0
24.630000 -0.080706 0
24.635000 -0.084409 0
24.640000 -0.087286 0
24.645000 -0.089457 0
24.650000 -0.091031 0
24.655000 -0.092105 0
24.660000 -0.092764 0
24.665000 -0.093085 0
24.670000 -0.093131 0
24.675000 -0.092958 0
24.680000 -0.092610 0
24.685000 -0.091769 0
24.690000 -0.090848 0
24.695000 -0.089932 0
24.700000 -0.089021 0
24.705000 -0.088114 0
24.710000 -0.087212 0
24.715000 -0.086314 0
24.720000 -0.085421 0
24.725000 -0.084532 0
24.730000 -0.083647 0
24.735000 -0.082767 0
24.740000 -0.081891 0
24.745000 -0.081020 0
24.750000 -0.080153 0
24.755000 -0.079289 0
24.760000 -0.078430 0
24.765000 -0.077573 0
24.770000 -0.076719 0
24.775000 -0.075864 0
24.780000 -0.075007 0
24.785000 -0.074142 0
24.790000 -0.073261 0
24.795000 -0.072351 0
24.800000 -0.071391 0
24.805000 -0.070351 0
24.810000 -0.069185 0
24.815000 -0.067828 0
24.820000 -0.066190 0
24.825000 -0.064150 0
24.830000 -0.061550 0
24.835000 -0.058188 0
24.840000 -0.053823 0
24.845000 -0.048170 0
24.850000 -0.040915 0
24.855000 -0.031730 0
24.860000 -0.020298 0
24.865000 -0.006348 0
24.870000 0.010308 0
24.875000 0.029725 0
24.880000 0.051788 0
24.885000 0.076172 0
24.890000 0.102327 0
24.895000 0.129469 0
24.900000 0.156611 0
24.905000 0.182611 0
24.910000 0.206244 0
24.915000 0.226298 0
24.920000 0.241675 0
24.925000 0.251489 0
24.930000 0.255151 1
24.935000 0.252428 0
24.940000 0.243465 0
24.945000 0.228774 0
24.950000 0.209185 0
24.955000 0.185766 0
24.960000 0.159731 0
24.965000 0.132329 0
24.970000 0.104749 0
24.975000 0.078019 0
24.980000 0.052902 0
24.985000 0.029748 0
24.990000 0.008253 0
24.995000 -0.012872 0
25.000000 -0.036135 0
25.005000 -0.064947 0
25.010000 -0.102185 0
25.015000 -0.147575 0
25.020000 -0.194920 0
25.025000 -0.231016 0
25.030000 -0.237403 2
25.035000 -0.194145 0
25.040000 -0.083998 0
25.045000 0.102859 0
25.050000 0.361365 0
25.055000 0.662032 0
25.060000 0.947117 0
25.065000 1.142949 0
25.070000 1.188935 3
25.075000 1.066755 0
25.080000 0.810391 0
25.085000 0.489934 0
25.090000 0.177770 0
25.095000 -0.075134 0
25.100000 -0.244797 0
25.105000 -0.328545 0
25.110000 -0.338326 4
25.115000 -0.295950 0
25.120000 -0.227561 0
25.125000 -0.156433 0
25.130000 -0.097127 0
25.135000 -0.054189 0
25.140000 -0.025126 0
25.145000 -0.004777 0
25.150000 0.011562 0
25.155000 0.026974 0
25.160000 0.043076 0
25.165000 0.060560 0
25.170000 0.079665 0
25.175000 0.100414 0
25.180000 0.122731 0
25.185000 0.146468 0
25.190000 0.171415 0
25.195000 0.197305 0
25.200000 0.223810 0
25.205000 0.250553 0
25.210000 0.277110 0
25.215000 0.303022 0
25.220000 0.327806 0
25.225000 0.350970 0
25.230000 0.372028 0
25.235000 0.390517 0
25.240000 0.406012 0
25.245000 0.418146 0
25.250000 0.426618 0
25.255000 0.431208 0
25.260000 0.431788 5
25.265000 0.428323 0
25.270000 0.420876 0
25.275000 0.409604 0
25.280000 0.394753 0
25.285000 0.376649 0
25.290000 0.355684 0
25.295000 0.332304 0
25.300000 0.306991 0
25.305000 0.280247 0
25.310000 0.252576 0
25.315000 0.224473 0
25.320000 0.196402 0
25.325000 0.168793 0
25.330000 0.142023 0
25.335000 0.116417 0
25.340000 0.092238 0
25.345000 0.069691 0
25.350000 0.048918 0
25.355000 0.030005 0
25.360000 0.012987 0
25.365000 -0.002150 0
25.370000 -0.015456 0
25.375000 -0.027016 0
25.380000 -0.036937 0
25.385000 -0.045345 0
25.390000 -0.052375 0
25.395000 -0.058170 0
25.400000 -0.062870 0
25.405000 -0.066612 0
25.410000 -0.069527 0
25.415000 -0.071737 0
25.420000 -0.073350 0
25.425000 -0.074466 0
25.430000 -0.075172 0
25.435000 -0.075543 0
25.440000 -0.075644 0
25.445000 -0.075529 0
25.450000 -0.075243 0
25.455000 -0.074485 0
25.460000 -0.073651 0
25.465000 -0.072821 0
25.470000 -0.071995 0
25.475000 -0.071173 0
25.480000 -0.070355 0
25.485000 -0.069541 0
25.490000 -0.068731 0
25.495000 -0.067926 0
25.500000 -0.067124 0
25.505000 -0.066326 0
25.510000 -0.065532 0
25.515000 -0.064743 0
25.520000 -0.063956 0
25.525000 -0.063174 0
25.530000 -0.062394 0
25.535000 -0.061617 0
25.540000 -0.060841 0
25.545000 -0.060063 0
25.550000 -0.059281 0
25.555000 -0.058488 0
25.560000 -0.057673 0
25.565000 -0.056820 0
25.570000 -0.055905 0
25.575000 -0.054890 0
25.580000 -0.053720 0
25.585000 -0.052318 0
25.590000 -0.050578 0
25.595000 -0.048357 0
25.600000 -0.045472 0
25.605000 -0.041697 0
25.610000 -0.036761 0
25.615000 -0.030355 0
25.620000 -0.022147 0
25.625000 -0.011805 0
25.630000 0.000976 0
25.635000 0.016427 0
25.640000 0.034668 0
25.645000 0.055656 0
25.650000 0.079147 0
25.655000 0.104666 0
25.660000 0.131499 0
25.665000 0.158705 0
25.670000 0.185165 0
25.675000 0.209642 0
25.680000 0.230883 0
25.685000 0.247716 0
25.690000 0.259159 0
25.695000 0.264515 1
25.700000 0.263440 0
25.705000 0.255980 0
25.710000 0.242565 0
25.715000 0.223971 0
25.720000 0.201244 0
25.725000 0.175599 0
25.730000 0.148318 0
25.735000 0.120634 0
25.740000 0.093638 0
25.745000 0.068165 0
25.750000 0.044657 0
25.755000 0.022923 0
25.760000 0.001802 0
25.765000 -0.021110 0
25.770000 -0.049243 0
25.775000 -0.085700 0
25.780000 -0.130622 0
25.785000 -0.178238 0
25.790000 -0.215523 0
25.795000 -0.223823 2
25.800000 -0.182724 0
25.805000 -0.074422 0
25.810000 0.111375 0
25.815000 0.369722 0
25.820000 0.670480 0
25.825000 0.954349 0
25.830000 1.145976 0
25.835000 1.184480 3
25.840000 1.053058 0
25.845000 0.788869 0
25.850000 0.466270 0
25.855000 0.159192 0
25.860000 -0.082703 0
25.865000 -0.238032 0
25.870000 -0.306894 4
25.875000 -0.303990 0
25.880000 -0.253520 0
25.885000 -0.182703 0
25.890000 -0.113931 0
25.895000 -0.059466 0
25.900000 -0.021470 0
25.905000 0.003973 0
25.910000 0.022330 0
25.915000 0.037947 0
25.920000 0.053407 0
25.925000 0.069942 0
25.930000 0.088034 0
25.935000 0.107810 0
25.940000 0.129243 0
25.945000 0.152212 0
25.950000 0.176531 0
25.955000 0.201949 0
25.960000 0.228153 0
25.965000 0.254771 0
25.970000 0.281380 0
25.975000 0.307512 0
25.980000 0.332674 0
25.985000 0.356351 0
25.990000 0.378035 0
25.995000 0.397231 0
26.000000 0.413486 0
26.005000 0.426396 0
26.010000 0.435632 0
26.015000 0.440944 0
26.020000 0.442178 5
26.025000 0.439280 0
26.030000 0.432301 0
26.035000 0.421390 0
26.040000 0.406794 0
26.045000 0.388846 0
26.050000 0.367950 0
26.055000 0.344569 0
26.060000 0.319203 0
26.065000 0.292376 0
26.070000 0.264615 0
26.075000 0.236433 0
26.080000 0.208315 0
26.085000 0.180702 0
26.090000 0.153984 0
26.095000 0.128491 0
26.100000 0.104491 0
26.105000 0.082185 0
26.110000 0.061710 0
26.115000 0.043146 0
26.120000 0.026515 0
26.125000 0.011795 0
26.130000 -0.001078 0
26.135000 -0.012200 0
26.140000 -0.021689 0
26.145000 -0.029679 0
26.150000 -0.036317 0
26.155000 -0.041749 0
26.160000 -0.046121 0
26.165000 -0.049574 0
26.170000 -0.052240 0
26.175000 -0.054239 0
26.180000 -0.055680 0
26.185000 -0.056661 0
26.190000 -0.057265 0
26.195000 -0.057565 0
26.200000 -0.057622 0
26.205000 -0.057488 0
26.210000 -0.057136 0
26.215000 -0.056389 0
26.220000 -0.055644 0
26.225000 -0.054904 0
26.230000 -0.054167 0
26.235000 -0.053434 0
26.240000 -0.052705 0
26.245000 -0.051979 0
26.250000 -0.051257 0
26.255000 -0.050539 0
26.260000 -0.049824 0
26.265000 -0.049112 0
26.270000 -0.048404 0
26.275000 -0.047699 0
26.280000 -0.046998 0
26.285000 -0.046299 0
26.290000 -0.045602 0
26.295000 -0.044906 0
26.300000 -0.044208 0
26.305000 -0.043504 0
26.310000 -0.042788 0
26.315000 -0.042049 0
26.320000 -0.041269 0
26.325000 -0.040421 0
26.330000 -0.039463 0
26.335000 -0.038337 0
26.340000 -0.036955 0
26.345000 -0.035202 0
26.350000 -0.032919 0
26.355000 -0.029906 0
26.360000 -0.025914 0
26.365000 -0.020649 0
26.370000 -0.013781 0
26.375000 -0.004958 0
26.380000 0.006159 0
26.385000 0.019866 0
26.390000 0.036366 0
26.395000 0.055721 0
26.400000 0.077803 0
26.405000 0.102253 0
26.410000 0.128459 0
26.415000 0.155559 0
26.420000 0.182469 0
26.425000 0.207946 0
26.430000 0.230680 0
26.435000 0.249396 0
26.440000 0.262978 0
26.445000 0.270573 0
26.450000 0.271683 1
26.455000 0.266212 0
26.460000 0.254483 0
26.465000 0.237204 0
26.470000 0.215393 0
26.475000 0.190283 0
26.480000 0.163204 0
26.485000 0.135461 0
26.490000 0.108229 0
26.495000 0.082435 0
26.500000 0.058610 0
26.505000 0.036659 0
26.510000 0.015499 0
26.515000 -0.007263 0
26.520000 -0.035156 0
26.525000 -0.071465 0
26.530000 -0.116432 0
26.535000 -0.164047 0
26.540000 -0.200595 0
26.545000 -0.206477 2
26.550000 -0.160462 0
26.555000 -0.044427 0
26.560000 0.151109 0
26.565000 0.418197 0
26.570000 0.720864 0
26.575000 0.992986 0
26.580000 1.156219 3
26.585000 1.154952 0
26.590000 0.985717 0
26.595000 0.699344 0
26.600000 0.374483 0
26.605000 0.081299 0
26.610000 -0.137739 0
26.615000 -0.267739 0
26.620000 -0.313591 4
26.625000 -0.293584 0
26.630000 -0.234021 0
26.635000 -0.161854 0
26.640000 -0.096915 0
26.645000 -0.048076 0
26.650000 -0.014937 0
26.655000 0.007459 0
26.660000 0.024453 0
26.665000 0.039818 0
26.670000 0.055606 0
26.675000 0.072723 0
26.680000 0.091487 0
26.685000 0.111952 0
26.690000 0.134047 0
26.695000 0.157623 0
26.700000 0.182463 0
26.705000 0.208285 0
26.710000 0.234744 0
26.715000 0.261438 0
26.720000 0.287918 0
26.725000 0.313692 0
26.730000 0.338249 0
26.735000 0.361066 0
26.740000 0.381630 0
26.745000 0.399457 0
26.750000 0.414109 0
26.755000 0.425212 0
26.760000 0.432471 0
26.765000 0.435681 5
26.770000 0.434738 0
26.775000 0.429644 0
26.780000 0.420506 0
26.785000 0.407531 0
26.790000 0.391019 0
26.795000 0.371352 0
26.800000 0.348976 0
26.805000 0.324386 0
26.810000 0.298108 0
26.815000 0.270676 0
26.820000 0.242621 0
26.825000 0.214447 0
26.830000 0.186620 0
26.835000 0.159558 0
26.840000 0.133619 0
26.845000 0.109097 0
26.850000 0.086219 0
26.855000 0.065148 0
26.860000 0.045982 0
26.865000 0.028762 0
26.870000 0.013480 0
26.875000 0.000081 0
26.880000 -0.011522 0
26.885000 -0.021443 0
26.890000 -0.029815 0
26.895000 -0.036785 0
26.900000 -0.042500 0
26.905000 -0.047112 0
26.910000 -0.050762 0
26.915000 -0.053589 0
26.920000 -0.055718 0
26.925000 -0.057261 0
26.930000 -0.058321 0
26.935000 -0.058985 0
26.940000 -0.059329 0
26.945000 -0.059417 0
26.950000 -0.059304 0
26.955000 -0.058963 0
26.960000 -0.058206 0
26.965000 -0.057453 0
26.970000 -0.056703 0
26.975000 -0.055958 0
26.980000 -0.055216 0
26.985000 -0.054478 0
26.990000 -0.053743 0
26.995000 -0.053012 0
27.000000 -0.052285 0
27.005000 -0.051561 0
27.010000 -0.050841 0
27.015000 -0.050124 0
27.020000 -0.049411 0
27.025000 -0.048701 0
27.030000 -0.047994 0
27.035000 -0.047288 0
27.040000 -0.046584 0
27.045000 -0.045878 0
27.050000 -0.045166 0
27.055000 -0.044442 0
27.060000 -0.043694 0
27.065000 -0.042905 0
27.070000 -0.042047 0
27.075000 -0.041077 0
27.080000 -0.039935 0
27.085000 -0.038532 0
27.090000 -0.036747 0
27.095000 -0.034418 0
27.100000 -0.031339 0
27.105000 -0.027253 0
27.110000 -0.021858 0
27.115000 -0.014815 0
27.120000 -0.005768 0
27.125000 0.005626 0
27.130000 0.019659 0
27.135000 0.036525 0
27.140000 0.056264 0
27.145000 0.078718 0
27.150000 0.103486 0
27.155000 0.129909 0
27.160000 0.157071 0
27.165000 0.183840 0
27.170000 0.208935 0
27.175000 0.231020 0
27.180000 0.248824 0
27.185000 0.261256 0
27.190000 0.267516 1
27.195000 0.267183 0
27.200000 0.260253 0
27.205000 0.247148 0
27.210000 0.228670 0
27.215000 0.205918 0
27.220000 0.180180 0
27.225000 0.152812 0
27.230000 0.125116 0
27.235000 0.098228 0
27.240000 0.072991 0
27.245000 0.049790 0
27.250000 0.028265 0
27.255000 0.006927 0
27.260000 -0.017087 0
27.265000 -0.047504 0
27.270000 -0.087000 0
27.275000 -0.133965 0
27.280000 -0.179555 0
27.285000 -0.207312 2
27.290000 -0.196155 0
27.295000 -0.125138 0
27.300000 0.021575 0
27.305000 0.247968 0
27.310000 0.535709 0
27.315000 0.835064 0
27.320000 1.070220 0
27.325000 1.166725 3
27.330000 1.089543 0
27.335000 0.862196 0
27.340000 0.550462 0
27.345000 0.231027 0
27.350000 -0.037482 0
27.355000 -0.224667 0
27.360000 -0.323951 0
27.365000 -0.345192 4
27.370000 -0.309392 0
27.375000 -0.243180 0
27.380000 -0.171351 0
27.385000 -0.110235 0
27.390000 -0.065620 0
27.395000 -0.035490 0
27.400000 -0.014630 0
27.405000 0.001891 0
27.410000 0.017348 0
27.415000 0.033461 0
27.420000 0.050968 0
27.425000 0.070116 0
27.430000 0.090934 0
27.435000 0.113341 0
27.440000 0.137183 0
27.445000 0.162242 0
27.450000 0.188239 0
27.455000 0.214835 0
27.460000 0.241637 0
27.465000 0.268204 0
27.470000 0.294061 0
27.475000 0.318709 0
27.480000 0.341642 0
27.485000 0.362362 0
27.490000 0.380399 0
27.495000 0.395325 0
27.500000 0.406773 0
27.505000 0.414452 0
27.510000 0.418156 5
27.515000 0.417774 0
27.520000 0.413297 0
27.525000 0.404815 0
27.530000 0.392516 0
27.535000 0.376678 0
27.540000 0.357660 0
27.545000 0.335883 0
27.550000 0.311822 0
27.555000 0.285980 0
27.560000 0.258877 0
27.565000 0.231030 0
27.570000 0.202936 0
27.575000 0.175060 0
27.580000 0.147822 0
27.585000 0.121587 0
27.590000 0.096662 0
27.595000 0.073288 0
27.600000 0.051645 0
27.605000 0.031851 0
27.610000 0.013966 0
27.615000 -0.002001 0
27.620000 -0.016084 0
27.625000 -0.028357 0
27.630000 -0.038919 0
27.635000 -0.047893 0
27.640000 -0.055415 0
27.645000 -0.061629 0
27.650000 -0.066681 0
27.655000 -0.070714 0
27.660000 -0.073865 0
27.665000 -0.076261 0
27.670000 -0.078019 0
27.675000 -0.079244 0
27.680000 -0.080030 0
27.685000 -0.080457 0
27.690000 -0.080594 0
27.695000 -0.080500 0
27.700000 -0.080224 0
27.705000 -0.079742 0
27.710000 -0.078881 0
27.715000 -0.078025 0
27.720000 -0.077173 0
27.725000 -0.076325 0
27.730000 -0.075482 0
27.735000 -0.074642 0
27.740000 -0.073807 0
27.745000 -0.072976 0
27.750000 -0.072149 0
27.755000 -0.071327 0
27.760000 -0.070508 0
27.765000 -0.069693 0
27.770000 -0.068882 0
27.775000 -0.068075 0
27.780000 -0.067271 0
27.785000 -0.066469 0
27.790000 -0.065669 0
27.795000 -0.064867 0
27.800000 -0.064060 0
27.805000 -0.063241 0
27.810000 -0.062400 0
27.815000 -0.061518 0
27.820000 -0.060569 0
27.825000 -0.059512 0
27.830000 -0.058288 0
27.835000 -0.056815 0
27.840000 -0.054975 0
27.845000 -0.052616 0
27.850000 -0.049542 0
27.855000 -0.045508 0
27.860000 -0.040228 0
27.865000 -0.033375 0
27.870000 -0.024607 0
27.875000 -0.013585 0
27.880000 -0.000012 0
27.885000 0.016321 0
27.890000 0.035491 0
27.895000 0.057389 0
27.900000 0.081690 0
27.905000 0.107816 0
27.910000 0.134946 0
27.915000 0.162035 0
27.920000 0.187874 0
27.925000 0.211174 0
27.930000 0.230665 0
27.935000 0.245215 0
27.940000 0.253935 0
27.945000 0.256270 1
27.950000 0.252055 0
27.955000 0.241536 0
27.960000 0.225343 0
27.965000 0.204430 0
27.970000 0.179978 0
27.975000 0.153288 0
27.980000 0.125664 0
27.985000 0.098303 0
27.990000 0.072184 0
27.995000 0.047942 0
28.000000 0.025661 0
28.005000 0.004554 0
28.010000 -0.017393 0
28.015000 -0.043437 0
28.020000 -0.077109 0
28.025000 -0.119820 0
28.030000 -0.167662 0
28.035000 -0.209287 0
28.040000 -0.226722 2
28.045000 -0.199009 0
28.050000 -0.106809 0
28.055000 0.062705 0
28.060000 0.308496 0
28.065000 0.605224 0
28.070000 0.896910 0
28.075000 1.107052 0
28.080000 1.168607 3
28.085000 1.059156 0
28.090000 0.812217 0
28.095000 0.494750 0
28.100000 0.178806 0
28.105000 -0.082816 0
28.110000 -0.263668 0
28.115000 -0.358852 0
28.120000 -0.378380 4
28.125000 -0.342468 0
28.130000 -0.276512 0
28.135000 -0.204303 0
28.140000 -0.141905 0
28.145000 -0.095519 0
28.150000 -0.063740 0
28.155000 -0.041739 0
28.160000 -0.024643 0
28.165000 -0.009041 0
28.170000 0.006952 0
28.175000 0.024193 0
28.180000 0.042999 0
28.185000 0.063438 0
28.190000 0.085457 0
28.195000 0.108930 0
28.200000 0.133669 0
28.205000 0.159431 0
28.210000 0.185914 0
28.215000 0.212763 0
28.220000 0.239579 0
28.225000 0.265923 0
28.230000 0.291329 0
28.235000 0.315317 0
28.240000 0.337406 0
28.245000 0.357133 0
28.250000 0.374064 0
28.255000 0.387815 0
28.260000 0.398060 0
28.265000 0.404549 0
28.270000 0.407115 5
28.275000 0.405681 0
28.280000 0.400264 0
28.285000 0.390974 0
28.290000 0.378011 0
28.295000 0.361655 0
28.300000 0.342259 0
28.305000 0.320235 0
28.310000 0.296038 0
28.315000 0.270150 0
28.320000 0.243067 0
28.325000 0.215281 0
28.330000 0.187264 0
28.335000 0.159460 0
28.340000 0.132268 0
28.345000 0.106039 0
28.350000 0.081068 0
28.355000 0.057592 0
28.360000 0.035788 0
28.365000 0.015776 0
28.370000 -0.002377 0
28.375000 -0.018655 0
28.380000 -0.033083 0
28.385000 -0.045721 0
28.390000 -0.056661 0
