0.000000 1.148705 3
0.005000 1.048176 0
0.010000 0.794254 0
0.015000 0.463241 0
0.020000 0.137698 0
0.025000 -0.123899 0
0.030000 -0.294741 0
0.035000 -0.372842 0
0.040000 -0.373014 4
0.045000 -0.321008 0
0.050000 -0.246353 0
0.055000 -0.173502 0
0.060000 -0.115766 0
0.065000 -0.075328 0
0.070000 -0.047812 0
0.075000 -0.027330 0
0.080000 -0.009347 0
0.085000 0.008732 0
0.090000 0.028078 0
0.095000 0.049092 0
0.100000 0.071826 0
0.105000 0.096169 0
0.110000 0.121916 0
0.115000 0.148786 0
0.120000 0.176428 0
0.125000 0.204429 0
0.130000 0.232317 0
0.135000 0.259579 0
0.140000 0.285669 0
0.145000 0.310030 0
0.150000 0.332113 0
0.155000 0.351391 0
0.160000 0.367388 0
0.165000 0.379693 0
0.170000 0.387976 0
0.175000 0.392009 5
0.180000 0.391666 0
0.185000 0.386939 0
0.190000 0.377930 0
0.195000 0.364854 0
0.200000 0.348026 0
0.205000 0.327848 0
0.210000 0.304797 0
0.215000 0.279399 0
0.220000 0.252214 0
0.225000 0.223816 0
0.230000 0.194768 0
0.235000 0.165610 0
0.240000 0.136838 0
0.245000 0.108895 0
0.250000 0.082157 0
0.255000 0.056935 0
0.260000 0.033465 0
0.265000 0.011913 0
0.270000 -0.007623 0
0.275000 -0.025105 0
0.280000 -0.040552 0
0.285000 -0.054026 0
0.290000 -0.065627 0
0.295000 -0.075479 0
0.300000 -0.083730 0
0.305000 -0.090535 0
0.310000 -0.096054 0
0.315000 -0.100445 0
0.320000 -0.103861 0
0.325000 -0.106445 0
0.330000 -0.108327 0
0.335000 -0.109626 0
0.340000 -0.110444 0
0.345000 -0.110871 0
0.350000 -0.110986 0
0.355000 -0.110852 0
0.360000 -0.110435 0
0.365000 -0.109499 0
0.370000 -0.108568 0
0.375000 -0.107641 0
0.380000 -0.106719 0
0.385000 -0.105802 0
0.390000 -0.104889 0
0.395000 -0.103981 0
0.400000 -0.103077 0
0.405000 -0.102178 0
0.410000 -0.101283 0
0.415000 -0.100393 0
0.420000 -0.099506 0
0.425000 -0.098623 0
0.430000 -0.097743 0
0.435000 -0.096865 0
0.440000 -0.095985 0
0.445000 -0.095101 0
0.450000 -0.094205 0
0.455000 -0.093284 0
0.460000 -0.092321 0
0.465000 -0.091285 0
0.470000 -0.090131 0
0.475000 -0.088792 0
0.480000 -0.087173 0
0.485000 -0.085143 0
0.490000 -0.082525 0
0.495000 -0.079095 0
0.500000 -0.074573 0
0.505000 -0.068632 0
0.510000 -0.060906 0
0.515000 -0.051016 0
0.520000 -0.038598 0
0.525000 -0.023355 0
0.530000 -0.005102 0
0.535000 0.016168 0
0.540000 0.040239 0
0.545000 0.066626 0
0.550000 0.094563 0
0.555000 0.123014 0
0.560000 0.150723 0
0.565000 0.176295 0
0.570000 0.198310 0
0.575000 0.215450 0
0.580000 0.226632 0
0.585000 0.231118 1
0.590000 0.228597 0
0.595000 0.219220 0
0.600000 0.203584 0
0.605000 0.182671 0
0.610000 0.157746 0
0.615000 0.130225 0
0.620000 0.101549 0
0.625000 0.073041 0
0.630000 0.045775 0
0.635000 0.020391 0
0.640000 -0.003190 0
0.645000 -0.026184 0
0.650000 -0.051286 0
0.655000 -0.082354 0
0.660000 -0.122620 0
0.665000 -0.171336 0
0.670000 -0.220325 0
0.675000 -0.253021 2
0.680000 -0.247286 0
0.685000 -0.180494 0
0.690000 -0.034949 0
0.695000 0.195049 0
0.700000 0.492061 0
0.705000 0.805090 0
0.710000 1.054087 0
0.715000 1.158880 3
0.720000 1.080743 0
0.725000 0.843112 0
0.730000 0.517482 0
0.735000 0.186690 0
0.740000 -0.087160 0
0.745000 -0.273154 0
0.750000 -0.366050 0
0.755000 -0.378127 4
0.760000 -0.333343 0
0.765000 -0.260795 0
0.770000 -0.186154 0
0.775000 -0.124879 0
0.780000 -0.081059 0
0.785000 -0.051270 0
0.790000 -0.029693 0
0.795000 -0.011441 0
0.800000 0.006457 0
0.805000 0.025423 0
0.810000 0.045991 0
0.815000 0.068274 0
0.820000 0.092192 0
0.825000 0.117567 0
0.830000 0.144140 0
0.835000 0.171585 0
0.840000 0.199510 0
0.845000 0.227467 0
0.850000 0.254961 0
0.855000 0.281462 0
0.860000 0.306422 0
0.865000 0.329295 0
0.870000 0.349553 0
0.875000 0.366707 0
0.880000 0.380327 0
0.885000 0.390060 0
0.890000 0.395642 0
0.895000 0.396913 5
0.900000 0.393820 0
0.905000 0.386424 0
0.910000 0.374894 0
0.915000 0.359504 0
0.920000 0.340617 0
0.925000 0.318676 0
0.930000 0.294182 0
0.935000 0.267675 0
0.940000 0.239719 0
0.945000 0.210875 0
0.950000 0.181687 0
0.955000 0.152666 0
0.960000 0.124273 0
0.965000 0.096912 0
0.970000 0.070920 0
0.975000 0.046564 0
0.980000 0.024042 0
0.985000 0.003481 0
0.990000 -0.015051 0
0.995000 -0.031546 0
1.000000 -0.046044 0
1.005000 -0.058626 0
1.010000 -0.069402 0
1.015000 -0.078508 0
1.020000 -0.086092 0
1.025000 -0.092311 0
1.030000 -0.097322 0
1.035000 -0.101281 0
1.040000 -0.104332 0
1.045000 -0.106613 0
1.050000 -0.108247 0
1.055000 -0.109345 0
1.060000 -0.110002 0
1.065000 -0.110304 0
1.070000 -0.110320 0
1.075000 -0.110111 0
1.080000 -0.109282 0
1.085000 -0.108351 0
1.090000 -0.107426 0
1.095000 -0.106505 0
1.100000 -0.105589 0
1.105000 -0.104677 0
1.110000 -0.103770 0
1.115000 -0.102867 0
1.120000 -0.101969 0
1.125000 -0.101075 0
1.130000 -0.100186 0
1.135000 -0.099301 0
1.140000 -0.098419 0
1.145000 -0.097541 0
1.150000 -0.096666 0
1.155000 -0.095792 0
1.160000 -0.094916 0
1.165000 -0.094034 0
1.170000 -0.093138 0
1.175000 -0.092214 0
1.180000 -0.091241 0
1.185000 -0.090188 0
1.190000 -0.089006 0
1.195000 -0.087624 0
1.200000 -0.085941 0
1.205000 -0.083820 0
1.210000 -0.081078 0
1.215000 -0.077484 0
1.220000 -0.072755 0
1.225000 -0.066559 0
1.230000 -0.058533 0
1.235000 -0.048303 0
1.240000 -0.035516 0
1.245000 -0.019891 0
1.250000 -0.001267 0
1.255000 0.020339 0
1.260000 0.044685 0
1.265000 0.071263 0
1.270000 0.099289 0
1.275000 0.127718 0
1.280000 0.155295 0
1.285000 0.180638 0
1.290000 0.202351 0
1.295000 0.219147 0
1.300000 0.229973 0
1.305000 0.234125 1
1.310000 0.231316 0
1.315000 0.221712 0
1.320000 0.205917 0
1.325000 0.184908 0
1.330000 0.159934 0
1.335000 0.132395 0
1.340000 0.103709 0
1.345000 0.075183 0
1.350000 0.047879 0
1.355000 0.022438 0
1.360000 -0.001195 0
1.365000 -0.024174 0
1.370000 -0.049102 0
1.375000 -0.079755 0
1.380000 -0.119431 0
1.385000 -0.167743 0
1.390000 -0.217196 0
1.395000 -0.252016 2
1.400000 -0.250643 0
1.405000 -0.190592 0
1.410000 -0.053694 0
1.415000 0.167343 0
1.420000 0.458467 0
1.425000 0.773465 0
1.430000 1.035856 0
1.435000 1.164238 3
1.440000 1.112450 0
1.445000 0.895245 0
1.450000 0.577882 0
1.455000 0.242729 0
1.460000 -0.044307 0
1.465000 -0.247536 0
1.470000 -0.357824 0
1.475000 -0.384448 4
1.480000 -0.349134 0
1.485000 -0.280137 0
1.490000 -0.204171 0
1.495000 -0.139032 0
1.500000 -0.091128 0
1.505000 -0.058378 0
1.510000 -0.035231 0
1.515000 -0.016467 0
1.520000 0.001333 0
1.525000 0.019918 0
1.530000 0.039999 0
1.535000 0.061773 0
1.540000 0.085206 0
1.545000 0.110147 0
1.550000 0.136364 0
1.555000 0.163557 0
1.560000 0.191362 0
1.565000 0.219355 0
1.570000 0.247063 0
1.575000 0.273975 0
1.580000 0.299557 0
1.585000 0.323269 0
1.590000 0.344582 0
1.595000 0.362997 0
1.600000 0.378068 0
1.605000 0.389414 0
1.610000 0.396738 0
1.615000 0.399839 5
1.620000 0.398621 0
1.625000 0.393093 0
1.630000 0.383378 0
1.635000 0.369698 0
1.640000 0.352374 0
1.645000 0.331807 0
1.650000 0.308464 0
1.655000 0.282862 0
1.660000 0.255546 0
1.665000 0.227073 0
1.670000 0.197988 0
1.675000 0.168814 0
1.680000 0.140030 0
1.685000 0.112065 0
1.690000 0.085287 0
1.695000 0.059996 0
1.700000 0.036424 0
1.705000 0.014735 0
1.710000 -0.004971 0
1.715000 -0.022654 0
1.720000 -0.038326 0
1.725000 -0.052045 0
1.730000 -0.063902 0
1.735000 -0.074018 0
1.740000 -0.082531 0
1.745000 -0.089591 0
1.750000 -0.095353 0
1.755000 -0.099972 0
1.760000 -0.103598 0
1.765000 -0.106372 0
1.770000 -0.108423 0
1.775000 -0.109868 0
1.780000 -0.110813 0
1.785000 -0.111348 0
1.790000 -0.111553 0
1.795000 -0.111493 0
1.800000 -0.111127 0
1.805000 -0.110188 0
1.810000 -0.109253 0
1.815000 -0.108323 0
1.820000 -0.107398 0
1.825000 -0.106477 0
1.830000 -0.105561 0
1.835000 -0.104649 0
1.840000 -0.103742 0
1.845000 -0.102839 0
1.850000 -0.101941 0
1.855000 -0.101048 0
1.860000 -0.100158 0
1.865000 -0.099272 0
1.870000 -0.098390 0
1.875000 -0.097510 0
1.880000 -0.096631 0
1.885000 -0.095750 0
1.890000 -0.094862 0
1.895000 -0.093958 0
1.900000 -0.093025 0
1.905000 -0.092041 0
1.910000 -0.090973 0
1.915000 -0.089771 0
1.920000 -0.088363 0
1.925000 -0.086648 0
1.930000 -0.084486 0
1.935000 -0.081695 0
1.940000 -0.078043 0
1.945000 -0.073251 0
1.950000 -0.066990 0
1.955000 -0.058901 0
1.960000 -0.048616 0
1.965000 -0.035790 0
1.970000 -0.020147 0
1.975000 -0.001529 0
1.980000 0.020048 0
1.985000 0.044347 0
1.990000 0.070873 0
1.995000 0.098863 0
2.000000 0.127296 0
2.005000 0.154945 0
2.010000 0.180452 0
2.015000 0.202443 0
2.020000 0.219637 0
2.025000 0.230981 0
2.030000 0.235748 1
2.035000 0.233616 0
2.040000 0.224707 0
2.045000 0.209570 0
2.050000 0.189130 0
2.055000 0.164590 0
2.060000 0.137315 0
2.065000 0.108706 0
2.070000 0.080075 0
2.075000 0.052513 0
2.080000 0.026733 0
2.085000 0.002825 0
2.090000 -0.020121 0
2.095000 -0.044392 0
2.100000 -0.073557 0
2.105000 -0.111177 0
2.110000 -0.157948 0
2.115000 -0.208243 0
2.120000 -0.248299 0
2.125000 -0.257845 2
2.130000 -0.214491 0
2.135000 -0.098783 0
2.140000 0.100060 0
2.145000 0.375036 0
2.150000 0.690010 0
2.155000 0.976637 0
2.160000 1.152318 0
2.165000 1.156972 3
2.170000 0.985664 0
2.175000 0.690843 0
2.180000 0.352868 0
2.185000 0.044716 0
2.190000 -0.188403 0
2.195000 -0.329698 0
2.200000 -0.383006 4
2.205000 -0.366186 0
2.210000 -0.305756 0
2.215000 -0.229659 0
2.220000 -0.159256 0
2.225000 -0.104887 0
2.230000 -0.067034 0
2.235000 -0.040934 0
2.240000 -0.021004 0
2.245000 -0.003128 0
2.250000 0.015003 0
2.255000 0.034424 0
2.260000 0.055487 0
2.265000 0.078232 0
2.270000 0.102549 0
2.275000 0.128240 0
2.280000 0.155038 0
2.285000 0.182607 0
2.290000 0.210555 0
2.295000 0.238433 0
2.300000 0.265752 0
2.305000 0.291992 0
2.310000 0.316618 0
2.315000 0.339100 0
2.320000 0.358930 0
2.325000 0.375638 0
2.330000 0.388815 0
2.335000 0.398125 0
2.340000 0.403322 0
2.345000 0.404258 5
2.350000 0.400889 0
2.355000 0.393282 0
2.360000 0.381605 0
2.365000 0.366127 0
2.370000 0.347204 0
2.375000 0.325267 0
2.380000 0.300802 0
2.385000 0.274337 0
2.390000 0.246417 0
2.395000 0.217590 0
2.400000 0.188388 0
2.405000 0.159310 0
2.410000 0.130812 0
2.415000 0.103291 0
2.420000 0.077083 0
2.425000 0.052459 0
2.430000 0.029620 0
2.435000 0.008701 0
2.440000 -0.010223 0
2.445000 -0.027134 0
2.450000 -0.042062 0
2.455000 -0.055078 0
2.460000 -0.066283 0
2.465000 -0.075806 0
2.470000 -0.083786 0
2.475000 -0.090377 0
2.480000 -0.095731 0
2.485000 -0.100001 0
2.490000 -0.103331 0
2.495000 -0.105857 0
2.500000 -0.107705 0
2.505000 -0.108986 0
2.510000 -0.109799 0
2.515000 -0.110230 0
2.520000 -0.110354 0
2.525000 -0.110232 0
2.530000 -0.109828 0
2.535000 -0.108895 0
2.540000 -0.107967 0
2.545000 -0.107043 0
2.550000 -0.106124 0
2.555000 -0.105210 0
2.560000 -0.104300 0
2.565000 -0.103395 0
2.570000 -0.102494 0
2.575000 -0.101598 0
2.580000 -0.100706 0
2.585000 -0.099818 0
2.590000 -0.098934 0
2.595000 -0.098055 0
2.600000 -0.097178 0
2.605000 -0.096304 0
2.610000 -0.095430 0
2.615000 -0.094553 0
2.620000 -0.093667 0
2.625000 -0.092764 0
2.630000 -0.091829 0
2.635000 -0.090839 0
2.640000 -0.089757 0
2.645000 -0.088532 0
2.650000 -0.087088 0
2.655000 -0.085319 0
2.660000 -0.083081 0
2.665000 -0.080188 0
2.670000 -0.076404 0
2.675000 -0.071443 0
2.680000 -0.064977 0
2.685000 -0.056649 0
2.690000 -0.046094 0
2.695000 -0.032978 0
2.700000 -0.017036 0
2.705000 0.001870 0
2.710000 0.023706 0
2.715000 0.048215 0
2.720000 0.074885 0
2.725000 0.102939 0
2.730000 0.131349 0
2.735000 0.158890 0
2.740000 0.184215 0
2.745000 0.205965 0
2.750000 0.222885 0
2.755000 0.233945 0
2.760000 0.238443 1
2.765000 0.236077 0
2.770000 0.226981 0
2.775000 0.211709 0
2.780000 0.191184 0
2.785000 0.166597 0
2.790000 0.139303 0
2.795000 0.110685 0
2.800000 0.082041 0
2.805000 0.054451 0
2.810000 0.028629 0
2.815000 0.004677 0
2.820000 -0.018277 0
2.825000 -0.042452 0
2.830000 -0.071348 0
2.835000 -0.108535 0
2.840000 -0.154914 0
2.845000 -0.205308 0
2.850000 -0.246552 0
2.855000 -0.258884 2
2.860000 -0.220140 0
2.865000 -0.110690 0
2.870000 0.081081 0
2.875000 0.350194 0
2.880000 0.663861 0
2.885000 0.957126 0
2.890000 1.148209 0
2.895000 1.173425 3
2.900000 1.020756 0
2.905000 0.736379 0
2.910000 0.399235 0
2.915000 0.084597 0
2.920000 -0.158756 0
2.925000 -0.311060 0
2.930000 -0.374117 4
2.935000 -0.364385 0
2.940000 -0.307665 0
2.945000 -0.232157 0
2.950000 -0.160332 0
2.955000 -0.103887 0
2.960000 -0.064275 0
2.965000 -0.037100 0
2.970000 -0.016713 0
2.975000 0.001224 0
2.980000 0.019217 0
2.985000 0.038420 0
2.990000 0.059244 0
2.995000 0.081754 0
3.000000 0.105854 0
3.005000 0.131358 0
3.010000 0.158003 0
3.015000 0.185466 0
3.020000 0.213359 0
3.025000 0.241240 0
3.030000 0.268626 0
3.035000 0.294998 0
3.040000 0.319826 0
3.045000 0.342576 0
3.050000 0.362737 0
3.055000 0.379833 0
3.060000 0.393448 0
3.065000 0.403236 0
3.070000 0.408938 0
3.075000 0.410393 5
3.080000 0.407546 0
3.085000 0.400446 0
3.090000 0.389251 0
3.095000 0.374217 0
3.100000 0.355689 0
3.105000 0.334087 0
3.110000 0.309894 0
3.115000 0.283630 0
3.120000 0.255840 0
3.125000 0.227073 0
3.130000 0.197863 0
3.135000 0.168714 0
3.140000 0.140087 0
3.145000 0.112388 0
3.150000 0.085961 0
3.155000 0.061086 0
3.160000 0.037971 0
3.165000 0.016763 0
3.170000 -0.002458 0
3.175000 -0.019665 0
3.180000 -0.034884 0
3.185000 -0.048179 0
3.190000 -0.059649 0
3.195000 -0.069418 0
3.200000 -0.077625 0
3.205000 -0.084422 0
3.210000 -0.089962 0
3.215000 -0.094397 0
3.220000 -0.097873 0
3.225000 -0.100528 0
3.230000 -0.102488 0
3.235000 -0.103866 0
3.240000 -0.104763 0
3.245000 -0.105267 0
3.250000 -0.105454 0
3.255000 -0.105388 0
3.260000 -0.105029 0
3.265000 -0.104120 0
3.270000 -0.103215 0
3.275000 -0.102316 0
3.280000 -0.101420 0
3.285000 -0.100529 0
3.290000 -0.099643 0
3.295000 -0.098761 0
3.300000 -0.097883 0
3.305000 -0.097010 0
3.310000 -0.096141 0
3.315000 -0.095276 0
3.320000 -0.094415 0
3.325000 -0.093558 0
3.330000 -0.092704 0
3.335000 -0.091852 0
3.340000 -0.091001 0
3.345000 -0.090148 0
3.350000 -0.089287 0
3.355000 -0.088410 0
3.360000 -0.087503 0
3.365000 -0.086544 0
3.370000 -0.085501 0
3.375000 -0.084323 0
3.380000 -0.082940 0
3.385000 -0.081249 0
3.390000 -0.079113 0
3.395000 -0.076353 0
3.400000 -0.072740 0
3.405000 -0.067996 0
3.410000 -0.061800 0
3.415000 -0.053796 0
3.420000 -0.043620 0
3.425000 -0.030931 0
3.430000 -0.015450 0
3.435000 0.002983 0
3.440000 0.024364 0
3.445000 0.048472 0
3.450000 0.074836 0
3.455000 0.102718 0
3.460000 0.131128 0
3.465000 0.158868 0
3.470000 0.184602 0
3.475000 0.206969 0
3.480000 0.224689 0
3.485000 0.236692 0
3.490000 0.242218 1
3.495000 0.240901 0
3.500000 0.232807 0
3.505000 0.218428 0
3.510000 0.198631 0
3.515000 0.174575 0
3.520000 0.147594 0
3.525000 0.119076 0
3.530000 0.090337 0
3.535000 0.062503 0
3.540000 0.036356 0
3.545000 0.012116 0
3.550000 -0.010905 0
3.555000 -0.034696 0
3.560000 -0.062593 0
3.565000 -0.098299 0
3.570000 -0.143376 0
3.575000 -0.193820 0
3.580000 -0.237759 0
3.585000 -0.256271 2
3.590000 -0.227259 0
3.595000 -0.130362 0
3.600000 0.047795 0
3.605000 0.305683 0
3.610000 0.615711 0
3.615000 0.917787 0
3.620000 1.130904 0
3.625000 1.185768 3
3.630000 1.060214 0
3.635000 0.791701 0
3.640000 0.457260 0
3.645000 0.135525 0
3.650000 -0.119705 0
3.655000 -0.284683 0
3.660000 -0.358740 4
3.665000 -0.356877 0
3.670000 -0.304320 0
3.675000 -0.229712 0
3.680000 -0.156775 0
3.685000 -0.098585 0
3.690000 -0.057517 0
3.695000 -0.029485 0
3.700000 -0.008754 0
3.705000 0.009220 0
3.710000 0.027109 0
3.715000 0.046162 0
3.720000 0.066831 0
3.725000 0.089197 0
3.730000 0.113172 0
3.735000 0.138569 0
3.740000 0.165130 0
3.745000 0.192527 0
3.750000 0.220372 0
3.755000 0.248221 0
3.760000 0.275585 0
3.765000 0.301942 0
3.770000 0.326753 0
3.775000 0.349481 0
3.780000 0.369608 0
3.785000 0.386654 0
3.790000 0.400197 0
3.795000 0.409889 0
3.800000 0.415469 0
3.805000 0.416778 5
3.810000 0.413760 0
3.815000 0.406472 0
3.820000 0.395074 0
3.825000 0.379831 0
3.830000 0.361093 0
3.835000 0.339292 0
3.840000 0.314916 0
3.845000 0.288494 0
3.850000 0.260577 0
3.855000 0.231720 0
3.860000 0.202460 0
3.865000 0.173305 0
3.870000 0.144714 0
3.875000 0.117093 0
3.880000 0.090784 0
3.885000 0.066060 0
3.890000 0.043126 0
3.895000 0.022122 0
3.900000 0.003121 0
3.905000 -0.013856 0
3.910000 -0.028840 0
3.915000 -0.041903 0
3.920000 -0.053148 0
3.925000 -0.062704 0
3.930000 -0.070713 0
3.935000 -0.077330 0
3.940000 -0.082709 0
3.945000 -0.087004 0
3.950000 -0.090360 0
3.955000 -0.092914 0
3.960000 -0.094793 0
3.965000 -0.096107 0
3.970000 -0.096957 0
3.975000 -0.097428 0
3.980000 -0.097595 0
3.985000 -0.097520 0
3.990000 -0.097166 0
3.995000 -0.096296 0
4.000000 -0.095431 0
4.005000 -0.094570 0
4.010000 -0.093713 0
4.015000 -0.092861 0
4.020000 -0.092013 0
4.025000 -0.091169 0
4.030000 -0.090329 0
4.035000 -0.089493 0
4.040000 -0.088661 0
4.045000 -0.087834 0
4.050000 -0.087010 0
4.055000 -0.086190 0
4.060000 -0.085372 0
4.065000 -0.084556 0
4.070000 -0.083740 0
4.075000 -0.082919 0
4.080000 -0.082089 0
4.085000 -0.081238 0
4.090000 -0.080351 0
4.095000 -0.079402 0
4.100000 -0.078353 0
4.105000 -0.077146 0
4.110000 -0.075700 0
4.115000 -0.073899 0
4.120000 -0.071591 0
4.125000 -0.068575 0
4.130000 -0.064602 0
4.135000 -0.059374 0
4.140000 -0.052550 0
4.145000 -0.043764 0
4.150000 -0.032654 0
4.155000 -0.018892 0
4.160000 -0.002241 0
4.165000 0.017400 0
4.170000 0.039941 0
4.175000 0.065056 0
4.180000 0.092155 0
4.185000 0.120377 0
4.190000 0.148622 0
4.195000 0.175607 0
4.200000 0.199956 0
4.205000 0.220316 0
4.210000 0.235474 0
4.215000 0.244484 0
4.220000 0.246756 1
4.225000 0.242125 0
4.230000 0.230869 0
4.235000 0.213677 0
4.240000 0.191584 0
4.245000 0.165863 0
4.250000 0.137907 0
4.255000 0.109097 0
4.260000 0.080680 0
4.265000 0.053636 0
4.270000 0.028493 0
4.275000 0.005038 0
4.280000 -0.018087 0
4.285000 -0.043669 0
4.290000 -0.075501 0
4.295000 -0.116534 0
4.300000 -0.165626 0
4.305000 -0.214377 0
4.310000 -0.246412 2
4.315000 -0.240177 0
4.320000 -0.173752 0
4.325000 -0.029936 0
4.330000 0.197157 0
4.335000 0.491668 0
4.340000 0.805898 0
4.345000 1.063417 0
4.350000 1.184875 3
4.355000 1.125993 0
4.360000 0.902302 0
4.365000 0.581783 0
4.370000 0.247944 0
4.375000 -0.034003 0
4.380000 -0.229949 0
4.385000 -0.332379 0
4.390000 -0.352047 4
4.395000 -0.311973 0
4.400000 -0.241119 0
4.405000 -0.165911 0
4.410000 -0.103037 0
4.415000 -0.057637 0
4.420000 -0.026810 0
4.425000 -0.004784 0
4.430000 0.013504 0
4.435000 0.031219 0
4.440000 0.049911 0
4.445000 0.070176 0
4.450000 0.092156 0
4.455000 0.115787 0
4.460000 0.140897 0
4.465000 0.167235 0
4.470000 0.194481 0
4.475000 0.222250 0
4.480000 0.250098 0
4.485000 0.277534 0
4.490000 0.304030 0
4.495000 0.329040 0
4.500000 0.352016 0
4.505000 0.372425 0
4.510000 0.389776 0
4.515000 0.403632 0
4.520000 0.413630 0
4.525000 0.419497 0
4.530000 0.421063 5
4.535000 0.418265 0
4.540000 0.411152 0
4.545000 0.399885 0
4.550000 0.384726 0
4.555000 0.366033 0
4.560000 0.344241 0
4.565000 0.319846 0
4.570000 0.293387 0
4.575000 0.265426 0
4.580000 0.236525 0
4.585000 0.207233 0
4.590000 0.178062 0
4.595000 0.149481 0
4.600000 0.121898 0
4.605000 0.095656 0
4.610000 0.071031 0
4.615000 0.048225 0
4.620000 0.027373 0
4.625000 0.008548 0
4.630000 -0.008239 0
4.635000 -0.023022 0
4.640000 -0.035878 0
4.645000 -0.046918 0
4.650000 -0.056273 0
4.655000 -0.064091 0
4.660000 -0.070530 0
4.665000 -0.075747 0
4.670000 -0.079897 0
4.675000 -0.083127 0
4.680000 -0.085575 0
4.685000 -0.087364 0
4.690000 -0.088607 0
4.695000 -0.089402 0
4.700000 -0.089833 0
4.705000 -0.089973 0
4.710000 -0.089883 0
4.715000 -0.089156 0
4.720000 -0.088327 0
4.725000 -0.087501 0
4.730000 -0.086680 0
4.735000 -0.085862 0
4.740000 -0.085049 0
4.745000 -0.084240 0
4.750000 -0.083434 0
4.755000 -0.082633 0
4.760000 -0.081836 0
4.765000 -0.081042 0
4.770000 -0.080253 0
4.775000 -0.079466 0
4.780000 -0.078683 0
4.785000 -0.077902 0
4.790000 -0.077122 0
4.795000 -0.076340 0
4.800000 -0.075552 0
4.805000 -0.074749 0
4.810000 -0.073920 0
4.815000 -0.073044 0
4.820000 -0.072090 0
4.825000 -0.071011 0
4.830000 -0.069738 0
4.835000 -0.068172 0
4.840000 -0.066180 0
4.845000 -0.063582 0
4.850000 -0.060150 0
4.855000 -0.055606 0
4.860000 -0.049621 0
4.865000 -0.041833 0
4.870000 -0.031867 0
4.875000 -0.019368 0
4.880000 -0.004047 0
4.885000 0.014268 0
4.890000 0.035575 0
4.895000 0.059649 0
4.900000 0.086004 0
4.905000 0.113873 0
4.910000 0.142230 0
4.915000 0.169831 0
4.920000 0.195300 0
4.925000 0.217236 0
4.930000 0.234338 0
4.935000 0.245536 0
4.940000 0.250093 1
4.945000 0.247693 0
4.950000 0.238471 0
4.955000 0.223001 0
4.960000 0.202237 0
4.965000 0.177415 0
4.970000 0.149928 0
4.975000 0.121200 0
4.980000 0.092548 0
4.985000 0.065058 0
4.990000 0.039406 0
4.995000 0.015597 0
5.000000 -0.007438 0
5.005000 -0.032202 0
5.010000 -0.062429 0
5.015000 -0.101535 0
5.020000 -0.149493 0
5.025000 -0.199342 0
5.030000 -0.235807 0
5.035000 -0.237555 2
5.040000 -0.181989 0
5.045000 -0.050482 0
5.050000 0.165229 0
5.055000 0.452822 0
5.060000 0.768263 0
5.065000 1.036448 0
5.070000 1.175094 3
5.075000 1.133802 0
5.080000 0.922371 0
5.085000 0.606486 0
5.090000 0.271141 0
5.095000 -0.015398 0
5.100000 -0.216488 0
5.105000 -0.323218 0
5.110000 -0.345784 4
5.115000 -0.307182 0
5.120000 -0.236757 0
5.125000 -0.161502 0
5.130000 -0.098545 0
5.135000 -0.053188 0
5.140000 -0.022488 0
5.145000 -0.000582 0
5.150000 0.017644 0
5.155000 0.035357 0
5.160000 0.054090 0
5.165000 0.074424 0
5.170000 0.096487 0
5.175000 0.120207 0
5.180000 0.145404 0
5.185000 0.171817 0
5.190000 0.199116 0
5.195000 0.226903 0
5.200000 0.254723 0
5.205000 0.282071 0
5.210000 0.308409 0
5.215000 0.333179 0
5.220000 0.355826 0
5.225000 0.375815 0
5.230000 0.392651 0
5.235000 0.405900 0
5.240000 0.415209 0
5.245000 0.420317 0
5.250000 0.421070 5
5.255000 0.417424 0
5.260000 0.409452 0
5.265000 0.397338 0
5.270000 0.381372 0
5.275000 0.361932 0
5.280000 0.339479 0
5.285000 0.314528 0
5.290000 0.287634 0
5.295000 0.259369 0
5.300000 0.230304 0
5.305000 0.200987 0
5.310000 0.171928 0
5.315000 0.143587 0
5.320000 0.116360 0
5.325000 0.090576 0
5.330000 0.066491 0
5.335000 0.044290 0
5.340000 0.024089 0
5.345000 0.005940 0
5.350000 -0.010161 0
5.355000 -0.024266 0
5.360000 -0.036466 0
5.365000 -0.046882 0
5.370000 -0.055655 0
5.375000 -0.062939 0
5.380000 -0.068895 0
5.385000 -0.073682 0
5.390000 -0.077456 0
5.395000 -0.080360 0
5.400000 -0.082531 0
5.405000 -0.084089 0
5.410000 -0.085141 0
5.415000 -0.085781 0
5.420000 -0.086089 0
5.425000 -0.086134 0
5.430000 -0.085877 0
5.435000 -0.085063 0
5.440000 -0.084254 0
5.445000 -0.083449 0
5.450000 -0.082647 0
5.455000 -0.081850 0
5.460000 -0.081057 0
5.465000 -0.080267 0
5.470000 -0.079482 0
5.475000 -0.078700 0
5.480000 -0.077922 0
5.485000 -0.077148 0
5.490000 -0.076378 0
5.495000 -0.075611 0
5.500000 -0.074846 0
5.505000 -0.074082 0
5.510000 -0.073318 0
5.515000 -0.072549 0
5.520000 -0.071770 0
5.525000 -0.070969 0
5.530000 -0.070129 0
5.535000 -0.069223 0
5.540000 -0.068210 0
5.545000 -0.067028 0
5.550000 -0.065588 0
5.555000 -0.063766 0
5.560000 -0.061396 0
5.565000 -0.058262 0
5.570000 -0.054097 0
5.575000 -0.048581 0
5.580000 -0.041354 0
5.585000 -0.032036 0
5.590000 -0.020257 0
5.595000 -0.005700 0
5.600000 0.011846 0
5.605000 0.032429 0
5.610000 0.055878 0
5.615000 0.081764 0
5.620000 0.109373 0
5.625000 0.137717 0
5.630000 0.165571 0
5.635000 0.191558 0
5.640000 0.214249 0
5.645000 0.232293 0
5.650000 0.244552 0
5.655000 0.250214 1
5.660000 0.248884 0
5.665000 0.240627 0
5.670000 0.225965 0
5.675000 0.205820 0
5.680000 0.181414 0
5.685000 0.154154 0
5.690000 0.125485 0
5.695000 0.096768 0
5.700000 0.069131 0
5.705000 0.043309 0
5.710000 0.019374 0
5.715000 -0.003665 0
5.720000 -0.028252 0
5.725000 -0.058134 0
5.730000 -0.096856 0
5.735000 -0.144600 0
5.740000 -0.194563 0
5.745000 -0.231423 0
5.750000 -0.233579 2
5.755000 -0.178067 0
5.760000 -0.045964 0
5.765000 0.171000 0
5.770000 0.459859 0
5.775000 0.775045 0
5.780000 1.039558 0
5.785000 1.170384 3
5.790000 1.119181 0
5.795000 0.899819 0
5.800000 0.580505 0
5.805000 0.246535 0
5.810000 -0.035238 0
5.815000 -0.230002 0
5.820000 -0.330333 0
5.825000 -0.347558 4
5.830000 -0.305504 0
5.835000 -0.233813 0
5.840000 -0.159067 0
5.845000 -0.097508 0
5.850000 -0.053589 0
5.855000 -0.023897 0
5.860000 -0.002494 0
5.865000 0.015598 0
5.870000 0.033382 0
5.875000 0.052279 0
5.880000 0.072807 0
5.885000 0.095070 0
5.890000 0.118979 0
5.895000 0.144345 0
5.900000 0.170896 0
5.905000 0.198294 0
5.910000 0.226130 0
5.915000 0.253941 0
5.920000 0.281214 0
5.925000 0.307405 0
5.930000 0.331952 0
5.935000 0.354298 0
5.940000 0.373910 0
5.945000 0.390296 0
5.950000 0.403032 0
5.955000 0.411774 0
5.960000 0.416274 0
5.965000 0.416393 5
5.970000 0.412105 0
5.975000 0.403500 0
5.980000 0.390781 0
5.985000 0.374252 0
5.990000 0.354310 0
5.995000 0.331427 0
6.000000 0.306130 0
6.005000 0.278981 0
6.010000 0.250556 0
6.015000 0.221426 0
6.020000 0.192137 0
6.025000 0.163194 0
6.030000 0.135048 0
6.035000 0.108085 0
6.040000 0.082623 0
6.045000 0.058905 0
6.050000 0.037103 0
6.055000 0.017322 0
6.060000 -0.000399 0
6.065000 -0.016074 0
6.070000 -0.029763 0
6.075000 -0.041565 0
6.080000 -0.051607 0
6.085000 -0.060033 0
6.090000 -0.067002 0
6.095000 -0.072674 0
6.100000 -0.077209 0
6.105000 -0.080761 0
6.110000 -0.083474 0
6.115000 -0.085481 0
6.120000 -0.086898 0
6.125000 -0.087833 0
6.130000 -0.088374 0
6.135000 -0.088600 0
6.140000 -0.088577 0
6.145000 -0.088270 0
6.150000 -0.087445 0
6.155000 -0.086624 0
6.160000 -0.085806 0
6.165000 -0.084993 0
6.170000 -0.084184 0
6.175000 -0.083379 0
6.180000 -0.082578 0
6.185000 -0.081781 0
6.190000 -0.080988 0
6.195000 -0.080199 0
6.200000 -0.079414 0
6.205000 -0.078632 0
6.210000 -0.077853 0
6.215000 -0.077076 0
6.220000 -0.076301 0
6.225000 -0.075524 0
6.230000 -0.074740 0
6.235000 -0.073944 0
6.240000 -0.073121 0
6.245000 -0.072253 0
6.250000 -0.071308 0
6.255000 -0.070238 0
6.260000 -0.068975 0
6.265000 -0.067419 0
6.270000 -0.065432 0
6.275000 -0.062833 0
6.280000 -0.059388 0
6.285000 -0.054811 0
6.290000 -0.048766 0
6.295000 -0.040881 0
6.300000 -0.030773 0
6.305000 -0.018083 0
6.310000 -0.002521 0
6.315000 0.016075 0
6.320000 0.037684 0
6.325000 0.062052 0
6.330000 0.088646 0
6.335000 0.116652 0
6.340000 0.144986 0
6.345000 0.172351 0
6.350000 0.197331 0
6.355000 0.218501 0
6.360000 0.234566 0
6.365000 0.244488 0
6.370000 0.247597 1
6.375000 0.243665 0
6.380000 0.232932 0
6.385000 0.216082 0
6.390000 0.194170 0
6.395000 0.168510 0
6.400000 0.140549 0
6.405000 0.111722 0
6.410000 0.083324 0
6.415000 0.056357 0
6.420000 0.031337 0
6.425000 0.007966 0
6.430000 -0.015306 0
6.435000 -0.041540 0
6.440000 -0.074700 0
6.445000 -0.117427 0
6.450000 -0.167395 0
6.455000 -0.214200 0
6.460000 -0.239323 2
6.465000 -0.219810 0
6.470000 -0.133620 0
6.475000 0.034717 0
6.480000 0.285924 0
6.485000 0.593900 0
6.490000 0.897684 0
6.495000 1.112684 0
6.500000 1.165798 3
6.505000 1.034976 0
6.510000 0.761706 0
6.515000 0.426097 0
6.520000 0.108027 0
6.525000 -0.139516 0
6.530000 -0.294574 0
6.535000 -0.358441 4
6.540000 -0.348110 0
6.545000 -0.290479 0
6.550000 -0.214792 0
6.555000 -0.143911 0
6.560000 -0.089156 0
6.565000 -0.051275 0
6.570000 -0.025358 0
6.575000 -0.005619 0
6.580000 0.012158 0
6.585000 0.030292 0
6.590000 0.049791 0
6.595000 0.070981 0
6.600000 0.093881 0
6.605000 0.118363 0
6.610000 0.144209 0
6.615000 0.171130 0
6.620000 0.198763 0
6.625000 0.226688 0
6.630000 0.254426 0
6.635000 0.281459 0
6.640000 0.307241 0
6.645000 0.331214 0
6.650000 0.352832 0
6.655000 0.371576 0
6.660000 0.386979 0
6.665000 0.398641 0
6.670000 0.406247 0
6.675000 0.409581 5
6.680000 0.408537 0
6.685000 0.403120 0
6.690000 0.393449 0
6.695000 0.379753 0
6.700000 0.362358 0
6.705000 0.341679 0
6.710000 0.318197 0
6.715000 0.292444 0
6.720000 0.264983 0
6.725000 0.236385 0
6.730000 0.207212 0
6.735000 0.177996 0
6.740000 0.149227 0
6.745000 0.121338 0
6.750000 0.094698 0
6.755000 0.069607 0
6.760000 0.046291 0
6.765000 0.024908 0
6.770000 0.005548 0
6.775000 -0.011761 0
6.780000 -0.027040 0
6.785000 -0.040358 0
6.790000 -0.051817 0
6.795000 -0.061546 0
6.800000 -0.069693 0
6.805000 -0.076413 0
6.810000 -0.081866 0
6.815000 -0.086211 0
6.820000 -0.089598 0
6.825000 -0.092169 0
6.830000 -0.094052 0
6.835000 -0.095364 0
6.840000 -0.096206 0
6.845000 -0.096667 0
6.850000 -0.096822 0
6.855000 -0.096736 0
6.860000 -0.095981 0
6.865000 -0.095117 0
6.870000 -0.094258 0
6.875000 -0.093402 0
6.880000 -0.092551 0
6.885000 -0.091705 0
6.890000 -0.090862 0
6.895000 -0.090024 0
6.900000 -0.089190 0
6.905000 -0.088360 0
6.910000 -0.087534 0
6.915000 -0.086712 0
6.920000 -0.085893 0
6.925000 -0.085078 0
6.930000 -0.084266 0
6.935000 -0.083454 0
6.940000 -0.082641 0
6.945000 -0.081822 0
6.950000 -0.080990 0
6.955000 -0.080132 0
6.960000 -0.079229 0
6.965000 -0.078249 0
6.970000 -0.077146 0
6.975000 -0.075852 0
6.980000 -0.074268 0
6.985000 -0.072259 0
6.990000 -0.069646 0
6.995000 -0.066199 0
7.000000 -0.061637 0
7.005000 -0.055627 0
7.010000 -0.047805 0
7.015000 -0.037789 0
7.020000 -0.025222 0
7.025000 -0.009811 0
7.030000 0.008613 0
7.035000 0.030045 0
7.040000 0.054248 0
7.045000 0.080718 0
7.050000 0.108671 0
7.055000 0.137053 0
7.060000 0.164597 0
7.065000 0.189906 0
7.070000 0.211564 0
7.075000 0.228269 0
7.080000 0.238959 0
7.085000 0.242925 1
7.090000 0.239886 0
7.095000 0.230023 0
7.100000 0.213959 0
7.105000 0.192697 0
7.110000 0.167511 0
7.115000 0.139823 0
7.120000 0.111064 0
7.125000 0.082548 0
7.130000 0.055323 0
7.135000 0.029998 0
7.140000 0.006441 0
7.145000 -0.016639 0
7.150000 -0.042017 0
7.155000 -0.073569 0
7.160000 -0.114407 0
7.165000 -0.163467 0
7.170000 -0.212144 0
7.175000 -0.243518 2
7.180000 -0.235337 0
7.185000 -0.165129 0
7.190000 -0.015620 0
7.195000 0.218068 0
7.200000 0.517148 0
7.205000 0.829115 0
7.210000 1.073261 0
7.215000 1.170496 3
7.220000 1.084421 0
7.225000 0.841758 0
7.230000 0.514559 0
7.235000 0.184646 0
7.240000 -0.087318 0
7.245000 -0.271449 0
7.250000 -0.362987 0
7.255000 -0.374322 4
7.260000 -0.329291 0
7.265000 -0.256734 0
7.270000 -0.182083 0
7.275000 -0.120692 0
7.280000 -0.076687 0
7.285000 -0.046729 0
7.290000 -0.025057 0
7.295000 -0.006791 0
7.300000 0.011064 0
7.305000 0.029952 0
7.310000 0.050424 0
7.315000 0.072602 0
7.320000 0.096415 0
7.325000 0.121688 0
7.330000 0.148170 0
7.335000 0.175541 0
7.340000 0.203418 0
7.345000 0.231360 0
7.350000 0.258878 0
7.355000 0.285452 0
7.360000 0.310538 0
7.365000 0.333595 0
7.370000 0.354097 0
7.375000 0.371556 0
7.380000 0.385538 0
7.385000 0.395686 0
7.390000 0.401727 0
7.395000 0.403489 5
7.400000 0.400909 0
7.405000 0.394033 0
7.410000 0.383014 0
7.415000 0.368110 0
7.420000 0.349670 0
7.425000 0.328123 0
7.430000 0.303956 0
7.435000 0.277701 0
7.440000 0.249914 0
7.445000 0.221152 0
7.450000 0.191960 0
7.455000 0.162849 0
7.460000 0.134285 0
7.465000 0.106681 0
7.470000 0.080381 0
7.475000 0.055665 0
7.480000 0.032741 0
7.485000 0.011750 0
7.490000 -0.007230 0
7.495000 -0.024180 0
7.500000 -0.039129 0
7.505000 -0.052150 0
7.510000 -0.063346 0
7.515000 -0.072846 0
7.520000 -0.080796 0
7.525000 -0.087349 0
7.530000 -0.092662 0
7.535000 -0.096889 0
7.540000 -0.100177 0
7.545000 -0.102664 0
7.550000 -0.104476 0
7.555000 -0.105725 0
7.560000 -0.106512 0
7.565000 -0.106922 0
7.570000 -0.107029 0
7.575000 -0.106896 0
7.580000 -0.106092 0
7.585000 -0.105177 0
7.590000 -0.104268 0
7.595000 -0.103363 0
7.600000 -0.102462 0
7.605000 -0.101566 0
7.610000 -0.100674 0
7.615000 -0.099787 0
7.620000 -0.098904 0
7.625000 -0.098026 0
7.630000 -0.097152 0
7.635000 -0.096282 0
7.640000 -0.095416 0
7.645000 -0.094553 0
7.650000 -0.093694 0
7.655000 -0.092836 0
7.660000 -0.091977 0
7.665000 -0.091115 0
7.670000 -0.090241 0
7.675000 -0.089346 0
7.680000 -0.088411 0
7.685000 -0.087411 0
7.690000 -0.086303 0
7.695000 -0.085028 0
7.700000 -0.083497 0
7.705000 -0.081592 0
7.710000 -0.079149 0
7.715000 -0.075961 0
7.720000 -0.071768 0
7.725000 -0.066261 0
7.730000 -0.059093 0
7.735000 -0.049893 0
7.740000 -0.038297 0
7.745000 -0.023991 0
7.750000 -0.006753 0
7.755000 0.013486 0
7.760000 0.036594 0
7.765000 0.062192 0
7.770000 0.089631 0
7.775000 0.117995 0
7.780000 0.146130 0
7.785000 0.172715 0
7.790000 0.196361 0
7.795000 0.215721 0
7.800000 0.229624 0
7.805000 0.237188 0
7.810000 0.237911 1
7.815000 0.231731 0
7.820000 0.219028 0
7.825000 0.200586 0
7.830000 0.177518 0
7.835000 0.151148 0
7.840000 0.122887 0
7.845000 0.094106 0
7.850000 0.066005 0
7.855000 0.039474 0
7.860000 0.014881 0
7.865000 -0.008256 0
7.870000 -0.031688 0
7.875000 -0.058595 0
7.880000 -0.092818 0
7.885000 -0.136527 0
7.890000 -0.186726 0
7.895000 -0.232517 0
7.900000 -0.255428 2
7.905000 -0.233095 0
7.910000 -0.144321 0
7.915000 0.025583 0
7.920000 0.277013 0
7.925000 0.584647 0
7.930000 0.889822 0
7.935000 1.110709 0
7.940000 1.174919 3
7.945000 1.057732 0
7.950000 0.795469 0
7.955000 0.462779 0
7.960000 0.137975 0
7.965000 -0.123824 0
7.970000 -0.297065 0
7.975000 -0.379415 0
7.980000 -0.384385 4
7.985000 -0.336012 0
7.990000 -0.262520 0
7.995000 -0.188247 0
8.000000 -0.127549 0
8.005000 -0.084022 0
8.010000 -0.054247 0
8.015000 -0.032583 0
8.020000 -0.014274 0
8.025000 0.003606 0
8.030000 0.022489 0
8.035000 0.042925 0
8.040000 0.065046 0
8.045000 0.088787 0
8.050000 0.113985 0
8.055000 0.140400 0
8.060000 0.167723 0
8.065000 0.195588 0
8.070000 0.223569 0
8.075000 0.251197 0
8.080000 0.277963 0
8.085000 0.303342 0
8.090000 0.326804 0
8.095000 0.347830 0
8.100000 0.365936 0
8.105000 0.380689 0
8.110000 0.391720 0
8.115000 0.398747 0
8.120000 0.401576 5
8.125000 0.400121 0
8.130000 0.394399 0
8.135000 0.384531 0
8.140000 0.370743 0
8.145000 0.353351 0
8.150000 0.332750 0
8.155000 0.309401 0
8.160000 0.283811 0
8.165000 0.256517 0
8.170000 0.228065 0
8.175000 0.198992 0
8.180000 0.169812 0
8.185000 0.140999 0
8.190000 0.112978 0
8.195000 0.086111 0
8.200000 0.060701 0
8.205000 0.036980 0
8.210000 0.015115 0
8.215000 -0.004791 0
8.220000 -0.022693 0
8.225000 -0.038596 0
8.230000 -0.052554 0
8.235000 -0.064651 0
8.240000 -0.075003 0
8.245000 -0.083744 0
8.250000 -0.091020 0
8.255000 -0.096983 0
8.260000 -0.101786 0
8.265000 -0.105578 0
8.270000 -0.108497 0
8.275000 -0.110675 0
8.280000 -0.112229 0
8.285000 -0.113266 0
8.290000 -0.113876 0
8.295000 -0.114142 0
8.300000 -0.114129 0
8.305000 -0.113897 0
8.310000 -0.113049 0
8.315000 -0.112100 0
8.320000 -0.111156 0
8.325000 -0.110216 0
8.330000 -0.109281 0
8.335000 -0.108351 0
8.340000 -0.107426 0
8.345000 -0.106505 0
8.350000 -0.105588 0
8.355000 -0.104677 0
8.360000 -0.103769 0
8.365000 -0.102866 0
8.370000 -0.101967 0
8.375000 -0.101072 0
8.380000 -0.100180 0
8.385000 -0.099289 0
8.390000 -0.098398 0
8.395000 -0.097502 0
8.400000 -0.096595 0
8.405000 -0.095665 0
8.410000 -0.094696 0
8.415000 -0.093660 0
8.420000 -0.092517 0
8.425000 -0.091206 0
8.430000 -0.089641 0
8.435000 -0.087706 0
8.440000 -0.085242 0
8.445000 -0.082046 0
8.450000 -0.077867 0
8.455000 -0.072404 0
8.460000 -0.065321 0
8.465000 -0.056255 0
8.470000 -0.044852 0
8.475000 -0.030795 0
8.480000 -0.013860 0
8.485000 0.006040 0
8.490000 0.028803 0
8.495000 0.054094 0
8.500000 0.081317 0
8.505000 0.109618 0
8.510000 0.137906 0
8.515000 0.164916 0
8.520000 0.189294 0
8.525000 0.209708 0
8.530000 0.224966 0
8.535000 0.234135 0
8.540000 0.236628 1
8.545000 0.232273 0
8.550000 0.221329 0
8.555000 0.204458 0
8.560000 0.182665 0
8.565000 0.157192 0
8.570000 0.129405 0
8.575000 0.100669 0
8.580000 0.072225 0
8.585000 0.045069 0
8.590000 0.019774 0
8.595000 -0.003773 0
8.600000 -0.026758 0
8.605000 -0.051750 0
8.610000 -0.082422 0
8.615000 -0.121967 0
8.620000 -0.170087 0
8.625000 -0.219768 0
8.630000 -0.256084 0
8.635000 -0.258387 2
8.640000 -0.204805 0
8.645000 -0.077125 0
8.650000 0.133341 0
8.655000 0.416369 0
8.660000 0.732134 0
8.665000 1.010281 0
8.670000 1.170074 3
8.675000 1.157327 0
8.680000 0.973362 0
8.685000 0.672605 0
8.690000 0.334517 0
8.695000 0.029377 0
8.700000 -0.200049 0
8.705000 -0.338333 0
8.710000 -0.389787 4
8.715000 -0.372188 0
8.720000 -0.311623 0
8.725000 -0.235505 0
8.730000 -0.164858 0
8.735000 -0.110001 0
8.740000 -0.071602 0
8.745000 -0.045077 0
8.750000 -0.024917 0
8.755000 -0.006983 0
8.760000 0.011092 0
8.765000 0.030394 0
8.770000 0.051307 0
8.775000 0.073888 0
8.780000 0.098041 0
8.785000 0.123582 0
8.790000 0.150255 0
8.795000 0.177741 0
8.800000 0.205662 0
8.805000 0.233586 0
8.810000 0.261039 0
8.815000 0.287515 0
8.820000 0.312493 0
8.825000 0.335449 0
8.830000 0.355879 0
8.835000 0.373314 0
8.840000 0.387338 0
8.845000 0.397603 0
8.850000 0.403847 0
8.855000 0.405898 5
8.860000 0.403688 0
8.865000 0.397253 0
8.870000 0.386729 0
8.875000 0.372355 0
8.880000 0.354453 0
8.885000 0.333427 0
8.890000 0.309736 0
8.895000 0.283888 0
8.900000 0.256412 0
8.905000 0.227850 0
8.910000 0.198728 0
8.915000 0.169550 0
8.920000 0.140781 0
8.925000 0.112832 0
8.930000 0.086060 0
8.935000 0.060754 0
8.940000 0.037140 0
8.945000 0.015379 0
8.950000 -0.004432 0
8.955000 -0.022249 0
8.960000 -0.038083 0
8.965000 -0.051986 0
8.970000 -0.064043 0
8.975000 -0.074368 0
8.980000 -0.083095 0
8.985000 -0.090367 0
8.990000 -0.096336 0
8.995000 -0.101151 0
9.000000 -0.104960 0
9.005000 -0.107899 0
9.010000 -0.110099 0
9.015000 -0.111676 0
9.020000 -0.112734 0
9.025000 -0.113366 0
9.030000 -0.113651 0
9.035000 -0.113656 0
9.040000 -0.113440 0
9.045000 -0.112596 0
9.050000 -0.111649 0
9.055000 -0.110707 0
9.060000 -0.109770 0
9.065000 -0.108837 0
9.070000 -0.107909 0
9.075000 -0.106986 0
9.080000 -0.106067 0
9.085000 -0.105153 0
9.090000 -0.104243 0
9.095000 -0.103338 0
9.100000 -0.102437 0
9.105000 -0.101541 0
9.110000 -0.100648 0
9.115000 -0.099758 0
9.120000 -0.098870 0
9.125000 -0.097982 0
9.130000 -0.097090 0
9.135000 -0.096189 0
9.140000 -0.095268 0
9.145000 -0.094312 0
9.150000 -0.093296 0
9.155000 -0.092184 0
9.160000 -0.090920 0
9.165000 -0.089428 0
9.170000 -0.087598 0
9.175000 -0.085285 0
9.180000 -0.082300 0
9.185000 -0.078408 0
9.190000 -0.073324 0
9.195000 -0.066724 0
9.200000 -0.058256 0
9.205000 -0.047563 0
9.210000 -0.034319 0
9.215000 -0.018271 0
9.220000 0.000714 0
9.225000 0.022597 0
9.230000 0.047123 0
9.235000 0.073788 0
9.240000 0.101832 0
9.245000 0.130250 0
9.250000 0.157845 0
9.255000 0.183299 0
9.260000 0.205277 0
9.265000 0.222541 0
9.270000 0.234061 0
9.275000 0.239124 1
9.280000 0.237399 0
9.285000 0.228976 0
9.290000 0.214361 0
9.295000 0.194419 0
9.300000 0.170295 0
9.305000 0.143300 0
9.310000 0.114797 0
9.315000 0.086078 0
9.320000 0.058248 0
9.325000 0.032080 0
9.330000 0.007808 0
9.335000 -0.015207 0
9.340000 -0.038855 0
9.345000 -0.066357 0
9.350000 -0.101384 0
9.355000 -0.145731 0
9.360000 -0.196032 0
9.365000 -0.241348 0
9.370000 -0.263659 2
9.375000 -0.241380 0
9.380000 -0.154074 0
9.385000 0.012617 0
9.390000 0.259835 0
9.395000 0.564926 0
9.400000 0.873715 0
9.405000 1.108283 0
9.410000 1.195744 3
9.415000 1.103754 0
9.420000 0.858764 0
9.425000 0.531296 0
9.430000 0.200813 0
9.435000 -0.073438 0
9.440000 -0.261690 0
9.445000 -0.358475 0
9.450000 -0.375022 4
9.455000 -0.333839 0
9.460000 -0.262818 0
9.465000 -0.187369 0
9.470000 -0.123739 0
9.475000 -0.077244 0
9.480000 -0.045386 0
9.485000 -0.022666 0
9.490000 -0.004063 0
9.495000 0.013681 0
9.500000 0.032231 0
9.505000 0.052264 0
9.510000 0.073970 0
9.515000 0.097315 0
9.520000 0.122152 0
9.525000 0.148259 0
9.530000 0.175345 0
9.535000 0.203055 0
9.540000 0.230982 0
9.545000 0.258665 0
9.550000 0.285609 0
9.555000 0.311293 0
9.560000 0.335191 0
9.565000 0.356782 0
9.570000 0.375577 0
9.575000 0.391130 0
9.580000 0.403058 0
9.585000 0.411056 0
9.590000 0.414912 5
9.595000 0.414509 0
9.600000 0.409838 0
9.605000 0.400994 0
9.610000 0.388172 0
9.615000 0.371664 0
9.620000 0.351843 0
9.625000 0.329149 0
9.630000 0.304077 0
9.635000 0.277152 0
9.640000 0.248916 0
9.645000 0.219909 0
9.650000 0.190648 0
9.655000 0.161617 0
9.660000 0.133255 0
9.665000 0.105941 0
9.670000 0.079995 0
9.675000 0.055667 0
9.680000 0.033145 0
9.685000 0.012551 0
9.690000 -0.006053 0
9.695000 -0.022658 0
9.700000 -0.037301 0
9.705000 -0.050058 0
9.710000 -0.061034 0
9.715000 -0.070356 0
9.720000 -0.078168 0
9.725000 -0.084619 0
9.730000 -0.089860 0
9.735000 -0.094042 0
9.740000 -0.097306 0
9.745000 -0.099786 0
9.750000 -0.101603 0
9.755000 -0.102867 0
9.760000 -0.103674 0
9.765000 -0.104108 0
9.770000 -0.104242 0
9.775000 -0.104137 0
9.780000 -0.103753 0
9.785000 -0.102851 0
9.790000 -0.101953 0
9.795000 -0.101059 0
9.800000 -0.100170 0
9.805000 -0.099285 0
9.810000 -0.098405 0
9.815000 -0.097529 0
9.820000 -0.096658 0
9.825000 -0.095790 0
9.830000 -0.094927 0
9.835000 -0.094068 0
9.840000 -0.093214 0
9.845000 -0.092362 0
9.850000 -0.091514 0
9.855000 -0.090668 0
9.860000 -0.089823 0
9.865000 -0.088974 0
9.870000 -0.088117 0
9.875000 -0.087244 0
9.880000 -0.086339 0
9.885000 -0.085381 0
9.890000 -0.084336 0
9.895000 -0.083153 0
9.900000 -0.081760 0
9.905000 -0.080056 0
9.910000 -0.077902 0
9.915000 -0.075119 0
9.920000 -0.071479 0
9.925000 -0.066706 0
9.930000 -0.060482 0
9.935000 -0.052455 0
9.940000 -0.042265 0
9.945000 -0.029574 0
9.950000 -0.014111 0
9.955000 0.004287 0
9.960000 0.025616 0
9.965000 0.049661 0
9.970000 0.075962 0
9.975000 0.103799 0
9.980000 0.132199 0
9.985000 0.159986 0
9.990000 0.185847 0
9.995000 0.208431 0
10.000000 0.226470 0
10.005000 0.238886 0
10.010000 0.244908 1
10.015000 0.244141 0
10.020000 0.236616 0
10.025000 0.222782 0
10.030000 0.203466 0
10.035000 0.179787 0
10.040000 0.153053 0
10.045000 0.124634 0
10.050000 0.095846 0
10.055000 0.067831 0
10.060000 0.041417 0
10.065000 0.016915 0
10.070000 -0.006202 0
10.075000 -0.029690 0
10.080000 -0.056668 0
10.085000 -0.090869 0
10.090000 -0.134419 0
10.095000 -0.184544 0
10.100000 -0.230949 0
10.105000 -0.256002 2
10.110000 -0.238092 0
10.115000 -0.156379 0
10.120000 0.004262 0
10.125000 0.246268 0
10.130000 0.548829 0
10.135000 0.859481 0
10.140000 1.100628 0
10.145000 1.197564 3
10.150000 1.113566 0
10.155000 0.872571 0
10.160000 0.545932 0
10.165000 0.215289 0
10.170000 -0.058399 0
10.175000 -0.244771 0
10.180000 -0.338622 0
10.185000 -0.351946 4
10.190000 -0.308253 0
10.195000 -0.236238 0
10.200000 -0.161457 0
10.205000 -0.099587 0
10.210000 -0.055081 0
10.215000 -0.024795 0
10.220000 -0.003005 0
10.225000 0.015219 0
10.230000 0.032938 0
10.235000 0.051646 0
10.240000 0.071922 0
10.245000 0.093899 0
10.250000 0.117515 0
10.255000 0.142601 0
10.260000 0.168909 0
10.265000 0.196126 0
10.270000 0.223873 0
10.275000 0.251714 0
10.280000 0.279165 0
10.285000 0.305710 0
10.290000 0.330809 0
10.295000 0.353921 0
10.300000 0.374521 0
10.305000 0.392119 0
10.310000 0.406280 0
10.315000 0.416640 0
10.320000 0.422921 0
10.325000 0.424943 5
10.330000 0.422633 0
10.335000 0.416027 0
10.340000 0.405271 0
10.345000 0.390610 0
10.350000 0.372385 0
10.355000 0.351015 0
10.360000 0.326982 0
10.365000 0.300812 0
10.370000 0.273056 0
10.375000 0.244270 0
10.380000 0.214999 0
10.385000 0.185756 0
10.390000 0.157012 0
10.395000 0.129182 0
10.400000 0.102619 0
10.405000 0.077608 0
10.410000 0.054365 0
10.415000 0.033039 0
10.420000 0.013713 0
10.425000 -0.003586 0
10.430000 -0.018881 0
10.435000 -0.032239 0
10.440000 -0.043761 0
10.445000 -0.053572 0
10.450000 -0.061815 0
10.455000 -0.068642 0
10.460000 -0.074209 0
10.465000 -0.078670 0
10.470000 -0.082174 0
10.475000 -0.084858 0
10.480000 -0.086850 0
10.485000 -0.088264 0
10.490000 -0.089202 0
10.495000 -0.089751 0
10.500000 -0.089987 0
10.505000 -0.089974 0
10.510000 -0.089674 0
10.515000 -0.088841 0
10.520000 -0.088013 0
10.525000 -0.087189 0
10.530000 -0.086369 0
10.535000 -0.085553 0
10.540000 -0.084741 0
10.545000 -0.083934 0
10.550000 -0.083130 0
10.555000 -0.082330 0
10.560000 -0.081534 0
10.565000 -0.080742 0
10.570000 -0.079954 0
10.575000 -0.079169 0
10.580000 -0.078386 0
10.585000 -0.077605 0
10.590000 -0.076824 0
10.595000 -0.076039 0
10.600000 -0.075244 0
10.605000 -0.074430 0
10.610000 -0.073581 0
10.615000 -0.072672 0
10.620000 -0.071665 0
10.625000 -0.070505 0
10.630000 -0.069111 0
10.635000 -0.067371 0
10.640000 -0.065133 0
10.645000 -0.062200 0
10.650000 -0.058325 0
10.655000 -0.053210 0
10.660000 -0.046517 0
10.665000 -0.037880 0
10.670000 -0.026931 0
10.675000 -0.013342 0
10.680000 0.003133 0
10.685000 0.022603 0
10.690000 0.044987 0
10.695000 0.069971 0
10.700000 0.096971 0
10.705000 0.125139 0
10.710000 0.153376 0
10.715000 0.180402 0
10.720000 0.204837 0
10.725000 0.225319 0
10.730000 0.240627 0
10.735000 0.249799 0
10.740000 0.252233 1
10.745000 0.247751 0
10.750000 0.236620 0
10.755000 0.219523 0
10.760000 0.197490 0
10.765000 0.171798 0
10.770000 0.143840 0
10.775000 0.115006 0
10.780000 0.086549 0
10.785000 0.059458 0
10.790000 0.034268 0
10.795000 0.010775 0
10.800000 -0.012373 0
10.805000 -0.037965 0
10.810000 -0.069805 0
10.815000 -0.110858 0
10.820000 -0.159982 0
10.825000 -0.208739 0
10.830000 -0.240679 2
10.835000 -0.234158 0
10.840000 -0.167196 0
10.845000 -0.022592 0
10.850000 0.205399 0
10.855000 0.500535 0
10.860000 0.814495 0
10.865000 1.070296 0
10.870000 1.188604 3
10.875000 1.124460 0
10.880000 0.895580 0
10.885000 0.572563 0
10.890000 0.240249 0
10.895000 -0.036598 0
10.900000 -0.225286 0
10.905000 -0.319864 0
10.910000 -0.332606 4
10.915000 -0.287892 0
10.920000 -0.215392 0
10.925000 -0.141175 0
10.930000 -0.080717 0
10.935000 -0.037846 0
10.940000 -0.008867 0
10.945000 0.012163 0
10.950000 0.030108 0
10.955000 0.047860 0
10.960000 0.066770 0
10.965000 0.087324 0
10.970000 0.109610 0
10.975000 0.133534 0
10.980000 0.158901 0
10.985000 0.185438 0
10.990000 0.212801 0
10.995000 0.240581 0
11.000000 0.268313 0
11.005000 0.295483 0
11.010000 0.321546 0
11.015000 0.345941 0
11.020000 0.368113 0
11.025000 0.387531 0
11.030000 0.403707 0
11.035000 0.416220 0
11.040000 0.424730 0
11.045000 0.428995 5
11.050000 0.428879 0
11.055000 0.424362 0
11.060000 0.415538 0
11.065000 0.402612 0
11.070000 0.385894 0
11.075000 0.365782 0
11.080000 0.342748 0
11.085000 0.317320 0
11.090000 0.290061 0
11.095000 0.261546 0
11.100000 0.232345 0
11.105000 0.203000 0
11.110000 0.174016 0
11.115000 0.145839 0
11.120000 0.118855 0
11.125000 0.093378 0
11.130000 0.069649 0
11.135000 0.047839 0
11.140000 0.028049 0
11.145000 0.010319 0
11.150000 -0.005368 0
11.155000 -0.019072 0
11.160000 -0.030893 0
11.165000 -0.040956 0
11.170000 -0.049409 0
11.175000 -0.056408 0
11.180000 -0.062114 0
11.185000 -0.066686 0
11.190000 -0.070277 0
11.195000 -0.073032 0
11.200000 -0.075083 0
11.205000 -0.076546 0
11.210000 -0.077527 0
11.215000 -0.078116 0
11.220000 -0.078391 0
11.225000 -0.078417 0
11.230000 -0.078160 0
11.235000 -0.077385 0
11.240000 -0.076614 0
11.245000 -0.075846 0
11.250000 -0.075083 0
11.255000 -0.074324 0
11.260000 -0.073568 0
11.265000 -0.072816 0
11.270000 -0.072067 0
11.275000 -0.071323 0
11.280000 -0.070582 0
11.285000 -0.069844 0
11.290000 -0.069110 0
11.295000 -0.068379 0
11.300000 -0.067649 0
11.305000 -0.066921 0
11.310000 -0.066191 0
11.315000 -0.065454 0
11.320000 -0.064704 0
11.325000 -0.063928 0
11.330000 -0.063106 0
11.335000 -0.062207 0
11.340000 -0.061185 0
11.345000 -0.059970 0
11.350000 -0.058464 0
11.355000 -0.056529 0
11.360000 -0.053985 0
11.365000 -0.050600 0
11.370000 -0.046089 0
11.375000 -0.040117 0
11.380000 -0.032313 0
11.385000 -0.022296 0
11.390000 -0.009704 0
11.395000 0.005751 0
11.400000 0.024237 0
11.405000 0.045737 0
11.410000 0.070001 0
11.415000 0.096506 0
11.420000 0.124446 0
11.425000 0.152745 0
11.430000 0.180113 0
11.435000 0.205136 0
11.440000 0.226393 0
11.445000 0.242585 0
11.450000 0.252665 0
11.455000 0.255953 1
11.460000 0.252207 0
11.465000 0.241650 0
11.470000 0.224952 0
11.475000 0.203154 0
11.480000 0.177564 0
11.485000 0.149621 0
11.490000 0.120762 0
11.495000 0.092287 0
11.500000 0.065211 0
11.505000 0.040072 0
11.510000 0.016615 0
11.515000 -0.006648 0
11.520000 -0.032712 0
11.525000 -0.065531 0
11.530000 -0.107868 0
11.535000 -0.157703 0
11.540000 -0.205047 0
11.545000 -0.231732 2
11.550000 -0.214932 0
11.555000 -0.132477 0
11.560000 0.031552 0
11.565000 0.278878 0
11.570000 0.585088 0
11.575000 0.891068 0
11.580000 1.112893 0
11.585000 1.175880 3
11.590000 1.052967 0
11.595000 0.782893 0
11.600000 0.447576 0
11.605000 0.129604 0
11.610000 -0.116415 0
11.615000 -0.268303 0
11.620000 -0.328041 4
11.625000 -0.313811 0
11.630000 -0.253787 0
11.635000 -0.177900 0
11.640000 -0.108690 0
11.645000 -0.056424 0
11.650000 -0.020808 0
11.655000 0.003606 0
11.660000 0.022621 0
11.665000 0.040216 0
11.670000 0.058466 0
11.675000 0.078219 0
11.680000 0.099715 0
11.685000 0.122929 0
11.690000 0.147701 0
11.695000 0.173786 0
11.700000 0.200861 0
11.705000 0.228534 0
11.710000 0.256349 0
11.715000 0.283798 0
11.720000 0.310332 0
11.725000 0.335382 0
11.730000 0.358374 0
11.735000 0.378752 0
11.740000 0.396001 0
11.745000 0.409666 0
11.750000 0.419372 0
11.755000 0.424841 0
11.760000 0.425902 5
11.765000 0.422503 0
11.770000 0.414710 0
11.775000 0.402708 0
11.780000 0.386789 0
11.785000 0.367343 0
11.790000 0.344840 0
11.795000 0.319811 0
11.800000 0.292827 0
11.805000 0.264477 0
11.810000 0.235346 0
11.815000 0.205995 0
11.820000 0.176946 0
11.825000 0.148665 0
11.830000 0.121554 0
11.835000 0.095941 0
11.840000 0.072080 0
11.845000 0.050150 0
11.850000 0.030260 0
11.855000 0.012452 0
11.860000 -0.003287 0
11.865000 -0.017019 0
11.870000 -0.028846 0
11.875000 -0.038896 0
11.880000 -0.047319 0
11.885000 -0.054277 0
11.890000 -0.059933 0
11.895000 -0.064452 0
11.900000 -0.067988 0
11.905000 -0.070690 0
11.910000 -0.072690 0
11.915000 -0.074107 0
11.920000 -0.075049 0
11.925000 -0.075604 0
11.930000 -0.075851 0
11.935000 -0.075855 0
11.940000 -0.075202 0
11.945000 -0.074442 0
11.950000 -0.073686 0
11.955000 -0.072933 0
11.960000 -0.072184 0
11.965000 -0.071439 0
11.970000 -0.070698 0
11.975000 -0.069960 0
11.980000 -0.069226 0
11.985000 -0.068495 0
11.990000 -0.067768 0
11.995000 -0.067045 0
12.000000 -0.066324 0
12.005000 -0.065607 0
12.010000 -0.064890 0
12.015000 -0.064174 0
12.020000 -0.063454 0
12.025000 -0.062726 0
12.030000 -0.061980 0
12.035000 -0.061200 0
12.040000 -0.060363 0
12.045000 -0.059431 0
12.050000 -0.058346 0
12.055000 -0.057025 0
12.060000 -0.055352 0
12.065000 -0.053166 0
12.070000 -0.050256 0
12.075000 -0.046360 0
12.080000 -0.041157 0
12.085000 -0.034286 0
12.090000 -0.025356 0
12.095000 -0.013983 0
12.100000 0.000171 0
12.105000 0.017338 0
12.110000 0.037589 0
12.115000 0.060775 0
12.120000 0.086476 0
12.125000 0.113979 0
12.130000 0.142285 0
12.135000 0.170144 0
12.140000 0.196141 0
12.145000 0.218809 0
12.150000 0.236759 0
12.155000 0.248824 0
12.160000 0.254180 1
12.165000 0.252440 0
12.170000 0.243699 0
12.175000 0.228520 0
12.180000 0.207882 0
12.185000 0.183066 0
12.190000 0.155527 0
12.195000 0.126750 0
12.200000 0.098105 0
12.205000 0.070705 0
12.210000 0.045212 0
12.215000 0.021536 0
12.220000 -0.001610 0
12.225000 -0.027066 0
12.230000 -0.058828 0
12.235000 -0.100055 0
12.240000 -0.149432 0
12.245000 -0.197650 0
12.250000 -0.226771 2
12.255000 -0.213617 0
12.260000 -0.135273 0
12.265000 0.025073 0
12.270000 0.270005 0
12.275000 0.575504 0
12.280000 0.881700 0
12.285000 1.102814 0
12.290000 1.162647 3
12.295000 1.035989 0
12.300000 0.763581 0
12.305000 0.427880 0
12.310000 0.111143 0
12.315000 -0.132748 0
12.320000 -0.282271 0
12.325000 -0.339876 4
12.330000 -0.324081 0
12.335000 -0.263243 0
12.340000 -0.187237 0
12.345000 -0.118340 0
12.350000 -0.066505 0
12.355000 -0.031221 0
12.360000 -0.006972 0
12.365000 0.012014 0
12.370000 0.029662 0
12.375000 0.048003 0
12.380000 0.067861 0
12.385000 0.089466 0
12.390000 0.112784 0
12.395000 0.137656 0
12.400000 0.163831 0
12.405000 0.190985 0
12.410000 0.218724 0
12.415000 0.246589 0
12.420000 0.274070 0
12.425000 0.300616 0
12.430000 0.325658 0
12.435000 0.348620 0
12.440000 0.368948 0
12.445000 0.386129 0
12.450000 0.399708 0
12.455000 0.409314 0
12.460000 0.414672 0
12.465000 0.415616 5
12.470000 0.412098 0
12.475000 0.404189 0
12.480000 0.392077 0
12.485000 0.376061 0
12.490000 0.356532 0
12.495000 0.333966 0
12.500000 0.308894 0
12.505000 0.281891 0
12.510000 0.253545 0
12.515000 0.224441 0
12.520000 0.195141 0
12.525000 0.166164 0
12.530000 0.137974 0
12.535000 0.110970 0
12.540000 0.085478 0
12.545000 0.061748 0
12.550000 0.039956 0
12.555000 0.020208 0
12.560000 0.002544 0
12.565000 -0.013053 0
12.570000 -0.026646 0
12.575000 -0.038339 0
12.580000 -0.048262 0
12.585000 -0.056565 0
12.590000 -0.063409 0
12.595000 -0.068961 0
12.600000 -0.073382 0
12.605000 -0.076829 0
12.610000 -0.079448 0
12.615000 -0.081371 0
12.620000 -0.082719 0
12.625000 -0.083595 0
12.630000 -0.084089 0
12.635000 -0.084280 0
12.640000 -0.084230 0
12.645000 -0.083533 0
12.650000 -0.082732 0
12.655000 -0.081934 0
12.660000 -0.081140 0
12.665000 -0.080350 0
12.670000 -0.079565 0
12.675000 -0.078783 0
12.680000 -0.078005 0
12.685000 -0.077230 0
12.690000 -0.076460 0
12.695000 -0.075693 0
12.700000 -0.074930 0
12.705000 -0.074170 0
12.710000 -0.073413 0
12.715000 -0.072658 0
12.720000 -0.071903 0
12.725000 -0.071144 0
12.730000 -0.070376 0
12.735000 -0.069590 0
12.740000 -0.068769 0
12.745000 -0.067889 0
12.750000 -0.066911 0
12.755000 -0.065776 0
12.760000 -0.064399 0
12.765000 -0.062660 0
12.770000 -0.060395 0
12.775000 -0.057391 0
12.780000 -0.053380 0
12.785000 -0.048039 0
12.790000 -0.041003 0
12.795000 -0.031879 0
12.800000 -0.020286 0
12.805000 -0.005890 0
12.810000 0.011531 0
12.815000 0.032034 0
12.820000 0.055453 0
12.825000 0.081347 0
12.830000 0.108981 0
12.835000 0.137334 0
12.840000 0.165140 0
12.845000 0.190976 0
12.850000 0.213373 0
12.855000 0.230953 0
12.860000 0.242570 0
12.865000 0.247429 1
12.870000 0.245179 0
12.875000 0.235950 0
12.880000 0.220344 0
12.885000 0.199365 0
12.890000 0.174315 0
12.895000 0.146659 0
12.900000 0.117877 0
12.905000 0.089328 0
12.910000 0.062097 0
12.915000 0.036800 0
12.920000 0.013266 0
12.925000 -0.009909 0
12.930000 -0.035694 0
12.935000 -0.068121 0
12.940000 -0.110135 0
12.945000 -0.159868 0
12.950000 -0.207245 0
12.955000 -0.233692 2
12.960000 -0.215809 0
12.965000 -0.130946 0
12.970000 0.036886 0
12.975000 0.288515 0
12.980000 0.596998 0
12.985000 0.899374 0
12.990000 1.108909 0
12.995000 1.152333 3
13.000000 1.011609 0
13.005000 0.731953 0
13.010000 0.395297 0
13.015000 0.080970 0
13.020000 -0.159908 0
13.025000 -0.307280 0
13.030000 -0.363964 4
13.035000 -0.348181 0
13.040000 -0.287629 0
13.045000 -0.211553 0
13.050000 -0.142003 0
13.055000 -0.089154 0
13.060000 -0.052885 0
13.065000 -0.027942 0
13.070000 -0.008598 0
13.075000 0.009158 0
13.080000 0.027459 0
13.085000 0.047203 0
13.090000 0.068662 0
13.095000 0.091827 0
13.100000 0.116555 0
13.105000 0.142614 0
13.110000 0.169701 0
13.115000 0.197441 0
13.120000 0.225398 0
13.125000 0.253084 0
13.130000 0.279968 0
13.135000 0.305496 0
13.140000 0.329107 0
13.145000 0.350252 0
13.150000 0.368417 0
13.155000 0.383141 0
13.160000 0.394037 0
13.165000 0.400806 0
13.170000 0.403253 5
13.175000 0.401293 0
13.180000 0.394956 0
13.185000 0.384388 0
13.190000 0.369843 0
13.195000 0.351671 0
13.200000 0.330308 0
13.205000 0.306253 0
13.210000 0.280054 0
13.215000 0.252281 0
13.220000 0.223511 0
13.225000 0.194303 0
13.230000 0.165186 0
13.235000 0.136639 0
13.240000 0.109083 0
13.245000 0.082872 0
13.250000 0.058286 0
13.255000 0.035536 0
13.260000 0.014760 0
13.265000 -0.003971 0
13.270000 -0.020643 0
13.275000 -0.035293 0
13.280000 -0.048002 0
13.285000 -0.058883 0
13.290000 -0.068071 0
13.295000 -0.075719 0
13.300000 -0.081988 0
13.305000 -0.087037 0
13.310000 -0.091024 0
13.315000 -0.094099 0
13.320000 -0.096400 0
13.325000 -0.098053 0
13.330000 -0.099170 0
13.335000 -0.099848 0
13.340000 -0.100172 0
13.345000 -0.100215 0
13.350000 -0.100034 0
13.355000 -0.099252 0
13.360000 -0.098372 0
13.365000 -0.097496 0
13.370000 -0.096625 0
13.375000 -0.095758 0
13.380000 -0.094895 0
13.385000 -0.094036 0
13.390000 -0.093182 0
13.395000 -0.092332 0
13.400000 -0.091487 0
13.405000 -0.090645 0
13.410000 -0.089807 0
13.415000 -0.088973 0
13.420000 -0.088142 0
13.425000 -0.087313 0
13.430000 -0.086484 0
13.435000 -0.085653 0
13.440000 -0.084812 0
13.445000 -0.083953 0
13.450000 -0.083060 0
13.455000 -0.082109 0
13.460000 -0.081062 0
13.465000 -0.079861 0
13.470000 -0.078425 0
13.475000 -0.076638 0
13.480000 -0.074341 0
13.485000 -0.071331 0
13.490000 -0.067349 0
13.495000 -0.062085 0
13.500000 -0.055184 0
13.505000 -0.046267 0
13.510000 -0.034955 0
13.515000 -0.020917 0
13.520000 -0.003913 0
13.525000 0.016140 0
13.530000 0.039119 0
13.535000 0.064645 0
13.540000 0.092057 0
13.545000 0.120410 0
13.550000 0.148515 0
13.555000 0.175008 0
13.560000 0.198453 0
13.565000 0.217470 0
13.570000 0.230869 0
13.575000 0.237767 1
13.580000 0.237692 0
13.585000 0.230631 0
13.590000 0.217032 0
13.595000 0.197760 0
13.600000 0.174004 0
13.605000 0.147155 0
13.610000 0.118670 0
13.615000 0.089935 0
13.620000 0.062132 0
13.625000 0.036071 0
13.630000 0.011947 0
13.635000 -0.011054 0
13.640000 -0.035165 0
13.645000 -0.064017 0
13.650000 -0.101356 0
13.655000 -0.148049 0
13.660000 -0.198364 0
13.665000 -0.237989 0
13.670000 -0.245791 2
13.675000 -0.198570 0
13.680000 -0.076503 0
13.685000 0.130498 0
13.690000 0.412632 0
13.695000 0.728285 0
13.700000 1.002920 0
13.705000 1.151855 3
13.710000 1.123328 0
13.715000 0.924317 0
13.720000 0.615118 0
13.725000 0.278021 0
13.730000 -0.017774 0
13.735000 -0.232699 0
13.740000 -0.354702 0
13.745000 -0.391069 4
13.750000 -0.362202 0
13.755000 -0.295911 0
13.760000 -0.219574 0
13.765000 -0.152401 0
13.770000 -0.102205 0
13.775000 -0.067733 0
13.780000 -0.043626 0
13.785000 -0.024495 0
13.790000 -0.006670 0
13.795000 0.011783 0
13.800000 0.031675 0
13.805000 0.053250 0
13.810000 0.076497 0
13.815000 0.101275 0
13.820000 0.127365 0
13.825000 0.154474 0
13.830000 0.182247 0
13.835000 0.210267 0
13.840000 0.238069 0
13.845000 0.265147 0
13.850000 0.290968 0
13.855000 0.314992 0
13.860000 0.336688 0
13.865000 0.355553 0
13.870000 0.371132 0
13.875000 0.383035 0
13.880000 0.390952 0
13.885000 0.394670 5
13.890000 0.394076 0
13.895000 0.389167 0
13.900000 0.380047 0
13.905000 0.366928 0
13.910000 0.350115 0
13.915000 0.330000 0
13.920000 0.307041 0
13.925000 0.281748 0
13.930000 0.254665 0
13.935000 0.226346 0
13.940000 0.197339 0
13.945000 0.168171 0
13.950000 0.139328 0
13.955000 0.111246 0
13.960000 0.084302 0
13.965000 0.058805 0
13.970000 0.034998 0
13.975000 0.013054 0
13.980000 -0.006919 0
13.985000 -0.024871 0
13.990000 -0.040810 0
13.995000 -0.054785 0
14.000000 -0.066883 0
14.005000 -0.077222 0
14.010000 -0.085937 0
14.015000 -0.093178 0
14.020000 -0.099098 0
14.025000 -0.103854 0
14.030000 -0.107595 0
14.035000 -0.110464 0
14.040000 -0.112592 0
14.045000 -0.114099 0
14.050000 -0.115090 0
14.055000 -0.115660 0
14.060000 -0.115887 0
14.065000 -0.115841 0
14.070000 -0.115579 0
14.075000 -0.114719 0
14.080000 -0.113762 0
14.085000 -0.112809 0
14.090000 -0.111862 0
14.095000 -0.110919 0
14.100000 -0.109980 0
14.105000 -0.109047 0
14.110000 -0.108118 0
14.115000 -0.107193 0
14.120000 -0.106274 0
14.125000 -0.105358 0
14.130000 -0.104447 0
14.135000 -0.103540 0
14.140000 -0.102637 0
14.145000 -0.101736 0
14.150000 -0.100837 0
14.155000 -0.099936 0
14.160000 -0.099029 0
14.165000 -0.098108 0
14.170000 -0.097161 0
14.175000 -0.096167 0
14.180000 -0.095095 0
14.185000 -0.093899 0
14.190000 -0.092510 0
14.195000 -0.090832 0
14.200000 -0.088733 0
14.205000 -0.086037 0
14.210000 -0.082521 0
14.215000 -0.077913 0
14.220000 -0.071892 0
14.225000 -0.064103 0
14.230000 -0.054177 0
14.235000 -0.041763 0
14.240000 -0.026571 0
14.245000 -0.008420 0
14.250000 0.012705 0
14.255000 0.036606 0
14.260000 0.062832 0
14.265000 0.090665 0
14.270000 0.119122 0
14.275000 0.147008 0
14.280000 0.172980 0
14.285000 0.195658 0
14.290000 0.213741 0
14.295000 0.226129 0
14.300000 0.232035 1
14.305000 0.231068 0
14.310000 0.223275 0
14.315000 0.209137 0
14.320000 0.189521 0
14.325000 0.165590 0
14.330000 0.138692 0
14.335000 0.110228 0
14.340000 0.081534 0
14.345000 0.053745 0
14.350000 0.027654 0
14.355000 0.003477 0
14.360000 -0.019497 0
14.365000 -0.043302 0
14.370000 -0.071338 0
14.375000 -0.107326 0
14.380000 -0.152703 0
14.385000 -0.203130 0
14.390000 -0.246232 0
14.395000 -0.262603 2
14.400000 -0.229872 0
14.405000 -0.127729 0
14.410000 0.056619 0
14.415000 0.320075 0
14.420000 0.632215 0
14.425000 0.929722 0
14.430000 1.130212 0
14.435000 1.166882 3
14.440000 1.025579 0
14.445000 0.749064 0
14.450000 0.413352 0
14.455000 0.093637 0
14.460000 -0.159334 0
14.465000 -0.323322 0
14.470000 -0.397875 4
14.475000 -0.397416 0
14.480000 -0.346176 0
14.485000 -0.271903 0
14.490000 -0.198030 0
14.495000 -0.138051 0
14.500000 -0.095069 0
14.505000 -0.065549 0
14.510000 -0.043936 0
14.515000 -0.025590 0
14.520000 -0.007653 0
14.525000 0.011276 0
14.530000 0.031742 0
14.535000 0.053875 0
14.540000 0.077618 0
14.545000 0.102811 0
14.550000 0.129220 0
14.555000 0.156548 0
14.560000 0.184435 0
14.565000 0.212469 0
14.570000 0.240190 0
14.575000 0.267102 0
14.580000 0.292690 0
14.585000 0.316431 0
14.590000 0.337816 0
14.595000 0.356363 0
14.600000 0.371639 0
14.605000 0.383272 0
14.610000 0.390971 0
14.615000 0.394534 5
14.620000 0.393857 0
14.625000 0.388938 0
14.630000 0.379881 0
14.635000 0.366887 0
14.640000 0.350250 0
14.645000 0.330343 0
14.650000 0.307608 0
14.655000 0.282533 0
14.660000 0.255642 0
14.665000 0.227469 0
14.670000 0.198547 0
14.675000 0.169389 0
14.680000 0.140471 0
14.685000 0.112225 0
14.690000 0.085027 0
14.695000 0.059191 0
14.700000 0.034965 0
14.705000 0.012535 0
14.710000 -0.007979 0
14.715000 -0.026515 0
14.720000 -0.043062 0
14.725000 -0.057657 0
14.730000 -0.070374 0
14.735000 -0.081315 0
14.740000 -0.090606 0
14.745000 -0.098389 0
14.750000 -0.104810 0
14.755000 -0.110020 0
14.760000 -0.114167 0
14.765000 -0.117392 0
14.770000 -0.119828 0
14.775000 -0.121596 0
14.780000 -0.122805 0
14.785000 -0.123552 0
14.790000 -0.123921 0
14.795000 -0.123985 0
14.800000 -0.123805 0
14.805000 -0.123341 0
14.810000 -0.122340 0
14.815000 -0.121345 0
14.820000 -0.120355 0
14.825000 -0.119369 0
14.830000 -0.118389 0
14.835000 -0.117413 0
14.840000 -0.116443 0
14.845000 -0.115477 0
14.850000 -0.114516 0
14.855000 -0.113559 0
14.860000 -0.112608 0
14.865000 -0.111660 0
14.870000 -0.110717 0
14.875000 -0.109778 0
14.880000 -0.108842 0
14.885000 -0.107906 0
14.890000 -0.106969 0
14.895000 -0.106026 0
14.900000 -0.105069 0
14.905000 -0.104085 0
14.910000 -0.103055 0
14.915000 -0.101948 0
14.920000 -0.100718 0
14.925000 -0.099300 0
14.930000 -0.097602 0
14.935000 -0.095497 0
14.940000 -0.092819 0
14.945000 -0.089355 0
14.950000 -0.084847 0
14.955000 -0.078988 0
14.960000 -0.071440 0
14.965000 -0.061847 0
14.970000 -0.049864 0
14.975000 -0.035196 0
14.980000 -0.017646 0
14.985000 0.002839 0
14.990000 0.026119 0
14.995000 0.051819 0
15.000000 0.079313 0
15.005000 0.107719 0
15.010000 0.135936 0
15.015000 0.162702 0
15.020000 0.186682 0
15.025000 0.206580 0
15.030000 0.221249 0
15.035000 0.229802 0
15.040000 0.231703 1
15.045000 0.226820 0
15.050000 0.215442 0
15.055000 0.198249 0
15.060000 0.176244 0
15.065000 0.150659 0
15.070000 0.122839 0
15.075000 0.094122 0
15.080000 0.065725 0
15.085000 0.038617 0
15.090000 0.013359 0
15.095000 -0.010163 0
15.100000 -0.033105 0
15.105000 -0.057972 0
15.110000 -0.088361 0
15.115000 -0.127471 0
15.120000 -0.175228 0
15.125000 -0.225127 0
15.130000 -0.262931 0
15.135000 -0.268597 2
15.140000 -0.220550 0
15.145000 -0.100384 0
15.150000 0.101660 0
15.155000 0.377997 0
15.160000 0.693094 0
15.165000 0.980802 0
15.170000 1.161187 0
15.175000 1.174831 3
15.180000 1.014367 0
15.185000 0.727070 0
15.190000 0.389699 0
15.195000 0.074783 0
15.200000 -0.170443 0
15.205000 -0.326381 0
15.210000 -0.394121 4
15.215000 -0.388897 0
15.220000 -0.335175 0
15.225000 -0.260336 0
15.230000 -0.187035 0
15.235000 -0.127973 0
15.240000 -0.085754 0
15.245000 -0.056697 0
15.250000 -0.035303 0
15.255000 -0.017040 0
15.260000 0.000866 0
15.265000 0.019775 0
15.270000 0.040215 0
15.275000 0.062313 0
15.280000 0.086010 0
15.285000 0.111149 0
15.290000 0.137499 0
15.295000 0.164768 0
15.300000 0.192601 0
15.305000 0.220593 0
15.310000 0.248288 0
15.315000 0.275201 0
15.320000 0.300822 0
15.325000 0.324634 0
15.330000 0.346132 0
15.335000 0.364839 0
15.340000 0.380323 0
15.345000 0.392212 0
15.350000 0.400212 0
15.355000 0.404114 5
15.360000 0.403807 0
15.365000 0.399280 0
15.370000 0.390623 0
15.375000 0.378027 0
15.380000 0.361770 0
15.385000 0.342213 0
15.390000 0.319785 0
15.395000 0.294964 0
15.400000 0.268262 0
15.405000 0.240207 0
15.410000 0.211328 0
15.415000 0.182134 0
15.420000 0.153105 0
15.425000 0.124673 0
15.430000 0.097222 0
15.435000 0.071072 0
15.440000 0.046482 0
15.445000 0.023647 0
15.450000 0.002697 0
15.455000 -0.016294 0
15.460000 -0.033306 0
15.465000 -0.048365 0
15.470000 -0.061536 0
15.475000 -0.072916 0
15.480000 -0.082625 0
15.485000 -0.090797 0
15.490000 -0.097579 0
15.495000 -0.103118 0
15.500000 -0.107562 0
15.505000 -0.111053 0
15.510000 -0.113723 0
15.515000 -0.115697 0
15.520000 -0.117085 0
15.525000 -0.117986 0
15.530000 -0.118489 0
15.535000 -0.118666 0
15.540000 -0.118584 0
15.545000 -0.118294 0
15.550000 -0.117418 0
15.555000 -0.116448 0
15.560000 -0.115482 0
15.565000 -0.114521 0
15.570000 -0.113565 0
15.575000 -0.112613 0
15.580000 -0.111666 0
15.585000 -0.110724 0
15.590000 -0.109787 0
15.595000 -0.108854 0
15.600000 -0.107926 0
15.605000 -0.107002 0
15.610000 -0.106083 0
15.615000 -0.105167 0
15.620000 -0.104254 0
15.625000 -0.103343 0
15.630000 -0.102432 0
15.635000 -0.101517 0
15.640000 -0.100592 0
15.645000 -0.099646 0
15.650000 -0.098664 0
15.655000 -0.097621 0
15.660000 -0.096478 0
15.665000 -0.095182 0
15.670000 -0.093653 0
15.675000 -0.091784 0
15.680000 -0.089430 0
15.685000 -0.086404 0
15.690000 -0.082471 0
15.695000 -0.077353 0
15.700000 -0.070729 0
15.705000 -0.062253 0
15.710000 -0.051574 0
15.715000 -0.038371 0
15.720000 -0.022393 0
15.725000 -0.003503 0
15.730000 0.018265 0
15.735000 0.042673 0
15.740000 0.069239 0
15.745000 0.097229 0
15.750000 0.125672 0
15.755000 0.153401 0
15.760000 0.179128 0
15.765000 0.201534 0
15.770000 0.219387 0
15.775000 0.231647 0
15.780000 0.237568 1
15.785000 0.236776 0
15.790000 0.229303 0
15.795000 0.215589 0
15.800000 0.196437 0
15.805000 0.172935 0
15.810000 0.146357 0
15.815000 0.118041 0
15.820000 0.089281 0
15.825000 0.061208 0
15.830000 0.034665 0
15.835000 0.010014 0
15.840000 -0.013152 0
15.845000 -0.036390 0
15.850000 -0.062594 0
15.855000 -0.095426 0
15.860000 -0.137408 0
15.865000 -0.186846 0
15.870000 -0.235054 0
15.875000 -0.265968 2
15.880000 -0.258875 0
15.885000 -0.192858 0
15.890000 -0.051418 0
15.895000 0.171557 0
15.900000 0.462348 0
15.905000 0.777818 0
15.910000 1.046803 0
15.915000 1.191736 3
15.920000 1.162728 0
15.925000 0.965364 0
15.930000 0.657825 0
15.935000 0.320099 0
15.940000 0.020477 0
15.945000 -0.200944 0
15.950000 -0.330864 0
15.955000 -0.375064 4
15.960000 -0.352345 0
15.965000 -0.289276 0
15.970000 -0.213005 0
15.975000 -0.143667 0
15.980000 -0.090551 0
15.985000 -0.053610 0
15.990000 -0.028004 0
15.995000 -0.008287 0
16.000000 0.009509 0
16.005000 0.027598 0
16.010000 0.046976 0
16.015000 0.067983 0
16.020000 0.090655 0
16.025000 0.114885 0
16.030000 0.140482 0
16.035000 0.167182 0
16.040000 0.194660 0
16.045000 0.222532 0
16.050000 0.250360 0
16.055000 0.277666 0
16.060000 0.303942 0
16.065000 0.328664 0
16.070000 0.351309 0
16.075000 0.371376 0
16.080000 0.388399 0
16.085000 0.401969 0
16.090000 0.411747 0
16.095000 0.417478 0
16.100000 0.419002 5
16.105000 0.416263 0
16.110000 0.409305 0
16.115000 0.398279 0
16.120000 0.383432 0
16.125000 0.365097 0
16.130000 0.343685 0
16.135000 0.319662 0
16.140000 0.293540 0
16.145000 0.265851 0
16.150000 0.237135 0
16.155000 0.207919 0
16.160000 0.178703 0
16.165000 0.149946 0
16.170000 0.122055 0
16.175000 0.095378 0
16.180000 0.070198 0
16.185000 0.046734 0
16.190000 0.025138 0
16.195000 0.005503 0
16.200000 -0.012138 0
16.205000 -0.027797 0
16.210000 -0.041532 0
16.215000 -0.053433 0
16.220000 -0.063616 0
16.225000 -0.072217 0
16.230000 -0.079381 0
16.235000 -0.085258 0
16.240000 -0.090000 0
16.245000 -0.093751 0
16.250000 -0.096649 0
16.255000 -0.098823 0
16.260000 -0.100386 0
16.265000 -0.101443 0
16.270000 -0.102083 0
16.275000 -0.102385 0
16.280000 -0.102416 0
16.285000 -0.102230 0
16.290000 -0.101438 0
16.295000 -0.100547 0
16.300000 -0.099661 0
16.305000 -0.098779 0
16.310000 -0.097901 0
16.315000 -0.097027 0
16.320000 -0.096158 0
16.325000 -0.095294 0
16.330000 -0.094433 0
16.335000 -0.093577 0
16.340000 -0.092725 0
16.345000 -0.091877 0
16.350000 -0.091033 0
16.355000 -0.090192 0
16.360000 -0.089355 0
16.365000 -0.088518 0
16.370000 -0.087681 0
16.375000 -0.086839 0
16.380000 -0.085986 0
16.385000 -0.085112 0
16.390000 -0.084199 0
16.395000 -0.083222 0
16.400000 -0.082142 0
16.405000 -0.080900 0
16.410000 -0.079416 0
16.415000 -0.077576 0
16.420000 -0.075228 0
16.425000 -0.072177 0
16.430000 -0.068179 0
16.435000 -0.062945 0
16.440000 -0.056143 0
16.445000 -0.047420 0
16.450000 -0.036420 0
16.455000 -0.022824 0
16.460000 -0.006395 0
16.465000 0.012980 0
16.470000 0.035232 0
16.475000 0.060069 0
16.480000 0.086950 0
16.485000 0.115074 0
16.490000 0.143404 0
16.495000 0.170717 0
16.500000 0.195685 0
16.505000 0.216977 0
16.510000 0.233379 0
16.515000 0.243904 0
16.520000 0.247890 1
16.525000 0.245071 0
16.530000 0.235604 0
16.535000 0.220053 0
16.540000 0.199335 0
16.545000 0.174630 0
16.550000 0.147267 0
16.555000 0.118605 0
16.560000 0.089918 0
16.565000 0.062269 0
16.570000 0.036364 0
16.575000 0.012323 0
16.580000 -0.010671 0
16.585000 -0.034734 0
16.590000 -0.063256 0
16.595000 -0.099806 0
16.600000 -0.145573 0
16.605000 -0.196059 0
16.610000 -0.239034 0
16.615000 -0.255574 2
16.620000 -0.223934 0
16.625000 -0.124296 0
16.630000 0.056121 0
16.635000 0.315297 0
16.640000 0.625585 0
16.645000 0.927660 0
16.650000 1.141881 0
16.655000 1.199841 3
16.660000 1.076885 0
16.665000 0.809488 0
16.670000 0.475143 0
16.675000 0.153291 0
16.680000 -0.101723 0
16.685000 -0.266012 0
16.690000 -0.339050 4
16.695000 -0.336145 0
16.700000 -0.282884 0
16.705000 -0.208152 0
16.710000 -0.135650 0
16.715000 -0.078202 0
16.720000 -0.037877 0
16.725000 -0.010397 0
16.730000 0.010011 0
16.735000 0.027838 0
16.740000 0.045686 0
16.745000 0.064750 0
16.750000 0.085453 0
16.755000 0.107860 0
16.760000 0.131872 0
16.765000 0.157296 0
16.770000 0.183864 0
16.775000 0.211241 0
16.780000 0.239027 0
16.785000 0.266770 0
16.790000 0.293973 0
16.795000 0.320104 0
16.800000 0.344622 0
16.805000 0.366983 0
16.810000 0.386668 0
16.815000 0.403200 0
16.820000 0.416161 0
16.825000 0.425211 0
16.830000 0.430101 0
16.835000 0.430685 5
16.840000 0.426923 0
16.845000 0.418889 0
16.850000 0.406763 0
16.855000 0.390826 0
16.860000 0.371449 0
16.865000 0.349077 0
16.870000 0.324211 0
16.875000 0.297392 0
16.880000 0.269179 0
16.885000 0.240128 0
16.890000 0.210779 0
16.895000 0.181633 0
16.900000 0.153145 0
16.905000 0.125711 0
16.910000 0.099661 0
16.915000 0.075257 0
16.920000 0.052689 0
16.925000 0.032082 0
16.930000 0.013498 0
16.935000 -0.003056 0
16.940000 -0.017622 0
16.945000 -0.030281 0
16.950000 -0.041146 0
16.955000 -0.050349 0
16.960000 -0.058039 0
16.965000 -0.064373 0
16.970000 -0.069505 0
16.975000 -0.073590 0
16.980000 -0.076773 0
16.985000 -0.079187 0
16.990000 -0.080957 0
16.995000 -0.082192 0
17.000000 -0.082987 0
17.005000 -0.083426 0
17.010000 -0.083580 0
17.015000 -0.083508 0
17.020000 -0.082812 0
17.025000 -0.082013 0
17.030000 -0.081219 0
17.035000 -0.080429 0
17.040000 -0.079643 0
17.045000 -0.078861 0
17.050000 -0.078082 0
17.055000 -0.077308 0
17.060000 -0.076537 0
17.065000 -0.075770 0
17.070000 -0.075007 0
17.075000 -0.074247 0
17.080000 -0.073491 0
17.085000 -0.072738 0
17.090000 -0.071986 0
17.095000 -0.071236 0
17.100000 -0.070483 0
17.105000 -0.069724 0
17.110000 -0.068950 0
17.115000 -0.068151 0
17.120000 -0.067305 0
17.125000 -0.066382 0
17.130000 -0.065336 0
17.135000 -0.064098 0
17.140000 -0.062573 0
17.145000 -0.060629 0
17.150000 -0.058089 0
17.155000 -0.054731 0
17.160000 -0.050279 0
17.165000 -0.044411 0
17.170000 -0.036768 0
17.175000 -0.026980 0
17.180000 -0.014690 0
17.185000 0.000394 0
17.190000 0.018451 0
17.195000 0.039497 0
17.200000 0.063325 0
17.205000 0.089477 0
17.210000 0.117216 0
17.215000 0.145548 0
17.220000 0.173255 0
17.225000 0.198981 0
17.230000 0.221334 0
17.235000 0.239007 0
17.240000 0.250905 0
17.245000 0.256257 1
17.250000 0.254694 0
17.255000 0.246294 0
17.260000 0.231575 0
17.265000 0.211436 0
17.270000 0.187073 0
17.275000 0.159854 0
17.280000 0.131194 0
17.285000 0.102425 0
17.290000 0.074667 0
17.295000 0.048670 0
17.300000 0.024570 0
17.305000 0.001514 0
17.310000 -0.022730 0
17.315000 -0.051717 0
17.320000 -0.089083 0
17.325000 -0.135701 0
17.330000 -0.186147 0
17.335000 -0.226773 0
17.340000 -0.237253 2
17.345000 -0.195003 0
17.350000 -0.080318 0
17.355000 0.117811 0
17.360000 0.392486 0
17.365000 0.707364 0
17.370000 0.993497 0
17.375000 1.167635 0
17.380000 1.169632 3
17.385000 0.993178 0
17.390000 0.693291 0
17.395000 0.355370 0
17.400000 0.054435 0
17.405000 -0.165519 0
17.410000 -0.290478 0
17.415000 -0.327557 4
17.420000 -0.298057 0
17.425000 -0.231159 0
17.430000 -0.155295 0
17.435000 -0.089821 0
17.440000 -0.041906 0
17.445000 -0.009498 0
17.450000 0.013203 0
17.455000 0.031611 0
17.460000 0.049198 0
17.465000 0.067689 0
17.470000 0.087756 0
17.475000 0.109564 0
17.480000 0.133055 0
17.485000 0.158054 0
17.490000 0.184305 0
17.495000 0.211478 0
17.500000 0.239175 0
17.505000 0.266937 0
17.510000 0.294255 0
17.515000 0.320585 0
17.520000 0.345362 0
17.525000 0.368021 0
17.530000 0.388020 0
17.535000 0.404855 0
17.540000 0.418085 0
17.545000 0.427350 0
17.550000 0.432385 0
17.555000 0.433033 5
17.560000 0.429253 0
17.565000 0.421119 0
17.570000 0.408820 0
17.575000 0.392653 0
17.580000 0.373007 0
17.585000 0.350349 0
17.590000 0.325205 0
17.595000 0.298140 0
17.600000 0.269735 0
17.605000 0.240566 0
17.610000 0.211188 0
17.615000 0.182114 0
17.620000 0.153805 0
17.625000 0.126655 0
17.630000 0.100990 0
17.635000 0.077062 0
17.640000 0.055049 0
17.645000 0.035060 0
17.650000 0.017140 0
17.655000 0.001277 0
17.660000 -0.012588 0
17.665000 -0.024552 0
17.670000 -0.034742 0
17.675000 -0.043305 0
17.680000 -0.050397 0
17.685000 -0.056183 0
17.690000 -0.060823 0
17.695000 -0.064472 0
17.700000 -0.067276 0
17.705000 -0.069369 0
17.710000 -0.070869 0
17.715000 -0.071883 0
17.720000 -0.072503 0
17.725000 -0.072806 0
17.730000 -0.072858 0
17.735000 -0.072627 0
17.740000 -0.071880 0
17.745000 -0.071136 0
17.750000 -0.070396 0
17.755000 -0.069660 0
17.760000 -0.068928 0
17.765000 -0.068199 0
17.770000 -0.067473 0
17.775000 -0.066752 0
17.780000 -0.066034 0
17.785000 -0.065319 0
17.790000 -0.064608 0
17.795000 -0.063900 0
17.800000 -0.063194 0
17.805000 -0.062491 0
17.810000 -0.061787 0
17.815000 -0.061082 0
17.820000 -0.060370 0
17.825000 -0.059642 0
17.830000 -0.058887 0
17.835000 -0.058083 0
17.840000 -0.057197 0
17.845000 -0.056180 0
17.850000 -0.054957 0
17.855000 -0.053426 0
17.860000 -0.051442 0
17.865000 -0.048815 0
17.870000 -0.045303 0
17.875000 -0.040610 0
17.880000 -0.034392 0
17.885000 -0.026269 0
17.890000 -0.015857 0
17.895000 -0.002800 0
17.900000 0.013178 0
17.905000 0.032214 0
17.910000 0.054253 0
17.915000 0.078990 0
17.920000 0.105842 0
17.925000 0.133935 0
17.930000 0.162131 0
17.935000 0.189093 0
17.940000 0.213379 0
17.945000 0.233569 0
17.950000 0.248397 0
17.955000 0.256885 0
17.960000 0.258444 1
17.965000 0.252944 0
17.970000 0.240728 0
17.975000 0.222577 0
17.980000 0.199624 0
17.985000 0.173238 0
17.990000 0.144887 0
17.995000 0.115998 0
18.000000 0.087819 0
18.005000 0.061262 0
18.010000 0.036677 0
18.015000 0.013483 0
18.020000 -0.010275 0
18.025000 -0.038043 0
18.030000 -0.073753 0
18.035000 -0.119087 0
18.040000 -0.169657 0
18.045000 -0.212486 0
18.050000 -0.227111 2
18.055000 -0.190084 0
18.060000 -0.080496 0
18.065000 0.113864 0
18.070000 0.386859 0
18.075000 0.701582 0
18.080000 0.986647 0
18.085000 1.155790 3
18.090000 1.148164 0
18.095000 0.961719 0
18.100000 0.656179 0
18.105000 0.318940 0
18.110000 0.024226 0
18.115000 -0.186228 0
18.120000 -0.300724 0
18.125000 -0.328404 4
18.130000 -0.292306 0
18.135000 -0.222588 0
18.140000 -0.147342 0
18.145000 -0.084463 0
18.150000 -0.039452 0
18.155000 -0.009197 0
18.160000 0.012365 0
18.165000 0.030426 0
18.170000 0.048129 0
18.175000 0.066952 0
18.180000 0.087433 0
18.185000 0.109673 0
18.190000 0.133579 0
18.195000 0.158952 0
18.200000 0.185510 0
18.205000 0.212898 0
18.210000 0.240693 0
18.215000 0.268413 0
18.220000 0.295525 0
18.225000 0.321468 0
18.230000 0.345664 0
18.235000 0.367541 0
18.240000 0.386558 0
18.245000 0.402220 0
18.250000 0.414105 0
18.255000 0.421879 0
18.260000 0.425311 5
18.265000 0.424285 0
18.270000 0.418803 0
18.275000 0.408989 0
18.280000 0.395081 0
18.285000 0.377421 0
18.290000 0.356441 0
18.295000 0.332647 0
18.300000 0.306595 0
18.305000 0.278870 0
18.310000 0.250063 0
18.315000 0.220756 0
18.320000 0.191493 0
18.325000 0.162774 0
18.330000 0.135035 0
18.335000 0.108643 0
18.340000 0.083891 0
18.345000 0.060997 0
18.350000 0.040103 0
18.355000 0.021283 0
18.360000 0.004551 0
18.365000 -0.010134 0
18.370000 -0.022857 0
18.375000 -0.033733 0
18.380000 -0.042907 0
18.385000 -0.050533 0
18.390000 -0.056778 0
18.395000 -0.061807 0
18.400000 -0.065781 0
18.405000 -0.068850 0
18.410000 -0.071157 0
18.415000 -0.072828 0
18.420000 -0.073975 0
18.425000 -0.074696 0
18.430000 -0.075075 0
18.435000 -0.075183 0
18.440000 -0.074983 0
18.445000 -0.074224 0
18.450000 -0.073469 0
18.455000 -0.072717 0
18.460000 -0.071970 0
18.465000 -0.071226 0
18.470000 -0.070485 0
18.475000 -0.069749 0
18.480000 -0.069016 0
18.485000 -0.068286 0
18.490000 -0.067560 0
18.495000 -0.066838 0
18.500000 -0.066119 0
18.505000 -0.065402 0
18.510000 -0.064688 0
18.515000 -0.063975 0
18.520000 -0.063259 0
18.525000 -0.062537 0
18.530000 -0.061802 0
18.535000 -0.061040 0
18.540000 -0.060231 0
18.545000 -0.059343 0
18.550000 -0.058327 0
18.555000 -0.057110 0
18.560000 -0.055587 0
18.565000 -0.053616 0
18.570000 -0.051005 0
18.575000 -0.047508 0
18.580000 -0.042825 0
18.585000 -0.036605 0
18.590000 -0.028464 0
18.595000 -0.018008 0
18.600000 -0.004876 0
18.605000 0.011211 0
18.610000 0.030388 0
18.615000 0.052587 0
18.620000 0.077487 0
18.625000 0.104473 0
18.630000 0.132635 0
18.635000 0.160796 0
18.640000 0.187578 0
18.645000 0.211510 0
18.650000 0.231153 0
18.655000 0.245247 0
18.660000 0.252839 0
18.665000 0.253389 1
18.670000 0.246836 0
18.675000 0.233601 0
18.680000 0.214546 0
18.685000 0.190876 0
18.690000 0.164016 0
18.695000 0.135464 0
18.700000 0.106647 0
18.705000 0.078780 0
18.710000 0.052688 0
18.715000 0.028548 0
18.720000 0.005467 0
18.725000 -0.018944 0
18.730000 -0.048486 0
18.735000 -0.086892 0
18.740000 -0.134530 0
18.745000 -0.184534 0
18.750000 -0.221107 0
18.755000 -0.221888 2
18.760000 -0.163205 0
18.765000 -0.025860 0
18.770000 0.197638 0
18.775000 0.491523 0
18.780000 0.805175 0
18.785000 1.056636 0
18.790000 1.162529 3
18.795000 1.082057 0
18.800000 0.840198 0
18.805000 0.512306 0
18.810000 0.184034 0
18.815000 -0.082306 0
18.820000 -0.257411 0
18.825000 -0.338297 0
18.830000 -0.339733 4
18.835000 -0.288018 0
18.840000 -0.213454 0
18.845000 -0.141038 0
18.850000 -0.084135 0
18.855000 -0.044648 0
18.860000 -0.017903 0
18.865000 0.002106 0
18.870000 0.019881 0
18.875000 0.037922 0
18.880000 0.057322 0
18.885000 0.078435 0
18.890000 0.101285 0
18.895000 0.125742 0
18.900000 0.151581 0
18.905000 0.178501 0
18.910000 0.206130 0
18.915000 0.234029 0
18.920000 0.261705 0
18.925000 0.288619 0
18.930000 0.314209 0
18.935000 0.337900 0
18.940000 0.359133 0
18.945000 0.377380 0
18.950000 0.392168 0
18.955000 0.403100 0
18.960000 0.409869 0
18.965000 0.412275 5
18.970000 0.410229 0
18.975000 0.403765 0
18.980000 0.393033 0
18.985000 0.378293 0
18.990000 0.359909 0
18.995000 0.338326 0
19.000000 0.314058 0
19.005000 0.287665 0
19.010000 0.259731 0
19.015000 0.230842 0
19.020000 0.201568 0
19.025000 0.172441 0
19.030000 0.143945 0
19.035000 0.116501 0
19.040000 0.090458 0
19.045000 0.066094 0
19.050000 0.043610 0
19.055000 0.023136 0
19.060000 0.004734 0
19.065000 -0.011593 0
19.070000 -0.025892 0
19.075000 -0.038253 0
19.080000 -0.048796 0
19.085000 -0.057666 0
19.090000 -0.065018 0
19.095000 -0.071019 0
19.100000 -0.075830 0
19.105000 -0.079611 0
19.110000 -0.082511 0
19.115000 -0.084668 0
19.120000 -0.086206 0
19.125000 -0.087234 0
19.130000 -0.087849 0
19.135000 -0.088131 0
19.140000 -0.088150 0
19.145000 -0.087871 0
19.150000 -0.087047 0
19.155000 -0.086228 0
19.160000 -0.085413 0
19.165000 -0.084602 0
19.170000 -0.083795 0
19.175000 -0.082992 0
19.180000 -0.082193 0
19.185000 -0.081398 0
19.190000 -0.080607 0
19.195000 -0.079819 0
19.200000 -0.079036 0
19.205000 -0.078256 0
19.210000 -0.077479 0
19.215000 -0.076704 0
19.220000 -0.075931 0
19.225000 -0.075155 0
19.230000 -0.074374 0
19.235000 -0.073579 0
19.240000 -0.072758 0
19.245000 -0.071890 0
19.250000 -0.070943 0
19.255000 -0.069868 0
19.260000 -0.068594 0
19.265000 -0.067016 0
19.270000 -0.064993 0
19.275000 -0.062335 0
19.280000 -0.058800 0
19.285000 -0.054090 0
19.290000 -0.047859 0
19.295000 -0.039726 0
19.300000 -0.029301 0
19.305000 -0.016223 0
19.310000 -0.000213 0
19.315000 0.018872 0
19.320000 0.040975 0
19.325000 0.065790 0
19.330000 0.092726 0
19.335000 0.120896 0
19.340000 0.149149 0
19.345000 0.176127 0
19.350000 0.200376 0
19.355000 0.220460 0
19.360000 0.235111 0
19.365000 0.243353 0
19.370000 0.244613 1
19.375000 0.238783 0
19.380000 0.226237 0
19.385000 0.207789 0
19.390000 0.184603 0
19.395000 0.158076 0
19.400000 0.129692 0
19.405000 0.100882 0
19.410000 0.072886 0
19.415000 0.046582 0
19.420000 0.022250 0
19.425000 -0.000824 0
19.430000 -0.024788 0
19.435000 -0.053260 0
19.440000 -0.090120 0
19.445000 -0.136502 0
19.450000 -0.186919 0
19.455000 -0.227068 0
19.460000 -0.235524 2
19.465000 -0.188624 0
19.470000 -0.066134 0
19.475000 0.142135 0
19.480000 0.425735 0
19.485000 0.741291 0
19.490000 1.011910 0
19.495000 1.151788 3
19.500000 1.110538 0
19.505000 0.899524 0
19.510000 0.584034 0
19.515000 0.248657 0
19.520000 -0.038472 0
19.525000 -0.240593 0
19.530000 -0.348561 0
19.535000 -0.372293 4
19.540000 -0.334498 0
19.545000 -0.264332 0
19.550000 -0.188806 0
19.555000 -0.125259 0
19.560000 -0.079262 0
19.565000 -0.048049 0
19.570000 -0.025808 0
19.575000 -0.007391 0
19.580000 0.010425 0
19.585000 0.029218 0
19.590000 0.049594 0
19.595000 0.071693 0
19.600000 0.095451 0
19.605000 0.120692 0
19.610000 0.147162 0
19.615000 0.174535 0
19.620000 0.202419 0
19.625000 0.230364 0
19.630000 0.257872 0
19.635000 0.284408 0
19.640000 0.309419 0
19.645000 0.332351 0
19.650000 0.352669 0
19.655000 0.369878 0
19.660000 0.383540 0
19.665000 0.393298 0
19.670000 0.398882 0
19.675000 0.400130 5
19.680000 0.396990 0
19.685000 0.389523 0
19.690000 0.377902 0
19.695000 0.362405 0
19.700000 0.343402 0
19.705000 0.321343 0
19.710000 0.296735 0
19.715000 0.270128 0
19.720000 0.242091 0
19.725000 0.213191 0
19.730000 0.183979 0
19.735000 0.154966 0
19.740000 0.126617 0
19.745000 0.099334 0
19.750000 0.073452 0
19.755000 0.049237 0
19.760000 0.026880 0
19.765000 0.006507 0
19.770000 -0.011824 0
19.775000 -0.028109 0
19.780000 -0.042393 0
19.785000 -0.054762 0
19.790000 -0.065333 0
19.795000 -0.074243 0
19.800000 -0.081646 0
19.805000 -0.087699 0
19.810000 -0.092562 0
19.815000 -0.096390 0
19.820000 -0.099329 0
19.825000 -0.101516 0
19.830000 -0.103072 0
19.835000 -0.104107 0
19.840000 -0.104717 0
19.845000 -0.104984 0
19.850000 -0.104976 0
19.855000 -0.104654 0
19.860000 -0.103747 0
19.865000 -0.102844 0
19.870000 -0.101946 0
19.875000 -0.101053 0
19.880000 -0.100164 0
19.885000 -0.099279 0
19.890000 -0.098399 0
19.895000 -0.097523 0
19.900000 -0.096651 0
19.905000 -0.095784 0
19.910000 -0.094921 0
19.915000 -0.094062 0
19.920000 -0.093207 0
19.925000 -0.092354 0
19.930000 -0.091504 0
19.935000 -0.090655 0
19.940000 -0.089802 0
19.945000 -0.088940 0
19.950000 -0.088061 0
19.955000 -0.087147 0
19.960000 -0.086176 0
19.965000 -0.085110 0
19.970000 -0.083892 0
19.975000 -0.082441 0
19.980000 -0.080644 0
19.985000 -0.078346 0
19.990000 -0.075345 0
19.995000 -0.071387 0
20.000000 -0.066167 0
20.005000 -0.059336 0
20.010000 -0.050519 0
20.015000 -0.039340 0
20.020000 -0.025465 0
20.025000 -0.008653 0
20.030000 0.011195 0
20.035000 0.033971 0
20.040000 0.059322 0
20.045000 0.086616 0
20.050000 0.114943 0
20.055000 0.143144 0
20.060000 0.169883 0
20.065000 0.193738 0
20.070000 0.213332 0
20.075000 0.227456 0
20.080000 0.235198 0
20.085000 0.236034 1
20.090000 0.229893 0
20.095000 0.217161 0
20.100000 0.198642 0
20.105000 0.175473 0
20.110000 0.149013 0
20.115000 0.120701 0
20.120000 0.091933 0
20.125000 0.063918 0
20.130000 0.037537 0
20.135000 0.013109 0
20.140000 -0.009959 0
20.145000 -0.033604 0
20.150000 -0.061211 0
20.155000 -0.096649 0
20.160000 -0.141640 0
20.165000 -0.192083 0
20.170000 -0.235547 0
20.175000 -0.252203 2
20.180000 -0.219055 0
20.185000 -0.115262 0
20.190000 0.072067 0
20.195000 0.338904 0
20.200000 0.652259 0
20.205000 0.945096 0
20.210000 1.132581 0
20.215000 1.149684 3
20.220000 0.988582 0
20.225000 0.699253 0
20.230000 0.361662 0
20.235000 0.050284 0
20.240000 -0.187714 0
20.245000 -0.334048 0
20.250000 -0.391631 4
20.255000 -0.377765 0
20.260000 -0.318769 0
20.265000 -0.242811 0
20.270000 -0.171786 0
20.275000 -0.116593 0
20.280000 -0.078070 0
20.285000 -0.051558 0
20.290000 -0.031428 0
20.295000 -0.013478 0
20.300000 0.004669 0
20.305000 0.024087 0
20.310000 0.045145 0
20.315000 0.067889 0
20.320000 0.092213 0
20.325000 0.117919 0
20.330000 0.144742 0
20.335000 0.172347 0
20.340000 0.200339 0
20.345000 0.228271 0
20.350000 0.255652 0
20.355000 0.281961 0
20.360000 0.306661 0
20.365000 0.329220 0
20.370000 0.349127 0
20.375000 0.365911 0
20.380000 0.379161 0
20.385000 0.388538 0
20.390000 0.393795 0
20.395000 0.394784 5
20.400000 0.391460 0
20.405000 0.383890 0
20.410000 0.372243 0
20.415000 0.356790 0
20.420000 0.337888 0
20.425000 0.315970 0
20.430000 0.291525 0
20.435000 0.265082 0
20.440000 0.237188 0
20.445000 0.208395 0
20.450000 0.179234 0
20.455000 0.150207 0
20.460000 0.121768 0
20.465000 0.094316 0
20.470000 0.068188 0
20.475000 0.043651 0
20.480000 0.020906 0
20.485000 0.000088 0
20.490000 -0.018730 0
20.495000 -0.035533 0
20.500000 -0.050351 0
20.505000 -0.063257 0
20.510000 -0.074354 0
20.515000 -0.083771 0
20.520000 -0.091650 0
20.525000 -0.098144 0
20.530000 -0.103407 0
20.535000 -0.107590 0
20.540000 -0.110839 0
20.545000 -0.113291 0
20.550000 -0.115069 0
20.555000 -0.116284 0
20.560000 -0.117037 0
20.565000 -0.117412 0
20.570000 -0.117484 0
20.575000 -0.117313 0
20.580000 -0.116864 0
20.585000 -0.115896 0
20.590000 -0.114933 0
20.595000 -0.113974 0
20.600000 -0.113021 0
20.605000 -0.112072 0
20.610000 -0.111128 0
20.615000 -0.110189 0
20.620000 -0.109254 0
20.625000 -0.108324 0
20.630000 -0.107398 0
20.635000 -0.106477 0
20.640000 -0.105560 0
20.645000 -0.104648 0
20.650000 -0.103738 0
20.655000 -0.102831 0
20.660000 -0.101924 0
20.665000 -0.101013 0
20.670000 -0.100094 0
20.675000 -0.099156 0
20.680000 -0.098184 0
20.685000 -0.097154 0
20.690000 -0.096028 0
20.695000 -0.094752 0
20.700000 -0.093247 0
20.705000 -0.091403 0
20.710000 -0.089071 0
20.715000 -0.086058 0
20.720000 -0.082123 0
20.725000 -0.076972 0
20.730000 -0.070274 0
20.735000 -0.061666 0
20.740000 -0.050785 0
20.745000 -0.037300 0
20.750000 -0.020960 0
20.755000 -0.001644 0
20.760000 0.020588 0
20.765000 0.045445 0
20.770000 0.072381 0
20.775000 0.100578 0
20.780000 0.128976 0
20.785000 0.156324 0
20.790000 0.181260 0
20.795000 0.202429 0
20.800000 0.218597 0
20.805000 0.228769 0
20.810000 0.232297 1
20.815000 0.228942 0
20.820000 0.218901 0
20.825000 0.202792 0
20.830000 0.181588 0
20.835000 0.156518 0
20.840000 0.128953 0
20.845000 0.100277 0
20.850000 0.071766 0
20.855000 0.044458 0
20.860000 0.018986 0
20.865000 -0.004680 0
20.870000 -0.027617 0
20.875000 -0.052297 0
20.880000 -0.082371 0
20.885000 -0.121194 0
20.890000 -0.168844 0
20.895000 -0.218776 0
20.900000 -0.256399 0
20.905000 -0.261092 2
20.910000 -0.210710 0
20.915000 -0.086561 0
20.920000 0.120709 0
20.925000 0.401732 0
20.930000 0.717414 0
20.935000 0.997449 0
20.940000 1.160192 3
20.945000 1.151034 0
20.950000 0.969981 0
20.955000 0.670712 0
20.960000 0.332649 0
20.965000 0.026541 0
20.970000 -0.204287 0
20.975000 -0.343993 0
20.980000 -0.396634 4
20.985000 -0.379839 0
20.990000 -0.319649 0
20.995000 -0.243545 0
21.000000 -0.172703 0
21.005000 -0.117597 0
21.010000 -0.078991 0
21.015000 -0.052331 0
21.020000 -0.032094 0
21.025000 -0.014118 0
21.030000 0.003985 0
21.035000 0.023308 0
21.040000 0.044242 0
21.045000 0.066845 0
21.050000 0.091023 0
21.055000 0.116590 0
21.060000 0.143292 0
21.065000 0.170809 0
21.070000 0.198762 0
21.075000 0.226721 0
21.080000 0.254210 0
21.085000 0.280723 0
21.090000 0.305738 0
21.095000 0.328731 0
21.100000 0.349197 0
21.105000 0.366666 0
21.110000 0.380721 0
21.115000 0.391016 0
21.120000 0.397286 0
21.125000 0.399361 5
21.130000 0.397171 0
21.135000 0.390754 0
21.140000 0.380247 0
21.145000 0.365887 0
21.150000 0.348000 0
21.155000 0.326988 0
21.160000 0.303314 0
21.165000 0.277483 0
21.170000 0.250029 0
21.175000 0.221490 0
21.180000 0.192396 0
21.185000 0.163251 0
21.190000 0.134517 0
21.195000 0.106609 0
21.200000 0.079881 0
21.205000 0.054623 0
21.210000 0.031061 0
21.215000 0.009353 0
21.220000 -0.010401 0
21.225000 -0.028162 0
21.230000 -0.043939 0
21.235000 -0.057784 0
21.240000 -0.069784 0
21.245000 -0.080054 0
21.250000 -0.088727 0
21.255000 -0.095947 0
21.260000 -0.101866 0
21.265000 -0.106634 0
21.270000 -0.110397 0
21.275000 -0.113294 0
21.280000 -0.115453 0
21.285000 -0.116991 0
21.290000 -0.118012 0
21.295000 -0.118609 0
21.300000 -0.118860 0
21.305000 -0.118834 0
21.310000 -0.118587 0
21.315000 -0.117716 0
21.320000 -0.116744 0
21.325000 -0.115777 0
21.330000 -0.114814 0
21.335000 -0.113857 0
21.340000 -0.112904 0
21.345000 -0.111955 0
21.350000 -0.111012 0
21.355000 -0.110073 0
21.360000 -0.109139 0
21.365000 -0.108209 0
21.370000 -0.107284 0
21.375000 -0.106363 0
21.380000 -0.105446 0
21.385000 -0.104532 0
21.390000 -0.103621 0
21.395000 -0.102709 0
21.400000 -0.101793 0
21.405000 -0.100867 0
21.410000 -0.099922 0
21.415000 -0.098941 0
21.420000 -0.097899 0
21.425000 -0.096759 0
21.430000 -0.095465 0
21.435000 -0.093939 0
21.440000 -0.092069 0
21.445000 -0.089710 0
21.450000 -0.086670 0
21.455000 -0.082711 0
21.460000 -0.077548 0
21.465000 -0.070852 0
21.470000 -0.062271 0
21.475000 -0.051450 0
21.480000 -0.038063 0
21.485000 -0.021860 0
21.490000 -0.002717 0
21.495000 0.019319 0
21.500000 0.043981 0
21.505000 0.070754 0
21.510000 0.098863 0
21.515000 0.127292 0
21.520000 0.154834 0
21.525000 0.180166 0
21.530000 0.201954 0
21.535000 0.218965 0
21.540000 0.230184 0
21.545000 0.234915 1
21.550000 0.232847 0
21.555000 0.224095 0
21.560000 0.209184 0
21.565000 0.189001 0
21.570000 0.164701 0
21.575000 0.137606 0
21.580000 0.109078 0
21.585000 0.080403 0
21.590000 0.052672 0
21.595000 0.026636 0
21.600000 0.002487 0
21.605000 -0.020479 0
21.610000 -0.044239 0
21.615000 -0.072082 0
21.620000 -0.107650 0
21.625000 -0.152520 0
21.630000 -0.202895 0
21.635000 -0.247325 0
21.640000 -0.267412 2
21.645000 -0.241476 0
21.650000 -0.149294 0
21.655000 0.022903 0
21.660000 0.275031 0
21.665000 0.582443 0
21.670000 0.888816 0
21.675000 1.115369 0
21.680000 1.190861 3
21.685000 1.087103 0
21.690000 0.834319 0
21.695000 0.504437 0
21.700000 0.175983 0
21.705000 -0.093779 0
21.710000 -0.276844 0
21.715000 -0.368884 0
21.720000 -0.381807 4
21.725000 -0.338457 0
21.730000 -0.266673 0
21.735000 -0.191448 0
21.740000 -0.128466 0
21.745000 -0.082602 0
21.750000 -0.051158 0
21.755000 -0.028627 0
21.760000 -0.010061 0
21.765000 0.007722 0
21.770000 0.026340 0
21.775000 0.046447 0
21.780000 0.068224 0
21.785000 0.091634 0
21.790000 0.116529 0
21.795000 0.142685 0
21.800000 0.169812 0
21.805000 0.197557 0
21.810000 0.225512 0
21.815000 0.253220 0
21.820000 0.280187 0
21.825000 0.305894 0
21.830000 0.329817 0
21.835000 0.351440 0
21.840000 0.370273 0
21.845000 0.385872 0
21.850000 0.397858 0
21.855000 0.405926 0
21.860000 0.409862 5
21.865000 0.409550 0
21.870000 0.404979 0
21.875000 0.396242 0
21.880000 0.383531 0
21.885000 0.367134 0
21.890000 0.347421 0
21.895000 0.324829 0
21.900000 0.299849 0
21.905000 0.273003 0
21.910000 0.244831 0
21.915000 0.215869 0
21.920000 0.186635 0
21.925000 0.157611 0
21.930000 0.129236 0
21.935000 0.101892 0
21.940000 0.075897 0
21.945000 0.051507 0
21.950000 0.028910 0
21.955000 0.008232 0
21.960000 -0.010463 0
21.965000 -0.027163 0
21.970000 -0.041902 0
21.975000 -0.054752 0
21.980000 -0.065818 0
21.985000 -0.075226 0
21.990000 -0.083115 0
21.995000 -0.089635 0
22.000000 -0.094938 0
22.005000 -0.099171 0
22.010000 -0.102478 0
22.015000 -0.104992 0
22.020000 -0.106835 0
22.025000 -0.108118 0
22.030000 -0.108936 0
22.035000 -0.109376 0
22.040000 -0.109509 0
22.045000 -0.109398 0
22.050000 -0.109003 0
22.055000 -0.108074 0
22.060000 -0.107150 0
22.065000 -0.106231 0
22.070000 -0.105316 0
22.075000 -0.104405 0
22.080000 -0.103500 0
22.085000 -0.102598 0
22.090000 -0.101701 0
22.095000 -0.100809 0
22.100000 -0.099921 0
22.105000 -0.099037 0
22.110000 -0.098158 0
22.115000 -0.097282 0
22.120000 -0.096410 0
22.125000 -0.095540 0
22.130000 -0.094670 0
22.135000 -0.093799 0
22.140000 -0.092920 0
22.145000 -0.092026 0
22.150000 -0.091104 0
22.155000 -0.090133 0
22.160000 -0.089081 0
22.165000 -0.087900 0
22.170000 -0.086523 0
22.175000 -0.084854 0
22.180000 -0.082760 0
22.185000 -0.080071 0
22.190000 -0.076568 0
22.195000 -0.071984 0
22.200000 -0.066008 0
22.205000 -0.058294 0
22.210000 -0.048484 0
22.215000 -0.036236 0
22.220000 -0.021262 0
22.225000 -0.003380 0
22.230000 0.017442 0
22.235000 0.041030 0
22.240000 0.066975 0
22.245000 0.094606 0
22.250000 0.123003 0
22.255000 0.151028 0
22.260000 0.177393 0
22.265000 0.200754 0
22.270000 0.219821 0
22.275000 0.233474 0
22.280000 0.240877 0
22.285000 0.241553 1
22.290000 0.235445 0
22.295000 0.222914 0
22.300000 0.204709 0
22.305000 0.181890 0
22.310000 0.155727 0
22.315000 0.127581 0
22.320000 0.098786 0
22.325000 0.070527 0
22.330000 0.043714 0
22.335000 0.018798 0
22.340000 -0.004519 0
22.345000 -0.027666 0
22.350000 -0.053452 0
22.355000 -0.085590 0
22.360000 -0.126861 0
22.365000 -0.175996 0
22.370000 -0.224699 0
22.375000 -0.257018 2
22.380000 -0.251999 0
22.385000 -0.188255 0
22.390000 -0.048756 0
22.395000 0.173051 0
22.400000 0.463537 0
22.405000 0.778918 0
22.410000 1.046653 0
22.415000 1.187954 3
22.420000 1.153568 0
22.425000 0.950360 0
22.430000 0.639343 0
22.435000 0.302309 0
22.440000 0.007474 0
22.445000 -0.206393 0
22.450000 -0.327637 0
22.455000 -0.363656 4
22.460000 -0.334779 0
22.465000 -0.268637 0
22.470000 -0.192425 0
22.475000 -0.125270 0
22.480000 -0.075014 0
22.485000 -0.040482 0
22.490000 -0.016377 0
22.495000 0.002678 0
22.500000 0.020368 0
22.505000 0.038649 0
22.510000 0.058351 0
22.515000 0.079729 0
22.520000 0.102774 0
22.525000 0.127354 0
22.530000 0.153252 0
22.535000 0.180183 0
22.540000 0.207794 0
22.545000 0.235678 0
22.550000 0.263372 0
22.555000 0.290377 0
22.560000 0.316166 0
22.565000 0.340202 0
22.570000 0.361956 0
22.575000 0.380927 0
22.580000 0.396657 0
22.585000 0.408755 0
22.590000 0.416906 0
22.595000 0.420887 5
22.600000 0.420577 0
22.605000 0.415964 0
22.610000 0.407141 0
22.615000 0.394307 0
22.620000 0.377756 0
22.625000 0.357866 0
22.630000 0.335089 0
22.635000 0.309925 0
22.640000 0.282910 0
22.645000 0.254594 0
22.650000 0.225525 0
22.655000 0.196228 0
22.660000 0.167193 0
22.665000 0.138860 0
22.670000 0.111611 0
22.675000 0.085765 0
22.680000 0.061571 0
22.685000 0.039213 0
22.690000 0.018807 0
22.695000 0.000411 0
22.700000 -0.015973 0
22.705000 -0.030388 0
22.710000 -0.042916 0
22.715000 -0.053667 0
22.720000 -0.062773 0
22.725000 -0.070382 0
22.730000 -0.076647 0
22.735000 -0.081721 0
22.740000 -0.085754 0
22.745000 -0.088891 0
22.750000 -0.091264 0
22.755000 -0.092993 0
22.760000 -0.094188 0
22.765000 -0.094944 0
22.770000 -0.095342 0
22.775000 -0.095453 0
22.780000 -0.095337 0
22.785000 -0.094584 0
22.790000 -0.093727 0
22.795000 -0.092875 0
22.800000 -0.092027 0
22.805000 -0.091182 0
22.810000 -0.090343 0
22.815000 -0.089507 0
22.820000 -0.088675 0
22.825000 -0.087848 0
22.830000 -0.087025 0
22.835000 -0.086205 0
22.840000 -0.085390 0
22.845000 -0.084578 0
22.850000 -0.083770 0
22.855000 -0.082964 0
22.860000 -0.082159 0
22.865000 -0.081354 0
22.870000 -0.080543 0
22.875000 -0.079721 0
22.880000 -0.078876 0
22.885000 -0.077991 0
22.890000 -0.077039 0
22.895000 -0.075979 0
22.900000 -0.074750 0
22.905000 -0.073265 0
22.910000 -0.071405 0
22.915000 -0.069011 0
22.920000 -0.065877 0
22.925000 -0.061747 0
22.930000 -0.056318 0
22.935000 -0.049246 0
22.940000 -0.040168 0
22.945000 -0.028725 0
22.950000 -0.014601 0
22.955000 0.002424 0
22.960000 0.022430 0
22.965000 0.045299 0
22.970000 0.070676 0
22.975000 0.097941 0
22.980000 0.126212 0
22.985000 0.154371 0
22.990000 0.181129 0
22.995000 0.205115 0
23.000000 0.224994 0
23.005000 0.239583 0
23.010000 0.247971 0
23.015000 0.249611 1
23.020000 0.244379 0
23.025000 0.232586 0
23.030000 0.214949 0
23.035000 0.192520 0
23.040000 0.166576 0
23.045000 0.138503 0
23.050000 0.109670 0
23.055000 0.081302 0
23.060000 0.054350 0
23.065000 0.029304 0
23.070000 0.005902 0
23.075000 -0.017276 0
23.080000 -0.043066 0
23.085000 -0.075251 0
23.090000 -0.116665 0
23.095000 -0.165948 0
23.100000 -0.214466 0
23.105000 -0.245728 2
23.110000 -0.238240 0
23.115000 -0.170281 0
23.120000 -0.024928 0
23.125000 0.203378 0
23.130000 0.498470 0
23.135000 0.812571 0
23.140000 1.069575 0
23.145000 1.190718 3
23.150000 1.131853 0
23.155000 0.908080 0
23.160000 0.587477 0
23.165000 0.253652 0
23.170000 -0.028150 0
23.175000 -0.223848 0
23.180000 -0.325980 0
23.185000 -0.345369 4
23.190000 -0.305104 0
23.195000 -0.234192 0
23.200000 -0.159055 0
23.205000 -0.096328 0
23.210000 -0.051087 0
23.215000 -0.020387 0
23.220000 0.001556 0
23.225000 0.019796 0
23.230000 0.037485 0
23.235000 0.056161 0
23.240000 0.076416 0
23.245000 0.098386 0
23.250000 0.122008 0
23.255000 0.147106 0
23.260000 0.173431 0
23.265000 0.200658 0
23.270000 0.228403 0
23.275000 0.256221 0
23.280000 0.283617 0
23.285000 0.310064 0
23.290000 0.335014 0
23.295000 0.357919 0
23.300000 0.378247 0
23.305000 0.395506 0
23.310000 0.409258 0
23.315000 0.419144 0
23.320000 0.424893 0
23.325000 0.426334 5
23.330000 0.423409 0
23.335000 0.416169 0
23.340000 0.404777 0
23.345000 0.389499 0
23.350000 0.370695 0
23.355000 0.348801 0
23.360000 0.324317 0
23.365000 0.297784 0
23.370000 0.269762 0
23.375000 0.240817 0
23.380000 0.211495 0
23.385000 0.182310 0
23.390000 0.153728 0
23.395000 0.126157 0
23.400000 0.099938 0
23.405000 0.075344 0
23.410000 0.052576 0
23.415000 0.031768 0
23.420000 0.012988 0
23.425000 -0.003752 0
23.430000 -0.018489 0
23.435000 -0.031302 0
23.440000 -0.042301 0
23.445000 -0.051619 0
23.450000 -0.059407 0
23.455000 -0.065819 0
23.460000 -0.071016 0
23.465000 -0.075150 0
23.470000 -0.078369 0
23.475000 -0.080811 0
23.480000 -0.082599 0
23.485000 -0.083845 0
23.490000 -0.084646 0
23.495000 -0.085087 0
23.500000 -0.085239 0
23.505000 -0.085163 0
23.510000 -0.084459 0
23.515000 -0.083652 0
23.520000 -0.082850 0
23.525000 -0.082052 0
23.530000 -0.081257 0
23.535000 -0.080467 0
23.540000 -0.079681 0
23.545000 -0.078898 0
23.550000 -0.078119 0
23.555000 -0.077345 0
23.560000 -0.076574 0
23.565000 -0.075806 0
23.570000 -0.075042 0
23.575000 -0.074281 0
23.580000 -0.073522 0
23.585000 -0.072763 0
23.590000 -0.072002 0
23.595000 -0.071235 0
23.600000 -0.070452 0
23.605000 -0.069642 0
23.610000 -0.068784 0
23.615000 -0.067845 0
23.620000 -0.066777 0
23.625000 -0.065510 0
23.630000 -0.063943 0
23.635000 -0.061939 0
23.640000 -0.059316 0
23.645000 -0.055842 0
23.650000 -0.051235 0
23.655000 -0.045164 0
23.660000 -0.037264 0
23.665000 -0.027160 0
23.670000 -0.014499 0
23.675000 0.001002 0
23.680000 0.019505 0
23.685000 0.040995 0
23.690000 0.065228 0
23.695000 0.091698 0
23.700000 0.119620 0
23.705000 0.147948 0
23.710000 0.175423 0
23.715000 0.200663 0
23.720000 0.222267 0
23.725000 0.238946 0
23.730000 0.249648 0
23.735000 0.253667 1
23.740000 0.250718 0
23.745000 0.240972 0
23.750000 0.225035 0
23.755000 0.203889 0
23.760000 0.178787 0
23.765000 0.151133 0
23.770000 0.122347 0
23.775000 0.093736 0
23.780000 0.066360 0
23.785000 0.040854 0
23.790000 0.017149 0
23.795000 -0.005931 0
23.800000 -0.031017 0
23.805000 -0.061905 0
23.810000 -0.101862 0
23.815000 -0.150392 0
23.820000 -0.199815 0
23.825000 -0.234170 2
23.830000 -0.231775 0
23.835000 -0.170147 0
23.840000 -0.031256 0
23.845000 0.191811 0
23.850000 0.484253 0
23.855000 0.798833 0
23.860000 1.058337 0
23.865000 1.181655 3
23.870000 1.123206 0
23.875000 0.898773 0
23.880000 0.577562 0
23.885000 0.244299 0
23.890000 -0.035412 0
23.895000 -0.227825 0
23.900000 -0.326132 0
23.905000 -0.341943 4
23.910000 -0.299150 0
23.915000 -0.227266 0
23.920000 -0.152628 0
23.925000 -0.091252 0
23.930000 -0.047468 0
23.935000 -0.017847 0
23.940000 0.003520 0
23.945000 0.021583 0
23.950000 0.039334 0
23.955000 0.058189 0
23.960000 0.078671 0
23.965000 0.100881 0
23.970000 0.124736 0
23.975000 0.150046 0
23.980000 0.176545 0
23.985000 0.203896 0
23.990000 0.231695 0
23.995000 0.259482 0
24.000000 0.286748 0
24.005000 0.312953 0
24.010000 0.337539 0
24.015000 0.359951 0
24.020000 0.379656 0
24.025000 0.396165 0
24.030000 0.409051 0
24.035000 0.417968 0
24.040000 0.422666 0
24.045000 0.422999 5
24.050000 0.418935 0
24.055000 0.410558 0
24.060000 0.398062 0
24.065000 0.381744 0
24.070000 0.361993 0
24.075000 0.339275 0
24.080000 0.314109 0
24.085000 0.287052 0
24.090000 0.258679 0
24.095000 0.229558 0
24.100000 0.200234 0
24.105000 0.171214 0
24.110000 0.142951 0
24.115000 0.115836 0
24.120000 0.090191 0
24.125000 0.066266 0
24.130000 0.044239 0
24.135000 0.024218 0
24.140000 0.006252 0
24.145000 -0.009669 0
24.150000 -0.023601 0
24.155000 -0.035638 0
24.160000 -0.045904 0
24.165000 -0.054540 0
24.170000 -0.061702 0
24.175000 -0.067551 0
24.180000 -0.072246 0
24.185000 -0.075941 0
24.190000 -0.078781 0
24.195000 -0.080898 0
24.200000 -0.082413 0
24.205000 -0.083432 0
24.210000 -0.084047 0
24.215000 -0.084336 0
24.220000 -0.084368 0
24.225000 -0.084105 0
24.230000 -0.083301 0
24.235000 -0.082500 0
24.240000 -0.081703 0
24.245000 -0.080911 0
24.250000 -0.080122 0
24.255000 -0.079338 0
24.260000 -0.078557 0
24.265000 -0.077780 0
24.270000 -0.077007 0
24.275000 -0.076237 0
24.280000 -0.075472 0
24.285000 -0.074710 0
24.290000 -0.073950 0
24.295000 -0.073194 0
24.300000 -0.072438 0
24.305000 -0.071682 0
24.310000 -0.070920 0
24.315000 -0.070147 0
24.320000 -0.069351 0
24.325000 -0.068514 0
24.330000 -0.067608 0
24.335000 -0.066589 0
24.340000 -0.065394 0
24.345000 -0.063931 0
24.350000 -0.062073 0
24.355000 -0.059648 0
24.360000 -0.056437 0
24.365000 -0.052166 0
24.370000 -0.046512 0
24.375000 -0.039111 0
24.380000 -0.029583 0
24.385000 -0.017561 0
24.390000 -0.002735 0
24.395000 0.015092 0
24.400000 0.035950 0
24.405000 0.059646 0
24.410000 0.085723 0
24.415000 0.113441 0
24.420000 0.141787 0
24.425000 0.169518 0
24.430000 0.195247 0
24.435000 0.217546 0
24.440000 0.235080 0
24.445000 0.246735 0
24.450000 0.251737 1
24.455000 0.249732 0
24.460000 0.240832 0
24.465000 0.225598 0
24.470000 0.204985 0
24.475000 0.180240 0
24.480000 0.152777 0
24.485000 0.124042 0
24.490000 0.095376 0
24.495000 0.067882 0
24.500000 0.042243 0
24.505000 0.018450 0
24.510000 -0.004612 0
24.515000 -0.029535 0
24.520000 -0.060137 0
24.525000 -0.099801 0
24.530000 -0.148188 0
24.535000 -0.197697 0
24.540000 -0.232251 2
24.545000 -0.229886 0
24.550000 -0.167787 0
24.555000 -0.027718 0
24.560000 0.197096 0
24.565000 0.490996 0
24.570000 0.805030 0
24.575000 1.060131 0
24.580000 1.174804 3
24.585000 1.106195 0
24.590000 0.874528 0
24.595000 0.550684 0
24.600000 0.218846 0
24.605000 -0.057085 0
24.610000 -0.244981 0
24.615000 -0.339103 0
24.620000 -0.351705 4
24.625000 -0.307012 0
24.630000 -0.234497 0
24.635000 -0.160105 0
24.640000 -0.099327 0
24.645000 -0.056093 0
24.650000 -0.026808 0
24.655000 -0.005570 0
24.660000 0.012497 0
24.665000 0.030314 0
24.670000 0.049258 0
24.675000 0.069832 0
24.680000 0.092131 0
24.685000 0.116069 0
24.690000 0.141454 0
24.695000 0.168019 0
24.700000 0.195427 0
24.705000 0.223275 0
24.710000 0.251102 0
24.715000 0.278401 0
24.720000 0.304633 0
24.725000 0.329242 0
24.730000 0.351674 0
24.735000 0.371399 0
24.740000 0.387931 0
24.745000 0.400843 0
24.750000 0.409791 0
24.755000 0.414526 0
24.760000 0.414902 5
24.765000 0.410889 0
24.770000 0.402569 0
24.775000 0.390135 0
24.780000 0.373883 0
24.785000 0.354200 0
24.790000 0.331549 0
24.795000 0.306449 0
24.800000 0.279454 0
24.805000 0.251137 0
24.810000 0.222063 0
24.815000 0.192778 0
24.820000 0.163788 0
24.825000 0.135544 0
24.830000 0.108439 0
24.835000 0.082795 0
24.840000 0.058862 0
24.845000 0.036820 0
24.850000 0.016780 0
24.855000 -0.001211 0
24.860000 -0.017158 0
24.865000 -0.031117 0
24.870000 -0.043180 0
24.875000 -0.053470 0
24.880000 -0.062127 0
24.885000 -0.069307 0
24.890000 -0.075169 0
24.895000 -0.079872 0
24.900000 -0.083570 0
24.905000 -0.086408 0
24.910000 -0.088519 0
24.915000 -0.090023 0
24.920000 -0.091027 0
24.925000 -0.091623 0
24.930000 -0.091891 0
24.935000 -0.091898 0
24.940000 -0.091606 0
24.945000 -0.090764 0
24.950000 -0.089927 0
24.955000 -0.089093 0
24.960000 -0.088264 0
24.965000 -0.087438 0
24.970000 -0.086617 0
24.975000 -0.085800 0
24.980000 -0.084987 0
24.985000 -0.084178 0
24.990000 -0.083373 0
24.995000 -0.082572 0
25.000000 -0.081774 0
25.005000 -0.080980 0
25.010000 -0.080188 0
25.015000 -0.079398 0
25.020000 -0.078607 0
25.025000 -0.077812 0
25.030000 -0.077006 0
25.035000 -0.076179 0
25.040000 -0.075313 0
25.045000 -0.074381 0
25.050000 -0.073342 0
25.055000 -0.072134 0
25.060000 -0.070669 0
25.065000 -0.068824 0
25.070000 -0.066432 0
25.075000 -0.063280 0
25.080000 -0.059100 0
25.085000 -0.053574 0
25.090000 -0.046345 0
25.095000 -0.037034 0
25.100000 -0.025269 0
25.105000 -0.010736 0
25.110000 0.006779 0
25.115000 0.027327 0
25.120000 0.050743 0
25.125000 0.076603 0
25.130000 0.104203 0
25.135000 0.132565 0
25.140000 0.160473 0
25.145000 0.186556 0
25.150000 0.209389 0
25.155000 0.227623 0
25.160000 0.240113 0
25.165000 0.246038 1
25.170000 0.244988 0
25.175000 0.237011 0
25.180000 0.222611 0
25.185000 0.202691 0
25.190000 0.178461 0
25.195000 0.151317 0
25.200000 0.122704 0
25.205000 0.093981 0
25.210000 0.066290 0
25.215000 0.040387 0
25.220000 0.016388 0
25.225000 -0.006629 0
25.230000 -0.031018 0
25.235000 -0.060465 0
25.240000 -0.098588 0
25.245000 -0.145874 0
25.250000 -0.196040 0
25.255000 -0.234315 0
25.260000 -0.239430 2
25.265000 -0.188416 0
25.270000 -0.061962 0
25.275000 0.149188 0
25.280000 0.434012 0
25.285000 0.749612 0
25.290000 1.020963 0
25.295000 1.164381 3
25.300000 1.128352 0
25.305000 0.922402 0
25.310000 0.609535 0
25.315000 0.273213 0
25.320000 -0.018021 0
25.325000 -0.226160 0
25.330000 -0.340726 0
25.335000 -0.370393 4
25.340000 -0.336770 0
25.345000 -0.268374 0
25.350000 -0.192412 0
25.355000 -0.127136 0
25.360000 -0.079183 0
25.365000 -0.046494 0
25.370000 -0.023449 0
25.375000 -0.004773 0
25.380000 0.012975 0
25.385000 0.031539 0
25.390000 0.051621 0
25.395000 0.073410 0
25.400000 0.096864 0
25.405000 0.121828 0
25.410000 0.148062 0
25.415000 0.175259 0
25.420000 0.203044 0
25.425000 0.230984 0
25.430000 0.258598 0
25.435000 0.285364 0
25.440000 0.310739 0
25.445000 0.334177 0
25.450000 0.355144 0
25.455000 0.373139 0
25.460000 0.387718 0
25.465000 0.398503 0
25.470000 0.405208 0
25.475000 0.407641 5
25.480000 0.405720 0
25.485000 0.399474 0
25.490000 0.389042 0
25.495000 0.374668 0
25.500000 0.356691 0
25.505000 0.335530 0
25.510000 0.311669 0
25.515000 0.285641 0
25.520000 0.258000 0
25.525000 0.229309 0
25.530000 0.200119 0
25.535000 0.170949 0
25.540000 0.142275 0
25.545000 0.114519 0
25.550000 0.088036 0
25.555000 0.063114 0
25.560000 0.039971 0
25.565000 0.018756 0
25.570000 -0.000448 0
25.575000 -0.017614 0
25.580000 -0.032769 0
25.585000 -0.045981 0
25.590000 -0.057352 0
25.595000 -0.067011 0
25.600000 -0.075102 0
25.605000 -0.081780 0
25.610000 -0.087202 0
25.615000 -0.091524 0
25.620000 -0.094894 0
25.625000 -0.097452 0
25.630000 -0.099325 0
25.635000 -0.100628 0
25.640000 -0.101462 0
25.645000 -0.101913 0
25.650000 -0.102058 0
25.655000 -0.101959 0
25.660000 -0.101581 0
25.665000 -0.100689 0
25.670000 -0.099802 0
25.675000 -0.098919 0
25.680000 -0.098041 0
25.685000 -0.097167 0
25.690000 -0.096297 0
25.695000 -0.095432 0
25.700000 -0.094571 0
25.705000 -0.093714 0
25.710000 -0.092861 0
25.715000 -0.092013 0
25.720000 -0.091168 0
25.725000 -0.090327 0
25.730000 -0.089488 0
25.735000 -0.088651 0
25.740000 -0.087814 0
25.745000 -0.086971 0
25.750000 -0.086118 0
25.755000 -0.085242 0
25.760000 -0.084327 0
25.765000 -0.083344 0
25.770000 -0.082252 0
25.775000 -0.080989 0
25.780000 -0.079466 0
25.785000 -0.077561 0
25.790000 -0.075108 0
25.795000 -0.071896 0
25.800000 -0.067661 0
25.805000 -0.062089 0
25.810000 -0.054829 0
25.815000 -0.045508 0
25.820000 -0.033761 0
25.825000 -0.019274 0
25.830000 -0.001836 0
25.835000 0.018610 0
25.840000 0.041915 0
25.845000 0.067676 0
25.850000 0.095218 0
25.855000 0.123596 0
25.860000 0.151630 0
25.865000 0.177980 0
25.870000 0.201246 0
25.875000 0.220085 0
25.880000 0.233342 0
25.885000 0.240167 1
25.890000 0.240101 0
25.895000 0.233129 0
25.900000 0.219685 0
25.905000 0.200603 0
25.910000 0.177034 0
25.915000 0.150329 0
25.920000 0.121910 0
25.925000 0.093141 0
25.930000 0.065199 0
25.935000 0.038920 0
25.940000 0.014577 0
25.945000 -0.008475 0
25.950000 -0.032213 0
25.955000 -0.060024 0
25.960000 -0.095705 0
25.965000 -0.140863 0
25.970000 -0.191326 0
25.975000 -0.234751 0
25.980000 -0.251563 2
25.985000 -0.219090 0
25.990000 -0.116729 0
25.995000 0.068442 0
26.000000 0.333039 0
26.005000 0.645633 0
26.010000 0.941309 0
26.015000 1.136479 0
26.020000 1.164874 3
26.025000 1.013530 0
26.030000 0.729568 0
26.035000 0.392477 0
26.040000 0.078119 0
26.045000 -0.164469 0
26.050000 -0.315576 0
26.055000 -0.377232 4
26.060000 -0.366227 0
26.065000 -0.308698 0
26.070000 -0.233017 0
26.075000 -0.161566 0
26.080000 -0.105757 0
26.085000 -0.066748 0
26.090000 -0.039978 0
26.095000 -0.019777 0
26.100000 -0.001865 0
26.105000 0.016197 0
26.110000 0.035514 0
26.115000 0.056471 0
26.120000 0.079118 0
26.125000 0.103352 0
26.130000 0.128976 0
26.135000 0.155725 0
26.140000 0.183264 0
26.145000 0.211198 0
26.150000 0.239078 0
26.155000 0.266411 0
26.160000 0.292674 0
26.165000 0.317330 0
26.170000 0.339843 0
26.175000 0.359700 0
26.180000 0.376429 0
26.185000 0.389615 0
26.190000 0.398922 0
26.195000 0.404099 0
26.200000 0.404999 5
26.205000 0.401578 0
26.210000 0.393904 0
26.215000 0.382149 0
26.220000 0.366585 0
26.225000 0.347573 0
26.230000 0.325548 0
26.235000 0.301002 0
26.240000 0.274466 0
26.245000 0.246491 0
26.250000 0.217630 0
26.255000 0.188415 0
26.260000 0.159350 0
26.265000 0.130888 0
26.270000 0.103429 0
26.275000 0.077306 0
26.280000 0.052787 0
26.285000 0.030071 0
26.290000 0.009290 0
26.295000 -0.009486 0
26.300000 -0.026242 0
26.305000 -0.041012 0
26.310000 -0.053871 0
26.315000 -0.064925 0
26.320000 -0.074301 0
26.325000 -0.082146 0
26.330000 -0.088611 0
26.335000 -0.093852 0
26.340000 -0.098020 0
26.345000 -0.101262 0
26.350000 -0.103712 0
26.355000 -0.105496 0
26.360000 -0.106723 0
26.365000 -0.107493 0
26.370000 -0.107891 0
26.375000 -0.107989 0
26.380000 -0.107849 0
26.385000 -0.107039 0
26.390000 -0.106120 0
26.395000 -0.105206 0
26.400000 -0.104296 0
26.405000 -0.103391 0
26.410000 -0.102490 0
26.415000 -0.101594 0
26.420000 -0.100702 0
26.425000 -0.099815 0
26.430000 -0.098932 0
26.435000 -0.098053 0
26.440000 -0.097178 0
26.445000 -0.096308 0
26.450000 -0.095441 0
26.455000 -0.094577 0
26.460000 -0.093715 0
26.465000 -0.092853 0
26.470000 -0.091987 0
26.475000 -0.091110 0
26.480000 -0.090214 0
26.485000 -0.089280 0
26.490000 -0.088284 0
26.495000 -0.087187 0
26.500000 -0.085930 0
26.505000 -0.084431 0
26.510000 -0.082575 0
26.515000 -0.080207 0
26.520000 -0.077128 0
26.525000 -0.073086 0
26.530000 -0.067783 0
26.535000 -0.060880 0
26.540000 -0.052010 0
26.545000 -0.040812 0
26.550000 -0.026962 0
26.555000 -0.010223 0
26.560000 0.009502 0
26.565000 0.032120 0
26.570000 0.057303 0
26.575000 0.084458 0
26.580000 0.112725 0
26.585000 0.141005 0
26.590000 0.168016 0
26.595000 0.192387 0
26.600000 0.212767 0
26.605000 0.227949 0
26.610000 0.236988 0
26.615000 0.239298 1
26.620000 0.234714 0
26.625000 0.223512 0
26.630000 0.206378 0
26.635000 0.184345 0
26.640000 0.158680 0
26.645000 0.130773 0
26.650000 0.102001 0
26.655000 0.073612 0
26.660000 0.046584 0
26.665000 0.021452 0
26.670000 -0.001983 0
26.675000 -0.025059 0
26.680000 -0.050532 0
26.685000 -0.082179 0
26.690000 -0.122986 0
26.695000 -0.171930 0
26.700000 -0.220804 0
26.705000 -0.253435 2
26.710000 -0.248390 0
26.715000 -0.183756 0
26.720000 -0.042180 0
26.725000 0.182642 0
26.730000 0.475687 0
26.735000 0.790391 0
26.740000 1.051140 0
26.745000 1.178273 3
26.750000 1.126511 0
26.755000 0.909854 0
26.760000 0.592909 0
26.765000 0.257435 0
26.770000 -0.030842 0
26.775000 -0.236023 0
26.780000 -0.348599 0
26.785000 -0.377407 4
26.790000 -0.343721 0
26.795000 -0.275485 0
26.800000 -0.199410 0
26.805000 -0.133603 0
26.810000 -0.084895 0
26.815000 -0.051514 0
26.820000 -0.028017 0
26.825000 -0.009147 0
26.830000 0.008605 0
26.835000 0.027062 0
26.840000 0.046980 0
26.845000 0.068580 0
26.850000 0.091839 0
26.855000 0.116616 0
26.860000 0.142686 0
26.865000 0.169759 0
26.870000 0.197478 0
26.875000 0.225428 0
26.880000 0.253144 0
26.885000 0.280125 0
26.890000 0.305840 0
26.895000 0.329754 0
26.900000 0.351340 0
26.905000 0.370099 0
26.910000 0.385581 0
26.915000 0.397399 0
26.920000 0.405245 0
26.925000 0.408908 5
26.930000 0.408275 0
26.935000 0.403343 0
26.940000 0.394215 0
26.945000 0.381099 0
26.950000 0.364295 0
26.955000 0.344192 0
26.960000 0.321243 0
26.965000 0.295953 0
26.970000 0.268860 0
26.975000 0.240515 0
26.980000 0.211464 0
26.985000 0.182228 0
26.990000 0.153294 0
26.995000 0.125097 0
27.000000 0.098015 0
27.005000 0.072359 0
27.010000 0.048373 0
27.015000 0.026235 0
27.020000 0.006055 0
27.025000 -0.012113 0
27.030000 -0.028271 0
27.035000 -0.042467 0
27.040000 -0.054784 0
27.045000 -0.065336 0
27.050000 -0.074256 0
27.055000 -0.081692 0
27.060000 -0.087796 0
27.065000 -0.092724 0
27.070000 -0.096624 0
27.075000 -0.099639 0
27.080000 -0.101901 0
27.085000 -0.103530 0
27.090000 -0.104633 0
27.095000 -0.105304 0
27.100000 -0.105624 0
27.105000 -0.105664 0
27.110000 -0.105480 0
27.115000 -0.104674 0
27.120000 -0.103767 0
27.125000 -0.102864 0
27.130000 -0.101966 0
27.135000 -0.101072 0
27.140000 -0.100183 0
27.145000 -0.099298 0
27.150000 -0.098418 0
27.155000 -0.097542 0
27.160000 -0.096670 0
27.165000 -0.095803 0
27.170000 -0.094940 0
27.175000 -0.094080 0
27.180000 -0.093224 0
27.185000 -0.092371 0
27.190000 -0.091519 0
27.195000 -0.090666 0
27.200000 -0.089808 0
27.205000 -0.088938 0
27.210000 -0.088045 0
27.215000 -0.087110 0
27.220000 -0.086105 0
27.225000 -0.084989 0
27.230000 -0.083697 0
27.235000 -0.082143 0
27.240000 -0.080203 0
27.245000 -0.077715 0
27.250000 -0.074469 0
27.255000 -0.070206 0
27.260000 -0.064618 0
27.265000 -0.057362 0
27.270000 -0.048071 0
27.275000 -0.036389 0
27.280000 -0.022008 0
27.285000 -0.004713 0
27.290000 0.015560 0
27.295000 0.038677 0
27.300000 0.064264 0
27.305000 0.091682 0
27.310000 0.120027 0
27.315000 0.148169 0
27.320000 0.174808 0
27.325000 0.198573 0
27.330000 0.218136 0
27.335000 0.232332 0
27.340000 0.240274 0
27.345000 0.241445 1
27.350000 0.235752 0
27.355000 0.223539 0
27.360000 0.205551 0
27.365000 0.182857 0
27.370000 0.156749 0
27.375000 0.128615 0
27.380000 0.099816 0
27.385000 0.071562 0
27.390000 0.044777 0
27.395000 0.019909 0
27.400000 -0.003375 0
27.405000 -0.026592 0
27.410000 -0.052673 0
27.415000 -0.085415 0
27.420000 -0.127470 0
27.425000 -0.177044 0
27.430000 -0.224926 0
27.435000 -0.254147 2
27.440000 -0.243038 0
27.445000 -0.170058 0
27.450000 -0.018837 0
27.455000 0.215035 0
27.460000 0.513440 0
27.465000 0.826290 0
27.470000 1.076237 0
27.475000 1.185772 3
27.480000 1.114836 0
27.485000 0.883111 0
27.490000 0.559806 0
27.495000 0.227164 0
27.500000 -0.051744 0
27.505000 -0.244469 0
27.510000 -0.344343 0
27.515000 -0.362404 4
27.520000 -0.321587 0
27.525000 -0.250529 0
27.530000 -0.175277 0
27.535000 -0.112285 0
27.540000 -0.066664 0
27.545000 -0.035597 0
27.550000 -0.013392 0
27.555000 0.004990 0
27.560000 0.022730 0
27.565000 0.041401 0
27.570000 0.061622 0
27.575000 0.083544 0
27.580000 0.107114 0
27.585000 0.132165 0
27.590000 0.158457 0
27.595000 0.185676 0
27.600000 0.213449 0
27.605000 0.241341 0
27.610000 0.268871 0
27.615000 0.295522 0
27.620000 0.320755 0
27.625000 0.344027 0
27.630000 0.364813 0
27.635000 0.382618 0
27.640000 0.397004 0
27.645000 0.407602 0
27.650000 0.414130 0
27.655000 0.416402 5
27.660000 0.414339 0
27.665000 0.407974 0
27.670000 0.397446 0
27.675000 0.382997 0
27.680000 0.364965 0
27.685000 0.343765 0
27.690000 0.319877 0
27.695000 0.293828 0
27.700000 0.266167 0
27.705000 0.237453 0
27.710000 0.208231 0
27.715000 0.179018 0
27.720000 0.150285 0
27.725000 0.122452 0
27.730000 0.095875 0
27.735000 0.070840 0
27.740000 0.047568 0
27.745000 0.026209 0
27.750000 0.006850 0
27.755000 -0.010480 0
27.760000 -0.025805 0
27.765000 -0.039188 0
27.770000 -0.050731 0
27.775000 -0.060557 0
27.780000 -0.068810 0
27.785000 -0.075641 0
27.790000 -0.081208 0
27.795000 -0.085663 0
27.800000 -0.089156 0
27.805000 -0.091826 0
27.810000 -0.093800 0
27.815000 -0.095193 0
27.820000 -0.096106 0
27.825000 -0.096630 0
27.830000 -0.096838 0
27.835000 -0.096796 0
27.840000 -0.096465 0
27.845000 -0.095599 0
27.850000 -0.094737 0
27.855000 -0.093879 0
27.860000 -0.093026 0
27.865000 -0.092177 0
27.870000 -0.091332 0
27.875000 -0.090492 0
27.880000 -0.089655 0
27.885000 -0.088823 0
27.890000 -0.087995 0
27.895000 -0.087170 0
27.900000 -0.086350 0
27.905000 -0.085533 0
27.910000 -0.084719 0
27.915000 -0.083906 0
27.920000 -0.083094 0
27.925000 -0.082277 0
27.930000 -0.081452 0
27.935000 -0.080607 0
27.940000 -0.079727 0
27.945000 -0.078788 0
27.950000 -0.077752 0
27.955000 -0.076563 0
27.960000 -0.075141 0
27.965000 -0.073373 0
27.970000 -0.071108 0
27.975000 -0.068148 0
27.980000 -0.064247 0
27.985000 -0.059107 0
27.990000 -0.052388 0
27.995000 -0.043723 0
28.000000 -0.032747 0
28.005000 -0.019129 0
28.010000 -0.002623 0
28.015000 0.016881 0
28.020000 0.039300 0
28.025000 0.064318 0
28.030000 0.091354 0
28.035000 0.119552 0
28.040000 0.147815 0
28.045000 0.174859 0
28.050000 0.199302 0
28.055000 0.219780 0
28.060000 0.235073 0
28.065000 0.244219 0
28.070000 0.246618 1
28.075000 0.242098 0
28.080000 0.230928 0
28.085000 0.213797 0
28.090000 0.191741 0
28.095000 0.166039 0
28.100000 0.138088 0
28.105000 0.109278 0
28.110000 0.080862 0
28.115000 0.053823 0
28.120000 0.028690 0
28.125000 0.005244 0
28.130000 -0.017894 0
28.135000 -0.043538 0
28.140000 -0.075505 0
28.145000 -0.116719 0
28.150000 -0.165921 0
28.155000 -0.214497 0
28.160000 -0.245825 2
28.165000 -0.238173 0
28.170000 -0.169579 0
28.175000 -0.022996 0
28.180000 0.206946 0
28.185000 0.503301 0
28.190000 0.816841 0
28.195000 1.069995 0
28.200000 1.183792 3
28.205000 1.116078 0
28.210000 0.885328 0
28.215000 0.561895 0
28.220000 0.229675 0
28.225000 -0.047357 0
28.230000 -0.236794 0
28.235000 -0.332579 0
28.240000 -0.346652 4
28.245000 -0.302950 0
28.250000 -0.230800 0
28.255000 -0.156227 0
28.260000 -0.094977 0
28.265000 -0.051257 0
28.270000 -0.021631 0
28.275000 -0.000233 0
28.280000 0.017858 0
28.285000 0.035620 0
28.290000 0.054472 0
28.295000 0.074939 0
28.300000 0.097129 0
28.305000 0.120960 0
28.310000 0.146247 0
28.315000 0.172727 0
28.320000 0.200068 0
28.325000 0.227871 0
28.330000 0.255682 0
28.335000 0.282998 0
28.340000 0.309283 0
28.345000 0.333985 0
28.350000 0.356551 0
28.355000 0.376452 0
28.360000 0.393198 0
