0.000000 1.168856 3
0.005000 1.046527 0
0.010000 0.742407 0
0.015000 0.366483 0
0.020000 0.026212 0
0.025000 -0.214676 0
0.030000 -0.337616 0
0.035000 -0.355143 4
0.040000 -0.299609 0
0.045000 -0.211718 0
0.050000 -0.125694 0
0.055000 -0.058815 0
0.060000 -0.012087 0
0.065000 0.021541 0
0.070000 0.049503 0
0.075000 0.076427 0
0.080000 0.104303 0
0.085000 0.133610 0
0.090000 0.164160 0
0.095000 0.195488 0
0.100000 0.226990 0
0.105000 0.257976 0
0.110000 0.287699 0
0.115000 0.315384 0
0.120000 0.340260 0
0.125000 0.361599 0
0.130000 0.378742 0
0.135000 0.391142 0
0.140000 0.398384 0
0.145000 0.400214 5
0.150000 0.396548 0
0.155000 0.387480 0
0.160000 0.373277 0
0.165000 0.354362 0
0.170000 0.331300 0
0.175000 0.304762 0
0.180000 0.275494 0
0.185000 0.244286 0
0.190000 0.211931 0
0.195000 0.179196 0
0.200000 0.146789 0
0.205000 0.115342 0
0.210000 0.085386 0
0.215000 0.057347 0
0.220000 0.031538 0
0.225000 0.008165 0
0.230000 -0.012669 0
0.235000 -0.030953 0
0.240000 -0.046748 0
0.245000 -0.060179 0
0.250000 -0.071416 0
0.255000 -0.080660 0
0.260000 -0.088127 0
0.265000 -0.094039 0
0.270000 -0.098614 0
0.275000 -0.102057 0
0.280000 -0.104560 0
0.285000 -0.106291 0
0.290000 -0.107398 0
0.295000 -0.106768 0
0.300000 -0.105847 0
0.305000 -0.104931 0
0.310000 -0.104020 0
0.315000 -0.103113 0
0.320000 -0.102210 0
0.325000 -0.101312 0
0.330000 -0.100416 0
0.335000 -0.099522 0
0.340000 -0.098627 0
0.345000 -0.097725 0
0.350000 -0.096807 0
0.355000 -0.095856 0
0.360000 -0.094843 0
0.365000 -0.093723 0
0.370000 -0.092420 0
0.375000 -0.090824 0
0.380000 -0.088773 0
0.385000 -0.086038 0
0.390000 -0.082316 0
0.395000 -0.077225 0
0.400000 -0.070302 0
0.405000 -0.061033 0
0.410000 -0.048890 0
0.415000 -0.033394 0
0.420000 -0.014204 0
0.425000 0.008792 0
0.430000 0.035379 0
0.435000 0.064941 0
0.440000 0.096423 0
0.445000 0.128357 0
0.450000 0.158948 0
0.455000 0.186227 0
0.460000 0.208257 0
0.465000 0.223357 0
0.470000 0.230316 1
0.475000 0.228550 0
0.480000 0.218184 0
0.485000 0.200040 0
0.490000 0.175524 0
0.495000 0.146450 0
0.500000 0.114802 0
0.505000 0.082471 0
0.510000 0.050903 0
0.515000 0.020571 0
0.520000 -0.009793 0
0.525000 -0.043784 0
0.530000 -0.086463 0
0.535000 -0.140539 0
0.540000 -0.200241 0
0.545000 -0.247080 0
0.550000 -0.252043 2
0.555000 -0.183432 0
0.560000 -0.016198 0
0.565000 0.255950 0
0.570000 0.601431 0
0.575000 0.936455 0
0.580000 1.144524 3
0.585000 1.137336 0
0.590000 0.916699 0
0.595000 0.565138 0
0.600000 0.193104 0
0.605000 -0.112921 0
0.610000 -0.310900 0
0.615000 -0.395628 4
0.620000 -0.386324 0
0.625000 -0.317383 0
0.630000 -0.227047 0
0.635000 -0.144228 0
0.640000 -0.081383 0
0.645000 -0.037240 0
0.650000 -0.004636 0
0.655000 0.023183 0
0.660000 0.050275 0
0.665000 0.078356 0
0.670000 0.107827 0
0.675000 0.138500 0
0.680000 0.169934 0
0.685000 0.201563 0
0.690000 0.232741 0
0.695000 0.262767 0
0.700000 0.290909 0
0.705000 0.316440 0
0.710000 0.338660 0
0.715000 0.356933 0
0.720000 0.370716 0
0.725000 0.379582 0
0.730000 0.383247 5
0.735000 0.381580 0
0.740000 0.374611 0
0.745000 0.362532 0
0.750000 0.345687 0
0.755000 0.324554 0
0.760000 0.299724 0
0.765000 0.271872 0
0.770000 0.241726 0
0.775000 0.210038 0
0.780000 0.177550 0
0.785000 0.144966 0
0.790000 0.112932 0
0.795000 0.082013 0
0.800000 0.052680 0
0.805000 0.025305 0
0.810000 0.000157 0
0.815000 -0.022593 0
0.820000 -0.042865 0
0.825000 -0.060661 0
0.830000 -0.076050 0
0.835000 -0.089155 0
0.840000 -0.100140 0
0.845000 -0.109195 0
0.850000 -0.116526 0
0.855000 -0.122342 0
0.860000 -0.126850 0
0.865000 -0.130244 0
0.870000 -0.132705 0
0.875000 -0.134397 0
0.880000 -0.135462 0
0.885000 -0.134707 0
0.890000 -0.133648 0
0.895000 -0.132593 0
0.900000 -0.131544 0
0.905000 -0.130500 0
0.910000 -0.129461 0
0.915000 -0.128426 0
0.920000 -0.127396 0
0.925000 -0.126369 0
0.930000 -0.125343 0
0.935000 -0.124314 0
0.940000 -0.123276 0
0.945000 -0.122216 0
0.950000 -0.121114 0
0.955000 -0.119938 0
0.960000 -0.118634 0
0.965000 -0.117120 0
0.970000 -0.115277 0
0.975000 -0.112934 0
0.980000 -0.109857 0
0.985000 -0.105741 0
0.990000 -0.100206 0
0.995000 -0.092805 0
1.000000 -0.083046 0
1.005000 -0.070434 0
1.010000 -0.054527 0
1.015000 -0.035017 0
1.020000 -0.011813 0
1.025000 0.014872 0
1.030000 0.044457 0
1.035000 0.075960 0
1.040000 0.108015 0
1.045000 0.138948 0
1.050000 0.166911 0
1.055000 0.190056 0
1.060000 0.206741 0
1.065000 0.215718 0
1.070000 0.216291 1
1.075000 0.208404 0
1.080000 0.192652 0
1.085000 0.170206 0
1.090000 0.142672 0
1.095000 0.111891 0
1.100000 0.079720 0
1.105000 0.047755 0
1.110000 0.016944 0
1.115000 -0.013005 0
1.120000 -0.044333 0
1.125000 -0.081321 0
1.130000 -0.128449 0
1.135000 -0.185834 0
1.140000 -0.243791 0
1.145000 -0.280855 2
1.150000 -0.267865 0
1.155000 -0.175728 0
1.160000 0.016054 0
1.165000 0.307156 0
1.170000 0.658462 0
1.175000 0.982856 0
1.180000 1.169615 3
1.185000 1.142258 0
1.190000 0.907464 0
1.195000 0.550207 0
1.200000 0.180743 0
1.205000 -0.117705 0
1.210000 -0.306497 0
1.215000 -0.382790 4
1.220000 -0.367356 0
1.225000 -0.295391 0
1.230000 -0.204865 0
1.235000 -0.123502 0
1.240000 -0.062433 0
1.245000 -0.019597 0
1.250000 0.012321 0
1.255000 0.039893 0
1.260000 0.066954 0
1.265000 0.095074 0
1.270000 0.124585 0
1.275000 0.155268 0
1.280000 0.186671 0
1.285000 0.218218 0
1.290000 0.249257 0
1.295000 0.279083 0
1.300000 0.306965 0
1.305000 0.332174 0
1.310000 0.354016 0
1.315000 0.371861 0
1.320000 0.385173 0
1.325000 0.393539 0
1.330000 0.396685 5
1.335000 0.394494 0
1.340000 0.387011 0
1.345000 0.374441 0
1.350000 0.357140 0
1.355000 0.335597 0
1.360000 0.310413 0
1.365000 0.282267 0
1.370000 0.251893 0
1.375000 0.220041 0
1.380000 0.187453 0
1.385000 0.154829 0
1.390000 0.122809 0
1.395000 0.091948 0
1.400000 0.062712 0
1.405000 0.035462 0
1.410000 0.010460 0
1.415000 -0.012133 0
1.420000 -0.032245 0
1.425000 -0.049883 0
1.430000 -0.065123 0
1.435000 -0.078091 0
1.440000 -0.088955 0
1.445000 -0.097906 0
1.450000 -0.105150 0
1.455000 -0.110899 0
1.460000 -0.115356 0
1.465000 -0.118717 0
1.470000 -0.121161 0
1.475000 -0.122848 0
1.480000 -0.123920 0
1.485000 -0.123216 0
1.490000 -0.122213 0
1.495000 -0.121216 0
1.500000 -0.120223 0
1.505000 -0.119235 0
1.510000 -0.118252 0
1.515000 -0.117274 0
1.520000 -0.116299 0
1.525000 -0.115327 0
1.530000 -0.114355 0
1.535000 -0.113380 0
1.540000 -0.112395 0
1.545000 -0.111386 0
1.550000 -0.110332 0
1.555000 -0.109200 0
1.560000 -0.107933 0
1.565000 -0.106446 0
1.570000 -0.104616 0
1.575000 -0.102266 0
1.580000 -0.099155 0
1.585000 -0.094971 0
1.590000 -0.089327 0
1.595000 -0.081771 0
1.600000 -0.071807 0
1.605000 -0.058942 0
1.610000 -0.042745 0
1.615000 -0.022923 0
1.620000 0.000587 0
1.625000 0.027540 0
1.630000 0.057315 0
1.635000 0.088890 0
1.640000 0.120864 0
1.645000 0.151538 0
1.650000 0.179055 0
1.655000 0.201577 0
1.660000 0.217493 0
1.665000 0.225604 1
1.670000 0.225273 0
1.675000 0.216511 0
1.680000 0.199977 0
1.685000 0.176893 0
1.690000 0.148898 0
1.695000 0.117848 0
1.700000 0.085586 0
1.705000 0.053665 0
1.710000 0.022937 0
1.715000 -0.007058 0
1.720000 -0.038786 0
1.725000 -0.076683 0
1.730000 -0.125033 0
1.735000 -0.183173 0
1.740000 -0.240193 0
1.745000 -0.273537 2
1.750000 -0.253654 0
1.755000 -0.151917 0
1.760000 0.050699 0
1.765000 0.350703 0
1.770000 0.703986 0
1.775000 1.019045 0
1.780000 1.185679 3
1.785000 1.132406 0
1.790000 0.873647 0
1.795000 0.506807 0
1.800000 0.146412 0
1.805000 -0.128781 0
1.810000 -0.287764 0
1.815000 -0.334964 4
1.820000 -0.297710 0
1.825000 -0.215627 0
1.830000 -0.126437 0
1.835000 -0.053073 0
1.840000 -0.000842 0
1.845000 0.035810 0
1.850000 0.064755 0
1.855000 0.091568 0
1.860000 0.118934 0
1.865000 0.147684 0
1.870000 0.177777 0
1.875000 0.208809 0
1.880000 0.240213 0
1.885000 0.271321 0
1.890000 0.301402 0
1.895000 0.329685 0
1.900000 0.355397 0
1.905000 0.377791 0
1.910000 0.396183 0
1.915000 0.409989 0
1.920000 0.418752 0
1.925000 0.422165 5
1.930000 0.420090 0
1.935000 0.412566 0
1.940000 0.399808 0
1.945000 0.382193 0
1.950000 0.360244 0
1.955000 0.334601 0
1.960000 0.305992 0
1.965000 0.275196 0
1.970000 0.243009 0
1.975000 0.210208 0
1.980000 0.177524 0
1.985000 0.145612 0
1.990000 0.115038 0
1.995000 0.086260 0
2.000000 0.059627 0
2.005000 0.035377 0
2.010000 0.013644 0
2.015000 -0.005533 0
2.020000 -0.022195 0
2.025000 -0.036448 0
2.030000 -0.048450 0
2.035000 -0.058393 0
2.040000 -0.066491 0
2.045000 -0.072963 0
2.050000 -0.078031 0
2.055000 -0.081905 0
2.060000 -0.084779 0
2.065000 -0.086830 0
2.070000 -0.088214 0
2.075000 -0.088821 0
2.080000 -0.087990 0
2.085000 -0.087163 0
2.090000 -0.086340 0
2.095000 -0.085522 0
2.100000 -0.084707 0
2.105000 -0.083895 0
2.110000 -0.083087 0
2.115000 -0.082281 0
2.120000 -0.081473 0
2.125000 -0.080661 0
2.130000 -0.079837 0
2.135000 -0.078985 0
2.140000 -0.078081 0
2.145000 -0.077087 0
2.150000 -0.075937 0
2.155000 -0.074533 0
2.160000 -0.072731 0
2.165000 -0.070325 0
2.170000 -0.067038 0
2.175000 -0.062511 0
2.180000 -0.056306 0
2.185000 -0.047923 0
2.190000 -0.036831 0
2.195000 -0.022528 0
2.200000 -0.004620 0
2.205000 0.017089 0
2.210000 0.042499 0
2.215000 0.071126 0
2.220000 0.102057 0
2.225000 0.133950 0
2.230000 0.165101 0
2.235000 0.193576 0
2.240000 0.217406 0
2.245000 0.234803 0
2.250000 0.244386 0
2.255000 0.245357 1
2.260000 0.237612 0
2.265000 0.221756 0
2.270000 0.199025 0
2.275000 0.171125 0
2.280000 0.140012 0
2.285000 0.107639 0
2.290000 0.075640 0
2.295000 0.044874 0
2.300000 0.014724 0
2.305000 -0.017646 0
2.310000 -0.057079 0
2.315000 -0.107651 0
2.320000 -0.166992 0
2.325000 -0.220835 0
2.330000 -0.242895 2
2.335000 -0.201346 0
2.340000 -0.067932 0
2.345000 0.171445 0
2.350000 0.499757 0
2.355000 0.850185 0
2.360000 1.111763 0
2.365000 1.179239 3
2.370000 1.021428 0
2.375000 0.700596 0
2.380000 0.323700 0
2.385000 -0.011183 0
2.390000 -0.247511 0
2.395000 -0.369369 0
2.400000 -0.388799 4
2.405000 -0.335940 0
2.410000 -0.249047 0
2.415000 -0.161369 0
2.420000 -0.091159 0
2.425000 -0.041146 0
2.430000 -0.005370 0
2.435000 0.023498 0
2.440000 0.050503 0
2.445000 0.078078 0
2.450000 0.106990 0
2.455000 0.137211 0
2.460000 0.168371 0
2.465000 0.199949 0
2.470000 0.231326 0
2.475000 0.261822 0
2.480000 0.290720 0
2.485000 0.317290 0
2.490000 0.340820 0
2.495000 0.360653 0
2.500000 0.376206 0
2.505000 0.387007 0
2.510000 0.392716 0
2.515000 0.393140 5
2.520000 0.388244 0
2.525000 0.378156 0
2.530000 0.363157 0
2.535000 0.343672 0
2.540000 0.320246 0
2.545000 0.293517 0
2.550000 0.264194 0
2.555000 0.233017 0
2.560000 0.200732 0
2.565000 0.168060 0
2.570000 0.135670 0
2.575000 0.104160 0
2.580000 0.074041 0
2.585000 0.045726 0
2.590000 0.019528 0
2.595000 -0.004341 0
2.600000 -0.025764 0
2.605000 -0.044706 0
2.610000 -0.061209 0
2.615000 -0.075372 0
2.620000 -0.087342 0
2.625000 -0.097298 0
2.630000 -0.105437 0
2.635000 -0.111970 0
2.640000 -0.117101 0
2.645000 -0.121033 0
2.650000 -0.123952 0
2.655000 -0.126028 0
2.660000 -0.127414 0
2.665000 -0.127972 0
2.670000 -0.126946 0
2.675000 -0.125925 0
2.680000 -0.124909 0
2.685000 -0.123898 0
2.690000 -0.122892 0
2.695000 -0.121890 0
2.700000 -0.120893 0
2.705000 -0.119900 0
2.710000 -0.118908 0
2.715000 -0.117916 0
2.720000 -0.116918 0
2.725000 -0.115906 0
2.730000 -0.114863 0
2.735000 -0.113765 0
2.740000 -0.112569 0
2.745000 -0.111211 0
2.750000 -0.109592 0
2.755000 -0.107571 0
2.760000 -0.104949 0
2.765000 -0.101462 0
2.770000 -0.096771 0
2.775000 -0.090466 0
2.780000 -0.082077 0
2.785000 -0.071107 0
2.790000 -0.057079 0
2.795000 -0.039605 0
2.800000 -0.018464 0
2.805000 0.006308 0
2.810000 0.034342 0
2.815000 0.064885 0
2.820000 0.096785 0
2.825000 0.128537 0
2.830000 0.158380 0
2.835000 0.184454 0
2.840000 0.204982 0
2.845000 0.218478 0
2.850000 0.223917 1
2.855000 0.220870 0
2.860000 0.209557 0
2.865000 0.190823 0
2.870000 0.166034 0
2.875000 0.136907 0
2.880000 0.105312 0
2.885000 0.073026 0
2.890000 0.041433 0
2.895000 0.011065 0
2.900000 -0.019067 0
2.905000 -0.052059 0
2.910000 -0.092621 0
2.915000 -0.144182 0
2.920000 -0.203629 0
2.925000 -0.256717 0
2.930000 -0.278381 2
2.935000 -0.238665 0
2.940000 -0.110786 0
2.945000 0.119682 0
2.950000 0.440200 0
2.955000 0.793950 0
2.960000 1.080563 0
2.965000 1.194861 3
2.970000 1.086848 0
2.975000 0.794727 0
2.980000 0.420708 0
2.985000 0.070353 0
2.990000 -0.189131 0
2.995000 -0.334011 0
3.000000 -0.371668 4
3.005000 -0.329732 0
3.010000 -0.246357 0
3.015000 -0.157111 0
3.020000 -0.083492 0
3.025000 -0.030567 0
3.030000 0.006830 0
3.035000 0.036255 0
3.040000 0.063242 0
3.045000 0.090588 0
3.050000 0.119239 0
3.055000 0.149235 0
3.060000 0.180234 0
3.065000 0.211718 0
3.070000 0.243071 0
3.075000 0.273608 0
3.080000 0.302605 0
3.085000 0.329321 0
3.090000 0.353034 0
3.095000 0.373070 0
3.100000 0.388834 0
3.105000 0.399841 0
3.110000 0.405736 0
3.115000 0.406316 5
3.120000 0.401540 0
3.125000 0.391530 0
3.130000 0.376569 0
3.135000 0.357082 0
3.140000 0.333620 0
3.145000 0.306830 0
3.150000 0.277428 0
3.155000 0.246166 0
3.160000 0.213800 0
3.165000 0.181058 0
3.170000 0.148618 0
3.175000 0.117082 0
3.180000 0.086966 0
3.185000 0.058682 0
3.190000 0.032543 0
3.195000 0.008758 0
3.200000 -0.012559 0
3.205000 -0.031381 0
3.210000 -0.047753 0
3.215000 -0.061782 0
3.220000 -0.073619 0
3.225000 -0.083447 0
3.230000 -0.091471 0
3.235000 -0.097900 0
3.240000 -0.102944 0
3.245000 -0.106805 0
3.250000 -0.109670 0
3.255000 -0.111710 0
3.260000 -0.113075 0
3.265000 -0.113639 0
3.270000 -0.112685 0
3.275000 -0.111735 0
3.280000 -0.110790 0
3.285000 -0.109849 0
3.290000 -0.108913 0
3.295000 -0.107981 0
3.300000 -0.107053 0
3.305000 -0.106128 0
3.310000 -0.105204 0
3.315000 -0.104279 0
3.320000 -0.103345 0
3.325000 -0.102394 0
3.330000 -0.101407 0
3.335000 -0.100354 0
3.340000 -0.099189 0
3.345000 -0.097837 0
3.350000 -0.096190 0
3.355000 -0.094088 0
3.360000 -0.091312 0
3.365000 -0.087574 0
3.370000 -0.082509 0
3.375000 -0.075679 0
3.380000 -0.066598 0
3.385000 -0.054761 0
3.390000 -0.039705 0
3.395000 -0.021083 0
3.400000 0.001252 0
3.405000 0.027156 0
3.410000 0.056126 0
3.415000 0.087254 0
3.420000 0.119237 0
3.425000 0.150438 0
3.430000 0.179017 0
3.435000 0.203095 0
3.440000 0.220963 0
3.445000 0.231280 0
3.450000 0.233236 1
3.455000 0.226662 0
3.460000 0.212049 0
3.465000 0.190493 0
3.470000 0.163551 0
3.475000 0.133059 0
3.480000 0.100902 0
3.485000 0.068746 0
3.490000 0.037673 0
3.495000 0.007605 0
3.500000 -0.023419 0
3.505000 -0.059492 0
3.510000 -0.105305 0
3.515000 -0.161825 0
3.520000 -0.220678 0
3.525000 -0.261503 2
3.530000 -0.255413 0
3.535000 -0.172683 0
3.540000 0.008694 0
3.545000 0.291206 0
3.550000 0.639863 0
3.555000 0.970891 0
3.560000 1.172777 3
3.565000 1.163251 0
3.570000 0.940583 0
3.575000 0.586294 0
3.580000 0.216348 0
3.585000 -0.081030 0
3.590000 -0.265569 0
3.595000 -0.335338 4
3.600000 -0.313439 0
3.605000 -0.237713 0
3.610000 -0.147450 0
3.615000 -0.069457 0
3.620000 -0.012635 0
3.625000 0.026898 0
3.630000 0.057033 0
3.635000 0.084018 0
3.640000 0.111132 0
3.645000 0.139538 0
3.650000 0.169338 0
3.655000 0.200193 0
3.660000 0.231568 0
3.665000 0.262821 0
3.670000 0.293236 0
3.675000 0.322054 0
3.680000 0.348502 0
3.685000 0.371827 0
3.690000 0.391329 0
3.695000 0.406398 0
3.700000 0.416541 0
3.705000 0.421413 5
3.710000 0.420830 0
3.715000 0.414782 0
3.720000 0.403437 0
3.725000 0.387127 0
3.730000 0.366334 0
3.735000 0.341666 0
3.740000 0.313827 0
3.745000 0.283581 0
3.750000 0.251718 0
3.755000 0.219022 0
3.760000 0.186236 0
3.765000 0.154036 0
3.770000 0.123015 0
3.775000 0.093659 0
3.780000 0.066350 0
3.785000 0.041358 0
3.790000 0.018847 0
3.795000 -0.001116 0
3.800000 -0.018550 0
3.805000 -0.033540 0
3.810000 -0.046231 0
3.815000 -0.056803 0
3.820000 -0.065464 0
3.825000 -0.072432 0
3.830000 -0.077929 0
3.835000 -0.082166 0
3.840000 -0.085344 0
3.845000 -0.087644 0
3.850000 -0.089229 0
3.855000 -0.089972 0
3.860000 -0.089135 0
3.865000 -0.088302 0
3.870000 -0.087474 0
3.875000 -0.086650 0
3.880000 -0.085829 0
3.885000 -0.085013 0
3.890000 -0.084199 0
3.895000 -0.083388 0
3.900000 -0.082578 0
3.905000 -0.081764 0
3.910000 -0.080941 0
3.915000 -0.080097 0
3.920000 -0.079213 0
3.925000 -0.078254 0
3.930000 -0.077167 0
3.935000 -0.075870 0
3.940000 -0.074235 0
3.945000 -0.072084 0
3.950000 -0.069168 0
3.955000 -0.065163 0
3.960000 -0.059662 0
3.965000 -0.052187 0
3.970000 -0.042217 0
3.975000 -0.029233 0
3.980000 -0.012790 0
3.985000 0.007398 0
3.990000 0.031359 0
3.995000 0.058774 0
4.000000 0.088910 0
4.005000 0.120600 0
4.010000 0.152282 0
4.015000 0.182105 0
4.020000 0.208099 0
4.025000 0.228381 0
4.030000 0.241383 0
4.035000 0.246047 1
4.040000 0.241972 0
4.045000 0.229465 0
4.050000 0.209501 0
4.055000 0.183603 0
4.060000 0.153639 0
4.065000 0.121589 0
4.070000 0.089262 0
4.075000 0.057924 0
4.080000 0.027709 0
4.085000 -0.003162 0
4.090000 -0.038770 0
4.095000 -0.084073 0
4.100000 -0.140408 0
4.105000 -0.199376 0
4.110000 -0.239804 2
4.115000 -0.231454 0
4.120000 -0.143417 0
4.125000 0.046461 0
4.130000 0.338223 0
4.135000 0.690057 0
4.140000 1.008657 0
4.145000 1.178009 3
4.150000 1.126399 0
4.155000 0.873869 0
4.160000 0.510452 0
4.165000 0.144999 0
4.170000 -0.143945 0
4.175000 -0.321958 0
4.180000 -0.388846 4
4.185000 -0.366930 0
4.190000 -0.291974 0
4.195000 -0.201343 0
4.200000 -0.121363 0
4.205000 -0.061842 0
4.210000 -0.020047 0
4.215000 0.011397 0
4.220000 0.038860 0
4.225000 0.065972 0
4.230000 0.094189 0
4.235000 0.123790 0
4.240000 0.154539 0
4.245000 0.185976 0
4.250000 0.217525 0
4.255000 0.248535 0
4.260000 0.278302 0
4.265000 0.306099 0
4.270000 0.331202 0
4.275000 0.352923 0
4.280000 0.370639 0
4.285000 0.383821 0
4.290000 0.392060 0
4.295000 0.395090 5
4.300000 0.392797 0
4.305000 0.385229 0
4.310000 0.372595 0
4.315000 0.355248 0
4.320000 0.333679 0
4.325000 0.308483 0
4.330000 0.280338 0
4.335000 0.249972 0
4.340000 0.218133 0
4.345000 0.185557 0
4.350000 0.152942 0
4.355000 0.120922 0
4.360000 0.090054 0
4.365000 0.060798 0
4.370000 0.033519 0
4.375000 0.008475 0
4.380000 -0.014168 0
4.385000 -0.034338 0
4.390000 -0.052040 0
4.395000 -0.067346 0
4.400000 -0.080383 0
4.405000 -0.091313 0
4.410000 -0.100328 0
4.415000 -0.107633 0
4.420000 -0.113436 0
4.425000 -0.117941 0
4.430000 -0.121343 0
4.435000 -0.123821 0
4.440000 -0.125536 0
4.445000 -0.126629 0
4.450000 -0.125916 0
4.455000 -0.124900 0
4.460000 -0.123889 0
4.465000 -0.122884 0
4.470000 -0.121883 0
4.475000 -0.120886 0
4.480000 -0.119895 0
4.485000 -0.118907 0
4.490000 -0.117922 0
4.495000 -0.116938 0
4.500000 -0.115951 0
4.505000 -0.114955 0
4.510000 -0.113937 0
4.515000 -0.112877 0
4.520000 -0.111743 0
4.525000 -0.110482 0
4.530000 -0.109014 0
4.535000 -0.107219 0
4.540000 -0.104930 0
4.545000 -0.101915 0
4.550000 -0.097872 0
4.555000 -0.092426 0
4.560000 -0.085134 0
4.565000 -0.075508 0
4.570000 -0.063053 0
4.575000 -0.047327 0
4.580000 -0.028018 0
4.585000 -0.005022 0
4.590000 0.021463 0
4.595000 0.050879 0
4.600000 0.082270 0
4.605000 0.114296 0
4.610000 0.145306 0
4.615000 0.173468 0
4.620000 0.196939 0
4.625000 0.214064 0
4.630000 0.223571 0
4.635000 0.224726 1
4.640000 0.217424 0
4.645000 0.202212 0
4.650000 0.180213 0
4.655000 0.152995 0
4.660000 0.122380 0
4.665000 0.090224 0
4.670000 0.058149 0
4.675000 0.027180 0
4.680000 -0.002827 0
4.685000 -0.033888 0
4.690000 -0.070100 0
4.695000 -0.116070 0
4.700000 -0.172641 0
4.705000 -0.231425 0
4.710000 -0.272269 2
4.715000 -0.266669 0
4.720000 -0.185257 0
4.725000 -0.006116 0
4.730000 0.273831 0
4.735000 0.621380 0
4.740000 0.955435 0
4.745000 1.166051 0
4.750000 1.169103 3
4.755000 0.958572 0
4.760000 0.610846 0
4.765000 0.237470 0
4.770000 -0.072341 0
4.775000 -0.274359 0
4.780000 -0.362274 4
4.785000 -0.354938 0
4.790000 -0.286870 0
4.795000 -0.196758 0
4.800000 -0.113995 0
4.805000 -0.051284 0
4.810000 -0.007358 0
4.815000 0.025023 0
4.820000 0.052664 0
4.825000 0.079621 0
4.830000 0.107595 0
4.835000 0.136968 0
4.840000 0.167538 0
4.845000 0.198855 0
4.850000 0.230341 0
4.855000 0.261340 0
4.860000 0.291140 0
4.865000 0.319003 0
4.870000 0.344192 0
4.875000 0.366004 0
4.880000 0.383804 0
4.885000 0.397048 0
4.890000 0.405318 0
4.895000 0.408341 5
4.900000 0.405998 0
4.905000 0.398338 0
4.910000 0.385572 0
4.915000 0.368063 0
4.920000 0.346310 0
4.925000 0.320923 0
4.930000 0.292592 0
4.935000 0.262059 0
4.940000 0.230084 0
4.945000 0.197412 0
4.950000 0.164750 0
4.955000 0.132737 0
4.960000 0.101930 0
4.965000 0.072789 0
4.970000 0.045671 0
4.975000 0.020832 0
4.980000 -0.001575 0
4.985000 -0.021485 0
4.990000 -0.038914 0
4.995000 -0.053944 0
5.000000 -0.066709 0
5.005000 -0.077382 0
5.010000 -0.086158 0
5.015000 -0.093248 0
5.020000 -0.098863 0
5.025000 -0.103209 0
5.030000 -0.106481 0
5.035000 -0.108857 0
5.040000 -0.110497 0
5.045000 -0.111540 0
5.050000 -0.110884 0
5.055000 -0.109943 0
5.060000 -0.109006 0
5.065000 -0.108075 0
5.070000 -0.107148 0
5.075000 -0.106225 0
5.080000 -0.105306 0
5.085000 -0.104391 0
5.090000 -0.103477 0
5.095000 -0.102563 0
5.100000 -0.101644 0
5.105000 -0.100712 0
5.110000 -0.099752 0
5.115000 -0.098740 0
5.120000 -0.097637 0
5.125000 -0.096379 0
5.130000 -0.094873 0
5.135000 -0.092981 0
5.140000 -0.090507 0
5.145000 -0.087191 0
5.150000 -0.082695 0
5.155000 -0.076608 0
5.160000 -0.068458 0
5.165000 -0.057739 0
5.170000 -0.043965 0
5.175000 -0.026732 0
5.180000 -0.005807 0
5.185000 0.018787 0
5.190000 0.046685 0
5.195000 0.077132 0
5.200000 0.108964 0
5.205000 0.140653 0
5.210000 0.170411 0
5.215000 0.196346 0
5.220000 0.216658 0
5.225000 0.229843 0
5.230000 0.234880 1
5.235000 0.231359 0
5.240000 0.219537 0
5.245000 0.200305 0
5.250000 0.175079 0
5.255000 0.145624 0
5.260000 0.113841 0
5.265000 0.081514 0
5.270000 0.049988 0
5.275000 0.019672 0
5.280000 -0.010663 0
5.285000 -0.044428 0
5.290000 -0.086465 0
5.295000 -0.139673 0
5.300000 -0.199432 0
5.305000 -0.249378 0
5.310000 -0.262716 2
5.315000 -0.208984 0
5.320000 -0.062452 0
5.325000 0.187728 0
5.330000 0.521183 0
5.335000 0.869995 0
5.340000 1.126607 0
5.345000 1.191563 3
5.350000 1.032806 0
5.355000 0.708405 0
5.360000 0.331694 0
5.365000 0.004047 0
5.370000 -0.218990 0
5.375000 -0.324690 0
5.380000 -0.329122 4
5.385000 -0.266479 0
5.390000 -0.177201 0
5.395000 -0.093318 0
5.400000 -0.029475 0
5.405000 0.014953 0
5.410000 0.047378 0
5.415000 0.074910 0
5.420000 0.101773 0
5.425000 0.129700 0
5.430000 0.159056 0
5.435000 0.189609 0
5.440000 0.220876 0
5.445000 0.252247 0
5.450000 0.283030 0
5.455000 0.312479 0
5.460000 0.339822 0
5.465000 0.364297 0
5.470000 0.385184 0
5.475000 0.401839 0
5.480000 0.413727 0
5.485000 0.420449 0
5.490000 0.421765 5
5.495000 0.417604 0
5.500000 0.408074 0
5.505000 0.393448 0
5.510000 0.374160 0
5.515000 0.350775 0
5.520000 0.323966 0
5.525000 0.294479 0
5.530000 0.263097 0
5.535000 0.230609 0
5.540000 0.197773 0
5.545000 0.165293 0
5.550000 0.133790 0
5.555000 0.103789 0
5.560000 0.075711 0
5.565000 0.049863 0
5.570000 0.026446 0
5.575000 0.005562 0
5.580000 -0.012779 0
5.585000 -0.028641 0
5.590000 -0.042148 0
5.595000 -0.053468 0
5.600000 -0.062801 0
5.605000 -0.070362 0
5.610000 -0.076372 0
5.615000 -0.081048 0
5.620000 -0.084593 0
5.625000 -0.087196 0
5.630000 -0.089027 0
5.635000 -0.090234 0
5.640000 -0.089691 0
5.645000 -0.088856 0
5.650000 -0.088025 0
5.655000 -0.087198 0
5.660000 -0.086375 0
5.665000 -0.085555 0
5.670000 -0.084740 0
5.675000 -0.083927 0
5.680000 -0.083115 0
5.685000 -0.082302 0
5.690000 -0.081482 0
5.695000 -0.080647 0
5.700000 -0.079780 0
5.705000 -0.078854 0
5.710000 -0.077823 0
5.715000 -0.076618 0
5.720000 -0.075131 0
5.725000 -0.073204 0
5.730000 -0.070618 0
5.735000 -0.067080 0
5.740000 -0.062214 0
5.745000 -0.055569 0
5.750000 -0.046638 0
5.755000 -0.034895 0
5.760000 -0.019857 0
5.765000 -0.001164 0
5.770000 0.021325 0
5.775000 0.047437 0
5.780000 0.076609 0
5.785000 0.107848 0
5.790000 0.139742 0
5.795000 0.170542 0
5.800000 0.198304 0
5.805000 0.221088 0
5.810000 0.237175 0
5.815000 0.245285 1
5.820000 0.244741 0
5.825000 0.235562 0
5.830000 0.218464 0
5.835000 0.194766 0
5.840000 0.166219 0
5.845000 0.134785 0
5.850000 0.102377 0
5.855000 0.070537 0
5.860000 0.039949 0
5.865000 0.009716 0
5.870000 -0.023321 0
5.875000 -0.064110 0
5.880000 -0.116209 0
5.885000 -0.175929 0
5.890000 -0.227382 0
5.895000 -0.243283 2
5.900000 -0.191942 0
5.905000 -0.046348 0
5.910000 0.204909 0
5.915000 0.540027 0
5.920000 0.886682 0
5.925000 1.132065 0
5.930000 1.176233 3
5.935000 0.997653 0
5.940000 0.665801 0
5.945000 0.289262 0
5.950000 -0.037318 0
5.955000 -0.262031 0
5.960000 -0.372423 0
5.965000 -0.382798 4
5.970000 -0.324656 0
5.975000 -0.236363 0
5.980000 -0.149953 0
5.985000 -0.081929 0
5.990000 -0.033747 0
5.995000 0.000986 0
6.000000 0.029462 0
6.005000 0.056435 0
6.010000 0.084115 0
6.015000 0.113157 0
6.020000 0.143479 0
6.025000 0.174693 0
6.030000 0.206264 0
6.035000 0.237568 0
6.040000 0.267918 0
6.045000 0.296594 0
6.050000 0.322867 0
6.055000 0.346031 0
6.060000 0.365432 0
6.065000 0.380500 0
6.070000 0.390775 0
6.075000 0.395930 5
6.080000 0.395789 0
6.085000 0.390335 0
6.090000 0.379710 0
6.095000 0.364212 0
6.100000 0.344279 0
6.105000 0.320466 0
6.110000 0.293422 0
6.115000 0.263859 0
6.120000 0.232520 0
6.125000 0.200148 0
6.130000 0.167462 0
6.135000 0.135122 0
6.140000 0.103720 0
6.145000 0.073757 0
6.150000 0.045634 0
6.155000 0.019654 0
6.160000 -0.003980 0
6.165000 -0.025160 0
6.170000 -0.043861 0
6.175000 -0.060129 0
6.180000 -0.074072 0
6.185000 -0.085838 0
6.190000 -0.095610 0
6.195000 -0.103587 0
6.200000 -0.109978 0
6.205000 -0.114989 0
6.210000 -0.118821 0
6.215000 -0.121658 0
6.220000 -0.123669 0
6.225000 -0.125004 0
6.230000 -0.125531 0
6.235000 -0.124517 0
6.240000 -0.123508 0
6.245000 -0.122504 0
6.250000 -0.121505 0
6.255000 -0.120511 0
6.260000 -0.119521 0
6.265000 -0.118536 0
6.270000 -0.117554 0
6.275000 -0.116573 0
6.280000 -0.115592 0
6.285000 -0.114604 0
6.290000 -0.113601 0
6.295000 -0.112565 0
6.300000 -0.111469 0
6.305000 -0.110271 0
6.310000 -0.108902 0
6.315000 -0.107260 0
6.320000 -0.105198 0
6.325000 -0.102511 0
6.330000 -0.098927 0
6.335000 -0.094099 0
6.340000 -0.087611 0
6.345000 -0.078988 0
6.350000 -0.067734 0
6.355000 -0.053376 0
6.360000 -0.035539 0
6.365000 -0.014025 0
6.370000 0.011097 0
6.375000 0.039423 0
6.380000 0.070156 0
6.385000 0.102106 0
6.390000 0.133736 0
6.395000 0.163265 0
6.400000 0.188834 0
6.405000 0.208687 0
6.410000 0.221376 0
6.415000 0.225935 1
6.420000 0.222001 0
6.425000 0.209860 0
6.430000 0.190419 0
6.435000 0.165086 0
6.440000 0.135607 0
6.445000 0.103853 0
6.450000 0.071575 0
6.455000 0.040095 0
6.460000 0.009820 0
6.465000 -0.020436 0
6.470000 -0.053991 0
6.475000 -0.095608 0
6.480000 -0.148304 0
6.485000 -0.207972 0
6.490000 -0.259122 0
6.495000 -0.275833 2
6.500000 -0.228102 0
6.505000 -0.089947 0
6.510000 0.151064 0
6.515000 0.478524 0
6.520000 0.830501 0
6.525000 1.103655 0
6.530000 1.195804 3
6.535000 1.065462 0
6.540000 0.759476 0
6.545000 0.383433 0
6.550000 0.040339 0
6.555000 -0.207386 0
6.560000 -0.339946 0
6.565000 -0.367363 4
6.570000 -0.318975 0
6.575000 -0.233405 0
6.580000 -0.145171 0
6.585000 -0.073893 0
6.590000 -0.023098 0
6.595000 0.013014 0
6.600000 0.041921 0
6.605000 0.068840 0
6.610000 0.096301 0
6.615000 0.125106 0
6.620000 0.155232 0
6.625000 0.186306 0
6.630000 0.217797 0
6.635000 0.249077 0
6.640000 0.279455 0
6.645000 0.308201 0
6.650000 0.334574 0
6.655000 0.357855 0
6.660000 0.377377 0
6.665000 0.392556 0
6.670000 0.402920 0
6.675000 0.408134 5
6.680000 0.408014 0
6.685000 0.402541 0
6.690000 0.391857 0
6.695000 0.376265 0
6.700000 0.356209 0
6.705000 0.332254 0
6.710000 0.305062 0
6.715000 0.275356 0
6.720000 0.243890 0
6.725000 0.211420 0
6.730000 0.178671 0
6.735000 0.146311 0
6.740000 0.114933 0
6.745000 0.085040 0
6.750000 0.057031 0
6.755000 0.031204 0
6.760000 0.007755 0
6.765000 -0.013216 0
6.770000 -0.031691 0
6.775000 -0.047726 0
6.780000 -0.061436 0
6.785000 -0.072977 0
6.790000 -0.082537 0
6.795000 -0.090321 0
6.800000 -0.096540 0
6.805000 -0.101405 0
6.810000 -0.105115 0
6.815000 -0.107855 0
6.820000 -0.109793 0
6.825000 -0.111078 0
6.830000 -0.111590 0
6.835000 -0.110646 0
6.840000 -0.109706 0
6.845000 -0.108771 0
6.850000 -0.107840 0
6.855000 -0.106914 0
6.860000 -0.105992 0
6.865000 -0.105074 0
6.870000 -0.104158 0
6.875000 -0.103244 0
6.880000 -0.102326 0
6.885000 -0.101400 0
6.890000 -0.100453 0
6.895000 -0.099466 0
6.900000 -0.098407 0
6.905000 -0.097226 0
6.910000 -0.095842 0
6.915000 -0.094139 0
6.920000 -0.091948 0
6.925000 -0.089039 0
6.930000 -0.085109 0
6.935000 -0.079779 0
6.940000 -0.072603 0
6.945000 -0.063084 0
6.950000 -0.050722 0
6.955000 -0.035066 0
6.960000 -0.015797 0
6.965000 0.007186 0
6.970000 0.033680 0
6.975000 0.063109 0
6.980000 0.094492 0
6.985000 0.126454 0
6.990000 0.157311 0
6.995000 0.185196 0
7.000000 0.208243 0
7.005000 0.224794 0
7.010000 0.233592 0
7.015000 0.233941 1
7.020000 0.225794 0
7.025000 0.209765 0
7.030000 0.187050 0
7.035000 0.159280 0
7.040000 0.128320 0
7.045000 0.096039 0
7.050000 0.064028 0
7.055000 0.033197 0
7.060000 0.003159 0
7.065000 -0.028481 0
7.070000 -0.066144 0
7.075000 -0.114219 0
7.080000 -0.172251 0
7.085000 -0.229507 0
7.090000 -0.263417 2
7.095000 -0.244208 0
7.100000 -0.142946 0
7.105000 0.059631 0
7.110000 0.359976 0
7.115000 0.713324 0
7.120000 1.026967 0
7.125000 1.189871 3
7.130000 1.131741 0
7.135000 0.869710 0
7.140000 0.501977 0
7.145000 0.142517 0
7.150000 -0.130936 0
7.155000 -0.288146 0
7.160000 -0.333956 4
7.165000 -0.295879 0
7.170000 -0.213522 0
7.175000 -0.124412 0
7.180000 -0.051245 0
7.185000 0.000827 0
7.190000 0.037395 0
7.195000 0.066308 0
7.200000 0.093112 0
7.205000 0.120474 0
7.210000 0.149220 0
7.215000 0.179306 0
7.220000 0.210330 0
7.225000 0.241726 0
7.230000 0.272828 0
7.235000 0.302907 0
7.240000 0.331193 0
7.245000 0.356916 0
7.250000 0.379329 0
7.255000 0.397751 0
7.260000 0.411597 0
7.265000 0.420409 0
7.270000 0.423881 5
7.275000 0.421872 0
7.280000 0.414419 0
7.285000 0.401733 0
7.290000 0.384189 0
7.295000 0.362305 0
7.300000 0.336720 0
7.305000 0.308157 0
7.310000 0.277392 0
7.315000 0.245221 0
7.320000 0.212419 0
7.325000 0.179716 0
7.330000 0.147770 0
7.335000 0.117145 0
7.340000 0.088304 0
7.345000 0.061596 0
7.350000 0.037262 0
7.355000 0.015440 0
7.360000 -0.003828 0
7.365000 -0.020582 0
7.370000 -0.034925 0
7.375000 -0.047013 0
7.380000 -0.057037 0
7.385000 -0.065208 0
7.390000 -0.071747 0
7.395000 -0.076875 0
7.400000 -0.080801 0
7.405000 -0.083721 0
7.410000 -0.085811 0
7.415000 -0.087227 0
7.420000 -0.087858 0
7.425000 -0.087032 0
7.430000 -0.086210 0
7.435000 -0.085392 0
7.440000 -0.084578 0
7.445000 -0.083768 0
7.450000 -0.082961 0
7.455000 -0.082158 0
7.460000 -0.081356 0
7.465000 -0.080554 0
7.470000 -0.079747 0
7.475000 -0.078928 0
7.480000 -0.078083 0
7.485000 -0.077189 0
7.490000 -0.076207 0
7.495000 -0.075074 0
7.500000 -0.073696 0
7.505000 -0.071932 0
7.510000 -0.069581 0
7.515000 -0.066372 0
7.520000 -0.061952 0
7.525000 -0.055891 0
7.530000 -0.047692 0
7.535000 -0.036827 0
7.540000 -0.022791 0
7.545000 -0.005179 0
7.550000 0.016225 0
7.555000 0.041345 0
7.560000 0.069733 0
7.565000 0.100514 0
7.570000 0.132383 0
7.575000 0.163664 0
7.580000 0.192442 0
7.585000 0.216747 0
7.590000 0.234771 0
7.595000 0.245090 0
7.600000 0.246853 1
7.605000 0.239889 0
7.610000 0.224740 0
7.615000 0.202586 0
7.620000 0.175091 0
7.625000 0.144196 0
7.630000 0.111861 0
7.635000 0.079764 0
7.640000 0.048867 0
7.645000 0.018738 0
7.650000 -0.013207 0
7.655000 -0.051668 0
7.660000 -0.101018 0
7.665000 -0.159875 0
7.670000 -0.215398 0
7.675000 -0.242438 2
7.680000 -0.209411 0
7.685000 -0.087277 0
7.690000 0.140285 0
7.695000 0.460837 0
7.700000 0.813810 0
7.705000 1.091822 0
7.710000 1.185585 3
7.715000 1.053312 0
7.720000 0.747520 0
7.725000 0.371644 0
7.730000 0.026933 0
7.735000 -0.224475 0
7.740000 -0.362025 0
7.745000 -0.394498 4
7.750000 -0.349814 0
7.755000 -0.265587 0
7.760000 -0.176404 0
7.765000 -0.102954 0
7.770000 -0.050001 0
7.775000 -0.012439 0
7.780000 0.017152 0
7.785000 0.044247 0
7.790000 0.071644 0
7.795000 0.100317 0
7.800000 0.130332 0
7.805000 0.161364 0
7.810000 0.192915 0
7.815000 0.224386 0
7.820000 0.255111 0
7.825000 0.284381 0
7.830000 0.311473 0
7.835000 0.335674 0
7.840000 0.356316 0
7.845000 0.372804 0
7.850000 0.384644 0
7.855000 0.391468 0
7.860000 0.393052 5
7.865000 0.389328 0
7.870000 0.380387 0
7.875000 0.366475 0
7.880000 0.347984 0
7.885000 0.325427 0
7.890000 0.299424 0
7.895000 0.270661 0
7.900000 0.239871 0
7.905000 0.207796 0
7.910000 0.175161 0
7.915000 0.142646 0
7.920000 0.110864 0
7.925000 0.080346 0
7.930000 0.051528 0
7.935000 0.024749 0
7.940000 0.000243 0
7.945000 -0.021846 0
7.950000 -0.041464 0
7.955000 -0.058633 0
7.960000 -0.073436 0
7.965000 -0.086007 0
7.970000 -0.096516 0
7.975000 -0.105157 0
7.980000 -0.112134 0
7.985000 -0.117653 0
7.990000 -0.121918 0
7.995000 -0.125118 0
8.000000 -0.127428 0
8.005000 -0.129004 0
8.010000 -0.129985 0
8.015000 -0.129241 0
8.020000 -0.128209 0
8.025000 -0.127181 0
8.030000 -0.126159 0
8.035000 -0.125142 0
8.040000 -0.124129 0
8.045000 -0.123121 0
8.050000 -0.122117 0
8.055000 -0.121116 0
8.060000 -0.120115 0
8.065000 -0.119111 0
8.070000 -0.118096 0
8.075000 -0.117057 0
8.080000 -0.115974 0
8.085000 -0.114811 0
8.090000 -0.113513 0
8.095000 -0.111996 0
8.100000 -0.110137 0
8.105000 -0.107761 0
8.110000 -0.104631 0
8.115000 -0.100440 0
8.120000 -0.094805 0
8.125000 -0.087281 0
8.130000 -0.077380 0
8.135000 -0.064613 0
8.140000 -0.048551 0
8.145000 -0.028897 0
8.150000 -0.005573 0
8.155000 0.021196 0
8.160000 0.050824 0
8.165000 0.082328 0
8.170000 0.114351 0
8.175000 0.145233 0
8.180000 0.173147 0
8.185000 0.196269 0
8.190000 0.212974 0
8.195000 0.222025 0
8.200000 0.222727 1
8.205000 0.215013 0
8.210000 0.199455 0
8.215000 0.177197 0
8.220000 0.149812 0
8.225000 0.119115 0
8.230000 0.086947 0
8.235000 0.054906 0
8.240000 0.023986 0
8.245000 -0.006001 0
8.250000 -0.037110 0
8.255000 -0.073451 0
8.260000 -0.119581 0
8.265000 -0.176240 0
8.270000 -0.234960 0
8.275000 -0.275618 2
8.280000 -0.269860 0
8.285000 -0.188510 0
8.290000 -0.009776 0
8.295000 0.269521 0
8.300000 0.616726 0
8.305000 0.951725 0
8.310000 1.165323 0
8.315000 1.172934 3
8.320000 0.966399 0
8.325000 0.620192 0
8.330000 0.246439 0
8.335000 -0.064511 0
8.340000 -0.267611 0
8.345000 -0.356218 4
8.350000 -0.349166 0
8.355000 -0.281138 0
8.360000 -0.191048 0
8.365000 -0.108413 0
8.370000 -0.045916 0
8.375000 -0.002198 0
8.380000 0.030047 0
8.385000 0.057626 0
8.390000 0.084572 0
8.395000 0.112558 0
8.400000 0.141947 0
8.405000 0.172526 0
8.410000 0.203838 0
8.415000 0.235299 0
8.420000 0.266246 0
8.425000 0.295961 0
8.430000 0.323701 0
8.435000 0.348725 0
8.440000 0.370330 0
8.445000 0.387879 0
8.450000 0.400832 0
8.455000 0.408776 0
8.460000 0.411445 5
8.465000 0.408730 0
8.470000 0.400692 0
8.475000 0.387553 0
8.480000 0.369690 0
8.485000 0.347613 0
8.490000 0.321943 0
8.495000 0.293380 0
8.500000 0.262674 0
8.505000 0.230588 0
8.510000 0.197871 0
8.515000 0.165227 0
8.520000 0.133292 0
8.525000 0.102618 0
8.530000 0.073656 0
8.535000 0.046756 0
8.540000 0.022163 0
8.545000 0.000021 0
8.550000 -0.019615 0
8.555000 -0.036770 0
8.560000 -0.051532 0
8.565000 -0.064042 0
8.570000 -0.074478 0
8.575000 -0.083039 0
8.580000 -0.089937 0
8.585000 -0.095384 0
8.590000 -0.099588 0
8.595000 -0.102740 0
8.600000 -0.105018 0
8.605000 -0.106580 0
8.610000 -0.107564 0
8.615000 -0.106915 0
8.620000 -0.105994 0
8.625000 -0.105077 0
8.630000 -0.104165 0
8.635000 -0.103258 0
8.640000 -0.102354 0
8.645000 -0.101454 0
8.650000 -0.100558 0
8.655000 -0.099663 0
8.660000 -0.098767 0
8.665000 -0.097864 0
8.670000 -0.096946 0
8.675000 -0.095996 0
8.680000 -0.094987 0
8.685000 -0.093877 0
8.690000 -0.092596 0
8.695000 -0.091041 0
8.700000 -0.089063 0
8.705000 -0.086452 0
8.710000 -0.082931 0
8.715000 -0.078143 0
8.720000 -0.071661 0
8.725000 -0.062997 0
8.730000 -0.051644 0
8.735000 -0.037123 0
8.740000 -0.019060 0
8.745000 0.002727 0
8.750000 0.028140 0
8.755000 0.056724 0
8.760000 0.087618 0
8.765000 0.119556 0
8.770000 0.150923 0
8.775000 0.179878 0
8.780000 0.204521 0
8.785000 0.223098 0
8.790000 0.234208 0
8.795000 0.236973 1
8.800000 0.231158 0
8.805000 0.217199 0
8.810000 0.196150 0
8.815000 0.169551 0
8.820000 0.139240 0
8.825000 0.107121 0
8.830000 0.074904 0
8.835000 0.043730 0
8.840000 0.013615 0
8.845000 -0.017297 0
8.850000 -0.053039 0
8.855000 -0.098386 0
8.860000 -0.154590 0
8.865000 -0.213655 0
8.870000 -0.255434 2
8.875000 -0.250949 0
8.880000 -0.170134 0
8.885000 0.009471 0
8.890000 0.290825 0
8.895000 0.639184 0
8.900000 0.970414 0
8.905000 1.172085 3
8.910000 1.159965 0
8.915000 0.932532 0
8.920000 0.576409 0
8.925000 0.207416 0
8.930000 -0.087404 0
8.935000 -0.268945 0
8.940000 -0.336053 4
8.945000 -0.312317 0
8.950000 -0.235782 0
8.955000 -0.145570 0
8.960000 -0.068056 0
8.965000 -0.011730 0
8.970000 0.027484 0
8.975000 0.057484 0
8.980000 0.084445 0
8.985000 0.111584 0
8.990000 0.140025 0
8.995000 0.169855 0
9.000000 0.200730 0
9.005000 0.232110 0
9.010000 0.263353 0
9.015000 0.293741 0
9.020000 0.322515 0
9.025000 0.348903 0
9.030000 0.372151 0
9.035000 0.391563 0
9.040000 0.406529 0
9.045000 0.416562 0
9.050000 0.421318 5
9.055000 0.420618 0
9.060000 0.414457 0
9.065000 0.403004 0
9.070000 0.386596 0
9.075000 0.365716 0
9.080000 0.340977 0
9.085000 0.313082 0
9.090000 0.282796 0
9.095000 0.250909 0
9.100000 0.218205 0
9.105000 0.185425 0
9.110000 0.153244 0
9.115000 0.122251 0
9.120000 0.092933 0
9.125000 0.065667 0
9.130000 0.040722 0
9.135000 0.018259 0
9.140000 -0.001656 0
9.145000 -0.019042 0
9.150000 -0.033988 0
9.155000 -0.046637 0
9.160000 -0.057172 0
9.165000 -0.065800 0
9.170000 -0.072739 0
9.175000 -0.078211 0
9.180000 -0.082427 0
9.185000 -0.085587 0
9.190000 -0.087873 0
9.195000 -0.089446 0
9.200000 -0.090180 0
9.205000 -0.089343 0
9.210000 -0.088509 0
9.215000 -0.087680 0
9.220000 -0.086855 0
9.225000 -0.086033 0
9.230000 -0.085216 0
9.235000 -0.084401 0
9.240000 -0.083589 0
9.245000 -0.082777 0
9.250000 -0.081963 0
9.255000 -0.081138 0
9.260000 -0.080293 0
9.265000 -0.079407 0
9.270000 -0.078445 0
9.275000 -0.077356 0
9.280000 -0.076053 0
9.285000 -0.074411 0
9.290000 -0.072251 0
9.295000 -0.069322 0
9.300000 -0.065298 0
9.305000 -0.059772 0
9.310000 -0.052267 0
9.315000 -0.042260 0
9.320000 -0.029233 0
9.325000 -0.012743 0
9.330000 0.007494 0
9.335000 0.031502 0
9.340000 0.058956 0
9.345000 0.089119 0
9.350000 0.120820 0
9.355000 0.152492 0
9.360000 0.182283 0
9.365000 0.208223 0
9.370000 0.228431 0
9.375000 0.241345 0
9.380000 0.245915 1
9.385000 0.241747 0
9.390000 0.229154 0
9.395000 0.209120 0
9.400000 0.183171 0
9.405000 0.153177 0
9.410000 0.121116 0
9.415000 0.088795 0
9.420000 0.057470 0
9.425000 0.027261 0
9.430000 -0.003630 0
9.435000 -0.039306 0
9.440000 -0.084712 0
9.445000 -0.141125 0
9.450000 -0.200041 0
9.455000 -0.240185 2
9.460000 -0.231286 0
9.465000 -0.142478 0
9.470000 0.048269 0
9.475000 0.340743 0
9.480000 0.692742 0
9.485000 1.010636 0
9.490000 1.178500 3
9.495000 1.128126 0
9.500000 0.877265 0
9.505000 0.514655 0
9.510000 0.148302 0
9.515000 -0.143139 0
9.520000 -0.324582 0
9.525000 -0.395027 4
9.530000 -0.375964 0
9.535000 -0.302491 0
9.540000 -0.211844 0
9.545000 -0.130854 0
9.550000 -0.070084 0
9.555000 -0.027340 0
9.560000 0.004606 0
9.565000 0.032228 0
9.570000 0.059316 0
9.575000 0.087440 0
9.580000 0.116944 0
9.585000 0.147623 0
9.590000 0.179036 0
9.595000 0.210621 0
9.600000 0.241740 0
9.605000 0.271701 0
9.610000 0.299785 0
9.615000 0.325273 0
9.620000 0.347477 0
9.625000 0.365772 0
9.630000 0.379618 0
9.635000 0.388595 0
9.640000 0.392416 5
9.645000 0.390947 0
9.650000 0.384212 0
9.655000 0.372391 0
9.660000 0.355814 0
9.665000 0.334944 0
9.670000 0.310355 0
9.675000 0.282707 0
9.680000 0.252714 0
9.685000 0.221116 0
9.690000 0.188644 0
9.695000 0.156001 0
9.700000 0.123828 0
9.705000 0.092693 0
9.710000 0.063075 0
9.715000 0.035353 0
9.720000 0.009807 0
9.725000 -0.013378 0
9.730000 -0.034111 0
9.735000 -0.052380 0
9.740000 -0.068242 0
9.745000 -0.081810 0
9.750000 -0.093237 0
9.755000 -0.102708 0
9.760000 -0.110423 0
9.765000 -0.116587 0
9.770000 -0.121406 0
9.775000 -0.125075 0
9.780000 -0.127775 0
9.785000 -0.129672 0
9.790000 -0.130912 0
9.795000 -0.131367 0
9.800000 -0.130324 0
9.805000 -0.129286 0
9.810000 -0.128253 0
9.815000 -0.127225 0
9.820000 -0.126203 0
9.825000 -0.125185 0
9.830000 -0.124171 0
9.835000 -0.123161 0
9.840000 -0.122152 0
9.845000 -0.121143 0
9.850000 -0.120127 0
9.855000 -0.119094 0
9.860000 -0.118029 0
9.865000 -0.116903 0
9.870000 -0.115674 0
9.875000 -0.114272 0
9.880000 -0.112596 0
9.885000 -0.110499 0
9.890000 -0.107777 0
9.895000 -0.104161 0
9.900000 -0.099306 0
9.905000 -0.092800 0
9.910000 -0.084173 0
9.915000 -0.072934 0
9.920000 -0.058613 0
9.925000 -0.040838 0
9.930000 -0.019407 0
9.935000 0.005622 0
9.940000 0.033858 0
9.945000 0.064531 0
9.950000 0.096476 0
9.955000 0.128186 0
9.960000 0.157909 0
9.965000 0.183800 0
9.970000 0.204111 0
9.975000 0.217381 0
9.980000 0.222613 1
9.985000 0.219398 0
9.990000 0.207968 0
9.995000 0.189168 0
10.000000 0.164355 0
10.005000 0.135234 0
10.010000 0.103653 0
10.015000 0.071375 0
10.020000 0.039776 0
10.025000 0.009400 0
10.030000 -0.020697 0
10.035000 -0.053530 0
10.040000 -0.093747 0
10.045000 -0.144868 0
10.050000 -0.204169 0
10.055000 -0.258065 0
10.060000 -0.282149 2
10.065000 -0.246811 0
10.070000 -0.125115 0
10.075000 0.098362 0
10.080000 0.413638 0
10.085000 0.768016 0
10.090000 1.064566 0
10.095000 1.197196 3
10.100000 1.107054 0
10.105000 0.825394 0
10.110000 0.453257 0
10.115000 0.099320 0
10.120000 -0.165459 0
10.125000 -0.315038 0
10.130000 -0.355869 4
10.135000 -0.315497 0
10.140000 -0.232567 0
10.145000 -0.143353 0
10.150000 -0.069827 0
10.155000 -0.017141 0
10.160000 0.019995 0
10.165000 0.049242 0
10.170000 0.076151 0
10.175000 0.103483 0
10.180000 0.132149 0
10.185000 0.162160 0
10.190000 0.193154 0
10.195000 0.224598 0
10.200000 0.255858 0
10.205000 0.286234 0
10.210000 0.314987 0
10.215000 0.341366 0
10.220000 0.364639 0
10.225000 0.384128 0
10.230000 0.399242 0
10.235000 0.409503 0
10.240000 0.414571 5
10.245000 0.414264 0
10.250000 0.408566 0
10.255000 0.397629 0
10.260000 0.381765 0
10.265000 0.361433 0
10.270000 0.337212 0
10.275000 0.309778 0
10.280000 0.279867 0
10.285000 0.248248 0
10.290000 0.215684 0
10.295000 0.182907 0
10.300000 0.150589 0
10.305000 0.119322 0
10.310000 0.089603 0
10.315000 0.061825 0
10.320000 0.036277 0
10.325000 0.013144 0
10.330000 -0.007485 0
10.335000 -0.025605 0
10.340000 -0.041284 0
10.345000 -0.054644 0
10.350000 -0.065852 0
10.355000 -0.075102 0
10.360000 -0.082605 0
10.365000 -0.088575 0
10.370000 -0.093223 0
10.375000 -0.096750 0
10.380000 -0.099339 0
10.385000 -0.101156 0
10.390000 -0.102347 0
10.395000 -0.101751 0
10.400000 -0.100856 0
10.405000 -0.099965 0
10.410000 -0.099078 0
10.415000 -0.098196 0
10.420000 -0.097318 0
10.425000 -0.096444 0
10.430000 -0.095573 0
10.435000 -0.094704 0
10.440000 -0.093834 0
10.445000 -0.092960 0
10.450000 -0.092074 0
10.455000 -0.091161 0
10.460000 -0.090198 0
10.465000 -0.089148 0
10.470000 -0.087948 0
10.475000 -0.086507 0
10.480000 -0.084687 0
10.485000 -0.082296 0
10.490000 -0.079073 0
10.495000 -0.074679 0
10.500000 -0.068702 0
10.505000 -0.060665 0
10.510000 -0.050056 0
10.515000 -0.036379 0
10.520000 -0.019225 0
10.525000 0.001646 0
10.530000 0.026211 0
10.535000 0.054101 0
10.540000 0.084545 0
10.545000 0.116358 0
10.550000 0.147984 0
10.555000 0.177604 0
10.560000 0.203300 0
10.565000 0.223257 0
10.570000 0.235972 0
10.575000 0.240442 1
10.580000 0.236292 0
10.585000 0.223831 0
10.590000 0.204007 0
10.595000 0.178292 0
10.600000 0.148498 0
10.605000 0.116549 0
10.610000 0.084226 0
10.615000 0.052814 0
10.620000 0.022570 0
10.625000 -0.008010 0
10.630000 -0.042665 0
10.635000 -0.086294 0
10.640000 -0.141093 0
10.645000 -0.200735 0
10.650000 -0.246693 0
10.655000 -0.250636 2
10.660000 -0.181913 0
10.665000 -0.016278 0
10.670000 0.252813 0
10.675000 0.596329 0
10.680000 0.935515 0
10.685000 1.158021 0
10.690000 1.173430 3
10.695000 0.969777 0
10.700000 0.623827 0
10.705000 0.250419 0
10.710000 -0.058272 0
10.715000 -0.257095 0
10.720000 -0.340371 4
10.725000 -0.328437 0
10.730000 -0.257518 0
10.735000 -0.167230 0
10.740000 -0.086451 0
10.745000 -0.026447 0
10.750000 0.015296 0
10.755000 0.046468 0
10.760000 0.073702 0
10.765000 0.100697 0
10.770000 0.128877 0
10.775000 0.158470 0
10.780000 0.189192 0
10.785000 0.220540 0
10.790000 0.251896 0
10.795000 0.282562 0
10.800000 0.311795 0
10.805000 0.338828 0
10.810000 0.362909 0
10.815000 0.383330 0
10.820000 0.399467 0
10.825000 0.410801 0
10.830000 0.416956 0
10.835000 0.417711 5
10.840000 0.413015 0
10.845000 0.402991 0
10.850000 0.387928 0
10.855000 0.368268 0
10.860000 0.344584 0
10.865000 0.317549 0
10.870000 0.287908 0
10.875000 0.256441 0
10.880000 0.223926 0
10.885000 0.191116 0
10.890000 0.158701 0
10.895000 0.127293 0
10.900000 0.097408 0
10.905000 0.069456 0
10.910000 0.043736 0
10.915000 0.020445 0
10.920000 -0.000322 0
10.925000 -0.018558 0
10.930000 -0.034326 0
10.935000 -0.047753 0
10.940000 -0.059007 0
10.945000 -0.068285 0
10.950000 -0.075801 0
10.955000 -0.081774 0
10.960000 -0.086419 0
10.965000 -0.089939 0
10.970000 -0.092520 0
10.975000 -0.094331 0
10.980000 -0.095519 0
10.985000 -0.094951 0
10.990000 -0.094090 0
10.995000 -0.093233 0
11.000000 -0.092380 0
11.005000 -0.091531 0
11.010000 -0.090686 0
11.015000 -0.089845 0
11.020000 -0.089006 0
11.025000 -0.088169 0
11.030000 -0.087332 0
11.035000 -0.086488 0
11.040000 -0.085629 0
11.045000 -0.084741 0
11.050000 -0.083795 0
11.055000 -0.082751 0
11.060000 -0.081539 0
11.065000 -0.080056 0
11.070000 -0.078153 0
11.075000 -0.075615 0
11.080000 -0.072160 0
11.085000 -0.067424 0
11.090000 -0.060967 0
11.095000 -0.052288 0
11.100000 -0.040867 0
11.105000 -0.026215 0
11.110000 -0.007956 0
11.115000 0.014079 0
11.120000 0.039764 0
11.125000 0.068595 0
11.130000 0.099644 0
11.135000 0.131564 0
11.140000 0.162661 0
11.145000 0.191024 0
11.150000 0.214714 0
11.155000 0.231979 0
11.160000 0.241467 0
11.165000 0.242401 1
11.170000 0.234682 0
11.175000 0.218906 0
11.180000 0.196288 0
11.185000 0.168502 0
11.190000 0.137474 0
11.195000 0.105133 0
11.200000 0.073110 0
11.205000 0.042300 0
11.210000 0.012192 0
11.215000 -0.019866 0
11.220000 -0.058566 0
11.225000 -0.108160 0
11.230000 -0.167081 0
11.235000 -0.222428 0
11.240000 -0.249238 2
11.245000 -0.216292 0
11.250000 -0.094884 0
11.255000 0.131271 0
11.260000 0.450439 0
11.265000 0.803844 0
11.270000 1.086177 0
11.275000 1.188386 3
11.280000 1.067078 0
11.285000 0.767679 0
11.290000 0.392624 0
11.295000 0.044791 0
11.300000 -0.211378 0
11.305000 -0.353657 0
11.310000 -0.389870 4
11.315000 -0.347449 0
11.320000 -0.264003 0
11.325000 -0.174585 0
11.330000 -0.100520 0
11.335000 -0.047033 0
11.340000 -0.009173 0
11.345000 0.020520 0
11.350000 0.047613 0
11.355000 0.074969 0
11.360000 0.103597 0
11.365000 0.133572 0
11.370000 0.164573 0
11.375000 0.196103 0
11.380000 0.227560 0
11.385000 0.258278 0
11.390000 0.287544 0
11.395000 0.314632 0
11.400000 0.338826 0
11.405000 0.359455 0
11.410000 0.375922 0
11.415000 0.387731 0
11.420000 0.394513 0
11.425000 0.396044 5
11.430000 0.392255 0
11.435000 0.383241 0
11.440000 0.369251 0
11.445000 0.350677 0
11.450000 0.328040 0
11.455000 0.301961 0
11.460000 0.273131 0
11.465000 0.242287 0
11.470000 0.210173 0
11.475000 0.177516 0
11.480000 0.144997 0
11.485000 0.113231 0
11.490000 0.082747 0
11.495000 0.053980 0
11.500000 0.027265 0
11.505000 0.002836 0
11.510000 -0.019169 0
11.515000 -0.038697 0
11.520000 -0.055772 0
11.525000 -0.070483 0
11.530000 -0.082966 0
11.535000 -0.093391 0
11.540000 -0.101955 0
11.545000 -0.108863 0
11.550000 -0.114323 0
11.555000 -0.118536 0
11.560000 -0.121694 0
11.565000 -0.123970 0
11.570000 -0.125521 0
11.575000 -0.126484 0
11.580000 -0.125752 0
11.585000 -0.124737 0
11.590000 -0.123727 0
11.595000 -0.122722 0
11.600000 -0.121722 0
11.605000 -0.120726 0
11.610000 -0.119735 0
11.615000 -0.118748 0
11.620000 -0.117763 0
11.625000 -0.116779 0
11.630000 -0.115790 0
11.635000 -0.114789 0
11.640000 -0.113764 0
11.645000 -0.112690 0
11.650000 -0.111532 0
11.655000 -0.110233 0
11.660000 -0.108703 0
11.665000 -0.106814 0
11.670000 -0.104386 0
11.675000 -0.101172 0
11.680000 -0.096856 0
11.685000 -0.091046 0
11.690000 -0.083289 0
11.695000 -0.073093 0
11.700000 -0.059970 0
11.705000 -0.043500 0
11.710000 -0.023408 0
11.715000 0.000352 0
11.720000 0.027511 0
11.725000 0.057432 0
11.730000 0.089075 0
11.735000 0.121034 0
11.740000 0.151612 0
11.745000 0.178963 0
11.750000 0.201270 0
11.755000 0.216947 0
11.760000 0.224820 1
11.765000 0.224277 0
11.770000 0.215347 0
11.775000 0.198693 0
11.780000 0.175539 0
11.785000 0.147514 0
11.790000 0.116459 0
11.795000 0.084204 0
11.800000 0.052286 0
11.805000 0.021558 0
11.810000 -0.008427 0
11.815000 -0.040087 0
11.820000 -0.077801 0
11.825000 -0.125866 0
11.830000 -0.183816 0
11.835000 -0.241162 0
11.840000 -0.275856 2
11.845000 -0.258705 0
11.850000 -0.161112 0
11.855000 0.036447 0
11.860000 0.332013 0
11.865000 0.684353 0
11.870000 1.004990 0
11.875000 1.184151 3
11.880000 1.146495 0
11.885000 0.902264 0
11.890000 0.540980 0
11.895000 0.174436 0
11.900000 -0.115797 0
11.905000 -0.293880 0
11.910000 -0.359586 4
11.915000 -0.336010 0
11.920000 -0.259985 0
11.925000 -0.169559 0
11.930000 -0.090892 0
11.935000 -0.033040 0
11.940000 0.007414 0
11.945000 0.038097 0
11.950000 0.065274 0
11.955000 0.092365 0
11.960000 0.120661 0
11.965000 0.150348 0
11.970000 0.181137 0
11.975000 0.212532 0
11.980000 0.243928 0
11.985000 0.274644 0
11.990000 0.303952 0
11.995000 0.331106 0
12.000000 0.355367 0
12.005000 0.376044 0
12.010000 0.392518 0
12.015000 0.404278 0
12.020000 0.410944 0
12.025000 0.412285 5
12.030000 0.408235 0
12.035000 0.398894 0
12.040000 0.384527 0
12.045000 0.365545 0
12.050000 0.342492 0
12.055000 0.316012 0
12.060000 0.286823 0
12.065000 0.255684 0
12.070000 0.223359 0
12.075000 0.190589 0
12.080000 0.158066 0
12.085000 0.126406 0
12.090000 0.096137 0
12.095000 0.067685 0
12.100000 0.041372 0
12.105000 0.017417 0
12.110000 -0.004060 0
12.115000 -0.023027 0
12.120000 -0.039528 0
12.125000 -0.053667 0
12.130000 -0.065598 0
12.135000 -0.075504 0
12.140000 -0.083590 0
12.145000 -0.090071 0
12.150000 -0.095158 0
12.155000 -0.099055 0
12.160000 -0.101951 0
12.165000 -0.104018 0
12.170000 -0.105410 0
12.175000 -0.106002 0
12.180000 -0.105085 0
12.185000 -0.104173 0
12.190000 -0.103266 0
12.195000 -0.102363 0
12.200000 -0.101464 0
12.205000 -0.100569 0
12.210000 -0.099678 0
12.215000 -0.098790 0
12.220000 -0.097903 0
12.225000 -0.097013 0
12.230000 -0.096114 0
12.235000 -0.095195 0
12.240000 -0.094239 0
12.245000 -0.093212 0
12.250000 -0.092065 0
12.255000 -0.090719 0
12.260000 -0.089059 0
12.265000 -0.086918 0
12.270000 -0.084064 0
12.275000 -0.080195 0
12.280000 -0.074932 0
12.285000 -0.067822 0
12.290000 -0.058368 0
12.295000 -0.046062 0
12.300000 -0.030449 0
12.305000 -0.011206 0
12.310000 0.011769 0
12.315000 0.038271 0
12.320000 0.067714 0
12.325000 0.099100 0
12.330000 0.131038 0
12.335000 0.161816 0
12.340000 0.189550 0
12.345000 0.212358 0
12.350000 0.228579 0
12.355000 0.236964 1
12.360000 0.236839 0
12.365000 0.228196 0
12.370000 0.211690 0
12.375000 0.188561 0
12.380000 0.160478 0
12.385000 0.129333 0
12.390000 0.097002 0
12.395000 0.065053 0
12.400000 0.034318 0
12.405000 0.004244 0
12.410000 -0.027806 0
12.415000 -0.066435 0
12.420000 -0.115820 0
12.425000 -0.174572 0
12.430000 -0.230414 0
12.435000 -0.259314 2
12.440000 -0.230850 0
12.445000 -0.116556 0
12.450000 0.100805 0
12.455000 0.412875 0
12.460000 0.767127 0
12.465000 1.064183 0
12.470000 1.194363 3
12.475000 1.098971 0
12.480000 0.812473 0
12.485000 0.439106 0
12.490000 0.088625 0
12.495000 -0.169175 0
12.500000 -0.310235 0
12.505000 -0.343038 4
12.510000 -0.297035 0
12.515000 -0.212015 0
12.520000 -0.123886 0
12.525000 -0.053013 0
12.530000 -0.002885 0
12.535000 0.032628 0
12.540000 0.061193 0
12.545000 0.088011 0
12.550000 0.115510 0
12.555000 0.144404 0
12.560000 0.174609 0
12.565000 0.205711 0
12.570000 0.237142 0
12.575000 0.268238 0
12.580000 0.298275 0
12.585000 0.326491 0
12.590000 0.352123 0
12.595000 0.374435 0
12.600000 0.392756 0
12.605000 0.406511 0
12.610000 0.415249 0
12.615000 0.418671 5
12.620000 0.416641 0
12.625000 0.409197 0
12.630000 0.396549 0
12.635000 0.379065 0
12.640000 0.357259 0
12.645000 0.331762 0
12.650000 0.303287 0
12.655000 0.272603 0
12.660000 0.240496 0
12.665000 0.207734 0
12.670000 0.175043 0
12.675000 0.143075 0
12.680000 0.112396 0
12.685000 0.083468 0
12.690000 0.056643 0
12.695000 0.032168 0
12.700000 0.010185 0
12.705000 -0.009258 0
12.710000 -0.026193 0
12.715000 -0.040718 0
12.720000 -0.052984 0
12.725000 -0.063176 0
12.730000 -0.071502 0
12.735000 -0.078181 0
12.740000 -0.083430 0
12.745000 -0.087459 0
12.750000 -0.090463 0
12.755000 -0.092621 0
12.760000 -0.094088 0
12.765000 -0.094744 0
12.770000 -0.093884 0
12.775000 -0.093028 0
12.780000 -0.092176 0
12.785000 -0.091328 0
12.790000 -0.090484 0
12.795000 -0.089644 0
12.800000 -0.088808 0
12.805000 -0.087973 0
12.810000 -0.087139 0
12.815000 -0.086302 0
12.820000 -0.085455 0
12.825000 -0.084585 0
12.830000 -0.083672 0
12.835000 -0.082683 0
12.840000 -0.081560 0
12.845000 -0.080219 0
12.850000 -0.078531 0
12.855000 -0.076313 0
12.860000 -0.073315 0
12.865000 -0.069209 0
12.870000 -0.063587 0
12.875000 -0.055973 0
12.880000 -0.045847 0
12.885000 -0.032697 0
12.890000 -0.016087 0
12.895000 0.004258 0
12.900000 0.028356 0
12.905000 0.055877 0
12.910000 0.086083 0
12.915000 0.117806 0
12.920000 0.149491 0
12.925000 0.179300 0
12.930000 0.205276 0
12.935000 0.225556 0
12.940000 0.238584 0
12.945000 0.243313 1
12.950000 0.239338 0
12.955000 0.226957 0
12.960000 0.207131 0
12.965000 0.181361 0
12.970000 0.151494 0
12.975000 0.119494 0
12.980000 0.087167 0
12.985000 0.055794 0
12.990000 0.025568 0
12.995000 -0.005176 0
13.000000 -0.040392 0
13.005000 -0.085034 0
13.010000 -0.140802 0
13.015000 -0.200092 0
13.020000 -0.242682 2
13.025000 -0.238956 0
13.030000 -0.157997 0
13.035000 0.023223 0
13.040000 0.307226 0
13.045000 0.656822 0
13.050000 0.983568 0
13.055000 1.172027 3
13.060000 1.145733 0
13.065000 0.912330 0
13.070000 0.555808 0
13.075000 0.185781 0
13.080000 -0.114456 0
13.085000 -0.305762 0
13.090000 -0.384695 4
13.095000 -0.371417 0
13.100000 -0.300629 0
13.105000 -0.210176 0
13.110000 -0.128130 0
13.115000 -0.066173 0
13.120000 -0.022648 0
13.125000 0.009636 0
13.130000 0.037322 0
13.135000 0.064358 0
13.140000 0.092403 0
13.145000 0.121834 0
13.150000 0.152456 0
13.155000 0.183830 0
13.160000 0.215391 0
13.165000 0.246495 0
13.170000 0.276447 0
13.175000 0.304519 0
13.180000 0.329988 0
13.185000 0.352160 0
13.190000 0.370402 0
13.195000 0.384173 0
13.200000 0.393048 0
13.205000 0.396742 5
13.210000 0.395122 0
13.215000 0.388214 0
13.220000 0.376207 0
13.225000 0.359437 0
13.230000 0.338376 0
13.235000 0.313607 0
13.240000 0.285800 0
13.245000 0.255675 0
13.250000 0.223980 0
13.255000 0.191453 0
13.260000 0.158797 0
13.265000 0.126656 0
13.270000 0.095597 0
13.275000 0.066094 0
13.280000 0.038522 0
13.285000 0.013157 0
13.290000 -0.009826 0
13.295000 -0.030342 0
13.300000 -0.048387 0
13.305000 -0.064023 0
13.310000 -0.077371 0
13.315000 -0.088589 0
13.320000 -0.097865 0
13.325000 -0.105403 0
13.330000 -0.111410 0
13.335000 -0.116093 0
13.340000 -0.119646 0
13.345000 -0.122250 0
13.350000 -0.124071 0
13.355000 -0.125252 0
13.360000 -0.125674 0
13.365000 -0.124659 0
13.370000 -0.123649 0
13.375000 -0.122645 0
13.380000 -0.121645 0
13.385000 -0.120650 0
13.390000 -0.119660 0
13.395000 -0.118673 0
13.400000 -0.117690 0
13.405000 -0.116708 0
13.410000 -0.115724 0
13.415000 -0.114731 0
13.420000 -0.113719 0
13.425000 -0.112669 0
13.430000 -0.111551 0
13.435000 -0.110315 0
13.440000 -0.108887 0
13.445000 -0.107153 0
13.450000 -0.104955 0
13.455000 -0.102070 0
13.460000 -0.098210 0
13.465000 -0.093009 0
13.470000 -0.086036 0
13.475000 -0.076806 0
13.480000 -0.064825 0
13.485000 -0.049637 0
13.490000 -0.030904 0
13.495000 -0.008486 0
13.500000 0.017474 0
13.505000 0.046478 0
13.510000 0.077633 0
13.515000 0.109659 0
13.520000 0.140950 0
13.525000 0.169693 0
13.530000 0.194034 0
13.535000 0.212279 0
13.540000 0.223083 0
13.545000 0.225616 1
13.550000 0.219669 0
13.555000 0.205683 0
13.560000 0.184696 0
13.565000 0.158214 0
13.570000 0.128027 0
13.575000 0.096002 0
13.580000 0.063819 0
13.585000 0.032633 0
13.590000 0.002546 0
13.595000 -0.028105 0
13.600000 -0.063106 0
13.605000 -0.107200 0
13.610000 -0.162257 0
13.615000 -0.221773 0
13.620000 -0.267537 0
13.625000 -0.272022 2
13.630000 -0.205460 0
13.635000 -0.044033 0
13.640000 0.219671 0
13.645000 0.560015 0
13.650000 0.904024 0
13.655000 1.143683 0
13.660000 1.185912 3
13.665000 1.007980 0
13.670000 0.675368 0
13.675000 0.299019 0
13.680000 -0.025078 0
13.685000 -0.245208 0
13.690000 -0.349969 0
13.695000 -0.355089 4
13.700000 -0.293539 0
13.705000 -0.204486 0
13.710000 -0.119537 0
13.715000 -0.053901 0
13.720000 -0.007820 0
13.725000 0.025633 0
13.730000 0.053579 0
13.735000 0.080469 0
13.740000 0.108257 0
13.745000 0.137443 0
13.750000 0.167872 0
13.755000 0.199110 0
13.760000 0.230590 0
13.765000 0.261657 0
13.770000 0.291602 0
13.775000 0.319682 0
13.780000 0.345156 0
13.785000 0.367311 0
13.790000 0.385499 0
13.795000 0.399165 0
13.800000 0.407875 0
13.805000 0.411339 5
13.810000 0.409426 0
13.815000 0.402171 0
13.820000 0.389772 0
13.825000 0.372583 0
13.830000 0.351098 0
13.835000 0.325922 0
13.840000 0.297745 0
13.845000 0.267310 0
13.850000 0.235382 0
13.855000 0.202714 0
13.860000 0.170017 0
13.865000 0.137939 0
13.870000 0.107045 0
13.875000 0.077802 0
13.880000 0.050576 0
13.885000 0.025625 0
13.890000 0.003110 0
13.895000 -0.016902 0
13.900000 -0.034424 0
13.905000 -0.049538 0
13.910000 -0.062376 0
13.915000 -0.073111 0
13.920000 -0.081940 0
13.925000 -0.089074 0
13.930000 -0.094726 0
13.935000 -0.099104 0
13.940000 -0.102402 0
13.945000 -0.104801 0
13.950000 -0.106462 0
13.955000 -0.107524 0
13.960000 -0.106887 0
13.965000 -0.105966 0
13.970000 -0.105050 0
13.975000 -0.104138 0
13.980000 -0.103230 0
13.985000 -0.102327 0
13.990000 -0.101428 0
13.995000 -0.100532 0
14.000000 -0.099637 0
14.005000 -0.098742 0
14.010000 -0.097842 0
14.015000 -0.096928 0
14.020000 -0.095985 0
14.025000 -0.094988 0
14.030000 -0.093898 0
14.035000 -0.092649 0
14.040000 -0.091145 0
14.045000 -0.089244 0
14.050000 -0.086747 0
14.055000 -0.083386 0
14.060000 -0.078818 0
14.065000 -0.072625 0
14.070000 -0.064328 0
14.075000 -0.053419 0
14.080000 -0.039411 0
14.085000 -0.021908 0
14.090000 -0.000693 0
14.095000 0.024185 0
14.100000 0.052328 0
14.105000 0.082940 0
14.110000 0.114814 0
14.115000 0.146384 0
14.120000 0.175832 0
14.125000 0.201255 0
14.130000 0.220865 0
14.135000 0.233193 0
14.140000 0.237272 1
14.145000 0.232764 0
14.150000 0.220002 0
14.155000 0.199953 0
14.160000 0.174093 0
14.165000 0.144228 0
14.170000 0.112267 0
14.175000 0.079970 0
14.180000 0.048597 0
14.185000 0.018384 0
14.190000 -0.012194 0
14.195000 -0.046862 0
14.200000 -0.090487 0
14.205000 -0.145244 0
14.210000 -0.204884 0
14.215000 -0.251091 0
14.220000 -0.255809 2
14.225000 -0.188588 0
14.230000 -0.025165 0
14.235000 0.241507 0
14.240000 0.583763 0
14.245000 0.924850 0
14.250000 1.153607 0
14.255000 1.178273 3
14.260000 0.982237 0
14.265000 0.639419 0
14.270000 0.265241 0
14.275000 -0.046149 0
14.280000 -0.247939 0
14.285000 -0.333585 4
14.290000 -0.323107 0
14.295000 -0.252786 0
14.300000 -0.162560 0
14.305000 -0.081680 0
14.310000 -0.021622 0
14.315000 0.020102 0
14.320000 0.051231 0
14.325000 0.078431 0
14.330000 0.105413 0
14.335000 0.133591 0
14.340000 0.163186 0
14.345000 0.193906 0
14.350000 0.225242 0
14.355000 0.256569 0
14.360000 0.287183 0
14.365000 0.316334 0
14.370000 0.343249 0
14.375000 0.367172 0
14.380000 0.387394 0
14.385000 0.403289 0
14.390000 0.414343 0
14.395000 0.420182 0
14.400000 0.420596 5
14.405000 0.415541 0
14.410000 0.405154 0
14.415000 0.389736 0
14.420000 0.369741 0
14.425000 0.345756 0
14.430000 0.318466 0
14.435000 0.288624 0
14.440000 0.257016 0
14.445000 0.224427 0
14.450000 0.191607 0
14.455000 0.159248 0
14.460000 0.127955 0
14.465000 0.098237 0
14.470000 0.070497 0
14.475000 0.045023 0
14.480000 0.022002 0
14.485000 0.001519 0
14.490000 -0.016428 0
14.495000 -0.031913 0
14.500000 -0.045067 0
14.505000 -0.056065 0
14.510000 -0.065109 0
14.515000 -0.072416 0
14.520000 -0.078206 0
14.525000 -0.082693 0
14.530000 -0.086081 0
14.535000 -0.088554 0
14.540000 -0.090278 0
14.545000 -0.091398 0
14.550000 -0.090838 0
14.555000 -0.089997 0
14.560000 -0.089160 0
14.565000 -0.088327 0
14.570000 -0.087499 0
14.575000 -0.086674 0
14.580000 -0.085853 0
14.585000 -0.085034 0
14.590000 -0.084216 0
14.595000 -0.083396 0
14.600000 -0.082569 0
14.605000 -0.081725 0
14.610000 -0.080845 0
14.615000 -0.079902 0
14.620000 -0.078846 0
14.625000 -0.077604 0
14.630000 -0.076061 0
14.635000 -0.074053 0
14.640000 -0.071350 0
14.645000 -0.067650 0
14.650000 -0.062566 0
14.655000 -0.055640 0
14.660000 -0.046358 0
14.665000 -0.034197 0
14.670000 -0.018686 0
14.675000 0.000510 0
14.680000 0.023496 0
14.685000 0.050054 0
14.690000 0.079565 0
14.695000 0.110982 0
14.700000 0.142844 0
14.705000 0.173370 0
14.710000 0.200608 0
14.715000 0.222635 0
14.720000 0.237779 0
14.725000 0.244830 1
14.730000 0.243195 0
14.735000 0.232983 0
14.740000 0.214991 0
14.745000 0.190599 0
14.750000 0.161595 0
14.755000 0.129948 0
14.760000 0.097543 0
14.765000 0.065847 0
14.770000 0.035394 0
14.775000 0.005044 0
14.780000 -0.028635 0
14.785000 -0.070652 0
14.790000 -0.124038 0
14.795000 -0.183862 0
14.800000 -0.232741 0
14.805000 -0.242470 2
14.810000 -0.181470 0
14.815000 -0.023912 0
14.820000 0.238838 0
14.825000 0.579908 0
14.830000 0.921170 0
14.835000 1.148048 0
14.840000 1.166535 3
14.845000 0.968185 0
14.850000 0.627063 0
14.855000 0.251711 0
14.860000 -0.067406 0
14.865000 -0.282726 0
14.870000 -0.384563 0
14.875000 -0.388716 4
14.880000 -0.327273 0
14.885000 -0.238240 0
14.890000 -0.152566 0
14.895000 -0.085627 0
14.900000 -0.038236 0
14.905000 -0.003881 0
14.910000 0.024497 0
14.915000 0.051498 0
14.920000 0.079241 0
14.925000 0.108343 0
14.930000 0.138713 0
14.935000 0.169963 0
14.940000 0.201560 0
14.945000 0.232885 0
14.950000 0.263260 0
14.955000 0.291970 0
14.960000 0.318294 0
14.965000 0.341532 0
14.970000 0.361036 0
14.975000 0.376238 0
14.980000 0.386682 0
14.985000 0.392039 0
14.990000 0.392128 5
14.995000 0.386928 0
15.000000 0.376572 0
15.005000 0.361348 0
15.010000 0.341683 0
15.015000 0.318120 0
15.020000 0.291297 0
15.025000 0.261915 0
15.030000 0.230709 0
15.035000 0.198418 0
15.040000 0.165755 0
15.045000 0.133380 0
15.050000 0.101887 0
15.055000 0.071779 0
15.060000 0.043467 0
15.065000 0.017259 0
15.070000 -0.006632 0
15.075000 -0.028088 0
15.080000 -0.047077 0
15.085000 -0.063635 0
15.090000 -0.077860 0
15.095000 -0.089897 0
15.100000 -0.099921 0
15.105000 -0.108129 0
15.110000 -0.114727 0
15.115000 -0.119919 0
15.120000 -0.123905 0
15.125000 -0.126872 0
15.130000 -0.128989 0
15.135000 -0.130407 0
15.140000 -0.131261 0
15.145000 -0.130493 0
15.150000 -0.129454 0
15.155000 -0.128421 0
15.160000 -0.127392 0
15.165000 -0.126369 0
15.170000 -0.125350 0
15.175000 -0.124336 0
15.180000 -0.123325 0
15.185000 -0.122317 0
15.190000 -0.121309 0
15.195000 -0.120296 0
15.200000 -0.119270 0
15.205000 -0.118218 0
15.210000 -0.117114 0
15.215000 -0.115921 0
15.220000 -0.114579 0
15.225000 -0.112996 0
15.230000 -0.111040 0
15.235000 -0.108526 0
15.240000 -0.105202 0
15.245000 -0.100748 0
15.250000 -0.094768 0
15.255000 -0.086809 0
15.260000 -0.076379 0
15.265000 -0.062998 0
15.270000 -0.046257 0
15.275000 -0.025895 0
15.280000 -0.001886 0
15.285000 0.025481 0
15.290000 0.055549 0
15.295000 0.087266 0
15.300000 0.119216 0
15.305000 0.149703 0
15.310000 0.176893 0
15.315000 0.198987 0
15.320000 0.214422 0
15.325000 0.222052 1
15.330000 0.221287 0
15.335000 0.212174 0
15.340000 0.195387 0
15.345000 0.172151 0
15.350000 0.144087 0
15.355000 0.113028 0
15.360000 0.080786 0
15.365000 0.048887 0
15.370000 0.018174 0
15.375000 -0.011792 0
15.380000 -0.043402 0
15.385000 -0.080993 0
15.390000 -0.128861 0
15.395000 -0.186663 0
15.400000 -0.244215 0
15.405000 -0.279860 2
15.410000 -0.264702 0
15.415000 -0.170210 0
15.420000 0.023475 0
15.425000 0.315529 0
15.430000 0.666935 0
15.435000 0.991689 0
15.440000 1.180598 3
15.445000 1.154304 0
15.450000 0.918031 0
15.455000 0.559365 0
15.460000 0.191253 0
15.465000 -0.102414 0
15.470000 -0.284036 0
15.475000 -0.352495 4
15.480000 -0.330568 0
15.485000 -0.255182 0
15.490000 -0.164777 0
15.495000 -0.085948 0
15.500000 -0.027994 0
15.505000 0.012469 0
15.510000 0.043119 0
15.515000 0.070265 0
15.520000 0.097341 0
15.525000 0.125633 0
15.530000 0.155320 0
15.535000 0.186106 0
15.540000 0.217488 0
15.545000 0.248854 0
15.550000 0.279515 0
15.555000 0.308738 0
15.560000 0.335768 0
15.565000 0.359864 0
15.570000 0.380330 0
15.575000 0.396550 0
15.580000 0.408012 0
15.585000 0.414341 0
15.590000 0.415316 5
15.595000 0.410880 0
15.600000 0.401147 0
15.605000 0.386393 0
15.610000 0.367044 0
15.615000 0.343658 0
15.620000 0.316891 0
15.625000 0.287472 0
15.630000 0.256168 0
15.635000 0.223747 0
15.640000 0.190953 0
15.645000 0.158475 0
15.650000 0.126927 0
15.655000 0.096829 0
15.660000 0.068599 0
15.665000 0.042549 0
15.670000 0.018885 0
15.675000 -0.002282 0
15.680000 -0.020932 0
15.685000 -0.037117 0
15.690000 -0.050951 0
15.695000 -0.062592 0
15.700000 -0.072231 0
15.705000 -0.080076 0
15.710000 -0.086343 0
15.715000 -0.091245 0
15.720000 -0.094984 0
15.725000 -0.097749 0
15.730000 -0.099710 0
15.735000 -0.101018 0
15.740000 -0.101559 0
15.745000 -0.100664 0
15.750000 -0.099774 0
15.755000 -0.098889 0
15.760000 -0.098008 0
15.765000 -0.097130 0
15.770000 -0.096257 0
15.775000 -0.095387 0
15.780000 -0.094520 0
15.785000 -0.093653 0
15.790000 -0.092782 0
15.795000 -0.091900 0
15.800000 -0.090994 0
15.805000 -0.090044 0
15.810000 -0.089014 0
15.815000 -0.087847 0
15.820000 -0.086456 0
15.825000 -0.084712 0
15.830000 -0.082433 0
15.835000 -0.079367 0
15.840000 -0.075191 0
15.845000 -0.069499 0
15.850000 -0.061824 0
15.855000 -0.051654 0
15.860000 -0.038486 0
15.865000 -0.021889 0
15.870000 -0.001592 0
15.875000 0.022428 0
15.880000 0.049859 0
15.885000 0.079990 0
15.890000 0.111691 0
15.895000 0.143452 0
15.900000 0.173477 0
15.905000 0.199846 0
15.910000 0.220710 0
15.915000 0.234504 0
15.920000 0.240145 1
15.925000 0.237165 0
15.930000 0.225779 0
15.935000 0.206859 0
15.940000 0.181820 0
15.945000 0.152448 0
15.950000 0.120671 0
15.955000 0.088309 0
15.960000 0.056741 0
15.965000 0.026391 0
15.970000 -0.003993 0
15.975000 -0.037897 0
15.980000 -0.080239 0
15.985000 -0.133837 0
15.990000 -0.193629 0
15.995000 -0.242463 0
16.000000 -0.252728 2
16.005000 -0.193512 0
16.010000 -0.039316 0
16.015000 0.219136 0
16.020000 0.557546 0
16.025000 0.902245 0
16.030000 1.142033 0
16.035000 1.180805 3
16.040000 0.997299 0
16.045000 0.660879 0
16.050000 0.285263 0
16.055000 -0.033402 0
16.060000 -0.245108 0
16.065000 -0.340615 4
16.070000 -0.337825 0
16.075000 -0.271580 0
16.080000 -0.181729 0
16.085000 -0.098865 0
16.090000 -0.036276 0
16.095000 0.007333 0
16.100000 0.039420 0
16.105000 0.066903 0
16.110000 0.093830 0
16.115000 0.121844 0
16.120000 0.151276 0
16.125000 0.181889 0
16.130000 0.213202 0
16.135000 0.244611 0
16.140000 0.275432 0
16.145000 0.304927 0
16.150000 0.332335 0
16.155000 0.356901 0
16.160000 0.377913 0
16.165000 0.394733 0
16.170000 0.406828 0
16.175000 0.413800 0
16.180000 0.415405 5
16.185000 0.411565 0
16.190000 0.402377 0
16.195000 0.388102 0
16.200000 0.369159 0
16.205000 0.346099 0
16.210000 0.319579 0
16.215000 0.290331 0
16.220000 0.259130 0
16.225000 0.226753 0
16.230000 0.193956 0
16.235000 0.161440 0
16.240000 0.129830 0
16.245000 0.099656 0
16.250000 0.071347 0
16.255000 0.045221 0
16.260000 0.021490 0
16.265000 0.000269 0
16.270000 -0.018420 0
16.275000 -0.034630 0
16.280000 -0.048475 0
16.285000 -0.060116 0
16.290000 -0.069745 0
16.295000 -0.077573 0
16.300000 -0.083818 0
16.305000 -0.088696 0
16.310000 -0.092411 0
16.315000 -0.095153 0
16.320000 -0.097094 0
16.325000 -0.098384 0
16.330000 -0.098915 0
16.335000 -0.098034 0
16.340000 -0.097157 0
16.345000 -0.096285 0
16.350000 -0.095416 0
16.355000 -0.094552 0
16.360000 -0.093692 0
16.365000 -0.092835 0
16.370000 -0.091980 0
16.375000 -0.091124 0
16.380000 -0.090264 0
16.385000 -0.089392 0
16.390000 -0.088495 0
16.395000 -0.087548 0
16.400000 -0.086514 0
16.405000 -0.085332 0
16.410000 -0.083908 0
16.415000 -0.082105 0
16.420000 -0.079727 0
16.425000 -0.076509 0
16.430000 -0.072108 0
16.435000 -0.066103 0
16.440000 -0.058010 0
16.445000 -0.047308 0
16.450000 -0.033497 0
16.455000 -0.016166 0
16.460000 0.004916 0
16.465000 0.029708 0
16.470000 0.057808 0
16.475000 0.088405 0
16.480000 0.120262 0
16.485000 0.151772 0
16.490000 0.181073 0
16.495000 0.206218 0
16.500000 0.225390 0
16.505000 0.237116 0
16.510000 0.240450 1
16.515000 0.235105 0
16.520000 0.221485 0
16.525000 0.200643 0
16.530000 0.174138 0
16.535000 0.143842 0
16.540000 0.111704 0
16.545000 0.079468 0
16.550000 0.048296 0
16.555000 0.018166 0
16.560000 -0.012890 0
16.565000 -0.049075 0
16.570000 -0.095201 0
16.575000 -0.152088 0
16.580000 -0.210629 0
16.585000 -0.249214 2
16.590000 -0.237738 0
16.595000 -0.145889 0
16.600000 0.047624 0
16.605000 0.341823 0
16.610000 0.694132 0
16.615000 1.011580 0
16.620000 1.179708 3
16.625000 1.129681 0
16.630000 0.878620 0
16.635000 0.515792 0
16.640000 0.149742 0
16.645000 -0.140734 0
16.650000 -0.320739 0
16.655000 -0.389611 4
16.660000 -0.369237 0
16.665000 -0.295064 0
16.670000 -0.204429 0
16.675000 -0.123946 0
16.680000 -0.063814 0
16.685000 -0.021566 0
16.690000 0.010109 0
16.695000 0.037636 0
16.700000 0.064726 0
16.705000 0.092889 0
16.710000 0.122435 0
16.715000 0.153142 0
16.720000 0.184559 0
16.725000 0.216117 0
16.730000 0.247170 0
16.735000 0.277018 0
16.740000 0.304939 0
16.745000 0.330211 0
16.750000 0.352145 0
16.755000 0.370117 0
16.760000 0.383592 0
16.765000 0.392157 0
16.770000 0.395536 5
16.775000 0.393606 0
16.780000 0.386403 0
16.785000 0.374124 0
16.790000 0.357112 0
16.795000 0.335844 0
16.800000 0.310908 0
16.805000 0.282974 0
16.810000 0.252763 0
16.815000 0.221019 0
16.820000 0.188478 0
16.825000 0.155839 0
16.830000 0.123742 0
16.835000 0.092745 0
16.840000 0.063320 0
16.845000 0.035836 0
16.850000 0.010563 0
16.855000 -0.012326 0
16.860000 -0.032751 0
16.865000 -0.050708 0
16.870000 -0.066265 0
16.875000 -0.079540 0
16.880000 -0.090694 0
16.885000 -0.099914 0
16.890000 -0.107403 0
16.895000 -0.113369 0
16.900000 -0.118016 0
16.905000 -0.121540 0
16.910000 -0.124120 0
16.915000 -0.125920 0
16.920000 -0.127083 0
16.925000 -0.127490 0
16.930000 -0.126467 0
16.935000 -0.125448 0
16.940000 -0.124434 0
16.945000 -0.123426 0
16.950000 -0.122422 0
16.955000 -0.121423 0
16.960000 -0.120427 0
16.965000 -0.119435 0
16.970000 -0.118445 0
16.975000 -0.117452 0
16.980000 -0.116451 0
16.985000 -0.115430 0
16.990000 -0.114372 0
16.995000 -0.113246 0
17.000000 -0.112004 0
17.005000 -0.110570 0
17.010000 -0.108833 0
17.015000 -0.106634 0
17.020000 -0.103754 0
17.025000 -0.099906 0
17.030000 -0.094726 0
17.035000 -0.087786 0
17.040000 -0.078603 0
17.045000 -0.066684 0
17.050000 -0.051574 0
17.055000 -0.032931 0
17.060000 -0.010609 0
17.065000 0.015258 0
17.070000 0.044185 0
17.075000 0.075295 0
17.080000 0.107323 0
17.085000 0.138677 0
17.090000 0.167554 0
17.095000 0.192106 0
17.100000 0.210631 0
17.105000 0.221773 0
17.110000 0.224679 1
17.115000 0.219114 0
17.120000 0.205489 0
17.125000 0.184813 0
17.130000 0.158567 0
17.135000 0.128530 0
17.140000 0.096562 0
17.145000 0.064357 0
17.150000 0.033107 0
17.155000 0.002988 0
17.160000 -0.027537 0
17.165000 -0.062131 0
17.170000 -0.105544 0
17.175000 -0.159978 0
17.180000 -0.219624 0
17.185000 -0.267081 0
17.190000 -0.275333 2
17.195000 -0.214595 0
17.200000 -0.060425 0
17.205000 0.196210 0
17.210000 0.532782 0
17.215000 0.880088 0
17.220000 1.131727 0
17.225000 1.191468 3
17.230000 1.028570 0
17.235000 0.703077 0
17.240000 0.326298 0
17.245000 -0.002358 0
17.250000 -0.227952 0
17.255000 -0.337284 0
17.260000 -0.345379 4
17.265000 -0.285192 0
17.270000 -0.196406 0
17.275000 -0.111311 0
17.280000 -0.045569 0
17.285000 0.000481 0
17.290000 0.033843 0
17.295000 0.061716 0
17.300000 0.088575 0
17.305000 0.116361 0
17.310000 0.145557 0
17.315000 0.175992 0
17.320000 0.207222 0
17.325000 0.238664 0
17.330000 0.269653 0
17.335000 0.299467 0
17.340000 0.327352 0
17.345000 0.352558 0
17.350000 0.374368 0
17.355000 0.392129 0
17.360000 0.405292 0
17.365000 0.413429 0
17.370000 0.416263 5
17.375000 0.413679 0
17.380000 0.405734 0
17.385000 0.392648 0
17.390000 0.374801 0
17.395000 0.352708 0
17.400000 0.326999 0
17.405000 0.298383 0
17.410000 0.267619 0
17.415000 0.235481 0
17.420000 0.202727 0
17.425000 0.170069 0
17.430000 0.138147 0
17.435000 0.107518 0
17.440000 0.078633 0
17.445000 0.051840 0
17.450000 0.027381 0
17.455000 0.005396 0
17.460000 -0.014066 0
17.465000 -0.031036 0
17.470000 -0.045610 0
17.475000 -0.057934 0
17.480000 -0.068190 0
17.485000 -0.076583 0
17.490000 -0.083327 0
17.495000 -0.088639 0
17.500000 -0.092725 0
17.505000 -0.095778 0
17.510000 -0.097977 0
17.515000 -0.099476 0
17.520000 -0.100149 0
17.525000 -0.099262 0
17.530000 -0.098379 0
17.535000 -0.097500 0
17.540000 -0.096626 0
17.545000 -0.095756 0
17.550000 -0.094889 0
17.555000 -0.094027 0
17.560000 -0.093167 0
17.565000 -0.092308 0
17.570000 -0.091446 0
17.575000 -0.090577 0
17.580000 -0.089688 0
17.585000 -0.088761 0
17.590000 -0.087766 0
17.595000 -0.086653 0
17.600000 -0.085345 0
17.605000 -0.083725 0
17.610000 -0.081626 0
17.615000 -0.078819 0
17.620000 -0.074997 0
17.625000 -0.069779 0
17.630000 -0.062710 0
17.635000 -0.053286 0
17.640000 -0.040994 0
17.645000 -0.025375 0
17.650000 -0.006104 0
17.655000 0.016920 0
17.660000 0.043479 0
17.665000 0.072975 0
17.670000 0.104385 0
17.675000 0.136289 0
17.680000 0.166951 0
17.685000 0.194459 0
17.690000 0.216920 0
17.695000 0.232672 0
17.700000 0.240485 1
17.705000 0.239723 0
17.710000 0.230424 0
17.715000 0.213300 0
17.720000 0.189648 0
17.725000 0.161181 0
17.730000 0.129821 0
17.735000 0.097447 0
17.740000 0.065589 0
17.745000 0.034971 0
17.750000 0.004823 0
17.755000 -0.027795 0
17.760000 -0.067670 0
17.765000 -0.118624 0
17.770000 -0.178018 0
17.775000 -0.231678 0
17.780000 -0.253918 2
17.785000 -0.213750 0
17.790000 -0.083511 0
17.795000 0.151203 0
17.800000 0.475697 0
17.805000 0.828020 0
17.810000 1.102016 0
17.815000 1.191873 3
17.820000 1.056290 0
17.825000 0.746127 0
17.830000 0.369662 0
17.835000 0.030443 0
17.840000 -0.210425 0
17.845000 -0.335005 0
17.850000 -0.355168 4
17.855000 -0.301945 0
17.860000 -0.214841 0
17.865000 -0.127858 0
17.870000 -0.059084 0
17.875000 -0.010584 0
17.880000 0.024120 0
17.885000 0.052459 0
17.890000 0.079323 0
17.895000 0.106948 0
17.900000 0.135965 0
17.905000 0.166268 0
17.910000 0.197440 0
17.915000 0.228917 0
17.920000 0.260044 0
17.925000 0.290108 0
17.930000 0.318360 0
17.935000 0.344048 0
17.940000 0.366450 0
17.945000 0.384902 0
17.950000 0.398838 0
17.955000 0.407811 0
17.960000 0.411519 5
17.965000 0.409822 0
17.970000 0.402748 0
17.975000 0.390492 0
17.980000 0.373409 0
17.985000 0.351993 0
17.990000 0.326854 0
17.995000 0.298690 0
18.000000 0.268252 0
18.005000 0.236314 0
18.010000 0.203636 0
18.015000 0.170937 0
18.020000 0.138871 0
18.025000 0.108008 0
18.030000 0.078818 0
18.035000 0.051665 0
18.040000 0.026809 0
18.045000 0.004407 0
18.050000 -0.015477 0
18.055000 -0.032862 0
18.060000 -0.047831 0
18.065000 -0.060523 0
18.070000 -0.071115 0
18.075000 -0.079807 0
18.080000 -0.086814 0
18.085000 -0.092350 0
18.090000 -0.096624 0
18.095000 -0.099833 0
18.100000 -0.102156 0
18.105000 -0.103753 0
18.110000 -0.104765 0
18.115000 -0.104132 0
18.120000 -0.103224 0
18.125000 -0.102322 0
18.130000 -0.101423 0
18.135000 -0.100529 0
18.140000 -0.099639 0
18.145000 -0.098753 0
18.150000 -0.097870 0
18.155000 -0.096988 0
18.160000 -0.096105 0
18.165000 -0.095216 0
18.170000 -0.094309 0
18.175000 -0.093370 0
18.180000 -0.092371 0
18.185000 -0.091265 0
18.190000 -0.089983 0
18.195000 -0.088417 0
18.200000 -0.086413 0
18.205000 -0.083755 0
18.210000 -0.080153 0
18.215000 -0.075243 0
18.220000 -0.068586 0
18.225000 -0.059684 0
18.230000 -0.048026 0
18.235000 -0.033133 0
18.240000 -0.014647 0
18.245000 0.007590 0
18.250000 0.033438 0
18.255000 0.062384 0
18.260000 0.093501 0
18.265000 0.125456 0
18.270000 0.156574 0
18.275000 0.184971 0
18.280000 0.208736 0
18.285000 0.226140 0
18.290000 0.235843 0
18.295000 0.237065 1
18.300000 0.229690 0
18.305000 0.214280 0
18.310000 0.192006 0
18.315000 0.164503 0
18.320000 0.133658 0
18.325000 0.101383 0
18.330000 0.069318 0
18.335000 0.038428 0
18.340000 0.008365 0
18.345000 -0.023261 0
18.350000 -0.060932 0
18.355000 -0.109110 0
18.360000 -0.167267 0
18.365000 -0.224273 0
18.370000 -0.256891 2
18.375000 -0.234704 0
18.380000 -0.128491 0
18.385000 0.080517 0
18.390000 0.386626 0
18.395000 0.740686 0
18.400000 1.045166 0
18.405000 1.188298 3
18.410000 1.109361 0
18.415000 0.836568 0
18.420000 0.466871 0
18.425000 0.108412 0
18.430000 -0.165578 0
18.435000 -0.326157 0
18.440000 -0.377208 4
18.445000 -0.344068 0
18.450000 -0.264082 0
18.455000 -0.173942 0
18.460000 -0.097456 0
18.465000 -0.041748 0
18.470000 -0.002590 0
18.475000 0.027592 0
18.480000 0.054724 0
18.485000 0.081950 0
18.490000 0.110417 0
18.495000 0.140254 0
18.500000 0.171157 0
18.505000 0.202628 0
18.510000 0.234064 0
18.515000 0.264791 0
18.520000 0.294090 0
18.525000 0.321222 0
18.530000 0.345462 0
18.535000 0.366127 0
18.540000 0.382609 0
18.545000 0.394405 0
18.550000 0.401139 0
18.555000 0.402585 5
18.560000 0.398675 0
18.565000 0.389506 0
18.570000 0.375334 0
18.575000 0.356563 0
18.580000 0.333723 0
18.585000 0.307449 0
18.590000 0.278445 0
18.595000 0.247457 0
18.600000 0.215243 0
18.605000 0.182534 0
18.610000 0.150019 0
18.615000 0.118313 0
18.620000 0.087943 0
18.625000 0.059343 0
18.630000 0.032839 0
18.635000 0.008658 0
18.640000 -0.013071 0
18.645000 -0.032306 0
18.650000 -0.049080 0
18.655000 -0.063491 0
18.660000 -0.075682 0
18.665000 -0.085833 0
18.670000 -0.094143 0
18.675000 -0.100823 0
18.680000 -0.106082 0
18.685000 -0.110123 0
18.690000 -0.113137 0
18.695000 -0.115297 0
18.700000 -0.116756 0
18.705000 -0.117379 0
18.710000 -0.116405 0
18.715000 -0.115437 0
18.720000 -0.114473 0
18.725000 -0.113514 0
18.730000 -0.112560 0
18.735000 -0.111610 0
18.740000 -0.110664 0
18.745000 -0.109722 0
18.750000 -0.108781 0
18.755000 -0.107839 0
18.760000 -0.106891 0
18.765000 -0.105927 0
18.770000 -0.104932 0
18.775000 -0.103879 0
18.780000 -0.102725 0
18.785000 -0.101401 0
18.790000 -0.099808 0
18.795000 -0.097796 0
18.800000 -0.095162 0
18.805000 -0.091630 0
18.810000 -0.086852 0
18.815000 -0.080406 0
18.820000 -0.071814 0
18.825000 -0.060571 0
18.830000 -0.046201 0
18.835000 -0.028327 0
18.840000 -0.006753 0
18.845000 0.018446 0
18.850000 0.046845 0
18.855000 0.077626 0
18.860000 0.109569 0
18.865000 0.141102 0
18.870000 0.170417 0
18.875000 0.195633 0
18.880000 0.214989 0
18.885000 0.227050 0
18.890000 0.230882 1
18.895000 0.226171 0
18.900000 0.213266 0
18.905000 0.193137 0
18.910000 0.167251 0
18.915000 0.137398 0
18.920000 0.105469 0
18.925000 0.073204 0
18.930000 0.041855 0
18.935000 0.011667 0
18.940000 -0.018836 0
18.945000 -0.053302 0
18.950000 -0.096558 0
18.955000 -0.150923 0
18.960000 -0.210606 0
18.965000 -0.257968 0
18.970000 -0.265543 2
18.975000 -0.203108 0
18.980000 -0.046055 0
18.985000 0.214104 0
18.990000 0.552920 0
18.995000 0.897948 0
19.000000 1.140262 0
19.005000 1.184892 3
19.010000 1.008761 0
19.015000 0.677121 0
19.020000 0.300675 0
19.025000 -0.024324 0
19.030000 -0.245733 0
19.035000 -0.351789 0
19.040000 -0.357950 4
19.045000 -0.296995 0
19.050000 -0.208058 0
19.055000 -0.122892 0
19.060000 -0.056934 0
19.065000 -0.010590 0
19.070000 0.023012 0
19.075000 0.051014 0
19.080000 0.077910 0
19.085000 0.105686 0
19.090000 0.134858 0
19.095000 0.165277 0
19.100000 0.196515 0
19.105000 0.228006 0
19.110000 0.259098 0
19.115000 0.289083 0
19.120000 0.317221 0
19.125000 0.342768 0
19.130000 0.365015 0
19.135000 0.383310 0
19.140000 0.397097 0
19.145000 0.405940 0
19.150000 0.409545 5
19.155000 0.407778 0
19.160000 0.400667 0
19.165000 0.388409 0
19.170000 0.371353 0
19.175000 0.349987 0
19.180000 0.324914 0
19.185000 0.296822 0
19.190000 0.266451 0
19.195000 0.234566 0
19.200000 0.201918 0
19.205000 0.169221 0
19.210000 0.137124 0
19.215000 0.106193 0
19.220000 0.076899 0
19.225000 0.049610 0
19.230000 0.024589 0
19.235000 0.001998 0
19.240000 -0.018093 0
19.245000 -0.035693 0
19.250000 -0.050882 0
19.255000 -0.063791 0
19.260000 -0.074591 0
19.265000 -0.083479 0
19.270000 -0.090665 0
19.275000 -0.096362 0
19.280000 -0.100777 0
19.285000 -0.104106 0
19.290000 -0.106529 0
19.295000 -0.108208 0
19.300000 -0.109284 0
19.305000 -0.108641 0
19.310000 -0.107711 0
19.315000 -0.106786 0
19.320000 -0.105866 0
19.325000 -0.104950 0
19.330000 -0.104038 0
19.335000 -0.103130 0
19.340000 -0.102225 0
19.345000 -0.101323 0
19.350000 -0.100420 0
19.355000 -0.099512 0
19.360000 -0.098590 0
19.365000 -0.097641 0
19.370000 -0.096640 0
19.375000 -0.095547 0
19.380000 -0.094301 0
19.385000 -0.092805 0
19.390000 -0.090921 0
19.395000 -0.088453 0
19.400000 -0.085139 0
19.405000 -0.080638 0
19.410000 -0.074537 0
19.415000 -0.066360 0
19.420000 -0.055601 0
19.425000 -0.041769 0
19.430000 -0.024464 0
19.435000 -0.003454 0
19.440000 0.021227 0
19.445000 0.049206 0
19.450000 0.079710 0
19.455000 0.111557 0
19.460000 0.143200 0
19.465000 0.172837 0
19.470000 0.198565 0
19.475000 0.218585 0
19.480000 0.231404 0
19.485000 0.236022 1
19.490000 0.232059 0
19.495000 0.219806 0
19.500000 0.200192 0
19.505000 0.174663 0
19.510000 0.145007 0
19.515000 0.113133 0
19.520000 0.080817 0
19.525000 0.049367 0
19.530000 0.019106 0
19.535000 -0.011346 0
19.540000 -0.045569 0
19.545000 -0.088435 0
19.550000 -0.142482 0
19.555000 -0.202228 0
19.560000 -0.250228 0
19.565000 -0.258941 2
19.570000 -0.197839 0
19.575000 -0.041933 0
19.580000 0.217583 0
19.585000 0.556275 0
19.590000 0.901101 0
19.595000 1.142112 0
19.600000 1.183890 3
19.605000 1.003577 0
19.610000 0.668840 0
19.615000 0.292934 0
19.620000 -0.027511 0
19.625000 -0.241691 0
19.630000 -0.339683 4
19.635000 -0.338862 0
19.640000 -0.273703 0
19.645000 -0.184010 0
19.650000 -0.100693 0
19.655000 -0.037487 0
19.660000 0.006592 0
19.665000 0.038919 0
19.670000 0.066470 0
19.675000 0.093376 0
19.680000 0.121338 0
19.685000 0.150718 0
19.690000 0.181291 0
19.695000 0.212585 0
19.700000 0.244000 0
19.705000 0.274857 0
19.710000 0.304421 0
19.715000 0.331933 0
19.720000 0.356641 0
19.725000 0.377830 0
19.730000 0.394861 0
19.735000 0.407196 0
19.740000 0.414431 0
19.745000 0.416314 5
19.750000 0.412760 0
19.755000 0.403854 0
19.760000 0.389850 0
19.765000 0.371156 0
19.770000 0.348315 0
19.775000 0.321978 0
19.780000 0.292872 0
19.785000 0.261766 0
19.790000 0.229438 0
19.795000 0.196643 0
19.800000 0.164086 0
19.805000 0.132394 0
19.810000 0.102105 0
19.815000 0.073651 0
19.820000 0.047359 0
19.825000 0.023448 0
19.830000 0.002038 0
19.835000 -0.016842 0
19.840000 -0.033240 0
19.845000 -0.047264 0
19.850000 -0.059074 0
19.855000 -0.068858 0
19.860000 -0.076826 0
19.865000 -0.083195 0
19.870000 -0.088180 0
19.875000 -0.091987 0
19.880000 -0.094808 0
19.885000 -0.096813 0
19.890000 -0.098157 0
19.895000 -0.098725 0
19.900000 -0.097844 0
19.905000 -0.096969 0
19.910000 -0.096097 0
19.915000 -0.095230 0
19.920000 -0.094366 0
19.925000 -0.093507 0
19.930000 -0.092651 0
19.935000 -0.091797 0
19.940000 -0.090943 0
19.945000 -0.090086 0
19.950000 -0.089217 0
19.955000 -0.088324 0
19.960000 -0.087385 0
19.965000 -0.086365 0
19.970000 -0.085204 0
19.975000 -0.083815 0
19.980000 -0.082064 0
19.985000 -0.079765 0
19.990000 -0.076661 0
19.995000 -0.072419 0
20.000000 -0.066629 0
20.005000 -0.058812 0
20.010000 -0.048453 0
20.015000 -0.035046 0
20.020000 -0.018167 0
20.025000 0.002444 0
20.030000 0.026782 0
20.035000 0.054497 0
20.040000 0.084833 0
20.045000 0.116608 0
20.050000 0.148263 0
20.055000 0.177964 0
20.060000 0.203769 0
20.065000 0.223838 0
20.070000 0.236640 0
20.075000 0.241154 1
20.080000 0.236997 0
20.085000 0.224480 0
20.090000 0.204568 0
20.095000 0.178756 0
20.100000 0.148880 0
20.105000 0.116889 0
20.110000 0.084574 0
20.115000 0.053208 0
20.120000 0.022991 0
20.125000 -0.007710 0
20.130000 -0.042789 0
20.135000 -0.087177 0
20.140000 -0.142695 0
20.145000 -0.202096 0
20.150000 -0.245662 2
20.155000 -0.244194 0
20.160000 -0.166900 0
20.165000 0.009594 0
20.170000 0.289090 0
20.175000 0.637050 0
20.180000 0.968179 0
20.185000 1.167970 3
20.190000 1.155147 0
20.195000 0.931400 0
20.200000 0.578357 0
20.205000 0.206875 0
20.210000 -0.097071 0
20.215000 -0.292256 0
20.220000 -0.374201 4
20.225000 -0.362730 0
20.230000 -0.292671 0
20.235000 -0.202316 0
20.240000 -0.120202 0
20.245000 -0.058253 0
20.250000 -0.014821 0
20.255000 0.017361 0
20.260000 0.044982 0
20.265000 0.071993 0
20.270000 0.100037 0
20.275000 0.129475 0
20.280000 0.160099 0
20.285000 0.191460 0
20.290000 0.222983 0
20.295000 0.254016 0
20.300000 0.283851 0
20.305000 0.311755 0
20.310000 0.336996 0
20.315000 0.358876 0
20.320000 0.376763 0
20.325000 0.390115 0
20.330000 0.398517 0
20.335000 0.401691 5
20.340000 0.399519 0
20.345000 0.392044 0
20.350000 0.379472 0
20.355000 0.362158 0
20.360000 0.340594 0
20.365000 0.315380 0
20.370000 0.287202 0
20.375000 0.256793 0
20.380000 0.224909 0
20.385000 0.192292 0
20.390000 0.159646 0
20.395000 0.127611 0
20.400000 0.096744 0
20.405000 0.067511 0
20.410000 0.040273 0
20.415000 0.015290 0
20.420000 -0.007276 0
20.425000 -0.027356 0
20.430000 -0.044959 0
20.435000 -0.060162 0
20.440000 -0.073093 0
20.445000 -0.083921 0
20.450000 -0.092840 0
20.455000 -0.100056 0
20.460000 -0.105780 0
20.465000 -0.110219 0
20.470000 -0.113566 0
20.475000 -0.116000 0
20.480000 -0.117684 0
20.485000 -0.118757 0
20.490000 -0.118074 0
20.495000 -0.117098 0
20.500000 -0.116126 0
20.505000 -0.115159 0
20.510000 -0.114196 0
20.515000 -0.113238 0
20.520000 -0.112285 0
20.525000 -0.111335 0
20.530000 -0.110387 0
20.535000 -0.109440 0
20.540000 -0.108488 0
20.545000 -0.107526 0
20.550000 -0.106538 0
20.555000 -0.105505 0
20.560000 -0.104388 0
20.565000 -0.103131 0
20.570000 -0.101646 0
20.575000 -0.099805 0
20.580000 -0.097426 0
20.585000 -0.094262 0
20.590000 -0.089993 0
20.595000 -0.084224 0
20.600000 -0.076496 0
20.605000 -0.066312 0
20.610000 -0.053177 0
20.615000 -0.036669 0
20.620000 -0.016512 0
20.625000 0.007331 0
20.630000 0.034580 0
20.635000 0.064571 0
20.640000 0.096238 0
20.645000 0.128139 0
20.650000 0.158544 0
20.655000 0.185583 0
20.660000 0.207426 0
20.665000 0.222491 0
20.670000 0.229633 1
20.675000 0.228286 0
20.680000 0.218537 0
20.685000 0.201121 0
20.690000 0.177323 0
20.695000 0.148827 0
20.700000 0.117507 0
20.705000 0.085194 0
20.710000 0.053382 0
20.715000 0.022795 0
20.720000 -0.007260 0
20.725000 -0.039553 0
20.730000 -0.078703 0
20.735000 -0.128661 0
20.740000 -0.187604 0
20.745000 -0.242877 0
20.750000 -0.270427 2
20.755000 -0.240219 0
20.760000 -0.124351 0
20.765000 0.093903 0
20.770000 0.406070 0
20.775000 0.760415 0
20.780000 1.059270 0
20.785000 1.194212 3
20.790000 1.106630 0
20.795000 0.827398 0
20.800000 0.455964 0
20.805000 0.100416 0
20.810000 -0.167763 0
20.815000 -0.321564 0
20.820000 -0.366439 4
20.825000 -0.328981 0
20.830000 -0.247219 0
20.835000 -0.157548 0
20.840000 -0.082699 0
20.845000 -0.028672 0
20.850000 0.009359 0
20.855000 0.039017 0
20.860000 0.066019 0
20.865000 0.093298 0
20.870000 0.121869 0
20.875000 0.151798 0
20.880000 0.182751 0
20.885000 0.214210 0
20.890000 0.245559 0
20.895000 0.276111 0
20.900000 0.305136 0
20.905000 0.331891 0
20.910000 0.355647 0
20.915000 0.375726 0
20.920000 0.391527 0
20.925000 0.402559 0
20.930000 0.408466 0
20.935000 0.409042 5
20.940000 0.404245 0
20.945000 0.394199 0
20.950000 0.379188 0
20.955000 0.359641 0
20.960000 0.336114 0
20.965000 0.309259 0
20.970000 0.279797 0
20.975000 0.248486 0
20.980000 0.216085 0
20.985000 0.183327 0
20.990000 0.150891 0
20.995000 0.119381 0
21.000000 0.089311 0
21.005000 0.061095 0
21.010000 0.035040 0
21.015000 0.011354 0
21.020000 -0.009853 0
21.025000 -0.028558 0
21.030000 -0.044811 0
21.035000 -0.058720 0
21.040000 -0.070442 0
21.045000 -0.080162 0
21.050000 -0.088086 0
21.055000 -0.094425 0
21.060000 -0.099391 0
21.065000 -0.103186 0
21.070000 -0.105996 0
21.075000 -0.107991 0
21.080000 -0.109322 0
21.085000 -0.109868 0
21.090000 -0.108932 0
21.095000 -0.108001 0
21.100000 -0.107074 0
21.105000 -0.106152 0
21.110000 -0.105235 0
21.115000 -0.104321 0
21.120000 -0.103411 0
21.125000 -0.102504 0
21.130000 -0.101598 0
21.135000 -0.100689 0
21.140000 -0.099771 0
21.145000 -0.098834 0
21.150000 -0.097857 0
21.155000 -0.096809 0
21.160000 -0.095640 0
21.165000 -0.094271 0
21.170000 -0.092585 0
21.175000 -0.090415 0
21.180000 -0.087530 0
21.185000 -0.083628 0
21.190000 -0.078330 0
21.195000 -0.071186 0
21.200000 -0.061702 0
21.205000 -0.049371 0
21.210000 -0.033741 0
21.215000 -0.014491 0
21.220000 0.008481 0
21.225000 0.034972 0
21.230000 0.064404 0
21.235000 0.095788 0
21.240000 0.127744 0
21.245000 0.158574 0
21.250000 0.186405 0
21.255000 0.209363 0
21.260000 0.225787 0
21.265000 0.234422 0
21.270000 0.234582 1
21.275000 0.226233 0
21.280000 0.210009 0
21.285000 0.187123 0
21.290000 0.159223 0
21.295000 0.128186 0
21.300000 0.095885 0
21.305000 0.063903 0
21.310000 0.033116 0
21.315000 0.003069 0
21.320000 -0.028740 0
21.325000 -0.066813 0
21.330000 -0.115456 0
21.335000 -0.173818 0
21.340000 -0.230496 0
21.345000 -0.262268 2
21.350000 -0.239055 0
21.355000 -0.132102 0
21.360000 0.077003 0
21.365000 0.382651 0
21.370000 0.736680 0
21.375000 1.043331 0
21.380000 1.191947 3
21.385000 1.117017 0
21.390000 0.844459 0
21.395000 0.474226 0
21.400000 0.117660 0
21.405000 -0.151073 0
21.410000 -0.304016 0
21.415000 -0.346937 4
21.420000 -0.307445 0
21.425000 -0.224696 0
21.430000 -0.135557 0
21.435000 -0.062289 0
21.440000 -0.009984 0
21.445000 0.026825 0
21.450000 0.055893 0
21.455000 0.082755 0
21.460000 0.110117 0
21.465000 0.138840 0
21.470000 0.168905 0
21.475000 0.199929 0
21.480000 0.231361 0
21.485000 0.262551 0
21.490000 0.292784 0
21.495000 0.321306 0
21.500000 0.347355 0
21.505000 0.370191 0
21.510000 0.389137 0
21.515000 0.403603 0
21.520000 0.413121 0
21.525000 0.417369 5
21.530000 0.416187 0
21.535000 0.409586 0
21.540000 0.397746 0
21.545000 0.381014 0
21.550000 0.359878 0
21.555000 0.334948 0
21.560000 0.306926 0
21.565000 0.276568 0
21.570000 0.244656 0
21.575000 0.211961 0
21.580000 0.179216 0
21.585000 0.147083 0
21.590000 0.116143 0
21.595000 0.086874 0
21.600000 0.059648 0
21.605000 0.034729 0
21.610000 0.012277 0
21.615000 -0.007642 0
21.620000 -0.025047 0
21.625000 -0.040023 0
21.630000 -0.052712 0
21.635000 -0.063293 0
21.640000 -0.071969 0
21.645000 -0.078957 0
21.650000 -0.084474 0
21.655000 -0.088731 0
21.660000 -0.091926 0
21.665000 -0.094240 0
21.670000 -0.095833 0
21.675000 -0.096574 0
21.680000 -0.095704 0
21.685000 -0.094839 0
21.690000 -0.093978 0
21.695000 -0.093121 0
21.700000 -0.092269 0
21.705000 -0.091420 0
21.710000 -0.090575 0
21.715000 -0.089732 0
21.720000 -0.088890 0
21.725000 -0.088047 0
21.730000 -0.087195 0
21.735000 -0.086324 0
21.740000 -0.085418 0
21.745000 -0.084444 0
21.750000 -0.083353 0
21.755000 -0.082070 0
21.760000 -0.080478 0
21.765000 -0.078410 0
21.770000 -0.075636 0
21.775000 -0.071849 0
21.780000 -0.066663 0
21.785000 -0.059621 0
21.790000 -0.050213 0
21.795000 -0.037922 0
21.800000 -0.022283 0
21.805000 -0.002972 0
21.810000 0.020110 0
21.815000 0.046738 0
21.820000 0.076294 0
21.825000 0.107735 0
21.830000 0.139614 0
21.835000 0.170166 0
21.840000 0.197458 0
21.845000 0.219585 0
21.850000 0.234886 0
21.855000 0.242152 1
21.860000 0.240781 0
21.865000 0.230860 0
21.870000 0.213157 0
21.875000 0.189021 0
21.880000 0.160208 0
21.885000 0.128667 0
21.890000 0.096275 0
21.895000 0.064521 0
21.900000 0.034014 0
21.905000 0.003763 0
21.910000 -0.029465 0
21.915000 -0.070596 0
21.920000 -0.123008 0
21.925000 -0.182751 0
21.930000 -0.233790 0
21.935000 -0.248966 2
21.940000 -0.196931 0
21.945000 -0.051033 0
21.950000 0.199970 0
21.955000 0.534660 0
21.960000 0.881929 0
21.965000 1.130411 0
21.970000 1.180260 3
21.975000 1.007438 0
21.980000 0.678438 0
21.985000 0.301697 0
21.990000 -0.027016 0
21.995000 -0.254527 0
22.000000 -0.367537 0
22.005000 -0.379871 4
22.010000 -0.322808 0
22.015000 -0.234784 0
22.020000 -0.148147 0
22.025000 -0.079761 0
22.030000 -0.031302 0
22.035000 0.003568 0
22.040000 0.032080 0
22.045000 0.059039 0
22.050000 0.086690 0
22.055000 0.115701 0
22.060000 0.145997 0
22.065000 0.177191 0
22.070000 0.208748 0
22.075000 0.240042 0
22.080000 0.270387 0
22.085000 0.299060 0
22.090000 0.325330 0
22.095000 0.348490 0
22.100000 0.367885 0
22.105000 0.382942 0
22.110000 0.393201 0
22.115000 0.398335 5
22.120000 0.398167 0
22.125000 0.392679 0
22.130000 0.382017 0
22.135000 0.366478 0
22.140000 0.346503 0
22.145000 0.322648 0
22.150000 0.295565 0
22.155000 0.265966 0
22.160000 0.234598 0
22.165000 0.202206 0
22.170000 0.169507 0
22.175000 0.137166 0
22.180000 0.105770 0
22.185000 0.075822 0
22.190000 0.047723 0
22.195000 0.021775 0
22.200000 -0.001823 0
22.205000 -0.022963 0
22.210000 -0.041621 0
22.215000 -0.057846 0
22.220000 -0.071746 0
22.225000 -0.083471 0
22.230000 -0.093205 0
22.235000 -0.101148 0
22.240000 -0.107508 0
22.245000 -0.112495 0
22.250000 -0.116305 0
22.255000 -0.119126 0
22.260000 -0.121125 0
22.265000 -0.122452 0
22.270000 -0.122977 0
22.275000 -0.121975 0
22.280000 -0.120979 0
22.285000 -0.119988 0
22.290000 -0.119001 0
22.295000 -0.118020 0
22.300000 -0.117043 0
22.305000 -0.116069 0
22.310000 -0.115100 0
22.315000 -0.114131 0
22.320000 -0.113162 0
22.325000 -0.112186 0
22.330000 -0.111193 0
22.335000 -0.110166 0
22.340000 -0.109079 0
22.345000 -0.107885 0
22.350000 -0.106515 0
22.355000 -0.104866 0
22.360000 -0.102787 0
22.365000 -0.100068 0
22.370000 -0.096434 0
22.375000 -0.091532 0
22.380000 -0.084940 0
22.385000 -0.076182 0
22.390000 -0.064759 0
22.395000 -0.050201 0
22.400000 -0.032141 0
22.405000 -0.010397 0
22.410000 0.014946 0
22.415000 0.043454 0
22.420000 0.074303 0
22.425000 0.106275 0
22.430000 0.137806 0
22.435000 0.167103 0
22.440000 0.192301 0
22.445000 0.211657 0
22.450000 0.223752 0
22.455000 0.227657 1
22.460000 0.223059 0
22.465000 0.210296 0
22.470000 0.190319 0
22.475000 0.164574 0
22.480000 0.134830 0
22.485000 0.102960 0
22.490000 0.070698 0
22.495000 0.039313 0
22.500000 0.009106 0
22.505000 -0.021285 0
22.510000 -0.055366 0
22.515000 -0.097927 0
22.520000 -0.151586 0
22.525000 -0.211312 0
22.530000 -0.260482 0
22.535000 -0.272418 2
22.540000 -0.217080 0
22.545000 -0.069259 0
22.550000 0.181503 0
22.555000 0.514929 0
22.560000 0.864115 0
22.565000 1.123100 0
22.570000 1.193078 3
22.575000 1.040726 0
22.580000 0.721101 0
22.585000 0.344221 0
22.590000 0.011041 0
22.595000 -0.221067 0
22.600000 -0.336961 0
22.605000 -0.350294 4
22.610000 -0.293132 0
22.615000 -0.205029 0
22.620000 -0.119016 0
22.625000 -0.051843 0
22.630000 -0.004639 0
22.635000 0.029355 0
22.640000 0.057444 0
22.645000 0.084299 0
22.650000 0.111999 0
22.655000 0.141102 0
22.660000 0.171467 0
22.665000 0.202664 0
22.670000 0.234123 0
22.675000 0.265186 0
22.680000 0.295135 0
22.685000 0.323222 0
22.690000 0.348696 0
22.695000 0.370838 0
22.700000 0.388992 0
22.705000 0.402599 0
22.710000 0.411221 0
22.715000 0.414567 5
22.720000 0.412507 0
22.725000 0.405080 0
22.730000 0.392493 0
22.735000 0.375107 0
22.740000 0.353426 0
22.745000 0.328065 0
22.750000 0.299726 0
22.755000 0.269161 0
22.760000 0.237143 0
22.765000 0.204430 0
22.770000 0.171738 0
22.775000 0.139714 0
22.780000 0.108923 0
22.785000 0.079828 0
22.790000 0.052787 0
22.795000 0.028054 0
22.800000 0.005779 0
22.805000 -0.013978 0
22.810000 -0.031239 0
22.815000 -0.046092 0
22.820000 -0.058678 0
22.825000 -0.069176 0
22.830000 -0.077786 0
22.835000 -0.084722 0
22.840000 -0.090199 0
22.845000 -0.094426 0
22.850000 -0.097597 0
22.855000 -0.099892 0
22.860000 -0.101468 0
22.865000 -0.102466 0
22.870000 -0.101841 0
22.875000 -0.100945 0
22.880000 -0.100053 0
22.885000 -0.099166 0
22.890000 -0.098284 0
22.895000 -0.097405 0
22.900000 -0.096530 0
22.905000 -0.095658 0
22.910000 -0.094787 0
22.915000 -0.093914 0
22.920000 -0.093035 0
22.925000 -0.092138 0
22.930000 -0.091208 0
22.935000 -0.090216 0
22.940000 -0.089115 0
22.945000 -0.087834 0
22.950000 -0.086264 0
22.955000 -0.084249 0
22.960000 -0.081569 0
22.965000 -0.077934 0
22.970000 -0.072975 0
22.975000 -0.066251 0
22.980000 -0.057266 0
22.985000 -0.045505 0
22.990000 -0.030496 0
22.995000 -0.011885 0
23.000000 0.010475 0
23.005000 0.036432 0
23.010000 0.065461 0
23.015000 0.096621 0
23.020000 0.128566 0
23.025000 0.159615 0
23.030000 0.187880 0
23.035000 0.211456 0
23.040000 0.228624 0
23.045000 0.238062 0
23.050000 0.239010 1
23.055000 0.231372 0
23.060000 0.215729 0
23.065000 0.193269 0
23.070000 0.165633 0
23.075000 0.134713 0
23.080000 0.102414 0
23.085000 0.070363 0
23.090000 0.039497 0
23.095000 0.009425 0
23.100000 -0.022302 0
23.105000 -0.060197 0
23.110000 -0.108668 0
23.115000 -0.166987 0
23.120000 -0.223739 0
23.125000 -0.255463 2
23.130000 -0.231703 0
23.135000 -0.123391 0
23.140000 0.087865 0
23.145000 0.395651 0
23.150000 0.749804 0
23.155000 1.052110 0
23.160000 1.191237 3
23.165000 1.106596 0
23.170000 0.828712 0
23.175000 0.457473 0
23.180000 0.101944 0
23.185000 -0.165769 0
23.190000 -0.318576 0
23.195000 -0.362193 4
23.200000 -0.323650 0
23.205000 -0.241392 0
23.210000 -0.151921 0
23.215000 -0.077714 0
23.220000 -0.024377 0
23.225000 0.013174 0
23.230000 0.042607 0
23.235000 0.069565 0
23.240000 0.096888 0
23.245000 0.125530 0
23.250000 0.155525 0
23.255000 0.186519 0
23.260000 0.217984 0
23.265000 0.249290 0
23.270000 0.279742 0
23.275000 0.308601 0
23.280000 0.335117 0
23.285000 0.358558 0
23.290000 0.378245 0
23.295000 0.393583 0
23.300000 0.404088 0
23.305000 0.409416 5
23.310000 0.409377 0
23.315000 0.403948 0
23.320000 0.393273 0
23.325000 0.377656 0
23.330000 0.357550 0
23.335000 0.333527 0
23.340000 0.306258 0
23.345000 0.276477 0
23.350000 0.244950 0
23.355000 0.212441 0
23.360000 0.179683 0
23.365000 0.147350 0
23.370000 0.116038 0
23.375000 0.086249 0
23.380000 0.058381 0
23.385000 0.032728 0
23.390000 0.009481 0
23.395000 -0.011267 0
23.400000 -0.029506 0
23.405000 -0.045299 0
23.410000 -0.058767 0
23.415000 -0.070075 0
23.420000 -0.079413 0
23.425000 -0.086992 0
23.430000 -0.093027 0
23.435000 -0.097728 0
23.440000 -0.101296 0
23.445000 -0.103916 0
23.450000 -0.105755 0
23.455000 -0.106959 0
23.460000 -0.106346 0
23.465000 -0.105427 0
23.470000 -0.104514 0
23.475000 -0.103604 0
23.480000 -0.102699 0
23.485000 -0.101799 0
23.490000 -0.100902 0
23.495000 -0.100009 0
23.500000 -0.099118 0
23.505000 -0.098227 0
23.510000 -0.097332 0
23.515000 -0.096426 0
23.520000 -0.095494 0
23.525000 -0.094515 0
23.530000 -0.093452 0
23.535000 -0.092246 0
23.540000 -0.090806 0
23.545000 -0.089001 0
23.550000 -0.086643 0
23.555000 -0.083476 0
23.560000 -0.079170 0
23.565000 -0.073318 0
23.570000 -0.065447 0
23.575000 -0.055049 0
23.580000 -0.041624 0
23.585000 -0.024752 0
23.590000 -0.004178 0
23.595000 0.020101 0
23.600000 0.047750 0
23.605000 0.078033 0
23.610000 0.109803 0
23.615000 0.141534 0
23.620000 0.171427 0
23.625000 0.197569 0
23.630000 0.218128 0
23.635000 0.231567 0
23.640000 0.236833 1
23.645000 0.233492 0
23.650000 0.221788 0
23.655000 0.202614 0
23.660000 0.177398 0
23.665000 0.147925 0
23.670000 0.116119 0
23.675000 0.083782 0
23.680000 0.052266 0
23.685000 0.021959 0
23.690000 -0.008440 0
23.695000 -0.042454 0
23.700000 -0.084983 0
23.705000 -0.138742 0
23.710000 -0.198512 0
23.715000 -0.247028 0
23.720000 -0.256706 2
23.725000 -0.196776 0
23.730000 -0.041931 0
23.735000 0.216927 0
23.740000 0.555450 0
23.745000 0.900206 0
23.750000 1.140465 0
23.755000 1.180380 3
23.760000 0.999366 0
23.765000 0.665419 0
23.770000 0.289207 0
23.775000 -0.034079 0
23.780000 -0.253364 0
23.785000 -0.357536 0
23.790000 -0.362372 4
23.795000 -0.300743 0
23.800000 -0.211662 0
23.805000 -0.126625 0
23.810000 -0.060838 0
23.815000 -0.014598 0
23.820000 0.018972 0
23.825000 0.046981 0
23.830000 0.073899 0
23.835000 0.101696 0
23.840000 0.130888 0
23.845000 0.161325 0
23.850000 0.192580 0
23.855000 0.224090 0
23.860000 0.255206 0
23.865000 0.285221 0
23.870000 0.313397 0
23.875000 0.338995 0
23.880000 0.361304 0
23.885000 0.379676 0
23.890000 0.393554 0
23.895000 0.402501 0
23.900000 0.406222 5
23.905000 0.404580 0
23.910000 0.397600 0
23.915000 0.385475 0
23.920000 0.368549 0
23.925000 0.347306 0
23.930000 0.322344 0
23.935000 0.294346 0
23.940000 0.264052 0
23.945000 0.232221 0
23.950000 0.199604 0
23.955000 0.166914 0
23.960000 0.134801 0
23.965000 0.103833 0
23.970000 0.074484 0
23.975000 0.047123 0
23.980000 0.022018 0
23.985000 -0.000666 0
23.990000 -0.020854 0
23.995000 -0.038554 0
24.000000 -0.053841 0
24.005000 -0.066844 0
24.010000 -0.077732 0
24.015000 -0.086700 0
24.020000 -0.093956 0
24.025000 -0.099714 0
24.030000 -0.104180 0
24.035000 -0.107551 0
24.040000 -0.110007 0
24.045000 -0.111711 0
24.050000 -0.112804 0
24.055000 -0.112149 0
24.060000 -0.111202 0
24.065000 -0.110259 0
24.070000 -0.109321 0
24.075000 -0.108388 0
24.080000 -0.107459 0
24.085000 -0.106534 0
24.090000 -0.105613 0
24.095000 -0.104694 0
24.100000 -0.103774 0
24.105000 -0.102851 0
24.110000 -0.101914 0
24.115000 -0.100952 0
24.120000 -0.099941 0
24.125000 -0.098842 0
24.130000 -0.097597 0
24.135000 -0.096113 0
24.140000 -0.094256 0
24.145000 -0.091838 0
24.150000 -0.088602 0
24.155000 -0.084218 0
24.160000 -0.078280 0
24.165000 -0.070319 0
24.170000 -0.059830 0
24.175000 -0.046321 0
24.180000 -0.029379 0
24.185000 -0.008753 0
24.190000 0.015558 0
24.195000 0.043221 0
24.200000 0.073509 0
24.205000 0.105289 0
24.210000 0.137057 0
24.215000 0.167035 0
24.220000 0.193331 0
24.225000 0.214126 0
24.230000 0.227886 0
24.235000 0.233547 1
24.240000 0.230651 0
24.245000 0.219406 0
24.250000 0.200662 0
24.255000 0.175806 0
24.260000 0.146588 0
24.265000 0.114910 0
24.270000 0.082576 0
24.275000 0.050975 0
24.280000 0.020601 0
24.285000 -0.009649 0
24.290000 -0.043050 0
24.295000 -0.084428 0
24.300000 -0.136964 0
24.305000 -0.196660 0
24.310000 -0.247877 0
24.315000 -0.264255 2
24.320000 -0.215265 0
24.325000 -0.074614 0
24.330000 0.169802 0
24.335000 0.499890 0
24.340000 0.850448 0
24.345000 1.115039 0
24.350000 1.191920 3
24.355000 1.045264 0
24.360000 0.729246 0
24.365000 0.352452 0
24.370000 0.016239 0
24.375000 -0.220651 0
24.380000 -0.341711 0
24.385000 -0.359443 4
24.390000 -0.305000 0
24.395000 -0.217604 0
24.400000 -0.130761 0
24.405000 -0.062169 0
24.410000 -0.013743 0
24.415000 0.020965 0
24.420000 0.049330 0
24.425000 0.076207 0
24.430000 0.103831 0
24.435000 0.132839 0
24.440000 0.163132 0
24.445000 0.194301 0
24.450000 0.225789 0
24.455000 0.256950 0
24.460000 0.287077 0
24.465000 0.315429 0
24.470000 0.341260 0
24.475000 0.363851 0
24.480000 0.382542 0
24.485000 0.396764 0
24.490000 0.406067 0
24.495000 0.410143 5
24.500000 0.408840 0
24.505000 0.402175 0
24.510000 0.390330 0
24.515000 0.373644 0
24.520000 0.352595 0
24.525000 0.327781 0
24.530000 0.299887 0
24.535000 0.269653 0
24.540000 0.237846 0
24.545000 0.205223 0
24.550000 0.172502 0
24.555000 0.140341 0
24.560000 0.109315 0
24.565000 0.079902 0
24.570000 0.052478 0
24.575000 0.027314 0
24.580000 0.004577 0
24.585000 -0.015656 0
24.590000 -0.033392 0
24.595000 -0.048706 0
24.600000 -0.061729 0
24.605000 -0.072630 0
24.610000 -0.081606 0
24.615000 -0.088868 0
24.620000 -0.094628 0
24.625000 -0.099096 0
24.630000 -0.102470 0
24.635000 -0.104929 0
24.640000 -0.106638 0
24.645000 -0.107738 0
24.650000 -0.107105 0
24.655000 -0.106183 0
24.660000 -0.105266 0
24.665000 -0.104353 0
24.670000 -0.103444 0
24.675000 -0.102540 0
24.680000 -0.101639 0
24.685000 -0.100742 0
24.690000 -0.099847 0
24.695000 -0.098952 0
24.700000 -0.098051 0
24.705000 -0.097137 0
24.710000 -0.096195 0
24.715000 -0.095202 0
24.720000 -0.094116 0
24.725000 -0.092877 0
24.730000 -0.091387 0
24.735000 -0.089508 0
24.740000 -0.087044 0
24.745000 -0.083728 0
24.750000 -0.079220 0
24.755000 -0.073104 0
24.760000 -0.064901 0
24.765000 -0.054104 0
24.770000 -0.040220 0
24.775000 -0.022849 0
24.780000 -0.001765 0
24.785000 0.022994 0
24.790000 0.051043 0
24.795000 0.081596 0
24.800000 0.113455 0
24.805000 0.145060 0
24.810000 0.174592 0
24.815000 0.200145 0
24.820000 0.219918 0
24.825000 0.232428 0
24.830000 0.236694 1
24.835000 0.232361 0
24.840000 0.219751 0
24.845000 0.199820 0
24.850000 0.174043 0
24.855000 0.144225 0
24.860000 0.112282 0
24.865000 0.079982 0
24.870000 0.048598 0
24.875000 0.018378 0
24.880000 -0.012184 0
24.885000 -0.046809 0
24.890000 -0.090379 0
24.895000 -0.145098 0
24.900000 -0.204741 0
24.905000 -0.250970 0
24.910000 -0.255661 2
24.915000 -0.188283 0
24.920000 -0.024529 0
24.925000 0.242582 0
24.930000 0.585101 0
24.935000 0.925781 0
24.940000 1.153083 0
24.945000 1.175473 3
24.950000 0.979341 0
24.955000 0.637839 0
24.960000 0.262924 0
24.965000 -0.052847 0
24.970000 -0.262003 0
24.975000 -0.356233 4
24.980000 -0.353319 0
24.985000 -0.287414 0
24.990000 -0.197591 0
24.995000 -0.114135 0
25.000000 -0.050586 0
25.005000 -0.006098 0
25.010000 0.026534 0
25.015000 0.054232 0
25.020000 0.081167 0
25.025000 0.109100 0
25.030000 0.138437 0
25.035000 0.168982 0
25.040000 0.200283 0
25.045000 0.231762 0
25.050000 0.262757 0
25.055000 0.292551 0
25.060000 0.320402 0
25.065000 0.345567 0
25.070000 0.367339 0
25.075000 0.385077 0
25.080000 0.398238 0
25.085000 0.406401 0
25.090000 0.409293 5
25.095000 0.406800 0
25.100000 0.398975 0
25.105000 0.386036 0
25.110000 0.368353 0
25.115000 0.346432 0
25.120000 0.320892 0
25.125000 0.292431 0
25.130000 0.261798 0
25.135000 0.229758 0
25.140000 0.197060 0
25.145000 0.164413 0
25.150000 0.132454 0
25.155000 0.101740 0
25.160000 0.072726 0
25.165000 0.045765 0
25.170000 0.021105 0
25.175000 -0.001105 0
25.180000 -0.020809 0
25.185000 -0.038028 0
25.190000 -0.052850 0
25.195000 -0.065414 0
25.200000 -0.075898 0
25.205000 -0.084500 0
25.210000 -0.091432 0
25.215000 -0.096907 0
25.220000 -0.101132 0
25.225000 -0.104301 0
25.230000 -0.106591 0
25.235000 -0.108161 0
25.240000 -0.109149 0
25.245000 -0.108494 0
25.250000 -0.107565 0
25.255000 -0.106641 0
25.260000 -0.105721 0
25.265000 -0.104805 0
25.270000 -0.103894 0
25.275000 -0.102987 0
25.280000 -0.102083 0
25.285000 -0.101180 0
25.290000 -0.100277 0
25.295000 -0.099367 0
25.300000 -0.098442 0
25.305000 -0.097485 0
25.310000 -0.096470 0
25.315000 -0.095355 0
25.320000 -0.094069 0
25.325000 -0.092513 0
25.330000 -0.090535 0
25.335000 -0.087928 0
25.340000 -0.084415 0
25.345000 -0.079639 0
25.350000 -0.073174 0
25.355000 -0.064533 0
25.360000 -0.053207 0
25.365000 -0.038717 0
25.370000 -0.020686 0
25.375000 0.001070 0
25.380000 0.026457 0
25.385000 0.055023 0
25.390000 0.085909 0
25.395000 0.117851 0
25.400000 0.149237 0
25.405000 0.178222 0
25.410000 0.202906 0
25.415000 0.221532 0
25.420000 0.232693 0
25.425000 0.235509 1
25.430000 0.229739 0
25.435000 0.215817 0
25.440000 0.194797 0
25.445000 0.168219 0
25.450000 0.137921 0
25.455000 0.105811 0
25.460000 0.073599 0
25.465000 0.042432 0
25.470000 0.012322 0
25.475000 -0.018584 0
25.480000 -0.054325 0
25.485000 -0.099680 0
25.490000 -0.155894 0
25.495000 -0.214940 0
25.500000 -0.256625 2
25.505000 -0.251926 0
25.510000 -0.170758 0
25.515000 0.009313 0
25.520000 0.291123 0
25.525000 0.639663 0
25.530000 0.970463 0
25.535000 1.170965 3
25.540000 1.158256 0
25.545000 0.932567 0
25.550000 0.577949 0
25.555000 0.207633 0
25.560000 -0.091903 0
25.565000 -0.280463 0
25.570000 -0.355164 4
25.575000 -0.337634 0
25.580000 -0.264272 0
25.585000 -0.173831 0
25.590000 -0.093871 0
25.595000 -0.034668 0
25.600000 0.006645 0
25.605000 0.037693 0
25.610000 0.064943 0
25.615000 0.091990 0
25.620000 0.120217 0
25.625000 0.149845 0
25.630000 0.180596 0
25.635000 0.211977 0
25.640000 0.243380 0
25.645000 0.274122 0
25.650000 0.303470 0
25.655000 0.330670 0
25.660000 0.354979 0
25.665000 0.375699 0
25.670000 0.392206 0
25.675000 0.403982 0
25.680000 0.410645 0
25.685000 0.411962 5
25.690000 0.407866 0
25.695000 0.398462 0
25.700000 0.384016 0
25.705000 0.364946 0
25.710000 0.341802 0
25.715000 0.315235 0
25.720000 0.285971 0
25.725000 0.254775 0
25.730000 0.222416 0
25.735000 0.189641 0
25.740000 0.157143 0
25.745000 0.125539 0
25.750000 0.095357 0
25.755000 0.067020 0
25.760000 0.040847 0
25.765000 0.017051 0
25.770000 -0.004253 0
25.775000 -0.023039 0
25.780000 -0.039355 0
25.785000 -0.053311 0
25.790000 -0.065064 0
25.795000 -0.074803 0
25.800000 -0.082736 0
25.805000 -0.089077 0
25.810000 -0.094040 0
25.815000 -0.097829 0
25.820000 -0.100634 0
25.825000 -0.102624 0
25.830000 -0.103953 0
25.835000 -0.104503 0
25.840000 -0.103594 0
25.845000 -0.102689 0
25.850000 -0.101789 0
25.855000 -0.100893 0
25.860000 -0.100002 0
25.865000 -0.099115 0
25.870000 -0.098231 0
25.875000 -0.097349 0
25.880000 -0.096468 0
25.885000 -0.095583 0
25.890000 -0.094689 0
25.895000 -0.093772 0
25.900000 -0.092812 0
25.905000 -0.091774 0
25.910000 -0.090604 0
25.915000 -0.089217 0
25.920000 -0.087486 0
25.925000 -0.085233 0
25.930000 -0.082211 0
25.935000 -0.078101 0
25.940000 -0.072503 0
25.945000 -0.064951 0
25.950000 -0.054937 0
25.955000 -0.041955 0
25.960000 -0.025567 0
25.965000 -0.005489 0
25.970000 0.018319 0
25.975000 0.045568 0
25.980000 0.075573 0
25.985000 0.107229 0
25.990000 0.139049 0
25.995000 0.169249 0
26.000000 0.195913 0
26.005000 0.217179 0
26.010000 0.231462 0
26.015000 0.237641 1
26.020000 0.235209 0
26.025000 0.224338 0
26.030000 0.205862 0
26.035000 0.181166 0
26.040000 0.152019 0
26.045000 0.120348 0
26.050000 0.087988 0
26.055000 0.056356 0
26.060000 0.025956 0
26.065000 -0.004336 0
26.070000 -0.037868 0
26.075000 -0.079541 0
26.080000 -0.132460 0
26.085000 -0.192225 0
26.090000 -0.242462 0
26.095000 -0.256045 2
26.100000 -0.202016 0
26.105000 -0.054270 0
26.110000 0.197921 0
26.115000 0.532952 0
26.120000 0.880337 0
26.125000 1.130051 0
26.130000 1.183056 3
26.135000 1.013772 0
26.140000 0.686356 0
26.145000 0.309553 0
26.150000 -0.019964 0
26.155000 -0.248295 0
26.160000 -0.361826 0
26.165000 -0.374350 4
26.170000 -0.317280 0
26.175000 -0.229246 0
26.180000 -0.142715 0
26.185000 -0.074537 0
26.190000 -0.026298 0
26.195000 0.008417 0
26.200000 0.036851 0
26.205000 0.063788 0
26.210000 0.091445 0
26.215000 0.120470 0
26.220000 0.150777 0
26.225000 0.181971 0
26.230000 0.213511 0
26.235000 0.244765 0
26.240000 0.275042 0
26.245000 0.303614 0
26.250000 0.329748 0
26.255000 0.352734 0
26.260000 0.371916 0
26.265000 0.386723 0
26.270000 0.396700 0
26.275000 0.401524 5
26.280000 0.401026 0
26.285000 0.395200 0
26.290000 0.384200 0
26.295000 0.368336 0
26.300000 0.348057 0
26.305000 0.323932 0
26.310000 0.296620 0
26.315000 0.266842 0
26.320000 0.235349 0
26.325000 0.202888 0
26.330000 0.170178 0
26.335000 0.137879 0
26.340000 0.106577 0
26.345000 0.076768 0
26.350000 0.048844 0
26.355000 0.023101 0
26.360000 -0.000272 0
26.365000 -0.021173 0
26.370000 -0.039589 0
26.375000 -0.055575 0
26.380000 -0.069244 0
26.385000 -0.080752 0
26.390000 -0.090286 0
26.395000 -0.098049 0
26.400000 -0.104251 0
26.405000 -0.109100 0
26.410000 -0.112795 0
26.415000 -0.115519 0
26.420000 -0.117440 0
26.425000 -0.118706 0
26.430000 -0.119195 0
26.435000 -0.118212 0
26.440000 -0.117235 0
26.445000 -0.116262 0
26.450000 -0.115294 0
26.455000 -0.114331 0
26.460000 -0.113372 0
26.465000 -0.112417 0
26.470000 -0.111465 0
26.475000 -0.110515 0
26.480000 -0.109562 0
26.485000 -0.108600 0
26.490000 -0.107620 0
26.495000 -0.106603 0
26.500000 -0.105517 0
26.505000 -0.104315 0
26.510000 -0.102921 0
26.515000 -0.101222 0
26.520000 -0.099059 0
26.525000 -0.096208 0
26.530000 -0.092377 0
26.535000 -0.087200 0
26.540000 -0.080240 0
26.545000 -0.071008 0
26.550000 -0.059006 0
26.555000 -0.043776 0
26.560000 -0.024979 0
26.565000 -0.002480 0
26.570000 0.023566 0
26.575000 0.052644 0
26.580000 0.083839 0
26.585000 0.115845 0
26.590000 0.147028 0
26.595000 0.175553 0
26.600000 0.199557 0
26.605000 0.217343 0
26.610000 0.227585 0
26.615000 0.229485 1
26.620000 0.222880 0
26.625000 0.208264 0
26.630000 0.186727 0
26.635000 0.159817 0
26.640000 0.129360 0
26.645000 0.097229 0
26.650000 0.065085 0
26.655000 0.034014 0
26.660000 0.003960 0
26.665000 -0.026987 0
26.670000 -0.062861 0
26.675000 -0.108352 0
26.680000 -0.164598 0
26.685000 -0.223614 0
26.690000 -0.265519 2
26.695000 -0.261771 0
26.700000 -0.182692 0
26.705000 -0.005894 0
26.710000 0.272310 0
26.715000 0.619293 0
26.720000 0.954038 0
26.725000 1.165891 0
26.730000 1.169724 3
26.735000 0.958778 0
26.740000 0.610058 0
26.745000 0.237370 0
26.750000 -0.069209 0
26.755000 -0.266027 0
26.760000 -0.348017 4
26.765000 -0.335551 0
26.770000 -0.264548 0
26.775000 -0.174224 0
26.780000 -0.093233 0
26.785000 -0.032881 0
26.790000 0.009186 0
26.795000 0.040559 0
26.800000 0.067868 0
26.805000 0.094860 0
26.810000 0.123004 0
26.815000 0.152557 0
26.820000 0.183253 0
26.825000 0.214602 0
26.830000 0.245997 0
26.835000 0.276753 0
26.840000 0.306135 0
26.845000 0.333387 0
26.850000 0.357761 0
26.855000 0.378554 0
26.860000 0.395136 0
26.865000 0.406986 0
26.870000 0.413715 0
26.875000 0.415088 5
26.880000 0.411036 0
26.885000 0.401661 0
26.890000 0.387229 0
26.895000 0.368160 0
26.900000 0.345006 0
26.905000 0.318420 0
26.910000 0.289133 0
26.915000 0.257911 0
26.920000 0.225529 0
26.925000 0.192737 0
26.930000 0.160229 0
26.935000 0.128625 0
26.940000 0.098454 0
26.945000 0.070139 0
26.950000 0.043998 0
26.955000 0.020244 0
26.960000 -0.001011 0
26.965000 -0.019742 0
26.970000 -0.036000 0
26.975000 -0.049898 0
26.980000 -0.061594 0
26.985000 -0.071278 0
26.990000 -0.079161 0
26.995000 -0.085457 0
27.000000 -0.090381 0
27.005000 -0.094138 0
27.010000 -0.096916 0
27.015000 -0.098887 0
27.020000 -0.100202 0
27.025000 -0.100748 0
27.030000 -0.099858 0
27.035000 -0.098972 0
27.040000 -0.098090 0
27.045000 -0.097213 0
27.050000 -0.096340 0
27.055000 -0.095471 0
27.060000 -0.094605 0
27.065000 -0.093741 0
27.070000 -0.092877 0
27.075000 -0.092010 0
27.080000 -0.091132 0
27.085000 -0.090229 0
27.090000 -0.089281 0
27.095000 -0.088251 0
27.100000 -0.087082 0
27.105000 -0.085685 0
27.110000 -0.083929 0
27.115000 -0.081627 0
27.120000 -0.078527 0
27.125000 -0.074296 0
27.130000 -0.068528 0
27.135000 -0.060747 0
27.140000 -0.050440 0
27.145000 -0.037103 0
27.150000 -0.020310 0
27.155000 0.000202 0
27.160000 0.024437 0
27.165000 0.052059 0
27.170000 0.082328 0
27.175000 0.114083 0
27.180000 0.145783 0
27.185000 0.175609 0
27.190000 0.201631 0
27.195000 0.222005 0
27.200000 0.235190 0
27.205000 0.240141 1
27.210000 0.236443 0
27.215000 0.224369 0
27.220000 0.204847 0
27.225000 0.179339 0
27.230000 0.149662 0
27.235000 0.117755 0
27.240000 0.085420 0
27.245000 0.053974 0
27.250000 0.023711 0
27.255000 -0.006842 0
27.260000 -0.041412 0
27.265000 -0.084938 0
27.270000 -0.139680 0
27.275000 -0.199328 0
27.280000 -0.245239 0
27.285000 -0.248862 2
27.290000 -0.179326 0
27.295000 -0.012310 0
27.300000 0.258417 0
27.305000 0.602805 0
27.310000 0.940477 0
27.315000 1.158021 0
27.320000 1.166003 3
27.325000 0.956977 0
27.330000 0.609633 0
27.335000 0.236285 0
27.340000 -0.073187 0
27.345000 -0.274364 0
27.350000 -0.361102 4
27.355000 -0.352608 0
27.360000 -0.283806 0
27.365000 -0.193609 0
27.370000 -0.111290 0
27.375000 -0.049212 0
27.380000 -0.005803 0
27.385000 0.026294 0
27.390000 0.053847 0
27.395000 0.080828 0
27.400000 0.108869 0
27.405000 0.138314 0
27.410000 0.168941 0
27.415000 0.200287 0
27.420000 0.231765 0
27.425000 0.262709 0
27.430000 0.292399 0
27.435000 0.320091 0
27.440000 0.345043 0
27.445000 0.366552 0
27.450000 0.383982 0
27.455000 0.396799 0
27.460000 0.404591 0
27.465000 0.407097 5
27.470000 0.404215 0
27.475000 0.396011 0
27.480000 0.382713 0
27.485000 0.364703 0
27.490000 0.342499 0
27.495000 0.316723 0
27.500000 0.288082 0
27.505000 0.257326 0
27.510000 0.225220 0
27.515000 0.192512 0
27.520000 0.159905 0
27.525000 0.128034 0
27.530000 0.097446 0
27.535000 0.068589 0
27.540000 0.041809 0
27.545000 0.017346 0
27.550000 -0.004660 0
27.555000 -0.024158 0
27.560000 -0.041175 0
27.565000 -0.055805 0
27.570000 -0.068189 0
27.575000 -0.078506 0
27.580000 -0.086958 0
27.585000 -0.093757 0
27.590000 -0.099116 0
27.595000 -0.103240 0
27.600000 -0.106323 0
27.605000 -0.108541 0
27.610000 -0.110050 0
27.615000 -0.110715 0
27.620000 -0.109775 0
27.625000 -0.108839 0
27.630000 -0.107908 0
27.635000 -0.106982 0
27.640000 -0.106061 0
27.645000 -0.105143 0
27.650000 -0.104229 0
27.655000 -0.103319 0
27.660000 -0.102410 0
27.665000 -0.101499 0
27.670000 -0.100582 0
27.675000 -0.099649 0
27.680000 -0.098682 0
27.685000 -0.097654 0
27.690000 -0.096521 0
27.695000 -0.095211 0
27.700000 -0.093619 0
27.705000 -0.091590 0
27.710000 -0.088912 0
27.715000 -0.085299 0
27.720000 -0.080390 0
27.725000 -0.073751 0
27.730000 -0.064892 0
27.735000 -0.053303 0
27.740000 -0.038512 0
27.745000 -0.020155 0
27.750000 0.001933 0
27.755000 0.027628 0
27.760000 0.056444 0
27.765000 0.087486 0
27.770000 0.119454 0
27.775000 0.150710 0
27.780000 0.179396 0
27.785000 0.203615 0
27.790000 0.221631 0
27.795000 0.232079 0
27.800000 0.234130 1
27.805000 0.227606 0
27.810000 0.212999 0
27.815000 0.191413 0
27.820000 0.164426 0
27.825000 0.133891 0
27.830000 0.101713 0
27.835000 0.069566 0
27.840000 0.038524 0
27.845000 0.008458 0
27.850000 -0.022690 0
27.855000 -0.059126 0
27.860000 -0.105529 0
27.865000 -0.162519 0
27.870000 -0.220977 0
27.875000 -0.259641 2
27.880000 -0.249016 0
27.885000 -0.159339 0
27.890000 0.030603 0
27.895000 0.320935 0
27.900000 0.672148 0
27.905000 0.995488 0
27.910000 1.178340 3
27.915000 1.144696 0
27.920000 0.904493 0
27.925000 0.544993 0
27.930000 0.176975 0
27.935000 -0.117396 0
27.940000 -0.300972 0
27.945000 -0.372191 4
27.950000 -0.352892 0
27.955000 -0.278988 0
27.960000 -0.188449 0
27.965000 -0.108271 0
27.970000 -0.048640 0
27.975000 -0.006878 0
27.980000 0.024475 0
27.985000 0.051858 0
27.990000 0.078920 0
27.995000 0.107108 0
28.000000 0.136689 0
28.005000 0.167413 0
28.010000 0.198810 0
28.015000 0.230292 0
28.020000 0.261195 0
28.025000 0.290806 0
28.030000 0.318387 0
28.035000 0.343206 0
28.040000 0.364570 0
28.045000 0.381854 0
28.050000 0.394532 0
28.055000 0.402204 0
28.060000 0.404613 5
28.065000 0.401663 0
28.070000 0.393421 0
28.075000 0.380116 0
28.080000 0.362125 0
28.085000 0.339960 0
28.090000 0.314238 0
28.095000 0.285655 0
28.100000 0.254954 0
28.105000 0.222892 0
28.110000 0.190210 0
28.115000 0.157604 0
28.120000 0.125706 0
28.125000 0.095061 0
28.130000 0.066119 0
28.135000 0.039225 0
28.140000 0.014623 0
28.145000 -0.007540 0
28.150000 -0.027209 0
28.155000 -0.044406 0
28.160000 -0.059217 0
28.165000 -0.071780 0
28.170000 -0.082270 0
28.175000 -0.090883 0
28.180000 -0.097829 0
28.185000 -0.103319 0
28.190000 -0.107558 0
28.195000 -0.110738 0
28.200000 -0.113036 0
28.205000 -0.114610 0
28.210000 -0.115597 0
28.215000 -0.114915 0
28.220000 -0.113954 0
28.225000 -0.112998 0
28.230000 -0.112046 0
28.235000 -0.111099 0
28.240000 -0.110157 0
28.245000 -0.109218 0
28.250000 -0.108283 0
28.255000 -0.107350 0
28.260000 -0.106417 0
28.265000 -0.105478 0
28.270000 -0.104525 0
28.275000 -0.103544 0
28.280000 -0.102510 0
28.285000 -0.101382 0
28.290000 -0.100098 0
28.295000 -0.098561 0
28.300000 -0.096631 0
28.305000 -0.094113 0
28.310000 -0.090743 0
28.315000 -0.086183 0
28.320000 -0.080020 0
28.325000 -0.071783 0
28.330000 -0.060966 0
28.335000 -0.047087 0
28.340000 -0.029747 0
28.345000 -0.008717 0
28.350000 0.015969 0
28.355000 0.043944 0
28.360000 0.074444 0
28.365000 0.106303 0
28.370000 0.137994 0
28.375000 0.167729 0
28.380000 0.193624 0
28.385000 0.213886 0
28.390000 0.227022 0
