0.000000 1.105273 3
0.005000 1.039729 0
0.010000 0.871396 0
0.015000 0.634044 0
0.020000 0.370336 0
0.025000 0.119181 0
0.030000 -0.091946 0
0.035000 -0.248466 0
0.040000 -0.346391 0
0.045000 -0.389447 4
0.050000 -0.387017 0
0.055000 -0.352405 0
0.060000 -0.300502 0
0.065000 -0.244873 0
0.070000 -0.195272 0
0.075000 -0.156593 0
0.080000 -0.129468 0
0.085000 -0.111874 0
0.090000 -0.100849 0
0.095000 -0.093667 0
0.100000 -0.088337 0
0.105000 -0.083625 0
0.110000 -0.078846 0
0.115000 -0.073644 0
0.120000 -0.067830 0
0.125000 -0.061287 0
0.130000 -0.053929 0
0.135000 -0.045681 0
0.140000 -0.036477 0
0.145000 -0.026255 0
0.150000 -0.014963 0
0.155000 -0.002562 0
0.160000 0.010976 0
0.165000 0.025658 0
0.170000 0.041476 0
0.175000 0.058398 0
0.180000 0.076366 0
0.185000 0.095301 0
0.190000 0.115093 0
0.195000 0.135606 0
0.200000 0.156678 0
0.205000 0.178119 0
0.210000 0.199717 0
0.215000 0.221237 0
0.220000 0.242428 0
0.225000 0.263025 0
0.230000 0.282754 0
0.235000 0.301341 0
0.240000 0.318516 0
0.245000 0.334016 0
0.250000 0.347600 0
0.255000 0.359044 0
0.260000 0.368159 0
0.265000 0.374785 0
0.270000 0.378803 0
0.275000 0.380135 5
0.280000 0.378747 0
0.285000 0.374652 0
0.290000 0.367904 0
0.295000 0.358604 0
0.300000 0.346894 0
0.305000 0.332950 0
0.310000 0.316984 0
0.315000 0.299234 0
0.320000 0.279959 0
0.325000 0.259433 0
0.330000 0.237939 0
0.335000 0.215761 0
0.340000 0.193178 0
0.345000 0.170460 0
0.350000 0.147861 0
0.355000 0.125617 0
0.360000 0.103939 0
0.365000 0.083013 0
0.370000 0.062997 0
0.375000 0.044021 0
0.380000 0.026186 0
0.385000 0.009566 0
0.390000 -0.005793 0
0.395000 -0.019869 0
0.400000 -0.032660 0
0.405000 -0.044188 0
0.410000 -0.054489 0
0.415000 -0.063613 0
0.420000 -0.071622 0
0.425000 -0.078586 0
0.430000 -0.084580 0
0.435000 -0.089683 0
0.440000 -0.093976 0
0.445000 -0.097538 0
0.450000 -0.100446 0
0.455000 -0.102775 0
0.460000 -0.104596 0
0.465000 -0.105973 0
0.470000 -0.106966 0
0.475000 -0.107630 0
0.480000 -0.108013 0
0.485000 -0.108160 0
0.490000 -0.108109 0
0.495000 -0.107893 0
0.500000 -0.107541 0
0.505000 -0.107078 0
0.510000 -0.106525 0
0.515000 -0.105899 0
0.520000 -0.105216 0
0.525000 -0.104488 0
0.530000 -0.103725 0
0.535000 -0.102935 0
0.540000 -0.102125 0
0.545000 -0.101300 0
0.550000 -0.100464 0
0.555000 -0.099622 0
0.560000 -0.098754 0
0.565000 -0.097886 0
0.570000 -0.097022 0
0.575000 -0.096162 0
0.580000 -0.095307 0
0.585000 -0.094456 0
0.590000 -0.093609 0
0.595000 -0.092766 0
0.600000 -0.091928 0
0.605000 -0.091094 0
0.610000 -0.090264 0
0.615000 -0.089438 0
0.620000 -0.088616 0
0.625000 -0.087798 0
0.630000 -0.086985 0
0.635000 -0.086175 0
0.640000 -0.085369 0
0.645000 -0.084568 0
0.650000 -0.083770 0
0.655000 -0.082977 0
0.660000 -0.082187 0
0.665000 -0.081401 0
0.670000 -0.080620 0
0.675000 -0.079842 0
0.680000 -0.079068 0
0.685000 -0.078298 0
0.690000 -0.077532 0
0.695000 -0.076769 0
0.700000 -0.076010 0
0.705000 -0.075255 0
0.710000 -0.074504 0
0.715000 -0.073757 0
0.720000 -0.073013 0
0.725000 -0.072272 0
0.730000 -0.071534 0
0.735000 -0.070799 0
0.740000 -0.070066 0
0.745000 -0.069334 0
0.750000 -0.068601 0
0.755000 -0.067864 0
0.760000 -0.067119 0
0.765000 -0.066361 0
0.770000 -0.065580 0
0.775000 -0.064764 0
0.780000 -0.063894 0
0.785000 -0.062946 0
0.790000 -0.061886 0
0.795000 -0.060669 0
0.800000 -0.059236 0
0.805000 -0.057511 0
0.810000 -0.055403 0
0.815000 -0.052797 0
0.820000 -0.049560 0
0.825000 -0.045537 0
0.830000 -0.040557 0
0.835000 -0.034437 0
0.840000 -0.026988 0
0.845000 -0.018030 0
0.850000 -0.007402 0
0.855000 0.005019 0
0.860000 0.019303 0
0.865000 0.035445 0
0.870000 0.053355 0
0.875000 0.072836 0
0.880000 0.093584 0
0.885000 0.115182 0
0.890000 0.137109 0
0.895000 0.158753 0
0.900000 0.179442 0
0.905000 0.198471 0
0.910000 0.215144 0
0.915000 0.228815 0
0.920000 0.238927 0
0.925000 0.245054 0
0.930000 0.246924 1
0.935000 0.244444 0
0.940000 0.237705 0
0.945000 0.226974 0
0.950000 0.212681 0
0.955000 0.195386 0
0.960000 0.175745 0
0.965000 0.154465 0
0.970000 0.132266 0
0.975000 0.109841 0
0.980000 0.087816 0
0.985000 0.066734 0
0.990000 0.047024 0
0.995000 0.028998 0
1.000000 0.012839 0
1.005000 -0.001421 0
1.010000 -0.013937 0
1.015000 -0.025135 0
1.020000 -0.035836 0
1.025000 -0.047371 0
1.030000 -0.061600 0
1.035000 -0.080626 0
1.040000 -0.106083 0
1.045000 -0.138016 0
1.050000 -0.173704 0
1.055000 -0.206982 0
1.060000 -0.228528 2
1.065000 -0.227104 0
1.070000 -0.191246 0
1.075000 -0.110943 0
1.080000 0.020506 0
1.085000 0.203720 0
1.090000 0.429300 0
1.095000 0.674320 0
1.100000 0.902532 0
1.105000 1.071048 0
1.110000 1.142788 3
1.115000 1.099857 0
1.120000 0.950298 0
1.125000 0.723981 0
1.130000 0.462252 0
1.135000 0.205173 0
1.140000 -0.017278 0
1.145000 -0.187871 0
1.150000 -0.300436 0
1.155000 -0.356982 0
1.160000 -0.365490 4
1.165000 -0.338252 0
1.170000 -0.289801 0
1.175000 -0.234163 0
1.180000 -0.182208 0
1.185000 -0.140162 0
1.190000 -0.109762 0
1.195000 -0.089622 0
1.200000 -0.076952 0
1.205000 -0.068906 0
1.210000 -0.063263 0
1.215000 -0.058573 0
1.220000 -0.054004 0
1.225000 -0.049113 0
1.230000 -0.043669 0
1.235000 -0.037539 0
1.240000 -0.030629 0
1.245000 -0.022863 0
1.250000 -0.014172 0
1.255000 -0.004493 0
1.260000 0.006229 0
1.265000 0.018038 0
1.270000 0.030966 0
1.275000 0.045030 0
1.280000 0.060227 0
1.285000 0.076537 0
1.290000 0.093915 0
1.295000 0.112292 0
1.300000 0.131573 0
1.305000 0.151637 0
1.310000 0.172335 0
1.315000 0.193493 0
1.320000 0.214912 0
1.325000 0.236372 0
1.330000 0.257633 0
1.335000 0.278438 0
1.340000 0.298524 0
1.345000 0.317618 0
1.350000 0.335451 0
1.355000 0.351761 0
1.360000 0.366296 0
1.365000 0.378826 0
1.370000 0.389145 0
1.375000 0.397079 0
1.380000 0.402487 0
1.385000 0.405268 0
1.390000 0.405364 5
1.395000 0.402760 0
1.400000 0.397484 0
1.405000 0.389610 0
1.410000 0.379252 0
1.415000 0.366563 0
1.420000 0.351733 0
1.425000 0.334978 0
1.430000 0.316542 0
1.435000 0.296687 0
1.440000 0.275686 0
1.445000 0.253819 0
1.450000 0.231365 0
1.455000 0.208597 0
1.460000 0.185778 0
1.465000 0.163152 0
1.470000 0.140944 0
1.475000 0.119356 0
1.480000 0.098563 0
1.485000 0.078713 0
1.490000 0.059927 0
1.495000 0.042297 0
1.500000 0.025888 0
1.505000 0.010741 0
1.510000 -0.003130 0
1.515000 -0.015727 0
1.520000 -0.027076 0
1.525000 -0.037216 0
1.530000 -0.046199 0
1.535000 -0.054087 0
1.540000 -0.060951 0
1.545000 -0.066866 0
1.550000 -0.071911 0
1.555000 -0.076165 0
1.560000 -0.079705 0
1.565000 -0.082609 0
1.570000 -0.084948 0
1.575000 -0.086791 0
1.580000 -0.088201 0
1.585000 -0.089238 0
1.590000 -0.089954 0
1.595000 -0.090397 0
1.600000 -0.090608 0
1.605000 -0.090627 0
1.610000 -0.090484 0
1.615000 -0.090208 0
1.620000 -0.089823 0
1.625000 -0.089350 0
1.630000 -0.088806 0
1.635000 -0.088205 0
1.640000 -0.087559 0
1.645000 -0.086879 0
1.650000 -0.086172 0
1.655000 -0.085445 0
1.660000 -0.084703 0
1.665000 -0.083950 0
1.670000 -0.083190 0
1.675000 -0.082404 0
1.680000 -0.081617 0
1.685000 -0.080834 0
1.690000 -0.080056 0
1.695000 -0.079280 0
1.700000 -0.078509 0
1.705000 -0.077742 0
1.710000 -0.076979 0
1.715000 -0.076219 0
1.720000 -0.075463 0
1.725000 -0.074711 0
1.730000 -0.073962 0
1.735000 -0.073218 0
1.740000 -0.072477 0
1.745000 -0.071740 0
1.750000 -0.071006 0
1.755000 -0.070276 0
1.760000 -0.069550 0
1.765000 -0.068827 0
1.770000 -0.068108 0
1.775000 -0.067393 0
1.780000 -0.066681 0
1.785000 -0.065973 0
1.790000 -0.065268 0
1.795000 -0.064567 0
1.800000 -0.063869 0
1.805000 -0.063174 0
1.810000 -0.062484 0
1.815000 -0.061796 0
1.820000 -0.061112 0
1.825000 -0.060431 0
1.830000 -0.059754 0
1.835000 -0.059080 0
1.840000 -0.058409 0
1.845000 -0.057740 0
1.850000 -0.057075 0
1.855000 -0.056410 0
1.860000 -0.055747 0
1.865000 -0.055083 0
1.870000 -0.054416 0
1.875000 -0.053742 0
1.880000 -0.053057 0
1.885000 -0.052351 0
1.890000 -0.051615 0
1.895000 -0.050831 0
1.900000 -0.049978 0
1.905000 -0.049025 0
1.910000 -0.047932 0
1.915000 -0.046646 0
1.920000 -0.045098 0
1.925000 -0.043204 0
1.930000 -0.040858 0
1.935000 -0.037937 0
1.940000 -0.034294 0
1.945000 -0.029768 0
1.950000 -0.024180 0
1.955000 -0.017348 0
1.960000 -0.009087 0
1.965000 0.000770 0
1.970000 0.012361 0
1.975000 0.025780 0
1.980000 0.041057 0
1.985000 0.058139 0
1.990000 0.076882 0
1.995000 0.097032 0
2.000000 0.118230 0
2.005000 0.140007 0
2.010000 0.161800 0
2.015000 0.182972 0
2.020000 0.202838 0
2.025000 0.220704 0
2.030000 0.235902 0
2.035000 0.247834 0
2.040000 0.256010 0
2.045000 0.260080 1
2.050000 0.259857 0
2.055000 0.255334 0
2.060000 0.246683 0
2.065000 0.234242 0
2.070000 0.218496 0
2.075000 0.200043 0
2.080000 0.179557 0
2.085000 0.157746 0
2.090000 0.135312 0
2.095000 0.112916 0
2.100000 0.091145 0
2.105000 0.070491 0
2.110000 0.051334 0
2.115000 0.033934 0
2.120000 0.018419 0
2.125000 0.004760 0
2.130000 -0.007281 0
2.135000 -0.018244 0
2.140000 -0.029100 0
2.145000 -0.041348 0
2.150000 -0.056949 0
2.155000 -0.077928 0
2.160000 -0.105535 0
2.165000 -0.139087 0
2.170000 -0.174913 0
2.175000 -0.205941 0
2.180000 -0.222283 2
2.185000 -0.212620 0
2.190000 -0.165881 0
2.195000 -0.072862 0
2.200000 0.071813 0
2.205000 0.266667 0
2.210000 0.499424 0
2.215000 0.744140 0
2.220000 0.962727 0
2.225000 1.112971 0
2.230000 1.161339 3
2.235000 1.093968 0
2.240000 0.922376 0
2.245000 0.682214 0
2.250000 0.417939 0
2.255000 0.169328 0
2.260000 -0.036318 0
2.265000 -0.185240 0
2.270000 -0.274525 0
2.275000 -0.309089 4
2.280000 -0.299557 0
2.285000 -0.260317 0
2.290000 -0.206819 0
2.295000 -0.152421 0
2.300000 -0.105993 0
2.305000 -0.071265 0
2.310000 -0.047875 0
2.315000 -0.033237 0
2.320000 -0.024252 0
2.325000 -0.018335 0
2.330000 -0.013730 0
2.335000 -0.009410 0
2.340000 -0.004834 0
2.345000 0.000279 0
2.350000 0.006081 0
2.355000 0.012674 0
2.360000 0.020142 0
2.365000 0.028558 0
2.370000 0.037989 0
2.375000 0.048493 0
2.380000 0.060118 0
2.385000 0.072896 0
2.390000 0.086845 0
2.395000 0.101962 0
2.400000 0.118221 0
2.405000 0.135572 0
2.410000 0.153937 0
2.415000 0.173212 0
2.420000 0.193263 0
2.425000 0.213925 0
2.430000 0.235007 0
2.435000 0.256293 0
2.440000 0.277542 0
2.445000 0.298493 0
2.450000 0.318873 0
2.455000 0.338397 0
2.460000 0.356780 0
2.465000 0.373738 0
2.470000 0.388999 0
2.475000 0.402309 0
2.480000 0.413438 0
2.485000 0.422186 0
2.490000 0.428389 0
2.495000 0.431926 0
2.500000 0.432718 5
2.505000 0.430735 0
2.510000 0.425995 0
2.515000 0.418562 0
2.520000 0.408547 0
2.525000 0.396105 0
2.530000 0.381427 0
2.535000 0.364740 0
2.540000 0.346298 0
2.545000 0.326375 0
2.550000 0.305260 0
2.555000 0.283247 0
2.560000 0.260633 0
2.565000 0.237705 0
2.570000 0.214738 0
2.575000 0.191991 0
2.580000 0.169698 0
2.585000 0.148069 0
2.590000 0.127284 0
2.595000 0.107495 0
2.600000 0.088822 0
2.605000 0.071355 0
2.610000 0.055157 0
2.615000 0.040261 0
2.620000 0.026678 0
2.625000 0.014395 0
2.630000 0.003380 0
2.635000 -0.006414 0
2.640000 -0.015048 0
2.645000 -0.022591 0
2.650000 -0.029121 0
2.655000 -0.034719 0
2.660000 -0.039469 0
2.665000 -0.043453 0
2.670000 -0.046753 0
2.675000 -0.049447 0
2.680000 -0.051608 0
2.685000 -0.053306 0
2.690000 -0.054604 0
2.695000 -0.055558 0
2.700000 -0.056221 0
2.705000 -0.056639 0
2.710000 -0.056851 0
2.715000 -0.056893 0
2.720000 -0.056795 0
2.725000 -0.056582 0
2.730000 -0.056277 0
2.735000 -0.055898 0
2.740000 -0.055460 0
2.745000 -0.054975 0
2.750000 -0.054455 0
2.755000 -0.053907 0
2.760000 -0.053337 0
2.765000 -0.052753 0
2.770000 -0.052157 0
2.775000 -0.051548 0
2.780000 -0.050916 0
2.785000 -0.050286 0
2.790000 -0.049659 0
2.795000 -0.049036 0
2.800000 -0.048416 0
2.805000 -0.047798 0
2.810000 -0.047184 0
2.815000 -0.046573 0
2.820000 -0.045965 0
2.825000 -0.045360 0
2.830000 -0.044758 0
2.835000 -0.044159 0
2.840000 -0.043563 0
2.845000 -0.042970 0
2.850000 -0.042380 0
2.855000 -0.041793 0
2.860000 -0.041209 0
2.865000 -0.040627 0
2.870000 -0.040049 0
2.875000 -0.039474 0
2.880000 -0.038901 0
2.885000 -0.038331 0
2.890000 -0.037764 0
2.895000 -0.037200 0
2.900000 -0.036639 0
2.905000 -0.036080 0
2.910000 -0.035525 0
2.915000 -0.034972 0
2.920000 -0.034421 0
2.925000 -0.033874 0
2.930000 -0.033329 0
2.935000 -0.032787 0
2.940000 -0.032246 0
2.945000 -0.031709 0
2.950000 -0.031172 0
2.955000 -0.030637 0
2.960000 -0.030101 0
2.965000 -0.029564 0
2.970000 -0.029021 0
2.975000 -0.028470 0
2.980000 -0.027903 0
2.985000 -0.027311 0
2.990000 -0.026680 0
2.995000 -0.025990 0
3.000000 -0.025216 0
3.005000 -0.024319 0
3.010000 -0.023251 0
3.015000 -0.021947 0
3.020000 -0.020325 0
3.025000 -0.018283 0
3.030000 -0.015698 0
3.035000 -0.012424 0
3.040000 -0.008294 0
3.045000 -0.003126 0
3.050000 0.003275 0
3.055000 0.011102 0
3.060000 0.020539 0
3.065000 0.031739 0
3.070000 0.044810 0
3.075000 0.059791 0
3.080000 0.076640 0
3.085000 0.095210 0
3.090000 0.115241 0
3.095000 0.136354 0
3.100000 0.158054 0
3.105000 0.179743 0
3.110000 0.200743 0
3.115000 0.220329 0
3.120000 0.237769 0
3.125000 0.252365 0
3.130000 0.263502 0
3.135000 0.270690 0
3.140000 0.273595 1
3.145000 0.272070 0
3.150000 0.266159 0
3.155000 0.256100 0
3.160000 0.242308 0
3.165000 0.225341 0
3.170000 0.205867 0
3.175000 0.184620 0
3.180000 0.162348 0
3.185000 0.139776 0
3.190000 0.117567 0
3.195000 0.096289 0
3.200000 0.076397 0
3.205000 0.058219 0
3.210000 0.041944 0
3.215000 0.027605 0
3.220000 0.015030 0
3.225000 0.003755 0
3.230000 -0.007111 0
3.235000 -0.019014 0
3.240000 -0.033942 0
3.245000 -0.054069 0
3.250000 -0.080911 0
3.255000 -0.114074 0
3.260000 -0.150028 0
3.265000 -0.181562 0
3.270000 -0.198343 2
3.275000 -0.188437 0
3.280000 -0.140163 0
3.285000 -0.043919 0
3.290000 0.105592 0
3.295000 0.305896 0
3.300000 0.542345 0
3.305000 0.785368 0
3.310000 0.993202 0
3.315000 1.122044 0
3.320000 1.140689 3
3.325000 1.042719 0
3.330000 0.848883 0
3.335000 0.598214 0
3.340000 0.334642 0
3.345000 0.094831 0
3.350000 -0.097662 0
3.355000 -0.232156 0
3.360000 -0.307864 0
3.365000 -0.331136 4
3.370000 -0.313528 0
3.375000 -0.269779 0
3.380000 -0.214991 0
3.385000 -0.161588 0
3.390000 -0.117283 0
3.395000 -0.084819 0
3.400000 -0.063250 0
3.405000 -0.049802 0
3.410000 -0.041450 0
3.415000 -0.035777 0
3.420000 -0.031186 0
3.425000 -0.026761 0
3.430000 -0.022023 0
3.435000 -0.016722 0
3.440000 -0.010719 0
3.445000 -0.003916 0
3.450000 0.003767 0
3.455000 0.012402 0
3.460000 0.022054 0
3.465000 0.032780 0
3.470000 0.044624 0
3.475000 0.057618 0
3.480000 0.071776 0
3.485000 0.087093 0
3.490000 0.103542 0
3.495000 0.121071 0
3.500000 0.139599 0
3.505000 0.159022 0
3.510000 0.179203 0
3.515000 0.199979 0
3.520000 0.221158 0
3.525000 0.242524 0
3.530000 0.263837 0
3.535000 0.284841 0
3.540000 0.305261 0
3.545000 0.324819 0
3.550000 0.343229 0
3.555000 0.360213 0
3.560000 0.375501 0
3.565000 0.388843 0
3.570000 0.400011 0
3.575000 0.408808 0
3.580000 0.415073 0
3.585000 0.418685 0
3.590000 0.419567 5
3.595000 0.417688 0
3.600000 0.413065 0
3.605000 0.405761 0
3.610000 0.395886 0
3.615000 0.383590 0
3.620000 0.369062 0
3.625000 0.352526 0
3.630000 0.334232 0
3.635000 0.314450 0
3.640000 0.293464 0
3.645000 0.271568 0
3.650000 0.249053 0
3.655000 0.226206 0
3.660000 0.203299 0
3.665000 0.180590 0
3.670000 0.158313 0
3.675000 0.136678 0
3.680000 0.115866 0
3.685000 0.096030 0
3.690000 0.077293 0
3.695000 0.059747 0
3.700000 0.043457 0
3.705000 0.028460 0
3.710000 0.014769 0
3.715000 0.002373 0
3.720000 -0.008755 0
3.725000 -0.018661 0
3.730000 -0.027403 0
3.735000 -0.035049 0
3.740000 -0.041674 0
3.745000 -0.047358 0
3.750000 -0.052184 0
3.755000 -0.056234 0
3.760000 -0.059589 0
3.765000 -0.062327 0
3.770000 -0.064521 0
3.775000 -0.066242 0
3.780000 -0.067552 0
3.785000 -0.068509 0
3.790000 -0.069167 0
3.795000 -0.069571 0
3.800000 -0.069762 0
3.805000 -0.069776 0
3.810000 -0.069645 0
3.815000 -0.069395 0
3.820000 -0.069047 0
3.825000 -0.068622 0
3.830000 -0.068135 0
3.835000 -0.067599 0
3.840000 -0.067025 0
3.845000 -0.066422 0
3.850000 -0.065796 0
3.855000 -0.065154 0
3.860000 -0.064500 0
3.865000 -0.063838 0
3.870000 -0.063149 0
3.875000 -0.062458 0
3.880000 -0.061771 0
3.885000 -0.061087 0
3.890000 -0.060407 0
3.895000 -0.059730 0
3.900000 -0.059056 0
3.905000 -0.058386 0
3.910000 -0.057719 0
3.915000 -0.057055 0
3.920000 -0.056395 0
3.925000 -0.055738 0
3.930000 -0.055084 0
3.935000 -0.054434 0
3.940000 -0.053786 0
3.945000 -0.053142 0
3.950000 -0.052502 0
3.955000 -0.051864 0
3.960000 -0.051229 0
3.965000 -0.050598 0
3.970000 -0.049970 0
3.975000 -0.049345 0
3.980000 -0.048723 0
3.985000 -0.048105 0
3.990000 -0.047489 0
3.995000 -0.046876 0
4.000000 -0.046267 0
4.005000 -0.045660 0
4.010000 -0.045057 0
4.015000 -0.044456 0
4.020000 -0.043858 0
4.025000 -0.043264 0
4.030000 -0.042671 0
4.035000 -0.042082 0
4.040000 -0.041494 0
4.045000 -0.040908 0
4.050000 -0.040323 0
4.055000 -0.039737 0
4.060000 -0.039148 0
4.065000 -0.038553 0
4.070000 -0.037946 0
4.075000 -0.037320 0
4.080000 -0.036663 0
4.085000 -0.035959 0
4.090000 -0.035186 0
4.095000 -0.034313 0
4.100000 -0.033298 0
4.105000 -0.032086 0
4.110000 -0.030605 0
4.115000 -0.028767 0
4.120000 -0.026460 0
4.125000 -0.023553 0
4.130000 -0.019893 0
4.135000 -0.015308 0
4.140000 -0.009610 0
4.145000 -0.002608 0
4.150000 0.005890 0
4.155000 0.016053 0
4.160000 0.028018 0
4.165000 0.041868 0
4.170000 0.057613 0
4.175000 0.075172 0
4.180000 0.094361 0
4.185000 0.114877 0
4.190000 0.136303 0
4.195000 0.158110 0
4.200000 0.179677 0
4.205000 0.200312 0
4.210000 0.219289 0
4.215000 0.235891 0
4.220000 0.249450 0
4.225000 0.259394 0
4.230000 0.265285 0
4.235000 0.266848 1
4.240000 0.263996 0
4.245000 0.256834 0
4.250000 0.245652 0
4.255000 0.230905 0
4.260000 0.213184 0
4.265000 0.193171 0
4.270000 0.171601 0
4.275000 0.149214 0
4.280000 0.126713 0
4.285000 0.104731 0
4.290000 0.083803 0
4.295000 0.064349 0
4.300000 0.046660 0
4.305000 0.030888 0
4.310000 0.017022 0
4.315000 0.004835 0
4.320000 -0.006215 0
4.325000 -0.017124 0
4.330000 -0.029449 0
4.335000 -0.045241 0
4.340000 -0.066602 0
4.345000 -0.094761 0
4.350000 -0.128804 0
4.355000 -0.164554 0
4.360000 -0.194223 0
4.365000 -0.207169 2
4.370000 -0.191494 0
4.375000 -0.135859 0
4.380000 -0.031287 0
4.385000 0.126507 0
4.390000 0.333508 0
4.395000 0.573109 0
4.400000 0.813972 0
4.405000 1.013726 0
4.410000 1.129809 0
4.415000 1.133925 3
4.420000 1.023369 0
4.425000 0.821683 0
4.430000 0.568085 0
4.435000 0.305197 0
4.440000 0.067894 0
4.445000 -0.121735 0
4.450000 -0.253863 0
4.455000 -0.328044 0
4.460000 -0.350622 4
4.465000 -0.332921 0
4.470000 -0.289310 0
4.475000 -0.234532 0
4.480000 -0.180800 0
4.485000 -0.135827 0
4.490000 -0.102514 0
4.495000 -0.080108 0
4.500000 -0.065980 0
4.505000 -0.057153 0
4.510000 -0.051192 0
4.515000 -0.046452 0
4.520000 -0.041968 0
4.525000 -0.037227 0
4.530000 -0.031961 0
4.535000 -0.026022 0
4.540000 -0.019311 0
4.545000 -0.011747 0
4.550000 -0.003258 0
4.555000 0.006220 0
4.560000 0.016744 0
4.565000 0.028361 0
4.570000 0.041105 0
4.575000 0.054996 0
4.580000 0.070033 0
4.585000 0.086196 0
4.590000 0.103443 0
4.595000 0.121705 0
4.600000 0.140886 0
4.605000 0.160866 0
4.610000 0.181493 0
4.615000 0.202593 0
4.620000 0.223962 0
4.625000 0.245376 0
4.630000 0.266591 0
4.635000 0.287348 0
4.640000 0.307374 0
4.645000 0.326395 0
4.650000 0.344135 0
4.655000 0.360328 0
4.660000 0.374718 0
4.665000 0.387072 0
4.670000 0.397183 0
4.675000 0.404873 0
4.680000 0.410004 0
4.685000 0.412477 5
4.690000 0.412237 0
4.695000 0.409272 0
4.700000 0.403618 0
4.705000 0.395355 0
4.710000 0.384604 0
4.715000 0.371528 0
4.720000 0.356323 0
4.725000 0.339217 0
4.730000 0.320460 0
4.735000 0.300321 0
4.740000 0.279081 0
4.745000 0.257026 0
4.750000 0.234438 0
4.755000 0.211594 0
4.760000 0.188758 0
4.765000 0.166173 0
4.770000 0.144064 0
4.775000 0.122629 0
4.780000 0.102040 0
4.785000 0.082439 0
4.790000 0.063941 0
4.795000 0.046632 0
4.800000 0.030570 0
4.805000 0.015788 0
4.810000 0.002295 0
4.815000 -0.009920 0
4.820000 -0.020886 0
4.825000 -0.030650 0
4.830000 -0.039269 0
4.835000 -0.046809 0
4.840000 -0.053344 0
4.845000 -0.058953 0
4.850000 -0.063716 0
4.855000 -0.067712 0
4.860000 -0.071022 0
4.865000 -0.073720 0
4.870000 -0.075880 0
4.875000 -0.077569 0
4.880000 -0.078849 0
4.885000 -0.079777 0
4.890000 -0.080404 0
4.895000 -0.080777 0
4.900000 -0.080936 0
4.905000 -0.080917 0
4.910000 -0.080750 0
4.915000 -0.080461 0
4.920000 -0.080074 0
4.925000 -0.079608 0
4.930000 -0.079078 0
4.935000 -0.078497 0
4.940000 -0.077877 0
4.945000 -0.077227 0
4.950000 -0.076553 0
4.955000 -0.075862 0
4.960000 -0.075158 0
4.965000 -0.074446 0
4.970000 -0.073704 0
4.975000 -0.072961 0
4.980000 -0.072221 0
4.985000 -0.071485 0
4.990000 -0.070753 0
4.995000 -0.070024 0
5.000000 -0.069299 0
5.005000 -0.068578 0
5.010000 -0.067860 0
5.015000 -0.067146 0
5.020000 -0.066435 0
5.025000 -0.065728 0
5.030000 -0.065025 0
5.035000 -0.064325 0
5.040000 -0.063628 0
5.045000 -0.062935 0
5.050000 -0.062245 0
5.055000 -0.061559 0
5.060000 -0.060876 0
5.065000 -0.060197 0
5.070000 -0.059521 0
5.075000 -0.058848 0
5.080000 -0.058179 0
5.085000 -0.057513 0
5.090000 -0.056851 0
5.095000 -0.056191 0
5.100000 -0.055535 0
5.105000 -0.054883 0
5.110000 -0.054233 0
5.115000 -0.053587 0
5.120000 -0.052944 0
5.125000 -0.052304 0
5.130000 -0.051667 0
5.135000 -0.051032 0
5.140000 -0.050401 0
5.145000 -0.049772 0
5.150000 -0.049144 0
5.155000 -0.048517 0
5.160000 -0.047889 0
5.165000 -0.047258 0
5.170000 -0.046620 0
5.175000 -0.045970 0
5.180000 -0.045299 0
5.185000 -0.044596 0
5.190000 -0.043845 0
5.195000 -0.043023 0
5.200000 -0.042098 0
5.205000 -0.041028 0
5.210000 -0.039758 0
5.215000 -0.038218 0
5.220000 -0.036319 0
5.225000 -0.033953 0
5.230000 -0.030990 0
5.235000 -0.027281 0
5.240000 -0.022657 0
5.245000 -0.016937 0
5.250000 -0.009932 0
5.255000 -0.001458 0
5.260000 0.008652 0
5.265000 0.020535 0
5.270000 0.034273 0
5.275000 0.049884 0
5.280000 0.067296 0
5.285000 0.086340 0
5.290000 0.106736 0
5.295000 0.128090 0
5.300000 0.149903 0
5.305000 0.171580 0
5.310000 0.192456 0
5.315000 0.211828 0
5.320000 0.228992 0
5.325000 0.243283 0
5.330000 0.254122 0
5.335000 0.261046 0
5.340000 0.263749 1
5.345000 0.262098 0
5.350000 0.256144 0
5.355000 0.246122 0
5.360000 0.232431 0
5.365000 0.215610 0
5.370000 0.196299 0
5.375000 0.175204 0
5.380000 0.153047 0
5.385000 0.130532 0
5.390000 0.108304 0
5.395000 0.086925 0
5.400000 0.066848 0
5.405000 0.048412 0
5.410000 0.031823 0
5.415000 0.017143 0
5.420000 0.004256 0
5.425000 -0.007210 0
5.430000 -0.017997 0
5.435000 -0.029348 0
5.440000 -0.043048 0
5.445000 -0.061204 0
5.450000 -0.085606 0
5.455000 -0.116652 0
5.460000 -0.152134 0
5.465000 -0.186432 0
5.470000 -0.210634 0
5.475000 -0.213649 2
5.480000 -0.183890 0
5.485000 -0.110969 0
5.490000 0.012495 0
5.495000 0.188270 0
5.500000 0.408672 0
5.505000 0.652779 0
5.510000 0.885875 0
5.515000 1.065183 0
5.520000 1.151809 3
5.525000 1.124320 0
5.530000 0.986917 0
5.535000 0.767565 0
5.540000 0.507592 0
5.545000 0.248396 0
5.550000 0.021713 0
5.555000 -0.153758 0
5.560000 -0.270896 0
5.565000 -0.331190 0
5.570000 -0.342391 4
5.575000 -0.316779 0
5.580000 -0.269067 0
5.585000 -0.213594 0
5.590000 -0.161552 0
5.595000 -0.119404 0
5.600000 -0.088994 0
5.605000 -0.068940 0
5.610000 -0.056410 0
5.615000 -0.048513 0
5.620000 -0.043006 0
5.625000 -0.038430 0
5.630000 -0.033954 0
5.635000 -0.029139 0
5.640000 -0.023758 0
5.645000 -0.017677 0
5.650000 -0.010804 0
5.655000 -0.003061 0
5.660000 0.005621 0
5.665000 0.015306 0
5.670000 0.026048 0
5.675000 0.037891 0
5.680000 0.050866 0
5.685000 0.064989 0
5.690000 0.080254 0
5.695000 0.096637 0
5.700000 0.114088 0
5.705000 0.132535 0
5.710000 0.151876 0
5.715000 0.171982 0
5.720000 0.192699 0
5.725000 0.213844 0
5.730000 0.235211 0
5.735000 0.256570 0
5.740000 0.277675 0
5.745000 0.298262 0
5.750000 0.318061 0
5.755000 0.336795 0
5.760000 0.354191 0
5.765000 0.369984 0
5.770000 0.383925 0
5.775000 0.395786 0
5.780000 0.405364 0
5.785000 0.412493 0
5.790000 0.417040 0
5.795000 0.418917 5
5.800000 0.418077 0
5.805000 0.414519 0
5.810000 0.408287 0
5.815000 0.399471 0
5.820000 0.388200 0
5.825000 0.374643 0
5.830000 0.359004 0
5.835000 0.341513 0
5.840000 0.322427 0
5.845000 0.302017 0
5.850000 0.280563 0
5.855000 0.258351 0
5.860000 0.235663 0
5.865000 0.212772 0
5.870000 0.189938 0
5.875000 0.167401 0
5.880000 0.145380 0
5.885000 0.124067 0
5.890000 0.103629 0
5.895000 0.084203 0
5.900000 0.065898 0
5.905000 0.048793 0
5.910000 0.032942 0
5.915000 0.018374 0
5.920000 0.005094 0
5.925000 -0.006914 0
5.930000 -0.017682 0
5.935000 -0.027258 0
5.940000 -0.035701 0
5.945000 -0.043079 0
5.950000 -0.049467 0
5.955000 -0.054944 0
5.960000 -0.059589 0
5.965000 -0.063483 0
5.970000 -0.066704 0
5.975000 -0.069327 0
5.980000 -0.071425 0
5.985000 -0.073062 0
5.990000 -0.074301 0
5.995000 -0.075198 0
6.000000 -0.075803 0
6.005000 -0.076160 0
6.010000 -0.076310 0
6.015000 -0.076287 0
6.020000 -0.076121 0
6.025000 -0.075838 0
6.030000 -0.075460 0
6.035000 -0.075004 0
6.040000 -0.074488 0
6.045000 -0.073923 0
6.050000 -0.073320 0
6.055000 -0.072687 0
6.060000 -0.072033 0
6.065000 -0.071361 0
6.070000 -0.070678 0
6.075000 -0.069986 0
6.080000 -0.069267 0
6.085000 -0.068546 0
6.090000 -0.067828 0
6.095000 -0.067114 0
6.100000 -0.066403 0
6.105000 -0.065696 0
6.110000 -0.064993 0
6.115000 -0.064293 0
6.120000 -0.063597 0
6.125000 -0.062904 0
6.130000 -0.062214 0
6.135000 -0.061528 0
6.140000 -0.060846 0
6.145000 -0.060166 0
6.150000 -0.059491 0
6.155000 -0.058818 0
6.160000 -0.058149 0
6.165000 -0.057483 0
6.170000 -0.056821 0
6.175000 -0.056162 0
6.180000 -0.055506 0
6.185000 -0.054853 0
6.190000 -0.054204 0
6.195000 -0.053558 0
6.200000 -0.052915 0
6.205000 -0.052275 0
6.210000 -0.051639 0
6.215000 -0.051005 0
6.220000 -0.050375 0
6.225000 -0.049748 0
6.230000 -0.049124 0
6.235000 -0.048503 0
6.240000 -0.047885 0
6.245000 -0.047270 0
6.250000 -0.046657 0
6.255000 -0.046046 0
6.260000 -0.045437 0
6.265000 -0.044828 0
6.270000 -0.044218 0
6.275000 -0.043604 0
6.280000 -0.042983 0
6.285000 -0.042349 0
6.290000 -0.041693 0
6.295000 -0.041003 0
6.300000 -0.040263 0
6.305000 -0.039448 0
6.310000 -0.038527 0
6.315000 -0.037455 0
6.320000 -0.036177 0
6.325000 -0.034621 0
6.330000 -0.032695 0
6.335000 -0.030289 0
6.340000 -0.027273 0
6.345000 -0.023494 0
6.350000 -0.018784 0
6.355000 -0.012959 0
6.360000 -0.005832 0
6.365000 0.002781 0
6.370000 0.013044 0
6.375000 0.025088 0
6.380000 0.038990 0
6.385000 0.054761 0
6.390000 0.072320 0
6.395000 0.091487 0
6.400000 0.111973 0
6.405000 0.133376 0
6.410000 0.155185 0
6.415000 0.176801 0
6.420000 0.197556 0
6.425000 0.216746 0
6.430000 0.233670 0
6.435000 0.247670 0
6.440000 0.258176 0
6.445000 0.264740 0
6.450000 0.267068 1
6.455000 0.265044 0
6.460000 0.258734 0
6.465000 0.248386 0
6.470000 0.234410 0
6.475000 0.217354 0
6.480000 0.197865 0
6.485000 0.176648 0
6.490000 0.154425 0
6.495000 0.131894 0
6.500000 0.109696 0
6.505000 0.088382 0
6.510000 0.068398 0
6.515000 0.050072 0
6.520000 0.033600 0
6.525000 0.019035 0
6.530000 0.006245 0
6.535000 -0.005161 0
6.540000 -0.015955 0
6.545000 -0.027412 0
6.550000 -0.041345 0
6.555000 -0.059861 0
6.560000 -0.084694 0
6.565000 -0.116117 0
6.570000 -0.151735 0
6.575000 -0.185728 0
6.580000 -0.209035 0
6.585000 -0.210510 2
6.590000 -0.178610 0
6.595000 -0.103085 0
6.600000 0.023204 0
6.605000 0.201622 0
6.610000 0.423882 0
6.615000 0.668359 0
6.620000 0.899793 0
6.625000 1.075358 0
6.630000 1.156786 3
6.635000 1.124892 0
6.640000 0.986635 0
6.645000 0.768576 0
6.650000 0.509590 0
6.655000 0.248994 0
6.660000 0.017629 0
6.665000 -0.165566 0
6.670000 -0.292552 0
6.675000 -0.363557 0
6.680000 -0.384854 4
6.685000 -0.367193 0
6.690000 -0.324089 0
6.695000 -0.269457 0
6.700000 -0.215027 0
6.705000 -0.168509 0
6.710000 -0.133169 0
6.715000 -0.108729 0
6.720000 -0.092913 0
6.725000 -0.082894 0
6.730000 -0.076210 0
6.735000 -0.071104 0
6.740000 -0.066494 0
6.745000 -0.061778 0
6.750000 -0.056635 0
6.755000 -0.050893 0
6.760000 -0.044444 0
6.765000 -0.037205 0
6.770000 -0.029107 0
6.775000 -0.020085 0
6.780000 -0.010082 0
6.785000 0.000953 0
6.790000 0.013059 0
6.795000 0.026263 0
6.800000 0.040577 0
6.805000 0.055998 0
6.810000 0.072499 0
6.815000 0.090036 0
6.820000 0.108538 0
6.825000 0.127914 0
6.830000 0.148043 0
6.835000 0.168784 0
6.840000 0.189967 0
6.845000 0.211403 0
6.850000 0.232880 0
6.855000 0.254169 0
6.860000 0.275026 0
6.865000 0.295197 0
6.870000 0.314424 0
6.875000 0.332449 0
6.880000 0.349017 0
6.885000 0.363888 0
6.890000 0.376837 0
6.895000 0.387662 0
6.900000 0.396189 0
6.905000 0.402275 0
6.910000 0.405815 0
6.915000 0.406739 5
6.920000 0.405022 0
6.925000 0.400676 0
6.930000 0.393759 0
6.935000 0.384364 0
6.940000 0.372624 0
6.945000 0.358707 0
6.950000 0.342810 0
6.955000 0.325156 0
6.960000 0.305986 0
6.965000 0.285559 0
6.970000 0.264139 0
6.975000 0.241996 0
6.980000 0.219394 0
6.985000 0.196591 0
6.990000 0.173833 0
6.995000 0.151347 0
7.000000 0.129341 0
7.005000 0.108000 0
7.010000 0.087484 0
7.015000 0.067927 0
7.020000 0.049438 0
7.025000 0.032098 0
7.030000 0.015964 0
7.035000 0.001071 0
7.040000 -0.012571 0
7.045000 -0.024969 0
7.050000 -0.036147 0
7.055000 -0.046146 0
7.060000 -0.055016 0
7.065000 -0.062818 0
7.070000 -0.069620 0
7.075000 -0.075494 0
7.080000 -0.080515 0
7.085000 -0.084758 0
7.090000 -0.088300 0
7.095000 -0.091212 0
7.100000 -0.093566 0
7.105000 -0.095426 0
7.110000 -0.096855 0
7.115000 -0.097909 0
7.120000 -0.098640 0
7.125000 -0.099094 0
7.130000 -0.099314 0
7.135000 -0.099336 0
7.140000 -0.099192 0
7.145000 -0.098911 0
7.150000 -0.098516 0
7.155000 -0.098029 0
7.160000 -0.097467 0
7.165000 -0.096845 0
7.170000 -0.096175 0
7.175000 -0.095467 0
7.180000 -0.094730 0
7.185000 -0.093971 0
7.190000 -0.093195 0
7.195000 -0.092406 0
7.200000 -0.091610 0
7.205000 -0.090803 0
7.210000 -0.089974 0
7.215000 -0.089150 0
7.220000 -0.088329 0
7.225000 -0.087513 0
7.230000 -0.086701 0
7.235000 -0.085893 0
7.240000 -0.085089 0
7.245000 -0.084288 0
7.250000 -0.083492 0
7.255000 -0.082700 0
7.260000 -0.081912 0
7.265000 -0.081128 0
7.270000 -0.080347 0
7.275000 -0.079571 0
7.280000 -0.078798 0
7.285000 -0.078029 0
7.290000 -0.077264 0
7.295000 -0.076503 0
7.300000 -0.075746 0
7.305000 -0.074993 0
7.310000 -0.074243 0
7.315000 -0.073497 0
7.320000 -0.072754 0
7.325000 -0.072016 0
7.330000 -0.071281 0
7.335000 -0.070550 0
7.340000 -0.069822 0
7.345000 -0.069098 0
7.350000 -0.068378 0
7.355000 -0.067661 0
7.360000 -0.066947 0
7.365000 -0.066238 0
7.370000 -0.065531 0
7.375000 -0.064828 0
7.380000 -0.064128 0
7.385000 -0.063430 0
7.390000 -0.062735 0
7.395000 -0.062041 0
7.400000 -0.061348 0
7.405000 -0.060653 0
7.410000 -0.059953 0
7.415000 -0.059245 0
7.420000 -0.058521 0
7.425000 -0.057773 0
7.430000 -0.056989 0
7.435000 -0.056149 0
7.440000 -0.055231 0
7.445000 -0.054200 0
7.450000 -0.053014 0
7.455000 -0.051617 0
7.460000 -0.049938 0
7.465000 -0.047889 0
7.470000 -0.045365 0
7.475000 -0.042241 0
7.480000 -0.038373 0
7.485000 -0.033602 0
7.490000 -0.027755 0
7.495000 -0.020657 0
7.500000 -0.012133 0
7.505000 -0.002026 0
7.510000 0.009790 0
7.515000 0.023400 0
7.520000 0.038825 0
7.525000 0.056009 0
7.530000 0.074807 0
7.535000 0.094977 0
7.540000 0.116172 0
7.545000 0.137944 0
7.550000 0.159758 0
7.555000 0.181008 0
7.560000 0.201040 0
7.565000 0.219189 0
7.570000 0.234810 0
7.575000 0.247321 0
7.580000 0.256231 0
7.585000 0.261178 0
7.590000 0.261951 1
7.595000 0.258502 0
7.600000 0.250952 0
7.605000 0.239585 0
7.610000 0.224827 0
7.615000 0.207218 0
7.620000 0.187385 0
7.625000 0.165998 0
7.630000 0.143736 0
7.635000 0.121252 0
7.640000 0.099141 0
7.645000 0.077916 0
7.650000 0.057995 0
7.655000 0.039683 0
7.660000 0.023168 0
7.665000 0.008508 0
7.670000 -0.004405 0
7.675000 -0.015906 0
7.680000 -0.026664 0
7.685000 -0.037790 0
7.690000 -0.050899 0
7.695000 -0.067954 0
7.700000 -0.090770 0
7.705000 -0.120130 0
7.710000 -0.154696 0
7.715000 -0.190148 0
7.720000 -0.219020 0
7.725000 -0.231434 2
7.730000 -0.216474 0
7.735000 -0.163722 0
7.740000 -0.064746 0
7.745000 0.085009 0
7.750000 0.283316 0
7.755000 0.517516 0
7.760000 0.762055 0
7.765000 0.980159 0
7.770000 1.131376 0
7.775000 1.183386 3
7.780000 1.122535 0
7.785000 0.959021 0
7.790000 0.724834 0
7.795000 0.461349 0
7.800000 0.207142 0
7.805000 -0.009799 0
7.810000 -0.173954 0
7.815000 -0.280317 0
7.820000 -0.331610 0
7.825000 -0.336226 4
7.830000 -0.306614 0
7.835000 -0.257193 0
7.840000 -0.201644 0
7.845000 -0.150374 0
7.850000 -0.109197 0
7.855000 -0.079582 0
7.860000 -0.060033 0
7.865000 -0.047766 0
7.870000 -0.039987 0
7.875000 -0.034535 0
7.880000 -0.029999 0
7.885000 -0.025570 0
7.890000 -0.020815 0
7.895000 -0.015510 0
7.900000 -0.009523 0
7.905000 -0.002761 0
7.910000 0.004852 0
7.915000 0.013382 0
7.920000 0.022893 0
7.925000 0.033439 0
7.930000 0.045063 0
7.935000 0.057798 0
7.940000 0.071661 0
7.945000 0.086652 0
7.950000 0.102750 0
7.955000 0.119912 0
7.960000 0.138074 0
7.965000 0.157143 0
7.970000 0.177001 0
7.975000 0.197505 0
7.980000 0.218486 0
7.985000 0.239750 0
7.990000 0.261081 0
7.995000 0.282244 0
8.000000 0.302989 0
8.005000 0.323056 0
8.010000 0.342177 0
8.015000 0.360085 0
8.020000 0.376520 0
8.025000 0.391233 0
8.030000 0.403991 0
8.035000 0.414587 0
8.040000 0.422844 0
8.045000 0.428615 0
8.050000 0.431794 0
8.055000 0.432314 5
8.060000 0.430152 0
8.065000 0.425327 0
8.070000 0.417901 0
8.075000 0.407979 0
8.080000 0.395704 0
8.085000 0.381253 0
8.090000 0.364835 0
8.095000 0.346685 0
8.100000 0.327056 0
8.105000 0.306216 0
8.110000 0.284440 0
8.115000 0.262004 0
8.120000 0.239180 0
8.125000 0.216231 0
8.130000 0.193404 0
8.135000 0.170927 0
8.140000 0.149006 0
8.145000 0.127824 0
8.150000 0.107534 0
8.155000 0.088265 0
8.160000 0.070118 0
8.165000 0.053165 0
8.170000 0.037455 0
8.175000 0.023011 0
8.180000 0.009837 0
8.185000 -0.002085 0
8.190000 -0.012788 0
8.195000 -0.022319 0
8.200000 -0.030737 0
8.205000 -0.038107 0
8.210000 -0.044504 0
8.215000 -0.050002 0
8.220000 -0.054681 0
8.225000 -0.058618 0
8.230000 -0.061889 0
8.235000 -0.064567 0
8.240000 -0.066722 0
8.245000 -0.068419 0
8.250000 -0.069718 0
8.255000 -0.070674 0
8.260000 -0.071336 0
8.265000 -0.071748 0
8.270000 -0.071950 0
8.275000 -0.071977 0
8.280000 -0.071857 0
8.285000 -0.071618 0
8.290000 -0.071280 0
8.295000 -0.070862 0
8.300000 -0.070381 0
8.305000 -0.069848 0
8.310000 -0.069276 0
8.315000 -0.068672 0
8.320000 -0.068045 0
8.325000 -0.067400 0
8.330000 -0.066741 0
8.335000 -0.066072 0
8.340000 -0.065393 0
8.345000 -0.064691 0
8.350000 -0.063993 0
8.355000 -0.063298 0
8.360000 -0.062606 0
8.365000 -0.061918 0
8.370000 -0.061234 0
8.375000 -0.060553 0
8.380000 -0.059875 0
8.385000 -0.059201 0
8.390000 -0.058530 0
8.395000 -0.057862 0
8.400000 -0.057198 0
8.405000 -0.056537 0
8.410000 -0.055879 0
8.415000 -0.055224 0
8.420000 -0.054573 0
8.425000 -0.053925 0
8.430000 -0.053281 0
8.435000 -0.052639 0
8.440000 -0.052001 0
8.445000 -0.051366 0
8.450000 -0.050734 0
8.455000 -0.050105 0
8.460000 -0.049479 0
8.465000 -0.048857 0
8.470000 -0.048237 0
8.475000 -0.047621 0
8.480000 -0.047008 0
8.485000 -0.046397 0
8.490000 -0.045790 0
8.495000 -0.045186 0
8.500000 -0.044585 0
8.505000 -0.043986 0
8.510000 -0.043390 0
8.515000 -0.042796 0
8.520000 -0.042205 0
8.525000 -0.041615 0
8.530000 -0.041025 0
8.535000 -0.040433 0
8.540000 -0.039838 0
8.545000 -0.039235 0
8.550000 -0.038619 0
8.555000 -0.037982 0
8.560000 -0.037311 0
8.565000 -0.036591 0
8.570000 -0.035799 0
8.575000 -0.034904 0
8.580000 -0.033864 0
8.585000 -0.032626 0
8.590000 -0.031121 0
8.595000 -0.029263 0
8.600000 -0.026947 0
8.605000 -0.024049 0
8.610000 -0.020425 0
8.615000 -0.015913 0
8.620000 -0.010338 0
8.625000 -0.003516 0
8.630000 0.004730 0
8.635000 0.014568 0
8.640000 0.026131 0
8.645000 0.039512 0
8.650000 0.054737 0
8.655000 0.071756 0
8.660000 0.090424 0
8.665000 0.110493 0
8.670000 0.131608 0
8.675000 0.153309 0
8.680000 0.175041 0
8.685000 0.196178 0
8.690000 0.216046 0
8.695000 0.233958 0
8.700000 0.249254 0
8.705000 0.261338 0
8.710000 0.269719 0
8.715000 0.274041 0
8.720000 0.274108 1
8.725000 0.269896 0
8.730000 0.261560 0
8.735000 0.249420 0
8.740000 0.233940 0
8.745000 0.215701 0
8.750000 0.195359 0
8.755000 0.173614 0
8.760000 0.151160 0
8.765000 0.128658 0
8.770000 0.106697 0
8.775000 0.085780 0
8.780000 0.066299 0
8.785000 0.048531 0
8.790000 0.032624 0
8.795000 0.018581 0
8.800000 0.006209 0
8.805000 -0.004959 0
8.810000 -0.015789 0
8.815000 -0.027651 0
8.820000 -0.042406 0
8.825000 -0.062095 0
8.830000 -0.088213 0
8.835000 -0.120629 0
8.840000 -0.156480 0
8.845000 -0.189582 0
8.850000 -0.210759 2
8.855000 -0.209043 0
8.860000 -0.173286 0
8.865000 -0.093749 0
8.870000 0.036155 0
8.875000 0.217245 0
8.880000 0.440868 0
8.885000 0.685484 0
8.890000 0.916566 0
8.895000 1.092480 0
8.900000 1.175978 3
8.905000 1.146524 0
8.910000 1.007996 0
8.915000 0.788249 0
8.920000 0.528185 0
8.925000 0.268743 0
8.930000 0.041387 0
8.935000 -0.135236 0
8.940000 -0.253905 0
8.945000 -0.315918 0
8.950000 -0.328777 4
8.955000 -0.304492 0
8.960000 -0.257563 0
8.965000 -0.202250 0
8.970000 -0.149842 0
8.975000 -0.107019 0
8.980000 -0.075866 0
8.985000 -0.055183 0
8.990000 -0.042222 0
8.995000 -0.034093 0
9.000000 -0.028510 0
9.005000 -0.023962 0
9.010000 -0.019576 0
9.015000 -0.014887 0
9.020000 -0.009655 0
9.025000 -0.003740 0
9.030000 0.002953 0
9.035000 0.010500 0
9.040000 0.018972 0
9.045000 0.028433 0
9.050000 0.038938 0
9.055000 0.050531 0
9.060000 0.063246 0
9.065000 0.077100 0
9.070000 0.092092 0
9.075000 0.108202 0
9.080000 0.125385 0
9.085000 0.143573 0
9.090000 0.162671 0
9.095000 0.182558 0
9.100000 0.203087 0
9.105000 0.224082 0
9.110000 0.245344 0
9.115000 0.266652 0
9.120000 0.287764 0
9.125000 0.308424 0
9.130000 0.328367 0
9.135000 0.347318 0
9.140000 0.365008 0
9.145000 0.381172 0
9.150000 0.395558 0
9.155000 0.407935 0
9.160000 0.418095 0
9.165000 0.425864 0
9.170000 0.431100 0
9.175000 0.433703 5
9.180000 0.433615 0
9.185000 0.430820 0
9.190000 0.425349 0
9.195000 0.417276 0
9.200000 0.406717 0
9.205000 0.393827 0
9.210000 0.378796 0
9.215000 0.361844 0
9.220000 0.343216 0
9.225000 0.323176 0
9.230000 0.301998 0
9.235000 0.279965 0
9.240000 0.257355 0
9.245000 0.234445 0
9.250000 0.211495 0
9.255000 0.188751 0
9.260000 0.166439 0
9.265000 0.144758 0
9.270000 0.123885 0
9.275000 0.103966 0
9.280000 0.085120 0
9.285000 0.067439 0
9.290000 0.050985 0
9.295000 0.035799 0
9.300000 0.021893 0
9.305000 0.009263 0
9.310000 -0.002118 0
9.315000 -0.012289 0
9.320000 -0.021305 0
9.325000 -0.029230 0
9.330000 -0.036133 0
9.335000 -0.042092 0
9.340000 -0.047185 0
9.345000 -0.051492 0
9.350000 -0.055091 0
9.355000 -0.058058 0
9.360000 -0.060467 0
9.365000 -0.062384 0
9.370000 -0.063874 0
9.375000 -0.064994 0
9.380000 -0.065798 0
9.385000 -0.066333 0
9.390000 -0.066640 0
9.395000 -0.066757 0
9.400000 -0.066715 0
9.405000 -0.066542 0
9.410000 -0.066263 0
9.415000 -0.065897 0
9.420000 -0.065461 0
9.425000 -0.064970 0
9.430000 -0.064434 0
9.435000 -0.063865 0
9.440000 -0.063269 0
9.445000 -0.062653 0
9.450000 -0.062022 0
9.455000 -0.061380 0
9.460000 -0.060726 0
9.465000 -0.060048 0
9.470000 -0.059373 0
9.475000 -0.058701 0
9.480000 -0.058032 0
9.485000 -0.057367 0
9.490000 -0.056705 0
9.495000 -0.056047 0
9.500000 -0.055391 0
9.505000 -0.054739 0
9.510000 -0.054091 0
9.515000 -0.053445 0
9.520000 -0.052803 0
9.525000 -0.052164 0
9.530000 -0.051528 0
9.535000 -0.050895 0
9.540000 -0.050265 0
9.545000 -0.049639 0
9.550000 -0.049016 0
9.555000 -0.048395 0
9.560000 -0.047778 0
9.565000 -0.047164 0
9.570000 -0.046553 0
9.575000 -0.045945 0
9.580000 -0.045340 0
9.585000 -0.044738 0
9.590000 -0.044140 0
9.595000 -0.043544 0
9.600000 -0.042951 0
9.605000 -0.042361 0
9.610000 -0.041774 0
9.615000 -0.041189 0
9.620000 -0.040608 0
9.625000 -0.040029 0
9.630000 -0.039453 0
9.635000 -0.038879 0
9.640000 -0.038307 0
9.645000 -0.037736 0
9.650000 -0.037165 0
9.655000 -0.036592 0
9.660000 -0.036015 0
9.665000 -0.035430 0
9.670000 -0.034831 0
9.675000 -0.034208 0
9.680000 -0.033551 0
9.685000 -0.032841 0
9.690000 -0.032053 0
9.695000 -0.031155 0
9.700000 -0.030104 0
9.705000 -0.028841 0
9.710000 -0.027294 0
9.715000 -0.025372 0
9.720000 -0.022964 0
9.725000 -0.019940 0
9.730000 -0.016148 0
9.735000 -0.011420 0
9.740000 -0.005575 0
9.745000 0.001573 0
9.750000 0.010205 0
9.755000 0.020482 0
9.760000 0.032532 0
9.765000 0.046431 0
9.770000 0.062186 0
9.775000 0.079717 0
9.780000 0.098848 0
9.785000 0.119290 0
9.790000 0.140647 0
9.795000 0.162416 0
9.800000 0.184006 0
9.805000 0.204757 0
9.810000 0.223975 0
9.815000 0.240965 0
9.820000 0.255076 0
9.825000 0.265738 0
9.830000 0.272501 0
9.835000 0.275066 1
9.840000 0.273306 0
9.845000 0.267275 0
9.850000 0.257203 0
9.855000 0.243486 0
9.860000 0.226652 0
9.865000 0.207335 0
9.870000 0.186228 0
9.875000 0.164045 0
9.880000 0.141481 0
9.885000 0.119176 0
9.890000 0.097688 0
9.895000 0.077472 0
9.900000 0.058868 0
9.905000 0.042088 0
9.910000 0.027208 0
9.915000 0.014127 0
9.920000 0.002507 0
9.925000 -0.008344 0
9.930000 -0.019597 0
9.935000 -0.032957 0
9.940000 -0.050492 0
9.945000 -0.074056 0
9.950000 -0.104293 0
9.955000 -0.139440 0
9.960000 -0.174454 0
9.965000 -0.200981 0
9.970000 -0.208313 2
9.975000 -0.184978 0
9.980000 -0.120410 0
9.985000 -0.006643 0
9.990000 0.159345 0
9.995000 0.372082 0
10.000000 0.613713 0
10.005000 0.852536 0
10.010000 1.047196 0
10.015000 1.157279 3
10.020000 1.156731 0
10.025000 1.042534 0
10.030000 0.837732 0
10.035000 0.582581 0
10.040000 0.320212 0
10.045000 0.085385 0
10.050000 -0.100329 0
10.055000 -0.227751 0
10.060000 -0.297077 0
10.065000 -0.315279 4
10.070000 -0.294266 0
10.075000 -0.248820 0
10.080000 -0.193766 0
10.085000 -0.141027 0
10.090000 -0.097778 0
10.095000 -0.066355 0
10.100000 -0.045600 0
10.105000 -0.032697 0
10.110000 -0.024673 0
10.115000 -0.019187 0
10.120000 -0.014707 0
10.125000 -0.010356 0
10.130000 -0.005676 0
10.135000 -0.000429 0
10.140000 0.005523 0
10.145000 0.012274 0
10.150000 0.019903 0
10.155000 0.028482 0
10.160000 0.038075 0
10.165000 0.048737 0
10.170000 0.060513 0
10.175000 0.073433 0
10.180000 0.087512 0
10.185000 0.102745 0
10.190000 0.119104 0
10.195000 0.136538 0
10.200000 0.154970 0
10.205000 0.174293 0
10.210000 0.194375 0
10.215000 0.215055 0
10.220000 0.236143 0
10.225000 0.257427 0
10.230000 0.278669 0
10.235000 0.299616 0
10.240000 0.319999 0
10.245000 0.339539 0
10.250000 0.357955 0
10.255000 0.374972 0
10.260000 0.390320 0
10.265000 0.403750 0
10.270000 0.415035 0
10.275000 0.423976 0
10.280000 0.430411 0
10.285000 0.434216 0
10.290000 0.435310 5
10.295000 0.433658 0
10.300000 0.429271 0
10.305000 0.422207 0
10.310000 0.412569 0
10.315000 0.400501 0
10.320000 0.386186 0
10.325000 0.369840 0
10.330000 0.351709 0
10.335000 0.332057 0
10.340000 0.311166 0
10.345000 0.289323 0
10.350000 0.266819 0
10.355000 0.243938 0
10.360000 0.220954 0
10.365000 0.198124 0
10.370000 0.175685 0
10.375000 0.153848 0
10.380000 0.132801 0
10.385000 0.112698 0
10.390000 0.093667 0
10.395000 0.075806 0
10.400000 0.059184 0
10.405000 0.043845 0
10.410000 0.029804 0
10.415000 0.017058 0
10.420000 0.005582 0
10.425000 -0.004666 0
10.430000 -0.013740 0
10.435000 -0.021705 0
10.440000 -0.028635 0
10.445000 -0.034608 0
10.450000 -0.039705 0
10.455000 -0.044008 0
10.460000 -0.047598 0
10.465000 -0.050553 0
10.470000 -0.052947 0
10.475000 -0.054849 0
10.480000 -0.056326 0
10.485000 -0.057435 0
10.490000 -0.058231 0
10.495000 -0.058761 0
10.500000 -0.059066 0
10.505000 -0.059186 0
10.510000 -0.059150 0
10.515000 -0.058988 0
10.520000 -0.058722 0
10.525000 -0.058373 0
10.530000 -0.057957 0
10.535000 -0.057488 0
10.540000 -0.056978 0
10.545000 -0.056435 0
10.550000 -0.055868 0
10.555000 -0.055282 0
10.560000 -0.054682 0
10.565000 -0.054073 0
10.570000 -0.053452 0
10.575000 -0.052810 0
10.580000 -0.052171 0
10.585000 -0.051535 0
10.590000 -0.050902 0
10.595000 -0.050272 0
10.600000 -0.049646 0
10.605000 -0.049022 0
10.610000 -0.048402 0
10.615000 -0.047785 0
10.620000 -0.047171 0
10.625000 -0.046560 0
10.630000 -0.045952 0
10.635000 -0.045347 0
10.640000 -0.044745 0
10.645000 -0.044146 0
10.650000 -0.043550 0
10.655000 -0.042957 0
10.660000 -0.042367 0
10.665000 -0.041780 0
10.670000 -0.041196 0
10.675000 -0.040615 0
10.680000 -0.040037 0
10.685000 -0.039461 0
10.690000 -0.038889 0
10.695000 -0.038319 0
10.700000 -0.037752 0
10.705000 -0.037188 0
10.710000 -0.036627 0
10.715000 -0.036068 0
10.720000 -0.035512 0
10.725000 -0.034959 0
10.730000 -0.034409 0
10.735000 -0.033861 0
10.740000 -0.033315 0
10.745000 -0.032770 0
10.750000 -0.032227 0
10.755000 -0.031684 0
10.760000 -0.031138 0
10.765000 -0.030589 0
10.770000 -0.030031 0
10.775000 -0.029458 0
10.780000 -0.028861 0
10.785000 -0.028228 0
10.790000 -0.027539 0
10.795000 -0.026770 0
10.800000 -0.025886 0
10.805000 -0.024839 0
10.810000 -0.023570 0
10.815000 -0.022001 0
10.820000 -0.020036 0
10.825000 -0.017557 0
10.830000 -0.014425 0
10.835000 -0.010481 0
10.840000 -0.005550 0
10.845000 0.000559 0
10.850000 0.008035 0
10.855000 0.017062 0
10.860000 0.027800 0
10.865000 0.040366 0
10.870000 0.054820 0
10.875000 0.071144 0
10.880000 0.089224 0
10.885000 0.108841 0
10.890000 0.129658 0
10.895000 0.151225 0
10.900000 0.172988 0
10.905000 0.194306 0
10.910000 0.214479 0
10.915000 0.232788 0
10.920000 0.248531 0
10.925000 0.261070 0
10.930000 0.269873 0
10.935000 0.274549 0
10.940000 0.274875 1
10.945000 0.270816 0
10.950000 0.262527 0
10.955000 0.250341 0
10.960000 0.234745 0
10.965000 0.216352 0
10.970000 0.195855 0
10.975000 0.173986 0
10.980000 0.151474 0
10.985000 0.129001 0
10.990000 0.107175 0
10.995000 0.086502 0
11.000000 0.067369 0
11.005000 0.050038 0
11.010000 0.034627 0
11.015000 0.021089 0
11.020000 0.009145 0
11.025000 -0.001818 0
11.030000 -0.012886 0
11.035000 -0.025703 0
11.040000 -0.042357 0
11.045000 -0.064860 0
11.050000 -0.094162 0
11.055000 -0.128886 0
11.060000 -0.164318 0
11.065000 -0.192227 0
11.070000 -0.201770 2
11.075000 -0.181130 0
11.080000 -0.119296 0
11.085000 -0.007850 0
11.090000 0.156607 0
11.095000 0.368745 0
11.100000 0.610364 0
11.105000 0.848807 0
11.110000 1.041423 0
11.115000 1.146870 3
11.120000 1.139310 0
11.125000 1.016667 0
11.130000 0.804590 0
11.135000 0.546241 0
11.140000 0.286218 0
11.145000 0.058991 0
11.150000 -0.115296 0
11.155000 -0.229253 0
11.160000 -0.284889 0
11.165000 -0.290987 4
11.170000 -0.261115 0
11.175000 -0.211120 0
11.180000 -0.155857 0
11.185000 -0.106214 0
11.190000 -0.067732 0
11.195000 -0.041187 0
11.200000 -0.024409 0
11.205000 -0.014225 0
11.210000 -0.007772 0
11.215000 -0.003022 0
11.220000 0.001244 0
11.225000 0.005678 0
11.230000 0.010610 0
11.235000 0.016216 0
11.240000 0.022610 0
11.245000 0.029878 0
11.250000 0.038098 0
11.255000 0.047339 0
11.260000 0.057662 0
11.265000 0.069119 0
11.270000 0.081744 0
11.275000 0.095556 0
11.280000 0.110555 0
11.285000 0.126716 0
11.290000 0.143988 0
11.295000 0.162293 0
11.300000 0.181523 0
11.305000 0.201540 0
11.310000 0.222177 0
11.315000 0.243234 0
11.320000 0.264489 0
11.325000 0.285691 0
11.330000 0.306574 0
11.335000 0.326853 0
11.340000 0.346236 0
11.345000 0.364429 0
11.350000 0.381141 0
11.355000 0.396094 0
11.360000 0.409031 0
11.365000 0.419718 0
11.370000 0.427957 0
11.375000 0.433587 0
11.380000 0.436492 0
11.385000 0.436603 5
11.390000 0.433900 0
11.395000 0.428411 0
11.400000 0.420218 0
11.405000 0.409447 0
11.410000 0.396267 0
11.415000 0.380890 0
11.420000 0.363556 0
11.425000 0.344534 0
11.430000 0.324114 0
11.435000 0.302594 0
11.440000 0.280280 0
11.445000 0.257472 0
11.450000 0.234463 0
11.455000 0.211528 0
11.460000 0.188923 0
11.465000 0.166879 0
11.470000 0.145597 0
11.475000 0.125248 0
11.480000 0.105973 0
11.485000 0.087879 0
11.490000 0.071046 0
11.495000 0.055519 0
11.500000 0.041322 0
11.505000 0.028450 0
11.510000 0.016879 0
11.515000 0.006567 0
11.520000 -0.002544 0
11.525000 -0.010522 0
11.530000 -0.017445 0
11.535000 -0.023393 0
11.540000 -0.028454 0
11.545000 -0.032712 0
11.550000 -0.036252 0
11.555000 -0.039154 0
11.560000 -0.041497 0
11.565000 -0.043353 0
11.570000 -0.044787 0
11.575000 -0.045860 0
11.580000 -0.046628 0
11.585000 -0.047137 0
11.590000 -0.047430 0
11.595000 -0.047544 0
11.600000 -0.047512 0
11.605000 -0.047360 0
11.610000 -0.047111 0
11.615000 -0.046785 0
11.620000 -0.046398 0
11.625000 -0.045962 0
11.630000 -0.045488 0
11.635000 -0.044986 0
11.640000 -0.044462 0
11.645000 -0.043922 0
11.650000 -0.043370 0
11.655000 -0.042806 0
11.660000 -0.042217 0
11.665000 -0.041630 0
11.670000 -0.041047 0
11.675000 -0.040466 0
11.680000 -0.039889 0
11.685000 -0.039314 0
11.690000 -0.038742 0
11.695000 -0.038173 0
11.700000 -0.037607 0
11.705000 -0.037044 0
11.710000 -0.036483 0
11.715000 -0.035926 0
11.720000 -0.035371 0
11.725000 -0.034819 0
11.730000 -0.034269 0
11.735000 -0.033722 0
11.740000 -0.033179 0
11.745000 -0.032637 0
11.750000 -0.032099 0
11.755000 -0.031563 0
11.760000 -0.031030 0
11.765000 -0.030499 0
11.770000 -0.029971 0
11.775000 -0.029446 0
11.780000 -0.028923 0
11.785000 -0.028403 0
11.790000 -0.027886 0
11.795000 -0.027371 0
11.800000 -0.026859 0
11.805000 -0.026349 0
11.810000 -0.025841 0
11.815000 -0.025336 0
11.820000 -0.024833 0
11.825000 -0.024332 0
11.830000 -0.023831 0
11.835000 -0.023331 0
11.840000 -0.022830 0
11.845000 -0.022325 0
11.850000 -0.021813 0
11.855000 -0.021287 0
11.860000 -0.020741 0
11.865000 -0.020162 0
11.870000 -0.019531 0
11.875000 -0.018825 0
11.880000 -0.018010 0
11.885000 -0.017039 0
11.890000 -0.015852 0
11.895000 -0.014371 0
11.900000 -0.012498 0
11.905000 -0.010112 0
11.910000 -0.007069 0
11.915000 -0.003204 0
11.920000 0.001668 0
11.925000 0.007744 0
11.930000 0.015225 0
11.935000 0.024304 0
11.940000 0.035145 0
11.945000 0.047868 0
11.950000 0.062530 0
11.955000 0.079100 0
11.960000 0.097442 0
11.965000 0.117305 0
11.970000 0.138311 0
11.975000 0.159965 0
11.980000 0.181658 0
11.985000 0.202697 0
11.990000 0.222340 0
11.995000 0.239831 0
12.000000 0.254452 0
12.005000 0.265570 0
12.010000 0.272678 0
12.015000 0.275438 1
12.020000 0.273703 0
12.025000 0.267529 0
12.030000 0.257170 0
12.035000 0.243064 0
12.040000 0.225798 0
12.045000 0.206068 0
12.050000 0.184631 0
12.055000 0.162257 0
12.060000 0.139684 0
12.065000 0.117580 0
12.070000 0.096511 0
12.075000 0.076921 0
12.080000 0.059120 0
12.085000 0.043270 0
12.090000 0.029361 0
12.095000 0.017155 0
12.100000 0.006074 0
12.105000 -0.004944 0
12.110000 -0.017560 0
12.115000 -0.033934 0
12.120000 -0.056204 0
12.125000 -0.085431 0
12.130000 -0.120217 0
12.135000 -0.155585 0
12.140000 -0.182794 0
12.145000 -0.190364 2
12.150000 -0.165900 0
12.155000 -0.098048 0
12.160000 0.021504 0
12.165000 0.195175 0
12.170000 0.415225 0
12.175000 0.659438 0
12.180000 0.890496 0
12.185000 1.062706 0
12.190000 1.135823 3
12.195000 1.091776 0
12.200000 0.939407 0
12.205000 0.710314 0
12.210000 0.447717 0
12.215000 0.192768 0
12.220000 -0.024521 0
12.225000 -0.187624 0
12.230000 -0.291396 0
12.235000 -0.338991 0
12.240000 -0.339613 4
12.245000 -0.306697 0
12.250000 -0.255500 0
12.255000 -0.200060 0
12.260000 -0.150532 0
12.265000 -0.112028 0
12.270000 -0.085219 0
12.275000 -0.068019 0
12.280000 -0.057387 0
12.285000 -0.050547 0
12.290000 -0.045496 0
12.295000 -0.041009 0
12.300000 -0.036414 0
12.305000 -0.031365 0
12.310000 -0.025680 0
12.315000 -0.019243 0
12.320000 -0.011969 0
12.325000 -0.003781 0
12.330000 0.005388 0
12.335000 0.015600 0
12.340000 0.026906 0
12.345000 0.039345 0
12.350000 0.052939 0
12.355000 0.067696 0
12.360000 0.083599 0
12.365000 0.100611 0
12.370000 0.118666 0
12.375000 0.137674 0
12.380000 0.157515 0
12.385000 0.178041 0
12.390000 0.199078 0
12.395000 0.220421 0
12.400000 0.241846 0
12.405000 0.263105 0
12.410000 0.283934 0
12.415000 0.304056 0
12.420000 0.323192 0
12.425000 0.341058 0
12.430000 0.357381 0
12.435000 0.371899 0
12.440000 0.384371 0
12.445000 0.394585 0
12.450000 0.402357 0
12.455000 0.407545 0
12.460000 0.410047 5
12.465000 0.409805 0
12.470000 0.406808 0
12.475000 0.401093 0
12.480000 0.392743 0
12.485000 0.381884 0
12.490000 0.368683 0
12.495000 0.353344 0
12.500000 0.336099 0
12.505000 0.317208 0
12.510000 0.296946 0
12.515000 0.275602 0
12.520000 0.253467 0
12.525000 0.230830 0
12.530000 0.207972 0
12.535000 0.185160 0
12.540000 0.162641 0
12.545000 0.140638 0
12.550000 0.119351 0
12.555000 0.098949 0
12.560000 0.079572 0
12.565000 0.061330 0
12.570000 0.044306 0
12.575000 0.028552 0
12.580000 0.014097 0
12.585000 0.000943 0
12.590000 -0.010926 0
12.595000 -0.021546 0
12.600000 -0.030966 0
12.605000 -0.039249 0
12.610000 -0.046465 0
12.615000 -0.052691 0
12.620000 -0.058008 0
12.625000 -0.062499 0
12.630000 -0.066245 0
12.635000 -0.069326 0
12.640000 -0.071818 0
12.645000 -0.073793 0
12.650000 -0.075319 0
12.655000 -0.076456 0
12.660000 -0.077260 0
12.665000 -0.077782 0
12.670000 -0.078066 0
12.675000 -0.078151 0
12.680000 -0.078070 0
12.685000 -0.077854 0
12.690000 -0.077527 0
12.695000 -0.077111 0
12.700000 -0.076622 0
12.705000 -0.076077 0
12.710000 -0.075487 0
12.715000 -0.074862 0
12.720000 -0.074211 0
12.725000 -0.073540 0
12.730000 -0.072854 0
12.735000 -0.072157 0
12.740000 -0.071449 0
12.745000 -0.070717 0
12.750000 -0.069988 0
12.755000 -0.069264 0
12.760000 -0.068542 0
12.765000 -0.067825 0
12.770000 -0.067111 0
12.775000 -0.066400 0
12.780000 -0.065693 0
12.785000 -0.064990 0
12.790000 -0.064290 0
12.795000 -0.063594 0
12.800000 -0.062901 0
12.805000 -0.062211 0
12.810000 -0.061525 0
12.815000 -0.060843 0
12.820000 -0.060163 0
12.825000 -0.059488 0
12.830000 -0.058815 0
12.835000 -0.058146 0
12.840000 -0.057480 0
12.845000 -0.056818 0
12.850000 -0.056159 0
12.855000 -0.055503 0
12.860000 -0.054850 0
12.865000 -0.054201 0
12.870000 -0.053555 0
12.875000 -0.052912 0
12.880000 -0.052272 0
12.885000 -0.051636 0
12.890000 -0.051002 0
12.895000 -0.050372 0
12.900000 -0.049745 0
12.905000 -0.049120 0
12.910000 -0.048498 0
12.915000 -0.047879 0
12.920000 -0.047260 0
12.925000 -0.046643 0
12.930000 -0.046024 0
12.935000 -0.045402 0
12.940000 -0.044772 0
12.945000 -0.044130 0
12.950000 -0.043466 0
12.955000 -0.042768 0
12.960000 -0.042019 0
12.965000 -0.041195 0
12.970000 -0.040263 0
12.975000 -0.039177 0
12.980000 -0.037880 0
12.985000 -0.036297 0
12.990000 -0.034334 0
12.995000 -0.031877 0
13.000000 -0.028789 0
13.005000 -0.024914 0
13.010000 -0.020075 0
13.015000 -0.014086 0
13.020000 -0.006754 0
13.025000 0.002108 0
13.030000 0.012665 0
13.035000 0.025041 0
13.040000 0.039307 0
13.045000 0.055456 0
13.050000 0.073387 0
13.055000 0.092893 0
13.060000 0.113651 0
13.065000 0.135223 0
13.070000 0.157061 0
13.075000 0.178531 0
13.080000 0.198935 0
13.085000 0.217548 0
13.090000 0.233662 0
13.095000 0.246625 0
13.100000 0.255889 0
13.105000 0.261044 0
13.110000 0.261851 1
13.115000 0.258256 0
13.120000 0.250396 0
13.125000 0.238591 0
13.130000 0.223320 0
13.135000 0.205190 0
13.140000 0.184893 0
13.145000 0.163163 0
13.150000 0.140735 0
13.155000 0.118301 0
13.160000 0.096477 0
13.165000 0.075779 0
13.170000 0.056605 0
13.175000 0.039226 0
13.180000 0.023770 0
13.185000 0.010198 0
13.190000 -0.001755 0
13.195000 -0.012686 0
13.200000 -0.023664 0
13.205000 -0.036319 0
13.210000 -0.052739 0
13.215000 -0.074966 0
13.220000 -0.104009 0
13.225000 -0.138575 0
13.230000 -0.174021 0
13.235000 -0.202152 0
13.240000 -0.212104 2
13.245000 -0.191995 0
13.250000 -0.130723 0
13.255000 -0.019775 0
13.260000 0.144336 0
13.265000 0.356332 0
13.270000 0.597973 0
13.275000 0.836445 0
13.280000 1.028850 0
13.285000 1.133650 3
13.290000 1.125858 0
13.295000 1.005481 0
13.300000 0.797110 0
13.305000 0.540884 0
13.310000 0.279116 0
13.315000 0.045602 0
13.320000 -0.138803 0
13.325000 -0.265292 0
13.330000 -0.334164 0
13.335000 -0.352315 4
13.340000 -0.331459 0
13.345000 -0.286139 0
13.350000 -0.230981 0
13.355000 -0.177832 0
13.360000 -0.133928 0
13.365000 -0.101748 0
13.370000 -0.080275 0
13.375000 -0.066785 0
13.380000 -0.058327 0
13.385000 -0.052537 0
13.390000 -0.047847 0
13.395000 -0.043346 0
13.400000 -0.038553 0
13.405000 -0.033216 0
13.410000 -0.027195 0
13.415000 -0.020393 0
13.420000 -0.012729 0
13.425000 -0.004134 0
13.430000 0.005456 0
13.435000 0.016098 0
13.440000 0.027838 0
13.445000 0.040707 0
13.450000 0.054724 0
13.455000 0.069887 0
13.460000 0.086173 0
13.465000 0.103537 0
13.470000 0.121908 0
13.475000 0.141187 0
13.480000 0.161250 0
13.485000 0.181944 0
13.490000 0.203090 0
13.495000 0.224484 0
13.500000 0.245898 0
13.505000 0.267086 0
13.510000 0.287786 0
13.515000 0.307728 0
13.520000 0.326634 0
13.525000 0.344230 0
13.530000 0.360250 0
13.535000 0.374441 0
13.540000 0.386572 0
13.545000 0.396438 0
13.550000 0.403866 0
13.555000 0.408722 0
13.560000 0.410910 5
13.565000 0.410381 0
13.570000 0.407128 0
13.575000 0.401192 0
13.580000 0.392656 0
13.585000 0.381649 0
13.590000 0.368336 0
13.595000 0.352917 0
13.600000 0.335622 0
13.605000 0.316706 0
13.610000 0.296438 0
13.615000 0.275101 0
13.620000 0.252979 0
13.625000 0.230357 0
13.630000 0.207509 0
13.635000 0.184696 0
13.640000 0.162162 0
13.645000 0.140127 0
13.650000 0.118788 0
13.655000 0.098312 0
13.660000 0.078839 0
13.665000 0.060481 0
13.670000 0.043319 0
13.675000 0.027411 0
13.680000 0.012785 0
13.685000 -0.000552 0
13.690000 -0.012614 0
13.695000 -0.023431 0
13.700000 -0.033051 0
13.705000 -0.041534 0
13.710000 -0.048945 0
13.715000 -0.055361 0
13.720000 -0.060859 0
13.725000 -0.065521 0
13.730000 -0.069426 0
13.735000 -0.072652 0
13.740000 -0.075277 0
13.745000 -0.077371 0
13.750000 -0.079001 0
13.755000 -0.080229 0
13.760000 -0.081112 0
13.765000 -0.081701 0
13.770000 -0.082040 0
13.775000 -0.082169 0
13.780000 -0.082124 0
13.785000 -0.081935 0
13.790000 -0.081627 0
13.795000 -0.081224 0
13.800000 -0.080743 0
13.805000 -0.080200 0
13.810000 -0.079608 0
13.815000 -0.078978 0
13.820000 -0.078318 0
13.825000 -0.077636 0
13.830000 -0.076938 0
13.835000 -0.076227 0
13.840000 -0.075508 0
13.845000 -0.074761 0
13.850000 -0.074012 0
13.855000 -0.073267 0
13.860000 -0.072526 0
13.865000 -0.071788 0
13.870000 -0.071055 0
13.875000 -0.070325 0
13.880000 -0.069598 0
13.885000 -0.068875 0
13.890000 -0.068156 0
13.895000 -0.067440 0
13.900000 -0.066728 0
13.905000 -0.066020 0
13.910000 -0.065315 0
13.915000 -0.064613 0
13.920000 -0.063915 0
13.925000 -0.063220 0
13.930000 -0.062529 0
13.935000 -0.061842 0
13.940000 -0.061158 0
13.945000 -0.060477 0
13.950000 -0.059799 0
13.955000 -0.059125 0
13.960000 -0.058455 0
13.965000 -0.057788 0
13.970000 -0.057124 0
13.975000 -0.056463 0
13.980000 -0.055806 0
13.985000 -0.055151 0
13.990000 -0.054501 0
13.995000 -0.053853 0
14.000000 -0.053208 0
14.005000 -0.052567 0
14.010000 -0.051928 0
14.015000 -0.051292 0
14.020000 -0.050658 0
14.025000 -0.050026 0
14.030000 -0.049394 0
14.035000 -0.048761 0
14.040000 -0.048125 0
14.045000 -0.047480 0
14.050000 -0.046823 0
14.055000 -0.046144 0
14.060000 -0.045431 0
14.065000 -0.044667 0
14.070000 -0.043828 0
14.075000 -0.042881 0
14.080000 -0.041782 0
14.085000 -0.040475 0
14.090000 -0.038887 0
14.095000 -0.036925 0
14.100000 -0.034479 0
14.105000 -0.031417 0
14.110000 -0.027586 0
14.115000 -0.022815 0
14.120000 -0.016921 0
14.125000 -0.009716 0
14.130000 -0.001017 0
14.135000 0.009342 0
14.140000 0.021488 0
14.145000 0.035498 0
14.150000 0.051375 0
14.155000 0.069038 0
14.160000 0.088299 0
14.165000 0.108863 0
14.170000 0.130321 0
14.175000 0.152157 0
14.180000 0.173765 0
14.185000 0.194472 0
14.190000 0.213573 0
14.195000 0.230365 0
14.200000 0.244193 0
14.205000 0.254492 0
14.210000 0.260821 0
14.215000 0.262896 1
14.220000 0.260613 0
14.225000 0.254049 0
14.230000 0.243464 0
14.235000 0.229280 0
14.240000 0.212053 0
14.245000 0.192438 0
14.250000 0.171144 0
14.255000 0.148895 0
14.260000 0.126387 0
14.265000 0.104257 0
14.270000 0.083050 0
14.275000 0.063204 0
14.280000 0.045038 0
14.285000 0.028739 0
14.290000 0.014345 0
14.295000 0.001707 0
14.300000 -0.009594 0
14.305000 -0.020369 0
14.310000 -0.031946 0
14.315000 -0.046181 0
14.320000 -0.065188 0
14.325000 -0.090623 0
14.330000 -0.122564 0
14.335000 -0.158314 0
14.340000 -0.191712 0
14.345000 -0.213413 2
14.350000 -0.212132 0
14.355000 -0.176348 0
14.360000 -0.096006 0
14.365000 0.035617 0
14.370000 0.219104 0
14.375000 0.444923 0
14.380000 0.689908 0
14.385000 0.917511 0
14.390000 1.084636 0
14.395000 1.154249 3
14.400000 1.110208 0
14.405000 0.960866 0
14.410000 0.735349 0
14.415000 0.473966 0
14.420000 0.216007 0
14.425000 -0.008794 0
14.430000 -0.183002 0
14.435000 -0.300002 0
14.440000 -0.361240 0
14.445000 -0.374059 4
14.450000 -0.350113 0
14.455000 -0.303470 0
14.460000 -0.248041 0
14.465000 -0.194981 0
14.470000 -0.151073 0
14.475000 -0.118651 0
14.480000 -0.096767 0
14.485000 -0.082832 0
14.490000 -0.074003 0
14.495000 -0.067957 0
14.500000 -0.063121 0
14.505000 -0.058558 0
14.510000 -0.053763 0
14.515000 -0.048469 0
14.520000 -0.042530 0
14.525000 -0.035845 0
14.530000 -0.028337 0
14.535000 -0.019937 0
14.540000 -0.010580 0
14.545000 -0.000212 0
14.550000 0.011215 0
14.555000 0.023736 0
14.560000 0.037375 0
14.565000 0.052135 0
14.570000 0.068005 0
14.575000 0.084949 0
14.580000 0.102911 0
14.585000 0.121809 0
14.590000 0.141536 0
14.595000 0.161960 0
14.600000 0.182922 0
14.605000 0.204239 0
14.610000 0.225707 0
14.615000 0.247100 0
14.620000 0.268176 0
14.625000 0.288681 0
14.630000 0.308353 0
14.635000 0.326927 0
14.640000 0.344143 0
14.645000 0.359748 0
14.650000 0.373506 0
14.655000 0.385199 0
14.660000 0.394640 0
14.665000 0.401668 0
14.670000 0.406162 0
14.675000 0.408036 5
14.680000 0.407249 0
14.685000 0.403798 0
14.690000 0.397727 0
14.695000 0.389118 0
14.700000 0.378095 0
14.705000 0.364817 0
14.710000 0.349477 0
14.715000 0.332293 0
14.720000 0.313509 0
14.725000 0.293382 0
14.730000 0.272181 0
14.735000 0.250179 0
14.740000 0.227649 0
14.745000 0.204855 0
14.750000 0.182051 0
14.755000 0.159473 0
14.760000 0.137337 0
14.765000 0.115836 0
14.770000 0.095140 0
14.775000 0.075389 0
14.780000 0.056699 0
14.785000 0.039157 0
14.790000 0.022825 0
14.795000 0.007741 0
14.800000 -0.006080 0
14.805000 -0.018644 0
14.810000 -0.029974 0
14.815000 -0.040109 0
14.820000 -0.049099 0
14.825000 -0.057006 0
14.830000 -0.063899 0
14.835000 -0.069850 0
14.840000 -0.074936 0
14.845000 -0.079235 0
14.850000 -0.082822 0
14.855000 -0.085772 0
14.860000 -0.088157 0
14.865000 -0.090044 0
14.870000 -0.091496 0
14.875000 -0.092570 0
14.880000 -0.093318 0
14.885000 -0.093790 0
14.890000 -0.094025 0
14.895000 -0.094063 0
14.900000 -0.093935 0
14.905000 -0.093671 0
14.910000 -0.093293 0
14.915000 -0.092824 0
14.920000 -0.092281 0
14.925000 -0.091678 0
14.930000 -0.091028 0
14.935000 -0.090341 0
14.940000 -0.089625 0
14.945000 -0.088888 0
14.950000 -0.088134 0
14.955000 -0.087369 0
14.960000 -0.086596 0
14.965000 -0.085793 0
14.970000 -0.084990 0
14.975000 -0.084190 0
14.980000 -0.083394 0
14.985000 -0.082603 0
14.990000 -0.081815 0
14.995000 -0.081031 0
15.000000 -0.080251 0
15.005000 -0.079475 0
15.010000 -0.078703 0
15.015000 -0.077935 0
15.020000 -0.077170 0
15.025000 -0.076410 0
15.030000 -0.075653 0
15.035000 -0.074900 0
15.040000 -0.074151 0
15.045000 -0.073405 0
15.050000 -0.072663 0
15.055000 -0.071925 0
15.060000 -0.071190 0
15.065000 -0.070460 0
15.070000 -0.069732 0
15.075000 -0.069009 0
15.080000 -0.068289 0
15.085000 -0.067573 0
15.090000 -0.066860 0
15.095000 -0.066151 0
15.100000 -0.065445 0
15.105000 -0.064743 0
15.110000 -0.064044 0
15.115000 -0.063349 0
15.120000 -0.062657 0
15.125000 -0.061968 0
15.130000 -0.061283 0
15.135000 -0.060601 0
15.140000 -0.059922 0
15.145000 -0.059245 0
15.150000 -0.058569 0
15.155000 -0.057895 0
15.160000 -0.057219 0
15.165000 -0.056541 0
15.170000 -0.055855 0
15.175000 -0.055156 0
15.180000 -0.054438 0
15.185000 -0.053687 0
15.190000 -0.052889 0
15.195000 -0.052020 0
15.200000 -0.051051 0
15.205000 -0.049942 0
15.210000 -0.048641 0
15.215000 -0.047080 0
15.220000 -0.045176 0
15.225000 -0.042828 0
15.230000 -0.039914 0
15.235000 -0.036293 0
15.240000 -0.031806 0
15.245000 -0.026283 0
15.250000 -0.019542 0
15.255000 -0.011405 0
15.260000 -0.001707 0
15.265000 0.009691 0
15.270000 0.022886 0
15.275000 0.037915 0
15.280000 0.054740 0
15.285000 0.073232 0
15.290000 0.093164 0
15.295000 0.114200 0
15.300000 0.135904 0
15.305000 0.157743 0
15.310000 0.179108 0
15.315000 0.199338 0
15.320000 0.217756 0
15.325000 0.233699 0
15.330000 0.246563 0
15.335000 0.255837 0
15.340000 0.261139 0
15.345000 0.262238 1
15.350000 0.259073 0
15.355000 0.251756 0
15.360000 0.240565 0
15.365000 0.225927 0
15.370000 0.208392 0
15.375000 0.188593 0
15.380000 0.167214 0
15.385000 0.144947 0
15.390000 0.122457 0
15.395000 0.100350 0
15.400000 0.079149 0
15.405000 0.059273 0
15.410000 0.041032 0
15.415000 0.024611 0
15.420000 0.010060 0
15.425000 -0.002743 0
15.430000 -0.014164 0
15.435000 -0.024915 0
15.440000 -0.036181 0
15.445000 -0.049656 0
15.450000 -0.067354 0
15.455000 -0.091051 0
15.460000 -0.121318 0
15.465000 -0.156395 0
15.470000 -0.191378 0
15.475000 -0.218184 0
15.480000 -0.226457 2
15.485000 -0.205051 0
15.490000 -0.143615 0
15.495000 -0.034170 0
15.500000 0.126753 0
15.505000 0.334856 0
15.510000 0.574333 0
15.515000 0.816037 0
15.520000 1.020628 0
15.525000 1.147813 0
15.530000 1.168987 3
15.535000 1.078470 0
15.540000 0.893806 0
15.545000 0.649197 0
15.550000 0.384786 0
15.555000 0.135966 0
15.560000 -0.072652 0
15.565000 -0.228076 0
15.570000 -0.326789 0
15.575000 -0.372222 0
15.580000 -0.372961 4
15.585000 -0.341249 0
15.590000 -0.290996 0
15.595000 -0.235250 0
15.600000 -0.183894 0
15.605000 -0.142457 0
15.610000 -0.112372 0
15.615000 -0.092250 0
15.620000 -0.079435 0
15.625000 -0.071212 0
15.630000 -0.065441 0
15.635000 -0.060695 0
15.640000 -0.056134 0
15.645000 -0.051305 0
15.650000 -0.045967 0
15.655000 -0.039982 0
15.660000 -0.033256 0
15.665000 -0.025716 0
15.670000 -0.017293 0
15.675000 -0.007926 0
15.680000 0.002438 0
15.685000 0.013845 0
15.690000 0.026331 0
15.695000 0.039916 0
15.700000 0.054607 0
15.705000 0.070391 0
15.710000 0.087237 0
15.715000 0.105091 0
15.720000 0.123876 0
15.725000 0.143489 0
15.730000 0.163806 0
15.735000 0.184676 0
15.740000 0.205924 0
15.745000 0.227355 0
15.750000 0.248751 0
15.755000 0.269883 0
15.760000 0.290503 0
15.765000 0.310359 0
15.770000 0.329194 0
15.775000 0.346753 0
15.780000 0.362788 0
15.785000 0.377065 0
15.790000 0.389366 0
15.795000 0.399500 0
15.800000 0.407302 0
15.805000 0.412642 0
15.810000 0.415424 0
15.815000 0.415592 5
15.820000 0.413130 0
15.825000 0.408064 0
15.830000 0.400458 0
15.835000 0.390417 0
15.840000 0.378081 0
15.845000 0.363624 0
15.850000 0.347247 0
15.855000 0.329177 0
15.860000 0.309657 0
15.865000 0.288944 0
15.870000 0.267304 0
15.875000 0.245001 0
15.880000 0.222298 0
15.885000 0.199447 0
15.890000 0.176689 0
15.895000 0.154244 0
15.900000 0.132315 0
15.905000 0.111081 0
15.910000 0.090695 0
15.915000 0.071286 0
15.920000 0.052956 0
15.925000 0.035782 0
15.930000 0.019816 0
15.935000 0.005088 0
15.940000 -0.008393 0
15.945000 -0.020639 0
15.950000 -0.031675 0
15.955000 -0.041543 0
15.960000 -0.050295 0
15.965000 -0.057992 0
15.970000 -0.064702 0
15.975000 -0.070498 0
15.980000 -0.075453 0
15.985000 -0.079642 0
15.990000 -0.083141 0
15.995000 -0.086021 0
16.000000 -0.088351 0
16.005000 -0.090195 0
16.010000 -0.091616 0
16.015000 -0.092668 0
16.020000 -0.093402 0
16.025000 -0.093864 0
16.030000 -0.094095 0
16.035000 -0.094131 0
16.040000 -0.094005 0
16.045000 -0.093742 0
16.050000 -0.093368 0
16.055000 -0.092903 0
16.060000 -0.092364 0
16.065000 -0.091765 0
16.070000 -0.091118 0
16.075000 -0.090435 0
16.080000 -0.089722 0
16.085000 -0.088988 0
16.090000 -0.088236 0
16.095000 -0.087473 0
16.100000 -0.086701 0
16.105000 -0.085918 0
16.110000 -0.085114 0
16.115000 -0.084314 0
16.120000 -0.083517 0
16.125000 -0.082725 0
16.130000 -0.081937 0
16.135000 -0.081152 0
16.140000 -0.080372 0
16.145000 -0.079595 0
16.150000 -0.078823 0
16.155000 -0.078054 0
16.160000 -0.077289 0
16.165000 -0.076527 0
16.170000 -0.075770 0
16.175000 -0.075016 0
16.180000 -0.074266 0
16.185000 -0.073520 0
16.190000 -0.072778 0
16.195000 -0.072039 0
16.200000 -0.071304 0
16.205000 -0.070573 0
16.210000 -0.069845 0
16.215000 -0.069121 0
16.220000 -0.068400 0
16.225000 -0.067683 0
16.230000 -0.066970 0
16.235000 -0.066260 0
16.240000 -0.065554 0
16.245000 -0.064851 0
16.250000 -0.064152 0
16.255000 -0.063456 0
16.260000 -0.062764 0
16.265000 -0.062075 0
16.270000 -0.061389 0
16.275000 -0.060707 0
16.280000 -0.060027 0
16.285000 -0.059351 0
16.290000 -0.058676 0
16.295000 -0.058003 0
16.300000 -0.057330 0
16.305000 -0.056656 0
16.310000 -0.055978 0
16.315000 -0.055293 0
16.320000 -0.054593 0
16.325000 -0.053872 0
16.330000 -0.053116 0
16.335000 -0.052311 0
16.340000 -0.051432 0
16.345000 -0.050450 0
16.350000 -0.049324 0
16.355000 -0.048002 0
16.360000 -0.046417 0
16.365000 -0.044487 0
16.370000 -0.042111 0
16.375000 -0.039171 0
16.380000 -0.035529 0
16.385000 -0.031029 0
16.390000 -0.025506 0
16.395000 -0.018784 0
16.400000 -0.010689 0
16.405000 -0.001061 0
16.410000 0.010238 0
16.415000 0.023303 0
16.420000 0.038175 0
16.425000 0.054824 0
16.430000 0.073133 0
16.435000 0.092891 0
16.440000 0.113787 0
16.445000 0.135408 0
16.450000 0.157250 0
16.455000 0.178731 0
16.460000 0.199218 0
16.465000 0.218050 0
16.470000 0.234578 0
16.475000 0.248200 0
16.480000 0.258395 0
16.485000 0.264757 0
16.490000 0.267020 1
16.495000 0.265078 0
16.500000 0.258992 0
16.505000 0.248984 0
16.510000 0.235425 0
16.515000 0.218814 0
16.520000 0.199743 0
16.525000 0.178861 0
16.530000 0.156845 0
16.535000 0.134354 0
16.540000 0.112004 0
16.545000 0.090340 0
16.550000 0.069815 0
16.555000 0.050778 0
16.560000 0.033468 0
16.565000 0.017997 0
16.570000 0.004336 0
16.575000 -0.007741 0
16.580000 -0.018736 0
16.585000 -0.029542 0
16.590000 -0.041540 0
16.595000 -0.056554 0
16.600000 -0.076538 0
16.605000 -0.102871 0
16.610000 -0.135340 0
16.615000 -0.171130 0
16.620000 -0.204290 0
16.625000 -0.226039 2
16.630000 -0.225871 0
16.635000 -0.193036 0
16.640000 -0.118014 0
16.645000 0.005914 0
16.650000 0.180360 0
16.655000 0.398483 0
16.660000 0.641641 0
16.665000 0.878596 0
16.670000 1.069889 0
16.675000 1.177686 0
16.680000 1.177777 3
16.685000 1.066620 0
16.690000 0.865407 0
16.695000 0.612276 0
16.700000 0.348834 0
16.705000 0.109452 0
16.710000 -0.083726 0
16.715000 -0.220470 0
16.720000 -0.299766 0
16.725000 -0.327289 4
16.730000 -0.313651 0
16.735000 -0.272632 0
16.740000 -0.218715 0
16.745000 -0.164301 0
16.750000 -0.117645 0
16.755000 -0.082309 0
16.760000 -0.058079 0
16.765000 -0.042610 0
16.770000 -0.032977 0
16.775000 -0.026651 0
16.780000 -0.021851 0
16.785000 -0.017493 0
16.790000 -0.012985 0
16.795000 -0.008017 0
16.800000 -0.002421 0
16.805000 0.003911 0
16.810000 0.011060 0
16.815000 0.019099 0
16.820000 0.028093 0
16.825000 0.038099 0
16.830000 0.049169 0
16.835000 0.061339 0
16.840000 0.074634 0
16.845000 0.089063 0
16.850000 0.104614 0
16.855000 0.121255 0
16.860000 0.138931 0
16.865000 0.157561 0
16.870000 0.177040 0
16.875000 0.197233 0
16.880000 0.217983 0
16.885000 0.239104 0
16.890000 0.260391 0
16.895000 0.281614 0
16.900000 0.302528 0
16.905000 0.322875 0
16.910000 0.342390 0
16.915000 0.360802 0
16.920000 0.377846 0
16.925000 0.393267 0
16.930000 0.406823 0
16.935000 0.418295 0
16.940000 0.427491 0
16.945000 0.434251 0
16.950000 0.438451 0
16.955000 0.440008 5
16.960000 0.438880 0
16.965000 0.435070 0
16.970000 0.428623 0
16.975000 0.419628 0
16.980000 0.408212 0
16.985000 0.394543 0
16.990000 0.378818 0
16.995000 0.361263 0
17.000000 0.342127 0
17.005000 0.321674 0
17.010000 0.300179 0
17.015000 0.277919 0
17.020000 0.255170 0
17.025000 0.232199 0
17.030000 0.209262 0
17.035000 0.186595 0
17.040000 0.164414 0
17.045000 0.142911 0
17.050000 0.122251 0
17.055000 0.102572 0
17.060000 0.083984 0
17.065000 0.066572 0
17.070000 0.050392 0
17.075000 0.035475 0
17.080000 0.021833 0
17.085000 0.009454 0
17.090000 -0.001690 0
17.095000 -0.011642 0
17.100000 -0.020457 0
17.105000 -0.028200 0
17.110000 -0.034942 0
17.115000 -0.040759 0
17.120000 -0.045729 0
17.125000 -0.049930 0
17.130000 -0.053439 0
17.135000 -0.056332 0
17.140000 -0.058679 0
17.145000 -0.060546 0
17.150000 -0.061997 0
17.155000 -0.063088 0
17.160000 -0.063869 0
17.165000 -0.064388 0
17.170000 -0.064684 0
17.175000 -0.064795 0
17.180000 -0.064751 0
17.185000 -0.064579 0
17.190000 -0.064302 0
17.195000 -0.063940 0
17.200000 -0.063510 0
17.205000 -0.063026 0
17.210000 -0.062498 0
17.215000 -0.061937 0
17.220000 -0.061350 0
17.225000 -0.060743 0
17.230000 -0.060121 0
17.235000 -0.059489 0
17.240000 -0.058845 0
17.245000 -0.058175 0
17.250000 -0.057509 0
17.255000 -0.056847 0
17.260000 -0.056188 0
17.265000 -0.055532 0
17.270000 -0.054879 0
17.275000 -0.054229 0
17.280000 -0.053583 0
17.285000 -0.052940 0
17.290000 -0.052300 0
17.295000 -0.051664 0
17.300000 -0.051030 0
17.305000 -0.050400 0
17.310000 -0.049773 0
17.315000 -0.049149 0
17.320000 -0.048528 0
17.325000 -0.047910 0
17.330000 -0.047296 0
17.335000 -0.046684 0
17.340000 -0.046075 0
17.345000 -0.045470 0
17.350000 -0.044867 0
17.355000 -0.044268 0
17.360000 -0.043671 0
17.365000 -0.043078 0
17.370000 -0.042487 0
17.375000 -0.041899 0
17.380000 -0.041315 0
17.385000 -0.040733 0
17.390000 -0.040154 0
17.395000 -0.039578 0
17.400000 -0.039004 0
17.405000 -0.038434 0
17.410000 -0.037865 0
17.415000 -0.037300 0
17.420000 -0.036736 0
17.425000 -0.036173 0
17.430000 -0.035611 0
17.435000 -0.035047 0
17.440000 -0.034480 0
17.445000 -0.033906 0
17.450000 -0.033319 0
17.455000 -0.032713 0
17.460000 -0.032075 0
17.465000 -0.031390 0
17.470000 -0.030636 0
17.475000 -0.029784 0
17.480000 -0.028793 0
17.485000 -0.027611 0
17.490000 -0.026172 0
17.495000 -0.024391 0
17.500000 -0.022166 0
17.505000 -0.019374 0
17.510000 -0.015873 0
17.515000 -0.011501 0
17.520000 -0.006085 0
17.525000 0.000559 0
17.530000 0.008613 0
17.535000 0.018244 0
17.540000 0.029593 0
17.545000 0.042756 0
17.550000 0.057770 0
17.555000 0.074592 0
17.560000 0.093086 0
17.565000 0.113013 0
17.570000 0.134027 0
17.575000 0.155674 0
17.580000 0.177407 0
17.585000 0.198599 0
17.590000 0.218576 0
17.595000 0.236648 0
17.600000 0.252148 0
17.605000 0.264471 0
17.610000 0.273114 0
17.615000 0.277708 0
17.620000 0.278043 1
17.625000 0.274086 0
17.630000 0.265980 0
17.635000 0.254035 0
17.640000 0.238712 0
17.645000 0.220588 0
17.650000 0.200320 0
17.655000 0.178608 0
17.660000 0.156153 0
17.665000 0.133619 0
17.670000 0.111606 0
17.675000 0.090619 0
17.680000 0.071059 0
17.685000 0.053208 0
17.690000 0.037221 0
17.695000 0.023103 0
17.700000 0.010670 0
17.705000 -0.000540 0
17.710000 -0.011385 0
17.715000 -0.023232 0
17.720000 -0.037943 0
17.725000 -0.057570 0
17.730000 -0.083632 0
17.735000 -0.116019 0
17.740000 -0.151884 0
17.745000 -0.185035 0
17.750000 -0.206259 2
17.755000 -0.204537 0
17.760000 -0.168665 0
17.765000 -0.088863 0
17.770000 0.041461 0
17.775000 0.223068 0
17.780000 0.447130 0
17.785000 0.691812 0
17.790000 0.922238 0
17.795000 1.096535 0
17.800000 1.177512 3
17.805000 1.144050 0
17.810000 1.001064 0
17.815000 0.777884 0
17.820000 0.516636 0
17.825000 0.258734 0
17.830000 0.035345 0
17.835000 -0.135619 0
17.840000 -0.247784 0
17.845000 -0.303283 0
17.850000 -0.310440 4
17.855000 -0.282009 0
17.860000 -0.232955 0
17.865000 -0.177543 0
17.870000 -0.126587 0
17.875000 -0.086027 0
17.880000 -0.057228 0
17.885000 -0.038507 0
17.890000 -0.026931 0
17.895000 -0.019641 0
17.900000 -0.014488 0
17.905000 -0.010108 0
17.910000 -0.005737 0
17.915000 -0.000977 0
17.920000 0.004381 0
17.925000 0.010460 0
17.930000 0.017352 0
17.935000 0.025133 0
17.940000 0.033871 0
17.945000 0.043630 0
17.950000 0.054462 0
17.955000 0.066410 0
17.960000 0.079501 0
17.965000 0.093748 0
17.970000 0.109140 0
17.975000 0.125649 0
17.980000 0.143217 0
17.985000 0.161766 0
17.990000 0.181185 0
17.995000 0.201339 0
18.000000 0.222064 0
18.005000 0.243169 0
18.010000 0.264439 0
18.015000 0.285638 0
18.020000 0.306510 0
18.025000 0.326787 0
18.030000 0.346194 0
18.035000 0.364451 0
18.040000 0.381284 0
18.045000 0.396429 0
18.050000 0.409640 0
18.055000 0.420694 0
18.060000 0.429398 0
18.065000 0.435592 0
18.070000 0.439159 0
18.075000 0.440020 5
18.080000 0.438146 0
18.085000 0.433550 0
18.090000 0.426293 0
18.095000 0.416479 0
18.100000 0.404255 0
18.105000 0.389804 0
18.110000 0.373343 0
18.115000 0.355115 0
18.120000 0.335385 0
18.125000 0.314432 0
18.130000 0.292542 0
18.135000 0.270003 0
18.140000 0.247097 0
18.145000 0.224096 0
18.150000 0.201253 0
18.155000 0.178804 0
18.160000 0.156958 0
18.165000 0.135900 0
18.170000 0.115784 0
18.175000 0.096737 0
18.180000 0.078856 0
18.185000 0.062209 0
18.190000 0.046839 0
18.195000 0.032764 0
18.200000 0.019978 0
18.205000 0.008459 0
18.210000 -0.001835 0
18.215000 -0.010958 0
18.220000 -0.018973 0
18.225000 -0.025955 0
18.230000 -0.031979 0
18.235000 -0.037128 0
18.240000 -0.041481 0
18.245000 -0.045119 0
18.250000 -0.048120 0
18.255000 -0.050558 0
18.260000 -0.052503 0
18.265000 -0.054018 0
18.270000 -0.055164 0
18.275000 -0.055993 0
18.280000 -0.056554 0
18.285000 -0.056888 0
18.290000 -0.057033 0
18.295000 -0.057022 0
18.300000 -0.056881 0
18.305000 -0.056636 0
18.310000 -0.056305 0
18.315000 -0.055906 0
18.320000 -0.055453 0
18.325000 -0.054957 0
18.330000 -0.054428 0
18.335000 -0.053874 0
18.340000 -0.053301 0
18.345000 -0.052713 0
18.350000 -0.052115 0
18.355000 -0.051505 0
18.360000 -0.050872 0
18.365000 -0.050243 0
18.370000 -0.049616 0
18.375000 -0.048993 0
18.380000 -0.048373 0
18.385000 -0.047756 0
18.390000 -0.047142 0
18.395000 -0.046531 0
18.400000 -0.045924 0
18.405000 -0.045319 0
18.410000 -0.044717 0
18.415000 -0.044118 0
18.420000 -0.043522 0
18.425000 -0.042930 0
18.430000 -0.042340 0
18.435000 -0.041753 0
18.440000 -0.041169 0
18.445000 -0.040588 0
18.450000 -0.040010 0
18.455000 -0.039434 0
18.460000 -0.038862 0
18.465000 -0.038292 0
18.470000 -0.037725 0
18.475000 -0.037162 0
18.480000 -0.036600 0
18.485000 -0.036042 0
18.490000 -0.035487 0
18.495000 -0.034934 0
18.500000 -0.034384 0
18.505000 -0.033836 0
18.510000 -0.033292 0
18.515000 -0.032750 0
18.520000 -0.032210 0
18.525000 -0.031672 0
18.530000 -0.031136 0
18.535000 -0.030602 0
18.540000 -0.030068 0
18.545000 -0.029532 0
18.550000 -0.028993 0
18.555000 -0.028446 0
18.560000 -0.027887 0
18.565000 -0.027308 0
18.570000 -0.026696 0
18.575000 -0.026036 0
18.580000 -0.025304 0
18.585000 -0.024469 0
18.590000 -0.023489 0
18.595000 -0.022308 0
18.600000 -0.020856 0
18.605000 -0.019042 0
18.610000 -0.016759 0
18.615000 -0.013874 0
18.620000 -0.010237 0
18.625000 -0.005678 0
18.630000 -0.000014 0
18.635000 0.006946 0
18.640000 0.015388 0
18.645000 0.025479 0
18.650000 0.037355 0
18.655000 0.051098 0
18.660000 0.066720 0
18.665000 0.084146 0
18.670000 0.103199 0
18.675000 0.123589 0
18.680000 0.144914 0
18.685000 0.166661 0
18.690000 0.188226 0
18.695000 0.208933 0
18.700000 0.228072 0
18.705000 0.244934 0
18.710000 0.258856 0
18.715000 0.269260 0
18.720000 0.275696 0
18.725000 0.277870 1
18.730000 0.275669 0
18.735000 0.269165 0
18.740000 0.258614 0
18.745000 0.244437 0
18.750000 0.227191 0
18.755000 0.207535 0
18.760000 0.186183 0
18.765000 0.163864 0
18.770000 0.141283 0
18.775000 0.119078 0
18.780000 0.097802 0
18.785000 0.077894 0
18.790000 0.059676 0
18.795000 0.043333 0
18.800000 0.028903 0
18.805000 0.016229 0
18.810000 0.004882 0
18.815000 -0.005970 0
18.820000 -0.017682 0
18.825000 -0.032143 0
18.830000 -0.051482 0
18.835000 -0.077323 0
18.840000 -0.109633 0
18.845000 -0.145519 0
18.850000 -0.178574 0
18.855000 -0.199214 2
18.860000 -0.195995 0
18.865000 -0.157354 0
18.870000 -0.073330 0
18.875000 0.062497 0
18.880000 0.250044 0
18.885000 0.478648 0
18.890000 0.723660 0
18.895000 0.947237 0
18.900000 1.105918 0
18.905000 1.163793 3
18.910000 1.103630 0
18.915000 0.936681 0
18.920000 0.698457 0
18.925000 0.434270 0
18.930000 0.185034 0
18.935000 -0.021085 0
18.940000 -0.169914 0
18.945000 -0.258493 0
18.950000 -0.291927 4
18.955000 -0.281185 0
18.960000 -0.241050 0
18.965000 -0.187271 0
18.970000 -0.133278 0
18.975000 -0.087777 0
18.980000 -0.054199 0
18.985000 -0.031892 0
18.990000 -0.018099 0
18.995000 -0.009678 0
19.000000 -0.004085 0
19.005000 0.000363 0
19.010000 0.004629 0
19.015000 0.009214 0
19.020000 0.014373 0
19.025000 0.020251 0
19.030000 0.026947 0
19.035000 0.034543 0
19.040000 0.043114 0
19.045000 0.052725 0
19.050000 0.063435 0
19.055000 0.075287 0
19.060000 0.088313 0
19.065000 0.102525 0
19.070000 0.117913 0
19.075000 0.134444 0
19.080000 0.152060 0
19.085000 0.170674 0
19.090000 0.190167 0
19.095000 0.210393 0
19.100000 0.231175 0
19.105000 0.252309 0
19.110000 0.273563 0
19.115000 0.294683 0
19.120000 0.315399 0
19.125000 0.335425 0
19.130000 0.354468 0
19.135000 0.372238 0
19.140000 0.388449 0
19.145000 0.402829 0
19.150000 0.415129 0
19.155000 0.425128 0
19.160000 0.432636 0
19.165000 0.437508 0
19.170000 0.439641 5
19.175000 0.438977 0
19.180000 0.435512 0
19.185000 0.429288 0
19.190000 0.420397 0
19.195000 0.408976 0
19.200000 0.395206 0
19.205000 0.379302 0
19.210000 0.361514 0
19.215000 0.342113 0
19.220000 0.321389 0
19.225000 0.299642 0
19.230000 0.277175 0
19.235000 0.254285 0
19.240000 0.231259 0
19.245000 0.208367 0
19.250000 0.185857 0
19.255000 0.163953 0
19.260000 0.142848 0
19.265000 0.122706 0
19.270000 0.103660 0
19.275000 0.085810 0
19.280000 0.069227 0
19.285000 0.053954 0
19.290000 0.040008 0
19.295000 0.027379 0
19.300000 0.016041 0
19.305000 0.005947 0
19.310000 -0.002960 0
19.315000 -0.010751 0
19.320000 -0.017504 0
19.325000 -0.023301 0
19.330000 -0.028227 0
19.335000 -0.032367 0
19.340000 -0.035804 0
19.345000 -0.038619 0
19.350000 -0.040887 0
19.355000 -0.042680 0
19.360000 -0.044062 0
19.365000 -0.045093 0
19.370000 -0.045826 0
19.375000 -0.046307 0
19.380000 -0.046579 0
19.385000 -0.046677 0
19.390000 -0.046633 0
19.395000 -0.046472 0
19.400000 -0.046217 0
19.405000 -0.045888 0
19.410000 -0.045498 0
19.415000 -0.045062 0
19.420000 -0.044589 0
19.425000 -0.044089 0
19.430000 -0.043567 0
19.435000 -0.043030 0
19.440000 -0.042482 0
19.445000 -0.041921 0
19.450000 -0.041336 0
19.455000 -0.040754 0
19.460000 -0.040175 0
19.465000 -0.039599 0
19.470000 -0.039026 0
19.475000 -0.038455 0
19.480000 -0.037888 0
19.485000 -0.037323 0
19.490000 -0.036761 0
19.495000 -0.036202 0
19.500000 -0.035646 0
19.505000 -0.035092 0
19.510000 -0.034541 0
19.515000 -0.033993 0
19.520000 -0.033448 0
19.525000 -0.032906 0
19.530000 -0.032366 0
19.535000 -0.031829 0
19.540000 -0.031294 0
19.545000 -0.030762 0
19.550000 -0.030233 0
19.555000 -0.029707 0
19.560000 -0.029183 0
19.565000 -0.028661 0
19.570000 -0.028143 0
19.575000 -0.027626 0
19.580000 -0.027113 0
19.585000 -0.026602 0
19.590000 -0.026093 0
19.595000 -0.025587 0
19.600000 -0.025084 0
19.605000 -0.024582 0
19.610000 -0.024083 0
19.615000 -0.023585 0
19.620000 -0.023089 0
19.625000 -0.022592 0
19.630000 -0.022095 0
19.635000 -0.021594 0
19.640000 -0.021086 0
19.645000 -0.020565 0
19.650000 -0.020024 0
19.655000 -0.019450 0
19.660000 -0.018826 0
19.665000 -0.018129 0
19.670000 -0.017325 0
19.675000 -0.016370 0
19.680000 -0.015203 0
19.685000 -0.013750 0
19.690000 -0.011913 0
19.695000 -0.009575 0
19.700000 -0.006595 0
19.705000 -0.002809 0
19.710000 0.001963 0
19.715000 0.007918 0
19.720000 0.015255 0
19.725000 0.024167 0
19.730000 0.034820 0
19.735000 0.047340 0
19.740000 0.061789 0
19.745000 0.078148 0
19.750000 0.096293 0
19.755000 0.115990 0
19.760000 0.136877 0
19.765000 0.158475 0
19.770000 0.180194 0
19.775000 0.201354 0
19.780000 0.221221 0
19.785000 0.239044 0
19.790000 0.254101 0
19.795000 0.265750 0
19.800000 0.273466 0
19.805000 0.276887 1
19.810000 0.275838 0
19.815000 0.270341 0
19.820000 0.260621 0
19.825000 0.247085 0
19.830000 0.230295 0
19.835000 0.210925 0
19.840000 0.189723 0
19.845000 0.167453 0
19.850000 0.144859 0
19.855000 0.122617 0
19.860000 0.101312 0
19.865000 0.081407 0
19.870000 0.063237 0
19.875000 0.046994 0
19.880000 0.032703 0
19.885000 0.020180 0
19.890000 0.008932 0
19.895000 -0.001984 0
19.900000 -0.014092 0
19.905000 -0.029455 0
19.910000 -0.050276 0
19.915000 -0.077960 0
19.920000 -0.111782 0
19.925000 -0.147666 0
19.930000 -0.177740 0
19.935000 -0.191094 2
19.940000 -0.175449 0
19.945000 -0.119106 0
19.950000 -0.012858 0
19.955000 0.147491 0
19.960000 0.357236 0
19.965000 0.598243 0
19.970000 0.836990 0
19.975000 1.029151 0
19.980000 1.131756 3
19.985000 1.118358 0
19.990000 0.989866 0
19.995000 0.774126 0
20.000000 0.514684 0
20.005000 0.255737 0
20.010000 0.030969 0
20.015000 -0.140250 0
20.020000 -0.251104 0
20.025000 -0.303988 0
20.030000 -0.307944 4
20.035000 -0.276686 0
20.040000 -0.226060 0
20.045000 -0.170765 0
20.050000 -0.121445 0
20.055000 -0.083397 0
20.060000 -0.057228 0
20.065000 -0.040695 0
20.070000 -0.030623 0
20.075000 -0.024184 0
20.080000 -0.019387 0
20.085000 -0.015041 0
20.090000 -0.010513 0
20.095000 -0.005478 0
20.100000 0.000234 0
20.105000 0.006735 0
20.110000 0.014111 0
20.115000 0.022441 0
20.120000 0.031791 0
20.125000 0.042225 0
20.130000 0.053790 0
20.135000 0.066524 0
20.140000 0.080444 0
20.145000 0.095547 0
20.150000 0.111811 0
20.155000 0.129182 0
20.160000 0.147583 0
20.165000 0.166905 0
20.170000 0.187010 0
20.175000 0.207730 0
20.180000 0.228866 0
20.185000 0.250195 0
20.190000 0.271468 0
20.195000 0.292417 0
20.200000 0.312759 0
20.205000 0.332201 0
20.210000 0.350452 0
20.215000 0.367219 0
20.220000 0.382228 0
20.225000 0.395219 0
20.230000 0.405961 0
20.235000 0.414256 0
20.240000 0.419945 0
20.245000 0.422911 0
20.250000 0.423084 5
20.255000 0.420446 0
20.260000 0.415025 0
20.265000 0.406902 0
20.270000 0.396203 0
20.275000 0.383098 0
20.280000 0.367796 0
20.285000 0.350538 0
20.290000 0.331592 0
20.295000 0.311246 0
20.300000 0.289800 0
20.305000 0.267556 0
20.310000 0.244817 0
20.315000 0.221873 0
20.320000 0.199000 0
20.325000 0.176453 0
20.330000 0.154462 0
20.335000 0.133230 0
20.340000 0.112928 0
20.345000 0.093696 0
20.350000 0.075642 0
20.355000 0.058845 0
20.360000 0.043353 0
20.365000 0.029188 0
20.370000 0.016348 0
20.375000 0.004808 0
20.380000 -0.005474 0
20.385000 -0.014554 0
20.390000 -0.022501 0
20.395000 -0.029392 0
20.400000 -0.035308 0
20.405000 -0.040334 0
20.410000 -0.044556 0
20.415000 -0.048058 0
20.420000 -0.050921 0
20.425000 -0.053223 0
20.430000 -0.055036 0
20.435000 -0.056426 0
20.440000 -0.057454 0
20.445000 -0.058174 0
20.450000 -0.058635 0
20.455000 -0.058879 0
20.460000 -0.058943 0
20.465000 -0.058859 0
20.470000 -0.058656 0
20.475000 -0.058354 0
20.480000 -0.057975 0
20.485000 -0.057535 0
20.490000 -0.057045 0
20.495000 -0.056518 0
20.500000 -0.055963 0
20.505000 -0.055385 0
20.510000 -0.054792 0
20.515000 -0.054186 0
20.520000 -0.053568 0
20.525000 -0.052925 0
20.530000 -0.052286 0
20.535000 -0.051649 0
20.540000 -0.051016 0
20.545000 -0.050385 0
20.550000 -0.049758 0
20.555000 -0.049134 0
20.560000 -0.048514 0
20.565000 -0.047896 0
20.570000 -0.047281 0
20.575000 -0.046670 0
20.580000 -0.046061 0
20.585000 -0.045456 0
20.590000 -0.044853 0
20.595000 -0.044254 0
20.600000 -0.043657 0
20.605000 -0.043064 0
20.610000 -0.042473 0
20.615000 -0.041886 0
20.620000 -0.041301 0
20.625000 -0.040719 0
20.630000 -0.040141 0
20.635000 -0.039565 0
20.640000 -0.038991 0
20.645000 -0.038421 0
20.650000 -0.037854 0
20.655000 -0.037289 0
20.660000 -0.036728 0
20.665000 -0.036168 0
20.670000 -0.035612 0
20.675000 -0.035059 0
20.680000 -0.034507 0
20.685000 -0.033959 0
20.690000 -0.033412 0
20.695000 -0.032866 0
20.700000 -0.032321 0
20.705000 -0.031776 0
20.710000 -0.031227 0
20.715000 -0.030671 0
20.720000 -0.030104 0
20.725000 -0.029516 0
20.730000 -0.028897 0
20.735000 -0.028229 0
20.740000 -0.027489 0
20.745000 -0.026644 0
20.750000 -0.025649 0
20.755000 -0.024445 0
20.760000 -0.022957 0
20.765000 -0.021089 0
20.770000 -0.018722 0
20.775000 -0.015716 0
20.780000 -0.011908 0
20.785000 -0.007115 0
20.790000 -0.001142 0
20.795000 0.006214 0
20.800000 0.015143 0
20.805000 0.025816 0
20.810000 0.038359 0
20.815000 0.052836 0
20.820000 0.069226 0
20.825000 0.087408 0
20.830000 0.107146 0
20.835000 0.128078 0
20.840000 0.149721 0
20.845000 0.171483 0
20.850000 0.192680 0
20.855000 0.212575 0
20.860000 0.230414 0
20.865000 0.245472 0
20.870000 0.257103 0
20.875000 0.264786 0
20.880000 0.268158 1
20.885000 0.267047 0
20.890000 0.261482 0
20.895000 0.251693 0
20.900000 0.238092 0
20.905000 0.221249 0
20.910000 0.201845 0
20.915000 0.180631 0
20.920000 0.158376 0
20.925000 0.135824 0
20.930000 0.113653 0
20.935000 0.092442 0
20.940000 0.072655 0
20.945000 0.054619 0
20.950000 0.038518 0
20.955000 0.024371 0
20.960000 0.011977 0
20.965000 0.000818 0
20.970000 -0.010085 0
20.975000 -0.022300 0
20.980000 -0.037927 0
20.985000 -0.059160 0
20.990000 -0.087306 0
20.995000 -0.121431 0
21.000000 -0.157159 0
21.005000 -0.186308 0
21.010000 -0.197742 2
21.015000 -0.179101 0
21.020000 -0.118765 0
21.025000 -0.007802 0
21.030000 0.157394 0
21.035000 0.371058 0
21.040000 0.613549 0
21.045000 0.849845 0
21.050000 1.034914 0
21.055000 1.126589 3
21.060000 1.102660 0
21.065000 0.967282 0
21.070000 0.748596 0
21.075000 0.488711 0
21.080000 0.229862 0
21.085000 0.004290 0
21.090000 -0.169204 0
21.095000 -0.283687 0
21.100000 -0.340996 0
21.105000 -0.349340 4
21.110000 -0.321488 0
21.115000 -0.272536 0
21.120000 -0.216940 0
21.125000 -0.165702 0
21.130000 -0.124879 0
21.135000 -0.095878 0
21.140000 -0.077003 0
21.145000 -0.065288 0
21.150000 -0.057852 0
21.155000 -0.052534 0
21.160000 -0.047971 0
21.165000 -0.043403 0
21.170000 -0.038436 0
21.175000 -0.032862 0
21.180000 -0.026559 0
21.185000 -0.019437 0
21.190000 -0.011418 0
21.195000 -0.002433 0
21.200000 0.007581 0
21.205000 0.018677 0
21.210000 0.030897 0
21.215000 0.044267 0
21.220000 0.058797 0
21.225000 0.074477 0
21.230000 0.091274 0
21.235000 0.109130 0
21.240000 0.127959 0
21.245000 0.147650 0
21.250000 0.168061 0
21.255000 0.189023 0
21.260000 0.210341 0
21.265000 0.231793 0
21.270000 0.253139 0
21.275000 0.274119 0
21.280000 0.294459 0
21.285000 0.313880 0
21.290000 0.332101 0
21.295000 0.348845 0
21.300000 0.363849 0
21.305000 0.376867 0
21.310000 0.387679 0
21.315000 0.396094 0
21.320000 0.401961 0
21.325000 0.405166 0
21.330000 0.405642 5
21.335000 0.403366 0
21.340000 0.398362 0
21.345000 0.390701 0
21.350000 0.380498 0
21.355000 0.367909 0
21.360000 0.353130 0
21.365000 0.336384 0
21.370000 0.317924 0
21.375000 0.298021 0
21.380000 0.276961 0
21.385000 0.255032 0
21.390000 0.232525 0
21.395000 0.209723 0
21.400000 0.186895 0
21.405000 0.164294 0
21.410000 0.142150 0
21.415000 0.120669 0
21.420000 0.100026 0
21.425000 0.080371 0
21.430000 0.061822 0
21.435000 0.044468 0
21.440000 0.028371 0
21.445000 0.013564 0
21.450000 0.000058 0
21.455000 -0.012158 0
21.460000 -0.023115 0
21.465000 -0.032858 0
21.470000 -0.041446 0
21.475000 -0.048948 0
21.480000 -0.055438 0
21.485000 -0.060996 0
21.490000 -0.065704 0
21.495000 -0.069644 0
21.500000 -0.072897 0
21.505000 -0.075538 0
21.510000 -0.077643 0
21.515000 -0.079278 0
21.520000 -0.080507 0
21.525000 -0.081388 0
21.530000 -0.081971 0
21.535000 -0.082304 0
21.540000 -0.082426 0
21.545000 -0.082373 0
21.550000 -0.082176 0
21.555000 -0.081861 0
21.560000 -0.081451 0
21.565000 -0.080963 0
21.570000 -0.080414 0
21.575000 -0.079816 0
21.580000 -0.079181 0
21.585000 -0.078517 0
21.590000 -0.077832 0
21.595000 -0.077130 0
21.600000 -0.076416 0
21.605000 -0.075695 0
21.610000 -0.074946 0
21.615000 -0.074197 0
21.620000 -0.073451 0
21.625000 -0.072709 0
21.630000 -0.071971 0
21.635000 -0.071236 0
21.640000 -0.070505 0
21.645000 -0.069778 0
21.650000 -0.069054 0
21.655000 -0.068334 0
21.660000 -0.067617 0
21.665000 -0.066904 0
21.670000 -0.066195 0
21.675000 -0.065489 0
21.680000 -0.064786 0
21.685000 -0.064087 0
21.690000 -0.063392 0
21.695000 -0.062700 0
21.700000 -0.062012 0
21.705000 -0.061327 0
21.710000 -0.060645 0
21.715000 -0.059967 0
21.720000 -0.059292 0
21.725000 -0.058620 0
21.730000 -0.057952 0
21.735000 -0.057288 0
21.740000 -0.056626 0
21.745000 -0.055968 0
21.750000 -0.055313 0
21.755000 -0.054661 0
21.760000 -0.054013 0
21.765000 -0.053367 0
21.770000 -0.052725 0
21.775000 -0.052085 0
21.780000 -0.051448 0
21.785000 -0.050812 0
21.790000 -0.050178 0
21.795000 -0.049544 0
21.800000 -0.048907 0
21.805000 -0.048265 0
21.810000 -0.047612 0
21.815000 -0.046942 0
21.820000 -0.046243 0
21.825000 -0.045502 0
21.830000 -0.044696 0
21.835000 -0.043796 0
21.840000 -0.042763 0
21.845000 -0.041545 0
21.850000 -0.040074 0
21.855000 -0.038264 0
21.860000 -0.036010 0
21.865000 -0.033186 0
21.870000 -0.029643 0
21.875000 -0.025213 0
21.880000 -0.019714 0
21.885000 -0.012954 0
21.890000 -0.004744 0
21.895000 0.005093 0
21.900000 0.016699 0
21.905000 0.030171 0
21.910000 0.045535 0
21.915000 0.062735 0
21.920000 0.081609 0
21.925000 0.101887 0
21.930000 0.123180 0
21.935000 0.144989 0
21.940000 0.166716 0
21.945000 0.187688 0
21.950000 0.207189 0
21.955000 0.224502 0
21.960000 0.238945 0
21.965000 0.249923 0
21.970000 0.256960 0
21.975000 0.259740 1
21.980000 0.258125 0
21.985000 0.252166 0
21.990000 0.242104 0
21.995000 0.228346 0
22.000000 0.211445 0
22.005000 0.192058 0
22.010000 0.170903 0
22.015000 0.148718 0
22.020000 0.126217 0
22.025000 0.104052 0
22.030000 0.082787 0
22.035000 0.062875 0
22.040000 0.044646 0
22.045000 0.028295 0
22.050000 0.013869 0
22.055000 0.001217 0
22.060000 -0.010084 0
22.065000 -0.020858 0
22.070000 -0.032464 0
22.075000 -0.046800 0
22.080000 -0.066017 0
22.085000 -0.091765 0
22.090000 -0.124014 0
22.095000 -0.159834 0
22.100000 -0.192723 0
22.105000 -0.212965 2
22.110000 -0.208981 0
22.115000 -0.169102 0
22.120000 -0.083338 0
22.125000 0.054631 0
22.130000 0.244383 0
22.135000 0.474568 0
22.140000 0.719554 0
22.145000 0.940533 0
22.150000 1.093654 0
22.155000 1.143641 3
22.160000 1.077801 0
22.165000 0.910547 0
22.170000 0.674440 0
22.175000 0.410826 0
22.180000 0.157829 0
22.185000 -0.057145 0
22.190000 -0.219072 0
22.195000 -0.323286 0
22.200000 -0.372720 0
22.205000 -0.375895 4
22.210000 -0.345311 0
22.215000 -0.295356 0
22.220000 -0.239606 0
22.225000 -0.188327 0
22.230000 -0.147204 0
22.235000 -0.117616 0
22.240000 -0.098034 0
22.245000 -0.085671 0
22.250000 -0.077751 0
22.255000 -0.072129 0
22.260000 -0.067411 0
22.265000 -0.062793 0
22.270000 -0.057849 0
22.275000 -0.052356 0
22.280000 -0.046181 0
22.285000 -0.039234 0
22.290000 -0.031440 0
22.295000 -0.022729 0
22.300000 -0.013041 0
22.305000 -0.002322 0
22.310000 0.009473 0
22.315000 0.022376 0
22.320000 0.036404 0
22.325000 0.051556 0
22.330000 0.067814 0
22.335000 0.085134 0
22.340000 0.103451 0
22.345000 0.122675 0
22.350000 0.142688 0
22.355000 0.163349 0
22.360000 0.184488 0
22.365000 0.205914 0
22.370000 0.227412 0
22.375000 0.248748 0
22.380000 0.269674 0
22.385000 0.289930 0
22.390000 0.309250 0
22.395000 0.327368 0
22.400000 0.344024 0
22.405000 0.358968 0
22.410000 0.371970 0
22.415000 0.382821 0
22.420000 0.391343 0
22.425000 0.397389 0
22.430000 0.400850 0
22.435000 0.401659 5
22.440000 0.399789 0
22.445000 0.395259 0
22.450000 0.388127 0
22.455000 0.378496 0
22.460000 0.366505 0
22.465000 0.352330 0
22.470000 0.336178 0
22.475000 0.318280 0
22.480000 0.298889 0
22.485000 0.278269 0
22.490000 0.256696 0
22.495000 0.234445 0
22.500000 0.211786 0
22.505000 0.188983 0
22.510000 0.166283 0
22.515000 0.143915 0
22.520000 0.122086 0
22.525000 0.100980 0
22.530000 0.080753 0
22.535000 0.061534 0
22.540000 0.043427 0
22.545000 0.026507 0
22.550000 0.010823 0
22.555000 -0.003598 0
22.560000 -0.016753 0
22.565000 -0.028655 0
22.570000 -0.039337 0
22.575000 -0.048845 0
22.580000 -0.057235 0
22.585000 -0.064574 0
22.590000 -0.070933 0
22.595000 -0.076389 0
22.600000 -0.081018 0
22.605000 -0.084899 0
22.610000 -0.088107 0
22.615000 -0.090717 0
22.620000 -0.092797 0
22.625000 -0.094413 0
22.630000 -0.095626 0
22.635000 -0.096490 0
22.640000 -0.097056 0
22.645000 -0.097369 0
22.650000 -0.097468 0
22.655000 -0.097387 0
22.660000 -0.097159 0
22.665000 -0.096807 0
22.670000 -0.096356 0
22.675000 -0.095823 0
22.680000 -0.095225 0
22.685000 -0.094576 0
22.690000 -0.093885 0
22.695000 -0.093163 0
22.700000 -0.092417 0
22.705000 -0.091653 0
22.710000 -0.090875 0
22.715000 -0.090088 0
22.720000 -0.089290 0
22.725000 -0.088469 0
22.730000 -0.087652 0
22.735000 -0.086839 0
22.740000 -0.086031 0
22.745000 -0.085226 0
22.750000 -0.084425 0
22.755000 -0.083628 0
22.760000 -0.082835 0
22.765000 -0.082046 0
22.770000 -0.081261 0
22.775000 -0.080480 0
22.780000 -0.079703 0
22.785000 -0.078930 0
22.790000 -0.078161 0
22.795000 -0.077395 0
22.800000 -0.076633 0
22.805000 -0.075875 0
22.810000 -0.075121 0
22.815000 -0.074371 0
22.820000 -0.073624 0
22.825000 -0.072881 0
22.830000 -0.072142 0
22.835000 -0.071406 0
22.840000 -0.070674 0
22.845000 -0.069946 0
22.850000 -0.069221 0
22.855000 -0.068500 0
22.860000 -0.067783 0
22.865000 -0.067069 0
22.870000 -0.066359 0
22.875000 -0.065652 0
22.880000 -0.064949 0
22.885000 -0.064249 0
22.890000 -0.063552 0
22.895000 -0.062858 0
22.900000 -0.062166 0
22.905000 -0.061477 0
22.910000 -0.060788 0
22.915000 -0.060100 0
22.920000 -0.059408 0
22.925000 -0.058710 0
22.930000 -0.058001 0
22.935000 -0.057274 0
22.940000 -0.056517 0
22.945000 -0.055715 0
22.950000 -0.054847 0
22.955000 -0.053885 0
22.960000 -0.052790 0
22.965000 -0.051511 0
22.970000 -0.049984 0
22.975000 -0.048127 0
22.980000 -0.045841 0
22.985000 -0.043007 0
22.990000 -0.039484 0
22.995000 -0.035117 0
23.000000 -0.029733 0
23.005000 -0.023151 0
23.010000 -0.015192 0
23.015000 -0.005684 0
23.020000 0.005515 0
23.025000 0.018510 0
23.030000 0.033346 0
23.035000 0.049993 0
23.040000 0.068333 0
23.045000 0.088147 0
23.050000 0.109108 0
23.055000 0.130786 0
23.060000 0.152652 0
23.065000 0.174099 0
23.070000 0.194463 0
23.075000 0.213062 0
23.080000 0.229225 0
23.085000 0.242338 0
23.090000 0.251878 0
23.095000 0.257451 0
23.100000 0.258813 1
23.105000 0.255893 0
23.110000 0.248793 0
23.115000 0.237788 0
23.120000 0.223301 0
23.125000 0.205880 0
23.130000 0.186162 0
23.135000 0.164836 0
23.140000 0.142598 0
23.145000 0.120121 0
23.150000 0.098016 0
23.155000 0.076812 0
23.160000 0.056934 0
23.165000 0.038695 0
23.170000 0.022283 0
23.175000 0.007747 0
23.180000 -0.005036 0
23.185000 -0.016435 0
23.190000 -0.027174 0
23.195000 -0.038454 0
23.200000 -0.051989 0
23.205000 -0.069815 0
23.210000 -0.093700 0
23.215000 -0.124165 0
23.220000 -0.159340 0
23.225000 -0.194152 0
23.230000 -0.220338 0
23.235000 -0.227387 2
23.240000 -0.204068 0
23.245000 -0.140036 0
23.250000 -0.027444 0
23.255000 0.136827 0
23.260000 0.347790 0
23.265000 0.588593 0
23.270000 0.828919 0
23.275000 1.028645 0
23.280000 1.147641 0
23.285000 1.158654 3
23.290000 1.057850 0
23.295000 0.865752 0
23.300000 0.617566 0
23.305000 0.353285 0
23.310000 0.107367 0
23.315000 -0.096747 0
23.320000 -0.247070 0
23.325000 -0.340812 0
23.330000 -0.381912 4
23.335000 -0.379314 0
23.340000 -0.345456 0
23.345000 -0.294241 0
23.350000 -0.238499 0
23.355000 -0.187755 0
23.360000 -0.147170 0
23.365000 -0.117894 0
23.370000 -0.098392 0
23.375000 -0.085973 0
23.380000 -0.077958 0
23.385000 -0.072264 0
23.390000 -0.067517 0
23.395000 -0.062914 0
23.400000 -0.058021 0
23.405000 -0.052608 0
23.410000 -0.046542 0
23.415000 -0.039732 0
23.420000 -0.032104 0
23.425000 -0.023591 0
23.430000 -0.014132 0
23.435000 -0.003674 0
23.440000 0.007827 0
23.445000 0.020407 0
23.450000 0.034085 0
23.455000 0.048867 0
23.460000 0.064740 0
23.465000 0.081671 0
23.470000 0.099604 0
23.475000 0.118462 0
23.480000 0.138143 0
23.485000 0.158519 0
23.490000 0.179440 0
23.495000 0.200730 0
23.500000 0.222194 0
23.505000 0.243615 0
23.510000 0.264761 0
23.515000 0.285387 0
23.520000 0.305241 0
23.525000 0.324066 0
23.530000 0.341607 0
23.535000 0.357619 0
23.540000 0.371868 0
23.545000 0.384138 0
23.550000 0.394238 0
23.555000 0.402006 0
23.560000 0.407311 0
23.565000 0.410061 0
23.570000 0.410199 5
23.575000 0.407711 0
23.580000 0.402622 0
23.585000 0.394999 0
23.590000 0.384946 0
23.595000 0.372604 0
23.600000 0.358145 0
23.605000 0.341773 0
23.610000 0.323712 0
23.615000 0.304206 0
23.620000 0.283511 0
23.625000 0.261892 0
23.630000 0.239613 0
23.635000 0.216935 0
23.640000 0.194111 0
23.645000 0.171379 0
23.650000 0.148961 0
23.655000 0.127058 0
23.660000 0.105848 0
23.665000 0.085484 0
23.670000 0.066096 0
23.675000 0.047785 0
23.680000 0.030627 0
23.685000 0.014676 0
23.690000 -0.000039 0
23.695000 -0.013509 0
23.700000 -0.025745 0
23.705000 -0.036773 0
23.710000 -0.046633 0
23.715000 -0.055379 0
23.720000 -0.063069 0
23.725000 -0.069773 0
23.730000 -0.075562 0
23.735000 -0.080509 0
23.740000 -0.084691 0
23.745000 -0.088181 0
23.750000 -0.091051 0
23.755000 -0.093370 0
23.760000 -0.095204 0
23.765000 -0.096611 0
23.770000 -0.097649 0
23.775000 -0.098368 0
23.780000 -0.098814 0
23.785000 -0.099029 0
23.790000 -0.099047 0
23.795000 -0.098902 0
23.800000 -0.098620 0
23.805000 -0.098226 0
23.810000 -0.097740 0
23.815000 -0.097180 0
23.820000 -0.096560 0
23.825000 -0.095891 0
23.830000 -0.095186 0
23.835000 -0.094451 0
23.840000 -0.093694 0
23.845000 -0.092920 0
23.850000 -0.092134 0
23.855000 -0.091339 0
23.860000 -0.090534 0
23.865000 -0.089707 0
23.870000 -0.088884 0
23.875000 -0.088065 0
23.880000 -0.087250 0
23.885000 -0.086439 0
23.890000 -0.085632 0
23.895000 -0.084829 0
23.900000 -0.084030 0
23.905000 -0.083235 0
23.910000 -0.082445 0
23.915000 -0.081658 0
23.920000 -0.080875 0
23.925000 -0.080096 0
23.930000 -0.079320 0
23.935000 -0.078549 0
23.940000 -0.077781 0
23.945000 -0.077018 0
23.950000 -0.076258 0
23.955000 -0.075502 0
23.960000 -0.074749 0
23.965000 -0.074001 0
23.970000 -0.073256 0
23.975000 -0.072515 0
23.980000 -0.071778 0
23.985000 -0.071044 0
23.990000 -0.070314 0
23.995000 -0.069587 0
24.000000 -0.068864 0
24.005000 -0.068145 0
24.010000 -0.067429 0
24.015000 -0.066717 0
24.020000 -0.066009 0
24.025000 -0.065303 0
24.030000 -0.064601 0
24.035000 -0.063903 0
24.040000 -0.063207 0
24.045000 -0.062513 0
24.050000 -0.061821 0
24.055000 -0.061130 0
24.060000 -0.060437 0
24.065000 -0.059742 0
24.070000 -0.059038 0
24.075000 -0.058323 0
24.080000 -0.057586 0
24.085000 -0.056817 0
24.090000 -0.056001 0
24.095000 -0.055115 0
24.100000 -0.054129 0
24.105000 -0.053006 0
24.110000 -0.051694 0
24.115000 -0.050129 0
24.120000 -0.048231 0
24.125000 -0.045903 0
24.130000 -0.043026 0
24.135000 -0.039468 0
24.140000 -0.035076 0
24.145000 -0.029683 0
24.150000 -0.023118 0
24.155000 -0.015206 0
24.160000 -0.005783 0
24.165000 0.005291 0
24.170000 0.018119 0
24.175000 0.032749 0
24.180000 0.049162 0
24.185000 0.067255 0
24.190000 0.086833 0
24.195000 0.107598 0
24.200000 0.129156 0
24.205000 0.151015 0
24.210000 0.172606 0
24.215000 0.193302 0
24.220000 0.212449 0
24.225000 0.229394 0
24.230000 0.243526 0
24.235000 0.254310 0
24.240000 0.261323 0
24.245000 0.264275 1
24.250000 0.263034 0
24.255000 0.257632 0
24.260000 0.248267 0
24.265000 0.235285 0
24.270000 0.219163 0
24.275000 0.200478 0
24.280000 0.179873 0
24.285000 0.158018 0
24.290000 0.135577 0
24.295000 0.113174 0
24.300000 0.091367 0
24.305000 0.070624 0
24.310000 0.051313 0
24.315000 0.033691 0
24.320000 0.017897 0
24.325000 0.003927 0
24.330000 -0.008402 0
24.335000 -0.019530 0
24.340000 -0.030267 0
24.345000 -0.041896 0
24.350000 -0.056167 0
24.355000 -0.075045 0
24.360000 -0.100088 0
24.365000 -0.131477 0
24.370000 -0.166971 0
24.375000 -0.201254 0
24.380000 -0.226060 0
24.385000 -0.231138 2
24.390000 -0.205697 0
24.395000 -0.139878 0
24.400000 -0.026264 0
24.405000 0.138037 0
24.410000 0.348238 0
24.415000 0.588378 0
24.420000 0.829756 0
24.425000 1.034080 0
24.430000 1.162271 0
24.435000 1.186381 3
24.440000 1.099208 0
24.445000 0.916915 0
24.450000 0.673418 0
24.455000 0.408959 0
24.460000 0.159266 0
24.465000 -0.050663 0
24.470000 -0.207524 0
24.475000 -0.307592 0
24.480000 -0.354174 0
24.485000 -0.355783 4
24.490000 -0.324637 0
24.495000 -0.274675 0
24.500000 -0.219015 0
24.505000 -0.167631 0
24.510000 -0.126131 0
24.515000 -0.095999 0
24.520000 -0.075868 0
24.525000 -0.063082 0
24.530000 -0.054915 0
24.535000 -0.049214 0
24.540000 -0.044546 0
24.545000 -0.040067 0
24.550000 -0.035319 0
24.555000 -0.030061 0
24.560000 -0.024155 0
24.565000 -0.017507 0
24.570000 -0.010042 0
24.575000 -0.001693 0
24.580000 0.007602 0
24.585000 0.017896 0
24.590000 0.029236 0
24.595000 0.041656 0
24.600000 0.055178 0
24.605000 0.069807 0
24.610000 0.085532 0
24.615000 0.102320 0
24.620000 0.120116 0
24.625000 0.138843 0
24.630000 0.158399 0
24.635000 0.178657 0
24.640000 0.199465 0
24.645000 0.220649 0
24.650000 0.242010 0
24.655000 0.263333 0
24.660000 0.284383 0
24.665000 0.304916 0
24.670000 0.324676 0
24.675000 0.343406 0
24.680000 0.360851 0
24.685000 0.376762 0
24.690000 0.390905 0
24.695000 0.403062 0
24.700000 0.413043 0
24.705000 0.420684 0
24.710000 0.425855 0
24.715000 0.428462 5
24.720000 0.428450 0
24.725000 0.425806 0
24.730000 0.420555 0
24.735000 0.412766 0
24.740000 0.402545 0
24.745000 0.390034 0
24.750000 0.375409 0
24.755000 0.358873 0
24.760000 0.340655 0
24.765000 0.320999 0
24.770000 0.300163 0
24.775000 0.278415 0
24.780000 0.256019 0
24.785000 0.233237 0
24.790000 0.210324 0
24.795000 0.187517 0
24.800000 0.165039 0
24.805000 0.143091 0
24.810000 0.121849 0
24.815000 0.101466 0
24.820000 0.082069 0
24.825000 0.063760 0
24.830000 0.046613 0
24.835000 0.030679 0
24.840000 0.015986 0
24.845000 0.002542 0
24.850000 -0.009667 0
24.855000 -0.020667 0
24.860000 -0.030501 0
24.865000 -0.039221 0
24.870000 -0.046891 0
24.875000 -0.053579 0
24.880000 -0.059356 0
24.885000 -0.064298 0
24.890000 -0.068480 0
24.895000 -0.071977 0
24.900000 -0.074860 0
24.905000 -0.077198 0
24.910000 -0.079057 0
24.915000 -0.080496 0
24.920000 -0.081570 0
24.925000 -0.082331 0
24.930000 -0.082824 0
24.935000 -0.083089 0
24.940000 -0.083161 0
24.945000 -0.083074 0
24.950000 -0.082853 0
24.955000 -0.082523 0
24.960000 -0.082102 0
24.965000 -0.081609 0
24.970000 -0.081058 0
24.975000 -0.080460 0
24.980000 -0.079825 0
24.985000 -0.079162 0
24.990000 -0.078478 0
24.995000 -0.077777 0
25.000000 -0.077064 0
25.005000 -0.076342 0
25.010000 -0.075611 0
25.015000 -0.074858 0
25.020000 -0.074109 0
25.025000 -0.073363 0
25.030000 -0.072622 0
25.035000 -0.071884 0
25.040000 -0.071150 0
25.045000 -0.070419 0
25.050000 -0.069692 0
25.055000 -0.068969 0
25.060000 -0.068249 0
25.065000 -0.067533 0
25.070000 -0.066820 0
25.075000 -0.066111 0
25.080000 -0.065406 0
25.085000 -0.064704 0
25.090000 -0.064005 0
25.095000 -0.063310 0
25.100000 -0.062619 0
25.105000 -0.061931 0
25.110000 -0.061246 0
25.115000 -0.060565 0
25.120000 -0.059887 0
25.125000 -0.059213 0
25.130000 -0.058541 0
25.135000 -0.057874 0
25.140000 -0.057209 0
25.145000 -0.056548 0
25.150000 -0.055890 0
25.155000 -0.055236 0
25.160000 -0.054585 0
25.165000 -0.053937 0
25.170000 -0.053292 0
25.175000 -0.052650 0
25.180000 -0.052011 0
25.185000 -0.051375 0
25.190000 -0.050741 0
25.195000 -0.050109 0
25.200000 -0.049478 0
25.205000 -0.048847 0
25.210000 -0.048215 0
25.215000 -0.047577 0
25.220000 -0.046930 0
25.225000 -0.046269 0
25.230000 -0.045583 0
25.235000 -0.044860 0
25.240000 -0.044084 0
25.245000 -0.043229 0
25.250000 -0.042263 0
25.255000 -0.041144 0
25.260000 -0.039817 0
25.265000 -0.038213 0
25.270000 -0.036244 0
25.275000 -0.033808 0
25.280000 -0.030781 0
25.285000 -0.027021 0
25.290000 -0.022370 0
25.295000 -0.016660 0
25.300000 -0.009713 0
25.305000 -0.001358 0
25.310000 0.008563 0
25.315000 0.020181 0
25.320000 0.033581 0
25.325000 0.048791 0
25.330000 0.065763 0
25.335000 0.084362 0
25.340000 0.104355 0
25.345000 0.125408 0
25.350000 0.147087 0
25.355000 0.168868 0
25.360000 0.190154 0
25.365000 0.210301 0
25.370000 0.228647 0
25.375000 0.244548 0
25.380000 0.257415 0
25.385000 0.266748 0
25.390000 0.272171 0
25.395000 0.273451 1
25.400000 0.270520 0
25.405000 0.263476 0
25.410000 0.252578 0
25.415000 0.238230 0
25.420000 0.220957 0
25.425000 0.201368 0
25.430000 0.180125 0
25.435000 0.157905 0
25.440000 0.135363 0
25.445000 0.113099 0
25.450000 0.091641 0
25.455000 0.071417 0
25.460000 0.052754 0
25.465000 0.035858 0
25.470000 0.020812 0
25.475000 0.007542 0
25.480000 -0.004236 0
25.485000 -0.015113 0
25.490000 -0.026102 0
25.495000 -0.038710 0
25.500000 -0.054847 0
25.505000 -0.076404 0
25.510000 -0.104461 0
25.515000 -0.138216 0
25.520000 -0.174052 0
25.525000 -0.205196 0
25.530000 -0.222258 2
25.535000 -0.214492 0
25.540000 -0.171306 0
25.545000 -0.083729 0
25.550000 0.053876 0
25.555000 0.241209 0
25.560000 0.468493 0
25.565000 0.713505 0
25.570000 0.941983 0
25.575000 1.113650 0
25.580000 1.193173 3
25.585000 1.160946 0
25.590000 1.020350 0
25.595000 0.799465 0
25.600000 0.539057 0
25.605000 0.279740 0
25.610000 0.052656 0
25.615000 -0.123767 0
25.620000 -0.242399 0
25.625000 -0.304548 0
25.630000 -0.317660 4
25.635000 -0.293658 0
25.640000 -0.246946 0
25.645000 -0.191717 0
25.650000 -0.139246 0
25.655000 -0.096253 0
25.660000 -0.064893 0
25.665000 -0.044025 0
25.670000 -0.030940 0
25.675000 -0.022753 0
25.680000 -0.017167 0
25.685000 -0.012656 0
25.690000 -0.008332 0
25.695000 -0.003721 0
25.700000 0.001425 0
25.705000 0.007246 0
25.710000 0.013838 0
25.715000 0.021278 0
25.720000 0.029637 0
25.725000 0.038977 0
25.730000 0.049354 0
25.735000 0.060815 0
25.740000 0.073392 0
25.745000 0.087104 0
25.750000 0.101951 0
25.755000 0.117915 0
25.760000 0.134954 0
25.765000 0.153001 0
25.770000 0.171965 0
25.775000 0.191729 0
25.780000 0.212147 0
25.785000 0.233048 0
25.790000 0.254236 0
25.795000 0.275495 0
25.800000 0.296585 0
25.805000 0.317254 0
25.810000 0.337238 0
25.815000 0.356266 0
25.820000 0.374069 0
25.825000 0.390382 0
25.830000 0.404954 0
25.835000 0.417552 0
25.840000 0.427966 0
25.845000 0.436017 0
25.850000 0.441562 0
25.855000 0.444493 0
25.860000 0.444747 5
25.865000 0.442303 0
25.870000 0.437184 0
25.875000 0.429457 0
25.880000 0.419231 0
25.885000 0.406655 0
25.890000 0.391911 0
25.895000 0.375215 0
25.900000 0.356805 0
25.905000 0.336941 0
25.910000 0.315895 0
25.915000 0.293945 0
25.920000 0.271372 0
25.925000 0.248448 0
25.930000 0.225438 0
25.935000 0.202589 0
25.940000 0.180128 0
25.945000 0.158260 0
25.950000 0.137165 0
25.955000 0.116994 0
25.960000 0.097871 0
25.965000 0.079892 0
25.970000 0.063127 0
25.975000 0.047618 0
25.980000 0.033387 0
25.985000 0.020429 0
25.990000 0.008726 0
25.995000 -0.001762 0
26.000000 -0.011084 0
26.005000 -0.019301 0
26.010000 -0.026483 0
26.015000 -0.032704 0
26.020000 -0.038043 0
26.025000 -0.042578 0
26.030000 -0.046388 0
26.035000 -0.049548 0
26.040000 -0.052133 0
26.045000 -0.054211 0
26.050000 -0.055847 0
26.055000 -0.057099 0
26.060000 -0.058022 0
26.065000 -0.058663 0
26.070000 -0.059067 0
26.075000 -0.059271 0
26.080000 -0.059309 0
26.085000 -0.059208 0
26.090000 -0.058994 0
26.095000 -0.058688 0
26.100000 -0.058308 0
26.105000 -0.057868 0
26.110000 -0.057381 0
26.115000 -0.056857 0
26.120000 -0.056304 0
26.125000 -0.055730 0
26.130000 -0.055139 0
26.135000 -0.054535 0
26.140000 -0.053923 0
26.145000 -0.053284 0
26.150000 -0.052642 0
26.155000 -0.052004 0
26.160000 -0.051369 0
26.165000 -0.050737 0
26.170000 -0.050108 0
26.175000 -0.049483 0
26.180000 -0.048860 0
26.185000 -0.048241 0
26.190000 -0.047624 0
26.195000 -0.047011 0
26.200000 -0.046401 0
26.205000 -0.045794 0
26.210000 -0.045189 0
26.215000 -0.044588 0
26.220000 -0.043990 0
26.225000 -0.043395 0
26.230000 -0.042803 0
26.235000 -0.042214 0
26.240000 -0.041627 0
26.245000 -0.041044 0
26.250000 -0.040463 0
26.255000 -0.039886 0
26.260000 -0.039311 0
26.265000 -0.038739 0
26.270000 -0.038170 0
26.275000 -0.037604 0
26.280000 -0.037041 0
26.285000 -0.036480 0
26.290000 -0.035923 0
26.295000 -0.035368 0
26.300000 -0.034815 0
26.305000 -0.034266 0
26.310000 -0.033718 0
26.315000 -0.033173 0
26.320000 -0.032630 0
26.325000 -0.032088 0
26.330000 -0.031547 0
26.335000 -0.031004 0
26.340000 -0.030459 0
26.345000 -0.029907 0
26.350000 -0.029344 0
26.355000 -0.028762 0
26.360000 -0.028151 0
26.365000 -0.027496 0
26.370000 -0.026776 0
26.375000 -0.025963 0
26.380000 -0.025017 0
26.385000 -0.023890 0
26.390000 -0.022516 0
26.395000 -0.020814 0
26.400000 -0.018683 0
26.405000 -0.016002 0
26.410000 -0.012632 0
26.415000 -0.008412 0
26.420000 -0.003169 0
26.425000 0.003281 0
26.430000 0.011122 0
26.435000 0.020526 0
26.440000 0.031638 0
26.445000 0.044563 0
26.450000 0.059344 0
26.455000 0.075948 0
26.460000 0.094251 0
26.465000 0.114024 0
26.470000 0.134929 0
26.475000 0.156522 0
26.480000 0.178257 0
26.485000 0.199513 0
26.490000 0.219613 0
26.495000 0.237862 0
26.500000 0.253585 0
26.505000 0.266166 0
26.510000 0.275089 0
26.515000 0.279972 0
26.520000 0.280591 1
26.525000 0.276899 0
26.530000 0.269030 0
26.535000 0.257286 0
26.540000 0.242123 0
26.545000 0.224114 0
26.550000 0.203921 0
26.555000 0.182245 0
26.560000 0.159794 0
26.565000 0.137238 0
26.570000 0.115184 0
26.575000 0.094144 0
26.580000 0.074526 0
26.585000 0.056617 0
26.590000 0.040575 0
26.595000 0.026412 0
26.600000 0.013942 0
26.605000 0.002707 0
26.610000 -0.008153 0
26.615000 -0.020011 0
26.620000 -0.034739 0
26.625000 -0.054403 0
26.630000 -0.080528 0
26.635000 -0.112988 0
26.640000 -0.148882 0
26.645000 -0.181927 0
26.650000 -0.202806 2
26.655000 -0.200402 0
26.660000 -0.163452 0
26.665000 -0.082172 0
26.670000 0.049940 0
26.675000 0.233379 0
26.680000 0.458810 0
26.685000 0.703669 0
26.690000 0.932349 0
26.695000 1.102621 0
26.700000 1.177662 3
26.705000 1.137456 0
26.710000 0.986746 0
26.715000 0.757690 0
26.720000 0.494765 0
26.725000 0.240264 0
26.730000 0.024752 0
26.735000 -0.135278 0
26.740000 -0.235079 0
26.745000 -0.278410 4
26.750000 -0.275212 0
26.755000 -0.239646 0
26.760000 -0.187449 0
26.765000 -0.132676 0
26.770000 -0.085046 0
26.775000 -0.048994 0
26.780000 -0.024562 0
26.785000 -0.009281 0
26.790000 -0.000001 0
26.795000 0.005981 0
26.800000 0.010522 0
26.805000 0.014718 0
26.810000 0.019146 0
26.815000 0.024103 0
26.820000 0.029749 0
26.825000 0.036190 0
26.830000 0.043511 0
26.835000 0.051786 0
26.840000 0.061085 0
26.845000 0.071465 0
26.850000 0.082975 0
26.855000 0.095650 0
26.860000 0.109506 0
26.865000 0.124540 0
26.870000 0.140725 0
26.875000 0.158010 0
26.880000 0.176315 0
26.885000 0.195532 0
26.890000 0.215522 0
26.895000 0.236118 0
26.900000 0.257123 0
26.905000 0.278314 0
26.910000 0.299446 0
26.915000 0.320252 0
26.920000 0.340452 0
26.925000 0.359757 0
26.930000 0.377877 0
26.935000 0.394525 0
26.940000 0.409426 0
26.945000 0.422324 0
26.950000 0.432991 0
26.955000 0.441228 0
26.960000 0.446877 0
26.965000 0.449821 0
26.970000 0.449990 5
26.975000 0.447361 0
26.980000 0.441962 0
26.985000 0.433869 0
26.990000 0.423205 0
26.995000 0.410135 0
27.000000 0.394862 0
27.005000 0.377625 0
27.010000 0.358687 0
27.015000 0.338331 0
27.020000 0.316852 0
27.025000 0.294552 0
27.030000 0.271729 0
27.035000 0.248672 0
27.040000 0.225656 0
27.045000 0.202938 0
27.050000 0.180747 0
27.055000 0.159287 0
27.060000 0.138733 0
27.065000 0.119226 0
27.070000 0.100880 0
27.075000 0.083775 0
27.080000 0.067965 0
27.085000 0.053474 0
27.090000 0.040303 0
27.095000 0.028432 0
27.100000 0.017823 0
27.105000 0.008421 0
27.110000 0.000160 0
27.115000 -0.007033 0
27.120000 -0.013240 0
27.125000 -0.018544 0
27.130000 -0.023029 0
27.135000 -0.026781 0
27.140000 -0.029879 0
27.145000 -0.032402 0
27.150000 -0.034422 0
27.155000 -0.036005 0
27.160000 -0.037215 0
27.165000 -0.038105 0
27.170000 -0.038725 0
27.175000 -0.039119 0
27.180000 -0.039324 0
27.185000 -0.039375 0
27.190000 -0.039298 0
27.195000 -0.039119 0
27.200000 -0.038856 0
27.205000 -0.038527 0
27.210000 -0.038146 0
27.215000 -0.037724 0
27.220000 -0.037271 0
27.225000 -0.036793 0
27.230000 -0.036298 0
27.235000 -0.035789 0
27.240000 -0.035270 0
27.245000 -0.034724 0
27.250000 -0.034175 0
27.255000 -0.033629 0
27.260000 -0.033085 0
27.265000 -0.032544 0
27.270000 -0.032006 0
27.275000 -0.031471 0
27.280000 -0.030938 0
27.285000 -0.030408 0
27.290000 -0.029881 0
27.295000 -0.029356 0
27.300000 -0.028834 0
27.305000 -0.028314 0
27.310000 -0.027797 0
27.315000 -0.027283 0
27.320000 -0.026771 0
27.325000 -0.026262 0
27.330000 -0.025755 0
27.335000 -0.025251 0
27.340000 -0.024749 0
27.345000 -0.024250 0
27.350000 -0.023753 0
27.355000 -0.023259 0
27.360000 -0.022767 0
27.365000 -0.022278 0
27.370000 -0.021791 0
27.375000 -0.021307 0
27.380000 -0.020825 0
27.385000 -0.020345 0
27.390000 -0.019868 0
27.395000 -0.019393 0
27.400000 -0.018920 0
27.405000 -0.018449 0
27.410000 -0.017980 0
27.415000 -0.017512 0
27.420000 -0.017045 0
27.425000 -0.016577 0
27.430000 -0.016108 0
27.435000 -0.015633 0
27.440000 -0.015149 0
27.445000 -0.014649 0
27.450000 -0.014124 0
27.455000 -0.013560 0
27.460000 -0.012938 0
27.465000 -0.012229 0
27.470000 -0.011398 0
27.475000 -0.010392 0
27.480000 -0.009148 0
27.485000 -0.007581 0
27.490000 -0.005588 0
27.495000 -0.003041 0
27.500000 0.000207 0
27.505000 0.004327 0
27.510000 0.009506 0
27.515000 0.015941 0
27.520000 0.023830 0
27.525000 0.033355 0
27.530000 0.044671 0
27.535000 0.057880 0
27.540000 0.073017 0
27.545000 0.090025 0
27.550000 0.108743 0
27.555000 0.128891 0
27.560000 0.150067 0
27.565000 0.171754 0
27.570000 0.193328 0
27.575000 0.214092 0
27.580000 0.233305 0
27.585000 0.250223 0
27.590000 0.264152 0
27.595000 0.274487 0
27.600000 0.280760 0
27.605000 0.282668 1
27.610000 0.280103 0
27.615000 0.273156 0
27.620000 0.262111 0
27.625000 0.247428 0
27.630000 0.229706 0
27.635000 0.209645 0
27.640000 0.187998 0
27.645000 0.165523 0
27.650000 0.142944 0
27.655000 0.120908 0
27.660000 0.099960 0
27.665000 0.080525 0
27.670000 0.062894 0
27.675000 0.047209 0
27.680000 0.033444 0
27.685000 0.021337 0
27.690000 0.010282 0
27.695000 -0.000814 0
27.700000 -0.013633 0
27.705000 -0.030332 0
27.710000 -0.052995 0
27.715000 -0.082573 0
27.720000 -0.117538 0
27.725000 -0.152807 0
27.730000 -0.179622 0
27.735000 -0.186583 2
27.740000 -0.161446 0
27.745000 -0.093028 0
27.750000 0.026830 0
27.755000 0.200479 0
27.760000 0.420278 0
27.765000 0.664374 0
27.770000 0.896049 0
27.775000 1.070191 0
27.780000 1.146702 3
27.785000 1.104909 0
27.790000 0.951993 0
27.795000 0.721188 0
27.800000 0.457966 0
27.805000 0.205054 0
27.810000 -0.007155 0
27.815000 -0.162697 0
27.820000 -0.257463 0
27.825000 -0.295880 4
27.830000 -0.288571 0
27.835000 -0.250273 0
27.840000 -0.196999 0
27.845000 -0.142652 0
27.850000 -0.096436 0
27.855000 -0.062147 0
27.860000 -0.039312 0
27.865000 -0.025193 0
27.870000 -0.016598 0
27.875000 -0.010919 0
27.880000 -0.006425 0
27.885000 -0.002127 0
27.890000 0.002489 0
27.895000 0.007682 0
27.900000 0.013599 0
27.905000 0.020341 0
27.910000 0.027992 0
27.915000 0.036626 0
27.920000 0.046309 0
27.925000 0.057101 0
27.930000 0.069046 0
27.935000 0.082174 0
27.940000 0.096496 0
27.945000 0.112002 0
27.950000 0.128656 0
27.955000 0.146397 0
27.960000 0.165133 0
27.965000 0.184743 0
27.970000 0.205075 0
27.975000 0.225946 0
27.980000 0.247145 0
27.985000 0.268436 0
27.990000 0.289558 0
27.995000 0.310233 0
28.000000 0.330172 0
28.005000 0.349078 0
28.010000 0.366655 0
28.015000 0.382616 0
28.020000 0.396689 0
28.025000 0.408625 0
28.030000 0.418204 0
28.035000 0.425245 0
28.040000 0.429606 0
28.045000 0.431192 5
28.050000 0.429957 0
28.055000 0.425905 0
28.060000 0.419092 0
28.065000 0.409621 0
28.070000 0.397642 0
28.075000 0.383348 0
28.080000 0.366967 0
28.085000 0.348757 0
28.090000 0.329001 0
28.095000 0.307995 0
28.100000 0.286045 0
28.105000 0.263457 0
28.110000 0.240530 0
28.115000 0.217550 0
28.120000 0.194786 0
28.125000 0.172481 0
28.130000 0.150852 0
28.135000 0.130086 0
28.140000 0.110337 0
28.145000 0.091730 0
28.150000 0.074356 0
28.155000 0.058277 0
28.160000 0.043525 0
28.165000 0.030106 0
28.170000 0.018007 0
28.175000 0.007190 0
28.180000 -0.002395 0
28.185000 -0.010815 0
28.190000 -0.018142 0
28.195000 -0.024458 0
28.200000 -0.029848 0
28.205000 -0.034399 0
28.210000 -0.038195 0
28.215000 -0.041321 0
28.220000 -0.043856 0
28.225000 -0.045874 0
28.230000 -0.047445 0
28.235000 -0.048631 0
28.240000 -0.049491 0
28.245000 -0.050074 0
28.250000 -0.050426 0
28.255000 -0.050586 0
28.260000 -0.050587 0
28.265000 -0.050460 0
28.270000 -0.050227 0
28.275000 -0.049911 0
28.280000 -0.049528 0
28.285000 -0.049092 0
28.290000 -0.048615 0
28.295000 -0.048107 0
28.300000 -0.047575 0
28.305000 -0.047025 0
28.310000 -0.046462 0
