0.000000 1.117998 3
0.005000 1.040816 0
0.010000 0.843369 0
0.015000 0.572481 0
0.020000 0.284146 0
0.025000 0.025122 0
0.030000 -0.175804 0
0.035000 -0.307134 0
0.040000 -0.370200 0
0.045000 -0.375393 4
0.050000 -0.339376 0
0.055000 -0.281601 0
0.060000 -0.219803 0
0.065000 -0.166149 0
0.070000 -0.125855 0
0.075000 -0.098507 0
0.080000 -0.080744 0
0.085000 -0.068678 0
0.090000 -0.059233 0
0.095000 -0.050460 0
0.100000 -0.041302 0
0.105000 -0.031243 0
0.110000 -0.020037 0
0.115000 -0.007559 0
0.120000 0.006259 0
0.125000 0.021452 0
0.130000 0.038029 0
0.135000 0.055967 0
0.140000 0.075211 0
0.145000 0.095667 0
0.150000 0.117206 0
0.155000 0.139660 0
0.160000 0.162817 0
0.165000 0.186433 0
0.170000 0.210225 0
0.175000 0.233882 0
0.180000 0.257066 0
0.185000 0.279425 0
0.190000 0.300597 0
0.195000 0.320219 0
0.200000 0.337942 0
0.205000 0.353436 0
0.210000 0.366402 0
0.215000 0.376582 0
0.220000 0.383766 0
0.225000 0.387799 0
0.230000 0.388589 5
0.235000 0.386105 0
0.240000 0.380385 0
0.245000 0.371527 0
0.250000 0.359694 0
0.255000 0.345102 0
0.260000 0.328020 0
0.265000 0.308754 0
0.270000 0.287644 0
0.275000 0.265052 0
0.280000 0.241349 0
0.285000 0.216909 0
0.290000 0.192096 0
0.295000 0.167258 0
0.300000 0.142718 0
0.305000 0.118766 0
0.310000 0.095657 0
0.315000 0.073608 0
0.320000 0.052794 0
0.325000 0.033347 0
0.330000 0.015363 0
0.335000 -0.001104 0
0.340000 -0.016031 0
0.345000 -0.029429 0
0.350000 -0.041335 0
0.355000 -0.051806 0
0.360000 -0.060920 0
0.365000 -0.068764 0
0.370000 -0.075438 0
0.375000 -0.081045 0
0.380000 -0.085690 0
0.385000 -0.089476 0
0.390000 -0.092506 0
0.395000 -0.094874 0
0.400000 -0.096670 0
0.405000 -0.097976 0
0.410000 -0.098866 0
0.415000 -0.099407 0
0.420000 -0.099657 0
0.425000 -0.099667 0
0.430000 -0.099480 0
0.435000 -0.099135 0
0.440000 -0.098663 0
0.445000 -0.098090 0
0.450000 -0.097437 0
0.455000 -0.096723 0
0.460000 -0.095962 0
0.465000 -0.095069 0
0.470000 -0.094158 0
0.475000 -0.093251 0
0.480000 -0.092349 0
0.485000 -0.091451 0
0.490000 -0.090558 0
0.495000 -0.089669 0
0.500000 -0.088784 0
0.505000 -0.087904 0
0.510000 -0.087029 0
0.515000 -0.086157 0
0.520000 -0.085290 0
0.525000 -0.084428 0
0.530000 -0.083569 0
0.535000 -0.082715 0
0.540000 -0.081866 0
0.545000 -0.081020 0
0.550000 -0.080179 0
0.555000 -0.079342 0
0.560000 -0.078509 0
0.565000 -0.077680 0
0.570000 -0.076855 0
0.575000 -0.076034 0
0.580000 -0.075216 0
0.585000 -0.074402 0
0.590000 -0.073590 0
0.595000 -0.072780 0
0.600000 -0.071970 0
0.605000 -0.071157 0
0.610000 -0.070336 0
0.615000 -0.069500 0
0.620000 -0.068639 0
0.625000 -0.067736 0
0.630000 -0.066767 0
0.635000 -0.065699 0
0.640000 -0.064485 0
0.645000 -0.063061 0
0.650000 -0.061341 0
0.655000 -0.059217 0
0.660000 -0.056549 0
0.665000 -0.053172 0
0.670000 -0.048887 0
0.675000 -0.043473 0
0.680000 -0.036686 0
0.685000 -0.028280 0
0.690000 -0.018018 0
0.695000 -0.005698 0
0.700000 0.008824 0
0.705000 0.025603 0
0.710000 0.044575 0
0.715000 0.065541 0
0.720000 0.088141 0
0.725000 0.111856 0
0.730000 0.136012 0
0.735000 0.159806 0
0.740000 0.182347 0
0.745000 0.202703 0
0.750000 0.219970 0
0.755000 0.233335 0
0.760000 0.242138 0
0.765000 0.245927 1
0.770000 0.244497 0
0.775000 0.237906 0
0.780000 0.226474 0
0.785000 0.210752 0
0.790000 0.191484 0
0.795000 0.169543 0
0.800000 0.145871 0
0.805000 0.121405 0
0.810000 0.097027 0
0.815000 0.073501 0
0.820000 0.051442 0
0.825000 0.031267 0
0.830000 0.013143 0
0.835000 -0.003124 0
0.840000 -0.018256 0
0.845000 -0.033718 0
0.850000 -0.051782 0
0.855000 -0.075171 0
0.860000 -0.105972 0
0.865000 -0.143868 0
0.870000 -0.184349 0
0.875000 -0.217947 0
0.880000 -0.231183 2
0.885000 -0.208897 0
0.890000 -0.136940 0
0.895000 -0.004927 0
0.900000 0.189889 0
0.905000 0.436745 0
0.910000 0.705727 0
0.915000 0.948139 0
0.920000 1.107881 0
0.925000 1.141686 3
0.930000 1.037442 0
0.935000 0.820269 0
0.940000 0.541018 0
0.945000 0.255446 0
0.950000 0.007160 0
0.955000 -0.178914 0
0.960000 -0.294458 0
0.965000 -0.343156 4
0.970000 -0.337186 0
0.975000 -0.294366 0
0.980000 -0.234313 0
0.985000 -0.173824 0
0.990000 -0.123449 0
0.995000 -0.086814 0
1.000000 -0.062480 0
1.005000 -0.046723 0
1.010000 -0.035761 0
1.015000 -0.026797 0
1.020000 -0.018144 0
1.025000 -0.008920 0
1.030000 0.001299 0
1.035000 0.012714 0
1.040000 0.025430 0
1.045000 0.039507 0
1.050000 0.054972 0
1.055000 0.071823 0
1.060000 0.090028 0
1.065000 0.109520 0
1.070000 0.130195 0
1.075000 0.151908 0
1.080000 0.174477 0
1.085000 0.197678 0
1.090000 0.221250 0
1.095000 0.244898 0
1.100000 0.268300 0
1.105000 0.291110 0
1.110000 0.312966 0
1.115000 0.333504 0
1.120000 0.352360 0
1.125000 0.369190 0
1.130000 0.383669 0
1.135000 0.395511 0
1.140000 0.404472 0
1.145000 0.410361 0
1.150000 0.413045 5
1.155000 0.412453 0
1.160000 0.408582 0
1.165000 0.401493 0
1.170000 0.391312 0
1.175000 0.378223 0
1.180000 0.362469 0
1.185000 0.344335 0
1.190000 0.324145 0
1.195000 0.302253 0
1.200000 0.279028 0
1.205000 0.254847 0
1.210000 0.230084 0
1.215000 0.205100 0
1.220000 0.180236 0
1.225000 0.155802 0
1.230000 0.132077 0
1.235000 0.109302 0
1.240000 0.087675 0
1.245000 0.067354 0
1.250000 0.048455 0
1.255000 0.031054 0
1.260000 0.015192 0
1.265000 0.000874 0
1.270000 -0.011922 0
1.275000 -0.023245 0
1.280000 -0.033163 0
1.285000 -0.041759 0
1.290000 -0.049129 0
1.295000 -0.055373 0
1.300000 -0.060599 0
1.305000 -0.064910 0
1.310000 -0.068412 0
1.315000 -0.071203 0
1.320000 -0.073377 0
1.325000 -0.075020 0
1.330000 -0.076210 0
1.335000 -0.077018 0
1.340000 -0.077507 0
1.345000 -0.077732 0
1.350000 -0.077740 0
1.355000 -0.077572 0
1.360000 -0.077261 0
1.365000 -0.076838 0
1.370000 -0.076325 0
1.375000 -0.075743 0
1.380000 -0.075107 0
1.385000 -0.074411 0
1.390000 -0.073603 0
1.395000 -0.072798 0
1.400000 -0.071998 0
1.405000 -0.071202 0
1.410000 -0.070409 0
1.415000 -0.069621 0
1.420000 -0.068836 0
1.425000 -0.068056 0
1.430000 -0.067279 0
1.435000 -0.066506 0
1.440000 -0.065737 0
1.445000 -0.064972 0
1.450000 -0.064211 0
1.455000 -0.063454 0
1.460000 -0.062700 0
1.465000 -0.061950 0
1.470000 -0.061204 0
1.475000 -0.060461 0
1.480000 -0.059722 0
1.485000 -0.058987 0
1.490000 -0.058255 0
1.495000 -0.057527 0
1.500000 -0.056802 0
1.505000 -0.056080 0
1.510000 -0.055361 0
1.515000 -0.054643 0
1.520000 -0.053924 0
1.525000 -0.053204 0
1.530000 -0.052477 0
1.535000 -0.051737 0
1.540000 -0.050974 0
1.545000 -0.050175 0
1.550000 -0.049318 0
1.555000 -0.048372 0
1.560000 -0.047294 0
1.565000 -0.046024 0
1.570000 -0.044484 0
1.575000 -0.042569 0
1.580000 -0.040151 0
1.585000 -0.037066 0
1.590000 -0.033126 0
1.595000 -0.028111 0
1.600000 -0.021782 0
1.605000 -0.013888 0
1.610000 -0.004188 0
1.615000 0.007535 0
1.620000 0.021442 0
1.625000 0.037610 0
1.630000 0.056010 0
1.635000 0.076470 0
1.640000 0.098667 0
1.645000 0.122113 0
1.650000 0.146161 0
1.655000 0.170027 0
1.660000 0.192826 0
1.665000 0.213624 0
1.670000 0.231498 0
1.675000 0.245605 0
1.680000 0.255243 0
1.685000 0.259916 1
1.690000 0.259368 0
1.695000 0.253608 0
1.700000 0.242912 0
1.705000 0.227800 0
1.710000 0.208992 0
1.715000 0.187350 0
1.720000 0.163817 0
1.725000 0.139343 0
1.730000 0.114829 0
1.735000 0.091066 0
1.740000 0.068698 0
1.745000 0.048176 0
1.750000 0.029709 0
1.755000 0.013158 0
1.760000 -0.002125 0
1.765000 -0.017513 0
1.770000 -0.035206 0
1.775000 -0.057936 0
1.780000 -0.087956 0
1.785000 -0.125306 0
1.790000 -0.165944 0
1.795000 -0.200816 0
1.800000 -0.216641 2
1.805000 -0.198178 0
1.810000 -0.130968 0
1.815000 -0.004099 0
1.820000 0.186009 0
1.825000 0.429778 0
1.830000 0.698548 0
1.835000 0.944306 0
1.840000 1.110436 0
1.845000 1.151945 3
1.850000 1.055373 0
1.855000 0.844586 0
1.860000 0.568185 0
1.865000 0.281039 0
1.870000 0.027310 0
1.875000 -0.166736 0
1.880000 -0.291328 0
1.885000 -0.348794 0
1.890000 -0.350036 4
1.895000 -0.311840 0
1.900000 -0.253401 0
1.905000 -0.191928 0
1.910000 -0.139007 0
1.915000 -0.099439 0
1.920000 -0.072627 0
1.925000 -0.055203 0
1.930000 -0.043344 0
1.935000 -0.034044 0
1.940000 -0.025397 0
1.945000 -0.016367 0
1.950000 -0.006444 0
1.955000 0.004615 0
1.960000 0.016934 0
1.965000 0.030582 0
1.970000 0.045594 0
1.975000 0.061979 0
1.980000 0.079717 0
1.985000 0.098754 0
1.990000 0.119002 0
1.995000 0.140336 0
2.000000 0.162593 0
2.005000 0.185568 0
2.010000 0.209024 0
2.015000 0.232686 0
2.020000 0.256250 0
2.025000 0.279387 0
2.030000 0.301751 0
2.035000 0.322985 0
2.040000 0.342735 0
2.045000 0.360651 0
2.050000 0.376406 0
2.055000 0.389700 0
2.060000 0.400271 0
2.065000 0.407904 0
2.070000 0.412436 0
2.075000 0.413763 5
2.080000 0.411843 0
2.085000 0.406698 0
2.090000 0.398414 0
2.095000 0.387136 0
2.100000 0.373066 0
2.105000 0.356457 0
2.110000 0.337601 0
2.115000 0.316827 0
2.120000 0.294485 0
2.125000 0.270940 0
2.130000 0.246561 0
2.135000 0.221709 0
2.140000 0.196734 0
2.145000 0.171959 0
2.150000 0.147683 0
2.155000 0.124168 0
2.160000 0.101640 0
2.165000 0.080283 0
2.170000 0.060245 0
2.175000 0.041630 0
2.180000 0.024507 0
2.185000 0.008908 0
2.190000 -0.005165 0
2.195000 -0.017740 0
2.200000 -0.028865 0
2.205000 -0.038609 0
2.210000 -0.047057 0
2.215000 -0.054301 0
2.220000 -0.060441 0
2.225000 -0.065582 0
2.230000 -0.069825 0
2.235000 -0.073272 0
2.240000 -0.076020 0
2.245000 -0.078160 0
2.250000 -0.079777 0
2.255000 -0.080945 0
2.260000 -0.081736 0
2.265000 -0.082210 0
2.270000 -0.082422 0
2.275000 -0.082416 0
2.280000 -0.082235 0
2.285000 -0.081911 0
2.290000 -0.081474 0
2.295000 -0.080946 0
2.300000 -0.080348 0
2.305000 -0.079695 0
2.310000 -0.078981 0
2.315000 -0.078150 0
2.320000 -0.077323 0
2.325000 -0.076500 0
2.330000 -0.075681 0
2.335000 -0.074866 0
2.340000 -0.074056 0
2.345000 -0.073249 0
2.350000 -0.072447 0
2.355000 -0.071648 0
2.360000 -0.070853 0
2.365000 -0.070063 0
2.370000 -0.069276 0
2.375000 -0.068493 0
2.380000 -0.067714 0
2.385000 -0.066939 0
2.390000 -0.066168 0
2.395000 -0.065401 0
2.400000 -0.064638 0
2.405000 -0.063878 0
2.410000 -0.063122 0
2.415000 -0.062370 0
2.420000 -0.061621 0
2.425000 -0.060876 0
2.430000 -0.060134 0
2.435000 -0.059395 0
2.440000 -0.058658 0
2.445000 -0.057921 0
2.450000 -0.057184 0
2.455000 -0.056442 0
2.460000 -0.055692 0
2.465000 -0.054924 0
2.470000 -0.054128 0
2.475000 -0.053287 0
2.480000 -0.052375 0
2.485000 -0.051358 0
2.490000 -0.050186 0
2.495000 -0.048793 0
2.500000 -0.047093 0
2.505000 -0.044974 0
2.510000 -0.042295 0
2.515000 -0.038889 0
2.520000 -0.034559 0
2.525000 -0.029081 0
2.530000 -0.022217 0
2.535000 -0.013724 0
2.540000 -0.003370 0
2.545000 0.009040 0
2.550000 0.023641 0
2.555000 0.040481 0
2.560000 0.059492 0
2.565000 0.080466 0
2.570000 0.103045 0
2.575000 0.126711 0
2.580000 0.150797 0
2.585000 0.174510 0
2.590000 0.196970 0
2.595000 0.217262 0
2.600000 0.234495 0
2.605000 0.247865 0
2.610000 0.256721 0
2.615000 0.260611 1
2.620000 0.259326 0
2.625000 0.252911 0
2.630000 0.241669 0
2.635000 0.226132 0
2.640000 0.207022 0
2.645000 0.185191 0
2.650000 0.161564 0
2.655000 0.137068 0
2.660000 0.112576 0
2.665000 0.088858 0
2.670000 0.066536 0
2.675000 0.046046 0
2.680000 0.027588 0
2.685000 0.011028 0
2.690000 -0.004259 0
2.695000 -0.019595 0
2.700000 -0.037101 0
2.705000 -0.059440 0
2.710000 -0.088888 0
2.715000 -0.125704 0
2.720000 -0.166329 0
2.725000 -0.202372 0
2.730000 -0.221207 2
2.735000 -0.208028 0
2.740000 -0.148461 0
2.745000 -0.031166 0
2.750000 0.148779 0
2.755000 0.384596 0
2.760000 0.651846 0
2.765000 0.906718 0
2.770000 1.094155 0
2.775000 1.165947 3
2.780000 1.100900 0
2.785000 0.914119 0
2.790000 0.648904 0
2.795000 0.359597 0
2.800000 0.093532 0
2.805000 -0.118597 0
2.810000 -0.263117 0
2.815000 -0.339365 0
2.820000 -0.355896 4
2.825000 -0.327802 0
2.830000 -0.273696 0
2.835000 -0.211603 0
2.840000 -0.154985 0
2.845000 -0.110732 0
2.850000 -0.079792 0
2.855000 -0.059492 0
2.860000 -0.046024 0
2.865000 -0.036061 0
2.870000 -0.027336 0
2.875000 -0.018544 0
2.880000 -0.009020 0
2.885000 0.001553 0
2.890000 0.013336 0
2.895000 0.026412 0
2.900000 0.040829 0
2.905000 0.056609 0
2.910000 0.073742 0
2.915000 0.092191 0
2.920000 0.111885 0
2.925000 0.132718 0
2.930000 0.154547 0
2.935000 0.177189 0
2.940000 0.200427 0
2.945000 0.224007 0
2.950000 0.247643 0
2.955000 0.271025 0
2.960000 0.293819 0
2.965000 0.315678 0
2.970000 0.336252 0
2.975000 0.355191 0
2.980000 0.372162 0
2.985000 0.386853 0
2.990000 0.398984 0
2.995000 0.408317 0
3.000000 0.414660 0
3.005000 0.417877 0
3.010000 0.417890 5
3.015000 0.414683 0
3.020000 0.408303 0
3.025000 0.398856 0
3.030000 0.386508 0
3.035000 0.371476 0
3.040000 0.354025 0
3.045000 0.334455 0
3.050000 0.313098 0
3.055000 0.290306 0
3.060000 0.266439 0
3.065000 0.241859 0
3.070000 0.216920 0
3.075000 0.191958 0
3.080000 0.167286 0
3.085000 0.143186 0
3.090000 0.119908 0
3.095000 0.097662 0
3.100000 0.076622 0
3.105000 0.056919 0
3.110000 0.038650 0
3.115000 0.021872 0
3.120000 0.006610 0
3.125000 -0.007142 0
3.130000 -0.019415 0
3.135000 -0.030262 0
3.140000 -0.039755 0
3.145000 -0.047976 0
3.150000 -0.055022 0
3.155000 -0.060989 0
3.160000 -0.065981 0
3.165000 -0.070098 0
3.170000 -0.073441 0
3.175000 -0.076102 0
3.180000 -0.078172 0
3.185000 -0.079732 0
3.190000 -0.080856 0
3.195000 -0.081612 0
3.200000 -0.082059 0
3.205000 -0.082251 0
3.210000 -0.082231 0
3.215000 -0.082039 0
3.220000 -0.081708 0
3.225000 -0.081266 0
3.230000 -0.080735 0
3.235000 -0.080135 0
3.240000 -0.079482 0
3.245000 -0.078768 0
3.250000 -0.077938 0
3.255000 -0.077112 0
3.260000 -0.076290 0
3.265000 -0.075472 0
3.270000 -0.074659 0
3.275000 -0.073849 0
3.280000 -0.073044 0
3.285000 -0.072242 0
3.290000 -0.071444 0
3.295000 -0.070651 0
3.300000 -0.069861 0
3.305000 -0.069076 0
3.310000 -0.068294 0
3.315000 -0.067516 0
3.320000 -0.066742 0
3.325000 -0.065972 0
3.330000 -0.065206 0
3.335000 -0.064443 0
3.340000 -0.063684 0
3.345000 -0.062930 0
3.350000 -0.062178 0
3.355000 -0.061431 0
3.360000 -0.060686 0
3.365000 -0.059946 0
3.370000 -0.059207 0
3.375000 -0.058472 0
3.380000 -0.057737 0
3.385000 -0.057002 0
3.390000 -0.056263 0
3.395000 -0.055516 0
3.400000 -0.054755 0
3.405000 -0.053969 0
3.410000 -0.053142 0
3.415000 -0.052252 0
3.420000 -0.051267 0
3.425000 -0.050143 0
3.430000 -0.048820 0
3.435000 -0.047217 0
3.440000 -0.045232 0
3.445000 -0.042737 0
3.450000 -0.039572 0
3.455000 -0.035552 0
3.460000 -0.030467 0
3.465000 -0.024084 0
3.470000 -0.016164 0
3.475000 -0.006473 0
3.480000 0.005196 0
3.485000 0.019000 0
3.490000 0.035020 0
3.495000 0.053231 0
3.500000 0.073485 0
3.505000 0.095486 0
3.510000 0.118785 0
3.515000 0.142782 0
3.520000 0.166743 0
3.525000 0.189831 0
3.530000 0.211154 0
3.535000 0.229816 0
3.540000 0.244982 0
3.545000 0.255938 0
3.550000 0.262143 0
3.555000 0.263279 1
3.560000 0.259272 0
3.565000 0.250302 0
3.570000 0.236787 0
3.575000 0.219352 0
3.580000 0.198780 0
3.585000 0.175953 0
3.590000 0.151788 0
3.595000 0.127182 0
3.600000 0.102952 0
3.605000 0.079791 0
3.610000 0.058235 0
3.615000 0.038619 0
3.620000 0.021011 0
3.625000 0.005096 0
3.630000 -0.010007 0
3.635000 -0.025922 0
3.640000 -0.045017 0
3.645000 -0.069915 0
3.650000 -0.102306 0
3.655000 -0.141209 0
3.660000 -0.181392 0
3.665000 -0.212918 0
3.670000 -0.222309 2
3.675000 -0.194847 0
3.680000 -0.117101 0
3.685000 0.020440 0
3.690000 0.219555 0
3.695000 0.468634 0
3.700000 0.737548 0
3.705000 0.978467 0
3.710000 1.137001 0
3.715000 1.171395 3
3.720000 1.069457 0
3.725000 0.854310 0
3.730000 0.575909 0
3.735000 0.289577 0
3.740000 0.039049 0
3.745000 -0.150277 0
3.750000 -0.269531 0
3.755000 -0.321853 4
3.760000 -0.318891 0
3.765000 -0.278026 0
3.770000 -0.218695 0
3.775000 -0.157865 0
3.780000 -0.106516 0
3.785000 -0.068764 0
3.790000 -0.043516 0
3.795000 -0.027189 0
3.800000 -0.015980 0
3.805000 -0.007000 0
3.810000 0.001528 0
3.815000 0.010550 0
3.820000 0.020524 0
3.825000 0.031670 0
3.830000 0.044100 0
3.835000 0.057877 0
3.840000 0.073032 0
3.845000 0.089568 0
3.850000 0.107458 0
3.855000 0.126642 0
3.860000 0.147022 0
3.865000 0.168462 0
3.870000 0.190789 0
3.875000 0.213787 0
3.880000 0.237207 0
3.885000 0.260763 0
3.890000 0.284140 0
3.895000 0.306999 0
3.900000 0.328987 0
3.905000 0.349742 0
3.910000 0.368904 0
3.915000 0.386126 0
3.920000 0.401083 0
3.925000 0.413482 0
3.930000 0.423070 0
3.935000 0.429645 0
3.940000 0.433060 0
3.945000 0.433230 5
3.950000 0.430133 0
3.955000 0.423814 0
3.960000 0.414379 0
3.965000 0.401996 0
3.970000 0.386888 0
3.975000 0.369326 0
3.980000 0.349622 0
3.985000 0.328117 0
3.990000 0.305172 0
3.995000 0.281160 0
4.000000 0.256453 0
4.005000 0.231411 0
4.010000 0.206381 0
4.015000 0.181680 0
4.020000 0.157595 0
4.025000 0.134376 0
4.030000 0.112236 0
4.035000 0.091345 0
4.040000 0.071831 0
4.045000 0.053786 0
4.050000 0.037260 0
4.055000 0.022273 0
4.060000 0.008812 0
4.065000 -0.003162 0
4.070000 -0.013708 0
4.075000 -0.022905 0
4.080000 -0.030841 0
4.085000 -0.037616 0
4.090000 -0.043333 0
4.095000 -0.048096 0
4.100000 -0.052009 0
4.105000 -0.055173 0
4.110000 -0.057682 0
4.115000 -0.059626 0
4.120000 -0.061085 0
4.125000 -0.062133 0
4.130000 -0.062835 0
4.135000 -0.063249 0
4.140000 -0.063426 0
4.145000 -0.063409 0
4.150000 -0.063235 0
4.155000 -0.062935 0
4.160000 -0.062534 0
4.165000 -0.062054 0
4.170000 -0.061514 0
4.175000 -0.060926 0
4.180000 -0.060207 0
4.185000 -0.059470 0
4.190000 -0.058736 0
4.195000 -0.058006 0
4.200000 -0.057279 0
4.205000 -0.056556 0
4.210000 -0.055837 0
4.215000 -0.055121 0
4.220000 -0.054409 0
4.225000 -0.053701 0
4.230000 -0.052996 0
4.235000 -0.052294 0
4.240000 -0.051596 0
4.245000 -0.050901 0
4.250000 -0.050210 0
4.255000 -0.049523 0
4.260000 -0.048838 0
4.265000 -0.048158 0
4.270000 -0.047480 0
4.275000 -0.046806 0
4.280000 -0.046135 0
4.285000 -0.045468 0
4.290000 -0.044803 0
4.295000 -0.044141 0
4.300000 -0.043482 0
4.305000 -0.042825 0
4.310000 -0.042168 0
4.315000 -0.041511 0
4.320000 -0.040849 0
4.325000 -0.040179 0
4.330000 -0.039493 0
4.335000 -0.038781 0
4.340000 -0.038026 0
4.345000 -0.037205 0
4.350000 -0.036284 0
4.355000 -0.035215 0
4.360000 -0.033935 0
4.365000 -0.032360 0
4.370000 -0.030378 0
4.375000 -0.027854 0
4.380000 -0.024620 0
4.385000 -0.020480 0
4.390000 -0.015210 0
4.395000 -0.008571 0
4.400000 -0.000316 0
4.405000 0.009792 0
4.410000 0.021955 0
4.415000 0.036316 0
4.420000 0.052931 0
4.425000 0.071740 0
4.430000 0.092542 0
4.435000 0.114984 0
4.440000 0.138550 0
4.445000 0.162569 0
4.450000 0.186245 0
4.455000 0.208687 0
4.460000 0.228968 0
4.465000 0.246186 0
4.470000 0.259526 0
4.475000 0.268325 0
4.480000 0.272127 1
4.485000 0.270720 0
4.490000 0.264155 0
4.495000 0.252741 0
4.500000 0.237023 0
4.505000 0.217737 0
4.510000 0.195750 0
4.515000 0.171999 0
4.520000 0.147422 0
4.525000 0.122899 0
4.530000 0.099200 0
4.535000 0.076944 0
4.540000 0.056557 0
4.545000 0.038217 0
4.550000 0.021753 0
4.555000 0.006472 0
4.560000 -0.009045 0
4.565000 -0.027027 0
4.570000 -0.050186 0
4.575000 -0.080679 0
4.580000 -0.118370 0
4.585000 -0.159029 0
4.590000 -0.193488 0
4.595000 -0.208486 2
4.600000 -0.188927 0
4.605000 -0.120564 0
4.610000 0.007290 0
4.615000 0.198022 0
4.620000 0.441985 0
4.625000 0.710717 0
4.630000 0.956707 0
4.635000 1.123923 0
4.640000 1.167593 3
4.645000 1.072084 0
4.650000 0.858784 0
4.655000 0.580124 0
4.660000 0.294526 0
4.665000 0.047569 0
4.670000 -0.135150 0
4.675000 -0.245647 0
4.680000 -0.288538 4
4.685000 -0.277294 0
4.690000 -0.231038 0
4.695000 -0.170163 0
4.700000 -0.111320 0
4.705000 -0.064109 0
4.710000 -0.030960 0
4.715000 -0.009536 0
4.720000 0.004245 0
4.725000 0.014105 0
4.730000 0.022593 0
4.735000 0.031152 0
4.740000 0.040496 0
4.745000 0.050961 0
4.750000 0.062705 0
4.755000 0.075815 0
4.760000 0.090338 0
4.765000 0.106287 0
4.770000 0.123646 0
4.775000 0.142362 0
4.780000 0.162342 0
4.785000 0.183456 0
4.790000 0.205526 0
4.795000 0.228336 0
4.800000 0.251624 0
4.805000 0.275094 0
4.810000 0.298416 0
4.815000 0.321232 0
4.820000 0.343168 0
4.825000 0.363841 0
4.830000 0.382869 0
4.835000 0.399886 0
4.840000 0.414548 0
4.845000 0.426548 0
4.850000 0.435625 0
4.855000 0.441572 0
4.860000 0.444246 5
4.865000 0.443569 0
4.870000 0.439535 0
4.875000 0.432208 0
4.880000 0.421722 0
4.885000 0.408273 0
4.890000 0.392117 0
4.895000 0.373558 0
4.900000 0.352940 0
4.905000 0.330636 0
4.910000 0.307035 0
4.915000 0.282533 0
4.920000 0.257518 0
4.925000 0.232364 0
4.930000 0.207422 0
4.935000 0.183007 0
4.940000 0.159401 0
4.945000 0.136839 0
4.950000 0.115516 0
4.955000 0.095580 0
4.960000 0.077136 0
4.965000 0.060248 0
4.970000 0.044940 0
4.975000 0.031204 0
4.980000 0.019002 0
4.985000 0.008274 0
4.990000 -0.001063 0
4.995000 -0.009102 0
5.000000 -0.015948 0
5.005000 -0.021711 0
5.010000 -0.026501 0
5.015000 -0.030428 0
5.020000 -0.033597 0
5.025000 -0.036107 0
5.030000 -0.038052 0
5.035000 -0.039516 0
5.040000 -0.040574 0
5.045000 -0.041294 0
5.050000 -0.041733 0
5.055000 -0.041944 0
5.060000 -0.041970 0
5.065000 -0.041846 0
5.070000 -0.041604 0
5.075000 -0.041269 0
5.080000 -0.040862 0
5.085000 -0.040399 0
5.090000 -0.039874 0
5.095000 -0.039238 0
5.100000 -0.038605 0
5.105000 -0.037976 0
5.110000 -0.037349 0
5.115000 -0.036725 0
5.120000 -0.036105 0
5.125000 -0.035488 0
5.130000 -0.034873 0
5.135000 -0.034262 0
5.140000 -0.033654 0
5.145000 -0.033049 0
5.150000 -0.032447 0
5.155000 -0.031848 0
5.160000 -0.031252 0
5.165000 -0.030659 0
5.170000 -0.030069 0
5.175000 -0.029481 0
5.180000 -0.028897 0
5.185000 -0.028316 0
5.190000 -0.027737 0
5.195000 -0.027161 0
5.200000 -0.026588 0
5.205000 -0.026017 0
5.210000 -0.025448 0
5.215000 -0.024880 0
5.220000 -0.024311 0
5.225000 -0.023741 0
5.230000 -0.023164 0
5.235000 -0.022575 0
5.240000 -0.021966 0
5.245000 -0.021322 0
5.250000 -0.020622 0
5.255000 -0.019837 0
5.260000 -0.018924 0
5.265000 -0.017824 0
5.270000 -0.016455 0
5.275000 -0.014713 0
5.280000 -0.012461 0
5.285000 -0.009535 0
5.290000 -0.005734 0
5.295000 -0.000829 0
5.300000 0.005432 0
5.305000 0.013310 0
5.310000 0.023058 0
5.315000 0.034899 0
5.320000 0.048994 0
5.325000 0.065409 0
5.330000 0.084090 0
5.335000 0.104830 0
5.340000 0.127254 0
5.345000 0.150810 0
5.350000 0.174780 0
5.355000 0.198309 0
5.360000 0.220447 0
5.365000 0.240211 0
5.370000 0.256655 0
5.375000 0.268945 0
5.380000 0.276425 0
5.385000 0.278677 1
5.390000 0.275555 0
5.395000 0.267203 0
5.400000 0.254039 0
5.405000 0.236723 0
5.410000 0.216099 0
5.415000 0.193126 0
5.420000 0.168805 0
5.425000 0.144107 0
5.430000 0.119907 0
5.435000 0.096937 0
5.440000 0.075738 0
5.445000 0.056610 0
5.450000 0.039519 0
5.455000 0.023931 0
5.460000 0.008591 0
5.465000 -0.008643 0
5.470000 -0.030586 0
5.475000 -0.059764 0
5.480000 -0.096603 0
5.485000 -0.137357 0
5.490000 -0.172933 0
5.495000 -0.189607 2
5.500000 -0.171439 0
5.505000 -0.103275 0
5.510000 0.026199 0
5.515000 0.220254 0
5.520000 0.467649 0
5.525000 0.736383 0
5.530000 0.974372 0
5.535000 1.122703 0
5.540000 1.138436 3
5.545000 1.013809 0
5.550000 0.780269 0
5.555000 0.494932 0
5.560000 0.215702 0
5.565000 -0.015797 0
5.570000 -0.178621 0
5.575000 -0.268646 0
5.580000 -0.293526 4
5.585000 -0.269147 0
5.590000 -0.216013 0
5.595000 -0.154264 0
5.600000 -0.098740 0
5.605000 -0.056571 0
5.610000 -0.028146 0
5.615000 -0.010093 0
5.620000 0.001800 0
5.625000 0.010904 0
5.630000 0.019332 0
5.635000 0.028202 0
5.640000 0.038045 0
5.645000 0.049107 0
5.650000 0.061510 0
5.655000 0.075321 0
5.660000 0.090572 0
5.665000 0.107263 0
5.670000 0.125358 0
5.675000 0.144783 0
5.680000 0.165425 0
5.685000 0.187123 0
5.690000 0.209674 0
5.695000 0.232832 0
5.700000 0.256308 0
5.705000 0.279778 0
5.710000 0.302886 0
5.715000 0.325257 0
5.720000 0.346499 0
5.725000 0.366221 0
5.730000 0.384041 0
5.735000 0.399596 0
5.740000 0.412560 0
5.745000 0.422647 0
5.750000 0.429628 0
5.755000 0.433335 0
5.760000 0.433668 5
5.765000 0.430600 0
5.770000 0.424176 0
5.775000 0.414515 0
5.780000 0.401801 0
5.785000 0.386284 0
5.790000 0.368263 0
5.795000 0.348083 0
5.800000 0.326119 0
5.805000 0.302767 0
5.810000 0.278431 0
5.815000 0.253512 0
5.820000 0.228395 0
5.825000 0.203442 0
5.830000 0.178982 0
5.835000 0.155306 0
5.840000 0.132662 0
5.845000 0.111253 0
5.850000 0.091235 0
5.855000 0.072719 0
5.860000 0.055772 0
5.865000 0.040422 0
5.870000 0.026662 0
5.875000 0.014455 0
5.880000 0.003738 0
5.885000 -0.005572 0
5.890000 -0.013571 0
5.895000 -0.020366 0
5.900000 -0.026069 0
5.905000 -0.030794 0
5.910000 -0.034651 0
5.915000 -0.037750 0
5.920000 -0.040190 0
5.925000 -0.042066 0
5.930000 -0.043464 0
5.935000 -0.044459 0
5.940000 -0.045121 0
5.945000 -0.045506 0
5.950000 -0.045668 0
5.955000 -0.045648 0
5.960000 -0.045483 0
5.965000 -0.045204 0
5.970000 -0.044835 0
5.975000 -0.044396 0
5.980000 -0.043904 0
5.985000 -0.043355 0
5.990000 -0.042701 0
5.995000 -0.042051 0
6.000000 -0.041404 0
6.005000 -0.040761 0
6.010000 -0.040120 0
6.015000 -0.039483 0
6.020000 -0.038849 0
6.025000 -0.038218 0
6.030000 -0.037590 0
6.035000 -0.036965 0
6.040000 -0.036343 0
6.045000 -0.035725 0
6.050000 -0.035109 0
6.055000 -0.034497 0
6.060000 -0.033888 0
6.065000 -0.033282 0
6.070000 -0.032678 0
6.075000 -0.032078 0
6.080000 -0.031481 0
6.085000 -0.030886 0
6.090000 -0.030294 0
6.095000 -0.029705 0
6.100000 -0.029118 0
6.105000 -0.028533 0
6.110000 -0.027948 0
6.115000 -0.027362 0
6.120000 -0.026772 0
6.125000 -0.026173 0
6.130000 -0.025557 0
6.135000 -0.024913 0
6.140000 -0.024222 0
6.145000 -0.023459 0
6.150000 -0.022585 0
6.155000 -0.021547 0
6.160000 -0.020269 0
6.165000 -0.018656 0
6.170000 -0.016578 0
6.175000 -0.013877 0
6.180000 -0.010359 0
6.185000 -0.005800 0
6.190000 0.000052 0
6.195000 0.007464 0
6.200000 0.016701 0
6.205000 0.027999 0
6.210000 0.041543 0
6.215000 0.057430 0
6.220000 0.075634 0
6.225000 0.095982 0
6.230000 0.118127 0
6.235000 0.141542 0
6.240000 0.165521 0
6.245000 0.189213 0
6.250000 0.211658 0
6.255000 0.231852 0
6.260000 0.248816 0
6.265000 0.261677 0
6.270000 0.269740 0
6.275000 0.272545 1
6.280000 0.269917 0
6.285000 0.261976 0
6.290000 0.249130 0
6.295000 0.232039 0
6.300000 0.211559 0
6.305000 0.188666 0
6.310000 0.164385 0
6.315000 0.139710 0
6.320000 0.115537 0
6.325000 0.092614 0
6.330000 0.071491 0
6.335000 0.052466 0
6.340000 0.035486 0
6.345000 0.019974 0
6.350000 0.004589 0
6.355000 -0.012926 0
6.360000 -0.035474 0
6.365000 -0.065517 0
6.370000 -0.103118 0
6.375000 -0.143810 0
6.380000 -0.177577 0
6.385000 -0.189876 2
6.390000 -0.164330 0
6.395000 -0.085869 0
6.400000 0.055983 0
6.405000 0.262302 0
6.410000 0.517693 0
6.415000 0.784598 0
6.420000 1.006544 0
6.425000 1.124937 3
6.430000 1.105078 0
6.435000 0.952431 0
6.440000 0.704437 0
6.445000 0.416543 0
6.450000 0.141446 0
6.455000 -0.084262 0
6.460000 -0.242644 0
6.465000 -0.330633 0
6.470000 -0.355650 4
6.475000 -0.332542 0
6.480000 -0.280448 0
6.485000 -0.218454 0
6.490000 -0.161158 0
6.495000 -0.116241 0
6.500000 -0.084955 0
6.505000 -0.064588 0
6.510000 -0.051174 0
6.515000 -0.041264 0
6.520000 -0.032533 0
6.525000 -0.023668 0
6.530000 -0.014016 0
6.535000 -0.003264 0
6.540000 0.008737 0
6.545000 0.022072 0
6.550000 0.036784 0
6.555000 0.052890 0
6.560000 0.070374 0
6.565000 0.089190 0
6.570000 0.109255 0
6.575000 0.130447 0
6.580000 0.152604 0
6.585000 0.175525 0
6.590000 0.198968 0
6.595000 0.222658 0
6.600000 0.246284 0
6.605000 0.269511 0
6.610000 0.291985 0
6.615000 0.313340 0
6.620000 0.333210 0
6.625000 0.351237 0
6.630000 0.367083 0
6.635000 0.380440 0
6.640000 0.391037 0
6.645000 0.398653 0
6.650000 0.403123 0
6.655000 0.404342 5
6.660000 0.402269 0
6.665000 0.396932 0
6.670000 0.388421 0
6.675000 0.376892 0
6.680000 0.362559 0
6.685000 0.345684 0
6.690000 0.326574 0
6.695000 0.305571 0
6.700000 0.283037 0
6.705000 0.259347 0
6.710000 0.234881 0
6.715000 0.210007 0
6.720000 0.185080 0
6.725000 0.160428 0
6.730000 0.136347 0
6.735000 0.113098 0
6.740000 0.090903 0
6.745000 0.069941 0
6.750000 0.050349 0
6.755000 0.032224 0
6.760000 0.015624 0
6.765000 0.000572 0
6.770000 -0.012941 0
6.775000 -0.024953 0
6.780000 -0.035520 0
6.785000 -0.044722 0
6.790000 -0.052646 0
6.795000 -0.059394 0
6.800000 -0.065068 0
6.805000 -0.069777 0
6.810000 -0.073624 0
6.815000 -0.076712 0
6.820000 -0.079138 0
6.825000 -0.080991 0
6.830000 -0.082355 0
6.835000 -0.083303 0
6.840000 -0.083903 0
6.845000 -0.084214 0
6.850000 -0.084285 0
6.855000 -0.084163 0
6.860000 -0.083882 0
6.865000 -0.083476 0
6.870000 -0.082970 0
6.875000 -0.082386 0
6.880000 -0.081741 0
6.885000 -0.081050 0
6.890000 -0.080231 0
6.895000 -0.079393 0
6.900000 -0.078560 0
6.905000 -0.077731 0
6.910000 -0.076906 0
6.915000 -0.076085 0
6.920000 -0.075269 0
6.925000 -0.074456 0
6.930000 -0.073647 0
6.935000 -0.072843 0
6.940000 -0.072042 0
6.945000 -0.071246 0
6.950000 -0.070453 0
6.955000 -0.069665 0
6.960000 -0.068880 0
6.965000 -0.068099 0
6.970000 -0.067322 0
6.975000 -0.066549 0
6.980000 -0.065780 0
6.985000 -0.065015 0
6.990000 -0.064253 0
6.995000 -0.063495 0
7.000000 -0.062740 0
7.005000 -0.061989 0
7.010000 -0.061241 0
7.015000 -0.060494 0
7.020000 -0.059749 0
7.025000 -0.059002 0
7.030000 -0.058250 0
7.035000 -0.057489 0
7.040000 -0.056710 0
7.045000 -0.055901 0
7.050000 -0.055043 0
7.055000 -0.054110 0
7.060000 -0.053064 0
7.065000 -0.051852 0
7.070000 -0.050403 0
7.075000 -0.048624 0
7.080000 -0.046394 0
7.085000 -0.043564 0
7.090000 -0.039954 0
7.095000 -0.035356 0
7.100000 -0.029535 0
7.105000 -0.022245 0
7.110000 -0.013234 0
7.115000 -0.002276 0
7.120000 0.010817 0
7.125000 0.026158 0
7.130000 0.043760 0
7.135000 0.063508 0
7.140000 0.085135 0
7.145000 0.108213 0
7.150000 0.132150 0
7.155000 0.156206 0
7.160000 0.179526 0
7.165000 0.201184 0
7.170000 0.220241 0
7.175000 0.235814 0
7.180000 0.247143 0
7.185000 0.253649 0
7.190000 0.254985 1
7.195000 0.251067 0
7.200000 0.242078 0
7.205000 0.228458 0
7.210000 0.210864 0
7.215000 0.190121 0
7.220000 0.167154 0
7.225000 0.142921 0
7.230000 0.118349 0
7.235000 0.094275 0
7.240000 0.071400 0
7.245000 0.050247 0
7.250000 0.031114 0
7.255000 0.013993 0
7.260000 -0.001574 0
7.265000 -0.016703 0
7.270000 -0.033336 0
7.275000 -0.054111 0
7.280000 -0.081607 0
7.285000 -0.116796 0
7.290000 -0.157106 0
7.295000 -0.195060 0
7.300000 -0.218486 2
7.305000 -0.212417 0
7.310000 -0.161808 0
7.315000 -0.054270 0
7.320000 0.116602 0
7.325000 0.345989 0
7.330000 0.611439 0
7.335000 0.870132 0
7.340000 1.066043 0
7.345000 1.148156 3
7.350000 1.093407 0
7.355000 0.916528 0
7.360000 0.657404 0
7.365000 0.368325 0
7.370000 0.096611 0
7.375000 -0.125571 0
7.380000 -0.282574 0
7.385000 -0.371811 0
7.390000 -0.400000 4
7.395000 -0.380560 0
7.400000 -0.330994 0
7.405000 -0.269259 0
7.410000 -0.209843 0
7.415000 -0.161267 0
7.420000 -0.126000 0
7.425000 -0.102300 0
7.430000 -0.086629 0
7.435000 -0.075494 0
7.440000 -0.066306 0
7.445000 -0.057476 0
7.450000 -0.048147 0
7.455000 -0.037897 0
7.460000 -0.026520 0
7.465000 -0.013909 0
7.470000 -0.000000 0
7.475000 0.015236 0
7.480000 0.031808 0
7.485000 0.049695 0
7.490000 0.068846 0
7.495000 0.089178 0
7.500000 0.110574 0
7.505000 0.132881 0
7.510000 0.155911 0
7.515000 0.179440 0
7.520000 0.203213 0
7.525000 0.226947 0
7.530000 0.250333 0
7.535000 0.273045 0
7.540000 0.294748 0
7.545000 0.315102 0
7.550000 0.333773 0
7.555000 0.350444 0
7.560000 0.364819 0
7.565000 0.376634 0
7.570000 0.385667 0
7.575000 0.391741 0
7.580000 0.394731 5
7.585000 0.394570 0
7.590000 0.391246 0
7.595000 0.384810 0
7.600000 0.375368 0
7.605000 0.363081 0
7.610000 0.348161 0
7.615000 0.330863 0
7.620000 0.311478 0
7.625000 0.290325 0
7.630000 0.267741 0
7.635000 0.244076 0
7.640000 0.219678 0
7.645000 0.194889 0
7.650000 0.170038 0
7.655000 0.145428 0
7.660000 0.121339 0
7.665000 0.098016 0
7.670000 0.075669 0
7.675000 0.054474 0
7.680000 0.034567 0
7.685000 0.016048 0
7.690000 -0.001017 0
7.695000 -0.016597 0
7.700000 -0.030687 0
7.705000 -0.043312 0
7.710000 -0.054515 0
7.715000 -0.064361 0
7.720000 -0.072925 0
7.725000 -0.080297 0
7.730000 -0.086568 0
7.735000 -0.091839 0
7.740000 -0.096206 0
7.745000 -0.099766 0
7.750000 -0.102614 0
7.755000 -0.104838 0
7.760000 -0.106521 0
7.765000 -0.107737 0
7.770000 -0.108557 0
7.775000 -0.109041 0
7.780000 -0.109245 0
7.785000 -0.109216 0
7.790000 -0.108995 0
7.795000 -0.108618 0
7.800000 -0.108114 0
7.805000 -0.107510 0
7.810000 -0.106826 0
7.815000 -0.106079 0
7.820000 -0.105284 0
7.825000 -0.104434 0
7.830000 -0.103475 0
7.835000 -0.102522 0
7.840000 -0.101574 0
7.845000 -0.100630 0
7.850000 -0.099691 0
7.855000 -0.098756 0
7.860000 -0.097826 0
7.865000 -0.096901 0
7.870000 -0.095981 0
7.875000 -0.095065 0
7.880000 -0.094153 0
7.885000 -0.093247 0
7.890000 -0.092344 0
7.895000 -0.091446 0
7.900000 -0.090553 0
7.905000 -0.089664 0
7.910000 -0.088780 0
7.915000 -0.087900 0
7.920000 -0.087024 0
7.925000 -0.086153 0
7.930000 -0.085286 0
7.935000 -0.084423 0
7.940000 -0.083564 0
7.945000 -0.082709 0
7.950000 -0.081858 0
7.955000 -0.081009 0
7.960000 -0.080163 0
7.965000 -0.079317 0
7.970000 -0.078469 0
7.975000 -0.077616 0
7.980000 -0.076751 0
7.985000 -0.075866 0
7.990000 -0.074948 0
7.995000 -0.073977 0
8.000000 -0.072926 0
8.005000 -0.071758 0
8.010000 -0.070421 0
8.015000 -0.068847 0
8.020000 -0.066946 0
8.025000 -0.064606 0
8.030000 -0.061687 0
8.035000 -0.058024 0
8.040000 -0.053425 0
8.045000 -0.047676 0
8.050000 -0.040547 0
8.055000 -0.031809 0
8.060000 -0.021244 0
8.065000 -0.008670 0
8.070000 0.006041 0
8.075000 0.022930 0
8.080000 0.041936 0
8.085000 0.062869 0
8.090000 0.085396 0
8.095000 0.109041 0
8.100000 0.133185 0
8.105000 0.157091 0
8.110000 0.179934 0
8.115000 0.200847 0
8.120000 0.218973 0
8.125000 0.233523 0
8.130000 0.243835 0
8.135000 0.249419 0
8.140000 0.249999 1
8.145000 0.245535 0
8.150000 0.236223 0
8.155000 0.222488 0
8.160000 0.204944 0
8.165000 0.184354 0
8.170000 0.161570 0
8.175000 0.137480 0
8.180000 0.112947 0
8.185000 0.088762 0
8.190000 0.065602 0
8.195000 0.043990 0
8.200000 0.024268 0
8.205000 0.006529 0
8.210000 -0.009484 0
8.215000 -0.024537 0
8.220000 -0.040087 0
8.225000 -0.058318 0
8.230000 -0.081785 0
8.235000 -0.112427 0
8.240000 -0.150013 0
8.245000 -0.190550 0
8.250000 -0.225548 0
8.255000 -0.242727 2
8.260000 -0.227967 0
8.265000 -0.167673 0
8.270000 -0.051116 0
8.275000 0.126510 0
8.280000 0.359346 0
8.285000 0.625397 0
8.290000 0.884524 0
8.295000 1.084835 0
8.300000 1.178294 3
8.305000 1.139538 0
8.310000 0.976498 0
8.315000 0.725524 0
8.320000 0.437435 0
8.325000 0.160307 0
8.330000 -0.071656 0
8.335000 -0.240591 0
8.340000 -0.342034 0
8.345000 -0.381139 4
8.350000 -0.370009 0
8.355000 -0.325296 0
8.360000 -0.264887 0
8.365000 -0.204048 0
8.370000 -0.152576 0
8.375000 -0.114185 0
8.380000 -0.087951 0
8.385000 -0.070633 0
8.390000 -0.058665 0
8.395000 -0.049231 0
8.400000 -0.040510 0
8.405000 -0.031486 0
8.410000 -0.021647 0
8.415000 -0.010739 0
8.420000 0.001364 0
8.425000 0.014737 0
8.430000 0.029418 0
8.435000 0.045422 0
8.440000 0.062740 0
8.445000 0.081333 0
8.450000 0.101130 0
8.455000 0.122030 0
8.460000 0.143897 0
8.465000 0.166558 0
8.470000 0.189809 0
8.475000 0.213411 0
8.480000 0.237096 0
8.485000 0.260572 0
8.490000 0.283526 0
8.495000 0.305630 0
8.500000 0.326553 0
8.505000 0.345963 0
8.510000 0.363539 0
8.515000 0.378980 0
8.520000 0.392009 0
8.525000 0.402387 0
8.530000 0.409918 0
8.535000 0.414450 0
8.540000 0.415887 5
8.545000 0.414190 0
8.550000 0.409374 0
8.555000 0.401513 0
8.560000 0.390736 0
8.565000 0.377224 0
8.570000 0.361203 0
8.575000 0.342937 0
8.580000 0.322727 0
8.585000 0.300892 0
8.590000 0.277771 0
8.595000 0.253707 0
8.600000 0.229041 0
8.605000 0.204106 0
8.610000 0.179215 0
8.615000 0.154660 0
8.620000 0.130705 0
8.625000 0.107580 0
8.630000 0.085481 0
8.635000 0.064569 0
8.640000 0.044967 0
8.645000 0.026763 0
8.650000 0.010013 0
8.655000 -0.005259 0
8.660000 -0.019059 0
8.665000 -0.031413 0
8.670000 -0.042372 0
8.675000 -0.052000 0
8.680000 -0.060375 0
8.685000 -0.067587 0
8.690000 -0.073726 0
8.695000 -0.078891 0
8.700000 -0.083178 0
8.705000 -0.086681 0
8.710000 -0.089493 0
8.715000 -0.091698 0
8.720000 -0.093377 0
8.725000 -0.094604 0
8.730000 -0.095445 0
8.735000 -0.095961 0
8.740000 -0.096204 0
8.745000 -0.096219 0
8.750000 -0.096048 0
8.755000 -0.095725 0
8.760000 -0.095278 0
8.765000 -0.094732 0
8.770000 -0.094108 0
8.775000 -0.093422 0
8.780000 -0.092689 0
8.785000 -0.091900 0
8.790000 -0.091004 0
8.795000 -0.090113 0
8.800000 -0.089227 0
8.805000 -0.088344 0
8.810000 -0.087466 0
8.815000 -0.086593 0
8.820000 -0.085724 0
8.825000 -0.084859 0
8.830000 -0.083999 0
8.835000 -0.083142 0
8.840000 -0.082290 0
8.845000 -0.081443 0
8.850000 -0.080599 0
8.855000 -0.079760 0
8.860000 -0.078925 0
8.865000 -0.078094 0
8.870000 -0.077267 0
8.875000 -0.076445 0
8.880000 -0.075626 0
8.885000 -0.074812 0
8.890000 -0.074001 0
8.895000 -0.073195 0
8.900000 -0.072392 0
8.905000 -0.071593 0
8.910000 -0.070797 0
8.915000 -0.070004 0
8.920000 -0.069213 0
8.925000 -0.068423 0
8.930000 -0.067631 0
8.935000 -0.066835 0
8.940000 -0.066029 0
8.945000 -0.065204 0
8.950000 -0.064351 0
8.955000 -0.063451 0
8.960000 -0.062481 0
8.965000 -0.061406 0
8.970000 -0.060181 0
8.975000 -0.058743 0
8.980000 -0.057011 0
8.985000 -0.054884 0
8.990000 -0.052232 0
8.995000 -0.048903 0
9.000000 -0.044715 0
9.005000 -0.039467 0
9.010000 -0.032937 0
9.015000 -0.024898 0
9.020000 -0.015130 0
9.025000 -0.003436 0
9.030000 0.010331 0
9.035000 0.026251 0
9.040000 0.044310 0
9.045000 0.064376 0
9.050000 0.086185 0
9.055000 0.109333 0
9.060000 0.133274 0
9.065000 0.157334 0
9.070000 0.180739 0
9.075000 0.202652 0
9.080000 0.222218 0
9.085000 0.238623 0
9.090000 0.251146 0
9.095000 0.259212 0
9.100000 0.262436 1
9.105000 0.260652 0
9.110000 0.253928 0
9.115000 0.242560 0
9.120000 0.227050 0
9.125000 0.208072 0
9.130000 0.186419 0
9.135000 0.162949 0
9.140000 0.138531 0
9.145000 0.113991 0
9.150000 0.090067 0
9.155000 0.067371 0
9.160000 0.046357 0
9.165000 0.027282 0
9.170000 0.010132 0
9.175000 -0.005493 0
9.180000 -0.020553 0
9.185000 -0.036717 0
9.190000 -0.056310 0
9.195000 -0.081792 0
9.200000 -0.114620 0
9.205000 -0.153652 0
9.210000 -0.193764 0
9.215000 -0.225486 0
9.220000 -0.236070 2
9.225000 -0.211553 0
9.230000 -0.139040 0
9.235000 -0.009022 0
9.240000 0.181362 0
9.245000 0.423386 0
9.250000 0.691737 0
9.255000 0.943886 0
9.260000 1.128162 0
9.265000 1.200000 3
9.270000 1.137169 0
9.275000 0.952423 0
9.280000 0.688324 0
9.285000 0.398812 0
9.290000 0.131270 0
9.295000 -0.083252 0
9.300000 -0.230644 0
9.305000 -0.309826 0
9.310000 -0.328961 4
9.315000 -0.302797 0
9.320000 -0.249732 0
9.325000 -0.187808 0
9.330000 -0.130729 0
9.335000 -0.085738 0
9.340000 -0.054093 0
9.345000 -0.033296 0
9.350000 -0.019581 0
9.355000 -0.009577 0
9.360000 -0.000946 0
9.365000 0.007672 0
9.370000 0.016979 0
9.375000 0.027313 0
9.380000 0.038840 0
9.385000 0.051651 0
9.390000 0.065795 0
9.395000 0.081296 0
9.400000 0.098148 0
9.405000 0.116318 0
9.410000 0.135739 0
9.415000 0.156310 0
9.420000 0.177892 0
9.425000 0.200310 0
9.430000 0.223353 0
9.435000 0.246772 0
9.440000 0.270290 0
9.445000 0.293598 0
9.450000 0.316370 0
9.455000 0.338263 0
9.460000 0.358928 0
9.465000 0.378018 0
9.470000 0.395199 0
9.475000 0.410156 0
9.480000 0.422608 0
9.485000 0.432308 0
9.490000 0.439059 0
9.495000 0.442715 0
9.500000 0.443190 5
9.505000 0.440455 0
9.510000 0.434545 0
9.515000 0.425555 0
9.520000 0.413639 0
9.525000 0.399002 0
9.530000 0.381899 0
9.535000 0.362621 0
9.540000 0.341493 0
9.545000 0.318860 0
9.550000 0.295079 0
9.555000 0.270510 0
9.560000 0.245507 0
9.565000 0.220407 0
9.570000 0.195528 0
9.575000 0.171158 0
9.580000 0.147551 0
9.585000 0.124927 0
9.590000 0.103466 0
9.595000 0.083311 0
9.600000 0.064564 0
9.605000 0.047292 0
9.610000 0.031528 0
9.615000 0.017273 0
9.620000 0.004504 0
9.625000 -0.006827 0
9.630000 -0.016787 0
9.635000 -0.025456 0
9.640000 -0.032925 0
9.645000 -0.039291 0
9.650000 -0.044654 0
9.655000 -0.049117 0
9.660000 -0.052778 0
9.665000 -0.055733 0
9.670000 -0.058072 0
9.675000 -0.059877 0
9.680000 -0.061226 0
9.685000 -0.062187 0
9.690000 -0.062823 0
9.695000 -0.063187 0
9.700000 -0.063326 0
9.705000 -0.063281 0
9.710000 -0.063087 0
9.715000 -0.062772 0
9.720000 -0.062363 0
9.725000 -0.061877 0
9.730000 -0.061333 0
9.735000 -0.060744 0
9.740000 -0.060026 0
9.745000 -0.059289 0
9.750000 -0.058556 0
9.755000 -0.057827 0
9.760000 -0.057101 0
9.765000 -0.056379 0
9.770000 -0.055661 0
9.775000 -0.054946 0
9.780000 -0.054235 0
9.785000 -0.053527 0
9.790000 -0.052823 0
9.795000 -0.052122 0
9.800000 -0.051425 0
9.805000 -0.050731 0
9.810000 -0.050041 0
9.815000 -0.049354 0
9.820000 -0.048671 0
9.825000 -0.047991 0
9.830000 -0.047314 0
9.835000 -0.046641 0
9.840000 -0.045971 0
9.845000 -0.045304 0
9.850000 -0.044641 0
9.855000 -0.043980 0
9.860000 -0.043322 0
9.865000 -0.042666 0
9.870000 -0.042011 0
9.875000 -0.041357 0
9.880000 -0.040700 0
9.885000 -0.040037 0
9.890000 -0.039362 0
9.895000 -0.038668 0
9.900000 -0.037940 0
9.905000 -0.037161 0
9.910000 -0.036304 0
9.915000 -0.035330 0
9.920000 -0.034188 0
9.925000 -0.032809 0
9.930000 -0.031102 0
9.935000 -0.028952 0
9.940000 -0.026216 0
9.945000 -0.022725 0
9.950000 -0.018279 0
9.955000 -0.012659 0
9.960000 -0.005629 0
9.965000 0.003049 0
9.970000 0.013595 0
9.975000 0.026196 0
9.980000 0.040974 0
9.985000 0.057962 0
9.990000 0.077082 0
9.995000 0.098119 0
10.000000 0.120710 0
10.005000 0.144337 0
10.010000 0.168342 0
10.015000 0.191945 0
10.020000 0.214285 0
10.025000 0.234466 0
10.030000 0.251618 0
10.035000 0.264958 0
10.040000 0.273844 0
10.045000 0.277831 1
10.050000 0.276706 0
10.055000 0.270502 0
10.060000 0.259500 0
10.065000 0.244206 0
10.070000 0.225312 0
10.075000 0.203642 0
10.080000 0.180096 0
10.085000 0.155583 0
10.090000 0.130966 0
10.095000 0.107014 0
10.100000 0.084357 0
10.105000 0.063456 0
10.110000 0.044551 0
10.115000 0.027582 0
10.120000 0.012048 0
10.125000 -0.003186 0
10.130000 -0.020024 0
10.135000 -0.041003 0
10.140000 -0.068564 0
10.145000 -0.103644 0
10.150000 -0.143905 0
10.155000 -0.182476 0
10.160000 -0.208051 2
10.165000 -0.206535 0
10.170000 -0.163473 0
10.175000 -0.066527 0
10.180000 0.091697 0
10.185000 0.309245 0
10.190000 0.568964 0
10.195000 0.834695 0
10.200000 1.055133 0
10.205000 1.178013 3
10.210000 1.166241 0
10.215000 1.018890 0
10.220000 0.772974 0
10.225000 0.485069 0
10.230000 0.209442 0
10.235000 -0.016215 0
10.240000 -0.173586 0
10.245000 -0.259746 0
10.250000 -0.282589 4
10.255000 -0.257618 0
10.260000 -0.204590 0
10.265000 -0.142885 0
10.270000 -0.086933 0
10.275000 -0.043907 0
10.280000 -0.014507 0
10.285000 0.004340 0
10.290000 0.016703 0
10.295000 0.025965 0
10.300000 0.034322 0
10.305000 0.042975 0
10.310000 0.052510 0
10.315000 0.063201 0
10.320000 0.075184 0
10.325000 0.088533 0
10.330000 0.103287 0
10.335000 0.119455 0
10.340000 0.137012 0
10.345000 0.155901 0
10.350000 0.176024 0
10.355000 0.197245 0
10.360000 0.219384 0
10.365000 0.242222 0
10.370000 0.265496 0
10.375000 0.288912 0
10.380000 0.312140 0
10.385000 0.334827 0
10.390000 0.356605 0
10.395000 0.377096 0
10.400000 0.395926 0
10.405000 0.412737 0
10.410000 0.427193 0
10.415000 0.438995 0
10.420000 0.447888 0
10.425000 0.453673 0
10.430000 0.456209 5
10.435000 0.455423 0
10.440000 0.451310 0
10.445000 0.443933 0
10.450000 0.433424 0
10.455000 0.419975 0
10.460000 0.403837 0
10.465000 0.385307 0
10.470000 0.364722 0
10.475000 0.342448 0
10.480000 0.318866 0
10.485000 0.294364 0
10.490000 0.269327 0
10.495000 0.244124 0
10.500000 0.219099 0
10.505000 0.194569 0
10.510000 0.170812 0
10.515000 0.148066 0
10.520000 0.126527 0
10.525000 0.106347 0
10.530000 0.087633 0
10.535000 0.070456 0
10.540000 0.054845 0
10.545000 0.040797 0
10.550000 0.028279 0
10.555000 0.017236 0
10.560000 0.007590 0
10.565000 -0.000749 0
10.570000 -0.007883 0
10.575000 -0.013916 0
10.580000 -0.018960 0
10.585000 -0.023121 0
10.590000 -0.026505 0
10.595000 -0.029212 0
10.600000 -0.031334 0
10.605000 -0.032955 0
10.610000 -0.034154 0
10.615000 -0.034999 0
10.620000 -0.035549 0
10.625000 -0.035858 0
10.630000 -0.035969 0
10.635000 -0.035922 0
10.640000 -0.035747 0
10.645000 -0.035472 0
10.650000 -0.035118 0
10.655000 -0.034703 0
10.660000 -0.034242 0
10.665000 -0.033655 0
10.670000 -0.033050 0
10.675000 -0.032448 0
10.680000 -0.031849 0
10.685000 -0.031253 0
10.690000 -0.030659 0
10.695000 -0.030069 0
10.700000 -0.029482 0
10.705000 -0.028898 0
10.710000 -0.028316 0
10.715000 -0.027738 0
10.720000 -0.027162 0
10.725000 -0.026590 0
10.730000 -0.026020 0
10.735000 -0.025453 0
10.740000 -0.024889 0
10.745000 -0.024327 0
10.750000 -0.023769 0
10.755000 -0.023213 0
10.760000 -0.022660 0
10.765000 -0.022109 0
10.770000 -0.021561 0
10.775000 -0.021016 0
10.780000 -0.020472 0
10.785000 -0.019930 0
10.790000 -0.019389 0
10.795000 -0.018846 0
10.800000 -0.018300 0
10.805000 -0.017745 0
10.810000 -0.017176 0
10.815000 -0.016582 0
10.820000 -0.015948 0
10.825000 -0.015249 0
10.830000 -0.014454 0
10.835000 -0.013514 0
10.840000 -0.012365 0
10.845000 -0.010921 0
10.850000 -0.009071 0
10.855000 -0.006672 0
10.860000 -0.003551 0
10.865000 0.000496 0
10.870000 0.005700 0
10.875000 0.012313 0
10.880000 0.020593 0
10.885000 0.030782 0
10.890000 0.043088 0
10.895000 0.057651 0
10.900000 0.074515 0
10.905000 0.093595 0
10.910000 0.114658 0
10.915000 0.137302 0
10.920000 0.160954 0
10.925000 0.184883 0
10.930000 0.208230 0
10.935000 0.230052 0
10.940000 0.249386 0
10.945000 0.265310 0
10.950000 0.277025 0
10.955000 0.283912 0
10.960000 0.285586 1
10.965000 0.281934 0
10.970000 0.273124 0
10.975000 0.259588 0
10.980000 0.241991 0
10.985000 0.221172 0
10.990000 0.198078 0
10.995000 0.173693 0
11.000000 0.148968 0
11.005000 0.124762 0
11.010000 0.101787 0
11.015000 0.080575 0
11.020000 0.061417 0
11.025000 0.044281 0
11.030000 0.028651 0
11.035000 0.013310 0
11.040000 -0.003822 0
11.045000 -0.025500 0
11.050000 -0.054255 0
11.055000 -0.090682 0
11.060000 -0.131414 0
11.065000 -0.167898 0
11.070000 -0.186939 2
11.075000 -0.172945 0
11.080000 -0.110815 0
11.085000 0.011146 0
11.090000 0.197365 0
11.095000 0.438982 0
11.100000 0.707464 0
11.105000 0.953924 0
11.110000 1.120125 0
11.115000 1.159759 3
11.120000 1.057447 0
11.125000 0.838708 0
11.130000 0.557848 0
11.135000 0.273872 0
11.140000 0.031680 0
11.145000 -0.144378 0
11.150000 -0.247581 0
11.155000 -0.283686 4
11.160000 -0.267204 0
11.165000 -0.217998 0
11.170000 -0.156589 0
11.175000 -0.099061 0
11.180000 -0.054044 0
11.185000 -0.023067 0
11.190000 -0.003273 0
11.195000 0.009540 0
11.200000 0.018968 0
11.205000 0.027369 0
11.210000 0.036034 0
11.215000 0.045586 0
11.220000 0.056312 0
11.225000 0.068355 0
11.230000 0.081791 0
11.235000 0.096658 0
11.240000 0.112963 0
11.245000 0.130681 0
11.250000 0.149747 0
11.255000 0.170057 0
11.260000 0.191463 0
11.265000 0.213775 0
11.270000 0.236756 0
11.275000 0.260132 0
11.280000 0.283587 0
11.285000 0.306776 0
11.290000 0.329328 0
11.295000 0.350859 0
11.300000 0.370978 0
11.305000 0.389301 0
11.310000 0.405462 0
11.315000 0.419124 0
11.320000 0.429992 0
11.325000 0.437821 0
11.330000 0.442427 0
11.335000 0.443689 5
11.340000 0.441560 0
11.345000 0.436064 0
11.350000 0.427298 0
11.355000 0.415428 0
11.360000 0.400681 0
11.365000 0.383342 0
11.370000 0.363741 0
11.375000 0.342243 0
11.380000 0.319238 0
11.385000 0.295125 0
11.390000 0.270305 0
11.395000 0.245167 0
11.400000 0.220080 0
11.405000 0.195382 0
11.410000 0.171375 0
11.415000 0.148322 0
11.420000 0.126438 0
11.425000 0.105893 0
11.430000 0.086815 0
11.435000 0.069283 0
11.440000 0.053339 0
11.445000 0.038987 0
11.450000 0.026200 0
11.455000 0.014924 0
11.460000 0.005083 0
11.465000 -0.003415 0
11.470000 -0.010672 0
11.475000 -0.016799 0
11.480000 -0.021908 0
11.485000 -0.026112 0
11.490000 -0.029519 0
11.495000 -0.032232 0
11.500000 -0.034348 0
11.505000 -0.035955 0
11.510000 -0.037132 0
11.515000 -0.037951 0
11.520000 -0.038473 0
11.525000 -0.038752 0
11.530000 -0.038833 0
11.535000 -0.038757 0
11.540000 -0.038554 0
11.545000 -0.038252 0
11.550000 -0.037874 0
11.555000 -0.037436 0
11.560000 -0.036932 0
11.565000 -0.036311 0
11.570000 -0.035693 0
11.575000 -0.035077 0
11.580000 -0.034465 0
11.585000 -0.033856 0
11.590000 -0.033250 0
11.595000 -0.032647 0
11.600000 -0.032047 0
11.605000 -0.031450 0
11.610000 -0.030856 0
11.615000 -0.030265 0
11.620000 -0.029676 0
11.625000 -0.029091 0
11.630000 -0.028509 0
11.635000 -0.027929 0
11.640000 -0.027353 0
11.645000 -0.026779 0
11.650000 -0.026208 0
11.655000 -0.025640 0
11.660000 -0.025075 0
11.665000 -0.024512 0
11.670000 -0.023952 0
11.675000 -0.023394 0
11.680000 -0.022838 0
11.685000 -0.022283 0
11.690000 -0.021728 0
11.695000 -0.021170 0
11.700000 -0.020605 0
11.705000 -0.020028 0
11.710000 -0.019429 0
11.715000 -0.018793 0
11.720000 -0.018100 0
11.725000 -0.017316 0
11.730000 -0.016398 0
11.735000 -0.015282 0
11.740000 -0.013884 0
11.745000 -0.012093 0
11.750000 -0.009767 0
11.755000 -0.006732 0
11.760000 -0.002779 0
11.765000 0.002328 0
11.770000 0.008849 0
11.775000 0.017049 0
11.780000 0.027183 0
11.785000 0.039467 0
11.790000 0.054047 0
11.795000 0.070968 0
11.800000 0.090142 0
11.805000 0.111321 0
11.810000 0.134078 0
11.815000 0.157811 0
11.820000 0.181748 0
11.825000 0.204989 0
11.830000 0.226552 0
11.835000 0.245440 0
11.840000 0.260716 0
11.845000 0.271579 0
11.850000 0.277430 0
11.855000 0.277930 1
11.860000 0.273025 0
11.865000 0.262958 0
11.870000 0.248244 0
11.875000 0.229628 0
11.880000 0.208019 0
11.885000 0.184416 0
11.890000 0.159836 0
11.895000 0.135233 0
11.900000 0.111448 0
11.905000 0.089152 0
11.910000 0.068801 0
11.915000 0.050571 0
11.920000 0.034234 0
11.925000 0.018954 0
11.930000 0.003055 0
11.935000 -0.016019 0
11.940000 -0.041169 0
11.945000 -0.074219 0
11.950000 -0.113785 0
11.955000 -0.153423 0
11.960000 -0.181307 0
11.965000 -0.181957 2
11.970000 -0.139200 0
11.975000 -0.039258 0
11.980000 0.125672 0
11.985000 0.351795 0
11.990000 0.616522 0
11.995000 0.874997 0
12.000000 1.067829 0
12.005000 1.141540 3
12.010000 1.073393 0
12.015000 0.880338 0
12.020000 0.610341 0
12.025000 0.321931 0
12.030000 0.063972 0
12.035000 -0.133891 0
12.040000 -0.260357 0
12.045000 -0.317594 4
12.050000 -0.317216 0
12.055000 -0.277209 0
12.060000 -0.217952 0
12.065000 -0.157252 0
12.070000 -0.106484 0
12.075000 -0.069677 0
12.080000 -0.045424 0
12.085000 -0.029871 0
12.090000 -0.019107 0
12.095000 -0.010275 0
12.100000 -0.001680 0
12.105000 0.007549 0
12.110000 0.017822 0
12.115000 0.029332 0
12.120000 0.042181 0
12.125000 0.056425 0
12.130000 0.072086 0
12.135000 0.089159 0
12.140000 0.107601 0
12.145000 0.127335 0
12.150000 0.148243 0
12.155000 0.170163 0
12.160000 0.192894 0
12.165000 0.216192 0
12.170000 0.239773 0
12.175000 0.263320 0
12.180000 0.286490 0
12.185000 0.308914 0
12.190000 0.330216 0
12.195000 0.350015 0
12.200000 0.367942 0
12.205000 0.383646 0
12.210000 0.396809 0
12.215000 0.407153 0
12.220000 0.414452 0
12.225000 0.418539 0
12.230000 0.419312 5
12.235000 0.416736 0
12.240000 0.410847 0
12.245000 0.401751 0
12.250000 0.389617 0
12.255000 0.374677 0
12.260000 0.357211 0
12.265000 0.337547 0
12.270000 0.316043 0
12.275000 0.293079 0
12.280000 0.269045 0
12.285000 0.244331 0
12.290000 0.219317 0
12.295000 0.194359 0
12.300000 0.169788 0
12.305000 0.145899 0
12.310000 0.122945 0
12.315000 0.101140 0
12.320000 0.080651 0
12.325000 0.061604 0
12.330000 0.044078 0
12.335000 0.028119 0
12.340000 0.013732 0
12.345000 0.000895 0
12.350000 -0.010443 0
12.355000 -0.020353 0
12.360000 -0.028923 0
12.365000 -0.036251 0
12.370000 -0.042445 0
12.375000 -0.047612 0
12.380000 -0.051864 0
12.385000 -0.055307 0
12.390000 -0.058043 0
12.395000 -0.060168 0
12.400000 -0.061769 0
12.405000 -0.062927 0
12.410000 -0.063712 0
12.415000 -0.064188 0
12.420000 -0.064409 0
12.425000 -0.064423 0
12.430000 -0.064268 0
12.435000 -0.063980 0
12.440000 -0.063586 0
12.445000 -0.063108 0
12.450000 -0.062567 0
12.455000 -0.061976 0
12.460000 -0.061252 0
12.465000 -0.060510 0
12.470000 -0.059771 0
12.475000 -0.059035 0
12.480000 -0.058304 0
12.485000 -0.057575 0
12.490000 -0.056851 0
12.495000 -0.056130 0
12.500000 -0.055413 0
12.505000 -0.054700 0
12.510000 -0.053989 0
12.515000 -0.053283 0
12.520000 -0.052580 0
12.525000 -0.051880 0
12.530000 -0.051184 0
12.535000 -0.050492 0
12.540000 -0.049803 0
12.545000 -0.049117 0
12.550000 -0.048435 0
12.555000 -0.047756 0
12.560000 -0.047080 0
12.565000 -0.046408 0
12.570000 -0.045739 0
12.575000 -0.045072 0
12.580000 -0.044407 0
12.585000 -0.043744 0
12.590000 -0.043080 0
12.595000 -0.042414 0
12.600000 -0.041741 0
12.605000 -0.041054 0
12.610000 -0.040344 0
12.615000 -0.039595 0
12.620000 -0.038785 0
12.625000 -0.037881 0
12.630000 -0.036837 0
12.635000 -0.035589 0
12.640000 -0.034051 0
12.645000 -0.032113 0
12.650000 -0.029634 0
12.655000 -0.026440 0
12.660000 -0.022328 0
12.665000 -0.017064 0
12.670000 -0.010395 0
12.675000 -0.002063 0
12.680000 0.008180 0
12.685000 0.020543 0
12.690000 0.035170 0
12.695000 0.052107 0
12.700000 0.071272 0
12.705000 0.092432 0
12.710000 0.115181 0
12.715000 0.138944 0
12.720000 0.162983 0
12.725000 0.186430 0
12.730000 0.208335 0
12.735000 0.227725 0
12.740000 0.243674 0
12.745000 0.255379 0
12.750000 0.262219 0
12.755000 0.263816 1
12.760000 0.260066 0
12.765000 0.251148 0
12.770000 0.237509 0
12.775000 0.219829 0
12.780000 0.198962 0
12.785000 0.175866 0
12.790000 0.151535 0
12.795000 0.126922 0
12.800000 0.102885 0
12.805000 0.080131 0
12.810000 0.059178 0
12.815000 0.040299 0
12.820000 0.023425 0
12.825000 0.007984 0
12.830000 -0.007333 0
12.835000 -0.024706 0
12.840000 -0.046945 0
12.845000 -0.076490 0
12.850000 -0.113588 0
12.855000 -0.154272 0
12.860000 -0.189288 0
12.865000 -0.204880 2
12.870000 -0.185226 0
12.875000 -0.115381 0
12.880000 0.015715 0
12.885000 0.211045 0
12.890000 0.459127 0
12.895000 0.727912 0
12.900000 0.965608 0
12.905000 1.113823 0
12.910000 1.130023 3
12.915000 1.007993 0
12.920000 0.778512 0
12.925000 0.494981 0
12.930000 0.212783 0
12.935000 -0.026768 0
12.940000 -0.201424 0
12.945000 -0.305079 0
12.950000 -0.343119 4
12.955000 -0.329071 0
12.960000 -0.281595 0
12.965000 -0.220333 0
12.970000 -0.161244 0
12.975000 -0.113569 0
12.980000 -0.079731 0
12.985000 -0.057570 0
12.990000 -0.043162 0
12.995000 -0.032851 0
13.000000 -0.024076 0
13.005000 -0.015349 0
13.010000 -0.005916 0
13.015000 0.004580 0
13.020000 0.016311 0
13.025000 0.029370 0
13.030000 0.043807 0
13.035000 0.059642 0
13.040000 0.076866 0
13.045000 0.095437 0
13.050000 0.115276 0
13.055000 0.136268 0
13.060000 0.158254 0
13.065000 0.181039 0
13.070000 0.204385 0
13.075000 0.228016 0
13.080000 0.251627 0
13.085000 0.274881 0
13.090000 0.297424 0
13.095000 0.318888 0
13.100000 0.338904 0
13.105000 0.357110 0
13.110000 0.373163 0
13.115000 0.386747 0
13.120000 0.397588 0
13.125000 0.405457 0
13.130000 0.410181 0
13.135000 0.411648 5
13.140000 0.409813 0
13.145000 0.404697 0
13.150000 0.396387 0
13.155000 0.385034 0
13.160000 0.370849 0
13.165000 0.354094 0
13.170000 0.335076 0
13.175000 0.314136 0
13.180000 0.291638 0
13.185000 0.267961 0
13.190000 0.243485 0
13.195000 0.218584 0
13.200000 0.193615 0
13.205000 0.168909 0
13.210000 0.144767 0
13.215000 0.121453 0
13.220000 0.099191 0
13.225000 0.078162 0
13.230000 0.058506 0
13.235000 0.040322 0
13.240000 0.023667 0
13.245000 0.008565 0
13.250000 -0.004992 0
13.255000 -0.017041 0
13.260000 -0.027642 0
13.265000 -0.036872 0
13.270000 -0.044822 0
13.275000 -0.051591 0
13.280000 -0.057286 0
13.285000 -0.062012 0
13.290000 -0.065878 0
13.295000 -0.068983 0
13.300000 -0.071427 0
13.305000 -0.073300 0
13.310000 -0.074683 0
13.315000 -0.075653 0
13.320000 -0.076276 0
13.325000 -0.076611 0
13.330000 -0.076709 0
13.335000 -0.076613 0
13.340000 -0.076362 0
13.345000 -0.075985 0
13.350000 -0.075510 0
13.355000 -0.074958 0
13.360000 -0.074346 0
13.365000 -0.073689 0
13.370000 -0.072905 0
13.375000 -0.072105 0
13.380000 -0.071308 0
13.385000 -0.070515 0
13.390000 -0.069726 0
13.395000 -0.068941 0
13.400000 -0.068160 0
13.405000 -0.067383 0
13.410000 -0.066609 0
13.415000 -0.065840 0
13.420000 -0.065074 0
13.425000 -0.064313 0
13.430000 -0.063555 0
13.435000 -0.062800 0
13.440000 -0.062050 0
13.445000 -0.061303 0
13.450000 -0.060560 0
13.455000 -0.059821 0
13.460000 -0.059085 0
13.465000 -0.058353 0
13.470000 -0.057625 0
13.475000 -0.056900 0
13.480000 -0.056178 0
13.485000 -0.055459 0
13.490000 -0.054743 0
13.495000 -0.054029 0
13.500000 -0.053315 0
13.505000 -0.052599 0
13.510000 -0.051877 0
13.515000 -0.051145 0
13.520000 -0.050392 0
13.525000 -0.049605 0
13.530000 -0.048765 0
13.535000 -0.047843 0
13.540000 -0.046797 0
13.545000 -0.045571 0
13.550000 -0.044089 0
13.555000 -0.042251 0
13.560000 -0.039929 0
13.565000 -0.036967 0
13.570000 -0.033177 0
13.575000 -0.028341 0
13.580000 -0.022220 0
13.585000 -0.014562 0
13.590000 -0.005119 0
13.595000 0.006331 0
13.600000 0.019960 0
13.605000 0.035861 0
13.610000 0.054014 0
13.615000 0.074266 0
13.620000 0.096306 0
13.625000 0.119658 0
13.630000 0.143683 0
13.635000 0.167600 0
13.640000 0.190521 0
13.645000 0.211503 0
13.650000 0.229612 0
13.655000 0.243985 0
13.660000 0.253905 0
13.665000 0.258855 1
13.670000 0.258562 0
13.675000 0.253023 0
13.680000 0.242507 0
13.685000 0.227528 0
13.690000 0.208809 0
13.695000 0.187220 0
13.700000 0.163711 0
13.705000 0.139245 0
13.710000 0.114730 0
13.715000 0.090969 0
13.720000 0.068611 0
13.725000 0.048112 0
13.730000 0.029679 0
13.735000 0.013164 0
13.740000 -0.002103 0
13.745000 -0.017532 0
13.750000 -0.035371 0
13.755000 -0.058389 0
13.760000 -0.088801 0
13.765000 -0.126484 0
13.770000 -0.167083 0
13.775000 -0.201149 0
13.780000 -0.215048 2
13.785000 -0.193344 0
13.790000 -0.121596 0
13.795000 0.010787 0
13.800000 0.206518 0
13.805000 0.454338 0
13.810000 0.723220 0
13.815000 0.963038 0
13.820000 1.116780 0
13.825000 1.141732 3
13.830000 1.028946 0
13.835000 0.806147 0
13.840000 0.524939 0
13.845000 0.240528 0
13.850000 -0.004685 0
13.855000 -0.186932 0
13.860000 -0.298712 0
13.865000 -0.344227 4
13.870000 -0.335970 0
13.875000 -0.291883 0
13.880000 -0.231478 0
13.885000 -0.171263 0
13.890000 -0.121434 0
13.895000 -0.085343 0
13.900000 -0.061409 0
13.905000 -0.045889 0
13.910000 -0.035036 0
13.915000 -0.026105 0
13.920000 -0.017447 0
13.925000 -0.008201 0
13.930000 0.002044 0
13.935000 0.013487 0
13.940000 0.026231 0
13.945000 0.040333 0
13.950000 0.055820 0
13.955000 0.072691 0
13.960000 0.090912 0
13.965000 0.110416 0
13.970000 0.131099 0
13.975000 0.152816 0
13.980000 0.175386 0
13.985000 0.198585 0
13.990000 0.222154 0
13.995000 0.245798 0
14.000000 0.269196 0
14.005000 0.292003 0
14.010000 0.313861 0
14.015000 0.334404 0
14.020000 0.353272 0
14.025000 0.370121 0
14.030000 0.384627 0
14.035000 0.396505 0
14.040000 0.405512 0
14.045000 0.411455 0
14.050000 0.414201 5
14.055000 0.413679 0
14.060000 0.409883 0
14.065000 0.402873 0
14.070000 0.392773 0
14.075000 0.379766 0
14.080000 0.364089 0
14.085000 0.346027 0
14.090000 0.325902 0
14.095000 0.304064 0
14.100000 0.280881 0
14.105000 0.256729 0
14.110000 0.231980 0
14.115000 0.206995 0
14.120000 0.182114 0
14.125000 0.157648 0
14.130000 0.133877 0
14.135000 0.111042 0
14.140000 0.089343 0
14.145000 0.068940 0
14.150000 0.049951 0
14.155000 0.032454 0
14.160000 0.016491 0
14.165000 0.002070 0
14.170000 -0.010831 0
14.175000 -0.022256 0
14.180000 -0.032273 0
14.185000 -0.040965 0
14.190000 -0.048425 0
14.195000 -0.054755 0
14.200000 -0.060058 0
14.205000 -0.064442 0
14.210000 -0.068008 0
14.215000 -0.070857 0
14.220000 -0.073082 0
14.225000 -0.074770 0
14.230000 -0.075999 0
14.235000 -0.076841 0
14.240000 -0.077358 0
14.245000 -0.077607 0
14.250000 -0.077635 0
14.255000 -0.077484 0
14.260000 -0.077187 0
14.265000 -0.076775 0
14.270000 -0.076271 0
14.275000 -0.075697 0
14.280000 -0.075067 0
14.285000 -0.074374 0
14.290000 -0.073566 0
14.295000 -0.072762 0
14.300000 -0.071962 0
14.305000 -0.071166 0
14.310000 -0.070374 0
14.315000 -0.069585 0
14.320000 -0.068801 0
14.325000 -0.068021 0
14.330000 -0.067244 0
14.335000 -0.066472 0
14.340000 -0.065703 0
14.345000 -0.064938 0
14.350000 -0.064177 0
14.355000 -0.063420 0
14.360000 -0.062666 0
14.365000 -0.061916 0
14.370000 -0.061170 0
14.375000 -0.060428 0
14.380000 -0.059689 0
14.385000 -0.058954 0
14.390000 -0.058223 0
14.395000 -0.057495 0
14.400000 -0.056770 0
14.405000 -0.056048 0
14.410000 -0.055329 0
14.415000 -0.054611 0
14.420000 -0.053894 0
14.425000 -0.053175 0
14.430000 -0.052450 0
14.435000 -0.051714 0
14.440000 -0.050957 0
14.445000 -0.050166 0
14.450000 -0.049322 0
14.455000 -0.048396 0
14.460000 -0.047346 0
14.465000 -0.046118 0
14.470000 -0.044635 0
14.475000 -0.042801 0
14.480000 -0.040491 0
14.485000 -0.037549 0
14.490000 -0.033792 0
14.495000 -0.029006 0
14.500000 -0.022957 0
14.505000 -0.015397 0
14.510000 -0.006080 0
14.515000 0.005214 0
14.520000 0.018661 0
14.525000 0.034358 0
14.530000 0.052297 0
14.535000 0.072342 0
14.540000 0.094202 0
14.545000 0.117426 0
14.550000 0.141404 0
14.555000 0.165380 0
14.560000 0.188492 0
14.565000 0.209815 0
14.570000 0.228422 0
14.575000 0.243448 0
14.580000 0.254159 0
14.585000 0.260008 0
14.590000 0.260681 1
14.595000 0.256127 0
14.600000 0.246559 0
14.605000 0.232439 0
14.610000 0.214443 0
14.615000 0.193401 0
14.620000 0.170239 0
14.625000 0.145909 0
14.630000 0.121323 0
14.635000 0.097303 0
14.640000 0.074530 0
14.645000 0.053506 0
14.650000 0.034508 0
14.655000 0.017498 0
14.660000 0.001983 0
14.665000 -0.013198 0
14.670000 -0.030026 0
14.675000 -0.051148 0
14.680000 -0.079081 0
14.685000 -0.114650 0
14.690000 -0.155079 0
14.695000 -0.192708 0
14.700000 -0.215284 2
14.705000 -0.207893 0
14.710000 -0.155645 0
14.715000 -0.046374 0
14.720000 0.126048 0
14.725000 0.356483 0
14.730000 0.622222 0
14.735000 0.880426 0
14.740000 1.075391 0
14.745000 1.156619 3
14.750000 1.100704 0
14.755000 0.920322 0
14.760000 0.658006 0
14.765000 0.368712 0
14.770000 0.101030 0
14.775000 -0.113194 0
14.780000 -0.259572 0
14.785000 -0.337132 0
14.790000 -0.354377 4
14.795000 -0.326529 0
14.800000 -0.272434 0
14.805000 -0.210352 0
14.810000 -0.153879 0
14.815000 -0.109909 0
14.820000 -0.079303 0
14.825000 -0.059295 0
14.830000 -0.046025 0
14.835000 -0.036159 0
14.840000 -0.027453 0
14.845000 -0.018627 0
14.850000 -0.009036 0
14.855000 0.001627 0
14.860000 0.013517 0
14.865000 0.026714 0
14.870000 0.041265 0
14.875000 0.057188 0
14.880000 0.074472 0
14.885000 0.093076 0
14.890000 0.112922 0
14.895000 0.133900 0
14.900000 0.155858 0
14.905000 0.178608 0
14.910000 0.201924 0
14.915000 0.225543 0
14.920000 0.249171 0
14.925000 0.272490 0
14.930000 0.295157 0
14.935000 0.316821 0
14.940000 0.337126 0
14.945000 0.355720 0
14.950000 0.372268 0
14.955000 0.386461 0
14.960000 0.398021 0
14.965000 0.406718 0
14.970000 0.412369 0
14.975000 0.414850 5
14.980000 0.414096 0
14.985000 0.410105 0
14.990000 0.402941 0
14.995000 0.392728 0
15.000000 0.379647 0
15.005000 0.363931 0
15.010000 0.345861 0
15.015000 0.325750 0
15.020000 0.303942 0
15.025000 0.280797 0
15.030000 0.256681 0
15.035000 0.231960 0
15.040000 0.206987 0
15.045000 0.182096 0
15.050000 0.157594 0
15.055000 0.133758 0
15.060000 0.110826 0
15.065000 0.088999 0
15.070000 0.068438 0
15.075000 0.049262 0
15.080000 0.031555 0
15.085000 0.015361 0
15.090000 0.000695 0
15.095000 -0.012462 0
15.100000 -0.024149 0
15.105000 -0.034428 0
15.110000 -0.043377 0
15.115000 -0.051087 0
15.120000 -0.057654 0
15.125000 -0.063182 0
15.130000 -0.067772 0
15.135000 -0.071528 0
15.140000 -0.074547 0
15.145000 -0.076924 0
15.150000 -0.078744 0
15.155000 -0.080087 0
15.160000 -0.081026 0
15.165000 -0.081624 0
15.170000 -0.081938 0
15.175000 -0.082019 0
15.180000 -0.081907 0
15.185000 -0.081641 0
15.190000 -0.081249 0
15.195000 -0.080758 0
15.200000 -0.080190 0
15.205000 -0.079560 0
15.210000 -0.078884 0
15.215000 -0.078076 0
15.220000 -0.077249 0
15.225000 -0.076427 0
15.230000 -0.075608 0
15.235000 -0.074794 0
15.240000 -0.073984 0
15.245000 -0.073178 0
15.250000 -0.072375 0
15.255000 -0.071577 0
15.260000 -0.070783 0
15.265000 -0.069993 0
15.270000 -0.069206 0
15.275000 -0.068424 0
15.280000 -0.067645 0
15.285000 -0.066871 0
15.290000 -0.066100 0
15.295000 -0.065333 0
15.300000 -0.064570 0
15.305000 -0.063811 0
15.310000 -0.063055 0
15.315000 -0.062303 0
15.320000 -0.061555 0
15.325000 -0.060810 0
15.330000 -0.060069 0
15.335000 -0.059331 0
15.340000 -0.058595 0
15.345000 -0.057860 0
15.350000 -0.057125 0
15.355000 -0.056388 0
15.360000 -0.055644 0
15.365000 -0.054888 0
15.370000 -0.054108 0
15.375000 -0.053292 0
15.380000 -0.052419 0
15.385000 -0.051457 0
15.390000 -0.050366 0
15.395000 -0.049088 0
15.400000 -0.047545 0
15.405000 -0.045639 0
15.410000 -0.043244 0
15.415000 -0.040205 0
15.420000 -0.036338 0
15.425000 -0.031434 0
15.430000 -0.025259 0
15.435000 -0.017572 0
15.440000 -0.008134 0
15.445000 0.003271 0
15.450000 0.016809 0
15.455000 0.032573 0
15.460000 0.050553 0
15.465000 0.070613 0
15.470000 0.092468 0
15.475000 0.115678 0
15.480000 0.139649 0
15.485000 0.163647 0
15.490000 0.186830 0
15.495000 0.208296 0
15.500000 0.227135 0
15.505000 0.242497 0
15.510000 0.253649 0
15.515000 0.260037 0
15.520000 0.261327 1
15.525000 0.257439 0
15.530000 0.248549 0
15.535000 0.235078 0
15.540000 0.217656 0
15.545000 0.197077 0
15.550000 0.174235 0
15.555000 0.150061 0
15.560000 0.125461 0
15.565000 0.101260 0
15.570000 0.078157 0
15.575000 0.056689 0
15.580000 0.037182 0
15.585000 0.019690 0
15.590000 0.003863 0
15.595000 -0.011234 0
15.600000 -0.027310 0
15.605000 -0.046808 0
15.610000 -0.072363 0
15.615000 -0.105512 0
15.620000 -0.144886 0
15.625000 -0.184667 0
15.630000 -0.214290 0
15.635000 -0.219811 2
15.640000 -0.186341 0
15.645000 -0.100638 0
15.650000 0.046112 0
15.655000 0.254096 0
15.660000 0.508912 0
15.665000 0.776841 0
15.670000 1.007229 0
15.675000 1.145707 0
15.680000 1.154443 3
15.685000 1.029602 0
15.690000 0.800825 0
15.695000 0.518222 0
15.700000 0.234143 0
15.705000 -0.011362 0
15.710000 -0.195613 0
15.715000 -0.311115 0
15.720000 -0.361383 4
15.725000 -0.357797 0
15.730000 -0.317067 0
15.735000 -0.257842 0
15.740000 -0.196546 0
15.745000 -0.144068 0
15.750000 -0.104811 0
15.755000 -0.078087 0
15.760000 -0.060602 0
15.765000 -0.048643 0
15.770000 -0.039270 0
15.775000 -0.030598 0
15.780000 -0.021589 0
15.785000 -0.011727 0
15.790000 -0.000761 0
15.795000 0.011436 0
15.800000 0.024934 0
15.805000 0.039773 0
15.810000 0.055963 0
15.815000 0.073489 0
15.820000 0.092306 0
15.825000 0.112334 0
15.830000 0.133459 0
15.835000 0.155530 0
15.840000 0.178358 0
15.845000 0.201721 0
15.850000 0.225359 0
15.855000 0.248987 0
15.860000 0.272291 0
15.865000 0.294940 0
15.870000 0.316590 0
15.875000 0.336894 0
15.880000 0.355512 0
15.885000 0.372118 0
15.890000 0.386408 0
15.895000 0.398113 0
15.900000 0.407006 0
15.905000 0.412906 0
15.910000 0.415687 5
15.915000 0.415281 0
15.920000 0.411680 0
15.925000 0.404938 0
15.930000 0.395168 0
15.935000 0.382538 0
15.940000 0.367268 0
15.945000 0.349623 0
15.950000 0.329904 0
15.955000 0.308438 0
15.960000 0.285574 0
15.965000 0.261667 0
15.970000 0.237075 0
15.975000 0.212145 0
15.980000 0.187207 0
15.985000 0.162569 0
15.990000 0.138509 0
15.995000 0.115271 0
16.000000 0.093062 0
16.005000 0.072052 0
16.010000 0.052372 0
16.015000 0.034115 0
16.020000 0.017338 0
16.025000 0.002067 0
16.030000 -0.011703 0
16.035000 -0.024004 0
16.040000 -0.034885 0
16.045000 -0.044418 0
16.050000 -0.052685 0
16.055000 -0.059776 0
16.060000 -0.065791 0
16.065000 -0.070830 0
16.070000 -0.074992 0
16.075000 -0.078376 0
16.080000 -0.081075 0
16.085000 -0.083178 0
16.090000 -0.084766 0
16.095000 -0.085913 0
16.100000 -0.086687 0
16.105000 -0.087147 0
16.110000 -0.087346 0
16.115000 -0.087329 0
16.120000 -0.087137 0
16.125000 -0.086801 0
16.130000 -0.086351 0
16.135000 -0.085810 0
16.140000 -0.085197 0
16.145000 -0.084528 0
16.150000 -0.083817 0
16.155000 -0.082983 0
16.160000 -0.082132 0
16.165000 -0.081285 0
16.170000 -0.080442 0
16.175000 -0.079604 0
16.180000 -0.078769 0
16.185000 -0.077939 0
16.190000 -0.077113 0
16.195000 -0.076292 0
16.200000 -0.075474 0
16.205000 -0.074660 0
16.210000 -0.073851 0
16.215000 -0.073045 0
16.220000 -0.072243 0
16.225000 -0.071446 0
16.230000 -0.070652 0
16.235000 -0.069863 0
16.240000 -0.069077 0
16.245000 -0.068295 0
16.250000 -0.067517 0
16.255000 -0.066743 0
16.260000 -0.065973 0
16.265000 -0.065206 0
16.270000 -0.064443 0
16.275000 -0.063683 0
16.280000 -0.062925 0
16.285000 -0.062169 0
16.290000 -0.061414 0
16.295000 -0.060656 0
16.300000 -0.059893 0
16.305000 -0.059119 0
16.310000 -0.058325 0
16.315000 -0.057498 0
16.320000 -0.056619 0
16.325000 -0.055662 0
16.330000 -0.054588 0
16.335000 -0.053345 0
16.340000 -0.051865 0
16.345000 -0.050057 0
16.350000 -0.047806 0
16.355000 -0.044971 0
16.360000 -0.041382 0
16.365000 -0.036843 0
16.370000 -0.031133 0
16.375000 -0.024020 0
16.380000 -0.015268 0
16.385000 -0.004656 0
16.390000 0.007999 0
16.395000 0.022822 0
16.400000 0.039848 0
16.405000 0.059000 0
16.410000 0.080071 0
16.415000 0.102702 0
16.420000 0.126388 0
16.425000 0.150477 0
16.430000 0.174200 0
16.435000 0.196704 0
16.440000 0.217100 0
16.445000 0.234523 0
16.450000 0.248186 0
16.455000 0.257444 0
16.460000 0.261842 1
16.465000 0.261151 0
16.470000 0.255388 0
16.475000 0.244815 0
16.480000 0.229918 0
16.485000 0.211372 0
16.490000 0.189986 0
16.495000 0.166650 0
16.500000 0.142268 0
16.505000 0.117704 0
16.510000 0.093731 0
16.515000 0.070993 0
16.520000 0.049965 0
16.525000 0.030913 0
16.530000 0.013816 0
16.535000 -0.001765 0
16.540000 -0.016870 0
16.545000 -0.033299 0
16.550000 -0.053515 0
16.555000 -0.080022 0
16.560000 -0.114050 0
16.565000 -0.153815 0
16.570000 -0.193152 0
16.575000 -0.221395 0
16.580000 -0.224807 2
16.585000 -0.188928 0
16.590000 -0.101021 0
16.595000 0.047265 0
16.600000 0.255861 0
16.605000 0.510591 0
16.610000 0.778713 0
16.615000 1.011112 0
16.620000 1.154666 0
16.625000 1.171396 3
16.630000 1.054530 0
16.635000 0.831148 0
16.640000 0.550396 0
16.645000 0.264872 0
16.650000 0.015628 0
16.655000 -0.173517 0
16.660000 -0.294141 0
16.665000 -0.349062 0
16.670000 -0.349124 4
16.675000 -0.310682 0
16.680000 -0.252327 0
16.685000 -0.190755 0
16.690000 -0.137345 0
16.695000 -0.096996 0
16.700000 -0.069357 0
16.705000 -0.051271 0
16.710000 -0.039008 0
16.715000 -0.029546 0
16.720000 -0.020916 0
16.725000 -0.012020 0
16.730000 -0.002304 0
16.735000 0.008496 0
16.740000 0.020517 0
16.745000 0.033831 0
16.750000 0.048482 0
16.755000 0.064482 0
16.760000 0.081820 0
16.765000 0.100452 0
16.770000 0.120304 0
16.775000 0.141265 0
16.780000 0.163189 0
16.785000 0.185893 0
16.790000 0.209156 0
16.795000 0.232727 0
16.800000 0.256321 0
16.805000 0.279630 0
16.810000 0.302325 0
16.815000 0.324063 0
16.820000 0.344501 0
16.825000 0.363296 0
16.830000 0.380122 0
16.835000 0.394672 0
16.840000 0.406674 0
16.845000 0.415895 0
16.850000 0.422148 0
16.855000 0.425300 5
16.860000 0.425276 0
16.865000 0.422060 0
16.870000 0.415696 0
16.875000 0.406291 0
16.880000 0.394003 0
16.885000 0.379047 0
16.890000 0.361679 0
16.895000 0.342194 0
16.900000 0.320917 0
16.905000 0.298192 0
16.910000 0.274373 0
16.915000 0.249817 0
16.920000 0.224872 0
16.925000 0.199871 0
16.930000 0.175123 0
16.935000 0.150911 0
16.940000 0.127484 0
16.945000 0.105055 0
16.950000 0.083799 0
16.955000 0.063852 0
16.960000 0.045313 0
16.965000 0.028246 0
16.970000 0.012681 0
16.975000 -0.001383 0
16.980000 -0.013972 0
16.985000 -0.025135 0
16.990000 -0.034936 0
16.995000 -0.043458 0
17.000000 -0.050790 0
17.005000 -0.057029 0
17.010000 -0.062275 0
17.015000 -0.066628 0
17.020000 -0.070185 0
17.025000 -0.073042 0
17.030000 -0.075288 0
17.035000 -0.077004 0
17.040000 -0.078266 0
17.045000 -0.079144 0
17.050000 -0.079697 0
17.055000 -0.079980 0
17.060000 -0.080039 0
17.065000 -0.079915 0
17.070000 -0.079641 0
17.075000 -0.079248 0
17.080000 -0.078760 0
17.085000 -0.078195 0
17.090000 -0.077573 0
17.095000 -0.076905 0
17.100000 -0.076106 0
17.105000 -0.075290 0
17.110000 -0.074477 0
17.115000 -0.073668 0
17.120000 -0.072863 0
17.125000 -0.072063 0
17.130000 -0.071266 0
17.135000 -0.070473 0
17.140000 -0.069685 0
17.145000 -0.068900 0
17.150000 -0.068119 0
17.155000 -0.067342 0
17.160000 -0.066569 0
17.165000 -0.065800 0
17.170000 -0.065034 0
17.175000 -0.064273 0
17.180000 -0.063515 0
17.185000 -0.062761 0
17.190000 -0.062011 0
17.195000 -0.061264 0
17.200000 -0.060521 0
17.205000 -0.059782 0
17.210000 -0.059046 0
17.215000 -0.058314 0
17.220000 -0.057584 0
17.225000 -0.056858 0
17.230000 -0.056133 0
17.235000 -0.055408 0
17.240000 -0.054683 0
17.245000 -0.053952 0
17.250000 -0.053212 0
17.255000 -0.052454 0
17.260000 -0.051667 0
17.265000 -0.050834 0
17.270000 -0.049930 0
17.275000 -0.048921 0
17.280000 -0.047759 0
17.285000 -0.046379 0
17.290000 -0.044697 0
17.295000 -0.042607 0
17.300000 -0.039974 0
17.305000 -0.036635 0
17.310000 -0.032404 0
17.315000 -0.027065 0
17.320000 -0.020390 0
17.325000 -0.012143 0
17.330000 -0.002096 0
17.335000 0.009945 0
17.340000 0.024123 0
17.345000 0.040501 0
17.350000 0.059036 0
17.355000 0.079561 0
17.360000 0.101762 0
17.365000 0.125175 0
17.370000 0.149194 0
17.375000 0.173080 0
17.380000 0.196004 0
17.385000 0.217085 0
17.390000 0.235445 0
17.395000 0.250272 0
17.400000 0.260876 0
17.405000 0.266741 0
17.410000 0.267568 1
17.415000 0.263300 0
17.420000 0.254124 0
17.425000 0.240461 0
17.430000 0.222930 0
17.435000 0.202304 0
17.440000 0.179450 0
17.445000 0.155272 0
17.450000 0.130650 0
17.455000 0.106388 0
17.460000 0.083173 0
17.465000 0.061534 0
17.470000 0.041811 0
17.475000 0.024084 0
17.480000 0.008069 0
17.485000 -0.007056 0
17.490000 -0.022831 0
17.495000 -0.041535 0
17.500000 -0.065761 0
17.505000 -0.097337 0
17.510000 -0.135669 0
17.515000 -0.176152 0
17.520000 -0.209563 0
17.525000 -0.222998 2
17.530000 -0.202004 0
17.535000 -0.133034 0
17.540000 -0.005916 0
17.545000 0.182727 0
17.550000 0.424251 0
17.555000 0.692599 0
17.560000 0.943584 0
17.565000 1.123644 0
17.570000 1.187419 3
17.575000 1.114568 0
17.580000 0.921030 0
17.585000 0.652110 0
17.590000 0.363015 0
17.595000 0.100665 0
17.600000 -0.105386 0
17.605000 -0.242722 0
17.610000 -0.311800 0
17.615000 -0.322185 4
17.620000 -0.289823 0
17.625000 -0.233790 0
17.630000 -0.171967 0
17.635000 -0.117118 0
17.640000 -0.075224 0
17.645000 -0.046475 0
17.650000 -0.027806 0
17.655000 -0.015350 0
17.660000 -0.005911 0
17.665000 0.002609 0
17.670000 0.011374 0
17.675000 0.020966 0
17.680000 0.031664 0
17.685000 0.043605 0
17.690000 0.056865 0
17.695000 0.071486 0
17.700000 0.087482 0
17.705000 0.104837 0
17.710000 0.123504 0
17.715000 0.143401 0
17.720000 0.164410 0
17.725000 0.186375 0
17.730000 0.209099 0
17.735000 0.232349 0
17.740000 0.255858 0
17.745000 0.279326 0
17.750000 0.302429 0
17.755000 0.324823 0
17.760000 0.346153 0
17.765000 0.366062 0
17.770000 0.384200 0
17.775000 0.400236 0
17.780000 0.413862 0
17.785000 0.424810 0
17.790000 0.432856 0
17.795000 0.437827 0
17.800000 0.439607 5
17.805000 0.438145 0
17.810000 0.433450 0
17.815000 0.425596 0
17.820000 0.414718 0
17.825000 0.401009 0
17.830000 0.384712 0
17.835000 0.366114 0
17.840000 0.345537 0
17.845000 0.323328 0
17.850000 0.299850 0
17.855000 0.275472 0
17.860000 0.250558 0
17.865000 0.225458 0
17.870000 0.200504 0
17.875000 0.175997 0
17.880000 0.152207 0
17.885000 0.129366 0
17.890000 0.107667 0
17.895000 0.087263 0
17.900000 0.068267 0
17.905000 0.050754 0
17.910000 0.034762 0
17.915000 0.020298 0
17.920000 0.007340 0
17.925000 -0.004157 0
17.930000 -0.014260 0
17.935000 -0.023049 0
17.940000 -0.030616 0
17.945000 -0.037061 0
17.950000 -0.042487 0
17.955000 -0.046996 0
17.960000 -0.050691 0
17.965000 -0.053668 0
17.970000 -0.056022 0
17.975000 -0.057836 0
17.980000 -0.059188 0
17.985000 -0.060151 0
17.990000 -0.060785 0
17.995000 -0.061147 0
18.000000 -0.061284 0
18.005000 -0.061237 0
18.010000 -0.061042 0
18.015000 -0.060728 0
18.020000 -0.060319 0
18.025000 -0.059836 0
18.030000 -0.059295 0
18.035000 -0.058710 0
18.040000 -0.058001 0
18.045000 -0.057274 0
18.050000 -0.056551 0
18.055000 -0.055832 0
18.060000 -0.055116 0
18.065000 -0.054404 0
18.070000 -0.053696 0
18.075000 -0.052991 0
18.080000 -0.052289 0
18.085000 -0.051591 0
18.090000 -0.050897 0
18.095000 -0.050206 0
18.100000 -0.049518 0
18.105000 -0.048834 0
18.110000 -0.048153 0
18.115000 -0.047475 0
18.120000 -0.046801 0
18.125000 -0.046131 0
18.130000 -0.045463 0
18.135000 -0.044799 0
18.140000 -0.044139 0
18.145000 -0.043481 0
18.150000 -0.042826 0
18.155000 -0.042174 0
18.160000 -0.041525 0
18.165000 -0.040877 0
18.170000 -0.040230 0
18.175000 -0.039582 0
18.180000 -0.038930 0
18.185000 -0.038270 0
18.190000 -0.037593 0
18.195000 -0.036891 0
18.200000 -0.036146 0
18.205000 -0.035336 0
18.210000 -0.034427 0
18.215000 -0.033373 0
18.220000 -0.032112 0
18.225000 -0.030560 0
18.230000 -0.028611 0
18.235000 -0.026130 0
18.240000 -0.022955 0
18.245000 -0.018892 0
18.250000 -0.013724 0
18.255000 -0.007215 0
18.260000 0.000881 0
18.265000 0.010796 0
18.270000 0.022737 0
18.275000 0.036850 0
18.280000 0.053201 0
18.285000 0.071746 0
18.290000 0.092303 0
18.295000 0.114543 0
18.300000 0.137977 0
18.305000 0.161964 0
18.310000 0.185732 0
18.315000 0.208413 0
18.320000 0.229094 0
18.325000 0.246874 0
18.330000 0.260931 0
18.335000 0.270580 0
18.340000 0.275329 1
18.345000 0.274923 0
18.350000 0.269360 0
18.355000 0.258896 0
18.360000 0.244025 0
18.365000 0.225437 0
18.370000 0.203965 0
18.375000 0.180524 0
18.380000 0.156047 0
18.385000 0.131422 0
18.390000 0.107438 0
18.395000 0.084749 0
18.400000 0.063828 0
18.405000 0.044924 0
18.410000 0.027975 0
18.415000 0.012460 0
18.420000 -0.002800 0
18.425000 -0.019785 0
18.430000 -0.041103 0
18.435000 -0.069206 0
18.440000 -0.104867 0
18.445000 -0.145343 0
18.450000 -0.183141 0
18.455000 -0.206295 2
18.460000 -0.200207 0
18.465000 -0.150230 0
18.470000 -0.044257 0
18.475000 0.124154 0
18.480000 0.350856 0
18.485000 0.615006 0
18.490000 0.876098 0
18.495000 1.080023 0
18.500000 1.175709 3
18.505000 1.133168 0
18.510000 0.960466 0
18.515000 0.700585 0
18.520000 0.411230 0
18.525000 0.143818 0
18.530000 -0.068251 0
18.535000 -0.210375 0
18.540000 -0.282242 0
18.545000 -0.293562 4
18.550000 -0.261010 0
18.555000 -0.204639 0
18.560000 -0.143099 0
18.565000 -0.089387 0
18.570000 -0.049186 0
18.575000 -0.022179 0
18.580000 -0.004900 0
18.585000 0.006667 0
18.590000 0.015670 0
18.595000 0.024075 0
18.600000 0.032928 0
18.605000 0.042734 0
18.610000 0.053728 0
18.615000 0.066031 0
18.620000 0.079708 0
18.625000 0.094792 0
18.630000 0.111285 0
18.635000 0.129159 0
18.640000 0.148347 0
18.645000 0.168745 0
18.650000 0.190209 0
18.655000 0.212552 0
18.660000 0.235546 0
18.665000 0.258924 0
18.670000 0.282385 0
18.675000 0.305595 0
18.680000 0.328199 0
18.685000 0.349825 0
18.690000 0.370098 0
18.695000 0.388647 0
18.700000 0.405116 0
18.705000 0.419176 0
18.710000 0.430536 0
18.715000 0.438951 0
18.720000 0.444231 0
18.725000 0.446248 5
18.730000 0.444941 0
18.735000 0.440316 0
18.740000 0.432447 0
18.745000 0.421478 0
18.750000 0.407609 0
18.755000 0.391101 0
18.760000 0.372256 0
18.765000 0.351417 0
18.770000 0.328951 0
18.775000 0.305242 0
18.780000 0.280677 0
18.785000 0.255637 0
18.790000 0.230488 0
18.795000 0.205570 0
18.800000 0.181192 0
18.805000 0.157626 0
18.810000 0.135104 0
18.815000 0.113813 0
18.820000 0.093899 0
18.825000 0.075463 0
18.830000 0.058569 0
18.835000 0.043240 0
18.840000 0.029470 0
18.845000 0.017222 0
18.850000 0.006435 0
18.855000 -0.002967 0
18.860000 -0.011079 0
18.865000 -0.018001 0
18.870000 -0.023840 0
18.875000 -0.028706 0
18.880000 -0.032706 0
18.885000 -0.035944 0
18.890000 -0.038519 0
18.895000 -0.040522 0
18.900000 -0.042037 0
18.905000 -0.043140 0
18.910000 -0.043897 0
18.915000 -0.044368 0
18.920000 -0.044604 0
18.925000 -0.044649 0
18.930000 -0.044540 0
18.935000 -0.044308 0
18.940000 -0.043979 0
18.945000 -0.043573 0
18.950000 -0.043109 0
18.955000 -0.042601 0
18.960000 -0.041972 0
18.965000 -0.041325 0
18.970000 -0.040682 0
18.975000 -0.040042 0
18.980000 -0.039405 0
18.985000 -0.038771 0
18.990000 -0.038140 0
18.995000 -0.037513 0
19.000000 -0.036888 0
19.005000 -0.036267 0
19.010000 -0.035649 0
19.015000 -0.035034 0
19.020000 -0.034422 0
19.025000 -0.033813 0
19.030000 -0.033207 0
19.035000 -0.032604 0
19.040000 -0.032005 0
19.045000 -0.031408 0
19.050000 -0.030814 0
19.055000 -0.030223 0
19.060000 -0.029634 0
19.065000 -0.029049 0
19.070000 -0.028466 0
19.075000 -0.027885 0
19.080000 -0.027306 0
19.085000 -0.026727 0
19.090000 -0.026148 0
19.095000 -0.025564 0
19.100000 -0.024972 0
19.105000 -0.024365 0
19.110000 -0.023732 0
19.115000 -0.023056 0
19.120000 -0.022315 0
19.125000 -0.021472 0
19.130000 -0.020481 0
19.135000 -0.019275 0
19.140000 -0.017765 0
19.145000 -0.015838 0
19.150000 -0.013349 0
19.155000 -0.010123 0
19.160000 -0.005953 0
19.165000 -0.000607 0
19.170000 0.006168 0
19.175000 0.014628 0
19.180000 0.025014 0
19.185000 0.037529 0
19.190000 0.052305 0
19.195000 0.069378 0
19.200000 0.088653 0
19.205000 0.109883 0
19.210000 0.132656 0
19.215000 0.156387 0
19.220000 0.180335 0
19.225000 0.203637 0
19.230000 0.225346 0
19.235000 0.244502 0
19.240000 0.260194 0
19.245000 0.271631 0
19.250000 0.278210 0
19.255000 0.279566 1
19.260000 0.275604 0
19.265000 0.266509 0
19.270000 0.252728 0
19.275000 0.234937 0
19.280000 0.213982 0
19.285000 0.190813 0
19.290000 0.166413 0
19.295000 0.141725 0
19.300000 0.117599 0
19.305000 0.094740 0
19.310000 0.073663 0
19.315000 0.054646 0
19.320000 0.037635 0
19.325000 0.022085 0
19.330000 0.006740 0
19.335000 -0.010519 0
19.340000 -0.032458 0
19.345000 -0.061556 0
19.350000 -0.098265 0
19.355000 -0.139001 0
19.360000 -0.174993 0
19.365000 -0.192910 2
19.370000 -0.177151 0
19.375000 -0.112729 0
19.380000 0.011817 0
19.385000 0.200507 0
19.390000 0.443838 0
19.395000 0.712511 0
19.400000 0.957116 0
19.405000 1.119547 0
19.410000 1.154424 3
19.415000 1.047791 0
19.420000 0.826298 0
19.425000 0.544577 0
19.430000 0.261249 0
19.435000 0.020542 0
19.440000 -0.153783 0
19.445000 -0.255380 0
19.450000 -0.290216 4
19.455000 -0.272899 0
19.460000 -0.223287 0
19.465000 -0.161800 0
19.470000 -0.104370 0
19.475000 -0.059493 0
19.480000 -0.028622 0
19.485000 -0.008877 0
19.490000 0.003930 0
19.495000 0.013375 0
19.500000 0.021804 0
19.505000 0.030498 0
19.510000 0.040077 0
19.515000 0.050829 0
19.520000 0.062895 0
19.525000 0.076350 0
19.530000 0.091235 0
19.535000 0.107555 0
19.540000 0.125285 0
19.545000 0.144362 0
19.550000 0.164681 0
19.555000 0.186098 0
19.560000 0.208421 0
19.565000 0.231418 0
19.570000 0.254813 0
19.575000 0.278293 0
19.580000 0.301516 0
19.585000 0.324113 0
19.590000 0.345699 0
19.595000 0.365886 0
19.600000 0.384291 0
19.605000 0.400548 0
19.610000 0.414321 0
19.615000 0.425314 0
19.620000 0.433280 0
19.625000 0.438033 0
19.630000 0.439451 5
19.635000 0.437485 0
19.640000 0.432156 0
19.645000 0.423555 0
19.650000 0.411846 0
19.655000 0.397254 0
19.660000 0.380059 0
19.665000 0.360587 0
19.670000 0.339203 0
19.675000 0.316291 0
19.680000 0.292252 0
19.685000 0.267483 0
19.690000 0.242376 0
19.695000 0.217297 0
19.700000 0.192586 0
19.705000 0.168548 0
19.710000 0.145446 0
19.715000 0.123497 0
19.720000 0.102876 0
19.725000 0.083711 0
19.730000 0.066086 0
19.735000 0.050044 0
19.740000 0.035592 0
19.745000 0.022706 0
19.750000 0.011333 0
19.755000 0.001400 0
19.760000 -0.007184 0
19.765000 -0.014521 0
19.770000 -0.020719 0
19.775000 -0.025892 0
19.780000 -0.030151 0
19.785000 -0.033605 0
19.790000 -0.036357 0
19.795000 -0.038504 0
19.800000 -0.040135 0
19.805000 -0.041330 0
19.810000 -0.042161 0
19.815000 -0.042689 0
19.820000 -0.042970 0
19.825000 -0.043049 0
19.830000 -0.042967 0
19.835000 -0.042755 0
19.840000 -0.042443 0
19.845000 -0.042051 0
19.850000 -0.041598 0
19.855000 -0.041099 0
19.860000 -0.040478 0
19.865000 -0.039839 0
19.870000 -0.039203 0
19.875000 -0.038570 0
19.880000 -0.037941 0
19.885000 -0.037314 0
19.890000 -0.036691 0
19.895000 -0.036070 0
19.900000 -0.035453 0
19.905000 -0.034839 0
19.910000 -0.034228 0
19.915000 -0.033620 0
19.920000 -0.033015 0
19.925000 -0.032414 0
19.930000 -0.031815 0
19.935000 -0.031219 0
19.940000 -0.030626 0
19.945000 -0.030036 0
19.950000 -0.029449 0
19.955000 -0.028864 0
19.960000 -0.028283 0
19.965000 -0.027704 0
19.970000 -0.027128 0
19.975000 -0.026553 0
19.980000 -0.025980 0
19.985000 -0.025407 0
19.990000 -0.024831 0
19.995000 -0.024250 0
20.000000 -0.023658 0
20.005000 -0.023046 0
20.010000 -0.022400 0
20.015000 -0.021701 0
20.020000 -0.020918 0
20.025000 -0.020010 0
20.030000 -0.018917 0
20.035000 -0.017558 0
20.040000 -0.015830 0
20.045000 -0.013594 0
20.050000 -0.010685 0
20.055000 -0.006900 0
20.060000 -0.002009 0
20.065000 0.004245 0
20.070000 0.012126 0
20.075000 0.021892 0
20.080000 0.033768 0
20.085000 0.047914 0
20.090000 0.064398 0
20.095000 0.083160 0
20.100000 0.103985 0
20.105000 0.126486 0
20.110000 0.150094 0
20.115000 0.174073 0
20.120000 0.197549 0
20.125000 0.219553 0
20.130000 0.239091 0
20.135000 0.255209 0
20.140000 0.267074 0
20.145000 0.274043 0
20.150000 0.275718 1
20.155000 0.271983 0
20.160000 0.263018 0
20.165000 0.249281 0
20.170000 0.231467 0
20.175000 0.210453 0
20.180000 0.187222 0
20.185000 0.162789 0
20.190000 0.138126 0
20.195000 0.114101 0
20.200000 0.091424 0
20.205000 0.070606 0
20.210000 0.051896 0
20.215000 0.035174 0
20.220000 0.019774 0
20.225000 0.004241 0
20.230000 -0.013783 0
20.235000 -0.037201 0
20.240000 -0.068271 0
20.245000 -0.106600 0
20.250000 -0.147115 0
20.255000 -0.179274 0
20.260000 -0.188307 2
20.265000 -0.157970 0
20.270000 -0.073636 0
20.275000 0.074420 0
20.280000 0.286054 0
20.285000 0.544206 0
20.290000 0.809750 0
20.295000 1.025741 0
20.300000 1.134902 3
20.305000 1.104379 0
20.310000 0.940356 0
20.315000 0.684592 0
20.320000 0.395587 0
20.325000 0.126494 0
20.330000 -0.087731 0
20.335000 -0.231578 0
20.340000 -0.304405 0
20.345000 -0.315961 4
20.350000 -0.283200 0
20.355000 -0.226552 0
20.360000 -0.164967 0
20.365000 -0.111527 0
20.370000 -0.071797 0
20.375000 -0.045265 0
20.380000 -0.028322 0
20.385000 -0.016902 0
20.390000 -0.007882 0
20.395000 0.000653 0
20.400000 0.009706 0
20.405000 0.019754 0
20.410000 0.031020 0
20.415000 0.043618 0
20.420000 0.057609 0
20.425000 0.073023 0
20.430000 0.089858 0
20.435000 0.108078 0
20.440000 0.127610 0
20.445000 0.148342 0
20.450000 0.170116 0
20.455000 0.192736 0
20.460000 0.215959 0
20.465000 0.239508 0
20.470000 0.263064 0
20.475000 0.286284 0
20.480000 0.308800 0
20.485000 0.330232 0
20.490000 0.350196 0
20.495000 0.368317 0
20.500000 0.384240 0
20.505000 0.397639 0
20.510000 0.408231 0
20.515000 0.415782 0
20.520000 0.420118 0
20.525000 0.421132 5
20.530000 0.418782 0
20.535000 0.413101 0
20.540000 0.404189 0
20.545000 0.392215 0
20.550000 0.377407 0
20.555000 0.360048 0
20.560000 0.340464 0
20.565000 0.319016 0
20.570000 0.296086 0
20.575000 0.272068 0
20.580000 0.247356 0
20.585000 0.222332 0
20.590000 0.197358 0
20.595000 0.172766 0
20.600000 0.148855 0
20.605000 0.125882 0
20.610000 0.104062 0
20.615000 0.083563 0
20.620000 0.064512 0
20.625000 0.046990 0
20.630000 0.031041 0
20.635000 0.016671 0
20.640000 0.003856 0
20.645000 -0.007455 0
20.650000 -0.017335 0
20.655000 -0.025872 0
20.660000 -0.033167 0
20.665000 -0.039326 0
20.670000 -0.044462 0
20.675000 -0.048683 0
20.680000 -0.052097 0
20.685000 -0.054808 0
20.690000 -0.056911 0
20.695000 -0.058494 0
20.700000 -0.059638 0
20.705000 -0.060412 0
20.710000 -0.060881 0
20.715000 -0.061098 0
20.720000 -0.061111 0
20.725000 -0.060958 0
20.730000 -0.060674 0
20.735000 -0.060286 0
20.740000 -0.059817 0
20.745000 -0.059285 0
20.750000 -0.058705 0
20.755000 -0.057997 0
20.760000 -0.057270 0
20.765000 -0.056548 0
20.770000 -0.055828 0
20.775000 -0.055113 0
20.780000 -0.054400 0
20.785000 -0.053692 0
20.790000 -0.052987 0
20.795000 -0.052285 0
20.800000 -0.051587 0
20.805000 -0.050893 0
20.810000 -0.050202 0
20.815000 -0.049514 0
20.820000 -0.048830 0
20.825000 -0.048149 0
20.830000 -0.047472 0
20.835000 -0.046798 0
20.840000 -0.046127 0
20.845000 -0.045460 0
20.850000 -0.044796 0
20.855000 -0.044135 0
20.860000 -0.043477 0
20.865000 -0.042822 0
20.870000 -0.042170 0
20.875000 -0.041519 0
20.880000 -0.040870 0
20.885000 -0.040219 0
20.890000 -0.039565 0
20.895000 -0.038903 0
20.900000 -0.038224 0
20.905000 -0.037519 0
20.910000 -0.036770 0
20.915000 -0.035952 0
20.920000 -0.035029 0
20.925000 -0.033949 0
20.930000 -0.032643 0
20.935000 -0.031018 0
20.940000 -0.028953 0
20.945000 -0.026298 0
20.950000 -0.022868 0
20.955000 -0.018449 0
20.960000 -0.012798 0
20.965000 -0.005657 0
20.970000 0.003235 0
20.975000 0.014118 0
20.980000 0.027185 0
20.985000 0.042553 0
20.990000 0.060230 0
20.995000 0.080086 0
21.000000 0.101828 0
21.005000 0.124989 0
21.010000 0.148930 0
21.015000 0.172857 0
21.020000 0.195860 0
21.025000 0.216964 0
21.030000 0.235196 0
21.035000 0.249659 0
21.040000 0.259604 0
21.045000 0.264491 1
21.050000 0.264039 0
21.055000 0.258252 0
21.060000 0.247418 0
21.065000 0.232086 0
21.070000 0.213018 0
21.075000 0.191127 0
21.080000 0.167402 0
21.085000 0.142837 0
21.090000 0.118359 0
21.095000 0.094778 0
21.100000 0.072731 0
21.105000 0.052643 0
21.110000 0.034657 0
21.115000 0.018510 0
21.120000 0.003325 0
21.125000 -0.012602 0
21.130000 -0.031824 0
21.135000 -0.057184 0
21.140000 -0.090395 0
21.145000 -0.129977 0
21.150000 -0.169482 0
21.155000 -0.197228 0
21.160000 -0.197992 2
21.165000 -0.155870 0
21.170000 -0.057269 0
21.175000 0.105672 0
21.180000 0.329704 0
21.185000 0.593494 0
21.190000 0.853959 0
21.195000 1.053074 0
21.200000 1.137093 3
21.205000 1.081909 0
21.210000 0.900865 0
21.215000 0.637626 0
21.220000 0.348450 0
21.225000 0.082634 0
21.230000 -0.128024 0
21.235000 -0.269657 0
21.240000 -0.342014 0
21.245000 -0.354437 4
21.250000 -0.322988 0
21.255000 -0.267106 0
21.260000 -0.205115 0
21.265000 -0.150117 0
21.270000 -0.108216 0
21.275000 -0.079563 0
21.280000 -0.060989 0
21.285000 -0.048554 0
21.290000 -0.039038 0
21.295000 -0.030361 0
21.300000 -0.021380 0
21.305000 -0.011532 0
21.310000 -0.000551 0
21.315000 0.011697 0
21.320000 0.025285 0
21.325000 0.040251 0
21.330000 0.056606 0
21.335000 0.074330 0
21.340000 0.093370 0
21.345000 0.113636 0
21.350000 0.135000 0
21.355000 0.157296 0
21.360000 0.180316 0
21.365000 0.203814 0
21.370000 0.227510 0
21.375000 0.251091 0
21.380000 0.274220 0
21.385000 0.296542 0
21.390000 0.317694 0
21.395000 0.337311 0
21.400000 0.355041 0
21.405000 0.370550 0
21.410000 0.383537 0
21.415000 0.393739 0
21.420000 0.400944 0
21.425000 0.404994 0
21.430000 0.405793 5
21.435000 0.403309 0
21.440000 0.397578 0
21.445000 0.388697 0
21.450000 0.376829 0
21.455000 0.362192 0
21.460000 0.345052 0
21.465000 0.325719 0
21.470000 0.304535 0
21.475000 0.281862 0
21.480000 0.258076 0
21.485000 0.233550 0
21.490000 0.208652 0
21.495000 0.183732 0
21.500000 0.159114 0
21.505000 0.135089 0
21.510000 0.111914 0
21.515000 0.089806 0
21.520000 0.068939 0
21.525000 0.049448 0
21.530000 0.031425 0
21.535000 0.014925 0
21.540000 -0.000030 0
21.545000 -0.013453 0
21.550000 -0.025380 0
21.555000 -0.035872 0
21.560000 -0.045005 0
21.565000 -0.052870 0
21.570000 -0.059565 0
21.575000 -0.065196 0
21.580000 -0.069868 0
21.585000 -0.073685 0
21.590000 -0.076748 0
21.595000 -0.079154 0
21.600000 -0.080992 0
21.605000 -0.082344 0
21.610000 -0.083283 0
21.615000 -0.083877 0
21.620000 -0.084183 0
21.625000 -0.084251 0
21.630000 -0.084126 0
21.635000 -0.083845 0
21.640000 -0.083438 0
21.645000 -0.082932 0
21.650000 -0.082348 0
21.655000 -0.081703 0
21.660000 -0.081013 0
21.665000 -0.080194 0
21.670000 -0.079356 0
21.675000 -0.078523 0
21.680000 -0.077694 0
21.685000 -0.076870 0
21.690000 -0.076049 0
21.695000 -0.075233 0
21.700000 -0.074420 0
21.705000 -0.073612 0
21.710000 -0.072807 0
21.715000 -0.072007 0
21.720000 -0.071211 0
21.725000 -0.070418 0
21.730000 -0.069630 0
21.735000 -0.068845 0
21.740000 -0.068065 0
21.745000 -0.067288 0
21.750000 -0.066515 0
21.755000 -0.065746 0
21.760000 -0.064981 0
21.765000 -0.064219 0
21.770000 -0.063461 0
21.775000 -0.062707 0
21.780000 -0.061956 0
21.785000 -0.061208 0
21.790000 -0.060462 0
21.795000 -0.059717 0
21.800000 -0.058970 0
21.805000 -0.058220 0
21.810000 -0.057461 0
21.815000 -0.056684 0
21.820000 -0.055879 0
21.825000 -0.055028 0
21.830000 -0.054104 0
21.835000 -0.053072 0
21.840000 -0.051881 0
21.845000 -0.050463 0
21.850000 -0.048726 0
21.855000 -0.046555 0
21.860000 -0.043805 0
21.865000 -0.040300 0
21.870000 -0.035836 0
21.875000 -0.030184 0
21.880000 -0.023097 0
21.885000 -0.014327 0
21.890000 -0.003643 0
21.895000 0.009148 0
21.900000 0.024171 0
21.905000 0.041452 0
21.910000 0.060899 0
21.915000 0.082268 0
21.920000 0.105159 0
21.925000 0.129006 0
21.930000 0.153095 0
21.935000 0.176590 0
21.940000 0.198578 0
21.945000 0.218123 0
21.950000 0.234335 0
21.955000 0.246430 0
21.960000 0.253801 0
21.965000 0.256058 1
21.970000 0.253071 0
21.975000 0.244975 0
21.980000 0.232163 0
21.985000 0.215252 0
21.990000 0.195035 0
21.995000 0.172419 0
22.000000 0.148356 0
22.005000 0.123779 0
22.010000 0.099541 0
22.015000 0.076369 0
22.020000 0.054824 0
22.025000 0.035254 0
22.030000 0.017724 0
22.035000 0.001889 0
22.040000 -0.013200 0
22.045000 -0.029291 0
22.050000 -0.048891 0
22.055000 -0.074686 0
22.060000 -0.108175 0
22.065000 -0.147771 0
22.070000 -0.187224 0
22.075000 -0.215412 0
22.080000 -0.217879 2
22.085000 -0.179433 0
22.090000 -0.086850 0
22.095000 0.068110 0
22.100000 0.284044 0
22.105000 0.543577 0
22.110000 0.809097 0
22.115000 1.026912 0
22.120000 1.142846 3
22.125000 1.124599 0
22.130000 0.976052 0
22.135000 0.732055 0
22.140000 0.445174 0
22.145000 0.166584 0
22.150000 -0.066899 0
22.155000 -0.236036 0
22.160000 -0.336068 0
22.165000 -0.372572 4
22.170000 -0.358523 0
22.175000 -0.311604 0
22.180000 -0.250484 0
22.185000 -0.190598 0
22.190000 -0.141282 0
22.195000 -0.105465 0
22.200000 -0.081519 0
22.205000 -0.065829 0
22.210000 -0.054783 0
22.215000 -0.045709 0
22.220000 -0.036973 0
22.225000 -0.027711 0
22.230000 -0.017497 0
22.235000 -0.006128 0
22.240000 0.006503 0
22.245000 0.020457 0
22.250000 0.035765 0
22.255000 0.052429 0
22.260000 0.070424 0
22.265000 0.089695 0
22.270000 0.110148 0
22.275000 0.131657 0
22.280000 0.154056 0
22.285000 0.177144 0
22.290000 0.200681 0
22.295000 0.224398 0
22.300000 0.247993 0
22.305000 0.271144 0
22.310000 0.293510 0
22.315000 0.314742 0
22.320000 0.334492 0
22.325000 0.352419 0
22.330000 0.368203 0
22.335000 0.381549 0
22.340000 0.392202 0
22.345000 0.399949 0
22.350000 0.404631 0
22.355000 0.406142 5
22.360000 0.404441 0
22.365000 0.399544 0
22.370000 0.391533 0
22.375000 0.380544 0
22.380000 0.366772 0
22.385000 0.350459 0
22.390000 0.331890 0
22.395000 0.311381 0
22.400000 0.289275 0
22.405000 0.265927 0
22.410000 0.241698 0
22.415000 0.216945 0
22.420000 0.192013 0
22.425000 0.167224 0
22.430000 0.142874 0
22.435000 0.119229 0
22.440000 0.096517 0
22.445000 0.074929 0
22.450000 0.054615 0
22.455000 0.035689 0
22.460000 0.018227 0
22.465000 0.002269 0
22.470000 -0.012177 0
22.475000 -0.025128 0
22.480000 -0.036627 0
22.485000 -0.046738 0
22.490000 -0.055536 0
22.495000 -0.063113 0
22.500000 -0.069563 0
22.505000 -0.074988 0
22.510000 -0.079488 0
22.515000 -0.083164 0
22.520000 -0.086113 0
22.525000 -0.088426 0
22.530000 -0.090189 0
22.535000 -0.091478 0
22.540000 -0.092367 0
22.545000 -0.092916 0
22.550000 -0.093184 0
22.555000 -0.093217 0
22.560000 -0.093059 0
22.565000 -0.092746 0
22.570000 -0.092307 0
22.575000 -0.091768 0
22.580000 -0.091151 0
22.585000 -0.090472 0
22.590000 -0.089747 0
22.595000 -0.088967 0
22.600000 -0.088086 0
22.605000 -0.087210 0
22.610000 -0.086337 0
22.615000 -0.085470 0
22.620000 -0.084606 0
22.625000 -0.083747 0
22.630000 -0.082892 0
22.635000 -0.082041 0
22.640000 -0.081195 0
22.645000 -0.080353 0
22.650000 -0.079515 0
22.655000 -0.078681 0
22.660000 -0.077851 0
22.665000 -0.077026 0
22.670000 -0.076204 0
22.675000 -0.075387 0
22.680000 -0.074574 0
22.685000 -0.073765 0
22.690000 -0.072959 0
22.695000 -0.072158 0
22.700000 -0.071361 0
22.705000 -0.070567 0
22.710000 -0.069777 0
22.715000 -0.068991 0
22.720000 -0.068207 0
22.725000 -0.067426 0
22.730000 -0.066645 0
22.735000 -0.065863 0
22.740000 -0.065076 0
22.745000 -0.064280 0
22.750000 -0.063466 0
22.755000 -0.062621 0
22.760000 -0.061730 0
22.765000 -0.060765 0
22.770000 -0.059691 0
22.775000 -0.058459 0
22.780000 -0.057002 0
22.785000 -0.055233 0
22.790000 -0.053040 0
22.795000 -0.050286 0
22.800000 -0.046802 0
22.805000 -0.042395 0
22.810000 -0.036846 0
22.815000 -0.029921 0
22.820000 -0.021382 0
22.825000 -0.011001 0
22.830000 0.001412 0
22.835000 0.015991 0
22.840000 0.032786 0
22.845000 0.051733 0
22.850000 0.072638 0
22.855000 0.095156 0
22.860000 0.118791 0
22.865000 0.142900 0
22.870000 0.166715 0
22.875000 0.189382 0
22.880000 0.210003 0
22.885000 0.227700 0
22.890000 0.241672 0
22.895000 0.251255 0
22.900000 0.255978 1
22.905000 0.255593 0
22.910000 0.250105 0
22.915000 0.239765 0
22.920000 0.225056 0
22.925000 0.206651 0
22.930000 0.185365 0
22.935000 0.162094 0
22.940000 0.137749 0
22.945000 0.113206 0
22.950000 0.089248 0
22.955000 0.066524 0
22.960000 0.045517 0
22.965000 0.026494 0
22.970000 0.009433 0
22.975000 -0.006112 0
22.980000 -0.021204 0
22.985000 -0.037671 0
22.990000 -0.058012 0
22.995000 -0.084740 0
23.000000 -0.119020 0
23.005000 -0.158907 0
23.010000 -0.197971 0
23.015000 -0.225259 0
23.020000 -0.226800 2
23.025000 -0.188033 0
23.030000 -0.096286 0
23.035000 0.056453 0
23.040000 0.269293 0
23.045000 0.526599 0
23.050000 0.793766 0
23.055000 1.020243 0
23.060000 1.152966 0
23.065000 1.156056 3
23.070000 1.026380 0
23.075000 0.794597 0
23.080000 0.511063 0
23.085000 0.227705 0
23.090000 -0.016127 0
23.095000 -0.198376 0
23.100000 -0.311965 0
23.105000 -0.360652 4
23.110000 -0.355951 0
23.115000 -0.314604 0
23.120000 -0.255190 0
23.125000 -0.193985 0
23.130000 -0.141718 0
23.135000 -0.102674 0
23.140000 -0.076106 0
23.145000 -0.058713 0
23.150000 -0.046800 0
23.155000 -0.037447 0
23.160000 -0.028785 0
23.165000 -0.019783 0
23.170000 -0.009927 0
23.175000 0.001030 0
23.180000 0.013216 0
23.185000 0.026701 0
23.190000 0.041523 0
23.195000 0.057694 0
23.200000 0.075200 0
23.205000 0.093993 0
23.210000 0.113997 0
23.215000 0.135097 0
23.220000 0.157144 0
23.225000 0.179950 0
23.230000 0.203294 0
23.235000 0.226919 0
23.240000 0.250541 0
23.245000 0.273846 0
23.250000 0.296507 0
23.255000 0.318180 0
23.260000 0.338520 0
23.265000 0.357188 0
23.270000 0.373857 0
23.275000 0.388226 0
23.280000 0.400024 0
23.285000 0.409023 0
23.290000 0.415041 0
23.295000 0.417950 5
23.300000 0.417679 0
23.305000 0.414219 0
23.310000 0.407620 0
23.315000 0.397990 0
23.320000 0.385497 0
23.325000 0.370356 0
23.330000 0.352828 0
23.335000 0.333211 0
23.340000 0.311831 0
23.345000 0.289034 0
23.350000 0.265175 0
23.355000 0.240608 0
23.360000 0.215680 0
23.365000 0.190724 0
23.370000 0.166046 0
23.375000 0.141926 0
23.380000 0.118610 0
23.385000 0.096307 0
23.390000 0.075189 0
23.395000 0.055389 0
23.400000 0.037004 0
23.405000 0.020094 0
23.410000 0.004685 0
23.415000 -0.009224 0
23.420000 -0.021662 0
23.425000 -0.032678 0
23.430000 -0.042341 0
23.435000 -0.050731 0
23.440000 -0.057939 0
23.445000 -0.064063 0
23.450000 -0.069202 0
23.455000 -0.073456 0
23.460000 -0.076923 0
23.465000 -0.079696 0
23.470000 -0.081866 0
23.475000 -0.083512 0
23.480000 -0.084711 0
23.485000 -0.085530 0
23.490000 -0.086029 0
23.495000 -0.086262 0
23.500000 -0.086274 0
23.505000 -0.086106 0
23.510000 -0.085792 0
23.515000 -0.085360 0
23.520000 -0.084835 0
23.525000 -0.084235 0
23.530000 -0.083578 0
23.535000 -0.082877 0
23.540000 -0.082049 0
23.545000 -0.081202 0
23.550000 -0.080360 0
23.555000 -0.079522 0
23.560000 -0.078688 0
23.565000 -0.077859 0
23.570000 -0.077033 0
23.575000 -0.076212 0
23.580000 -0.075394 0
23.585000 -0.074581 0
23.590000 -0.073772 0
23.595000 -0.072967 0
23.600000 -0.072165 0
23.605000 -0.071368 0
23.610000 -0.070575 0
23.615000 -0.069786 0
23.620000 -0.069000 0
23.625000 -0.068219 0
23.630000 -0.067442 0
23.635000 -0.066668 0
23.640000 -0.065898 0
23.645000 -0.065132 0
23.650000 -0.064369 0
23.655000 -0.063610 0
23.660000 -0.062855 0
23.665000 -0.062102 0
23.670000 -0.061350 0
23.675000 -0.060600 0
23.680000 -0.059848 0
23.685000 -0.059091 0
23.690000 -0.058324 0
23.695000 -0.057539 0
23.700000 -0.056724 0
23.705000 -0.055862 0
23.710000 -0.054928 0
23.715000 -0.053885 0
23.720000 -0.052686 0
23.725000 -0.051266 0
23.730000 -0.049538 0
23.735000 -0.047394 0
23.740000 -0.044699 0
23.745000 -0.041289 0
23.750000 -0.036974 0
23.755000 -0.031539 0
23.760000 -0.024755 0
23.765000 -0.016385 0
23.770000 -0.006204 0
23.775000 0.005980 0
23.780000 0.020306 0
23.785000 0.036832 0
23.790000 0.055509 0
23.795000 0.076161 0
23.800000 0.098466 0
23.805000 0.121953 0
23.810000 0.146007 0
23.815000 0.169885 0
23.820000 0.192754 0
23.825000 0.213732 0
23.830000 0.231944 0
23.835000 0.246584 0
23.840000 0.256968 0
23.845000 0.262594 0
23.850000 0.263175 1
23.855000 0.258666 0
23.860000 0.249266 0
23.865000 0.235408 0
23.870000 0.217721 0
23.875000 0.196981 0
23.880000 0.174059 0
23.885000 0.149860 0
23.890000 0.125258 0
23.895000 0.101054 0
23.900000 0.077926 0
23.905000 0.056395 0
23.910000 0.036790 0
23.915000 0.019176 0
23.920000 0.003249 0
23.925000 -0.011846 0
23.930000 -0.027683 0
23.935000 -0.046568 0
23.940000 -0.071088 0
23.945000 -0.102995 0
23.950000 -0.141541 0
23.955000 -0.181916 0
23.960000 -0.214704 0
23.965000 -0.226885 2
23.970000 -0.204008 0
23.975000 -0.132626 0
23.980000 -0.002792 0
23.985000 0.188463 0
23.990000 0.431844 0
23.995000 0.700486 0
24.000000 0.949574 0
24.005000 1.125528 0
24.010000 1.183800 3
24.015000 1.106577 0
24.020000 0.910662 0
24.025000 0.641053 0
24.030000 0.352001 0
24.035000 0.089524 0
24.040000 -0.117295 0
24.045000 -0.256084 0
24.050000 -0.327076 0
24.055000 -0.339436 4
24.060000 -0.308636 0
24.065000 -0.253361 0
24.070000 -0.191367 0
24.075000 -0.135613 0
24.080000 -0.092470 0
24.085000 -0.062516 0
24.090000 -0.042922 0
24.095000 -0.029883 0
24.100000 -0.020146 0
24.105000 -0.011525 0
24.110000 -0.002775 0
24.115000 0.006736 0
24.120000 0.017311 0
24.125000 0.029100 0
24.130000 0.042186 0
24.135000 0.056615 0
24.140000 0.072404 0
24.145000 0.089544 0
24.150000 0.107996 0
24.155000 0.127687 0
24.160000 0.148508 0
24.165000 0.170314 0
24.170000 0.192922 0
24.175000 0.216113 0
24.180000 0.239631 0
24.185000 0.263191 0
24.190000 0.286480 0
24.195000 0.309164 0
24.200000 0.330899 0
24.205000 0.351332 0
24.210000 0.370118 0
24.215000 0.386924 0
24.220000 0.401439 0
24.225000 0.413386 0
24.230000 0.422529 0
24.235000 0.428680 0
24.240000 0.431704 5
24.245000 0.431527 0
24.250000 0.428135 0
24.255000 0.421576 0
24.260000 0.411959 0
24.265000 0.399451 0
24.270000 0.384270 0
24.275000 0.366682 0
24.280000 0.346988 0
24.285000 0.325520 0
24.290000 0.302628 0
24.295000 0.278673 0
24.300000 0.254016 0
24.305000 0.229009 0
24.310000 0.203987 0
24.315000 0.179261 0
24.320000 0.155114 0
24.325000 0.131792 0
24.330000 0.109506 0
24.335000 0.088426 0
24.340000 0.068686 0
24.345000 0.050379 0
24.350000 0.033562 0
24.355000 0.018260 0
24.360000 0.004466 0
24.365000 -0.007850 0
24.370000 -0.018743 0
24.375000 -0.028282 0
24.380000 -0.036553 0
24.385000 -0.043649 0
24.390000 -0.049668 0
24.395000 -0.054713 0
24.400000 -0.058885 0
24.405000 -0.062282 0
24.410000 -0.064999 0
24.415000 -0.067125 0
24.420000 -0.068741 0
24.425000 -0.069921 0
24.430000 -0.070733 0
24.435000 -0.071236 0
24.440000 -0.071483 0
24.445000 -0.071518 0
24.450000 -0.071381 0
24.455000 -0.071105 0
24.460000 -0.070716 0
24.465000 -0.070239 0
24.470000 -0.069693 0
24.475000 -0.069093 0
24.480000 -0.068431 0
24.485000 -0.067652 0
24.490000 -0.066877 0
24.495000 -0.066107 0
24.500000 -0.065340 0
24.505000 -0.064577 0
24.510000 -0.063817 0
24.515000 -0.063062 0
24.520000 -0.062310 0
24.525000 -0.061562 0
24.530000 -0.060818 0
24.535000 -0.060077 0
24.540000 -0.059340 0
24.545000 -0.058607 0
24.550000 -0.057878 0
24.555000 -0.057152 0
24.560000 -0.056429 0
24.565000 -0.055711 0
24.570000 -0.054996 0
24.575000 -0.054284 0
24.580000 -0.053576 0
24.585000 -0.052871 0
24.590000 -0.052170 0
24.595000 -0.051472 0
24.600000 -0.050777 0
24.605000 -0.050085 0
24.610000 -0.049395 0
24.615000 -0.048705 0
24.620000 -0.048015 0
24.625000 -0.047322 0
24.630000 -0.046621 0
24.635000 -0.045905 0
24.640000 -0.045165 0
24.645000 -0.044384 0
24.650000 -0.043543 0
24.655000 -0.042608 0
24.660000 -0.041537 0
24.665000 -0.040270 0
24.670000 -0.038730 0
24.675000 -0.036814 0
24.680000 -0.034397 0
24.685000 -0.031321 0
24.690000 -0.027405 0
24.695000 -0.022437 0
24.700000 -0.016189 0
24.705000 -0.008421 0
24.710000 0.001101 0
24.715000 0.012586 0
24.720000 0.026195 0
24.725000 0.042014 0
24.730000 0.060028 0
24.735000 0.080099 0
24.740000 0.101942 0
24.745000 0.125121 0
24.750000 0.149047 0
24.755000 0.172999 0
24.760000 0.196149 0
24.765000 0.217607 0
24.770000 0.236479 0
24.775000 0.251924 0
24.780000 0.263217 0
24.785000 0.269803 0
24.790000 0.271343 1
24.795000 0.267743 0
24.800000 0.259159 0
24.805000 0.245991 0
24.810000 0.228843 0
24.815000 0.208485 0
24.820000 0.185790 0
24.825000 0.161675 0
24.830000 0.137037 0
24.835000 0.112700 0
24.840000 0.089371 0
24.845000 0.067601 0
24.850000 0.047747 0
24.855000 0.029906 0
24.860000 0.013811 0
24.865000 -0.001349 0
24.870000 -0.017115 0
24.875000 -0.035782 0
24.880000 -0.059984 0
24.885000 -0.091584 0
24.890000 -0.129980 0
24.895000 -0.170462 0
24.900000 -0.203607 0
24.905000 -0.216258 2
24.910000 -0.193741 0
24.915000 -0.122386 0
24.920000 0.007905 0
24.925000 0.200063 0
24.930000 0.444387 0
24.935000 0.713128 0
24.940000 0.960300 0
24.945000 1.131498 0
24.950000 1.182442 3
24.955000 1.096582 0
24.960000 0.892768 0
24.965000 0.618930 0
24.970000 0.330870 0
24.975000 0.074336 0
24.980000 -0.123033 0
24.985000 -0.250629 0
24.990000 -0.310388 0
24.995000 -0.313111 4
25.000000 -0.275695 0
25.005000 -0.217587 0
25.010000 -0.156280 0
25.015000 -0.103557 0
25.020000 -0.064279 0
25.025000 -0.037813 0
25.030000 -0.020722 0
25.035000 -0.009143 0
25.040000 -0.000062 0
25.045000 0.008418 0
25.050000 0.017318 0
25.055000 0.027136 0
25.060000 0.038109 0
25.065000 0.050357 0
25.070000 0.063949 0
25.075000 0.078917 0
25.080000 0.095269 0
25.085000 0.112981 0
25.090000 0.131994 0
25.095000 0.152217 0
25.100000 0.173518 0
25.105000 0.195725 0
25.110000 0.218630 0
25.115000 0.241983 0
25.120000 0.265503 0
25.125000 0.288877 0
25.130000 0.311769 0
25.135000 0.333825 0
25.140000 0.354684 0
25.145000 0.373985 0
25.150000 0.391378 0
25.155000 0.406536 0
25.160000 0.419160 0
25.165000 0.428996 0
25.170000 0.435833 0
25.175000 0.439521 0
25.180000 0.439967 5
25.185000 0.437144 0
25.190000 0.431089 0
25.195000 0.421904 0
25.200000 0.409752 0
25.205000 0.394851 0
25.210000 0.377468 0
25.215000 0.357912 0
25.220000 0.336522 0
25.225000 0.313659 0
25.230000 0.289694 0
25.235000 0.265001 0
25.240000 0.239943 0
25.245000 0.214867 0
25.250000 0.190094 0
25.255000 0.165915 0
25.260000 0.142582 0
25.265000 0.120313 0
25.270000 0.099280 0
25.275000 0.079616 0
25.280000 0.061416 0
25.285000 0.044733 0
25.290000 0.029590 0
25.295000 0.015976 0
25.300000 0.003854 0
25.305000 -0.006834 0
25.310000 -0.016165 0
25.315000 -0.024227 0
25.320000 -0.031118 0
25.325000 -0.036943 0
25.330000 -0.041805 0
25.335000 -0.045809 0
25.340000 -0.049056 0
25.345000 -0.051641 0
25.350000 -0.053653 0
25.355000 -0.055174 0
25.360000 -0.056279 0
25.365000 -0.057033 0
25.370000 -0.057495 0
25.375000 -0.057716 0
25.380000 -0.057740 0
25.385000 -0.057604 0
25.390000 -0.057339 0
25.395000 -0.056973 0
25.400000 -0.056526 0
25.405000 -0.056017 0
25.410000 -0.055459 0
25.415000 -0.054769 0
25.420000 -0.054058 0
25.425000 -0.053351 0
25.430000 -0.052648 0
25.435000 -0.051948 0
25.440000 -0.051252 0
25.445000 -0.050559 0
25.450000 -0.049870 0
25.455000 -0.049184 0
25.460000 -0.048501 0
25.465000 -0.047822 0
25.470000 -0.047146 0
25.475000 -0.046474 0
25.480000 -0.045805 0
25.485000 -0.045139 0
25.490000 -0.044477 0
25.495000 -0.043818 0
25.500000 -0.043162 0
25.505000 -0.042509 0
25.510000 -0.041860 0
25.515000 -0.041214 0
25.520000 -0.040571 0
25.525000 -0.039931 0
25.530000 -0.039293 0
25.535000 -0.038658 0
25.540000 -0.038025 0
25.545000 -0.037393 0
25.550000 -0.036759 0
25.555000 -0.036122 0
25.560000 -0.035476 0
25.565000 -0.034815 0
25.570000 -0.034128 0
25.575000 -0.033399 0
25.580000 -0.032605 0
25.585000 -0.031712 0
25.590000 -0.030674 0
25.595000 -0.029429 0
25.600000 -0.027891 0
25.605000 -0.025953 0
25.610000 -0.023478 0
25.615000 -0.020300 0
25.620000 -0.016224 0
25.625000 -0.011029 0
25.630000 -0.004473 0
25.635000 0.003691 0
25.640000 0.013700 0
25.645000 0.025758 0
25.650000 0.040012 0
25.655000 0.056521 0
25.660000 0.075229 0
25.665000 0.095943 0
25.670000 0.118313 0
25.675000 0.141828 0
25.680000 0.165824 0
25.685000 0.189505 0
25.690000 0.211984 0
25.695000 0.232331 0
25.700000 0.249642 0
25.705000 0.263096 0
25.710000 0.272026 0
25.715000 0.275966 1
25.720000 0.274696 0
25.725000 0.268260 0
25.730000 0.256960 0
25.735000 0.241336 0
25.740000 0.222118 0
25.745000 0.200173 0
25.750000 0.176437 0
25.755000 0.151851 0
25.760000 0.127298 0
25.765000 0.103552 0
25.770000 0.081236 0
25.775000 0.060783 0
25.780000 0.042378 0
25.785000 0.025858 0
25.790000 0.010545 0
25.795000 -0.004965 0
25.800000 -0.022889 0
25.805000 -0.045939 0
25.810000 -0.076300 0
25.815000 -0.113899 0
25.820000 -0.154589 0
25.825000 -0.189280 0
25.830000 -0.204747 2
25.835000 -0.185887 0
25.840000 -0.118400 0
25.845000 0.008492 0
25.850000 0.198327 0
25.855000 0.441681 0
25.860000 0.710341 0
25.865000 0.956951 0
25.870000 1.125411 0
25.875000 1.170634 3
25.880000 1.077175 0
25.885000 0.866601 0
25.890000 0.589465 0
25.895000 0.302840 0
25.900000 0.052089 0
25.905000 -0.136536 0
25.910000 -0.254038 0
25.915000 -0.303902 4
25.920000 -0.298418 0
25.925000 -0.255709 0
25.930000 -0.195755 0
25.935000 -0.135600 0
25.940000 -0.085829 0
25.945000 -0.049940 0
25.950000 -0.026317 0
25.955000 -0.011125 0
25.960000 -0.000553 0
25.965000 0.008167 0
25.970000 0.016674 0
25.975000 0.025814 0
25.980000 0.035988 0
25.985000 0.047386 0
25.990000 0.060108 0
25.995000 0.074211 0
26.000000 0.089718 0
26.005000 0.106623 0
26.010000 0.124888 0
26.015000 0.144439 0
26.020000 0.165162 0
26.025000 0.186904 0
26.030000 0.209468 0
26.035000 0.232621 0
26.040000 0.256089 0
26.045000 0.279563 0
26.050000 0.302710 0
26.055000 0.325170 0
26.060000 0.346576 0
26.065000 0.366554 0
26.070000 0.384739 0
26.075000 0.400782 0
26.080000 0.414365 0
26.085000 0.425207 0
26.090000 0.433075 0
26.095000 0.437792 0
26.100000 0.439244 5
26.105000 0.437381 0
26.110000 0.432221 0
26.115000 0.423853 0
26.120000 0.412425 0
26.125000 0.398149 0
26.130000 0.381289 0
26.135000 0.362154 0
26.140000 0.341086 0
26.145000 0.318454 0
26.150000 0.294639 0
26.155000 0.270024 0
26.160000 0.244987 0
26.165000 0.219885 0
26.170000 0.195055 0
26.175000 0.170797 0
26.180000 0.147378 0
26.185000 0.125020 0
26.190000 0.103908 0
26.195000 0.084178 0
26.200000 0.065930 0
26.205000 0.049220 0
26.210000 0.034070 0
26.215000 0.020469 0
26.220000 0.008381 0
26.225000 -0.002258 0
26.230000 -0.011525 0
26.235000 -0.019513 0
26.240000 -0.026323 0
26.245000 -0.032062 0
26.250000 -0.036838 0
26.255000 -0.040758 0
26.260000 -0.043924 0
26.265000 -0.046434 0
26.270000 -0.048377 0
26.275000 -0.049838 0
26.280000 -0.050891 0
26.285000 -0.051602 0
26.290000 -0.052029 0
26.295000 -0.052224 0
26.300000 -0.052228 0
26.305000 -0.052080 0
26.310000 -0.051810 0
26.315000 -0.051443 0
26.320000 -0.051001 0
26.325000 -0.050500 0
26.330000 -0.049955 0
26.335000 -0.049290 0
26.340000 -0.048606 0
26.345000 -0.047927 0
26.350000 -0.047251 0
26.355000 -0.046578 0
26.360000 -0.045908 0
26.365000 -0.045242 0
26.370000 -0.044579 0
26.375000 -0.043919 0
26.380000 -0.043263 0
26.385000 -0.042610 0
26.390000 -0.041960 0
26.395000 -0.041314 0
26.400000 -0.040671 0
26.405000 -0.040030 0
26.410000 -0.039394 0
26.415000 -0.038760 0
26.420000 -0.038129 0
26.425000 -0.037502 0
26.430000 -0.036877 0
26.435000 -0.036256 0
26.440000 -0.035638 0
26.445000 -0.035022 0
26.450000 -0.034408 0
26.455000 -0.033797 0
26.460000 -0.033186 0
26.465000 -0.032575 0
26.470000 -0.031960 0
26.475000 -0.031339 0
26.480000 -0.030703 0
26.485000 -0.030043 0
26.490000 -0.029344 0
26.495000 -0.028583 0
26.500000 -0.027729 0
26.505000 -0.026735 0
26.510000 -0.025539 0
26.515000 -0.024058 0
26.520000 -0.022182 0
26.525000 -0.019775 0
26.530000 -0.016668 0
26.535000 -0.012661 0
26.540000 -0.007528 0
26.545000 -0.001022 0
26.550000 0.007112 0
26.555000 0.017119 0
26.560000 0.029207 0
26.565000 0.043527 0
26.570000 0.060136 0
26.575000 0.078969 0
26.580000 0.099819 0
26.585000 0.122311 0
26.590000 0.145905 0
26.595000 0.169900 0
26.600000 0.193465 0
26.605000 0.215677 0
26.610000 0.235580 0
26.615000 0.252251 0
26.620000 0.264871 0
26.625000 0.272788 0
26.630000 0.275574 1
26.635000 0.273063 0
26.640000 0.265362 0
26.645000 0.252847 0
26.650000 0.236131 0
26.655000 0.216011 0
26.660000 0.193407 0
26.665000 0.169291 0
26.670000 0.144617 0
26.675000 0.120261 0
26.680000 0.096970 0
26.685000 0.075317 0
26.690000 0.055660 0
26.695000 0.038062 0
26.700000 0.022161 0
26.705000 0.006965 0
26.710000 -0.009344 0
26.715000 -0.029356 0
26.720000 -0.055785 0
26.725000 -0.089998 0
26.730000 -0.130026 0
26.735000 -0.169001 0
26.740000 -0.195116 2
26.745000 -0.193382 0
26.750000 -0.148388 0
26.755000 -0.047120 0
26.760000 0.117736 0
26.765000 0.342614 0
26.770000 0.606444 0
26.775000 0.867246 0
26.780000 1.068593 0
26.785000 1.157735 3
26.790000 1.107468 0
26.795000 0.928742 0
26.800000 0.665864 0
26.805000 0.376606 0
26.810000 0.111543 0
26.815000 -0.097019 0
26.820000 -0.235364 0
26.825000 -0.303782 0
26.830000 -0.312388 4
26.835000 -0.278099 0
26.840000 -0.220985 0
26.845000 -0.159483 0
26.850000 -0.106235 0
26.855000 -0.066588 0
26.860000 -0.040014 0
26.865000 -0.022977 0
26.870000 -0.011487 0
26.875000 -0.002450 0
26.880000 0.006050 0
26.885000 0.015027 0
26.890000 0.024969 0
26.895000 0.036104 0
26.900000 0.048550 0
26.905000 0.062371 0
26.910000 0.077598 0
26.915000 0.094233 0
26.920000 0.112243 0
26.925000 0.131564 0
26.930000 0.152090 0
26.935000 0.173674 0
26.940000 0.196128 0
26.945000 0.219225 0
26.950000 0.242696 0
26.955000 0.266239 0
26.960000 0.289520 0
26.965000 0.312183 0
26.970000 0.333859 0
26.975000 0.354171 0
26.980000 0.372749 0
26.985000 0.389238 0
26.990000 0.403312 0
26.995000 0.414680 0
27.000000 0.423100 0
27.005000 0.428383 0
27.010000 0.430403 5
27.015000 0.429099 0
27.020000 0.424481 0
27.025000 0.416623 0
27.030000 0.405670 0
27.035000 0.391825 0
27.040000 0.375346 0
27.045000 0.356539 0
27.050000 0.335745 0
27.055000 0.313331 0
27.060000 0.289682 0
27.065000 0.265182 0
27.070000 0.240214 0
27.075000 0.215141 0
27.080000 0.190303 0
27.085000 0.166008 0
27.090000 0.142527 0
27.095000 0.120091 0
27.100000 0.098887 0
27.105000 0.079060 0
27.110000 0.060711 0
27.115000 0.043902 0
27.120000 0.028658 0
27.125000 0.014970 0
27.130000 0.002802 0
27.135000 -0.007905 0
27.140000 -0.017231 0
27.145000 -0.025267 0
27.150000 -0.032115 0
27.155000 -0.037882 0
27.160000 -0.042676 0
27.165000 -0.046606 0
27.170000 -0.049775 0
27.175000 -0.052282 0
27.180000 -0.054217 0
27.185000 -0.055664 0
27.190000 -0.056700 0
27.195000 -0.057391 0
27.200000 -0.057796 0
27.205000 -0.057966 0
27.210000 -0.057945 0
27.215000 -0.057771 0
27.220000 -0.057473 0
27.225000 -0.057079 0
27.230000 -0.056609 0
27.235000 -0.056081 0
27.240000 -0.055508 0
27.245000 -0.054814 0
27.250000 -0.054104 0
27.255000 -0.053397 0
27.260000 -0.052693 0
27.265000 -0.051993 0
27.270000 -0.051296 0
27.275000 -0.050603 0
27.280000 -0.049914 0
27.285000 -0.049227 0
27.290000 -0.048545 0
27.295000 -0.047865 0
27.300000 -0.047189 0
27.305000 -0.046517 0
27.310000 -0.045848 0
27.315000 -0.045182 0
27.320000 -0.044519 0
27.325000 -0.043860 0
27.330000 -0.043204 0
27.335000 -0.042551 0
27.340000 -0.041901 0
27.345000 -0.041255 0
27.350000 -0.040612 0
27.355000 -0.039971 0
27.360000 -0.039333 0
27.365000 -0.038697 0
27.370000 -0.038061 0
27.375000 -0.037425 0
27.380000 -0.036786 0
27.385000 -0.036138 0
27.390000 -0.035476 0
27.395000 -0.034789 0
27.400000 -0.034060 0
27.405000 -0.033266 0
27.410000 -0.032374 0
27.415000 -0.031335 0
27.420000 -0.030084 0
27.425000 -0.028533 0
27.430000 -0.026571 0
27.435000 -0.024054 0
27.440000 -0.020808 0
27.445000 -0.016628 0
27.450000 -0.011282 0
27.455000 -0.004520 0
27.460000 0.003915 0
27.465000 0.014265 0
27.470000 0.026734 0
27.475000 0.041459 0
27.480000 0.058479 0
27.485000 0.077707 0
27.490000 0.098904 0
27.495000 0.121665 0
27.500000 0.145415 0
27.505000 0.169421 0
27.510000 0.192825 0
27.515000 0.214686 0
27.520000 0.234044 0
27.525000 0.249983 0
27.530000 0.261708 0
27.535000 0.268605 0
27.540000 0.270295 1
27.545000 0.266669 0
27.550000 0.257895 0
27.555000 0.244408 0
27.560000 0.226870 0
27.565000 0.206118 0
27.570000 0.183097 0
27.575000 0.158788 0
27.580000 0.134138 0
27.585000 0.110001 0
27.590000 0.087092 0
27.595000 0.065939 0
27.600000 0.046835 0
27.605000 0.029751 0
27.610000 0.014181 0
27.615000 -0.001078 0
27.620000 -0.018085 0
27.625000 -0.039581 0
27.630000 -0.068107 0
27.635000 -0.104314 0
27.640000 -0.144951 0
27.645000 -0.181616 0
27.650000 -0.201256 2
27.655000 -0.188357 0
27.660000 -0.127816 0
27.665000 -0.007828 0
27.670000 0.176336 0
27.675000 0.416412 0
27.680000 0.684730 0
27.685000 0.933213 0
27.690000 1.103821 0
27.695000 1.149461 3
27.700000 1.054971 0
27.705000 0.843998 0
27.710000 0.566879 0
27.715000 0.280339 0
27.720000 0.029478 0
27.725000 -0.159538 0
27.730000 -0.277666 0
27.735000 -0.328262 4
27.740000 -0.323443 0
27.745000 -0.281153 0
27.750000 -0.221260 0
27.755000 -0.160821 0
27.760000 -0.110544 0
27.765000 -0.074093 0
27.770000 -0.049978 0
27.775000 -0.034422 0
27.780000 -0.023606 0
27.785000 -0.014733 0
27.790000 -0.006128 0
27.795000 0.003078 0
27.800000 0.013300 0
27.805000 0.024734 0
27.810000 0.037483 0
27.815000 0.051605 0
27.820000 0.067125 0
27.825000 0.084040 0
27.830000 0.102313 0
27.835000 0.121875 0
27.840000 0.142614 0
27.845000 0.164381 0
27.850000 0.186987 0
27.855000 0.210200 0
27.860000 0.233752 0
27.865000 0.257340 0
27.870000 0.280634 0
27.875000 0.303280 0
27.880000 0.324912 0
27.885000 0.345159 0
27.890000 0.363657 0
27.895000 0.380057 0
27.900000 0.394039 0
27.905000 0.405319 0
27.910000 0.413660 0
27.915000 0.418877 0
27.920000 0.420851 5
27.925000 0.419521 0
27.930000 0.414900 0
27.935000 0.407062 0
27.940000 0.396150 0
27.945000 0.382365 0
27.950000 0.365962 0
27.955000 0.347241 0
27.960000 0.326540 0
27.965000 0.304220 0
27.970000 0.280660 0
27.975000 0.256240 0
27.980000 0.231337 0
27.985000 0.206312 0
27.990000 0.181501 0
27.995000 0.157210 0
28.000000 0.133711 0
28.005000 0.111233 0
28.010000 0.089965 0
28.015000 0.070053 0
28.020000 0.051602 0
28.025000 0.034676 0
28.030000 0.019303 0
28.035000 0.005479 0
28.040000 -0.006828 0
28.045000 -0.017675 0
28.050000 -0.027138 0
28.055000 -0.035306 0
28.060000 -0.042277 0
28.065000 -0.048158 0
28.070000 -0.053054 0
28.075000 -0.057074 0
28.080000 -0.060319 0
28.085000 -0.062889 0
28.090000 -0.064874 0
28.095000 -0.066360 0
28.100000 -0.067422 0
28.105000 -0.068127 0
28.110000 -0.068537 0
28.115000 -0.068703 0
28.120000 -0.068670 0
28.125000 -0.068477 0
28.130000 -0.068154 0
28.135000 -0.067730 0
28.140000 -0.067225 0
28.145000 -0.066659 0
28.150000 -0.066045 0
28.155000 -0.065301 0
28.160000 -0.064538 0
28.165000 -0.063779 0
28.170000 -0.063023 0
28.175000 -0.062272 0
28.180000 -0.061524 0
28.185000 -0.060780 0
28.190000 -0.060040 0
28.195000 -0.059303 0
28.200000 -0.058570 0
28.205000 -0.057841 0
28.210000 -0.057115 0
28.215000 -0.056393 0
28.220000 -0.055674 0
28.225000 -0.054959 0
28.230000 -0.054248 0
28.235000 -0.053540 0
28.240000 -0.052836 0
28.245000 -0.052135 0
28.250000 -0.051438 0
28.255000 -0.050744 0
28.260000 -0.050053 0
28.265000 -0.049366 0
28.270000 -0.048681 0
28.275000 -0.047999 0
28.280000 -0.047318 0
28.285000 -0.046638 0
28.290000 -0.045956 0
28.295000 -0.045269 0
28.300000 -0.044571 0
28.305000 -0.043853 0
28.310000 -0.043104 0
28.315000 -0.042302 0
28.320000 -0.041421 0
28.325000 -0.040421 0
28.330000 -0.039246 0
28.335000 -0.037822 0
28.340000 -0.036051 0
28.345000 -0.033809 0
28.350000 -0.030940 0
28.355000 -0.027258 0
