0.000000 1.115072 3
0.005000 1.050888 0
0.010000 0.885961 0
0.015000 0.652942 0
0.020000 0.393251 0
0.025000 0.144896 0
0.030000 -0.065028 0
0.035000 -0.221900 0
0.040000 -0.321437 0
0.045000 -0.366915 0
0.050000 -0.367158 4
0.055000 -0.334894 0
0.060000 -0.284567 0
0.065000 -0.229568 0
0.070000 -0.179776 0
0.075000 -0.140399 0
0.080000 -0.112419 0
0.085000 -0.094071 0
0.090000 -0.082509 0
0.095000 -0.075018 0
0.100000 -0.069559 0
0.105000 -0.064841 0
0.110000 -0.060133 0
0.115000 -0.055052 0
0.120000 -0.049397 0
0.125000 -0.043047 0
0.130000 -0.035914 0
0.135000 -0.027925 0
0.140000 -0.019013 0
0.145000 -0.009116 0
0.150000 0.001816 0
0.155000 0.013825 0
0.160000 0.026941 0
0.165000 0.041175 0
0.170000 0.056524 0
0.175000 0.072961 0
0.180000 0.090438 0
0.185000 0.108883 0
0.190000 0.128196 0
0.195000 0.148254 0
0.200000 0.168904 0
0.205000 0.189972 0
0.210000 0.211255 0
0.215000 0.232534 0
0.220000 0.253568 0
0.225000 0.274103 0
0.230000 0.293877 0
0.235000 0.312623 0
0.240000 0.330075 0
0.245000 0.345976 0
0.250000 0.360083 0
0.255000 0.372173 0
0.260000 0.382049 0
0.265000 0.389545 0
0.270000 0.394529 0
0.275000 0.396910 5
0.280000 0.396639 0
0.285000 0.393709 0
0.290000 0.388157 0
0.295000 0.380062 0
0.300000 0.369546 0
0.305000 0.356765 0
0.310000 0.341912 0
0.315000 0.325207 0
0.320000 0.306893 0
0.325000 0.287230 0
0.330000 0.266490 0
0.335000 0.244948 0
0.340000 0.222880 0
0.345000 0.200551 0
0.350000 0.178218 0
0.355000 0.156119 0
0.360000 0.134470 0
0.365000 0.113466 0
0.370000 0.093275 0
0.375000 0.074037 0
0.380000 0.055865 0
0.385000 0.038846 0
0.390000 0.023038 0
0.395000 0.008477 0
0.400000 -0.004825 0
0.405000 -0.016877 0
0.410000 -0.027706 0
0.415000 -0.037353 0
0.420000 -0.045871 0
0.425000 -0.053325 0
0.430000 -0.059783 0
0.435000 -0.065322 0
0.440000 -0.070019 0
0.445000 -0.073951 0
0.450000 -0.077195 0
0.455000 -0.079826 0
0.460000 -0.081915 0
0.465000 -0.083527 0
0.470000 -0.084726 0
0.475000 -0.085567 0
0.480000 -0.086101 0
0.485000 -0.086375 0
0.490000 -0.086429 0
0.495000 -0.086300 0
0.500000 -0.086018 0
0.505000 -0.085610 0
0.510000 -0.085099 0
0.515000 -0.084506 0
0.520000 -0.083845 0
0.525000 -0.083132 0
0.530000 -0.082378 0
0.535000 -0.081591 0
0.540000 -0.080780 0
0.545000 -0.079950 0
0.550000 -0.079108 0
0.555000 -0.078256 0
0.560000 -0.077393 0
0.565000 -0.076507 0
0.570000 -0.075625 0
0.575000 -0.074748 0
0.580000 -0.073875 0
0.585000 -0.073006 0
0.590000 -0.072142 0
0.595000 -0.071282 0
0.600000 -0.070427 0
0.605000 -0.069576 0
0.610000 -0.068729 0
0.615000 -0.067886 0
0.620000 -0.067047 0
0.625000 -0.066213 0
0.630000 -0.065382 0
0.635000 -0.064556 0
0.640000 -0.063734 0
0.645000 -0.062916 0
0.650000 -0.062103 0
0.655000 -0.061293 0
0.660000 -0.060487 0
0.665000 -0.059685 0
0.670000 -0.058888 0
0.675000 -0.058094 0
0.680000 -0.057304 0
0.685000 -0.056518 0
0.690000 -0.055736 0
0.695000 -0.054958 0
0.700000 -0.054184 0
0.705000 -0.053414 0
0.710000 -0.052647 0
0.715000 -0.051885 0
0.720000 -0.051126 0
0.725000 -0.050370 0
0.730000 -0.049618 0
0.735000 -0.048869 0
0.740000 -0.048123 0
0.745000 -0.047379 0
0.750000 -0.046636 0
0.755000 -0.045893 0
0.760000 -0.045146 0
0.765000 -0.044392 0
0.770000 -0.043626 0
0.775000 -0.042839 0
0.780000 -0.042019 0
0.785000 -0.041150 0
0.790000 -0.040209 0
0.795000 -0.039163 0
0.800000 -0.037971 0
0.805000 -0.036578 0
0.810000 -0.034914 0
0.815000 -0.032892 0
0.820000 -0.030405 0
0.825000 -0.027326 0
0.830000 -0.023511 0
0.835000 -0.018794 0
0.840000 -0.013001 0
0.845000 -0.005948 0
0.850000 0.002542 0
0.855000 0.012632 0
0.860000 0.024450 0
0.865000 0.038079 0
0.870000 0.053535 0
0.875000 0.070751 0
0.880000 0.089565 0
0.885000 0.109711 0
0.890000 0.130814 0
0.895000 0.152395 0
0.900000 0.173884 0
0.905000 0.194643 0
0.910000 0.213993 0
0.915000 0.231251 0
0.920000 0.245770 0
0.925000 0.256977 0
0.930000 0.264411 0
0.935000 0.267754 1
0.940000 0.266853 0
0.945000 0.261733 0
0.950000 0.252592 0
0.955000 0.239792 0
0.960000 0.223833 0
0.965000 0.205320 0
0.970000 0.184925 0
0.975000 0.163347 0
0.980000 0.141275 0
0.985000 0.119347 0
0.990000 0.098127 0
0.995000 0.078082 0
1.000000 0.059565 0
1.005000 0.042811 0
1.010000 0.027921 0
1.015000 0.014835 0
1.020000 0.003275 0
1.025000 -0.007358 0
1.030000 -0.018106 0
1.035000 -0.030536 0
1.040000 -0.046633 0
1.045000 -0.068329 0
1.050000 -0.096609 0
1.055000 -0.130350 0
1.060000 -0.165352 0
1.065000 -0.194097 0
1.070000 -0.206481 2
1.075000 -0.191283 0
1.080000 -0.137797 0
1.085000 -0.037456 0
1.090000 0.114112 0
1.095000 0.313890 0
1.100000 0.547564 0
1.105000 0.787224 0
1.110000 0.993895 0
1.115000 1.126509 0
1.120000 1.154844 3
1.125000 1.070670 0
1.130000 0.890752 0
1.135000 0.649946 0
1.140000 0.389529 0
1.145000 0.145733 0
1.150000 -0.056625 0
1.155000 -0.204870 0
1.160000 -0.296087 0
1.165000 -0.334461 4
1.170000 -0.329417 0
1.175000 -0.293971 0
1.180000 -0.242471 0
1.185000 -0.187855 0
1.190000 -0.139349 0
1.195000 -0.101542 0
1.200000 -0.074984 0
1.205000 -0.057720 0
1.210000 -0.046894 0
1.215000 -0.039868 0
1.220000 -0.034703 0
1.225000 -0.030181 0
1.230000 -0.025622 0
1.235000 -0.020669 0
1.240000 -0.015130 0
1.245000 -0.008890 0
1.250000 -0.001864 0
1.255000 0.006020 0
1.260000 0.014829 0
1.265000 0.024621 0
1.270000 0.035448 0
1.275000 0.047351 0
1.280000 0.060356 0
1.285000 0.074477 0
1.290000 0.089706 0
1.295000 0.106019 0
1.300000 0.123366 0
1.305000 0.141674 0
1.310000 0.160844 0
1.315000 0.180753 0
1.320000 0.201251 0
1.325000 0.222161 0
1.330000 0.243286 0
1.335000 0.264405 0
1.340000 0.285280 0
1.345000 0.305661 0
1.350000 0.325287 0
1.355000 0.343892 0
1.360000 0.361214 0
1.365000 0.376997 0
1.370000 0.391001 0
1.375000 0.403004 0
1.380000 0.412808 0
1.385000 0.420248 0
1.390000 0.425193 0
1.395000 0.427550 5
1.400000 0.427269 0
1.405000 0.424339 0
1.410000 0.418796 0
1.415000 0.410716 0
1.420000 0.400216 0
1.425000 0.387450 0
1.430000 0.372605 0
1.435000 0.355899 0
1.440000 0.337570 0
1.445000 0.317875 0
1.450000 0.297083 0
1.455000 0.275467 0
1.460000 0.253300 0
1.465000 0.230847 0
1.470000 0.208364 0
1.475000 0.186088 0
1.480000 0.164238 0
1.485000 0.143008 0
1.490000 0.122568 0
1.495000 0.103062 0
1.500000 0.084605 0
1.505000 0.067286 0
1.510000 0.051168 0
1.515000 0.036289 0
1.520000 0.022663 0
1.525000 0.010285 0
1.530000 -0.000868 0
1.535000 -0.010835 0
1.540000 -0.019668 0
1.545000 -0.027428 0
1.550000 -0.034184 0
1.555000 -0.040010 0
1.560000 -0.044981 0
1.565000 -0.049176 0
1.570000 -0.052671 0
1.575000 -0.055539 0
1.580000 -0.057853 0
1.585000 -0.059678 0
1.590000 -0.061078 0
1.595000 -0.062110 0
1.600000 -0.062825 0
1.605000 -0.063270 0
1.610000 -0.063487 0
1.615000 -0.063512 0
1.620000 -0.063378 0
1.625000 -0.063112 0
1.630000 -0.062738 0
1.635000 -0.062276 0
1.640000 -0.061743 0
1.645000 -0.061153 0
1.650000 -0.060519 0
1.655000 -0.059851 0
1.660000 -0.059155 0
1.665000 -0.058439 0
1.670000 -0.057708 0
1.675000 -0.056966 0
1.680000 -0.056217 0
1.685000 -0.055442 0
1.690000 -0.054665 0
1.695000 -0.053892 0
1.700000 -0.053124 0
1.705000 -0.052359 0
1.710000 -0.051597 0
1.715000 -0.050840 0
1.720000 -0.050086 0
1.725000 -0.049337 0
1.730000 -0.048590 0
1.735000 -0.047848 0
1.740000 -0.047109 0
1.745000 -0.046374 0
1.750000 -0.045643 0
1.755000 -0.044915 0
1.760000 -0.044191 0
1.765000 -0.043471 0
1.770000 -0.042754 0
1.775000 -0.042041 0
1.780000 -0.041331 0
1.785000 -0.040625 0
1.790000 -0.039922 0
1.795000 -0.039223 0
1.800000 -0.038528 0
1.805000 -0.037835 0
1.810000 -0.037147 0
1.815000 -0.036461 0
1.820000 -0.035779 0
1.825000 -0.035101 0
1.830000 -0.034426 0
1.835000 -0.033754 0
1.840000 -0.033085 0
1.845000 -0.032420 0
1.850000 -0.031758 0
1.855000 -0.031098 0
1.860000 -0.030441 0
1.865000 -0.029786 0
1.870000 -0.029132 0
1.875000 -0.028478 0
1.880000 -0.027822 0
1.885000 -0.027160 0
1.890000 -0.026489 0
1.895000 -0.025800 0
1.900000 -0.025085 0
1.905000 -0.024328 0
1.910000 -0.023511 0
1.915000 -0.022607 0
1.920000 -0.021578 0
1.925000 -0.020379 0
1.930000 -0.018945 0
1.935000 -0.017201 0
1.940000 -0.015051 0
1.945000 -0.012378 0
1.950000 -0.009049 0
1.955000 -0.004910 0
1.960000 0.000209 0
1.965000 0.006485 0
1.970000 0.014098 0
1.975000 0.023221 0
1.980000 0.033999 0
1.985000 0.046544 0
1.990000 0.060907 0
1.995000 0.077071 0
2.000000 0.094930 0
2.005000 0.114279 0
2.010000 0.134806 0
2.015000 0.156094 0
2.020000 0.177629 0
2.025000 0.198815 0
2.030000 0.218997 0
2.035000 0.237496 0
2.040000 0.253646 0
2.045000 0.266828 0
2.050000 0.276515 0
2.055000 0.282302 0
2.060000 0.283937 1
2.065000 0.281335 0
2.070000 0.274586 0
2.075000 0.263952 0
2.080000 0.249845 0
2.085000 0.232803 0
2.090000 0.213455 0
2.095000 0.192483 0
2.100000 0.170579 0
2.105000 0.148414 0
2.110000 0.126596 0
2.115000 0.105655 0
2.120000 0.086015 0
2.125000 0.067990 0
2.130000 0.051770 0
2.135000 0.037407 0
2.140000 0.024779 0
2.145000 0.013524 0
2.150000 0.002923 0
2.155000 -0.008214 0
2.160000 -0.021593 0
2.165000 -0.039236 0
2.170000 -0.062889 0
2.175000 -0.093043 0
2.180000 -0.127781 0
2.185000 -0.161990 0
2.190000 -0.187383 0
2.195000 -0.193477 2
2.200000 -0.169122 0
2.205000 -0.104109 0
2.210000 0.009203 0
2.215000 0.173614 0
2.220000 0.383648 0
2.225000 0.621829 0
2.230000 0.857310 0
2.235000 1.049901 0
2.240000 1.160213 0
2.245000 1.162551 3
2.250000 1.053540 0
2.255000 0.853955 0
2.260000 0.603363 0
2.265000 0.344580 0
2.270000 0.112331 0
2.275000 -0.071716 0
2.280000 -0.198252 0
2.285000 -0.267335 0
2.290000 -0.285788 4
2.295000 -0.265360 0
2.300000 -0.220680 0
2.305000 -0.166441 0
2.310000 -0.114465 0
2.315000 -0.071865 0
2.320000 -0.040948 0
2.325000 -0.020555 0
2.330000 -0.007895 0
2.335000 -0.000024 0
2.340000 0.005366 0
2.345000 0.009782 0
2.350000 0.014081 0
2.355000 0.018712 0
2.360000 0.023909 0
2.365000 0.029804 0
2.370000 0.036491 0
2.375000 0.044049 0
2.380000 0.052548 0
2.385000 0.062050 0
2.390000 0.072610 0
2.395000 0.084273 0
2.400000 0.097068 0
2.405000 0.111008 0
2.410000 0.126087 0
2.415000 0.142277 0
2.420000 0.159525 0
2.425000 0.177754 0
2.430000 0.196857 0
2.435000 0.216699 0
2.440000 0.237121 0
2.445000 0.257932 0
2.450000 0.278920 0
2.455000 0.299849 0
2.460000 0.320466 0
2.465000 0.340503 0
2.470000 0.359685 0
2.475000 0.377733 0
2.480000 0.394374 0
2.485000 0.409343 0
2.490000 0.422395 0
2.495000 0.433307 0
2.500000 0.441886 0
2.505000 0.447974 0
2.510000 0.451453 0
2.515000 0.452249 5
2.520000 0.450330 0
2.525000 0.445713 0
2.530000 0.438461 0
2.535000 0.428680 0
2.540000 0.416518 0
2.545000 0.402161 0
2.550000 0.385828 0
2.555000 0.367762 0
2.560000 0.348231 0
2.565000 0.327512 0
2.570000 0.305893 0
2.575000 0.283660 0
2.580000 0.261094 0
2.585000 0.238464 0
2.590000 0.216022 0
2.595000 0.193999 0
2.600000 0.172602 0
2.605000 0.152009 0
2.610000 0.132371 0
2.615000 0.113810 0
2.620000 0.096418 0
2.625000 0.080259 0
2.630000 0.065371 0
2.635000 0.051767 0
2.640000 0.039438 0
2.645000 0.028357 0
2.650000 0.018482 0
2.655000 0.009754 0
2.660000 0.002109 0
2.665000 -0.004528 0
2.670000 -0.010234 0
2.675000 -0.015091 0
2.680000 -0.019180 0
2.685000 -0.022580 0
2.690000 -0.025367 0
2.695000 -0.027615 0
2.700000 -0.029392 0
2.705000 -0.030760 0
2.710000 -0.031777 0
2.715000 -0.032495 0
2.720000 -0.032960 0
2.725000 -0.033213 0
2.730000 -0.033288 0
2.735000 -0.033218 0
2.740000 -0.033027 0
2.745000 -0.032740 0
2.750000 -0.032374 0
2.755000 -0.031946 0
2.760000 -0.031468 0
2.765000 -0.030952 0
2.770000 -0.030405 0
2.775000 -0.029836 0
2.780000 -0.029250 0
2.785000 -0.028652 0
2.790000 -0.028045 0
2.795000 -0.027410 0
2.800000 -0.026773 0
2.805000 -0.026140 0
2.810000 -0.025509 0
2.815000 -0.024882 0
2.820000 -0.024258 0
2.825000 -0.023637 0
2.830000 -0.023019 0
2.835000 -0.022404 0
2.840000 -0.021792 0
2.845000 -0.021184 0
2.850000 -0.020578 0
2.855000 -0.019975 0
2.860000 -0.019376 0
2.865000 -0.018779 0
2.870000 -0.018185 0
2.875000 -0.017595 0
2.880000 -0.017007 0
2.885000 -0.016422 0
2.890000 -0.015840 0
2.895000 -0.015261 0
2.900000 -0.014685 0
2.905000 -0.014112 0
2.910000 -0.013541 0
2.915000 -0.012974 0
2.920000 -0.012409 0
2.925000 -0.011847 0
2.930000 -0.011288 0
2.935000 -0.010731 0
2.940000 -0.010178 0
2.945000 -0.009627 0
2.950000 -0.009079 0
2.955000 -0.008533 0
2.960000 -0.007989 0
2.965000 -0.007448 0
2.970000 -0.006908 0
2.975000 -0.006368 0
2.980000 -0.005828 0
2.985000 -0.005286 0
2.990000 -0.004738 0
2.995000 -0.004179 0
3.000000 -0.003603 0
3.005000 -0.002999 0
3.010000 -0.002353 0
3.015000 -0.001644 0
3.020000 -0.000844 0
3.025000 0.000087 0
3.030000 0.001199 0
3.035000 0.002559 0
3.040000 0.004250 0
3.045000 0.006376 0
3.050000 0.009061 0
3.055000 0.012452 0
3.060000 0.016713 0
3.065000 0.022024 0
3.070000 0.028576 0
3.075000 0.036555 0
3.080000 0.046134 0
3.085000 0.057459 0
3.090000 0.070622 0
3.095000 0.085654 0
3.100000 0.102499 0
3.105000 0.121000 0
3.110000 0.140890 0
3.115000 0.161788 0
3.120000 0.183201 0
3.125000 0.204540 0
3.130000 0.225141 0
3.135000 0.244296 0
3.140000 0.261297 0
3.145000 0.275470 0
3.150000 0.286226 0
3.155000 0.293096 0
3.160000 0.295766 1
3.165000 0.294100 0
3.170000 0.288150 0
3.175000 0.278152 0
3.180000 0.264510 0
3.185000 0.247771 0
3.190000 0.228584 0
3.195000 0.207660 0
3.200000 0.185727 0
3.205000 0.163490 0
3.210000 0.141592 0
3.215000 0.120589 0
3.220000 0.100926 0
3.225000 0.082929 0
3.230000 0.066788 0
3.235000 0.052543 0
3.240000 0.040045 0
3.245000 0.028867 0
3.250000 0.018184 0
3.255000 0.006641 0
3.260000 -0.007648 0
3.265000 -0.026808 0
3.270000 -0.052438 0
3.275000 -0.084443 0
3.280000 -0.119826 0
3.285000 -0.152052 0
3.290000 -0.171439 2
3.295000 -0.166512 0
3.300000 -0.125778 0
3.305000 -0.039458 0
3.310000 0.098499 0
3.315000 0.287333 0
3.320000 0.515303 0
3.325000 0.756474 0
3.330000 0.972076 0
3.335000 1.118861 0
3.340000 1.162717 3
3.345000 1.091911 0
3.350000 0.921412 0
3.355000 0.685076 0
3.360000 0.424800 0
3.365000 0.178319 0
3.370000 -0.027995 0
3.375000 -0.180323 0
3.380000 -0.275086 0
3.385000 -0.316156 4
3.390000 -0.312873 0
3.395000 -0.278355 0
3.400000 -0.227197 0
3.405000 -0.172630 0
3.410000 -0.124122 0
3.415000 -0.086387 0
3.420000 -0.059990 0
3.425000 -0.042931 0
3.430000 -0.032304 0
3.435000 -0.025441 0
3.440000 -0.020394 0
3.445000 -0.015953 0
3.450000 -0.011448 0
3.455000 -0.006527 0
3.460000 -0.001005 0
3.465000 0.005233 0
3.470000 0.012270 0
3.475000 0.020182 0
3.480000 0.029034 0
3.485000 0.038885 0
3.490000 0.049786 0
3.495000 0.061778 0
3.500000 0.074886 0
3.505000 0.089120 0
3.510000 0.104471 0
3.515000 0.120909 0
3.520000 0.138379 0
3.525000 0.156804 0
3.530000 0.176077 0
3.535000 0.196067 0
3.540000 0.216616 0
3.545000 0.237540 0
3.550000 0.258632 0
3.555000 0.279663 0
3.560000 0.300388 0
3.565000 0.320547 0
3.570000 0.339875 0
3.575000 0.358101 0
3.580000 0.374959 0
3.585000 0.390194 0
3.590000 0.403564 0
3.595000 0.414851 0
3.600000 0.423864 0
3.605000 0.430446 0
3.610000 0.434476 0
3.615000 0.435873 5
3.620000 0.434600 0
3.625000 0.430663 0
3.630000 0.424114 0
3.635000 0.415046 0
3.640000 0.403593 0
3.645000 0.389925 0
3.650000 0.374246 0
3.655000 0.356785 0
3.660000 0.337796 0
3.665000 0.317545 0
3.670000 0.296307 0
3.675000 0.274363 0
3.680000 0.251985 0
3.685000 0.229441 0
3.690000 0.206982 0
3.695000 0.184842 0
3.700000 0.163229 0
3.705000 0.142332 0
3.710000 0.122309 0
3.715000 0.103290 0
3.720000 0.085381 0
3.725000 0.068656 0
3.730000 0.053165 0
3.735000 0.038935 0
3.740000 0.025969 0
3.745000 0.014249 0
3.750000 0.003744 0
3.755000 -0.005595 0
3.760000 -0.013825 0
3.765000 -0.021015 0
3.770000 -0.027238 0
3.775000 -0.032570 0
3.780000 -0.037090 0
3.785000 -0.040876 0
3.790000 -0.044004 0
3.795000 -0.046549 0
3.800000 -0.048580 0
3.805000 -0.050161 0
3.810000 -0.051353 0
3.815000 -0.052210 0
3.820000 -0.052781 0
3.825000 -0.053110 0
3.830000 -0.053236 0
3.835000 -0.053193 0
3.840000 -0.053009 0
3.845000 -0.052710 0
3.850000 -0.052318 0
3.855000 -0.051850 0
3.860000 -0.051322 0
3.865000 -0.050747 0
3.870000 -0.050134 0
3.875000 -0.049492 0
3.880000 -0.048828 0
3.885000 -0.048148 0
3.890000 -0.047456 0
3.895000 -0.046756 0
3.900000 -0.046028 0
3.905000 -0.045298 0
3.910000 -0.044572 0
3.915000 -0.043850 0
3.920000 -0.043131 0
3.925000 -0.042416 0
3.930000 -0.041705 0
3.935000 -0.040996 0
3.940000 -0.040292 0
3.945000 -0.039591 0
3.950000 -0.038894 0
3.955000 -0.038200 0
3.960000 -0.037509 0
3.965000 -0.036822 0
3.970000 -0.036138 0
3.975000 -0.035458 0
3.980000 -0.034781 0
3.985000 -0.034108 0
3.990000 -0.033437 0
3.995000 -0.032771 0
4.000000 -0.032107 0
4.005000 -0.031447 0
4.010000 -0.030790 0
4.015000 -0.030137 0
4.020000 -0.029486 0
4.025000 -0.028839 0
4.030000 -0.028195 0
4.035000 -0.027555 0
4.040000 -0.026917 0
4.045000 -0.026283 0
4.050000 -0.025652 0
4.055000 -0.025023 0
4.060000 -0.024398 0
4.065000 -0.023776 0
4.070000 -0.023156 0
4.075000 -0.022538 0
4.080000 -0.021923 0
4.085000 -0.021307 0
4.090000 -0.020692 0
4.095000 -0.020073 0
4.100000 -0.019447 0
4.105000 -0.018811 0
4.110000 -0.018155 0
4.115000 -0.017469 0
4.120000 -0.016738 0
4.125000 -0.015939 0
4.130000 -0.015044 0
4.135000 -0.014012 0
4.140000 -0.012792 0
4.145000 -0.011317 0
4.150000 -0.009503 0
4.155000 -0.007246 0
4.160000 -0.004424 0
4.165000 -0.000893 0
4.170000 0.003508 0
4.175000 0.008956 0
4.180000 0.015632 0
4.185000 0.023720 0
4.190000 0.033386 0
4.195000 0.044768 0
4.200000 0.057960 0
4.205000 0.072989 0
4.210000 0.089806 0
4.215000 0.108264 0
4.220000 0.128110 0
4.225000 0.148986 0
4.230000 0.170422 0
4.235000 0.191857 0
4.240000 0.212655 0
4.245000 0.232135 0
4.250000 0.249607 0
4.255000 0.264411 0
4.260000 0.275955 0
4.265000 0.283759 0
4.270000 0.287484 1
4.275000 0.286956 0
4.280000 0.282178 0
4.285000 0.273334 0
4.290000 0.260772 0
4.295000 0.244984 0
4.300000 0.226572 0
4.305000 0.206210 0
4.310000 0.184604 0
4.315000 0.162448 0
4.320000 0.140393 0
4.325000 0.119013 0
4.330000 0.098786 0
4.335000 0.080077 0
4.340000 0.063130 0
4.345000 0.048053 0
4.350000 0.034794 0
4.355000 0.023085 0
4.360000 0.012338 0
4.365000 0.001517 0
4.370000 -0.010944 0
4.375000 -0.027039 0
4.380000 -0.048726 0
4.385000 -0.077022 0
4.390000 -0.110827 0
4.395000 -0.145929 0
4.400000 -0.174754 0
4.405000 -0.187109 2
4.410000 -0.171668 0
4.415000 -0.117647 0
4.420000 -0.016445 0
4.425000 0.136236 0
4.430000 0.337127 0
4.435000 0.571416 0
4.440000 0.810509 0
4.445000 1.014817 0
4.450000 1.143100 0
4.455000 1.165687 3
4.460000 1.074701 0
4.465000 0.887479 0
4.470000 0.642056 0
4.475000 0.382000 0
4.480000 0.144102 0
4.485000 -0.047748 0
4.490000 -0.182519 0
4.495000 -0.259123 0
4.500000 -0.283637 4
4.505000 -0.267365 0
4.510000 -0.224840 0
4.515000 -0.171045 0
4.520000 -0.118375 0
4.525000 -0.074580 0
4.530000 -0.042468 0
4.535000 -0.021149 0
4.540000 -0.007894 0
4.545000 0.000298 0
4.550000 0.005826 0
4.555000 0.010278 0
4.560000 0.014562 0
4.565000 0.019156 0
4.570000 0.024306 0
4.575000 0.030151 0
4.580000 0.036787 0
4.585000 0.044293 0
4.590000 0.052741 0
4.595000 0.062194 0
4.600000 0.072709 0
4.605000 0.084330 0
4.610000 0.097087 0
4.615000 0.110996 0
4.620000 0.126049 0
4.625000 0.142219 0
4.630000 0.159454 0
4.635000 0.177675 0
4.640000 0.196775 0
4.645000 0.216619 0
4.650000 0.237044 0
4.655000 0.257859 0
4.660000 0.278850 0
4.665000 0.299778 0
4.670000 0.320387 0
4.675000 0.340407 0
4.680000 0.359559 0
4.685000 0.377563 0
4.690000 0.394143 0
4.695000 0.409033 0
4.700000 0.421985 0
4.705000 0.432777 0
4.710000 0.441215 0
4.715000 0.447143 0
4.720000 0.450443 0
4.725000 0.451044 5
4.730000 0.448917 0
4.735000 0.444084 0
4.740000 0.436611 0
4.745000 0.426609 0
4.750000 0.414231 0
4.755000 0.399668 0
4.760000 0.383143 0
4.765000 0.364907 0
4.770000 0.345227 0
4.775000 0.324389 0
4.780000 0.302681 0
4.785000 0.280391 0
4.790000 0.257803 0
4.795000 0.235185 0
4.800000 0.212790 0
4.805000 0.190846 0
4.810000 0.169559 0
4.815000 0.149105 0
4.820000 0.129632 0
4.825000 0.111256 0
4.830000 0.094067 0
4.835000 0.078125 0
4.840000 0.063463 0
4.845000 0.050090 0
4.850000 0.037995 0
4.855000 0.027146 0
4.860000 0.017497 0
4.865000 0.008989 0
4.870000 0.001554 0
4.875000 -0.004885 0
4.880000 -0.010407 0
4.885000 -0.015093 0
4.890000 -0.019025 0
4.895000 -0.022283 0
4.900000 -0.024943 0
4.905000 -0.027078 0
4.910000 -0.028755 0
4.915000 -0.030037 0
4.920000 -0.030979 0
4.925000 -0.031633 0
4.930000 -0.032044 0
4.935000 -0.032252 0
4.940000 -0.032290 0
4.945000 -0.032189 0
4.950000 -0.031974 0
4.955000 -0.031668 0
4.960000 -0.031287 0
4.965000 -0.030848 0
4.970000 -0.030363 0
4.975000 -0.029841 0
4.980000 -0.029292 0
4.985000 -0.028722 0
4.990000 -0.028136 0
4.995000 -0.027539 0
5.000000 -0.026930 0
5.005000 -0.026295 0
5.010000 -0.025664 0
5.015000 -0.025036 0
5.020000 -0.024411 0
5.025000 -0.023789 0
5.030000 -0.023171 0
5.035000 -0.022555 0
5.040000 -0.021943 0
5.045000 -0.021333 0
5.050000 -0.020727 0
5.055000 -0.020123 0
5.060000 -0.019523 0
5.065000 -0.018926 0
5.070000 -0.018331 0
5.075000 -0.017740 0
5.080000 -0.017151 0
5.085000 -0.016566 0
5.090000 -0.015983 0
5.095000 -0.015403 0
5.100000 -0.014826 0
5.105000 -0.014252 0
5.110000 -0.013681 0
5.115000 -0.013113 0
5.120000 -0.012548 0
5.125000 -0.011985 0
5.130000 -0.011425 0
5.135000 -0.010868 0
5.140000 -0.010314 0
5.145000 -0.009762 0
5.150000 -0.009214 0
5.155000 -0.008667 0
5.160000 -0.008124 0
5.165000 -0.007583 0
5.170000 -0.007043 0
5.175000 -0.006506 0
5.180000 -0.005970 0
5.185000 -0.005434 0
5.190000 -0.004896 0
5.195000 -0.004355 0
5.200000 -0.003805 0
5.205000 -0.003242 0
5.210000 -0.002656 0
5.215000 -0.002036 0
5.220000 -0.001363 0
5.225000 -0.000613 0
5.230000 0.000249 0
5.235000 0.001267 0
5.240000 0.002501 0
5.245000 0.004028 0
5.250000 0.005942 0
5.255000 0.008360 0
5.260000 0.011419 0
5.265000 0.015278 0
5.270000 0.020112 0
5.275000 0.026111 0
5.280000 0.033465 0
5.285000 0.042358 0
5.290000 0.052948 0
5.295000 0.065354 0
5.300000 0.079634 0
5.305000 0.095770 0
5.310000 0.113644 0
5.315000 0.133033 0
5.320000 0.153596 0
5.325000 0.174879 0
5.330000 0.196322 0
5.335000 0.217278 0
5.340000 0.237048 0
5.345000 0.254910 0
5.350000 0.270168 0
5.355000 0.282191 0
5.360000 0.290460 0
5.365000 0.294600 1
5.370000 0.294409 0
5.375000 0.289876 0
5.380000 0.281179 0
5.385000 0.268671 0
5.390000 0.252861 0
5.395000 0.234375 0
5.400000 0.213916 0
5.405000 0.192217 0
5.410000 0.170002 0
5.415000 0.147941 0
5.420000 0.126624 0
5.425000 0.106536 0
5.430000 0.088040 0
5.435000 0.071367 0
5.440000 0.056606 0
5.445000 0.043662 0
5.450000 0.032192 0
5.455000 0.021484 0
5.460000 0.010320 0
5.465000 -0.003081 0
5.470000 -0.020853 0
5.475000 -0.044837 0
5.480000 -0.075471 0
5.485000 -0.110521 0
5.490000 -0.144231 0
5.495000 -0.167469 0
5.500000 -0.168913 2
5.505000 -0.136816 0
5.510000 -0.060789 0
5.515000 0.066278 0
5.520000 0.245361 0
5.525000 0.467185 0
5.530000 0.708499 0
5.535000 0.932254 0
5.540000 1.094721 0
5.545000 1.158703 3
5.550000 1.108665 0
5.555000 0.956357 0
5.560000 0.731237 0
5.565000 0.473013 0
5.570000 0.219846 0
5.575000 0.000298 0
5.580000 -0.169079 0
5.585000 -0.282184 0
5.590000 -0.340685 0
5.595000 -0.351944 4
5.600000 -0.327478 0
5.605000 -0.281095 0
5.610000 -0.226378 0
5.615000 -0.174170 0
5.620000 -0.131028 0
5.625000 -0.099175 0
5.630000 -0.077652 0
5.635000 -0.063917 0
5.640000 -0.055186 0
5.645000 -0.049187 0
5.650000 -0.044378 0
5.655000 -0.039842 0
5.660000 -0.035081 0
5.665000 -0.029832 0
5.670000 -0.023951 0
5.675000 -0.017341 0
5.680000 -0.009923 0
5.685000 -0.001631 0
5.690000 0.007599 0
5.695000 0.017820 0
5.700000 0.029079 0
5.705000 0.041412 0
5.710000 0.054841 0
5.715000 0.069371 0
5.720000 0.084992 0
5.725000 0.101670 0
5.730000 0.119351 0
5.735000 0.137956 0
5.740000 0.157381 0
5.745000 0.177500 0
5.750000 0.198157 0
5.755000 0.219176 0
5.760000 0.240358 0
5.765000 0.261483 0
5.770000 0.282315 0
5.775000 0.302607 0
5.780000 0.322103 0
5.785000 0.340542 0
5.790000 0.357670 0
5.795000 0.373239 0
5.800000 0.387014 0
5.805000 0.398782 0
5.810000 0.408355 0
5.815000 0.415574 0
5.820000 0.420314 0
5.825000 0.422489 5
5.830000 0.422051 0
5.835000 0.418997 0
5.840000 0.413360 0
5.845000 0.405219 0
5.850000 0.394689 0
5.855000 0.381921 0
5.860000 0.367101 0
5.865000 0.350438 0
5.870000 0.332169 0
5.875000 0.312543 0
5.880000 0.291823 0
5.885000 0.270276 0
5.890000 0.248169 0
5.895000 0.225763 0
5.900000 0.203307 0
5.905000 0.181037 0
5.910000 0.159167 0
5.915000 0.137891 0
5.920000 0.117378 0
5.925000 0.097771 0
5.930000 0.079188 0
5.935000 0.061718 0
5.940000 0.045428 0
5.945000 0.030358 0
5.950000 0.016528 0
5.955000 0.003935 0
5.960000 -0.007440 0
5.965000 -0.017633 0
5.970000 -0.026690 0
5.975000 -0.034670 0
5.980000 -0.041639 0
5.985000 -0.047667 0
5.990000 -0.052830 0
5.995000 -0.057202 0
6.000000 -0.060858 0
6.005000 -0.063873 0
6.010000 -0.066317 0
6.015000 -0.068256 0
6.020000 -0.069754 0
6.025000 -0.070868 0
6.030000 -0.071650 0
6.035000 -0.072149 0
6.040000 -0.072407 0
6.045000 -0.072462 0
6.050000 -0.072347 0
6.055000 -0.072090 0
6.060000 -0.071717 0
6.065000 -0.071248 0
6.070000 -0.070703 0
6.075000 -0.070095 0
6.080000 -0.069439 0
6.085000 -0.068743 0
6.090000 -0.068018 0
6.095000 -0.067269 0
6.100000 -0.066503 0
6.105000 -0.065725 0
6.110000 -0.064938 0
6.115000 -0.064140 0
6.120000 -0.063320 0
6.125000 -0.062504 0
6.130000 -0.061693 0
6.135000 -0.060885 0
6.140000 -0.060081 0
6.145000 -0.059282 0
6.150000 -0.058486 0
6.155000 -0.057694 0
6.160000 -0.056906 0
6.165000 -0.056123 0
6.170000 -0.055343 0
6.175000 -0.054567 0
6.180000 -0.053794 0
6.185000 -0.053026 0
6.190000 -0.052262 0
6.195000 -0.051501 0
6.200000 -0.050744 0
6.205000 -0.049991 0
6.210000 -0.049242 0
6.215000 -0.048496 0
6.220000 -0.047754 0
6.225000 -0.047016 0
6.230000 -0.046281 0
6.235000 -0.045550 0
6.240000 -0.044823 0
6.245000 -0.044100 0
6.250000 -0.043380 0
6.255000 -0.042663 0
6.260000 -0.041950 0
6.265000 -0.041241 0
6.270000 -0.040535 0
6.275000 -0.039833 0
6.280000 -0.039134 0
6.285000 -0.038438 0
6.290000 -0.037745 0
6.295000 -0.037055 0
6.300000 -0.036367 0
6.305000 -0.035680 0
6.310000 -0.034993 0
6.315000 -0.034305 0
6.320000 -0.033611 0
6.325000 -0.032908 0
6.330000 -0.032188 0
6.335000 -0.031443 0
6.340000 -0.030658 0
6.345000 -0.029815 0
6.350000 -0.028888 0
6.355000 -0.027843 0
6.360000 -0.026634 0
6.365000 -0.025202 0
6.370000 -0.023473 0
6.375000 -0.021357 0
6.380000 -0.018743 0
6.385000 -0.015502 0
6.390000 -0.011487 0
6.395000 -0.006535 0
6.400000 -0.000473 0
6.405000 0.006876 0
6.410000 0.015681 0
6.415000 0.026093 0
6.420000 0.038230 0
6.425000 0.052158 0
6.430000 0.067878 0
6.435000 0.085311 0
6.440000 0.104283 0
6.445000 0.124520 0
6.450000 0.145645 0
6.455000 0.167181 0
6.460000 0.188569 0
6.465000 0.209185 0
6.470000 0.228370 0
6.475000 0.245461 0
6.480000 0.259835 0
6.485000 0.270936 0
6.490000 0.278321 0
6.495000 0.281679 1
6.500000 0.280860 0
6.505000 0.275882 0
6.510000 0.266930 0
6.515000 0.254343 0
6.520000 0.238599 0
6.525000 0.220274 0
6.530000 0.200017 0
6.535000 0.178504 0
6.540000 0.156407 0
6.545000 0.134354 0
6.550000 0.112907 0
6.555000 0.092536 0
6.560000 0.073609 0
6.565000 0.056378 0
6.570000 0.040974 0
6.575000 0.027380 0
6.580000 0.015391 0
6.585000 0.004528 0
6.590000 -0.006083 0
6.595000 -0.017800 0
6.600000 -0.032448 0
6.605000 -0.051998 0
6.610000 -0.077857 0
6.615000 -0.109835 0
6.620000 -0.145092 0
6.625000 -0.177602 0
6.630000 -0.198469 2
6.635000 -0.197080 0
6.640000 -0.162635 0
6.645000 -0.085655 0
6.650000 0.040362 0
6.655000 0.216506 0
6.660000 0.434943 0
6.665000 0.675596 0
6.670000 0.905766 0
6.675000 1.085314 0
6.680000 1.177303 3
6.685000 1.158936 0
6.690000 1.030054 0
6.695000 0.817399 0
6.700000 0.562075 0
6.705000 0.305923 0
6.710000 0.081288 0
6.715000 -0.092681 0
6.720000 -0.208648 0
6.725000 -0.268053 0
6.730000 -0.278695 4
6.735000 -0.252957 0
6.740000 -0.205646 0
6.745000 -0.151100 0
6.750000 -0.100380 0
6.755000 -0.059721 0
6.760000 -0.030723 0
6.765000 -0.011836 0
6.770000 -0.000169 0
6.775000 0.007140 0
6.780000 0.012264 0
6.785000 0.016587 0
6.790000 0.020885 0
6.795000 0.025560 0
6.800000 0.030824 0
6.805000 0.036801 0
6.810000 0.043581 0
6.815000 0.051241 0
6.820000 0.059849 0
6.825000 0.069467 0
6.830000 0.080149 0
6.835000 0.091936 0
6.840000 0.104855 0
6.845000 0.118918 0
6.850000 0.134116 0
6.855000 0.150416 0
6.860000 0.167765 0
6.865000 0.186080 0
6.870000 0.205253 0
6.875000 0.225146 0
6.880000 0.245594 0
6.885000 0.266408 0
6.890000 0.287372 0
6.895000 0.308248 0
6.900000 0.328783 0
6.905000 0.348709 0
6.910000 0.367750 0
6.915000 0.385630 0
6.920000 0.402077 0
6.925000 0.416829 0
6.930000 0.429643 0
6.935000 0.440300 0
6.940000 0.448612 0
6.945000 0.454425 0
6.950000 0.457624 0
6.955000 0.458140 5
6.960000 0.455947 0
6.965000 0.451065 0
6.970000 0.443560 0
6.975000 0.433542 0
6.980000 0.421162 0
6.985000 0.406609 0
6.990000 0.390101 0
6.995000 0.371885 0
7.000000 0.352226 0
7.005000 0.331405 0
7.010000 0.309705 0
7.015000 0.287413 0
7.020000 0.264808 0
7.025000 0.242157 0
7.030000 0.219710 0
7.035000 0.197694 0
7.040000 0.176316 0
7.045000 0.155750 0
7.050000 0.136146 0
7.055000 0.117623 0
7.060000 0.100270 0
7.065000 0.084152 0
7.070000 0.069303 0
7.075000 0.055736 0
7.080000 0.043441 0
7.085000 0.032391 0
7.090000 0.022542 0
7.095000 0.013837 0
7.100000 0.006209 0
7.105000 -0.000415 0
7.110000 -0.006113 0
7.115000 -0.010966 0
7.120000 -0.015054 0
7.125000 -0.018456 0
7.130000 -0.021250 0
7.135000 -0.023506 0
7.140000 -0.025294 0
7.145000 -0.026675 0
7.150000 -0.027706 0
7.155000 -0.028440 0
7.160000 -0.028922 0
7.165000 -0.029192 0
7.170000 -0.029286 0
7.175000 -0.029234 0
7.180000 -0.029063 0
7.185000 -0.028795 0
7.190000 -0.028448 0
7.195000 -0.028039 0
7.200000 -0.027581 0
7.205000 -0.027084 0
7.210000 -0.026557 0
7.215000 -0.026008 0
7.220000 -0.025441 0
7.225000 -0.024862 0
7.230000 -0.024273 0
7.235000 -0.023657 0
7.240000 -0.023039 0
7.245000 -0.022424 0
7.250000 -0.021813 0
7.255000 -0.021204 0
7.260000 -0.020598 0
7.265000 -0.019995 0
7.270000 -0.019395 0
7.275000 -0.018799 0
7.280000 -0.018205 0
7.285000 -0.017614 0
7.290000 -0.017026 0
7.295000 -0.016441 0
7.300000 -0.015859 0
7.305000 -0.015280 0
7.310000 -0.014704 0
7.315000 -0.014131 0
7.320000 -0.013560 0
7.325000 -0.012992 0
7.330000 -0.012428 0
7.335000 -0.011866 0
7.340000 -0.011306 0
7.345000 -0.010750 0
7.350000 -0.010196 0
7.355000 -0.009645 0
7.360000 -0.009097 0
7.365000 -0.008552 0
7.370000 -0.008009 0
7.375000 -0.007469 0
7.380000 -0.006932 0
7.385000 -0.006397 0
7.390000 -0.005865 0
7.395000 -0.005335 0
7.400000 -0.004807 0
7.405000 -0.004282 0
7.410000 -0.003758 0
7.415000 -0.003234 0
7.420000 -0.002710 0
7.425000 -0.002184 0
7.430000 -0.001652 0
7.435000 -0.001110 0
7.440000 -0.000552 0
7.445000 0.000033 0
7.450000 0.000659 0
7.455000 0.001346 0
7.460000 0.002121 0
7.465000 0.003021 0
7.470000 0.004097 0
7.475000 0.005412 0
7.480000 0.007049 0
7.485000 0.009108 0
7.490000 0.011710 0
7.495000 0.015000 0
7.500000 0.019139 0
7.505000 0.024305 0
7.510000 0.030688 0
7.515000 0.038473 0
7.520000 0.047837 0
7.525000 0.058927 0
7.530000 0.071844 0
7.535000 0.086627 0
7.540000 0.103231 0
7.545000 0.121515 0
7.550000 0.141226 0
7.555000 0.162001 0
7.560000 0.183361 0
7.565000 0.204733 0
7.570000 0.225463 0
7.575000 0.244850 0
7.580000 0.262186 0
7.585000 0.276791 0
7.590000 0.288066 0
7.595000 0.295521 0
7.600000 0.298821 1
7.605000 0.297801 0
7.610000 0.292484 0
7.615000 0.283080 0
7.620000 0.269965 0
7.625000 0.253665 0
7.630000 0.234812 0
7.635000 0.214107 0
7.640000 0.192277 0
7.645000 0.170029 0
7.650000 0.148018 0
7.655000 0.126813 0
7.660000 0.106879 0
7.665000 0.088559 0
7.670000 0.072069 0
7.675000 0.057478 0
7.680000 0.044674 0
7.685000 0.033291 0
7.690000 0.022590 0
7.695000 0.011324 0
7.700000 -0.002298 0
7.705000 -0.020391 0
7.710000 -0.044727 0
7.715000 -0.075638 0
7.720000 -0.110774 0
7.725000 -0.144317 0
7.730000 -0.167159 0
7.735000 -0.168086 2
7.740000 -0.135509 0
7.745000 -0.059198 0
7.750000 0.067844 0
7.755000 0.246585 0
7.760000 0.467958 0
7.765000 0.709200 0
7.770000 0.933949 0
7.775000 1.099035 0
7.780000 1.167280 3
7.785000 1.122011 0
7.790000 0.973218 0
7.795000 0.749953 0
7.800000 0.492101 0
7.805000 0.238332 0
7.810000 0.017764 0
7.815000 -0.152649 0
7.820000 -0.266589 0
7.825000 -0.325642 0
7.830000 -0.337185 4
7.835000 -0.312817 0
7.840000 -0.266457 0
7.845000 -0.211798 0
7.850000 -0.159741 0
7.855000 -0.116846 0
7.860000 -0.085292 0
7.865000 -0.064063 0
7.870000 -0.050577 0
7.875000 -0.042034 0
7.880000 -0.036168 0
7.885000 -0.031449 0
7.890000 -0.026974 0
7.895000 -0.022255 0
7.900000 -0.017038 0
7.905000 -0.011179 0
7.910000 -0.004581 0
7.915000 0.002833 0
7.920000 0.011130 0
7.925000 0.020373 0
7.930000 0.030616 0
7.935000 0.041906 0
7.940000 0.054277 0
7.945000 0.067751 0
7.950000 0.082331 0
7.955000 0.098004 0
7.960000 0.114735 0
7.965000 0.132467 0
7.970000 0.151116 0
7.975000 0.170577 0
7.980000 0.190717 0
7.985000 0.211378 0
7.990000 0.232378 0
7.995000 0.253514 0
8.000000 0.274562 0
8.005000 0.295281 0
8.010000 0.315421 0
8.015000 0.334723 0
8.020000 0.352925 0
8.025000 0.369770 0
8.030000 0.385009 0
8.035000 0.398411 0
8.040000 0.409763 0
8.045000 0.418880 0
8.050000 0.425608 0
8.055000 0.429829 0
8.060000 0.431461 5
8.065000 0.430466 0
8.070000 0.426847 0
8.075000 0.420647 0
8.080000 0.411953 0
8.085000 0.400889 0
8.090000 0.387615 0
8.095000 0.372323 0
8.100000 0.355233 0
8.105000 0.336585 0
8.110000 0.316634 0
8.115000 0.295648 0
8.120000 0.273896 0
8.125000 0.251646 0
8.130000 0.229160 0
8.135000 0.206684 0
8.140000 0.184453 0
8.145000 0.162676 0
8.150000 0.141543 0
8.155000 0.121217 0
8.160000 0.101837 0
8.165000 0.083511 0
8.170000 0.066326 0
8.175000 0.050339 0
8.180000 0.035586 0
8.185000 0.022078 0
8.190000 0.009809 0
8.195000 -0.001246 0
8.200000 -0.011127 0
8.205000 -0.019885 0
8.210000 -0.027582 0
8.215000 -0.034285 0
8.220000 -0.040068 0
8.225000 -0.045006 0
8.230000 -0.049175 0
8.235000 -0.052652 0
8.240000 -0.055508 0
8.245000 -0.057814 0
8.250000 -0.059637 0
8.255000 -0.061036 0
8.260000 -0.062070 0
8.265000 -0.062789 0
8.270000 -0.063239 0
8.275000 -0.063462 0
8.280000 -0.063493 0
8.285000 -0.063365 0
8.290000 -0.063104 0
8.295000 -0.062736 0
8.300000 -0.062279 0
8.305000 -0.061750 0
8.310000 -0.061165 0
8.315000 -0.060534 0
8.320000 -0.059869 0
8.325000 -0.059176 0
8.330000 -0.058462 0
8.335000 -0.057732 0
8.340000 -0.056992 0
8.345000 -0.056244 0
8.350000 -0.055468 0
8.355000 -0.054692 0
8.360000 -0.053919 0
8.365000 -0.053150 0
8.370000 -0.052385 0
8.375000 -0.051623 0
8.380000 -0.050866 0
8.385000 -0.050112 0
8.390000 -0.049362 0
8.395000 -0.048616 0
8.400000 -0.047874 0
8.405000 -0.047135 0
8.410000 -0.046400 0
8.415000 -0.045668 0
8.420000 -0.044940 0
8.425000 -0.044216 0
8.430000 -0.043496 0
8.435000 -0.042779 0
8.440000 -0.042065 0
8.445000 -0.041355 0
8.450000 -0.040649 0
8.455000 -0.039946 0
8.460000 -0.039247 0
8.465000 -0.038551 0
8.470000 -0.037859 0
8.475000 -0.037170 0
8.480000 -0.036485 0
8.485000 -0.035803 0
8.490000 -0.035124 0
8.495000 -0.034449 0
8.500000 -0.033777 0
8.505000 -0.033108 0
8.510000 -0.032443 0
8.515000 -0.031781 0
8.520000 -0.031121 0
8.525000 -0.030464 0
8.530000 -0.029810 0
8.535000 -0.029157 0
8.540000 -0.028504 0
8.545000 -0.027850 0
8.550000 -0.027192 0
8.555000 -0.026527 0
8.560000 -0.025847 0
8.565000 -0.025146 0
8.570000 -0.024411 0
8.575000 -0.023625 0
8.580000 -0.022764 0
8.585000 -0.021799 0
8.590000 -0.020686 0
8.595000 -0.019371 0
8.600000 -0.017787 0
8.605000 -0.015846 0
8.610000 -0.013445 0
8.615000 -0.010461 0
8.620000 -0.006749 0
8.625000 -0.002152 0
8.630000 0.003504 0
8.635000 0.010395 0
8.640000 0.018697 0
8.645000 0.028570 0
8.650000 0.040143 0
8.655000 0.053501 0
8.660000 0.068667 0
8.665000 0.085587 0
8.670000 0.104113 0
8.675000 0.123999 0
8.680000 0.144893 0
8.685000 0.166343 0
8.690000 0.187806 0
8.695000 0.208666 0
8.700000 0.228266 0
8.705000 0.245935 0
8.710000 0.261029 0
8.715000 0.272969 0
8.720000 0.281274 0
8.725000 0.285598 0
8.730000 0.285749 1
8.735000 0.281703 0
8.740000 0.273609 0
8.745000 0.261775 0
8.750000 0.246654 0
8.755000 0.228809 0
8.760000 0.208881 0
8.765000 0.187549 0
8.770000 0.165494 0
8.775000 0.143362 0
8.780000 0.121734 0
8.785000 0.101105 0
8.790000 0.081864 0
8.795000 0.064289 0
8.800000 0.048534 0
8.805000 0.034612 0
8.810000 0.022353 0
8.815000 0.011328 0
8.820000 0.000729 0
8.825000 -0.010734 0
8.830000 -0.024838 0
8.835000 -0.043585 0
8.840000 -0.068537 0
8.845000 -0.099796 0
8.850000 -0.134920 0
8.855000 -0.168258 0
8.860000 -0.191165 0
8.865000 -0.193072 2
8.870000 -0.163028 0
8.875000 -0.091243 0
8.880000 0.029282 0
8.885000 0.200385 0
8.890000 0.415275 0
8.895000 0.655018 0
8.900000 0.887729 0
8.905000 1.073237 0
8.910000 1.173520 3
8.915000 1.163546 0
8.920000 1.040613 0
8.925000 0.830905 0
8.930000 0.576259 0
8.935000 0.319806 0
8.940000 0.094999 0
8.945000 -0.078433 0
8.950000 -0.193048 0
8.955000 -0.250498 0
8.960000 -0.259006 4
8.965000 -0.231483 0
8.970000 -0.183200 0
8.975000 -0.128711 0
8.980000 -0.078955 0
8.985000 -0.039788 0
8.990000 -0.012371 0
8.995000 0.005172 0
9.000000 0.015876 0
9.005000 0.022594 0
9.010000 0.027410 0
9.015000 0.031610 0
9.020000 0.035895 0
9.025000 0.040623 0
9.030000 0.045984 0
9.035000 0.052094 0
9.040000 0.059040 0
9.045000 0.066900 0
9.050000 0.075740 0
9.055000 0.085624 0
9.060000 0.096602 0
9.065000 0.108713 0
9.070000 0.121979 0
9.075000 0.136404 0
9.080000 0.151972 0
9.085000 0.168641 0
9.090000 0.186344 0
9.095000 0.204985 0
9.100000 0.224440 0
9.105000 0.244556 0
9.110000 0.265151 0
9.115000 0.286017 0
9.120000 0.306922 0
9.125000 0.327612 0
9.130000 0.347820 0
9.135000 0.367264 0
9.140000 0.385660 0
9.145000 0.402725 0
9.150000 0.418185 0
9.155000 0.431782 0
9.160000 0.443278 0
9.165000 0.452468 0
9.170000 0.459178 0
9.175000 0.463276 0
9.180000 0.464673 5
9.185000 0.463328 0
9.190000 0.459245 0
9.195000 0.452477 0
9.200000 0.443125 0
9.205000 0.431332 0
9.210000 0.417280 0
9.215000 0.401188 0
9.220000 0.383303 0
9.225000 0.363894 0
9.230000 0.343244 0
9.235000 0.321648 0
9.240000 0.299398 0
9.245000 0.276782 0
9.250000 0.254079 0
9.255000 0.231547 0
9.260000 0.209424 0
9.265000 0.187924 0
9.270000 0.167231 0
9.275000 0.147500 0
9.280000 0.128856 0
9.285000 0.111395 0
9.290000 0.095181 0
9.295000 0.080253 0
9.300000 0.066623 0
9.305000 0.054283 0
9.310000 0.043204 0
9.315000 0.033340 0
9.320000 0.024633 0
9.325000 0.017014 0
9.330000 0.010408 0
9.335000 0.004733 0
9.340000 -0.000094 0
9.345000 -0.004153 0
9.350000 -0.007528 0
9.355000 -0.010295 0
9.360000 -0.012529 0
9.365000 -0.014298 0
9.370000 -0.015666 0
9.375000 -0.016690 0
9.380000 -0.017422 0
9.385000 -0.017907 0
9.390000 -0.018187 0
9.395000 -0.018296 0
9.400000 -0.018264 0
9.405000 -0.018117 0
9.410000 -0.017878 0
9.415000 -0.017565 0
9.420000 -0.017192 0
9.425000 -0.016773 0
9.430000 -0.016318 0
9.435000 -0.015835 0
9.440000 -0.015330 0
9.445000 -0.014810 0
9.450000 -0.014279 0
9.455000 -0.013735 0
9.460000 -0.013166 0
9.465000 -0.012600 0
9.470000 -0.012038 0
9.475000 -0.011477 0
9.480000 -0.010920 0
9.485000 -0.010366 0
9.490000 -0.009814 0
9.495000 -0.009265 0
9.500000 -0.008719 0
9.505000 -0.008175 0
9.510000 -0.007634 0
9.515000 -0.007096 0
9.520000 -0.006561 0
9.525000 -0.006028 0
9.530000 -0.005498 0
9.535000 -0.004971 0
9.540000 -0.004446 0
9.545000 -0.003924 0
9.550000 -0.003404 0
9.555000 -0.002887 0
9.560000 -0.002373 0
9.565000 -0.001861 0
9.570000 -0.001351 0
9.575000 -0.000845 0
9.580000 -0.000340 0
9.585000 0.000161 0
9.590000 0.000661 0
9.595000 0.001157 0
9.600000 0.001652 0
9.605000 0.002144 0
9.610000 0.002633 0
9.615000 0.003121 0
9.620000 0.003606 0
9.625000 0.004089 0
9.630000 0.004572 0
9.635000 0.005053 0
9.640000 0.005536 0
9.645000 0.006021 0
9.650000 0.006511 0
9.655000 0.007012 0
9.660000 0.007530 0
9.665000 0.008075 0
9.670000 0.008661 0
9.675000 0.009311 0
9.680000 0.010051 0
9.685000 0.010921 0
9.690000 0.011973 0
9.695000 0.013274 0
9.700000 0.014910 0
9.705000 0.016987 0
9.710000 0.019632 0
9.715000 0.022995 0
9.720000 0.027246 0
9.725000 0.032570 0
9.730000 0.039161 0
9.735000 0.047211 0
9.740000 0.056895 0
9.745000 0.068357 0
9.750000 0.081688 0
9.755000 0.096908 0
9.760000 0.113949 0
9.765000 0.132635 0
9.770000 0.152676 0
9.775000 0.173661 0
9.780000 0.195067 0
9.785000 0.216276 0
9.790000 0.236595 0
9.795000 0.255296 0
9.800000 0.271658 0
9.805000 0.285007 0
9.810000 0.294767 0
9.815000 0.300495 0
9.820000 0.301917 1
9.825000 0.298948 0
9.830000 0.291695 0
9.835000 0.280457 0
9.840000 0.265697 0
9.845000 0.248012 0
9.850000 0.228095 0
9.855000 0.206684 0
9.860000 0.184520 0
9.865000 0.162306 0
9.870000 0.140669 0
9.875000 0.120133 0
9.880000 0.101107 0
9.885000 0.083864 0
9.890000 0.068538 0
9.895000 0.055088 0
9.900000 0.043245 0
9.905000 0.032396 0
9.910000 0.021445 0
9.915000 0.008721 0
9.920000 -0.007896 0
9.925000 -0.030428 0
9.930000 -0.059747 0
9.935000 -0.094269 0
9.940000 -0.128926 0
9.945000 -0.155075 0
9.950000 -0.161529 2
9.955000 -0.136311 0
9.960000 -0.068503 0
9.965000 0.049850 0
9.970000 0.221014 0
9.975000 0.437506 0
9.980000 0.677985 0
9.985000 0.906602 0
9.990000 1.079234 0
9.995000 1.156474 3
10.000000 1.120989 0
10.005000 0.979925 0
10.010000 0.761150 0
10.015000 0.504495 0
10.020000 0.249412 0
10.025000 0.026091 0
10.030000 -0.147587 0
10.035000 -0.264672 0
10.040000 -0.326384 0
10.045000 -0.339904 4
10.050000 -0.316770 0
10.055000 -0.270973 0
10.060000 -0.216384 0
10.065000 -0.164126 0
10.070000 -0.120952 0
10.075000 -0.089158 0
10.080000 -0.067771 0
10.085000 -0.054198 0
10.090000 -0.045613 0
10.095000 -0.039725 0
10.100000 -0.034990 0
10.105000 -0.030496 0
10.110000 -0.025755 0
10.115000 -0.020511 0
10.120000 -0.014619 0
10.125000 -0.007984 0
10.130000 -0.000527 0
10.135000 0.007819 0
10.140000 0.017118 0
10.145000 0.027424 0
10.150000 0.038782 0
10.155000 0.051229 0
10.160000 0.064784 0
10.165000 0.079451 0
10.170000 0.095213 0
10.175000 0.112036 0
10.180000 0.129859 0
10.185000 0.148597 0
10.190000 0.168140 0
10.195000 0.188353 0
10.200000 0.209074 0
10.205000 0.230118 0
10.210000 0.251277 0
10.215000 0.272324 0
10.220000 0.293015 0
10.225000 0.313095 0
10.230000 0.332303 0
10.235000 0.350374 0
10.240000 0.367051 0
10.245000 0.382084 0
10.250000 0.395241 0
10.255000 0.406312 0
10.260000 0.415114 0
10.265000 0.421496 0
10.270000 0.425344 0
10.275000 0.426584 5
10.280000 0.425182 0
10.285000 0.421148 0
10.290000 0.414534 0
10.295000 0.405433 0
10.300000 0.393977 0
10.305000 0.380335 0
10.310000 0.364705 0
10.315000 0.347314 0
10.320000 0.328406 0
10.325000 0.308243 0
10.330000 0.287095 0
10.335000 0.265235 0
10.340000 0.242931 0
10.345000 0.220445 0
10.350000 0.198023 0
10.355000 0.175896 0
10.360000 0.154272 0
10.365000 0.133335 0
10.370000 0.113244 0
10.375000 0.094132 0
10.380000 0.076104 0
10.385000 0.059237 0
10.390000 0.043586 0
10.395000 0.029178 0
10.400000 0.016021 0
10.405000 0.004103 0
10.410000 -0.006606 0
10.415000 -0.016149 0
10.420000 -0.024582 0
10.425000 -0.031968 0
10.430000 -0.038377 0
10.435000 -0.043885 0
10.440000 -0.048568 0
10.445000 -0.052503 0
10.450000 -0.055765 0
10.455000 -0.058426 0
10.460000 -0.060558 0
10.465000 -0.062224 0
10.470000 -0.063485 0
10.475000 -0.064396 0
10.480000 -0.065008 0
10.485000 -0.065364 0
10.490000 -0.065506 0
10.495000 -0.065467 0
10.500000 -0.065278 0
10.505000 -0.064965 0
10.510000 -0.064552 0
10.515000 -0.064056 0
10.520000 -0.063495 0
10.525000 -0.062881 0
10.530000 -0.062226 0
10.535000 -0.061539 0
10.540000 -0.060828 0
10.545000 -0.060097 0
10.550000 -0.059353 0
10.555000 -0.058600 0
10.560000 -0.057835 0
10.565000 -0.057046 0
10.570000 -0.056262 0
10.575000 -0.055481 0
10.580000 -0.054704 0
10.585000 -0.053932 0
10.590000 -0.053163 0
10.595000 -0.052397 0
10.600000 -0.051636 0
10.605000 -0.050878 0
10.610000 -0.050125 0
10.615000 -0.049375 0
10.620000 -0.048628 0
10.625000 -0.047886 0
10.630000 -0.047147 0
10.635000 -0.046412 0
10.640000 -0.045680 0
10.645000 -0.044952 0
10.650000 -0.044228 0
10.655000 -0.043508 0
10.660000 -0.042791 0
10.665000 -0.042077 0
10.670000 -0.041367 0
10.675000 -0.040661 0
10.680000 -0.039958 0
10.685000 -0.039259 0
10.690000 -0.038563 0
10.695000 -0.037871 0
10.700000 -0.037182 0
10.705000 -0.036496 0
10.710000 -0.035814 0
10.715000 -0.035135 0
10.720000 -0.034460 0
10.725000 -0.033787 0
10.730000 -0.033118 0
10.735000 -0.032452 0
10.740000 -0.031788 0
10.745000 -0.031126 0
10.750000 -0.030465 0
10.755000 -0.029803 0
10.760000 -0.029139 0
10.765000 -0.028468 0
10.770000 -0.027787 0
10.775000 -0.027087 0
10.780000 -0.026359 0
10.785000 -0.025586 0
10.790000 -0.024749 0
10.795000 -0.023819 0
10.800000 -0.022757 0
10.805000 -0.021516 0
10.810000 -0.020030 0
10.815000 -0.018219 0
10.820000 -0.015985 0
10.825000 -0.013210 0
10.830000 -0.009757 0
10.835000 -0.005471 0
10.840000 -0.000180 0
10.845000 0.006292 0
10.850000 0.014125 0
10.855000 0.023487 0
10.860000 0.034519 0
10.865000 0.047323 0
10.870000 0.061945 0
10.875000 0.078353 0
10.880000 0.096431 0
10.885000 0.115959 0
10.890000 0.136614 0
10.895000 0.157969 0
10.900000 0.179499 0
10.905000 0.200601 0
10.910000 0.220622 0
10.915000 0.238884 0
10.920000 0.254728 0
10.925000 0.267546 0
10.930000 0.276826 0
10.935000 0.282180 0
10.940000 0.283375 1
10.945000 0.280345 0
10.950000 0.273196 0
10.955000 0.262206 0
10.960000 0.247798 0
10.965000 0.230518 0
10.970000 0.210999 0
10.975000 0.189920 0
10.980000 0.167973 0
10.985000 0.145817 0
10.990000 0.124056 0
10.995000 0.103206 0
11.000000 0.083684 0
11.005000 0.065791 0
11.010000 0.049707 0
11.015000 0.035473 0
11.020000 0.022955 0
11.025000 0.011773 0
11.030000 0.001185 0
11.035000 -0.010026 0
11.040000 -0.023584 0
11.045000 -0.041505 0
11.050000 -0.065490 0
11.055000 -0.095930 0
11.060000 -0.130777 0
11.065000 -0.164787 0
11.070000 -0.189593 0
11.075000 -0.194697 2
11.080000 -0.169014 0
11.085000 -0.102446 0
11.090000 0.012492 0
11.095000 0.178379 0
11.100000 0.389470 0
11.105000 0.628012 0
11.110000 0.863002 0
11.115000 1.054326 0
11.120000 1.162927 0
11.125000 1.163564 3
11.130000 1.052299 0
11.135000 0.851235 0
11.140000 0.600075 0
11.145000 0.341495 0
11.150000 0.109941 0
11.155000 -0.073192 0
11.160000 -0.198797 0
11.165000 -0.267058 0
11.170000 -0.284873 4
11.175000 -0.264028 0
11.180000 -0.219146 0
11.185000 -0.164877 0
11.190000 -0.112977 0
11.195000 -0.070491 0
11.200000 -0.039682 0
11.205000 -0.019368 0
11.210000 -0.006757 0
11.215000 0.001087 0
11.220000 0.006463 0
11.225000 0.010871 0
11.230000 0.015165 0
11.235000 0.019793 0
11.240000 0.024985 0
11.245000 0.030875 0
11.250000 0.037557 0
11.255000 0.045109 0
11.260000 0.053600 0
11.265000 0.063095 0
11.270000 0.073646 0
11.275000 0.085298 0
11.280000 0.098082 0
11.285000 0.112009 0
11.290000 0.127075 0
11.295000 0.143251 0
11.300000 0.160484 0
11.305000 0.178698 0
11.310000 0.197787 0
11.315000 0.217616 0
11.320000 0.238025 0
11.325000 0.258827 0
11.330000 0.279808 0
11.335000 0.300734 0
11.340000 0.321352 0
11.345000 0.341395 0
11.350000 0.360588 0
11.355000 0.378654 0
11.360000 0.395318 0
11.365000 0.410317 0
11.370000 0.423406 0
11.375000 0.434361 0
11.380000 0.442989 0
11.385000 0.449132 0
11.390000 0.452670 0
11.395000 0.453528 5
11.400000 0.451675 0
11.405000 0.447125 0
11.410000 0.439940 0
11.415000 0.430224 0
11.420000 0.418125 0
11.425000 0.403827 0
11.430000 0.387547 0
11.435000 0.369528 0
11.440000 0.350035 0
11.445000 0.329347 0
11.450000 0.307749 0
11.455000 0.285528 0
11.460000 0.262965 0
11.465000 0.240327 0
11.470000 0.217869 0
11.475000 0.195820 0
11.480000 0.174389 0
11.485000 0.153755 0
11.490000 0.134070 0
11.495000 0.115456 0
11.500000 0.098007 0
11.505000 0.081787 0
11.510000 0.066836 0
11.515000 0.053168 0
11.520000 0.040775 0
11.525000 0.029631 0
11.530000 0.019693 0
11.535000 0.010906 0
11.540000 0.003203 0
11.545000 -0.003488 0
11.550000 -0.009245 0
11.555000 -0.014150 0
11.560000 -0.018282 0
11.565000 -0.021721 0
11.570000 -0.024544 0
11.575000 -0.026825 0
11.580000 -0.028630 0
11.585000 -0.030025 0
11.590000 -0.031065 0
11.595000 -0.031803 0
11.600000 -0.032285 0
11.605000 -0.032553 0
11.610000 -0.032642 0
11.615000 -0.032584 0
11.620000 -0.032404 0
11.625000 -0.032125 0
11.630000 -0.031767 0
11.635000 -0.031346 0
11.640000 -0.030874 0
11.645000 -0.030363 0
11.650000 -0.029822 0
11.655000 -0.029258 0
11.660000 -0.028676 0
11.665000 -0.028081 0
11.670000 -0.027478 0
11.675000 -0.026846 0
11.680000 -0.026212 0
11.685000 -0.025581 0
11.690000 -0.024954 0
11.695000 -0.024329 0
11.700000 -0.023708 0
11.705000 -0.023090 0
11.710000 -0.022474 0
11.715000 -0.021862 0
11.720000 -0.021253 0
11.725000 -0.020647 0
11.730000 -0.020044 0
11.735000 -0.019444 0
11.740000 -0.018847 0
11.745000 -0.018253 0
11.750000 -0.017662 0
11.755000 -0.017074 0
11.760000 -0.016489 0
11.765000 -0.015906 0
11.770000 -0.015327 0
11.775000 -0.014751 0
11.780000 -0.014177 0
11.785000 -0.013606 0
11.790000 -0.013038 0
11.795000 -0.012473 0
11.800000 -0.011911 0
11.805000 -0.011352 0
11.810000 -0.010795 0
11.815000 -0.010241 0
11.820000 -0.009690 0
11.825000 -0.009141 0
11.830000 -0.008596 0
11.835000 -0.008052 0
11.840000 -0.007511 0
11.845000 -0.006972 0
11.850000 -0.006435 0
11.855000 -0.005898 0
11.860000 -0.005361 0
11.865000 -0.004821 0
11.870000 -0.004276 0
11.875000 -0.003722 0
11.880000 -0.003151 0
11.885000 -0.002553 0
11.890000 -0.001916 0
11.895000 -0.001218 0
11.900000 -0.000432 0
11.905000 0.000479 0
11.910000 0.001565 0
11.915000 0.002889 0
11.920000 0.004533 0
11.925000 0.006598 0
11.930000 0.009207 0
11.935000 0.012501 0
11.940000 0.016644 0
11.945000 0.021814 0
11.950000 0.028199 0
11.955000 0.035988 0
11.960000 0.045356 0
11.965000 0.056451 0
11.970000 0.069375 0
11.975000 0.084166 0
11.980000 0.100781 0
11.985000 0.119077 0
11.990000 0.138802 0
11.995000 0.159590 0
12.000000 0.180964 0
12.005000 0.202347 0
12.010000 0.223084 0
12.015000 0.242474 0
12.020000 0.259804 0
12.025000 0.274398 0
12.030000 0.285652 0
12.035000 0.293080 0
12.040000 0.296345 1
12.045000 0.295285 0
12.050000 0.289926 0
12.055000 0.280479 0
12.060000 0.267324 0
12.065000 0.250990 0
12.070000 0.232111 0
12.075000 0.211392 0
12.080000 0.189558 0
12.085000 0.167320 0
12.090000 0.145332 0
12.095000 0.124162 0
12.100000 0.104272 0
12.105000 0.086005 0
12.110000 0.069573 0
12.115000 0.055041 0
12.120000 0.042292 0
12.125000 0.030951 0
12.130000 0.020263 0
12.135000 0.008965 0
12.140000 -0.004754 0
12.145000 -0.023014 0
12.150000 -0.047565 0
12.155000 -0.078666 0
12.160000 -0.113856 0
12.165000 -0.147180 0
12.170000 -0.169407 2
12.175000 -0.169259 0
12.180000 -0.135143 0
12.185000 -0.056897 0
12.190000 0.072311 0
12.195000 0.253121 0
12.200000 0.475933 0
12.205000 0.717308 0
12.210000 0.940316 0
12.215000 1.101669 0
12.220000 1.164741 3
12.225000 1.115059 0
12.230000 0.962518 0
12.235000 0.736943 0
12.240000 0.478517 0
12.245000 0.225734 0
12.250000 0.007256 0
12.255000 -0.160473 0
12.260000 -0.271560 0
12.265000 -0.327932 0
12.270000 -0.337242 4
12.275000 -0.311301 0
12.280000 -0.264126 0
12.285000 -0.209355 0
12.290000 -0.157701 0
12.295000 -0.115467 0
12.300000 -0.084603 0
12.305000 -0.063946 0
12.310000 -0.050858 0
12.315000 -0.042551 0
12.320000 -0.036798 0
12.325000 -0.032114 0
12.330000 -0.027629 0
12.335000 -0.022877 0
12.340000 -0.017611 0
12.345000 -0.011694 0
12.350000 -0.005031 0
12.355000 0.002455 0
12.360000 0.010830 0
12.365000 0.020158 0
12.370000 0.030491 0
12.375000 0.041876 0
12.380000 0.054347 0
12.385000 0.067922 0
12.390000 0.082606 0
12.395000 0.098382 0
12.400000 0.115213 0
12.405000 0.133040 0
12.410000 0.151777 0
12.415000 0.171316 0
12.420000 0.191520 0
12.425000 0.212229 0
12.430000 0.233259 0
12.435000 0.254402 0
12.440000 0.275434 0
12.445000 0.296111 0
12.450000 0.316181 0
12.455000 0.335383 0
12.460000 0.353455 0
12.465000 0.370141 0
12.470000 0.385192 0
12.475000 0.398377 0
12.480000 0.409487 0
12.485000 0.418339 0
12.490000 0.424782 0
12.495000 0.428703 0
12.500000 0.430025 5
12.505000 0.428713 0
12.510000 0.424776 0
12.515000 0.418264 0
12.520000 0.409266 0
12.525000 0.397915 0
12.530000 0.384373 0
12.535000 0.368838 0
12.540000 0.351532 0
12.545000 0.332699 0
12.550000 0.312597 0
12.555000 0.291496 0
12.560000 0.269664 0
12.565000 0.247371 0
12.570000 0.224877 0
12.575000 0.202428 0
12.580000 0.180254 0
12.585000 0.158566 0
12.590000 0.137548 0
12.595000 0.117360 0
12.600000 0.098137 0
12.605000 0.079985 0
12.610000 0.062985 0
12.615000 0.047193 0
12.620000 0.032638 0
12.625000 0.019332 0
12.630000 0.007263 0
12.635000 -0.003596 0
12.640000 -0.013286 0
12.645000 -0.021862 0
12.650000 -0.029386 0
12.655000 -0.035927 0
12.660000 -0.041558 0
12.665000 -0.046357 0
12.670000 -0.050399 0
12.675000 -0.053760 0
12.680000 -0.056512 0
12.685000 -0.058725 0
12.690000 -0.060465 0
12.695000 -0.061793 0
12.700000 -0.062763 0
12.705000 -0.063427 0
12.710000 -0.063829 0
12.715000 -0.064011 0
12.720000 -0.064008 0
12.725000 -0.063850 0
12.730000 -0.063565 0
12.735000 -0.063175 0
12.740000 -0.062701 0
12.745000 -0.062157 0
12.750000 -0.061560 0
12.755000 -0.060919 0
12.760000 -0.060245 0
12.765000 -0.059544 0
12.770000 -0.058824 0
12.775000 -0.058090 0
12.780000 -0.057345 0
12.785000 -0.056593 0
12.790000 -0.055816 0
12.795000 -0.055037 0
12.800000 -0.054263 0
12.805000 -0.053492 0
12.810000 -0.052725 0
12.815000 -0.051962 0
12.820000 -0.051203 0
12.825000 -0.050448 0
12.830000 -0.049696 0
12.835000 -0.048948 0
12.840000 -0.048204 0
12.845000 -0.047464 0
12.850000 -0.046727 0
12.855000 -0.045994 0
12.860000 -0.045264 0
12.865000 -0.044539 0
12.870000 -0.043816 0
12.875000 -0.043098 0
12.880000 -0.042383 0
12.885000 -0.041671 0
12.890000 -0.040964 0
12.895000 -0.040259 0
12.900000 -0.039558 0
12.905000 -0.038861 0
12.910000 -0.038167 0
12.915000 -0.037477 0
12.920000 -0.036790 0
12.925000 -0.036106 0
12.930000 -0.035426 0
12.935000 -0.034749 0
12.940000 -0.034076 0
12.945000 -0.033406 0
12.950000 -0.032739 0
12.955000 -0.032075 0
12.960000 -0.031414 0
12.965000 -0.030756 0
12.970000 -0.030099 0
12.975000 -0.029444 0
12.980000 -0.028789 0
12.985000 -0.028132 0
12.990000 -0.027470 0
12.995000 -0.026799 0
13.000000 -0.026113 0
13.005000 -0.025401 0
13.010000 -0.024652 0
13.015000 -0.023846 0
13.020000 -0.022958 0
13.025000 -0.021953 0
13.030000 -0.020788 0
13.035000 -0.019403 0
13.040000 -0.017726 0
13.045000 -0.015664 0
13.050000 -0.013107 0
13.055000 -0.009928 0
13.060000 -0.005976 0
13.065000 -0.001088 0
13.070000 0.004911 0
13.075000 0.012200 0
13.080000 0.020951 0
13.085000 0.031316 0
13.090000 0.043416 0
13.095000 0.057317 0
13.100000 0.073021 0
13.105000 0.090447 0
13.110000 0.109419 0
13.115000 0.129657 0
13.120000 0.150777 0
13.125000 0.172296 0
13.130000 0.193644 0
13.135000 0.214189 0
13.140000 0.233261 0
13.145000 0.250195 0
13.150000 0.264358 0
13.155000 0.275199 0
13.160000 0.282274 0
13.165000 0.285283 1
13.170000 0.284086 0
13.175000 0.278716 0
13.180000 0.269374 0
13.185000 0.256420 0
13.190000 0.240346 0
13.195000 0.221747 0
13.200000 0.201284 0
13.205000 0.179642 0
13.210000 0.157495 0
13.215000 0.135474 0
13.220000 0.114134 0
13.225000 0.093937 0
13.230000 0.075237 0
13.235000 0.058273 0
13.240000 0.043152 0
13.245000 0.029833 0
13.250000 0.018066 0
13.255000 0.007304 0
13.260000 -0.003420 0
13.265000 -0.015581 0
13.270000 -0.031088 0
13.275000 -0.051889 0
13.280000 -0.079168 0
13.285000 -0.112236 0
13.290000 -0.147539 0
13.295000 -0.178267 0
13.300000 -0.194896 2
13.305000 -0.186507 0
13.310000 -0.142360 0
13.315000 -0.053442 0
13.320000 0.085719 0
13.325000 0.274253 0
13.330000 0.501215 0
13.335000 0.742684 0
13.340000 0.962719 0
13.345000 1.120387 0
13.350000 1.181641 3
13.355000 1.129408 0
13.360000 0.972711 0
13.365000 0.743486 0
13.370000 0.484000 0
13.375000 0.233840 0
13.380000 0.021552 0
13.385000 -0.137322 0
13.390000 -0.238108 0
13.395000 -0.284065 0
13.400000 -0.284245 4
13.405000 -0.251751 0
13.410000 -0.201420 0
13.415000 -0.146900 0
13.420000 -0.098095 0
13.425000 -0.060039 0
13.430000 -0.033452 0
13.435000 -0.016356 0
13.440000 -0.005799 0
13.445000 0.000942 0
13.450000 0.005852 0
13.455000 0.010160 0
13.460000 0.014543 0
13.465000 0.019352 0
13.470000 0.024775 0
13.475000 0.030924 0
13.480000 0.037887 0
13.485000 0.045737 0
13.490000 0.054541 0
13.495000 0.064359 0
13.500000 0.075243 0
13.505000 0.087231 0
13.510000 0.100348 0
13.515000 0.114604 0
13.520000 0.129985 0
13.525000 0.146457 0
13.530000 0.163963 0
13.535000 0.182418 0
13.540000 0.201711 0
13.545000 0.221704 0
13.550000 0.242229 0
13.555000 0.263096 0
13.560000 0.284088 0
13.565000 0.304970 0
13.570000 0.325488 0
13.575000 0.345376 0
13.580000 0.364361 0
13.585000 0.382169 0
13.590000 0.398530 0
13.595000 0.413189 0
13.600000 0.425904 0
13.605000 0.436460 0
13.610000 0.444673 0
13.615000 0.450393 0
13.620000 0.453507 0
13.625000 0.453949 5
13.630000 0.451695 0
13.635000 0.446765 0
13.640000 0.439228 0
13.645000 0.429192 0
13.650000 0.416808 0
13.655000 0.402262 0
13.660000 0.385773 0
13.665000 0.367584 0
13.670000 0.347958 0
13.675000 0.327172 0
13.680000 0.305508 0
13.685000 0.283250 0
13.690000 0.260673 0
13.695000 0.238044 0
13.700000 0.215609 0
13.705000 0.193597 0
13.710000 0.172210 0
13.715000 0.151625 0
13.720000 0.131990 0
13.725000 0.113424 0
13.730000 0.096020 0
13.735000 0.079840 0
13.740000 0.064923 0
13.745000 0.051281 0
13.750000 0.038908 0
13.755000 0.027776 0
13.760000 0.017844 0
13.765000 0.009056 0
13.770000 0.001348 0
13.775000 -0.005353 0
13.780000 -0.011124 0
13.785000 -0.016044 0
13.790000 -0.020193 0
13.795000 -0.023651 0
13.800000 -0.026493 0
13.805000 -0.028791 0
13.810000 -0.030613 0
13.815000 -0.032022 0
13.820000 -0.033076 0
13.825000 -0.033826 0
13.830000 -0.034318 0
13.835000 -0.034593 0
13.840000 -0.034688 0
13.845000 -0.034632 0
13.850000 -0.034454 0
13.855000 -0.034176 0
13.860000 -0.033816 0
13.865000 -0.033392 0
13.870000 -0.032916 0
13.875000 -0.032400 0
13.880000 -0.031853 0
13.885000 -0.031282 0
13.890000 -0.030693 0
13.895000 -0.030091 0
13.900000 -0.029479 0
13.905000 -0.028856 0
13.910000 -0.028212 0
13.915000 -0.027571 0
13.920000 -0.026934 0
13.925000 -0.026300 0
13.930000 -0.025668 0
13.935000 -0.025040 0
13.940000 -0.024415 0
13.945000 -0.023794 0
13.950000 -0.023175 0
13.955000 -0.022559 0
13.960000 -0.021947 0
13.965000 -0.021337 0
13.970000 -0.020731 0
13.975000 -0.020127 0
13.980000 -0.019527 0
13.985000 -0.018930 0
13.990000 -0.018335 0
13.995000 -0.017744 0
14.000000 -0.017155 0
14.005000 -0.016570 0
14.010000 -0.015987 0
14.015000 -0.015407 0
14.020000 -0.014830 0
14.025000 -0.014256 0
14.030000 -0.013685 0
14.035000 -0.013117 0
14.040000 -0.012551 0
14.045000 -0.011989 0
14.050000 -0.011429 0
14.055000 -0.010872 0
14.060000 -0.010317 0
14.065000 -0.009765 0
14.070000 -0.009216 0
14.075000 -0.008669 0
14.080000 -0.008123 0
14.085000 -0.007579 0
14.090000 -0.007035 0
14.095000 -0.006489 0
14.100000 -0.005940 0
14.105000 -0.005382 0
14.110000 -0.004812 0
14.115000 -0.004220 0
14.120000 -0.003594 0
14.125000 -0.002917 0
14.130000 -0.002166 0
14.135000 -0.001309 0
14.140000 -0.000301 0
14.145000 0.000914 0
14.150000 0.002408 0
14.155000 0.004273 0
14.160000 0.006618 0
14.165000 0.009577 0
14.170000 0.013299 0
14.175000 0.017956 0
14.180000 0.023730 0
14.185000 0.030807 0
14.190000 0.039370 0
14.195000 0.049580 0
14.200000 0.061564 0
14.205000 0.075393 0
14.210000 0.091069 0
14.215000 0.108503 0
14.220000 0.127505 0
14.225000 0.147773 0
14.230000 0.168895 0
14.235000 0.190350 0
14.240000 0.211533 0
14.245000 0.231770 0
14.250000 0.250360 0
14.255000 0.266607 0
14.260000 0.279868 0
14.265000 0.289591 0
14.270000 0.295352 0
14.275000 0.296887 1
14.280000 0.294110 0
14.285000 0.287120 0
14.290000 0.276193 0
14.295000 0.261765 0
14.300000 0.244402 0
14.305000 0.224763 0
14.310000 0.203558 0
14.315000 0.181502 0
14.320000 0.159282 0
14.325000 0.137517 0
14.330000 0.116736 0
14.335000 0.097357 0
14.340000 0.079676 0
14.345000 0.063858 0
14.350000 0.049915 0
14.355000 0.037662 0
14.360000 0.026625 0
14.365000 0.015920 0
14.370000 0.004131 0
14.375000 -0.010662 0
14.380000 -0.030541 0
14.385000 -0.056950 0
14.390000 -0.089523 0
14.395000 -0.124940 0
14.400000 -0.156397 0
14.405000 -0.174102 2
14.410000 -0.166657 0
14.415000 -0.122793 0
14.420000 -0.033060 0
14.425000 0.108168 0
14.430000 0.299600 0
14.435000 0.528938 0
14.440000 0.769889 0
14.445000 0.983783 0
14.450000 1.127997 0
14.455000 1.169319 3
14.460000 1.096550 0
14.465000 0.924205 0
14.470000 0.686711 0
14.475000 0.426314 0
14.480000 0.180776 0
14.485000 -0.023753 0
14.490000 -0.173778 0
14.495000 -0.266049 0
14.500000 -0.304749 4
14.505000 -0.299522 0
14.510000 -0.263728 0
14.515000 -0.212076 0
14.520000 -0.157726 0
14.525000 -0.109920 0
14.530000 -0.073087 0
14.535000 -0.047551 0
14.540000 -0.031174 0
14.545000 -0.021013 0
14.550000 -0.014429 0
14.555000 -0.009531 0
14.560000 -0.005159 0
14.565000 -0.000675 0
14.570000 0.004250 0
14.575000 0.009794 0
14.580000 0.016067 0
14.585000 0.023152 0
14.590000 0.031124 0
14.595000 0.040047 0
14.600000 0.049981 0
14.605000 0.060976 0
14.610000 0.073070 0
14.615000 0.086288 0
14.620000 0.100637 0
14.625000 0.116104 0
14.630000 0.132657 0
14.635000 0.150236 0
14.640000 0.168759 0
14.645000 0.188115 0
14.650000 0.208167 0
14.655000 0.228751 0
14.660000 0.249678 0
14.665000 0.270734 0
14.670000 0.291687 0
14.675000 0.312285 0
14.680000 0.332267 0
14.685000 0.351361 0
14.690000 0.369297 0
14.695000 0.385808 0
14.700000 0.400638 0
14.705000 0.413548 0
14.710000 0.424325 0
14.715000 0.432782 0
14.720000 0.438769 0
14.725000 0.442171 0
14.730000 0.442918 5
14.735000 0.440983 0
14.740000 0.436382 0
14.745000 0.429176 0
14.750000 0.419471 0
14.755000 0.407411 0
14.760000 0.393176 0
14.765000 0.376978 0
14.770000 0.359056 0
14.775000 0.339668 0
14.780000 0.319087 0
14.785000 0.297592 0
14.790000 0.275463 0
14.795000 0.252976 0
14.800000 0.230394 0
14.805000 0.207967 0
14.810000 0.185924 0
14.815000 0.164468 0
14.820000 0.143781 0
14.825000 0.124014 0
14.830000 0.105291 0
14.835000 0.087707 0
14.840000 0.071331 0
14.845000 0.056205 0
14.850000 0.042348 0
14.855000 0.029756 0
14.860000 0.018407 0
14.865000 0.008261 0
14.870000 -0.000731 0
14.875000 -0.008634 0
14.880000 -0.015517 0
14.885000 -0.021455 0
14.890000 -0.026526 0
14.895000 -0.030811 0
14.900000 -0.034387 0
14.905000 -0.037331 0
14.910000 -0.039714 0
14.915000 -0.041607 0
14.920000 -0.043071 0
14.925000 -0.044166 0
14.930000 -0.044944 0
14.935000 -0.045453 0
14.940000 -0.045734 0
14.945000 -0.045826 0
14.950000 -0.045759 0
14.955000 -0.045563 0
14.960000 -0.045259 0
14.965000 -0.044870 0
14.970000 -0.044412 0
14.975000 -0.043898 0
14.980000 -0.043341 0
14.985000 -0.042750 0
14.990000 -0.042134 0
14.995000 -0.041498 0
15.000000 -0.040847 0
15.005000 -0.040186 0
15.010000 -0.039512 0
15.015000 -0.038815 0
15.020000 -0.038122 0
15.025000 -0.037432 0
15.030000 -0.036745 0
15.035000 -0.036062 0
15.040000 -0.035382 0
15.045000 -0.034705 0
15.050000 -0.034032 0
15.055000 -0.033362 0
15.060000 -0.032696 0
15.065000 -0.032033 0
15.070000 -0.031373 0
15.075000 -0.030716 0
15.080000 -0.030063 0
15.085000 -0.029413 0
15.090000 -0.028767 0
15.095000 -0.028123 0
15.100000 -0.027483 0
15.105000 -0.026846 0
15.110000 -0.026212 0
15.115000 -0.025581 0
15.120000 -0.024953 0
15.125000 -0.024329 0
15.130000 -0.023708 0
15.135000 -0.023089 0
15.140000 -0.022474 0
15.145000 -0.021862 0
15.150000 -0.021253 0
15.155000 -0.020647 0
15.160000 -0.020044 0
15.165000 -0.019444 0
15.170000 -0.018846 0
15.175000 -0.018252 0
15.180000 -0.017660 0
15.185000 -0.017070 0
15.190000 -0.016482 0
15.195000 -0.015895 0
15.200000 -0.015308 0
15.205000 -0.014719 0
15.210000 -0.014124 0
15.215000 -0.013521 0
15.220000 -0.012901 0
15.225000 -0.012255 0
15.230000 -0.011570 0
15.235000 -0.010827 0
15.240000 -0.009998 0
15.245000 -0.009048 0
15.250000 -0.007929 0
15.255000 -0.006580 0
15.260000 -0.004922 0
15.265000 -0.002857 0
15.270000 -0.000270 0
15.275000 0.002977 0
15.280000 0.007042 0
15.285000 0.012097 0
15.290000 0.018326 0
15.295000 0.025914 0
15.300000 0.035034 0
15.305000 0.045838 0
15.310000 0.058436 0
15.315000 0.072878 0
15.320000 0.089140 0
15.325000 0.107105 0
15.330000 0.126551 0
15.335000 0.147148 0
15.340000 0.168455 0
15.345000 0.189931 0
15.350000 0.210955 0
15.355000 0.230848 0
15.360000 0.248915 0
15.365000 0.264476 0
15.370000 0.276914 0
15.375000 0.285712 0
15.380000 0.290488 0
15.385000 0.291021 1
15.390000 0.287271 0
15.395000 0.279377 0
15.400000 0.267651 0
15.405000 0.252558 0
15.410000 0.234680 0
15.415000 0.214684 0
15.420000 0.193277 0
15.425000 0.171165 0
15.430000 0.149017 0
15.435000 0.127430 0
15.440000 0.106909 0
15.445000 0.087845 0
15.450000 0.070509 0
15.455000 0.055041 0
15.460000 0.041424 0
15.465000 0.029434 0
15.470000 0.018550 0
15.475000 0.007821 0
15.480000 -0.004235 0
15.485000 -0.019572 0
15.490000 -0.040222 0
15.495000 -0.067452 0
15.500000 -0.100584 0
15.505000 -0.135924 0
15.510000 -0.166345 0
15.515000 -0.181897 2
15.520000 -0.171228 0
15.525000 -0.123288 0
15.530000 -0.028989 0
15.535000 0.116764 0
15.540000 0.311927 0
15.545000 0.543278 0
15.550000 0.783728 0
15.555000 0.994357 0
15.560000 1.133140 0
15.565000 1.168191 3
15.570000 1.089636 0
15.575000 0.913093 0
15.580000 0.673542 0
15.585000 0.413074 0
15.590000 0.168854 0
15.595000 -0.033645 0
15.600000 -0.181466 0
15.605000 -0.271704 0
15.610000 -0.308747 4
15.615000 -0.302344 0
15.620000 -0.265878 0
15.625000 -0.213982 0
15.630000 -0.159680 0
15.635000 -0.112062 0
15.640000 -0.075434 0
15.645000 -0.050057 0
15.650000 -0.033774 0
15.655000 -0.023655 0
15.660000 -0.017081 0
15.665000 -0.012177 0
15.670000 -0.007792 0
15.675000 -0.003294 0
15.680000 0.001644 0
15.685000 0.007198 0
15.690000 0.013480 0
15.695000 0.020572 0
15.700000 0.028547 0
15.705000 0.037470 0
15.710000 0.047401 0
15.715000 0.058389 0
15.720000 0.070474 0
15.725000 0.083678 0
15.730000 0.098011 0
15.735000 0.113460 0
15.740000 0.129992 0
15.745000 0.147551 0
15.750000 0.166054 0
15.755000 0.185392 0
15.760000 0.205430 0
15.765000 0.226005 0
15.770000 0.246931 0
15.775000 0.267995 0
15.780000 0.288967 0
15.785000 0.309598 0
15.790000 0.329627 0
15.795000 0.348785 0
15.800000 0.366803 0
15.805000 0.383414 0
15.810000 0.398364 0
15.815000 0.411413 0
15.820000 0.422347 0
15.825000 0.430978 0
15.830000 0.437153 0
15.835000 0.440758 0
15.840000 0.441717 5
15.845000 0.440001 0
15.850000 0.435622 0
15.855000 0.428639 0
15.860000 0.419152 0
15.865000 0.407301 0
15.870000 0.393262 0
15.875000 0.377246 0
15.880000 0.359486 0
15.885000 0.340238 0
15.890000 0.319772 0
15.895000 0.298365 0
15.900000 0.276298 0
15.905000 0.253844 0
15.910000 0.231269 0
15.915000 0.208821 0
15.920000 0.186730 0
15.925000 0.165204 0
15.930000 0.144425 0
15.935000 0.124547 0
15.940000 0.105697 0
15.945000 0.087973 0
15.950000 0.071448 0
15.955000 0.056165 0
15.960000 0.042147 0
15.965000 0.029392 0
15.970000 0.017882 0
15.975000 0.007579 0
15.980000 -0.001565 0
15.985000 -0.009613 0
15.990000 -0.016633 0
15.995000 -0.022698 0
16.000000 -0.027888 0
16.005000 -0.032280 0
16.010000 -0.035952 0
16.015000 -0.038982 0
16.020000 -0.041442 0
16.025000 -0.043401 0
16.030000 -0.044922 0
16.035000 -0.046066 0
16.040000 -0.046885 0
16.045000 -0.047427 0
16.050000 -0.047736 0
16.055000 -0.047849 0
16.060000 -0.047799 0
16.065000 -0.047615 0
16.070000 -0.047320 0
16.075000 -0.046936 0
16.080000 -0.046480 0
16.085000 -0.045966 0
16.090000 -0.045407 0
16.095000 -0.044812 0
16.100000 -0.044191 0
16.105000 -0.043548 0
16.110000 -0.042891 0
16.115000 -0.042222 0
16.120000 -0.041545 0
16.125000 -0.040843 0
16.130000 -0.040139 0
16.135000 -0.039439 0
16.140000 -0.038742 0
16.145000 -0.038049 0
16.150000 -0.037359 0
16.155000 -0.036673 0
16.160000 -0.035990 0
16.165000 -0.035310 0
16.170000 -0.034634 0
16.175000 -0.033961 0
16.180000 -0.033292 0
16.185000 -0.032626 0
16.190000 -0.031963 0
16.195000 -0.031304 0
16.200000 -0.030648 0
16.205000 -0.029995 0
16.210000 -0.029345 0
16.215000 -0.028699 0
16.220000 -0.028055 0
16.225000 -0.027416 0
16.230000 -0.026779 0
16.235000 -0.026145 0
16.240000 -0.025515 0
16.245000 -0.024887 0
16.250000 -0.024263 0
16.255000 -0.023642 0
16.260000 -0.023024 0
16.265000 -0.022409 0
16.270000 -0.021798 0
16.275000 -0.021189 0
16.280000 -0.020583 0
16.285000 -0.019980 0
16.290000 -0.019379 0
16.295000 -0.018781 0
16.300000 -0.018185 0
16.305000 -0.017590 0
16.310000 -0.016996 0
16.315000 -0.016400 0
16.320000 -0.015800 0
16.325000 -0.015192 0
16.330000 -0.014571 0
16.335000 -0.013927 0
16.340000 -0.013249 0
16.345000 -0.012520 0
16.350000 -0.011715 0
16.355000 -0.010801 0
16.360000 -0.009737 0
16.365000 -0.008464 0
16.370000 -0.006911 0
16.375000 -0.004987 0
16.380000 -0.002583 0
16.385000 0.000431 0
16.390000 0.004206 0
16.395000 0.008908 0
16.400000 0.014717 0
16.405000 0.021817 0
16.410000 0.030389 0
16.415000 0.040590 0
16.420000 0.052548 0
16.425000 0.066335 0
16.430000 0.081956 0
16.435000 0.099330 0
16.440000 0.118273 0
16.445000 0.138499 0
16.450000 0.159606 0
16.455000 0.181093 0
16.460000 0.202367 0
16.465000 0.222771 0
16.470000 0.241616 0
16.475000 0.258213 0
16.480000 0.271920 0
16.485000 0.282181 0
16.490000 0.288558 0
16.495000 0.290768 1
16.500000 0.288699 0
16.505000 0.282419 0
16.510000 0.272174 0
16.515000 0.258368 0
16.520000 0.241539 0
16.525000 0.222321 0
16.530000 0.201406 0
16.535000 0.179504 0
16.540000 0.157298 0
16.545000 0.135415 0
16.550000 0.114400 0
16.555000 0.094688 0
16.560000 0.076603 0
16.565000 0.060340 0
16.570000 0.045951 0
16.575000 0.033312 0
16.580000 0.022045 0
16.585000 0.011404 0
16.590000 0.000150 0
16.595000 -0.013480 0
16.600000 -0.031553 0
16.605000 -0.055796 0
16.610000 -0.086547 0
16.615000 -0.121569 0
16.620000 -0.155291 0
16.625000 -0.178939 0
16.630000 -0.181640 2
16.635000 -0.152053 0
16.640000 -0.080027 0
16.645000 0.041648 0
16.650000 0.214699 0
16.655000 0.431636 0
16.660000 0.672066 0
16.665000 0.902115 0
16.670000 1.079939 0
16.675000 1.167292 3
16.680000 1.142225 0
16.685000 1.008153 0
16.690000 0.792581 0
16.695000 0.536494 0
16.700000 0.281043 0
16.705000 0.057771 0
16.710000 -0.114777 0
16.715000 -0.229596 0
16.720000 -0.288244 0
16.725000 -0.298501 4
16.730000 -0.272637 0
16.735000 -0.225293 0
16.740000 -0.170657 0
16.745000 -0.119714 0
16.750000 -0.078706 0
16.755000 -0.049302 0
16.760000 -0.030031 0
16.765000 -0.018050 0
16.770000 -0.010511 0
16.775000 -0.005229 0
16.780000 -0.000800 0
16.785000 0.003570 0
16.790000 0.008296 0
16.795000 0.013595 0
16.800000 0.019596 0
16.805000 0.026387 0
16.810000 0.034046 0
16.815000 0.042641 0
16.820000 0.052234 0
16.825000 0.062879 0
16.830000 0.074617 0
16.835000 0.087479 0
16.840000 0.101476 0
16.845000 0.116603 0
16.850000 0.132832 0
16.855000 0.150111 0
16.860000 0.168364 0
16.865000 0.187486 0
16.870000 0.207347 0
16.875000 0.227788 0
16.880000 0.248625 0
16.885000 0.269649 0
16.890000 0.290629 0
16.895000 0.311317 0
16.900000 0.331450 0
16.905000 0.350758 0
16.910000 0.368966 0
16.915000 0.385803 0
16.920000 0.401010 0
16.925000 0.414340 0
16.930000 0.425573 0
16.935000 0.434513 0
16.940000 0.441000 0
16.945000 0.444913 0
16.950000 0.446171 5
16.955000 0.444737 0
16.960000 0.440619 0
16.965000 0.433872 0
16.970000 0.424592 0
16.975000 0.412918 0
16.980000 0.399026 0
16.985000 0.383125 0
16.990000 0.365452 0
16.995000 0.346263 0
17.000000 0.325832 0
17.005000 0.304439 0
17.010000 0.282368 0
17.015000 0.259897 0
17.020000 0.237294 0
17.025000 0.214814 0
17.030000 0.192688 0
17.035000 0.171128 0
17.040000 0.150318 0
17.045000 0.130415 0
17.050000 0.111546 0
17.055000 0.093813 0
17.060000 0.077286 0
17.065000 0.062010 0
17.070000 0.048007 0
17.075000 0.035276 0
17.080000 0.023796 0
17.085000 0.013528 0
17.090000 0.004422 0
17.095000 -0.003584 0
17.100000 -0.010560 0
17.105000 -0.016583 0
17.110000 -0.021730 0
17.115000 -0.026082 0
17.120000 -0.029718 0
17.125000 -0.032715 0
17.130000 -0.035146 0
17.135000 -0.037080 0
17.140000 -0.038583 0
17.145000 -0.039712 0
17.150000 -0.040521 0
17.155000 -0.041058 0
17.160000 -0.041366 0
17.165000 -0.041483 0
17.170000 -0.041440 0
17.175000 -0.041266 0
17.180000 -0.040985 0
17.185000 -0.040617 0
17.190000 -0.040180 0
17.195000 -0.039687 0
17.200000 -0.039151 0
17.205000 -0.038580 0
17.210000 -0.037984 0
17.215000 -0.037368 0
17.220000 -0.036737 0
17.225000 -0.036096 0
17.230000 -0.035443 0
17.235000 -0.034766 0
17.240000 -0.034093 0
17.245000 -0.033423 0
17.250000 -0.032756 0
17.255000 -0.032093 0
17.260000 -0.031433 0
17.265000 -0.030776 0
17.270000 -0.030122 0
17.275000 -0.029472 0
17.280000 -0.028825 0
17.285000 -0.028181 0
17.290000 -0.027541 0
17.295000 -0.026903 0
17.300000 -0.026269 0
17.305000 -0.025638 0
17.310000 -0.025010 0
17.315000 -0.024385 0
17.320000 -0.023764 0
17.325000 -0.023145 0
17.330000 -0.022530 0
17.335000 -0.021917 0
17.340000 -0.021308 0
17.345000 -0.020702 0
17.350000 -0.020098 0
17.355000 -0.019498 0
17.360000 -0.018901 0
17.365000 -0.018307 0
17.370000 -0.017715 0
17.375000 -0.017127 0
17.380000 -0.016541 0
17.385000 -0.015959 0
17.390000 -0.015379 0
17.395000 -0.014801 0
17.400000 -0.014226 0
17.405000 -0.013654 0
17.410000 -0.013082 0
17.415000 -0.012512 0
17.420000 -0.011941 0
17.425000 -0.011367 0
17.430000 -0.010787 0
17.435000 -0.010197 0
17.440000 -0.009588 0
17.445000 -0.008952 0
17.450000 -0.008272 0
17.455000 -0.007527 0
17.460000 -0.006690 0
17.465000 -0.005721 0
17.470000 -0.004570 0
17.475000 -0.003169 0
17.480000 -0.001437 0
17.485000 0.000730 0
17.490000 0.003454 0
17.495000 0.006881 0
17.500000 0.011172 0
17.505000 0.016505 0
17.510000 0.023066 0
17.515000 0.031041 0
17.520000 0.040600 0
17.525000 0.051886 0
17.530000 0.064994 0
17.535000 0.079956 0
17.540000 0.096722 0
17.545000 0.115143 0
17.550000 0.134965 0
17.555000 0.155819 0
17.560000 0.177230 0
17.565000 0.198624 0
17.570000 0.219353 0
17.575000 0.238724 0
17.580000 0.256036 0
17.585000 0.270620 0
17.590000 0.281882 0
17.595000 0.289343 0
17.600000 0.292671 1
17.605000 0.291705 0
17.610000 0.286465 0
17.615000 0.277156 0
17.620000 0.264150 0
17.625000 0.247962 0
17.630000 0.229216 0
17.635000 0.208602 0
17.640000 0.186839 0
17.645000 0.164629 0
17.650000 0.142621 0
17.655000 0.121384 0
17.660000 0.101385 0
17.665000 0.082971 0
17.670000 0.066365 0
17.675000 0.051647 0
17.680000 0.038726 0
17.685000 0.027267 0
17.690000 0.016579 0
17.695000 0.005489 0
17.700000 -0.007722 0
17.705000 -0.025131 0
17.710000 -0.048584 0
17.715000 -0.078659 0
17.720000 -0.113442 0
17.725000 -0.147670 0
17.730000 -0.172748 0
17.735000 -0.177798 2
17.740000 -0.151304 0
17.745000 -0.082821 0
17.750000 0.035254 0
17.755000 0.205164 0
17.760000 0.420023 0
17.765000 0.659967 0
17.770000 0.891288 0
17.775000 1.071751 0
17.780000 1.162248 3
17.785000 1.141959 0
17.790000 1.014014 0
17.795000 0.803672 0
17.800000 0.549754 0
17.805000 0.292305 0
17.810000 0.063044 0
17.815000 -0.118467 0
17.820000 -0.243900 0
17.825000 -0.313450 0
17.830000 -0.333509 4
17.835000 -0.315040 0
17.840000 -0.271779 0
17.845000 -0.217752 0
17.850000 -0.164611 0
17.855000 -0.119803 0
17.860000 -0.086257 0
17.865000 -0.063404 0
17.870000 -0.048813 0
17.875000 -0.039632 0
17.880000 -0.033465 0
17.885000 -0.028652 0
17.890000 -0.024197 0
17.895000 -0.019555 0
17.900000 -0.014443 0
17.905000 -0.008704 0
17.910000 -0.002237 0
17.915000 0.005037 0
17.920000 0.013189 0
17.925000 0.022280 0
17.930000 0.032369 0
17.935000 0.043502 0
17.940000 0.055715 0
17.945000 0.069033 0
17.950000 0.083462 0
17.955000 0.098989 0
17.960000 0.115584 0
17.965000 0.133190 0
17.970000 0.151728 0
17.975000 0.171093 0
17.980000 0.191155 0
17.985000 0.211757 0
17.990000 0.232720 0
17.995000 0.253840 0
18.000000 0.274894 0
18.005000 0.295643 0
18.010000 0.315834 0
18.015000 0.335206 0
18.020000 0.353498 0
18.025000 0.370450 0
18.030000 0.385810 0
18.035000 0.399344 0
18.040000 0.410837 0
18.045000 0.420101 0
18.050000 0.426978 0
18.055000 0.431346 0
18.060000 0.433122 5
18.065000 0.432264 0
18.070000 0.428772 0
18.075000 0.422689 0
18.080000 0.414100 0
18.085000 0.403126 0
18.090000 0.389929 0
18.095000 0.374700 0
18.100000 0.357659 0
18.105000 0.339046 0
18.110000 0.319120 0
18.115000 0.298147 0
18.120000 0.276399 0
18.125000 0.254146 0
18.130000 0.231650 0
18.135000 0.209163 0
18.140000 0.186916 0
18.145000 0.165124 0
18.150000 0.143976 0
18.155000 0.123637 0
18.160000 0.104246 0
18.165000 0.085913 0
18.170000 0.068724 0
18.175000 0.052737 0
18.180000 0.037987 0
18.185000 0.024487 0
18.190000 0.012229 0
18.195000 0.001187 0
18.200000 -0.008678 0
18.205000 -0.017418 0
18.210000 -0.025096 0
18.215000 -0.031781 0
18.220000 -0.037544 0
18.225000 -0.042463 0
18.230000 -0.046615 0
18.235000 -0.050075 0
18.240000 -0.052916 0
18.245000 -0.055209 0
18.250000 -0.057020 0
18.255000 -0.058410 0
18.260000 -0.059437 0
18.265000 -0.060150 0
18.270000 -0.060597 0
18.275000 -0.060819 0
18.280000 -0.060850 0
18.285000 -0.060724 0
18.290000 -0.060468 0
18.295000 -0.060104 0
18.300000 -0.059653 0
18.305000 -0.059132 0
18.310000 -0.058555 0
18.315000 -0.057934 0
18.320000 -0.057278 0
18.325000 -0.056595 0
18.330000 -0.055892 0
18.335000 -0.055173 0
18.340000 -0.054444 0
18.345000 -0.053708 0
18.350000 -0.052945 0
18.355000 -0.052181 0
18.360000 -0.051420 0
18.365000 -0.050664 0
18.370000 -0.049911 0
18.375000 -0.049162 0
18.380000 -0.048417 0
18.385000 -0.047675 0
18.390000 -0.046938 0
18.395000 -0.046203 0
18.400000 -0.045473 0
18.405000 -0.044746 0
18.410000 -0.044023 0
18.415000 -0.043303 0
18.420000 -0.042587 0
18.425000 -0.041875 0
18.430000 -0.041166 0
18.435000 -0.040461 0
18.440000 -0.039759 0
18.445000 -0.039061 0
18.450000 -0.038366 0
18.455000 -0.037674 0
18.460000 -0.036986 0
18.465000 -0.036302 0
18.470000 -0.035621 0
18.475000 -0.034943 0
18.480000 -0.034269 0
18.485000 -0.033598 0
18.490000 -0.032930 0
18.495000 -0.032266 0
18.500000 -0.031605 0
18.505000 -0.030947 0
18.510000 -0.030292 0
18.515000 -0.029641 0
18.520000 -0.028992 0
18.525000 -0.028346 0
18.530000 -0.027701 0
18.535000 -0.027058 0
18.540000 -0.026415 0
18.545000 -0.025770 0
18.550000 -0.025120 0
18.555000 -0.024462 0
18.560000 -0.023788 0
18.565000 -0.023089 0
18.570000 -0.022352 0
18.575000 -0.021559 0
18.580000 -0.020685 0
18.585000 -0.019695 0
18.590000 -0.018545 0
18.595000 -0.017176 0
18.600000 -0.015516 0
18.605000 -0.013472 0
18.610000 -0.010935 0
18.615000 -0.007775 0
18.620000 -0.003844 0
18.625000 0.001022 0
18.630000 0.007000 0
18.635000 0.014268 0
18.640000 0.023000 0
18.645000 0.033348 0
18.650000 0.045432 0
18.655000 0.059321 0
18.660000 0.075016 0
18.665000 0.092436 0
18.670000 0.111402 0
18.675000 0.131636 0
18.680000 0.152751 0
18.685000 0.174262 0
18.690000 0.195597 0
18.695000 0.216120 0
18.700000 0.235162 0
18.705000 0.252053 0
18.710000 0.266161 0
18.715000 0.276934 0
18.720000 0.283929 0
18.725000 0.286848 1
18.730000 0.285554 0
18.735000 0.280082 0
18.740000 0.270640 0
18.745000 0.257591 0
18.750000 0.241432 0
18.755000 0.222763 0
18.760000 0.202246 0
18.765000 0.180569 0
18.770000 0.158409 0
18.775000 0.136394 0
18.780000 0.115080 0
18.785000 0.094925 0
18.790000 0.076281 0
18.795000 0.059381 0
18.800000 0.044331 0
18.805000 0.031077 0
18.810000 0.019361 0
18.815000 0.008617 0
18.820000 -0.002148 0
18.825000 -0.014437 0
18.830000 -0.030180 0
18.835000 -0.051314 0
18.840000 -0.078955 0
18.845000 -0.112281 0
18.850000 -0.147545 0
18.855000 -0.177737 0
18.860000 -0.193184 2
18.865000 -0.182896 0
18.870000 -0.136168 0
18.875000 -0.044120 0
18.880000 0.098419 0
18.885000 0.290027 0
18.890000 0.518912 0
18.895000 0.760150 0
18.900000 0.977039 0
18.905000 1.128590 0
18.910000 1.181677 3
18.915000 1.119904 0
18.920000 0.954280 0
18.925000 0.719375 0
18.930000 0.459045 0
18.935000 0.212937 0
18.940000 0.008515 0
18.945000 -0.140205 0
18.950000 -0.230044 0
18.955000 -0.265651 4
18.960000 -0.257381 0
18.965000 -0.219374 0
18.970000 -0.166907 0
18.975000 -0.113266 0
18.980000 -0.067338 0
18.985000 -0.032921 0
18.990000 -0.009727 0
18.995000 0.004773 0
19.000000 0.013641 0
19.005000 0.019447 0
19.010000 0.023937 0
19.015000 0.028135 0
19.020000 0.032583 0
19.025000 0.037557 0
19.030000 0.043210 0
19.035000 0.049644 0
19.040000 0.056941 0
19.045000 0.065173 0
19.050000 0.074406 0
19.055000 0.084699 0
19.060000 0.096097 0
19.065000 0.108634 0
19.070000 0.122327 0
19.075000 0.137171 0
19.080000 0.153143 0
19.085000 0.170193 0
19.090000 0.188243 0
19.095000 0.207191 0
19.100000 0.226902 0
19.105000 0.247215 0
19.110000 0.267942 0
19.115000 0.288866 0
19.120000 0.309750 0
19.125000 0.330337 0
19.130000 0.350356 0
19.135000 0.369526 0
19.140000 0.387564 0
19.145000 0.404191 0
19.150000 0.419138 0
19.155000 0.432155 0
19.160000 0.443014 0
19.165000 0.451520 0
19.170000 0.457511 0
19.175000 0.460868 0
19.180000 0.461517 5
19.185000 0.459427 0
19.190000 0.454618 0
19.195000 0.447156 0
19.200000 0.437151 0
19.205000 0.424757 0
19.210000 0.410167 0
19.215000 0.393604 0
19.220000 0.375320 0
19.225000 0.355587 0
19.230000 0.334691 0
19.235000 0.312923 0
19.240000 0.290575 0
19.245000 0.267931 0
19.250000 0.245263 0
19.255000 0.222824 0
19.260000 0.200844 0
19.265000 0.179530 0
19.270000 0.159058 0
19.275000 0.139576 0
19.280000 0.121202 0
19.285000 0.104022 0
19.290000 0.088097 0
19.295000 0.073458 0
19.300000 0.060114 0
19.305000 0.048052 0
19.310000 0.037238 0
19.315000 0.027626 0
19.320000 0.019154 0
19.325000 0.011753 0
19.330000 0.005346 0
19.335000 -0.000148 0
19.340000 -0.004810 0
19.345000 -0.008722 0
19.350000 -0.011966 0
19.355000 -0.014617 0
19.360000 -0.016749 0
19.365000 -0.018428 0
19.370000 -0.019717 0
19.375000 -0.020672 0
19.380000 -0.021343 0
19.385000 -0.021776 0
19.390000 -0.022009 0
19.395000 -0.022076 0
19.400000 -0.022008 0
19.405000 -0.021828 0
19.410000 -0.021559 0
19.415000 -0.021219 0
19.420000 -0.020821 0
19.425000 -0.020378 0
19.430000 -0.019901 0
19.435000 -0.019396 0
19.440000 -0.018872 0
19.445000 -0.018332 0
19.450000 -0.017782 0
19.455000 -0.017219 0
19.460000 -0.016634 0
19.465000 -0.016051 0
19.470000 -0.015471 0
19.475000 -0.014893 0
19.480000 -0.014319 0
19.485000 -0.013748 0
19.490000 -0.013179 0
19.495000 -0.012613 0
19.500000 -0.012050 0
19.505000 -0.011490 0
19.510000 -0.010933 0
19.515000 -0.010378 0
19.520000 -0.009826 0
19.525000 -0.009277 0
19.530000 -0.008731 0
19.535000 -0.008188 0
19.540000 -0.007647 0
19.545000 -0.007109 0
19.550000 -0.006573 0
19.555000 -0.006040 0
19.560000 -0.005510 0
19.565000 -0.004983 0
19.570000 -0.004458 0
19.575000 -0.003935 0
19.580000 -0.003416 0
19.585000 -0.002899 0
19.590000 -0.002384 0
19.595000 -0.001872 0
19.600000 -0.001363 0
19.605000 -0.000856 0
19.610000 -0.000351 0
19.615000 0.000151 0
19.620000 0.000651 0
19.625000 0.001149 0
19.630000 0.001646 0
19.635000 0.002142 0
19.640000 0.002639 0
19.645000 0.003139 0
19.650000 0.003644 0
19.655000 0.004158 0
19.660000 0.004690 0
19.665000 0.005248 0
19.670000 0.005848 0
19.675000 0.006509 0
19.680000 0.007260 0
19.685000 0.008139 0
19.690000 0.009197 0
19.695000 0.010500 0
19.700000 0.012134 0
19.705000 0.014201 0
19.710000 0.016828 0
19.715000 0.020164 0
19.720000 0.024374 0
19.725000 0.029644 0
19.730000 0.036165 0
19.735000 0.044128 0
19.740000 0.053710 0
19.745000 0.065056 0
19.750000 0.078260 0
19.755000 0.093350 0
19.760000 0.110262 0
19.765000 0.128833 0
19.770000 0.148782 0
19.775000 0.169713 0
19.780000 0.191116 0
19.785000 0.212382 0
19.790000 0.232829 0
19.795000 0.251737 0
19.800000 0.268384 0
19.805000 0.282094 0
19.810000 0.292283 0
19.815000 0.298494 0
19.820000 0.300434 1
19.825000 0.297996 0
19.830000 0.291265 0
19.835000 0.280514 0
19.840000 0.266185 0
19.845000 0.248856 0
19.850000 0.229207 0
19.855000 0.207966 0
19.860000 0.185874 0
19.865000 0.163635 0
19.870000 0.141886 0
19.875000 0.121166 0
19.880000 0.101896 0
19.885000 0.084371 0
19.890000 0.068747 0
19.895000 0.055013 0
19.900000 0.042946 0
19.905000 0.032002 0
19.910000 0.021183 0
19.915000 0.008926 0
19.920000 -0.006822 0
19.925000 -0.028151 0
19.930000 -0.056235 0
19.935000 -0.090041 0
19.940000 -0.125227 0
19.945000 -0.153833 0
19.950000 -0.165108 2
19.955000 -0.147154 0
19.960000 -0.088764 0
19.965000 0.018745 0
19.970000 0.179083 0
19.975000 0.387221 0
19.980000 0.625116 0
19.985000 0.859985 0
19.990000 1.048851 0
19.995000 1.150193 3
20.000000 1.141589 0
20.005000 1.024194 0
20.010000 0.821067 0
20.015000 0.569963 0
20.020000 0.311147 0
20.025000 0.077414 0
20.030000 -0.110354 0
20.035000 -0.242683 0
20.040000 -0.318877 0
20.045000 -0.344629 4
20.050000 -0.330355 0
20.055000 -0.289486 0
20.060000 -0.236097 0
20.065000 -0.182231 0
20.070000 -0.135928 0
20.075000 -0.100691 0
20.080000 -0.076357 0
20.085000 -0.060674 0
20.090000 -0.050798 0
20.095000 -0.044246 0
20.100000 -0.039252 0
20.105000 -0.034736 0
20.110000 -0.030100 0
20.115000 -0.025029 0
20.120000 -0.019355 0
20.125000 -0.012969 0
20.130000 -0.005791 0
20.135000 0.002250 0
20.140000 0.011217 0
20.145000 0.021169 0
20.150000 0.032154 0
20.155000 0.044211 0
20.160000 0.057365 0
20.165000 0.071627 0
20.170000 0.086989 0
20.175000 0.103422 0
20.180000 0.120876 0
20.185000 0.139278 0
20.190000 0.158527 0
20.195000 0.178499 0
20.200000 0.199044 0
20.205000 0.219988 0
20.210000 0.241134 0
20.215000 0.262263 0
20.220000 0.283140 0
20.225000 0.303517 0
20.230000 0.323136 0
20.235000 0.341736 0
20.240000 0.359057 0
20.245000 0.374849 0
20.250000 0.388872 0
20.255000 0.400907 0
20.260000 0.410761 0
20.265000 0.418269 0
20.270000 0.423302 0
20.275000 0.425765 5
20.280000 0.425609 0
20.285000 0.422821 0
20.290000 0.417434 0
20.295000 0.409521 0
20.300000 0.399194 0
20.305000 0.386605 0
20.310000 0.371935 0
20.315000 0.355397 0
20.320000 0.337224 0
20.325000 0.317669 0
20.330000 0.296996 0
20.335000 0.275474 0
20.340000 0.253373 0
20.345000 0.230956 0
20.350000 0.208477 0
20.355000 0.186173 0
20.360000 0.164263 0
20.365000 0.142941 0
20.370000 0.122380 0
20.375000 0.102726 0
20.380000 0.084096 0
20.385000 0.066584 0
20.390000 0.050256 0
20.395000 0.035153 0
20.400000 0.021295 0
20.405000 0.008679 0
20.410000 -0.002713 0
20.415000 -0.012917 0
20.420000 -0.021982 0
20.425000 -0.029966 0
20.430000 -0.036935 0
20.435000 -0.042962 0
20.440000 -0.048121 0
20.445000 -0.052489 0
20.450000 -0.056141 0
20.455000 -0.059152 0
20.460000 -0.061592 0
20.465000 -0.063529 0
20.470000 -0.065026 0
20.475000 -0.066141 0
20.480000 -0.066926 0
20.485000 -0.067429 0
20.490000 -0.067693 0
20.495000 -0.067756 0
20.500000 -0.067651 0
20.505000 -0.067405 0
20.510000 -0.067045 0
20.515000 -0.066591 0
20.520000 -0.066061 0
20.525000 -0.065471 0
20.530000 -0.064832 0
20.535000 -0.064155 0
20.540000 -0.063448 0
20.545000 -0.062720 0
20.550000 -0.061974 0
20.555000 -0.061217 0
20.560000 -0.060450 0
20.565000 -0.059674 0
20.570000 -0.058876 0
20.575000 -0.058083 0
20.580000 -0.057293 0
20.585000 -0.056507 0
20.590000 -0.055725 0
20.595000 -0.054947 0
20.600000 -0.054173 0
20.605000 -0.053403 0
20.610000 -0.052637 0
20.615000 -0.051874 0
20.620000 -0.051115 0
20.625000 -0.050360 0
20.630000 -0.049609 0
20.635000 -0.048862 0
20.640000 -0.048118 0
20.645000 -0.047378 0
20.650000 -0.046642 0
20.655000 -0.045909 0
20.660000 -0.045180 0
20.665000 -0.044455 0
20.670000 -0.043733 0
20.675000 -0.043015 0
20.680000 -0.042300 0
20.685000 -0.041589 0
20.690000 -0.040882 0
20.695000 -0.040178 0
20.700000 -0.039477 0
20.705000 -0.038780 0
20.710000 -0.038087 0
20.715000 -0.037397 0
20.720000 -0.036710 0
20.725000 -0.036027 0
20.730000 -0.035347 0
20.735000 -0.034670 0
20.740000 -0.033995 0
20.745000 -0.033324 0
20.750000 -0.032654 0
20.755000 -0.031984 0
20.760000 -0.031315 0
20.765000 -0.030642 0
20.770000 -0.029962 0
20.775000 -0.029271 0
20.780000 -0.028561 0
20.785000 -0.027821 0
20.790000 -0.027034 0
20.795000 -0.026181 0
20.800000 -0.025233 0
20.805000 -0.024149 0
20.810000 -0.022881 0
20.815000 -0.021362 0
20.820000 -0.019513 0
20.825000 -0.017234 0
20.830000 -0.014407 0
20.835000 -0.010894 0
20.840000 -0.006539 0
20.845000 -0.001174 0
20.850000 0.005379 0
20.855000 0.013296 0
20.860000 0.022744 0
20.865000 0.033860 0
20.870000 0.046745 0
20.875000 0.061439 0
20.880000 0.077910 0
20.885000 0.096038 0
20.890000 0.115603 0
20.895000 0.136281 0
20.900000 0.157646 0
20.905000 0.179178 0
20.910000 0.200277 0
20.915000 0.220295 0
20.920000 0.238559 0
20.925000 0.254416 0
20.930000 0.267263 0
20.935000 0.276591 0
20.940000 0.282015 0
20.945000 0.283298 1
20.950000 0.280373 0
20.955000 0.273343 0
20.960000 0.262475 0
20.965000 0.248187 0
20.970000 0.231016 0
20.975000 0.211586 0
20.980000 0.190571 0
20.985000 0.168655 0
20.990000 0.146497 0
20.995000 0.124699 0
21.000000 0.103778 0
21.005000 0.084155 0
21.010000 0.066137 0
21.015000 0.049911 0
21.020000 0.035531 0
21.025000 0.022881 0
21.030000 0.011607 0
21.035000 0.001013 0
21.040000 -0.010060 0
21.045000 -0.023275 0
21.050000 -0.040623 0
21.055000 -0.063867 0
21.060000 -0.093599 0
21.065000 -0.128120 0
21.070000 -0.162627 0
21.075000 -0.189169 0
21.080000 -0.197526 2
21.085000 -0.176689 0
21.090000 -0.116417 0
21.095000 -0.008808 0
21.100000 0.149591 0
21.105000 0.354566 0
21.110000 0.590521 0
21.115000 0.828666 0
21.120000 1.030128 0
21.125000 1.155108 0
21.130000 1.175414 3
21.135000 1.081453 0
21.140000 0.891421 0
21.145000 0.644417 0
21.150000 0.384655 0
21.155000 0.148949 0
21.160000 -0.039242 0
21.165000 -0.169500 0
21.170000 -0.241371 0
21.175000 -0.261559 4
21.180000 -0.241969 0
21.185000 -0.197569 0
21.190000 -0.143444 0
21.195000 -0.091705 0
21.200000 -0.049560 0
21.205000 -0.019250 0
21.210000 0.000521 0
21.215000 0.012657 0
21.220000 0.020148 0
21.225000 0.025294 0
21.230000 0.029568 0
21.235000 0.033794 0
21.240000 0.038397 0
21.245000 0.043596 0
21.250000 0.049521 0
21.255000 0.056263 0
21.260000 0.063901 0
21.265000 0.072507 0
21.270000 0.082143 0
21.275000 0.092863 0
21.280000 0.104709 0
21.285000 0.117709 0
21.290000 0.131871 0
21.295000 0.147182 0
21.300000 0.163608 0
21.305000 0.181087 0
21.310000 0.199529 0
21.315000 0.218817 0
21.320000 0.238805 0
21.325000 0.259315 0
21.330000 0.280146 0
21.335000 0.301070 0
21.340000 0.321837 0
21.345000 0.342180 0
21.350000 0.361821 0
21.355000 0.380476 0
21.360000 0.397858 0
21.365000 0.413692 0
21.370000 0.427714 0
21.375000 0.439681 0
21.380000 0.449380 0
21.385000 0.456629 0
21.390000 0.461288 0
21.395000 0.463258 5
21.400000 0.462486 0
21.405000 0.458967 0
21.410000 0.452747 0
21.415000 0.443915 0
21.420000 0.432606 0
21.425000 0.418996 0
21.430000 0.403297 0
21.435000 0.385752 0
21.440000 0.366626 0
21.445000 0.346202 0
21.450000 0.324771 0
21.455000 0.302630 0
21.460000 0.280068 0
21.465000 0.257366 0
21.470000 0.234788 0
21.475000 0.212576 0
21.480000 0.190949 0
21.485000 0.170098 0
21.490000 0.150184 0
21.495000 0.131338 0
21.500000 0.113660 0
21.505000 0.097221 0
21.510000 0.082064 0
21.515000 0.068207 0
21.520000 0.055644 0
21.525000 0.044350 0
21.530000 0.034281 0
21.535000 0.025382 0
21.540000 0.017584 0
21.545000 0.010813 0
21.550000 0.004989 0
21.555000 0.000029 0
21.560000 -0.004150 0
21.565000 -0.007630 0
21.570000 -0.010489 0
21.575000 -0.012802 0
21.580000 -0.014639 0
21.585000 -0.016065 0
21.590000 -0.017137 0
21.595000 -0.017909 0
21.600000 -0.018428 0
21.605000 -0.018734 0
21.610000 -0.018864 0
21.615000 -0.018850 0
21.620000 -0.018716 0
21.625000 -0.018487 0
21.630000 -0.018181 0
21.635000 -0.017813 0
21.640000 -0.017398 0
21.645000 -0.016944 0
21.650000 -0.016462 0
21.655000 -0.015958 0
21.660000 -0.015437 0
21.665000 -0.014904 0
21.670000 -0.014363 0
21.675000 -0.013796 0
21.680000 -0.013227 0
21.685000 -0.012661 0
21.690000 -0.012098 0
21.695000 -0.011537 0
21.700000 -0.010980 0
21.705000 -0.010425 0
21.710000 -0.009873 0
21.715000 -0.009324 0
21.720000 -0.008777 0
21.725000 -0.008233 0
21.730000 -0.007692 0
21.735000 -0.007154 0
21.740000 -0.006618 0
21.745000 -0.006085 0
21.750000 -0.005555 0
21.755000 -0.005027 0
21.760000 -0.004502 0
21.765000 -0.003979 0
21.770000 -0.003459 0
21.775000 -0.002942 0
21.780000 -0.002427 0
21.785000 -0.001915 0
21.790000 -0.001406 0
21.795000 -0.000899 0
21.800000 -0.000394 0
21.805000 0.000108 0
21.810000 0.000607 0
21.815000 0.001104 0
21.820000 0.001599 0
21.825000 0.002091 0
21.830000 0.002581 0
21.835000 0.003069 0
21.840000 0.003555 0
21.845000 0.004040 0
21.850000 0.004524 0
21.855000 0.005009 0
21.860000 0.005496 0
21.865000 0.005988 0
21.870000 0.006490 0
21.875000 0.007008 0
21.880000 0.007553 0
21.885000 0.008138 0
21.890000 0.008783 0
21.895000 0.009516 0
21.900000 0.010376 0
21.905000 0.011413 0
21.910000 0.012693 0
21.915000 0.014300 0
21.920000 0.016340 0
21.925000 0.018937 0
21.930000 0.022242 0
21.935000 0.026421 0
21.940000 0.031660 0
21.945000 0.038154 0
21.950000 0.046094 0
21.955000 0.055660 0
21.960000 0.066996 0
21.965000 0.080200 0
21.970000 0.095297 0
21.975000 0.112224 0
21.980000 0.130813 0
21.985000 0.150781 0
21.990000 0.171724 0
21.995000 0.193125 0
22.000000 0.214367 0
22.005000 0.234762 0
22.010000 0.253580 0
22.015000 0.270096 0
22.020000 0.283632 0
22.025000 0.293602 0
22.030000 0.299556 0
22.035000 0.301208 1
22.040000 0.298462 0
22.045000 0.291419 0
22.050000 0.280366 0
22.055000 0.265762 0
22.060000 0.248200 0
22.065000 0.228369 0
22.070000 0.207010 0
22.075000 0.184867 0
22.080000 0.162645 0
22.085000 0.140977 0
22.090000 0.120393 0
22.095000 0.101308 0
22.100000 0.084000 0
22.105000 0.068609 0
22.110000 0.055102 0
22.115000 0.043216 0
22.120000 0.032352 0
22.125000 0.021426 0
22.130000 0.008782 0
22.135000 -0.007698 0
22.140000 -0.030054 0
22.145000 -0.059210 0
22.150000 -0.093651 0
22.155000 -0.128385 0
22.160000 -0.154823 0
22.165000 -0.161788 2
22.170000 -0.137271 0
22.175000 -0.070290 0
22.180000 0.047199 0
22.185000 0.217590 0
22.190000 0.433562 0
22.195000 0.673935 0
22.200000 0.902935 0
22.205000 1.076369 0
22.210000 1.154609 3
22.215000 1.119346 0
22.220000 0.980338 0
22.225000 0.764026 0
22.230000 0.508502 0
22.235000 0.252034 0
22.240000 0.024547 0
22.245000 -0.155601 0
22.250000 -0.280622 0
22.255000 -0.350744 0
22.260000 -0.372065 4
22.265000 -0.355039 0
22.270000 -0.312828 0
22.275000 -0.259030 0
22.280000 -0.205169 0
22.285000 -0.158897 0
22.290000 -0.123539 0
22.295000 -0.098933 0
22.300000 -0.082910 0
22.305000 -0.072712 0
22.310000 -0.065904 0
22.315000 -0.060729 0
22.320000 -0.056096 0
22.325000 -0.051388 0
22.330000 -0.046281 0
22.335000 -0.040598 0
22.340000 -0.034230 0
22.345000 -0.027096 0
22.350000 -0.019125 0
22.355000 -0.010256 0
22.360000 -0.000431 0
22.365000 0.010400 0
22.370000 0.022277 0
22.375000 0.035226 0
22.380000 0.049264 0
22.385000 0.064386 0
22.390000 0.080572 0
22.395000 0.097780 0
22.400000 0.115946 0
22.405000 0.134982 0
22.410000 0.154776 0
22.415000 0.175193 0
22.420000 0.196072 0
22.425000 0.217232 0
22.430000 0.238469 0
22.435000 0.259562 0
22.440000 0.280277 0
22.445000 0.300367 0
22.450000 0.319581 0
22.455000 0.337666 0
22.460000 0.354372 0
22.465000 0.369463 0
22.470000 0.382715 0
22.475000 0.393925 0
22.480000 0.402918 0
22.485000 0.409547 0
22.490000 0.413699 0
22.495000 0.415300 5
22.500000 0.414313 0
22.505000 0.410743 0
22.510000 0.404632 0
22.515000 0.396064 0
22.520000 0.385160 0
22.525000 0.372073 0
22.530000 0.356990 0
22.535000 0.340119 0
22.540000 0.321693 0
22.545000 0.301960 0
22.550000 0.281177 0
22.555000 0.259605 0
22.560000 0.237505 0
22.565000 0.215131 0
22.570000 0.192726 0
22.575000 0.170518 0
22.580000 0.148718 0
22.585000 0.127512 0
22.590000 0.107065 0
22.595000 0.087518 0
22.600000 0.068983 0
22.605000 0.051550 0
22.610000 0.035282 0
22.615000 0.020221 0
22.620000 0.006386 0
22.625000 -0.006225 0
22.630000 -0.017630 0
22.635000 -0.027862 0
22.640000 -0.036966 0
22.645000 -0.045000 0
22.650000 -0.052026 0
22.655000 -0.058113 0
22.660000 -0.063334 0
22.665000 -0.067763 0
22.670000 -0.071474 0
22.675000 -0.074538 0
22.680000 -0.077025 0
22.685000 -0.079002 0
22.690000 -0.080530 0
22.695000 -0.081667 0
22.700000 -0.082466 0
22.705000 -0.082974 0
22.710000 -0.083234 0
22.715000 -0.083285 0
22.720000 -0.083159 0
22.725000 -0.082886 0
22.730000 -0.082491 0
22.735000 -0.081997 0
22.740000 -0.081421 0
22.745000 -0.080780 0
22.750000 -0.080087 0
22.755000 -0.079352 0
22.760000 -0.078585 0
22.765000 -0.077793 0
22.770000 -0.076982 0
22.775000 -0.076158 0
22.780000 -0.075323 0
22.785000 -0.074482 0
22.790000 -0.073616 0
22.795000 -0.072749 0
22.800000 -0.071886 0
22.805000 -0.071027 0
22.810000 -0.070173 0
22.815000 -0.069323 0
22.820000 -0.068477 0
22.825000 -0.067636 0
22.830000 -0.066798 0
22.835000 -0.065965 0
22.840000 -0.065136 0
22.845000 -0.064311 0
22.850000 -0.063490 0
22.855000 -0.062674 0
22.860000 -0.061861 0
22.865000 -0.061052 0
22.870000 -0.060248 0
22.875000 -0.059447 0
22.880000 -0.058651 0
22.885000 -0.057858 0
22.890000 -0.057070 0
22.895000 -0.056285 0
22.900000 -0.055504 0
22.905000 -0.054727 0
22.910000 -0.053954 0
22.915000 -0.053185 0
22.920000 -0.052420 0
22.925000 -0.051659 0
22.930000 -0.050901 0
22.935000 -0.050147 0
22.940000 -0.049397 0
22.945000 -0.048650 0
22.950000 -0.047907 0
22.955000 -0.047168 0
22.960000 -0.046432 0
22.965000 -0.045699 0
22.970000 -0.044969 0
22.975000 -0.044241 0
22.980000 -0.043515 0
22.985000 -0.042789 0
22.990000 -0.042060 0
22.995000 -0.041327 0
23.000000 -0.040583 0
23.005000 -0.039823 0
23.010000 -0.039037 0
23.015000 -0.038212 0
23.020000 -0.037328 0
23.025000 -0.036359 0
23.030000 -0.035273 0
23.035000 -0.034024 0
23.040000 -0.032554 0
23.045000 -0.030791 0
23.050000 -0.028647 0
23.055000 -0.026014 0
23.060000 -0.022766 0
23.065000 -0.018760 0
23.070000 -0.013839 0
23.075000 -0.007833 0
23.080000 -0.000569 0
23.085000 0.008120 0
23.090000 0.018383 0
23.095000 0.030339 0
23.100000 0.044060 0
23.105000 0.059557 0
23.110000 0.076764 0
23.115000 0.095525 0
23.120000 0.115590 0
23.125000 0.136606 0
23.130000 0.158127 0
23.135000 0.179619 0
23.140000 0.200485 0
23.145000 0.220084 0
23.150000 0.237767 0
23.155000 0.252910 0
23.160000 0.264952 0
23.165000 0.273425 0
23.170000 0.277989 0
23.175000 0.278450 1
23.180000 0.274775 0
23.185000 0.267094 0
23.190000 0.255694 0
23.195000 0.240999 0
23.200000 0.223542 0
23.205000 0.203938 0
23.210000 0.182842 0
23.215000 0.160916 0
23.220000 0.138794 0
23.225000 0.117057 0
23.230000 0.096201 0
23.235000 0.076630 0
23.240000 0.058642 0
23.245000 0.042418 0
23.250000 0.028013 0
23.255000 0.015320 0
23.260000 0.004013 0
23.265000 -0.006557 0
23.270000 -0.017470 0
23.275000 -0.030294 0
23.280000 -0.046940 0
23.285000 -0.069194 0
23.290000 -0.097867 0
23.295000 -0.131746 0
23.300000 -0.166744 0
23.305000 -0.195709 0
23.310000 -0.209091 2
23.315000 -0.196259 0
23.320000 -0.146976 0
23.325000 -0.052842 0
23.330000 0.090937 0
23.335000 0.282814 0
23.340000 0.511382 0
23.345000 0.752800 0
23.350000 0.971957 0
23.355000 1.129262 0
23.360000 1.191826 3
23.365000 1.142299 0
23.370000 0.985912 0
23.375000 0.755800 0
23.380000 0.495961 0
23.385000 0.247259 0
23.390000 0.038630 0
23.395000 -0.114720 0
23.400000 -0.208847 0
23.405000 -0.247948 4
23.410000 -0.242141 0
23.415000 -0.205530 0
23.420000 -0.153555 0
23.425000 -0.099808 0
23.430000 -0.053510 0
23.435000 -0.018709 0
23.440000 0.004756 0
23.445000 0.019391 0
23.450000 0.028288 0
23.455000 0.034061 0
23.460000 0.038488 0
23.465000 0.042614 0
23.470000 0.046987 0
23.475000 0.051889 0
23.480000 0.057475 0
23.485000 0.063846 0
23.490000 0.071086 0
23.495000 0.079267 0
23.500000 0.088457 0
23.505000 0.098713 0
23.510000 0.110081 0
23.515000 0.122596 0
23.520000 0.136272 0
23.525000 0.151106 0
23.530000 0.167072 0
23.535000 0.184118 0
23.540000 0.202165 0
23.545000 0.221105 0
23.550000 0.240804 0
23.555000 0.261095 0
23.560000 0.281786 0
23.565000 0.302656 0
23.570000 0.323465 0
23.575000 0.343950 0
23.580000 0.363837 0
23.585000 0.382843 0
23.590000 0.400681 0
23.595000 0.417070 0
23.600000 0.431741 0
23.605000 0.444442 0
23.610000 0.454949 0
23.615000 0.463068 0
23.620000 0.468641 0
23.625000 0.471555 0
23.630000 0.471739 5
23.635000 0.469173 0
23.640000 0.463881 0
23.645000 0.455938 0
23.650000 0.445463 0
23.655000 0.432619 0
23.660000 0.417605 0
23.665000 0.400653 0
23.670000 0.382021 0
23.675000 0.361988 0
23.680000 0.340842 0
23.685000 0.318880 0
23.690000 0.296395 0
23.695000 0.273670 0
23.700000 0.250978 0
23.705000 0.228568 0
23.710000 0.206670 0
23.715000 0.185483 0
23.720000 0.165181 0
23.725000 0.145903 0
23.730000 0.127763 0
23.735000 0.110841 0
23.740000 0.095190 0
23.745000 0.080836 0
23.750000 0.067782 0
23.755000 0.056008 0
23.760000 0.045477 0
23.765000 0.036137 0
23.770000 0.027925 0
23.775000 0.020766 0
23.780000 0.014584 0
23.785000 0.009295 0
23.790000 0.004816 0
23.795000 0.001066 0
23.800000 -0.002037 0
23.805000 -0.004568 0
23.810000 -0.006599 0
23.815000 -0.008196 0
23.820000 -0.009421 0
23.825000 -0.010327 0
23.830000 -0.010964 0
23.835000 -0.011375 0
23.840000 -0.011598 0
23.845000 -0.011666 0
23.850000 -0.011606 0
23.855000 -0.011443 0
23.860000 -0.011197 0
23.865000 -0.010884 0
23.870000 -0.010518 0
23.875000 -0.010112 0
23.880000 -0.009673 0
23.885000 -0.009210 0
23.890000 -0.008729 0
23.895000 -0.008234 0
23.900000 -0.007729 0
23.905000 -0.007196 0
23.910000 -0.006660 0
23.915000 -0.006127 0
23.920000 -0.005596 0
23.925000 -0.005068 0
23.930000 -0.004543 0
23.935000 -0.004020 0
23.940000 -0.003500 0
23.945000 -0.002982 0
23.950000 -0.002468 0
23.955000 -0.001955 0
23.960000 -0.001445 0
23.965000 -0.000938 0
23.970000 -0.000434 0
23.975000 0.000069 0
23.980000 0.000568 0
23.985000 0.001066 0
23.990000 0.001560 0
23.995000 0.002053 0
24.000000 0.002542 0
24.005000 0.003030 0
24.010000 0.003515 0
24.015000 0.003997 0
24.020000 0.004477 0
24.025000 0.004955 0
24.030000 0.005430 0
24.035000 0.005903 0
24.040000 0.006374 0
24.045000 0.006842 0
24.050000 0.007308 0
24.055000 0.007772 0
24.060000 0.008233 0
24.065000 0.008693 0
24.070000 0.009151 0
24.075000 0.009607 0
24.080000 0.010063 0
24.085000 0.010519 0
24.090000 0.010977 0
24.095000 0.011439 0
24.100000 0.011909 0
24.105000 0.012394 0
24.110000 0.012901 0
24.115000 0.013444 0
24.120000 0.014040 0
24.125000 0.014715 0
24.130000 0.015504 0
24.135000 0.016452 0
24.140000 0.017622 0
24.145000 0.019092 0
24.150000 0.020959 0
24.155000 0.023343 0
24.160000 0.026387 0
24.165000 0.030252 0
24.170000 0.035120 0
24.175000 0.041184 0
24.180000 0.048637 0
24.185000 0.057664 0
24.190000 0.068423 0
24.195000 0.081028 0
24.200000 0.095528 0
24.205000 0.111888 0
24.210000 0.129975 0
24.215000 0.149539 0
24.220000 0.170214 0
24.225000 0.191513 0
24.230000 0.212849 0
24.235000 0.233549 0
24.240000 0.252892 0
24.245000 0.270146 0
24.250000 0.284613 0
24.255000 0.295674 0
24.260000 0.302835 0
24.265000 0.305758 1
24.270000 0.304289 0
24.275000 0.298470 0
24.280000 0.288536 0
24.285000 0.274899 0
24.290000 0.258115 0
24.295000 0.238852 0
24.300000 0.217840 0
24.305000 0.195828 0
24.310000 0.173537 0
24.315000 0.151626 0
24.320000 0.130657 0
24.325000 0.111080 0
24.330000 0.093215 0
24.335000 0.077243 0
24.340000 0.063186 0
24.345000 0.050856 0
24.350000 0.039763 0
24.355000 0.028977 0
24.360000 0.017005 0
24.365000 0.001827 0
24.370000 -0.018708 0
24.375000 -0.045972 0
24.380000 -0.079276 0
24.385000 -0.114674 0
24.390000 -0.144533 0
24.395000 -0.158240 2
24.400000 -0.143815 0
24.405000 -0.089792 0
24.410000 0.012931 0
24.415000 0.168695 0
24.420000 0.373365 0
24.425000 0.609920 0
24.430000 0.846349 0
24.435000 1.039694 0
24.440000 1.147477 3
24.445000 1.144522 0
24.450000 1.032770 0
24.455000 0.833906 0
24.460000 0.584722 0
24.465000 0.325234 0
24.470000 0.088630 0
24.475000 -0.103492 0
24.480000 -0.240911 0
24.485000 -0.322275 0
24.490000 -0.352686 4
24.495000 -0.342043 0
24.500000 -0.303408 0
24.505000 -0.250765 0
24.510000 -0.196386 0
24.515000 -0.148770 0
24.520000 -0.111940 0
24.525000 -0.086138 0
24.530000 -0.069328 0
24.535000 -0.058709 0
24.540000 -0.051735 0
24.545000 -0.046544 0
24.550000 -0.041967 0
24.555000 -0.037349 0
24.560000 -0.032341 0
24.565000 -0.026757 0
24.570000 -0.020484 0
24.575000 -0.013438 0
24.580000 -0.005548 0
24.585000 0.003250 0
24.590000 0.013015 0
24.595000 0.023797 0
24.600000 0.035637 0
24.605000 0.048563 0
24.610000 0.062589 0
24.615000 0.077711 0
24.620000 0.093907 0
24.625000 0.111133 0
24.630000 0.129321 0
24.635000 0.148380 0
24.640000 0.168193 0
24.645000 0.188619 0
24.650000 0.209492 0
24.655000 0.230622 0
24.660000 0.251801 0
24.665000 0.272801 0
24.670000 0.293378 0
24.675000 0.313281 0
24.680000 0.332252 0
24.685000 0.350034 0
24.690000 0.366374 0
24.695000 0.381032 0
24.700000 0.393784 0
24.705000 0.404430 0
24.710000 0.412797 0
24.715000 0.418744 0
24.720000 0.422165 0
24.725000 0.422995 5
24.730000 0.421207 0
24.735000 0.416818 0
24.740000 0.409885 0
24.745000 0.400505 0
24.750000 0.388811 0
24.755000 0.374973 0
24.760000 0.359188 0
24.765000 0.341679 0
24.770000 0.322691 0
24.775000 0.302479 0
24.780000 0.281308 0
24.785000 0.259446 0
24.790000 0.237156 0
24.795000 0.214694 0
24.800000 0.192302 0
24.805000 0.170205 0
24.810000 0.148607 0
24.815000 0.127689 0
24.820000 0.107607 0
24.825000 0.088491 0
24.830000 0.070445 0
24.835000 0.053548 0
24.840000 0.037851 0
24.845000 0.023386 0
24.850000 0.010160 0
24.855000 -0.001838 0
24.860000 -0.012634 0
24.865000 -0.022270 0
24.870000 -0.030799 0
24.875000 -0.038283 0
24.880000 -0.044790 0
24.885000 -0.050394 0
24.890000 -0.055168 0
24.895000 -0.059189 0
24.900000 -0.062531 0
24.905000 -0.065265 0
24.910000 -0.067461 0
24.915000 -0.069184 0
24.920000 -0.070493 0
24.925000 -0.071444 0
24.930000 -0.072087 0
24.935000 -0.072467 0
24.940000 -0.072625 0
24.945000 -0.072596 0
24.950000 -0.072411 0
24.955000 -0.072096 0
24.960000 -0.071676 0
24.965000 -0.071169 0
24.970000 -0.070593 0
24.975000 -0.069960 0
24.980000 -0.069284 0
24.985000 -0.068573 0
24.990000 -0.067835 0
24.995000 -0.067078 0
25.000000 -0.066305 0
25.005000 -0.065522 0
25.010000 -0.064731 0
25.015000 -0.063913 0
25.020000 -0.063094 0
25.025000 -0.062279 0
25.030000 -0.061469 0
25.035000 -0.060662 0
25.040000 -0.059860 0
25.045000 -0.059061 0
25.050000 -0.058266 0
25.055000 -0.057476 0
25.060000 -0.056689 0
25.065000 -0.055906 0
25.070000 -0.055127 0
25.075000 -0.054352 0
25.080000 -0.053581 0
25.085000 -0.052814 0
25.090000 -0.052051 0
25.095000 -0.051291 0
25.100000 -0.050535 0
25.105000 -0.049783 0
25.110000 -0.049035 0
25.115000 -0.048290 0
25.120000 -0.047549 0
25.125000 -0.046812 0
25.130000 -0.046079 0
25.135000 -0.045349 0
25.140000 -0.044623 0
25.145000 -0.043900 0
25.150000 -0.043181 0
25.155000 -0.042466 0
25.160000 -0.041754 0
25.165000 -0.041045 0
25.170000 -0.040340 0
25.175000 -0.039639 0
25.180000 -0.038941 0
25.185000 -0.038246 0
25.190000 -0.037554 0
25.195000 -0.036864 0
25.200000 -0.036176 0
25.205000 -0.035489 0
25.210000 -0.034801 0
25.215000 -0.034111 0
25.220000 -0.033413 0
25.225000 -0.032704 0
25.230000 -0.031975 0
25.235000 -0.031215 0
25.240000 -0.030410 0
25.245000 -0.029537 0
25.250000 -0.028567 0
25.255000 -0.027463 0
25.260000 -0.026174 0
25.265000 -0.024635 0
25.270000 -0.022766 0
25.275000 -0.020469 0
25.280000 -0.017627 0
25.285000 -0.014104 0
25.290000 -0.009746 0
25.295000 -0.004387 0
25.300000 0.002149 0
25.305000 0.010037 0
25.310000 0.019440 0
25.315000 0.030499 0
25.320000 0.043311 0
25.325000 0.057922 0
25.330000 0.074303 0
25.335000 0.092341 0
25.340000 0.111825 0
25.345000 0.132444 0
25.350000 0.153782 0
25.355000 0.175332 0
25.360000 0.196508 0
25.365000 0.216672 0
25.370000 0.235160 0
25.375000 0.251321 0
25.380000 0.264554 0
25.385000 0.274342 0
25.390000 0.280287 0
25.395000 0.282137 1
25.400000 0.279802 0
25.405000 0.273359 0
25.410000 0.263052 0
25.415000 0.249272 0
25.420000 0.232534 0
25.425000 0.213444 0
25.430000 0.192662 0
25.435000 0.170867 0
25.440000 0.148715 0
25.445000 0.126815 0
25.450000 0.105696 0
25.455000 0.085793 0
25.460000 0.067434 0
25.465000 0.050829 0
25.470000 0.036060 0
25.475000 0.023055 0
25.480000 0.011524 0
25.485000 0.000869 0
25.490000 -0.009940 0
25.495000 -0.022431 0
25.500000 -0.038529 0
25.505000 -0.060108 0
25.510000 -0.088161 0
25.515000 -0.121709 0
25.520000 -0.156876 0
25.525000 -0.186608 0
25.530000 -0.201301 2
25.535000 -0.190131 0
25.540000 -0.142594 0
25.545000 -0.050008 0
25.550000 0.092667 0
25.555000 0.284021 0
25.560000 0.512538 0
25.565000 0.753898 0
25.570000 0.972203 0
25.575000 1.127084 0
25.580000 1.185396 3
25.585000 1.130392 0
25.590000 0.968755 0
25.595000 0.735278 0
25.600000 0.474999 0
25.605000 0.228856 0
25.610000 0.025125 0
25.615000 -0.121936 0
25.620000 -0.209323 0
25.625000 -0.242112 4
25.630000 -0.231250 0
25.635000 -0.191478 0
25.640000 -0.138461 0
25.645000 -0.085491 0
25.650000 -0.041095 0
25.655000 -0.008539 0
25.660000 0.012935 0
25.665000 0.026120 0
25.670000 0.034129 0
25.675000 0.039452 0
25.680000 0.043716 0
25.685000 0.047844 0
25.690000 0.052313 0
25.695000 0.057364 0
25.700000 0.063137 0
25.705000 0.069728 0
25.710000 0.077220 0
25.715000 0.085683 0
25.720000 0.095185 0
25.725000 0.105780 0
25.730000 0.117512 0
25.735000 0.130410 0
25.740000 0.144483 0
25.745000 0.159719 0
25.750000 0.176083 0
25.755000 0.193511 0
25.760000 0.211913 0
25.765000 0.231167 0
25.770000 0.251122 0
25.775000 0.271598 0
25.780000 0.292387 0
25.785000 0.313254 0
25.790000 0.333944 0
25.795000 0.354182 0
25.800000 0.373684 0
25.805000 0.392158 0
25.810000 0.409314 0
25.815000 0.424870 0
25.820000 0.438561 0
25.825000 0.450141 0
25.830000 0.459398 0
25.835000 0.466154 0
25.840000 0.470271 0
25.845000 0.471657 5
25.850000 0.470268 0
25.855000 0.466110 0
25.860000 0.459238 0
25.865000 0.449754 0
25.870000 0.437808 0
25.875000 0.423589 0
25.880000 0.407321 0
25.885000 0.389258 0
25.890000 0.369678 0
25.895000 0.348873 0
25.900000 0.327142 0
25.905000 0.304786 0
25.910000 0.282099 0
25.915000 0.259362 0
25.920000 0.236837 0
25.925000 0.214764 0
25.930000 0.193357 0
25.935000 0.172798 0
25.940000 0.153240 0
25.945000 0.134805 0
25.950000 0.117583 0
25.955000 0.101634 0
25.960000 0.086990 0
25.965000 0.073660 0
25.970000 0.061628 0
25.975000 0.050858 0
25.980000 0.041302 0
25.985000 0.032895 0
25.990000 0.025564 0
25.995000 0.019230 0
26.000000 0.013809 0
26.005000 0.009217 0
26.010000 0.005370 0
26.015000 0.002186 0
26.020000 -0.000414 0
26.025000 -0.002503 0
26.030000 -0.004149 0
26.035000 -0.005414 0
26.040000 -0.006355 0
26.045000 -0.007022 0
26.050000 -0.007460 0
26.055000 -0.007706 0
26.060000 -0.007795 0
26.065000 -0.007755 0
26.070000 -0.007610 0
26.075000 -0.007381 0
26.080000 -0.007086 0
26.085000 -0.006737 0
26.090000 -0.006348 0
26.095000 -0.005926 0
26.100000 -0.005480 0
26.105000 -0.005016 0
26.110000 -0.004539 0
26.115000 -0.004051 0
26.120000 -0.003536 0
26.125000 -0.003018 0
26.130000 -0.002503 0
26.135000 -0.001991 0
26.140000 -0.001481 0
26.145000 -0.000974 0
26.150000 -0.000469 0
26.155000 0.000034 0
26.160000 0.000534 0
26.165000 0.001031 0
26.170000 0.001526 0
26.175000 0.002018 0
26.180000 0.002508 0
26.185000 0.002996 0
26.190000 0.003481 0
26.195000 0.003963 0
26.200000 0.004444 0
26.205000 0.004922 0
26.210000 0.005397 0
26.215000 0.005870 0
26.220000 0.006341 0
26.225000 0.006809 0
26.230000 0.007275 0
26.235000 0.007739 0
26.240000 0.008201 0
26.245000 0.008660 0
26.250000 0.009117 0
26.255000 0.009571 0
26.260000 0.010024 0
26.265000 0.010474 0
26.270000 0.010922 0
26.275000 0.011368 0
26.280000 0.011812 0
26.285000 0.012255 0
26.290000 0.012696 0
26.295000 0.013137 0
26.300000 0.013580 0
26.305000 0.014025 0
26.310000 0.014476 0
26.315000 0.014939 0
26.320000 0.015419 0
26.325000 0.015929 0
26.330000 0.016484 0
26.335000 0.017105 0
26.340000 0.017823 0
26.345000 0.018680 0
26.350000 0.019731 0
26.355000 0.021049 0
26.360000 0.022723 0
26.365000 0.024868 0
26.370000 0.027618 0
26.375000 0.031132 0
26.380000 0.035587 0
26.385000 0.041176 0
26.390000 0.048097 0
26.395000 0.056545 0
26.400000 0.066692 0
26.405000 0.078671 0
26.410000 0.092557 0
26.415000 0.108344 0
26.420000 0.125927 0
26.425000 0.145090 0
26.430000 0.165492 0
26.435000 0.186672 0
26.440000 0.208056 0
26.445000 0.228978 0
26.450000 0.248711 0
26.455000 0.266507 0
26.460000 0.281643 0
26.465000 0.293465 0
26.470000 0.301439 0
26.475000 0.305187 1
26.480000 0.304514 0
26.485000 0.299426 0
26.490000 0.290131 0
26.495000 0.277019 0
26.500000 0.260639 0
26.505000 0.241659 0
26.510000 0.220818 0
26.515000 0.198878 0
26.520000 0.176581 0
26.525000 0.154605 0
26.530000 0.133536 0
26.535000 0.113841 0
26.540000 0.095856 0
26.545000 0.079776 0
26.550000 0.065632 0
26.555000 0.053242 0
26.560000 0.042118 0
26.565000 0.031324 0
26.570000 0.019344 0
26.575000 0.004117 0
26.580000 -0.016545 0
26.585000 -0.044012 0
26.590000 -0.077502 0
26.595000 -0.112849 0
26.600000 -0.142098 0
26.605000 -0.154300 2
26.610000 -0.137215 0
26.615000 -0.079270 0
26.620000 0.028504 0
26.625000 0.189878 0
26.630000 0.399425 0
26.635000 0.638021 0
26.640000 0.871222 0
26.645000 1.054478 0
26.650000 1.145862 3
26.655000 1.123893 0
26.660000 0.995816 0
26.665000 0.786276 0
26.670000 0.533012 0
26.675000 0.275135 0
26.680000 0.043942 0
26.685000 -0.140912 0
26.690000 -0.270699 0
26.695000 -0.345054 0
26.700000 -0.369721 4
26.705000 -0.354979 0
26.710000 -0.313995 0
26.715000 -0.260547 0
26.720000 -0.206463 0
26.725000 -0.159708 0
26.730000 -0.123850 0
26.735000 -0.098853 0
26.740000 -0.082581 0
26.745000 -0.072251 0
26.750000 -0.065386 0
26.755000 -0.060195 0
26.760000 -0.055561 0
26.765000 -0.050859 0
26.770000 -0.045757 0
26.775000 -0.040076 0
26.780000 -0.033707 0
26.785000 -0.026566 0
26.790000 -0.018585 0
26.795000 -0.009698 0
26.800000 0.000151 0
26.805000 0.011011 0
26.810000 0.022924 0
26.815000 0.035917 0
26.820000 0.050003 0
26.825000 0.065180 0
26.830000 0.081424 0
26.835000 0.098693 0
26.840000 0.116919 0
26.845000 0.136014 0
26.850000 0.155863 0
26.855000 0.176325 0
26.860000 0.197239 0
26.865000 0.218418 0
26.870000 0.239655 0
26.875000 0.260726 0
26.880000 0.281392 0
26.885000 0.301404 0
26.890000 0.320506 0
26.895000 0.338444 0
26.900000 0.354968 0
26.905000 0.369838 0
26.910000 0.382832 0
26.915000 0.393749 0
26.920000 0.402414 0
26.925000 0.408685 0
26.930000 0.412453 0
26.935000 0.413649 5
26.940000 0.412242 0
26.945000 0.408242 0
26.950000 0.401701 0
26.955000 0.392710 0
26.960000 0.381396 0
26.965000 0.367921 0
26.970000 0.352477 0
26.975000 0.335282 0
26.980000 0.316574 0
26.985000 0.296603 0
26.990000 0.275633 0
26.995000 0.253926 0
27.000000 0.231746 0
27.005000 0.209347 0
27.010000 0.186972 0
27.015000 0.164846 0
27.020000 0.143176 0
27.025000 0.122147 0
27.030000 0.101918 0
27.035000 0.082624 0
27.040000 0.064373 0
27.045000 0.047249 0
27.050000 0.031309 0
27.055000 0.016589 0
27.060000 0.003102 0
27.065000 -0.009158 0
27.070000 -0.020215 0
27.075000 -0.030106 0
27.080000 -0.038880 0
27.085000 -0.046597 0
27.090000 -0.053323 0
27.095000 -0.059128 0
27.100000 -0.064088 0
27.105000 -0.068275 0
27.110000 -0.071765 0
27.115000 -0.074629 0
27.120000 -0.076936 0
27.125000 -0.078753 0
27.130000 -0.080141 0
27.135000 -0.081154 0
27.140000 -0.081845 0
27.145000 -0.082261 0
27.150000 -0.082442 0
27.155000 -0.082426 0
27.160000 -0.082244 0
27.165000 -0.081925 0
27.170000 -0.081493 0
27.175000 -0.080968 0
27.180000 -0.080368 0
27.185000 -0.079708 0
27.190000 -0.079000 0
27.195000 -0.078255 0
27.200000 -0.077480 0
27.205000 -0.076683 0
27.210000 -0.075870 0
27.215000 -0.075044 0
27.220000 -0.074210 0
27.225000 -0.073366 0
27.230000 -0.072500 0
27.235000 -0.071639 0
27.240000 -0.070781 0
27.245000 -0.069928 0
27.250000 -0.069079 0
27.255000 -0.068235 0
27.260000 -0.067394 0
27.265000 -0.066558 0
27.270000 -0.065726 0
27.275000 -0.064899 0
27.280000 -0.064075 0
27.285000 -0.063255 0
27.290000 -0.062440 0
27.295000 -0.061628 0
27.300000 -0.060821 0
27.305000 -0.060017 0
27.310000 -0.059218 0
27.315000 -0.058423 0
27.320000 -0.057631 0
27.325000 -0.056844 0
27.330000 -0.056060 0
27.335000 -0.055281 0
27.340000 -0.054505 0
27.345000 -0.053733 0
27.350000 -0.052965 0
27.355000 -0.052201 0
27.360000 -0.051440 0
27.365000 -0.050684 0
27.370000 -0.049931 0
27.375000 -0.049182 0
27.380000 -0.048437 0
27.385000 -0.047695 0
27.390000 -0.046956 0
27.395000 -0.046222 0
27.400000 -0.045490 0
27.405000 -0.044762 0
27.410000 -0.044035 0
27.415000 -0.043311 0
27.420000 -0.042587 0
27.425000 -0.041862 0
27.430000 -0.041133 0
27.435000 -0.040396 0
27.440000 -0.039644 0
27.445000 -0.038870 0
27.450000 -0.038061 0
27.455000 -0.037200 0
27.460000 -0.036264 0
27.465000 -0.035220 0
27.470000 -0.034028 0
27.475000 -0.032633 0
27.480000 -0.030967 0
27.485000 -0.028945 0
27.490000 -0.026464 0
27.495000 -0.023403 0
27.500000 -0.019622 0
27.505000 -0.014965 0
27.510000 -0.009264 0
27.515000 -0.002343 0
27.520000 0.005968 0
27.525000 0.015825 0
27.530000 0.027359 0
27.535000 0.040654 0
27.540000 0.055738 0
27.545000 0.072563 0
27.550000 0.090996 0
27.555000 0.110803 0
27.560000 0.131652 0
27.565000 0.153111 0
27.570000 0.174659 0
27.575000 0.195702 0
27.580000 0.215602 0
27.585000 0.233700 0
27.590000 0.249360 0
27.595000 0.262000 0
27.600000 0.271129 0
27.605000 0.276377 0
27.610000 0.277524 1
27.615000 0.274508 0
27.620000 0.267435 0
27.625000 0.256571 0
27.630000 0.242325 0
27.635000 0.225222 0
27.640000 0.205872 0
27.645000 0.184935 0
27.650000 0.163079 0
27.655000 0.140952 0
27.660000 0.119146 0
27.665000 0.098174 0
27.670000 0.078455 0
27.675000 0.060300 0
27.680000 0.043906 0
27.685000 0.029339 0
27.690000 0.016511 0
27.695000 0.005111 0
27.700000 -0.005484 0
27.705000 -0.016331 0
27.710000 -0.028980 0
27.715000 -0.045350 0
27.720000 -0.067270 0
27.725000 -0.095639 0
27.730000 -0.129354 0
27.735000 -0.164426 0
27.740000 -0.193744 0
27.745000 -0.207728 2
27.750000 -0.195652 0
27.755000 -0.147150 0
27.760000 -0.053689 0
27.765000 0.089636 0
27.770000 0.281335 0
27.775000 0.509929 0
27.780000 0.751326 0
27.785000 0.970020 0
27.790000 1.126042 0
27.795000 1.186396 3
27.800000 1.134774 0
27.805000 0.978036 0
27.810000 0.748480 0
27.815000 0.488869 0
27.820000 0.239137 0
27.825000 0.027930 0
27.830000 -0.129317 0
27.835000 -0.228147 0
27.840000 -0.272087 4
27.845000 -0.270495 0
27.850000 -0.236762 0
27.855000 -0.185907 0
27.860000 -0.131571 0
27.865000 -0.083470 0
27.870000 -0.046359 0
27.875000 -0.020699 0
27.880000 -0.004347 0
27.885000 0.005696 0
27.890000 0.012129 0
27.895000 0.016877 0
27.900000 0.021115 0
27.905000 0.025482 0
27.910000 0.030306 0
27.915000 0.035765 0
27.920000 0.041968 0
27.925000 0.049000 0
27.930000 0.056934 0
27.935000 0.065839 0
27.940000 0.075772 0
27.945000 0.086785 0
27.950000 0.098914 0
27.955000 0.112183 0
27.960000 0.126596 0
27.965000 0.142137 0
27.970000 0.158768 0
27.975000 0.176424 0
27.980000 0.195016 0
27.985000 0.214424 0
27.990000 0.234504 0
27.995000 0.255080 0
28.000000 0.275955 0
28.005000 0.296903 0
28.010000 0.317683 0
28.015000 0.338033 0
28.020000 0.357684 0
28.025000 0.376357 0
28.030000 0.393777 0
28.035000 0.409672 0
28.040000 0.423788 0
28.045000 0.435887 0
28.050000 0.445760 0
28.055000 0.453230 0
28.060000 0.458154 0
28.065000 0.460434 5
28.070000 0.460014 0
28.075000 0.456884 0
28.080000 0.451080 0
28.085000 0.442683 0
28.090000 0.431819 0
28.095000 0.418652 0
28.100000 0.403381 0
28.105000 0.386238 0
28.110000 0.367475 0
28.115000 0.347366 0
28.120000 0.326191 0
28.125000 0.304239 0
28.130000 0.281793 0
28.135000 0.259130 0
28.140000 0.236512 0
28.145000 0.214182 0
28.150000 0.192360 0
28.155000 0.171242 0
28.160000 0.150994 0
28.165000 0.131755 0
28.170000 0.113633 0
28.175000 0.096710 0
28.180000 0.081037 0
28.185000 0.066643 0
28.190000 0.053531 0
28.195000 0.041684 0
28.200000 0.031068 0
28.205000 0.021635 0
28.210000 0.013324 0
28.215000 0.006064 0
28.220000 -0.000219 0
28.225000 -0.005605 0
28.230000 -0.010175 0
28.235000 -0.014010 0
28.240000 -0.017187 0
28.245000 -0.019782 0
28.250000 -0.021866 0
28.255000 -0.023504 0
28.260000 -0.024758 0
28.265000 -0.025683 0
28.270000 -0.026327 0
28.275000 -0.026735 0
28.280000 -0.026945 0
28.285000 -0.026991 0
28.290000 -0.026902 0
28.295000 -0.026702 0
28.300000 -0.026413 0
28.305000 -0.026052 0
28.310000 -0.025634 0
28.315000 -0.025170 0
28.320000 -0.024672 0
28.325000 -0.024146 0
28.330000 -0.023600 0
28.335000 -0.023039 0
28.340000 -0.022467 0
28.345000 -0.021882 0
28.350000 -0.021273 0
28.355000 -0.020667 0
28.360000 -0.020063 0
28.365000 -0.019463 0
28.370000 -0.018866 0
28.375000 -0.018272 0
28.380000 -0.017681 0
28.385000 -0.017093 0
28.390000 -0.016508 0
28.395000 -0.015925 0
28.400000 -0.015346 0
28.405000 -0.014769 0
28.410000 -0.014195 0
28.415000 -0.013625 0
28.420000 -0.013057 0
