0.000000 1.123208 3
0.005000 1.050243 0
0.010000 0.863183 0
0.015000 0.603627 0
0.020000 0.322453 0
0.025000 0.063713 0
0.030000 -0.143868 0
0.035000 -0.287215 0
0.040000 -0.365305 0
0.045000 -0.385694 4
0.050000 -0.362099 0
0.055000 -0.311768 0
0.060000 -0.251853 0
0.065000 -0.195721 0
0.070000 -0.150820 0
0.075000 -0.118901 0
0.080000 -0.097935 0
0.085000 -0.084431 0
0.090000 -0.075096 0
0.095000 -0.067548 0
0.100000 -0.060350 0
0.105000 -0.052736 0
0.110000 -0.044322 0
0.115000 -0.034912 0
0.120000 -0.024392 0
0.125000 -0.012685 0
0.130000 0.000266 0
0.135000 0.014497 0
0.140000 0.030023 0
0.145000 0.046838 0
0.150000 0.064903 0
0.155000 0.084154 0
0.160000 0.104492 0
0.165000 0.125785 0
0.170000 0.147865 0
0.175000 0.170531 0
0.180000 0.193549 0
0.185000 0.216658 0
0.190000 0.239568 0
0.195000 0.261971 0
0.200000 0.283546 0
0.205000 0.303964 0
0.210000 0.322899 0
0.215000 0.340035 0
0.220000 0.355075 0
0.225000 0.367747 0
0.230000 0.377818 0
0.235000 0.385092 0
0.240000 0.389427 0
0.245000 0.390728 5
0.250000 0.388960 0
0.255000 0.384142 0
0.260000 0.376352 0
0.265000 0.365721 0
0.270000 0.352429 0
0.275000 0.336705 0
0.280000 0.318814 0
0.285000 0.299053 0
0.290000 0.277740 0
0.295000 0.255210 0
0.300000 0.231801 0
0.305000 0.207849 0
0.310000 0.183679 0
0.315000 0.159598 0
0.320000 0.135889 0
0.325000 0.112806 0
0.330000 0.090571 0
0.335000 0.069371 0
0.340000 0.049357 0
0.345000 0.030645 0
0.350000 0.013314 0
0.355000 -0.002588 0
0.360000 -0.017043 0
0.365000 -0.030062 0
0.370000 -0.041677 0
0.375000 -0.051940 0
0.380000 -0.060919 0
0.385000 -0.068695 0
0.390000 -0.075355 0
0.395000 -0.080993 0
0.400000 -0.085703 0
0.405000 -0.089580 0
0.410000 -0.092718 0
0.415000 -0.095204 0
0.420000 -0.097122 0
0.425000 -0.098549 0
0.430000 -0.099555 0
0.435000 -0.100204 0
0.440000 -0.100553 0
0.445000 -0.100650 0
0.450000 -0.100541 0
0.455000 -0.100261 0
0.460000 -0.099843 0
0.465000 -0.099314 0
0.470000 -0.098696 0
0.475000 -0.098009 0
0.480000 -0.097267 0
0.485000 -0.096484 0
0.490000 -0.095668 0
0.495000 -0.094817 0
0.500000 -0.093898 0
0.505000 -0.092983 0
0.510000 -0.092073 0
0.515000 -0.091167 0
0.520000 -0.090266 0
0.525000 -0.089369 0
0.530000 -0.088476 0
0.535000 -0.087589 0
0.540000 -0.086705 0
0.545000 -0.085826 0
0.550000 -0.084951 0
0.555000 -0.084081 0
0.560000 -0.083215 0
0.565000 -0.082354 0
0.570000 -0.081496 0
0.575000 -0.080643 0
0.580000 -0.079794 0
0.585000 -0.078950 0
0.590000 -0.078110 0
0.595000 -0.077273 0
0.600000 -0.076441 0
0.605000 -0.075613 0
0.610000 -0.074790 0
0.615000 -0.073970 0
0.620000 -0.073154 0
0.625000 -0.072342 0
0.630000 -0.071534 0
0.635000 -0.070728 0
0.640000 -0.069926 0
0.645000 -0.069125 0
0.650000 -0.068324 0
0.655000 -0.067520 0
0.660000 -0.066709 0
0.665000 -0.065885 0
0.670000 -0.065039 0
0.675000 -0.064156 0
0.680000 -0.063216 0
0.685000 -0.062190 0
0.690000 -0.061040 0
0.695000 -0.059711 0
0.700000 -0.058132 0
0.705000 -0.056211 0
0.710000 -0.053834 0
0.715000 -0.050860 0
0.720000 -0.047121 0
0.725000 -0.042426 0
0.730000 -0.036564 0
0.735000 -0.029312 0
0.740000 -0.020448 0
0.745000 -0.009767 0
0.750000 0.002897 0
0.755000 0.017650 0
0.760000 0.034513 0
0.765000 0.053400 0
0.770000 0.074097 0
0.775000 0.096251 0
0.780000 0.119371 0
0.785000 0.142830 0
0.790000 0.165893 0
0.795000 0.187750 0
0.800000 0.207558 0
0.805000 0.224496 0
0.810000 0.237823 0
0.815000 0.246926 0
0.820000 0.251371 1
0.825000 0.250936 0
0.830000 0.245626 0
0.835000 0.235680 0
0.840000 0.221544 0
0.845000 0.203847 0
0.850000 0.183347 0
0.855000 0.160880 0
0.860000 0.137307 0
0.865000 0.113453 0
0.870000 0.090068 0
0.875000 0.067784 0
0.880000 0.047092 0
0.885000 0.028311 0
0.890000 0.011548 0
0.895000 -0.003377 0
0.900000 -0.017071 0
0.905000 -0.030738 0
0.910000 -0.046287 0
0.915000 -0.066160 0
0.920000 -0.092603 0
0.925000 -0.126333 0
0.930000 -0.164928 0
0.935000 -0.201727 0
0.940000 -0.225985 2
0.945000 -0.224404 0
0.950000 -0.183358 0
0.955000 -0.091144 0
0.960000 0.059466 0
0.965000 0.267289 0
0.970000 0.517404 0
0.975000 0.777344 0
0.980000 0.999806 0
0.985000 1.134694 0
0.990000 1.146978 3
0.995000 1.030331 0
1.000000 0.811229 0
1.005000 0.537619 0
1.010000 0.260381 0
1.015000 0.018987 0
1.020000 -0.163806 0
1.025000 -0.280082 0
1.030000 -0.332744 4
1.035000 -0.332422 0
1.040000 -0.295045 0
1.045000 -0.238654 0
1.050000 -0.179399 0
1.055000 -0.128249 0
1.060000 -0.089899 0
1.065000 -0.063981 0
1.070000 -0.047428 0
1.075000 -0.036632 0
1.080000 -0.028674 0
1.085000 -0.021652 0
1.090000 -0.014502 0
1.095000 -0.006685 0
1.100000 0.002065 0
1.105000 0.011895 0
1.110000 0.022895 0
1.115000 0.035132 0
1.120000 0.048651 0
1.125000 0.063477 0
1.130000 0.079611 0
1.135000 0.097028 0
1.140000 0.115673 0
1.145000 0.135456 0
1.150000 0.156255 0
1.155000 0.177910 0
1.160000 0.200229 0
1.165000 0.222983 0
1.170000 0.245912 0
1.175000 0.268731 0
1.180000 0.291129 0
1.185000 0.312781 0
1.190000 0.333354 0
1.195000 0.352514 0
1.200000 0.369933 0
1.205000 0.385304 0
1.210000 0.398344 0
1.215000 0.408803 0
1.220000 0.416476 0
1.225000 0.421204 0
1.230000 0.422883 5
1.235000 0.421464 0
1.240000 0.416959 0
1.245000 0.409436 0
1.250000 0.399022 0
1.255000 0.385896 0
1.260000 0.370282 0
1.265000 0.352449 0
1.270000 0.332694 0
1.275000 0.311343 0
1.280000 0.288734 0
1.285000 0.265213 0
1.290000 0.241122 0
1.295000 0.216795 0
1.300000 0.192545 0
1.305000 0.168662 0
1.310000 0.145407 0
1.315000 0.123005 0
1.320000 0.101648 0
1.325000 0.081490 0
1.330000 0.062649 0
1.335000 0.045205 0
1.340000 0.029205 0
1.345000 0.014666 0
1.350000 0.001577 0
1.355000 -0.010096 0
1.360000 -0.020409 0
1.365000 -0.029433 0
1.370000 -0.037248 0
1.375000 -0.043946 0
1.380000 -0.049623 0
1.385000 -0.054375 0
1.390000 -0.058298 0
1.395000 -0.061488 0
1.400000 -0.064032 0
1.405000 -0.066016 0
1.410000 -0.067517 0
1.415000 -0.068604 0
1.420000 -0.069342 0
1.425000 -0.069787 0
1.430000 -0.069988 0
1.435000 -0.069988 0
1.440000 -0.069823 0
1.445000 -0.069526 0
1.450000 -0.069122 0
1.455000 -0.068633 0
1.460000 -0.068078 0
1.465000 -0.067470 0
1.470000 -0.066824 0
1.475000 -0.066147 0
1.480000 -0.065437 0
1.485000 -0.064664 0
1.490000 -0.063895 0
1.495000 -0.063129 0
1.500000 -0.062368 0
1.505000 -0.061610 0
1.510000 -0.060857 0
1.515000 -0.060106 0
1.520000 -0.059360 0
1.525000 -0.058617 0
1.530000 -0.057878 0
1.535000 -0.057143 0
1.540000 -0.056412 0
1.545000 -0.055684 0
1.550000 -0.054959 0
1.555000 -0.054239 0
1.560000 -0.053522 0
1.565000 -0.052808 0
1.570000 -0.052098 0
1.575000 -0.051392 0
1.580000 -0.050689 0
1.585000 -0.049989 0
1.590000 -0.049293 0
1.595000 -0.048601 0
1.600000 -0.047912 0
1.605000 -0.047226 0
1.610000 -0.046543 0
1.615000 -0.045862 0
1.620000 -0.045184 0
1.625000 -0.044508 0
1.630000 -0.043831 0
1.635000 -0.043152 0
1.640000 -0.042468 0
1.645000 -0.041771 0
1.650000 -0.041055 0
1.655000 -0.040307 0
1.660000 -0.039508 0
1.665000 -0.038632 0
1.670000 -0.037642 0
1.675000 -0.036487 0
1.680000 -0.035102 0
1.685000 -0.033398 0
1.690000 -0.031264 0
1.695000 -0.028564 0
1.700000 -0.025133 0
1.705000 -0.020782 0
1.710000 -0.015298 0
1.715000 -0.008456 0
1.720000 -0.000029 0
1.725000 0.010199 0
1.730000 0.022404 0
1.735000 0.036709 0
1.740000 0.053149 0
1.745000 0.071654 0
1.750000 0.092026 0
1.755000 0.113925 0
1.760000 0.136865 0
1.765000 0.160222 0
1.770000 0.183256 0
1.775000 0.205145 0
1.780000 0.225030 0
1.785000 0.242072 0
1.790000 0.255506 0
1.795000 0.264699 0
1.800000 0.269201 1
1.805000 0.268778 0
1.810000 0.263430 0
1.815000 0.253396 0
1.820000 0.239135 0
1.825000 0.221286 0
1.830000 0.200626 0
1.835000 0.178010 0
1.840000 0.154313 0
1.845000 0.130376 0
1.850000 0.106956 0
1.855000 0.084691 0
1.860000 0.064067 0
1.865000 0.045393 0
1.870000 0.028752 0
1.875000 0.013921 0
1.880000 0.000217 0
1.885000 -0.013680 0
1.890000 -0.029815 0
1.895000 -0.050709 0
1.900000 -0.078507 0
1.905000 -0.113504 0
1.910000 -0.152500 0
1.915000 -0.187847 0
1.920000 -0.207906 2
1.925000 -0.198846 0
1.930000 -0.147009 0
1.935000 -0.041250 0
1.940000 0.124171 0
1.945000 0.345047 0
1.950000 0.601677 0
1.955000 0.856191 0
1.960000 1.057939 0
1.965000 1.158401 3
1.970000 1.129765 0
1.975000 0.976840 0
1.980000 0.734947 0
1.985000 0.455010 0
1.990000 0.185569 0
1.995000 -0.038970 0
2.000000 -0.200918 0
2.005000 -0.296208 0
2.010000 -0.330491 4
2.015000 -0.316398 0
2.020000 -0.270974 0
2.025000 -0.212128 0
2.030000 -0.154640 0
2.035000 -0.107459 0
2.040000 -0.073421 0
2.045000 -0.051002 0
2.050000 -0.036752 0
2.055000 -0.027197 0
2.060000 -0.019744 0
2.065000 -0.012797 0
2.070000 -0.005501 0
2.075000 0.002574 0
2.080000 0.011641 0
2.085000 0.021822 0
2.090000 0.033201 0
2.095000 0.045835 0
2.100000 0.059764 0
2.105000 0.075005 0
2.110000 0.091550 0
2.115000 0.109364 0
2.120000 0.128380 0
2.125000 0.148498 0
2.130000 0.169582 0
2.135000 0.191462 0
2.140000 0.213930 0
2.145000 0.236747 0
2.150000 0.259642 0
2.155000 0.282321 0
2.160000 0.304467 0
2.165000 0.325749 0
2.170000 0.345833 0
2.175000 0.364385 0
2.180000 0.381083 0
2.185000 0.395627 0
2.190000 0.407744 0
2.195000 0.417199 0
2.200000 0.423802 0
2.205000 0.427413 0
2.210000 0.427947 5
2.215000 0.425379 0
2.220000 0.419739 0
2.225000 0.411118 0
2.230000 0.399663 0
2.235000 0.385570 0
2.240000 0.369081 0
2.245000 0.350476 0
2.250000 0.330066 0
2.255000 0.308183 0
2.260000 0.285169 0
2.265000 0.261370 0
2.270000 0.237127 0
2.275000 0.212768 0
2.280000 0.188598 0
2.285000 0.164897 0
2.290000 0.141914 0
2.295000 0.119863 0
2.300000 0.098921 0
2.305000 0.079228 0
2.310000 0.060888 0
2.315000 0.043968 0
2.320000 0.028505 0
2.325000 0.014503 0
2.330000 0.001941 0
2.335000 -0.009223 0
2.340000 -0.019050 0
2.345000 -0.027617 0
2.350000 -0.035010 0
2.355000 -0.041321 0
2.360000 -0.046648 0
2.365000 -0.051086 0
2.370000 -0.054734 0
2.375000 -0.057682 0
2.380000 -0.060018 0
2.385000 -0.061825 0
2.390000 -0.063177 0
2.395000 -0.064141 0
2.400000 -0.064779 0
2.405000 -0.065144 0
2.410000 -0.065283 0
2.415000 -0.065236 0
2.420000 -0.065037 0
2.425000 -0.064717 0
2.430000 -0.064299 0
2.435000 -0.063804 0
2.440000 -0.063249 0
2.445000 -0.062647 0
2.450000 -0.062010 0
2.455000 -0.061346 0
2.460000 -0.060606 0
2.465000 -0.059857 0
2.470000 -0.059112 0
2.475000 -0.058371 0
2.480000 -0.057633 0
2.485000 -0.056899 0
2.490000 -0.056169 0
2.495000 -0.055442 0
2.500000 -0.054719 0
2.505000 -0.053999 0
2.510000 -0.053283 0
2.515000 -0.052571 0
2.520000 -0.051862 0
2.525000 -0.051157 0
2.530000 -0.050455 0
2.535000 -0.049757 0
2.540000 -0.049062 0
2.545000 -0.048371 0
2.550000 -0.047683 0
2.555000 -0.046999 0
2.560000 -0.046318 0
2.565000 -0.045640 0
2.570000 -0.044966 0
2.575000 -0.044295 0
2.580000 -0.043627 0
2.585000 -0.042962 0
2.590000 -0.042300 0
2.595000 -0.041641 0
2.600000 -0.040983 0
2.605000 -0.040326 0
2.610000 -0.039668 0
2.615000 -0.039007 0
2.620000 -0.038337 0
2.625000 -0.037652 0
2.630000 -0.036942 0
2.635000 -0.036192 0
2.640000 -0.035381 0
2.645000 -0.034477 0
2.650000 -0.033439 0
2.655000 -0.032207 0
2.660000 -0.030707 0
2.665000 -0.028841 0
2.670000 -0.026485 0
2.675000 -0.023489 0
2.680000 -0.019678 0
2.685000 -0.014850 0
2.690000 -0.008786 0
2.695000 -0.001255 0
2.700000 0.007965 0
2.705000 0.019075 0
2.710000 0.032231 0
2.715000 0.047517 0
2.720000 0.064923 0
2.725000 0.084321 0
2.730000 0.105445 0
2.735000 0.127888 0
2.740000 0.151094 0
2.745000 0.174380 0
2.750000 0.196961 0
2.755000 0.217990 0
2.760000 0.236606 0
2.765000 0.251999 0
2.770000 0.263457 0
2.775000 0.270430 0
2.780000 0.272565 1
2.785000 0.269740 0
2.790000 0.262073 0
2.795000 0.249910 0
2.800000 0.233806 0
2.805000 0.214474 0
2.810000 0.192737 0
2.815000 0.169471 0
2.820000 0.145541 0
2.825000 0.121754 0
2.830000 0.098816 0
2.835000 0.077293 0
2.840000 0.057589 0
2.845000 0.039911 0
2.850000 0.024204 0
2.855000 0.010038 0
2.860000 -0.003567 0
2.865000 -0.018297 0
2.870000 -0.036503 0
2.875000 -0.060674 0
2.880000 -0.092244 0
2.885000 -0.129935 0
2.890000 -0.168344 0
2.895000 -0.197637 0
2.900000 -0.204762 2
2.905000 -0.175650 0
2.910000 -0.097591 0
2.915000 0.038282 0
2.920000 0.233333 0
2.925000 0.476071 0
2.930000 0.737387 0
2.935000 0.971458 0
2.940000 1.126304 0
2.945000 1.161840 3
2.950000 1.066919 0
2.955000 0.863809 0
2.960000 0.596822 0
2.965000 0.316488 0
2.970000 0.064482 0
2.975000 -0.133303 0
2.980000 -0.266086 0
2.985000 -0.334435 0
2.990000 -0.347010 4
2.995000 -0.318236 0
3.000000 -0.265543 0
3.005000 -0.205660 0
3.010000 -0.151083 0
3.015000 -0.108310 0
3.020000 -0.078375 0
3.025000 -0.058905 0
3.030000 -0.046368 0
3.035000 -0.037590 0
3.040000 -0.030341 0
3.045000 -0.023301 0
3.050000 -0.015774 0
3.055000 -0.007413 0
3.060000 0.001960 0
3.065000 0.012454 0
3.070000 0.024142 0
3.075000 0.037078 0
3.080000 0.051296 0
3.085000 0.066808 0
3.090000 0.083603 0
3.095000 0.101642 0
3.100000 0.120855 0
3.105000 0.141140 0
3.110000 0.162361 0
3.115000 0.184347 0
3.120000 0.206895 0
3.125000 0.229767 0
3.130000 0.252700 0
3.135000 0.275404 0
3.140000 0.297570 0
3.145000 0.318876 0
3.150000 0.338995 0
3.155000 0.357603 0
3.160000 0.374386 0
3.165000 0.389050 0
3.170000 0.401328 0
3.175000 0.410990 0
3.180000 0.417848 0
3.185000 0.421760 0
3.190000 0.422641 5
3.195000 0.420458 0
3.200000 0.415237 0
3.205000 0.407057 0
3.210000 0.396055 0
3.215000 0.382414 0
3.220000 0.366365 0
3.225000 0.348175 0
3.230000 0.328140 0
3.235000 0.306581 0
3.240000 0.283831 0
3.245000 0.260226 0
3.250000 0.236102 0
3.255000 0.211780 0
3.260000 0.187566 0
3.265000 0.163740 0
3.270000 0.140553 0
3.275000 0.118225 0
3.280000 0.096940 0
3.285000 0.076847 0
3.290000 0.058058 0
3.295000 0.040652 0
3.300000 0.024675 0
3.305000 0.010142 0
3.310000 -0.002956 0
3.315000 -0.014654 0
3.320000 -0.025005 0
3.325000 -0.034076 0
3.330000 -0.041948 0
3.335000 -0.048708 0
3.340000 -0.054450 0
3.345000 -0.059268 0
3.350000 -0.063257 0
3.355000 -0.066510 0
3.360000 -0.069113 0
3.365000 -0.071150 0
3.370000 -0.072698 0
3.375000 -0.073827 0
3.380000 -0.074599 0
3.385000 -0.075071 0
3.390000 -0.075293 0
3.395000 -0.075308 0
3.400000 -0.075153 0
3.405000 -0.074859 0
3.410000 -0.074454 0
3.415000 -0.073960 0
3.420000 -0.073396 0
3.425000 -0.072778 0
3.430000 -0.072116 0
3.435000 -0.071423 0
3.440000 -0.070693 0
3.445000 -0.069894 0
3.450000 -0.069098 0
3.455000 -0.068307 0
3.460000 -0.067520 0
3.465000 -0.066737 0
3.470000 -0.065957 0
3.475000 -0.065182 0
3.480000 -0.064410 0
3.485000 -0.063642 0
3.490000 -0.062878 0
3.495000 -0.062118 0
3.500000 -0.061362 0
3.505000 -0.060609 0
3.510000 -0.059860 0
3.515000 -0.059115 0
3.520000 -0.058373 0
3.525000 -0.057636 0
3.530000 -0.056902 0
3.535000 -0.056171 0
3.540000 -0.055445 0
3.545000 -0.054721 0
3.550000 -0.054002 0
3.555000 -0.053286 0
3.560000 -0.052573 0
3.565000 -0.051864 0
3.570000 -0.051158 0
3.575000 -0.050456 0
3.580000 -0.049756 0
3.585000 -0.049058 0
3.590000 -0.048361 0
3.595000 -0.047664 0
3.600000 -0.046963 0
3.605000 -0.046256 0
3.610000 -0.045536 0
3.615000 -0.044793 0
3.620000 -0.044014 0
3.625000 -0.043181 0
3.630000 -0.042263 0
3.635000 -0.041224 0
3.640000 -0.040011 0
3.645000 -0.038554 0
3.650000 -0.036764 0
3.655000 -0.034529 0
3.660000 -0.031710 0
3.665000 -0.028144 0
3.670000 -0.023640 0
3.675000 -0.017991 0
3.680000 -0.010976 0
3.685000 -0.002371 0
3.690000 0.008029 0
3.695000 0.020395 0
3.700000 0.034840 0
3.705000 0.051393 0
3.710000 0.069981 0
3.715000 0.090405 0
3.720000 0.112330 0
3.725000 0.135278 0
3.730000 0.158642 0
3.735000 0.181699 0
3.740000 0.203647 0
3.745000 0.223648 0
3.750000 0.240880 0
3.755000 0.254591 0
3.760000 0.264152 0
3.765000 0.269107 0
3.770000 0.269207 1
3.775000 0.264427 0
3.780000 0.254977 0
3.785000 0.241275 0
3.790000 0.223927 0
3.795000 0.203673 0
3.800000 0.181341 0
3.805000 0.157785 0
3.810000 0.133838 0
3.815000 0.110259 0
3.820000 0.087697 0
3.825000 0.066663 0
3.830000 0.047501 0
3.835000 0.030355 0
3.840000 0.015094 0
3.845000 0.001190 0
3.850000 -0.012453 0
3.855000 -0.027630 0
3.860000 -0.046721 0
3.865000 -0.072071 0
3.870000 -0.104751 0
3.875000 -0.142960 0
3.880000 -0.180788 0
3.885000 -0.208136 0
3.890000 -0.212037 2
3.895000 -0.178807 0
3.900000 -0.096293 0
3.905000 0.043716 0
3.910000 0.241890 0
3.915000 0.486185 0
3.920000 0.747455 0
3.925000 0.980632 0
3.930000 1.135040 0
3.935000 1.171653 3
3.940000 1.079180 0
3.945000 0.878600 0
3.950000 0.613039 0
3.955000 0.332241 0
3.960000 0.077791 0
3.965000 -0.123985 0
3.970000 -0.261648 0
3.975000 -0.335069 0
3.980000 -0.352195 4
3.985000 -0.326782 0
3.990000 -0.275814 0
3.995000 -0.215996 0
4.000000 -0.160233 0
4.005000 -0.115673 0
4.010000 -0.083958 0
4.015000 -0.063092 0
4.020000 -0.049656 0
4.025000 -0.040413 0
4.030000 -0.033002 0
4.035000 -0.025984 0
4.040000 -0.018583 0
4.045000 -0.010409 0
4.050000 -0.001261 0
4.055000 0.008978 0
4.060000 0.020385 0
4.065000 0.033017 0
4.070000 0.046913 0
4.075000 0.062089 0
4.080000 0.078542 0
4.085000 0.096241 0
4.090000 0.115125 0
4.095000 0.135104 0
4.100000 0.156053 0
4.105000 0.177817 0
4.110000 0.200204 0
4.115000 0.222992 0
4.120000 0.245931 0
4.125000 0.268743 0
4.130000 0.291132 0
4.135000 0.312785 0
4.140000 0.333382 0
4.145000 0.352602 0
4.150000 0.370132 0
4.155000 0.385675 0
4.160000 0.398958 0
4.165000 0.409738 0
4.170000 0.417811 0
4.175000 0.423021 0
4.180000 0.425257 5
4.185000 0.424465 0
4.190000 0.420642 0
4.195000 0.413843 0
4.200000 0.404176 0
4.205000 0.391800 0
4.210000 0.376919 0
4.215000 0.359778 0
4.220000 0.340655 0
4.225000 0.319854 0
4.230000 0.297695 0
4.235000 0.274509 0
4.240000 0.250628 0
4.245000 0.226374 0
4.250000 0.202059 0
4.255000 0.177972 0
4.260000 0.154377 0
4.265000 0.131509 0
4.270000 0.109569 0
4.275000 0.088725 0
4.280000 0.069108 0
4.285000 0.050819 0
4.290000 0.033920 0
4.295000 0.018447 0
4.300000 0.004405 0
4.305000 -0.008223 0
4.310000 -0.019478 0
4.315000 -0.029417 0
4.320000 -0.038110 0
4.325000 -0.045640 0
4.330000 -0.052094 0
4.335000 -0.057565 0
4.340000 -0.062145 0
4.345000 -0.065928 0
4.350000 -0.069003 0
4.355000 -0.071455 0
4.360000 -0.073364 0
4.365000 -0.074804 0
4.370000 -0.075843 0
4.375000 -0.076541 0
4.380000 -0.076952 0
4.385000 -0.077124 0
4.390000 -0.077097 0
4.395000 -0.076908 0
4.400000 -0.076586 0
4.405000 -0.076157 0
4.410000 -0.075644 0
4.415000 -0.075063 0
4.420000 -0.074430 0
4.425000 -0.073756 0
4.430000 -0.073051 0
4.435000 -0.072311 0
4.440000 -0.071503 0
4.445000 -0.070700 0
4.450000 -0.069901 0
4.455000 -0.069106 0
4.460000 -0.068315 0
4.465000 -0.067527 0
4.470000 -0.066744 0
4.475000 -0.065964 0
4.480000 -0.065189 0
4.485000 -0.064417 0
4.490000 -0.063649 0
4.495000 -0.062885 0
4.500000 -0.062125 0
4.505000 -0.061369 0
4.510000 -0.060616 0
4.515000 -0.059867 0
4.520000 -0.059122 0
4.525000 -0.058380 0
4.530000 -0.057643 0
4.535000 -0.056908 0
4.540000 -0.056178 0
4.545000 -0.055451 0
4.550000 -0.054728 0
4.555000 -0.054008 0
4.560000 -0.053292 0
4.565000 -0.052579 0
4.570000 -0.051869 0
4.575000 -0.051163 0
4.580000 -0.050458 0
4.585000 -0.049755 0
4.590000 -0.049051 0
4.595000 -0.048345 0
4.600000 -0.047634 0
4.605000 -0.046911 0
4.610000 -0.046168 0
4.615000 -0.045393 0
4.620000 -0.044568 0
4.625000 -0.043668 0
4.630000 -0.042659 0
4.635000 -0.041491 0
4.640000 -0.040103 0
4.645000 -0.038411 0
4.650000 -0.036312 0
4.655000 -0.033678 0
4.660000 -0.030354 0
4.665000 -0.026163 0
4.670000 -0.020905 0
4.675000 -0.014365 0
4.680000 -0.006325 0
4.685000 0.003427 0
4.690000 0.015071 0
4.695000 0.028743 0
4.700000 0.044504 0
4.705000 0.062323 0
4.710000 0.082053 0
4.715000 0.103419 0
4.720000 0.126010 0
4.725000 0.149278 0
4.730000 0.172559 0
4.735000 0.195093 0
4.740000 0.216068 0
4.745000 0.234663 0
4.750000 0.250099 0
4.755000 0.261697 0
4.760000 0.268924 0
4.765000 0.271431 1
4.770000 0.269086 0
4.775000 0.261978 0
4.780000 0.250418 0
4.785000 0.234910 0
4.790000 0.216116 0
4.795000 0.194811 0
4.800000 0.171826 0
4.805000 0.147997 0
4.810000 0.124117 0
4.815000 0.100888 0
4.820000 0.078896 0
4.825000 0.058579 0
4.830000 0.040201 0
4.835000 0.023809 0
4.840000 0.009145 0
4.845000 -0.004497 0
4.850000 -0.018436 0
4.855000 -0.034671 0
4.860000 -0.055629 0
4.865000 -0.083360 0
4.870000 -0.118169 0
4.875000 -0.157094 0
4.880000 -0.192998 0
4.885000 -0.214921 2
4.890000 -0.209685 0
4.895000 -0.164051 0
4.900000 -0.066878 0
4.905000 0.088363 0
4.910000 0.299662 0
4.915000 0.551326 0
4.920000 0.810586 0
4.925000 1.030658 0
4.930000 1.162687 0
4.935000 1.172949 3
4.940000 1.056034 0
4.945000 0.837394 0
4.950000 0.564102 0
4.955000 0.286282 0
4.960000 0.043114 0
4.965000 -0.142495 0
4.970000 -0.262240 0
4.975000 -0.318525 0
4.980000 -0.321417 4
4.985000 -0.286308 0
4.990000 -0.230913 0
4.995000 -0.171421 0
5.000000 -0.119179 0
5.005000 -0.079413 0
5.010000 -0.052203 0
5.015000 -0.034724 0
5.020000 -0.023405 0
5.025000 -0.015248 0
5.030000 -0.008241 0
5.035000 -0.001233 0
5.040000 0.006372 0
5.045000 0.014868 0
5.050000 0.024411 0
5.055000 0.035101 0
5.060000 0.047004 0
5.065000 0.060170 0
5.070000 0.074628 0
5.075000 0.090385 0
5.080000 0.107422 0
5.085000 0.125692 0
5.090000 0.145116 0
5.095000 0.165581 0
5.100000 0.186942 0
5.105000 0.209017 0
5.110000 0.231592 0
5.115000 0.254420 0
5.120000 0.277228 0
5.125000 0.299717 0
5.130000 0.321572 0
5.135000 0.342467 0
5.140000 0.362073 0
5.145000 0.380066 0
5.150000 0.396135 0
5.155000 0.409992 0
5.160000 0.421380 0
5.165000 0.430078 0
5.170000 0.435914 0
5.175000 0.438761 5
5.180000 0.438551 0
5.185000 0.435269 0
5.190000 0.428961 0
5.195000 0.419726 0
5.200000 0.407717 0
5.205000 0.393137 0
5.210000 0.376230 0
5.215000 0.357276 0
5.220000 0.336583 0
5.225000 0.314479 0
5.230000 0.291302 0
5.235000 0.267390 0
5.240000 0.243077 0
5.245000 0.218681 0
5.250000 0.194501 0
5.255000 0.170809 0
5.260000 0.147844 0
5.265000 0.125816 0
5.270000 0.104896 0
5.275000 0.085219 0
5.280000 0.066886 0
5.285000 0.049961 0
5.290000 0.034480 0
5.295000 0.020447 0
5.300000 0.007842 0
5.305000 -0.003378 0
5.310000 -0.013272 0
5.315000 -0.021915 0
5.320000 -0.029390 0
5.325000 -0.035788 0
5.330000 -0.041204 0
5.335000 -0.045735 0
5.340000 -0.049473 0
5.345000 -0.052510 0
5.350000 -0.054933 0
5.355000 -0.056822 0
5.360000 -0.058251 0
5.365000 -0.059288 0
5.370000 -0.059994 0
5.375000 -0.060422 0
5.380000 -0.060619 0
5.385000 -0.060624 0
5.390000 -0.060475 0
5.395000 -0.060199 0
5.400000 -0.059822 0
5.405000 -0.059365 0
5.410000 -0.058845 0
5.415000 -0.058276 0
5.420000 -0.057669 0
5.425000 -0.057033 0
5.430000 -0.056316 0
5.435000 -0.055589 0
5.440000 -0.054865 0
5.445000 -0.054145 0
5.450000 -0.053428 0
5.455000 -0.052715 0
5.460000 -0.052005 0
5.465000 -0.051299 0
5.470000 -0.050597 0
5.475000 -0.049898 0
5.480000 -0.049203 0
5.485000 -0.048511 0
5.490000 -0.047822 0
5.495000 -0.047137 0
5.500000 -0.046455 0
5.505000 -0.045777 0
5.510000 -0.045102 0
5.515000 -0.044431 0
5.520000 -0.043762 0
5.525000 -0.043098 0
5.530000 -0.042436 0
5.535000 -0.041778 0
5.540000 -0.041123 0
5.545000 -0.040471 0
5.550000 -0.039822 0
5.555000 -0.039177 0
5.560000 -0.038534 0
5.565000 -0.037894 0
5.570000 -0.037256 0
5.575000 -0.036619 0
5.580000 -0.035982 0
5.585000 -0.035343 0
5.590000 -0.034699 0
5.595000 -0.034044 0
5.600000 -0.033370 0
5.605000 -0.032667 0
5.610000 -0.031916 0
5.615000 -0.031094 0
5.620000 -0.030166 0
5.625000 -0.029086 0
5.630000 -0.027790 0
5.635000 -0.026198 0
5.640000 -0.024205 0
5.645000 -0.021682 0
5.650000 -0.018474 0
5.655000 -0.014400 0
5.660000 -0.009256 0
5.665000 -0.002824 0
5.670000 0.005122 0
5.675000 0.014797 0
5.680000 0.026389 0
5.685000 0.040033 0
5.690000 0.055794 0
5.695000 0.073636 0
5.700000 0.093404 0
5.705000 0.114809 0
5.710000 0.137422 0
5.715000 0.160671 0
5.720000 0.183867 0
5.725000 0.206225 0
5.730000 0.226908 0
5.735000 0.245077 0
5.740000 0.259947 0
5.745000 0.270839 0
5.750000 0.277236 0
5.755000 0.278816 1
5.760000 0.275486 0
5.765000 0.267382 0
5.770000 0.254865 0
5.775000 0.238490 0
5.780000 0.218968 0
5.785000 0.197111 0
5.790000 0.173777 0
5.795000 0.149815 0
5.800000 0.126014 0
5.805000 0.103063 0
5.810000 0.081517 0
5.815000 0.061772 0
5.820000 0.044033 0
5.825000 0.028253 0
5.830000 0.014023 0
5.835000 0.000409 0
5.840000 -0.014207 0
5.845000 -0.032104 0
5.850000 -0.055742 0
5.855000 -0.086670 0
5.860000 -0.123941 0
5.865000 -0.162688 0
5.870000 -0.193703 0
5.875000 -0.204451 2
5.880000 -0.181125 0
5.885000 -0.110941 0
5.890000 0.015538 0
5.895000 0.201121 0
5.900000 0.437038 0
5.905000 0.697945 0
5.910000 0.941442 0
5.915000 1.116440 0
5.920000 1.179664 3
5.925000 1.111839 0
5.930000 0.926338 0
5.935000 0.666302 0
5.940000 0.384959 0
5.945000 0.128044 0
5.950000 -0.075249 0
5.955000 -0.212306 0
5.960000 -0.283079 0
5.965000 -0.296401 4
5.970000 -0.267380 0
5.975000 -0.214346 0
5.980000 -0.154752 0
5.985000 -0.101340 0
5.990000 -0.060355 0
5.995000 -0.032345 0
6.000000 -0.014516 0
6.005000 -0.003144 0
6.010000 0.004937 0
6.015000 0.011840 0
6.020000 0.018764 0
6.025000 0.026316 0
6.030000 0.034795 0
6.035000 0.044357 0
6.040000 0.055102 0
6.045000 0.067097 0
6.050000 0.080392 0
6.055000 0.095014 0
6.060000 0.110963 0
6.065000 0.128215 0
6.070000 0.146713 0
6.075000 0.166366 0
6.080000 0.187047 0
6.085000 0.208591 0
6.090000 0.230797 0
6.095000 0.253429 0
6.100000 0.276219 0
6.105000 0.298869 0
6.110000 0.321059 0
6.115000 0.342455 0
6.120000 0.362711 0
6.125000 0.381486 0
6.130000 0.398445 0
6.135000 0.413277 0
6.140000 0.425696 0
6.145000 0.435453 0
6.150000 0.442348 0
6.155000 0.446229 0
6.160000 0.447002 5
6.165000 0.444634 0
6.170000 0.439150 0
6.175000 0.430639 0
6.180000 0.419247 0
6.185000 0.405171 0
6.190000 0.388659 0
6.195000 0.369997 0
6.200000 0.349502 0
6.205000 0.327513 0
6.210000 0.304383 0
6.215000 0.280466 0
6.220000 0.256111 0
6.225000 0.231653 0
6.230000 0.207405 0
6.235000 0.183651 0
6.240000 0.160643 0
6.245000 0.138598 0
6.250000 0.117692 0
6.255000 0.098067 0
6.260000 0.079822 0
6.265000 0.063022 0
6.270000 0.047699 0
6.275000 0.033854 0
6.280000 0.021461 0
6.285000 0.010471 0
6.290000 0.000819 0
6.295000 -0.007575 0
6.300000 -0.014802 0
6.305000 -0.020959 0
6.310000 -0.026144 0
6.315000 -0.030457 0
6.320000 -0.033996 0
6.325000 -0.036854 0
6.330000 -0.039120 0
6.335000 -0.040874 0
6.340000 -0.042191 0
6.345000 -0.043138 0
6.350000 -0.043774 0
6.355000 -0.044152 0
6.360000 -0.044318 0
6.365000 -0.044309 0
6.370000 -0.044160 0
6.375000 -0.043898 0
6.380000 -0.043546 0
6.385000 -0.043124 0
6.390000 -0.042647 0
6.395000 -0.042128 0
6.400000 -0.041577 0
6.405000 -0.040991 0
6.410000 -0.040340 0
6.415000 -0.039692 0
6.420000 -0.039048 0
6.425000 -0.038406 0
6.430000 -0.037768 0
6.435000 -0.037133 0
6.440000 -0.036501 0
6.445000 -0.035873 0
6.450000 -0.035247 0
6.455000 -0.034625 0
6.460000 -0.034006 0
6.465000 -0.033389 0
6.470000 -0.032776 0
6.475000 -0.032166 0
6.480000 -0.031559 0
6.485000 -0.030955 0
6.490000 -0.030354 0
6.495000 -0.029756 0
6.500000 -0.029161 0
6.505000 -0.028569 0
6.510000 -0.027980 0
6.515000 -0.027394 0
6.520000 -0.026811 0
6.525000 -0.026230 0
6.530000 -0.025652 0
6.535000 -0.025077 0
6.540000 -0.024503 0
6.545000 -0.023931 0
6.550000 -0.023360 0
6.555000 -0.022787 0
6.560000 -0.022210 0
6.565000 -0.021625 0
6.570000 -0.021025 0
6.575000 -0.020401 0
6.580000 -0.019736 0
6.585000 -0.019009 0
6.590000 -0.018189 0
6.595000 -0.017233 0
6.600000 -0.016081 0
6.605000 -0.014656 0
6.610000 -0.012857 0
6.615000 -0.010556 0
6.620000 -0.007598 0
6.625000 -0.003803 0
6.630000 0.001039 0
6.635000 0.007154 0
6.640000 0.014777 0
6.645000 0.024137 0
6.650000 0.035434 0
6.655000 0.048820 0
6.660000 0.064370 0
6.665000 0.082055 0
6.670000 0.101721 0
6.675000 0.123071 0
6.680000 0.145656 0
6.685000 0.168878 0
6.690000 0.192011 0
6.695000 0.214231 0
6.700000 0.234660 0
6.705000 0.252425 0
6.710000 0.266715 0
6.715000 0.276843 0
6.720000 0.282298 0
6.725000 0.282791 1
6.730000 0.278274 0
6.735000 0.268948 0
6.740000 0.255246 0
6.745000 0.237799 0
6.750000 0.217388 0
6.755000 0.194884 0
6.760000 0.171187 0
6.765000 0.147166 0
6.770000 0.123610 0
6.775000 0.101183 0
6.780000 0.080395 0
6.785000 0.061574 0
6.790000 0.044814 0
6.795000 0.029892 0
6.800000 0.016110 0
6.805000 0.002107 0
6.810000 -0.014233 0
6.815000 -0.035503 0
6.820000 -0.063850 0
6.825000 -0.099395 0
6.830000 -0.138521 0
6.835000 -0.172962 0
6.840000 -0.190430 2
6.845000 -0.176614 0
6.850000 -0.117685 0
6.855000 -0.002782 0
6.860000 0.172726 0
6.865000 0.402163 0
6.870000 0.661849 0
6.875000 0.909513 0
6.880000 1.092077 0
6.885000 1.162965 3
6.890000 1.100909 0
6.895000 0.919441 0
6.900000 0.661220 0
6.905000 0.379862 0
6.910000 0.121890 0
6.915000 -0.082779 0
6.920000 -0.221079 0
6.925000 -0.292752 0
6.930000 -0.306587 4
6.935000 -0.277755 0
6.940000 -0.224718 0
6.945000 -0.165078 0
6.950000 -0.111669 0
6.955000 -0.070755 0
6.960000 -0.042846 0
6.965000 -0.025105 0
6.970000 -0.013777 0
6.975000 -0.005693 0
6.980000 0.001252 0
6.985000 0.008244 0
6.990000 0.015881 0
6.995000 0.024455 0
7.000000 0.034123 0
7.005000 0.044982 0
7.010000 0.057100 0
7.015000 0.070524 0
7.020000 0.085281 0
7.025000 0.101371 0
7.030000 0.118766 0
7.035000 0.137406 0
7.040000 0.157198 0
7.045000 0.178010 0
7.050000 0.199673 0
7.055000 0.221982 0
7.060000 0.244696 0
7.065000 0.267540 0
7.070000 0.290212 0
7.075000 0.312390 0
7.080000 0.333731 0
7.085000 0.353891 0
7.090000 0.372523 0
7.095000 0.389295 0
7.100000 0.403892 0
7.105000 0.416033 0
7.110000 0.425472 0
7.115000 0.432013 0
7.120000 0.435511 0
7.125000 0.435880 5
7.130000 0.433094 0
7.135000 0.427189 0
7.140000 0.418264 0
7.145000 0.406474 0
7.150000 0.392028 0
7.155000 0.375180 0
7.160000 0.356226 0
7.165000 0.335489 0
7.170000 0.313316 0
7.175000 0.290061 0
7.180000 0.266083 0
7.185000 0.241731 0
7.190000 0.217338 0
7.195000 0.193215 0
7.200000 0.169642 0
7.205000 0.146866 0
7.210000 0.125097 0
7.215000 0.104505 0
7.220000 0.085224 0
7.225000 0.067345 0
7.230000 0.050928 0
7.235000 0.035995 0
7.240000 0.022542 0
7.245000 0.010536 0
7.250000 -0.000075 0
7.255000 -0.009363 0
7.260000 -0.017411 0
7.265000 -0.024312 0
7.270000 -0.030164 0
7.275000 -0.035067 0
7.280000 -0.039123 0
7.285000 -0.042427 0
7.290000 -0.045073 0
7.295000 -0.047148 0
7.300000 -0.048732 0
7.305000 -0.049897 0
7.310000 -0.050710 0
7.315000 -0.051227 0
7.320000 -0.051499 0
7.325000 -0.051571 0
7.330000 -0.051479 0
7.335000 -0.051255 0
7.340000 -0.050927 0
7.345000 -0.050515 0
7.350000 -0.050038 0
7.355000 -0.049510 0
7.360000 -0.048944 0
7.365000 -0.048349 0
7.370000 -0.047675 0
7.375000 -0.046991 0
7.380000 -0.046310 0
7.385000 -0.045633 0
7.390000 -0.044958 0
7.395000 -0.044288 0
7.400000 -0.043620 0
7.405000 -0.042956 0
7.410000 -0.042295 0
7.415000 -0.041638 0
7.420000 -0.040983 0
7.425000 -0.040332 0
7.430000 -0.039685 0
7.435000 -0.039040 0
7.440000 -0.038399 0
7.445000 -0.037761 0
7.450000 -0.037126 0
7.455000 -0.036494 0
7.460000 -0.035865 0
7.465000 -0.035240 0
7.470000 -0.034618 0
7.475000 -0.033998 0
7.480000 -0.033382 0
7.485000 -0.032769 0
7.490000 -0.032158 0
7.495000 -0.031551 0
7.500000 -0.030946 0
7.505000 -0.030342 0
7.510000 -0.029740 0
7.515000 -0.029138 0
7.520000 -0.028534 0
7.525000 -0.027924 0
7.530000 -0.027303 0
7.535000 -0.026663 0
7.540000 -0.025992 0
7.545000 -0.025271 0
7.550000 -0.024474 0
7.555000 -0.023563 0
7.560000 -0.022489 0
7.565000 -0.021183 0
7.570000 -0.019553 0
7.575000 -0.017487 0
7.580000 -0.014841 0
7.585000 -0.011446 0
7.590000 -0.007103 0
7.595000 -0.001592 0
7.600000 0.005322 0
7.605000 0.013874 0
7.610000 0.024282 0
7.615000 0.036725 0
7.620000 0.051318 0
7.625000 0.068083 0
7.630000 0.086923 0
7.635000 0.107604 0
7.640000 0.129743 0
7.645000 0.152800 0
7.650000 0.176098 0
7.655000 0.198842 0
7.660000 0.220165 0
7.665000 0.239177 0
7.670000 0.255027 0
7.675000 0.266963 0
7.680000 0.274392 0
7.685000 0.276928 1
7.690000 0.274423 0
7.695000 0.266980 0
7.700000 0.254947 0
7.705000 0.238888 0
7.710000 0.219538 0
7.715000 0.197747 0
7.720000 0.174419 0
7.725000 0.150449 0
7.730000 0.126667 0
7.735000 0.103791 0
7.740000 0.082397 0
7.745000 0.062883 0
7.750000 0.045435 0
7.755000 0.029955 0
7.760000 0.015924 0
7.765000 0.002218 0
7.770000 -0.013046 0
7.775000 -0.032387 0
7.780000 -0.058266 0
7.785000 -0.091665 0
7.790000 -0.130304 0
7.795000 -0.167348 0
7.800000 -0.191510 2
7.805000 -0.188732 0
7.810000 -0.144661 0
7.815000 -0.047171 0
7.820000 0.110709 0
7.825000 0.326206 0
7.830000 0.580852 0
7.835000 0.837049 0
7.840000 1.042930 0
7.845000 1.147700 3
7.850000 1.122596 0
7.855000 0.973359 0
7.860000 0.734073 0
7.865000 0.454781 0
7.870000 0.183845 0
7.875000 -0.043905 0
7.880000 -0.210102 0
7.885000 -0.309990 0
7.890000 -0.348569 4
7.895000 -0.337853 0
7.900000 -0.294426 0
7.905000 -0.236063 0
7.910000 -0.177811 0
7.915000 -0.129160 0
7.920000 -0.093516 0
7.925000 -0.069748 0
7.930000 -0.054564 0
7.935000 -0.044464 0
7.940000 -0.036750 0
7.945000 -0.029718 0
7.950000 -0.022433 0
7.955000 -0.014425 0
7.960000 -0.005459 0
7.965000 0.004597 0
7.970000 0.015829 0
7.975000 0.028298 0
7.980000 0.042047 0
7.985000 0.057097 0
7.990000 0.073446 0
7.995000 0.091064 0
8.000000 0.109893 0
8.005000 0.129841 0
8.010000 0.150782 0
8.015000 0.172556 0
8.020000 0.194967 0
8.025000 0.217786 0
8.030000 0.240754 0
8.035000 0.263584 0
8.040000 0.285971 0
8.045000 0.307590 0
8.050000 0.328112 0
8.055000 0.347206 0
8.060000 0.364550 0
8.065000 0.379840 0
8.070000 0.392799 0
8.075000 0.403181 0
8.080000 0.410785 0
8.085000 0.415456 0
8.090000 0.417091 5
8.095000 0.415646 0
8.100000 0.411131 0
8.105000 0.403617 0
8.110000 0.393227 0
8.115000 0.380140 0
8.120000 0.364578 0
8.125000 0.346804 0
8.130000 0.327115 0
8.135000 0.305831 0
8.140000 0.283287 0
8.145000 0.259824 0
8.150000 0.235783 0
8.155000 0.211492 0
8.160000 0.187263 0
8.165000 0.163385 0
8.170000 0.140115 0
8.175000 0.117682 0
8.180000 0.096276 0
8.185000 0.076052 0
8.190000 0.057130 0
8.195000 0.039591 0
8.200000 0.023487 0
8.205000 0.008836 0
8.210000 -0.004371 0
8.215000 -0.016166 0
8.220000 -0.026600 0
8.225000 -0.035742 0
8.230000 -0.043671 0
8.235000 -0.050478 0
8.240000 -0.056255 0
8.245000 -0.061098 0
8.250000 -0.065104 0
8.255000 -0.068366 0
8.260000 -0.070972 0
8.265000 -0.073008 0
8.270000 -0.074551 0
8.275000 -0.075671 0
8.280000 -0.076432 0
8.285000 -0.076893 0
8.290000 -0.077102 0
8.295000 -0.077103 0
8.300000 -0.076934 0
8.305000 -0.076627 0
8.310000 -0.076209 0
8.315000 -0.075703 0
8.320000 -0.075126 0
8.325000 -0.074496 0
8.330000 -0.073823 0
8.335000 -0.073119 0
8.340000 -0.072379 0
8.345000 -0.071571 0
8.350000 -0.070768 0
8.355000 -0.069968 0
8.360000 -0.069173 0
8.365000 -0.068381 0
8.370000 -0.067593 0
8.375000 -0.066810 0
8.380000 -0.066030 0
8.385000 -0.065254 0
8.390000 -0.064482 0
8.395000 -0.063714 0
8.400000 -0.062949 0
8.405000 -0.062189 0
8.410000 -0.061432 0
8.415000 -0.060679 0
8.420000 -0.059930 0
8.425000 -0.059184 0
8.430000 -0.058443 0
8.435000 -0.057705 0
8.440000 -0.056970 0
8.445000 -0.056239 0
8.450000 -0.055512 0
8.455000 -0.054789 0
8.460000 -0.054069 0
8.465000 -0.053352 0
8.470000 -0.052639 0
8.475000 -0.051928 0
8.480000 -0.051221 0
8.485000 -0.050515 0
8.490000 -0.049810 0
8.495000 -0.049104 0
8.500000 -0.048394 0
8.505000 -0.047676 0
8.510000 -0.046941 0
8.515000 -0.046181 0
8.520000 -0.045380 0
8.525000 -0.044515 0
8.530000 -0.043555 0
8.535000 -0.042457 0
8.540000 -0.041162 0
8.545000 -0.039595 0
8.550000 -0.037656 0
8.555000 -0.035222 0
8.560000 -0.032145 0
8.565000 -0.028248 0
8.570000 -0.023333 0
8.575000 -0.017181 0
8.580000 -0.009567 0
8.585000 -0.000270 0
8.590000 0.010907 0
8.595000 0.024118 0
8.600000 0.039444 0
8.605000 0.056876 0
8.610000 0.076288 0
8.615000 0.097421 0
8.620000 0.119873 0
8.625000 0.143101 0
8.630000 0.166434 0
8.635000 0.189100 0
8.640000 0.210264 0
8.645000 0.229078 0
8.650000 0.244736 0
8.655000 0.256528 0
8.660000 0.263897 0
8.665000 0.266479 1
8.670000 0.264135 0
8.675000 0.256958 0
8.680000 0.245270 0
8.685000 0.229599 0
8.690000 0.210634 0
8.695000 0.189179 0
8.700000 0.166093 0
8.705000 0.142237 0
8.710000 0.118417 0
8.715000 0.095346 0
8.720000 0.073606 0
8.725000 0.053623 0
8.730000 0.035633 0
8.735000 0.019635 0
8.740000 0.005280 0
8.745000 -0.008287 0
8.750000 -0.022592 0
8.755000 -0.039851 0
8.760000 -0.062568 0
8.765000 -0.092503 0
8.770000 -0.129111 0
8.775000 -0.168035 0
8.780000 -0.200507 0
8.785000 -0.214210 2
8.790000 -0.195279 0
8.795000 -0.130620 0
8.800000 -0.010246 0
8.805000 0.169572 0
8.810000 0.401436 0
8.815000 0.661606 0
8.820000 0.908831 0
8.825000 1.091902 0
8.830000 1.165824 3
8.835000 1.110630 0
8.840000 0.939479 0
8.845000 0.689208 0
8.850000 0.408245 0
8.855000 0.141090 0
8.860000 -0.081169 0
8.865000 -0.242572 0
8.870000 -0.339409 0
8.875000 -0.376789 4
8.880000 -0.366228 0
8.885000 -0.323449 0
8.890000 -0.265356 0
8.895000 -0.206484 0
8.900000 -0.156348 0
8.905000 -0.118773 0
8.910000 -0.093139 0
8.915000 -0.076500 0
8.920000 -0.065465 0
8.925000 -0.057270 0
8.930000 -0.050082 0
8.935000 -0.042847 0
8.940000 -0.035018 0
8.945000 -0.026318 0
8.950000 -0.016598 0
8.955000 -0.005763 0
8.960000 0.006251 0
8.965000 0.019494 0
8.970000 0.033994 0
8.975000 0.049761 0
8.980000 0.066779 0
8.985000 0.085010 0
8.990000 0.104382 0
8.995000 0.124796 0
9.000000 0.146120 0
9.005000 0.168190 0
9.010000 0.190808 0
9.015000 0.213750 0
9.020000 0.236761 0
9.025000 0.259564 0
9.030000 0.281866 0
9.035000 0.303356 0
9.040000 0.323723 0
9.045000 0.342653 0
9.050000 0.359844 0
9.055000 0.375009 0
9.060000 0.387886 0
9.065000 0.398247 0
9.070000 0.405900 0
9.075000 0.410698 0
9.080000 0.412544 5
9.085000 0.411391 0
9.090000 0.407246 0
9.095000 0.400169 0
9.100000 0.390272 0
9.105000 0.377714 0
9.110000 0.362700 0
9.115000 0.345472 0
9.120000 0.326304 0
9.125000 0.305494 0
9.130000 0.283358 0
9.135000 0.260217 0
9.140000 0.236397 0
9.145000 0.212213 0
9.150000 0.187968 0
9.155000 0.163947 0
9.160000 0.140407 0
9.165000 0.117579 0
9.170000 0.095661 0
9.175000 0.074819 0
9.180000 0.055183 0
9.185000 0.036854 0
9.190000 0.019896 0
9.195000 0.004345 0
9.200000 -0.009788 0
9.205000 -0.022521 0
9.210000 -0.033889 0
9.215000 -0.043946 0
9.220000 -0.052760 0
9.225000 -0.060409 0
9.230000 -0.066977 0
9.235000 -0.072556 0
9.240000 -0.077236 0
9.245000 -0.081108 0
9.250000 -0.084260 0
9.255000 -0.086777 0
9.260000 -0.088738 0
9.265000 -0.090218 0
9.270000 -0.091283 0
9.275000 -0.091996 0
9.280000 -0.092410 0
9.285000 -0.092574 0
9.290000 -0.092530 0
9.295000 -0.092314 0
9.300000 -0.091958 0
9.305000 -0.091489 0
9.310000 -0.090929 0
9.315000 -0.090297 0
9.320000 -0.089608 0
9.325000 -0.088874 0
9.330000 -0.088107 0
9.335000 -0.087315 0
9.340000 -0.086446 0
9.345000 -0.085568 0
9.350000 -0.084695 0
9.355000 -0.083826 0
9.360000 -0.082961 0
9.365000 -0.082101 0
9.370000 -0.081245 0
9.375000 -0.080393 0
9.380000 -0.079545 0
9.385000 -0.078702 0
9.390000 -0.077863 0
9.395000 -0.077028 0
9.400000 -0.076197 0
9.405000 -0.075371 0
9.410000 -0.074548 0
9.415000 -0.073730 0
9.420000 -0.072915 0
9.425000 -0.072105 0
9.430000 -0.071299 0
9.435000 -0.070497 0
9.440000 -0.069699 0
9.445000 -0.068904 0
9.450000 -0.068114 0
9.455000 -0.067328 0
9.460000 -0.066545 0
9.465000 -0.065766 0
9.470000 -0.064991 0
9.475000 -0.064219 0
9.480000 -0.063451 0
9.485000 -0.062684 0
9.490000 -0.061919 0
9.495000 -0.061154 0
9.500000 -0.060386 0
9.505000 -0.059612 0
9.510000 -0.058826 0
9.515000 -0.058019 0
9.520000 -0.057178 0
9.525000 -0.056284 0
9.530000 -0.055313 0
9.535000 -0.054228 0
9.540000 -0.052981 0
9.545000 -0.051508 0
9.550000 -0.049727 0
9.555000 -0.047534 0
9.560000 -0.044802 0
9.565000 -0.041379 0
9.570000 -0.037089 0
9.575000 -0.031737 0
9.580000 -0.025112 0
9.585000 -0.017001 0
9.590000 -0.007197 0
9.595000 0.004476 0
9.600000 0.018151 0
9.605000 0.033890 0
9.610000 0.051666 0
9.615000 0.071341 0
9.620000 0.092654 0
9.625000 0.115211 0
9.630000 0.138487 0
9.635000 0.161843 0
9.640000 0.184543 0
9.645000 0.205798 0
9.650000 0.224802 0
9.655000 0.240787 0
9.660000 0.253070 0
9.665000 0.261104 0
9.670000 0.264518 1
9.675000 0.263141 0
9.680000 0.257020 0
9.685000 0.246416 0
9.690000 0.231782 0
9.695000 0.213738 0
9.700000 0.193017 0
9.705000 0.170425 0
9.710000 0.146782 0
9.715000 0.122880 0
9.720000 0.099434 0
9.725000 0.077052 0
9.730000 0.056209 0
9.735000 0.037222 0
9.740000 0.020212 0
9.745000 0.005042 0
9.750000 -0.008806 0
9.755000 -0.022387 0
9.760000 -0.037415 0
9.765000 -0.056162 0
9.770000 -0.080915 0
9.775000 -0.112855 0
9.780000 -0.150587 0
9.785000 -0.188928 0
9.790000 -0.218677 0
9.795000 -0.227679 2
9.800000 -0.202748 0
9.805000 -0.131755 0
9.810000 -0.005745 0
9.815000 0.178065 0
9.820000 0.411773 0
9.825000 0.672157 0
9.830000 0.919836 0
9.835000 1.106192 0
9.840000 1.187926 3
9.845000 1.143001 0
9.850000 0.979881 0
9.855000 0.733937 0
9.860000 0.453496 0
9.865000 0.183974 0
9.870000 -0.042282 0
9.875000 -0.208228 0
9.880000 -0.309413 0
9.885000 -0.350461 4
9.890000 -0.342584 0
9.895000 -0.301386 0
9.900000 -0.243872 0
9.905000 -0.184866 0
9.910000 -0.134241 0
9.915000 -0.096128 0
9.920000 -0.070085 0
9.925000 -0.053221 0
9.930000 -0.042119 0
9.935000 -0.033965 0
9.940000 -0.026878 0
9.945000 -0.019774 0
9.950000 -0.012089 0
9.955000 -0.003537 0
9.960000 0.006034 0
9.965000 0.016719 0
9.970000 0.028587 0
9.975000 0.041685 0
9.980000 0.056044 0
9.985000 0.071672 0
9.990000 0.088557 0
9.995000 0.106657 0
10.000000 0.125905 0
10.005000 0.146198 0
10.010000 0.167406 0
10.015000 0.189363 0
10.020000 0.211872 0
10.025000 0.234708 0
10.030000 0.257614 0
10.035000 0.280314 0
10.040000 0.302510 0
10.045000 0.323893 0
10.050000 0.344149 0
10.055000 0.362963 0
10.060000 0.380032 0
10.065000 0.395067 0
10.070000 0.407808 0
10.075000 0.418023 0
10.080000 0.425521 0
10.085000 0.430158 0
10.090000 0.431834 5
10.095000 0.430504 0
10.100000 0.426178 0
10.105000 0.418916 0
10.110000 0.408833 0
10.115000 0.396090 0
10.120000 0.380894 0
10.125000 0.363490 0
10.130000 0.344153 0
10.135000 0.323185 0
10.140000 0.300902 0
10.145000 0.277628 0
10.150000 0.253689 0
10.155000 0.229402 0
10.160000 0.205070 0
10.165000 0.180978 0
10.170000 0.157382 0
10.175000 0.134512 0
10.180000 0.112567 0
10.185000 0.091709 0
10.190000 0.072068 0
10.195000 0.053742 0
10.200000 0.036794 0
10.205000 0.021259 0
10.210000 0.007143 0
10.215000 -0.005570 0
10.220000 -0.016919 0
10.225000 -0.026959 0
10.230000 -0.035759 0
10.235000 -0.043399 0
10.240000 -0.049963 0
10.245000 -0.055543 0
10.250000 -0.060230 0
10.255000 -0.064116 0
10.260000 -0.067288 0
10.265000 -0.069832 0
10.270000 -0.071826 0
10.275000 -0.073345 0
10.280000 -0.074455 0
10.285000 -0.075217 0
10.290000 -0.075685 0
10.295000 -0.075906 0
10.300000 -0.075924 0
10.305000 -0.075773 0
10.310000 -0.075485 0
10.315000 -0.075086 0
10.320000 -0.074597 0
10.325000 -0.074038 0
10.330000 -0.073423 0
10.335000 -0.072765 0
10.340000 -0.072074 0
10.345000 -0.071358 0
10.350000 -0.070568 0
10.355000 -0.069769 0
10.360000 -0.068975 0
10.365000 -0.068184 0
10.370000 -0.067398 0
10.375000 -0.066615 0
10.380000 -0.065836 0
10.385000 -0.065061 0
10.390000 -0.064290 0
10.395000 -0.063523 0
10.400000 -0.062759 0
10.405000 -0.062000 0
10.410000 -0.061244 0
10.415000 -0.060492 0
10.420000 -0.059744 0
10.425000 -0.058999 0
10.430000 -0.058258 0
10.435000 -0.057521 0
10.440000 -0.056788 0
10.445000 -0.056058 0
10.450000 -0.055332 0
10.455000 -0.054609 0
10.460000 -0.053890 0
10.465000 -0.053175 0
10.470000 -0.052463 0
10.475000 -0.051754 0
10.480000 -0.051049 0
10.485000 -0.050346 0
10.490000 -0.049646 0
10.495000 -0.048948 0
10.500000 -0.048251 0
10.505000 -0.047553 0
10.510000 -0.046852 0
10.515000 -0.046142 0
10.520000 -0.045419 0
10.525000 -0.044672 0
10.530000 -0.043887 0
10.535000 -0.043044 0
10.540000 -0.042117 0
10.545000 -0.041065 0
10.550000 -0.039838 0
10.555000 -0.038367 0
10.560000 -0.036566 0
10.565000 -0.034324 0
10.570000 -0.031508 0
10.575000 -0.027961 0
10.580000 -0.023500 0
10.585000 -0.017925 0
10.590000 -0.011023 0
10.595000 -0.002578 0
10.600000 0.007609 0
10.605000 0.019708 0
10.610000 0.033836 0
10.615000 0.050036 0
10.620000 0.068253 0
10.625000 0.088321 0
10.630000 0.109940 0
10.635000 0.132683 0
10.640000 0.155990 0
10.645000 0.179189 0
10.650000 0.201527 0
10.655000 0.222198 0
10.660000 0.240400 0
10.665000 0.255380 0
10.670000 0.266484 0
10.675000 0.273209 0
10.680000 0.275234 1
10.685000 0.272450 0
10.690000 0.264964 0
10.695000 0.253097 0
10.700000 0.237356 0
10.705000 0.218400 0
10.710000 0.196993 0
10.715000 0.173953 0
10.720000 0.150102 0
10.725000 0.126213 0
10.730000 0.102977 0
10.735000 0.080968 0
10.740000 0.060616 0
10.745000 0.042184 0
10.750000 0.025723 0
10.755000 0.010992 0
10.760000 -0.002680 0
10.765000 -0.016555 0
10.770000 -0.032559 0
10.775000 -0.053065 0
10.780000 -0.080161 0
10.785000 -0.114359 0
10.790000 -0.153116 0
10.795000 -0.189865 0
10.800000 -0.214212 2
10.805000 -0.213369 0
10.810000 -0.174222 0
10.815000 -0.085406 0
10.820000 0.060384 0
10.825000 0.262853 0
10.830000 0.509215 0
10.835000 0.770304 0
10.840000 1.002107 0
10.845000 1.155748 0
10.850000 1.193673 3
10.855000 1.101672 0
10.860000 0.899363 0
10.865000 0.632103 0
10.870000 0.351805 0
10.875000 0.101057 0
10.880000 -0.094042 0
10.885000 -0.223022 0
10.890000 -0.287038 0
10.895000 -0.295518 4
10.900000 -0.263696 0
10.905000 -0.209600 0
10.910000 -0.150078 0
10.915000 -0.097216 0
10.920000 -0.056790 0
10.925000 -0.029144 0
10.930000 -0.011484 0
10.935000 -0.000162 0
10.940000 0.007910 0
10.945000 0.014804 0
10.950000 0.021701 0
10.955000 0.029207 0
10.960000 0.037619 0
10.965000 0.047097 0
10.970000 0.057737 0
10.975000 0.069610 0
10.980000 0.082763 0
10.985000 0.097225 0
10.990000 0.113002 0
10.995000 0.130070 0
11.000000 0.148379 0
11.005000 0.167844 0
11.010000 0.188346 0
11.015000 0.209731 0
11.020000 0.231807 0
11.025000 0.254350 0
11.030000 0.277103 0
11.035000 0.299781 0
11.040000 0.322075 0
11.045000 0.343661 0
11.050000 0.364203 0
11.055000 0.383364 0
11.060000 0.400817 0
11.065000 0.416249 0
11.070000 0.429371 0
11.075000 0.439932 0
11.080000 0.447718 0
11.085000 0.452566 0
11.090000 0.454366 5
11.095000 0.453063 0
11.100000 0.448664 0
11.105000 0.441234 0
11.110000 0.430894 0
11.115000 0.417819 0
11.120000 0.402232 0
11.125000 0.384400 0
11.130000 0.364620 0
11.135000 0.343216 0
11.140000 0.320529 0
11.145000 0.296906 0
11.150000 0.272690 0
11.155000 0.248218 0
11.160000 0.223806 0
11.165000 0.199747 0
11.170000 0.176303 0
11.175000 0.153705 0
11.180000 0.132146 0
11.185000 0.111784 0
11.190000 0.092736 0
11.195000 0.075087 0
11.200000 0.058885 0
11.205000 0.044148 0
11.210000 0.030866 0
11.215000 0.019004 0
11.220000 0.008509 0
11.225000 -0.000691 0
11.230000 -0.008677 0
11.235000 -0.015541 0
11.240000 -0.021378 0
11.245000 -0.026286 0
11.250000 -0.030361 0
11.255000 -0.033698 0
11.260000 -0.036388 0
11.265000 -0.038513 0
11.270000 -0.040154 0
11.275000 -0.041379 0
11.280000 -0.042253 0
11.285000 -0.042832 0
11.290000 -0.043167 0
11.295000 -0.043299 0
11.300000 -0.043267 0
11.305000 -0.043100 0
11.310000 -0.042827 0
11.315000 -0.042468 0
11.320000 -0.042042 0
11.325000 -0.041564 0
11.330000 -0.041046 0
11.335000 -0.040497 0
11.340000 -0.039863 0
11.345000 -0.039217 0
11.350000 -0.038575 0
11.355000 -0.037936 0
11.360000 -0.037300 0
11.365000 -0.036668 0
11.370000 -0.036038 0
11.375000 -0.035412 0
11.380000 -0.034789 0
11.385000 -0.034169 0
11.390000 -0.033552 0
11.395000 -0.032938 0
11.400000 -0.032327 0
11.405000 -0.031719 0
11.410000 -0.031114 0
11.415000 -0.030513 0
11.420000 -0.029914 0
11.425000 -0.029318 0
11.430000 -0.028725 0
11.435000 -0.028135 0
11.440000 -0.027548 0
11.445000 -0.026964 0
11.450000 -0.026383 0
11.455000 -0.025805 0
11.460000 -0.025229 0
11.465000 -0.024657 0
11.470000 -0.024086 0
11.475000 -0.023518 0
11.480000 -0.022951 0
11.485000 -0.022385 0
11.490000 -0.021818 0
11.495000 -0.021249 0
11.500000 -0.020672 0
11.505000 -0.020082 0
11.510000 -0.019471 0
11.515000 -0.018826 0
11.520000 -0.018126 0
11.525000 -0.017345 0
11.530000 -0.016444 0
11.535000 -0.015372 0
11.540000 -0.014057 0
11.545000 -0.012410 0
11.550000 -0.010317 0
11.555000 -0.007635 0
11.560000 -0.004197 0
11.565000 0.000191 0
11.570000 0.005744 0
11.575000 0.012691 0
11.580000 0.021259 0
11.585000 0.031659 0
11.590000 0.044065 0
11.595000 0.058586 0
11.600000 0.075246 0
11.605000 0.093955 0
11.610000 0.114493 0
11.615000 0.136495 0
11.620000 0.159452 0
11.625000 0.182715 0
11.630000 0.205526 0
11.635000 0.227049 0
11.640000 0.246420 0
11.645000 0.262805 0
11.650000 0.275453 0
11.655000 0.283759 0
11.660000 0.287305 1
11.665000 0.285897 0
11.670000 0.279579 0
11.675000 0.268634 0
11.680000 0.253558 0
11.685000 0.235025 0
11.690000 0.213834 0
11.695000 0.190852 0
11.700000 0.166956 0
11.705000 0.142979 0
11.710000 0.119658 0
11.715000 0.097608 0
11.720000 0.077281 0
11.725000 0.058947 0
11.730000 0.042634 0
11.735000 0.028034 0
11.740000 0.014339 0
11.745000 0.000066 0
11.750000 -0.016982 0
11.755000 -0.039353 0
11.760000 -0.068932 0
11.765000 -0.105358 0
11.770000 -0.144438 0
11.775000 -0.177470 0
11.780000 -0.192051 2
11.785000 -0.174112 0
11.790000 -0.110316 0
11.795000 0.009547 0
11.800000 0.189315 0
11.805000 0.421453 0
11.810000 0.681681 0
11.815000 0.927858 0
11.820000 1.107928 0
11.825000 1.176748 3
11.830000 1.111968 0
11.835000 0.927388 0
11.840000 0.667135 0
11.845000 0.385903 0
11.850000 0.130430 0
11.855000 -0.069865 0
11.860000 -0.202720 0
11.865000 -0.268735 0
11.870000 -0.277579 4
11.875000 -0.245232 0
11.880000 -0.190651 0
11.885000 -0.131377 0
11.890000 -0.079660 0
11.895000 -0.040948 0
11.900000 -0.015069 0
11.905000 0.001173 0
11.910000 0.011579 0
11.915000 0.019193 0
11.920000 0.025960 0
11.925000 0.032938 0
11.930000 0.040653 0
11.935000 0.049360 0
11.940000 0.059200 0
11.945000 0.070264 0
11.950000 0.082616 0
11.955000 0.096298 0
11.960000 0.111330 0
11.965000 0.127705 0
11.970000 0.145386 0
11.975000 0.164300 0
11.980000 0.184340 0
11.985000 0.205359 0
11.990000 0.227173 0
11.995000 0.249559 0
12.000000 0.272258 0
12.005000 0.294980 0
12.010000 0.317406 0
12.015000 0.339199 0
12.020000 0.360009 0
12.025000 0.379480 0
12.030000 0.397264 0
12.035000 0.413029 0
12.040000 0.426467 0
12.045000 0.437306 0
12.050000 0.445318 0
12.055000 0.450326 0
12.060000 0.452210 5
12.065000 0.450913 0
12.070000 0.446440 0
12.075000 0.438861 0
12.080000 0.428305 0
12.085000 0.414963 0
12.090000 0.399072 0
12.095000 0.380917 0
12.100000 0.360817 0
12.105000 0.339116 0
12.110000 0.316174 0
12.115000 0.292356 0
12.120000 0.268023 0
12.125000 0.243522 0
12.130000 0.219181 0
12.135000 0.195296 0
12.140000 0.172132 0
12.145000 0.149918 0
12.150000 0.128840 0
12.155000 0.109047 0
12.160000 0.090646 0
12.165000 0.073706 0
12.170000 0.058262 0
12.175000 0.044317 0
12.180000 0.031845 0
12.185000 0.020797 0
12.190000 0.011105 0
12.195000 0.002686 0
12.200000 -0.004551 0
12.205000 -0.010707 0
12.210000 -0.015884 0
12.215000 -0.020185 0
12.220000 -0.023708 0
12.225000 -0.026550 0
12.230000 -0.028801 0
12.235000 -0.030543 0
12.240000 -0.031853 0
12.245000 -0.032796 0
12.250000 -0.033435 0
12.255000 -0.033820 0
12.260000 -0.033998 0
12.265000 -0.034006 0
12.270000 -0.033879 0
12.275000 -0.033643 0
12.280000 -0.033322 0
12.285000 -0.032933 0
12.290000 -0.032493 0
12.295000 -0.032013 0
12.300000 -0.031503 0
12.305000 -0.030913 0
12.310000 -0.030312 0
12.315000 -0.029715 0
12.320000 -0.029120 0
12.325000 -0.028528 0
12.330000 -0.027939 0
12.335000 -0.027353 0
12.340000 -0.026770 0
12.345000 -0.026190 0
12.350000 -0.025613 0
12.355000 -0.025038 0
12.360000 -0.024467 0
12.365000 -0.023898 0
12.370000 -0.023333 0
12.375000 -0.022770 0
12.380000 -0.022210 0
12.385000 -0.021652 0
12.390000 -0.021098 0
12.395000 -0.020546 0
12.400000 -0.019997 0
12.405000 -0.019450 0
12.410000 -0.018907 0
12.415000 -0.018366 0
12.420000 -0.017827 0
12.425000 -0.017291 0
12.430000 -0.016758 0
12.435000 -0.016226 0
12.440000 -0.015696 0
12.445000 -0.015166 0
12.450000 -0.014636 0
12.455000 -0.014101 0
12.460000 -0.013560 0
12.465000 -0.013004 0
12.470000 -0.012426 0
12.475000 -0.011810 0
12.480000 -0.011135 0
12.485000 -0.010370 0
12.490000 -0.009475 0
12.495000 -0.008388 0
12.500000 -0.007034 0
12.505000 -0.005311 0
12.510000 -0.003089 0
12.515000 -0.000214 0
12.520000 0.003503 0
12.525000 0.008273 0
12.530000 0.014330 0
12.535000 0.021915 0
12.540000 0.031263 0
12.545000 0.042581 0
12.550000 0.056023 0
12.555000 0.071661 0
12.560000 0.089461 0
12.565000 0.109253 0
12.570000 0.130720 0
12.575000 0.153383 0
12.580000 0.176612 0
12.585000 0.199644 0
12.590000 0.221621 0
12.595000 0.241638 0
12.600000 0.258801 0
12.605000 0.272295 0
12.610000 0.281445 0
12.615000 0.285773 1
12.620000 0.285034 0
12.625000 0.279240 0
12.630000 0.268663 0
12.635000 0.253806 0
12.640000 0.235369 0
12.645000 0.214187 0
12.650000 0.191174 0
12.655000 0.167251 0
12.660000 0.143289 0
12.665000 0.120057 0
12.670000 0.098185 0
12.675000 0.078129 0
12.680000 0.060136 0
12.685000 0.044184 0
12.690000 0.029856 0
12.695000 0.016155 0
12.700000 0.001320 0
12.705000 -0.017125 0
12.710000 -0.041787 0
12.715000 -0.074056 0
12.720000 -0.112267 0
12.725000 -0.150194 0
12.730000 -0.176903 0
12.735000 -0.178288 2
12.740000 -0.139602 0
12.745000 -0.048087 0
12.750000 0.104085 0
12.755000 0.315237 0
12.760000 0.568035 0
12.765000 0.825484 0
12.770000 1.035232 0
12.775000 1.144928 3
12.780000 1.123849 0
12.785000 0.975391 0
12.790000 0.735027 0
12.795000 0.455223 0
12.800000 0.186207 0
12.805000 -0.036642 0
12.810000 -0.195482 0
12.815000 -0.286639 0
12.820000 -0.316488 4
12.825000 -0.298569 0
12.830000 -0.250775 0
12.835000 -0.191447 0
12.840000 -0.135174 0
12.845000 -0.090216 0
12.850000 -0.058592 0
12.855000 -0.038178 0
12.860000 -0.025280 0
12.865000 -0.016461 0
12.870000 -0.009296 0
12.875000 -0.002358 0
12.880000 0.005092 0
12.885000 0.013414 0
12.890000 0.022792 0
12.895000 0.033336 0
12.900000 0.045123 0
12.905000 0.058205 0
12.910000 0.072614 0
12.915000 0.088361 0
12.920000 0.105424 0
12.925000 0.123754 0
12.930000 0.143266 0
12.935000 0.163841 0
12.940000 0.185320 0
12.945000 0.207507 0
12.950000 0.230172 0
12.955000 0.253048 0
12.960000 0.275842 0
12.965000 0.298234 0
12.970000 0.319887 0
12.975000 0.340455 0
12.980000 0.359593 0
12.985000 0.376960 0
12.990000 0.392238 0
12.995000 0.405132 0
13.000000 0.415389 0
13.005000 0.422794 0
13.010000 0.427190 0
13.015000 0.428472 5
13.020000 0.426598 0
13.025000 0.421588 0
13.030000 0.413522 0
13.035000 0.402541 0
13.040000 0.388839 0
13.045000 0.372659 0
13.050000 0.354288 0
13.055000 0.334041 0
13.060000 0.312261 0
13.065000 0.289301 0
13.070000 0.265520 0
13.075000 0.241271 0
13.080000 0.216893 0
13.085000 0.192703 0
13.090000 0.168991 0
13.095000 0.146013 0
13.100000 0.123990 0
13.105000 0.103103 0
13.110000 0.083495 0
13.115000 0.065269 0
13.120000 0.048493 0
13.125000 0.033200 0
13.130000 0.019390 0
13.135000 0.007039 0
13.140000 -0.003901 0
13.145000 -0.013496 0
13.150000 -0.021829 0
13.155000 -0.028988 0
13.160000 -0.035073 0
13.165000 -0.040182 0
13.170000 -0.044417 0
13.175000 -0.047875 0
13.180000 -0.050652 0
13.185000 -0.052835 0
13.190000 -0.054507 0
13.195000 -0.055743 0
13.200000 -0.056610 0
13.205000 -0.057167 0
13.210000 -0.057467 0
13.215000 -0.057556 0
13.220000 -0.057473 0
13.225000 -0.057250 0
13.230000 -0.056916 0
13.235000 -0.056494 0
13.240000 -0.056003 0
13.245000 -0.055457 0
13.250000 -0.054871 0
13.255000 -0.054254 0
13.260000 -0.053552 0
13.265000 -0.052838 0
13.270000 -0.052128 0
13.275000 -0.051421 0
13.280000 -0.050718 0
13.285000 -0.050019 0
13.290000 -0.049323 0
13.295000 -0.048630 0
13.300000 -0.047941 0
13.305000 -0.047255 0
13.310000 -0.046573 0
13.315000 -0.045894 0
13.320000 -0.045219 0
13.325000 -0.044546 0
13.330000 -0.043878 0
13.335000 -0.043212 0
13.340000 -0.042550 0
13.345000 -0.041891 0
13.350000 -0.041236 0
13.355000 -0.040584 0
13.360000 -0.039935 0
13.365000 -0.039289 0
13.370000 -0.038646 0
13.375000 -0.038007 0
13.380000 -0.037370 0
13.385000 -0.036737 0
13.390000 -0.036106 0
13.395000 -0.035477 0
13.400000 -0.034850 0
13.405000 -0.034223 0
13.410000 -0.033595 0
13.415000 -0.032962 0
13.420000 -0.032320 0
13.425000 -0.031661 0
13.430000 -0.030974 0
13.435000 -0.030242 0
13.440000 -0.029441 0
13.445000 -0.028537 0
13.450000 -0.027482 0
13.455000 -0.026211 0
13.460000 -0.024640 0
13.465000 -0.022660 0
13.470000 -0.020135 0
13.475000 -0.016901 0
13.480000 -0.012764 0
13.485000 -0.007511 0
13.490000 -0.000906 0
13.495000 0.007285 0
13.500000 0.017289 0
13.505000 0.029294 0
13.510000 0.043432 0
13.515000 0.059746 0
13.520000 0.078169 0
13.525000 0.098499 0
13.530000 0.120384 0
13.535000 0.143318 0
13.540000 0.166649 0
13.545000 0.189607 0
13.550000 0.211332 0
13.555000 0.230936 0
13.560000 0.247552 0
13.565000 0.260400 0
13.570000 0.268850 0
13.575000 0.272467 1
13.580000 0.271050 0
13.585000 0.264649 0
13.590000 0.253563 0
13.595000 0.238314 0
13.600000 0.219606 0
13.605000 0.198272 0
13.610000 0.175210 0
13.615000 0.151322 0
13.620000 0.127458 0
13.625000 0.104363 0
13.630000 0.082646 0
13.635000 0.062743 0
13.640000 0.044890 0
13.645000 0.029054 0
13.650000 0.014816 0
13.655000 0.001191 0
13.660000 -0.013551 0
13.665000 -0.031836 0
13.670000 -0.056230 0
13.675000 -0.088157 0
13.680000 -0.126122 0
13.685000 -0.164238 0
13.690000 -0.192004 0
13.695000 -0.195708 2
13.700000 -0.160838 0
13.705000 -0.074610 0
13.710000 0.071267 0
13.715000 0.276388 0
13.720000 0.525771 0
13.725000 0.785457 0
13.730000 1.005398 0
13.735000 1.132966 3
13.740000 1.132883 0
13.745000 1.005142 0
13.750000 0.779918 0
13.755000 0.504660 0
13.760000 0.228409 0
13.765000 -0.011259 0
13.770000 -0.192802 0
13.775000 -0.308780 0
13.780000 -0.362042 0
13.785000 -0.362833 4
13.790000 -0.326512 0
13.795000 -0.270584 0
13.800000 -0.210938 0
13.805000 -0.158655 0
13.810000 -0.118802 0
13.815000 -0.091419 0
13.820000 -0.073710 0
13.825000 -0.062149 0
13.830000 -0.053766 0
13.835000 -0.046557 0
13.840000 -0.039369 0
13.845000 -0.031605 0
13.850000 -0.022964 0
13.855000 -0.013289 0
13.860000 -0.002481 0
13.865000 0.009528 0
13.870000 0.022788 0
13.875000 0.037329 0
13.880000 0.053159 0
13.885000 0.070262 0
13.890000 0.088594 0
13.895000 0.108080 0
13.900000 0.128613 0
13.905000 0.150053 0
13.910000 0.172223 0
13.915000 0.194916 0
13.920000 0.217894 0
13.925000 0.240888 0
13.930000 0.263608 0
13.935000 0.285745 0
13.940000 0.306978 0
13.945000 0.326982 0
13.950000 0.345435 0
13.955000 0.362030 0
13.960000 0.376475 0
13.965000 0.388512 0
13.970000 0.397915 0
13.975000 0.404504 0
13.980000 0.408144 0
13.985000 0.408756 5
13.990000 0.406315 0
13.995000 0.400850 0
14.000000 0.392449 0
14.005000 0.381250 0
14.010000 0.367442 0
14.015000 0.351256 0
14.020000 0.332961 0
14.025000 0.312855 0
14.030000 0.291256 0
14.035000 0.268496 0
14.040000 0.244910 0
14.045000 0.220830 0
14.050000 0.196574 0
14.055000 0.172445 0
14.060000 0.148718 0
14.065000 0.125642 0
14.070000 0.103434 0
14.075000 0.082273 0
14.080000 0.062305 0
14.085000 0.043643 0
14.090000 0.026360 0
14.095000 0.010503 0
14.100000 -0.003914 0
14.105000 -0.016903 0
14.110000 -0.028498 0
14.115000 -0.038751 0
14.120000 -0.047731 0
14.125000 -0.055517 0
14.130000 -0.062197 0
14.135000 -0.067864 0
14.140000 -0.072610 0
14.145000 -0.076531 0
14.150000 -0.079718 0
14.155000 -0.082259 0
14.160000 -0.084234 0
14.165000 -0.085722 0
14.170000 -0.086791 0
14.175000 -0.087505 0
14.180000 -0.087919 0
14.185000 -0.088082 0
14.190000 -0.088039 0
14.195000 -0.087825 0
14.200000 -0.087473 0
14.205000 -0.087009 0
14.210000 -0.086456 0
14.215000 -0.085832 0
14.220000 -0.085154 0
14.225000 -0.084433 0
14.230000 -0.083680 0
14.235000 -0.082890 0
14.240000 -0.082030 0
14.245000 -0.081174 0
14.250000 -0.080323 0
14.255000 -0.079475 0
14.260000 -0.078632 0
14.265000 -0.077794 0
14.270000 -0.076959 0
14.275000 -0.076129 0
14.280000 -0.075302 0
14.285000 -0.074480 0
14.290000 -0.073662 0
14.295000 -0.072848 0
14.300000 -0.072038 0
14.305000 -0.071232 0
14.310000 -0.070431 0
14.315000 -0.069633 0
14.320000 -0.068839 0
14.325000 -0.068049 0
14.330000 -0.067263 0
14.335000 -0.066481 0
14.340000 -0.065703 0
14.345000 -0.064928 0
14.350000 -0.064158 0
14.355000 -0.063391 0
14.360000 -0.062628 0
14.365000 -0.061869 0
14.370000 -0.061113 0
14.375000 -0.060360 0
14.380000 -0.059609 0
14.385000 -0.058860 0
14.390000 -0.058111 0
14.395000 -0.057360 0
14.400000 -0.056603 0
14.405000 -0.055835 0
14.410000 -0.055046 0
14.415000 -0.054225 0
14.420000 -0.053353 0
14.425000 -0.052404 0
14.430000 -0.051342 0
14.435000 -0.050118 0
14.440000 -0.048667 0
14.445000 -0.046903 0
14.450000 -0.044721 0
14.455000 -0.041988 0
14.460000 -0.038547 0
14.465000 -0.034214 0
14.470000 -0.028786 0
14.475000 -0.022046 0
14.480000 -0.013771 0
14.485000 -0.003751 0
14.490000 0.008192 0
14.495000 0.022187 0
14.500000 0.038285 0
14.505000 0.056438 0
14.510000 0.076482 0
14.515000 0.098115 0
14.520000 0.120901 0
14.525000 0.144266 0
14.530000 0.167518 0
14.535000 0.189878 0
14.540000 0.210519 0
14.545000 0.228615 0
14.550000 0.243393 0
14.555000 0.254191 0
14.560000 0.260506 0
14.565000 0.262028 1
14.570000 0.258672 0
14.575000 0.250577 0
14.580000 0.238103 0
14.585000 0.221801 0
14.590000 0.202371 0
14.595000 0.180617 0
14.600000 0.157383 0
14.605000 0.133511 0
14.610000 0.109779 0
14.615000 0.086872 0
14.620000 0.065342 0
14.625000 0.045589 0
14.630000 0.027823 0
14.635000 0.012015 0
14.640000 -0.002211 0
14.645000 -0.015737 0
14.650000 -0.030107 0
14.655000 -0.047526 0
14.660000 -0.070445 0
14.665000 -0.100541 0
14.670000 -0.137201 0
14.675000 -0.176083 0
14.680000 -0.208559 0
14.685000 -0.222552 2
14.690000 -0.204465 0
14.695000 -0.141414 0
14.700000 -0.023460 0
14.705000 0.153399 0
14.710000 0.382616 0
14.715000 0.641990 0
14.720000 0.892140 0
14.725000 1.083091 0
14.730000 1.169365 3
14.735000 1.129072 0
14.740000 0.970362 0
14.745000 0.727350 0
14.750000 0.447596 0
14.755000 0.176480 0
14.760000 -0.053131 0
14.765000 -0.223473 0
14.770000 -0.329398 0
14.775000 -0.374899 4
14.780000 -0.370603 0
14.785000 -0.331663 0
14.790000 -0.274912 0
14.795000 -0.215370 0
14.800000 -0.163387 0
14.805000 -0.123645 0
14.810000 -0.096133 0
14.815000 -0.078170 0
14.820000 -0.066363 0
14.825000 -0.057817 0
14.830000 -0.050545 0
14.835000 -0.043378 0
14.840000 -0.035696 0
14.845000 -0.027188 0
14.850000 -0.017687 0
14.855000 -0.007092 0
14.860000 0.004667 0
14.865000 0.017640 0
14.870000 0.031862 0
14.875000 0.047345 0
14.880000 0.064081 0
14.885000 0.082035 0
14.890000 0.101145 0
14.895000 0.121319 0
14.900000 0.142433 0
14.905000 0.164332 0
14.910000 0.186827 0
14.915000 0.209703 0
14.920000 0.232713 0
14.925000 0.255588 0
14.930000 0.278040 0
14.935000 0.299764 0
14.940000 0.320452 0
14.945000 0.339791 0
14.950000 0.357478 0
14.955000 0.373222 0
14.960000 0.386757 0
14.965000 0.397846 0
14.970000 0.406287 0
14.975000 0.411921 0
14.980000 0.414638 5
14.985000 0.414374 0
14.990000 0.411122 0
14.995000 0.404925 0
15.000000 0.395878 0
15.005000 0.384126 0
15.010000 0.369858 0
15.015000 0.353304 0
15.020000 0.334725 0
15.025000 0.314412 0
15.030000 0.292673 0
15.035000 0.269825 0
15.040000 0.246192 0
15.045000 0.222090 0
15.050000 0.197826 0
15.055000 0.173688 0
15.060000 0.149943 0
15.065000 0.126830 0
15.070000 0.104556 0
15.075000 0.083298 0
15.080000 0.063199 0
15.085000 0.044369 0
15.090000 0.026885 0
15.095000 0.010793 0
15.100000 -0.003887 0
15.105000 -0.017163 0
15.110000 -0.029062 0
15.115000 -0.039631 0
15.120000 -0.048934 0
15.125000 -0.057043 0
15.130000 -0.064042 0
15.135000 -0.070017 0
15.140000 -0.075059 0
15.145000 -0.079258 0
15.150000 -0.082703 0
15.155000 -0.085481 0
15.160000 -0.087672 0
15.165000 -0.089352 0
15.170000 -0.090591 0
15.175000 -0.091453 0
15.180000 -0.091994 0
15.185000 -0.092265 0
15.190000 -0.092311 0
15.195000 -0.092171 0
15.200000 -0.091877 0
15.205000 -0.091458 0
15.210000 -0.090939 0
15.215000 -0.090340 0
15.220000 -0.089677 0
15.225000 -0.088964 0
15.230000 -0.088214 0
15.235000 -0.087434 0
15.240000 -0.086620 0
15.245000 -0.085742 0
15.250000 -0.084867 0
15.255000 -0.083998 0
15.260000 -0.083132 0
15.265000 -0.082271 0
15.270000 -0.081414 0
15.275000 -0.080561 0
15.280000 -0.079713 0
15.285000 -0.078869 0
15.290000 -0.078029 0
15.295000 -0.077193 0
15.300000 -0.076361 0
15.305000 -0.075534 0
15.310000 -0.074711 0
15.315000 -0.073891 0
15.320000 -0.073076 0
15.325000 -0.072265 0
15.330000 -0.071458 0
15.335000 -0.070655 0
15.340000 -0.069856 0
15.345000 -0.069061 0
15.350000 -0.068270 0
15.355000 -0.067483 0
15.360000 -0.066700 0
15.365000 -0.065920 0
15.370000 -0.065145 0
15.375000 -0.064372 0
15.380000 -0.063603 0
15.385000 -0.062837 0
15.390000 -0.062073 0
15.395000 -0.061310 0
15.400000 -0.060545 0
15.405000 -0.059777 0
15.410000 -0.059001 0
15.415000 -0.058209 0
15.420000 -0.057392 0
15.425000 -0.056535 0
15.430000 -0.055618 0
15.435000 -0.054611 0
15.440000 -0.053474 0
15.445000 -0.052155 0
15.450000 -0.050583 0
15.455000 -0.048670 0
15.460000 -0.046304 0
15.465000 -0.043351 0
15.470000 -0.039651 0
15.475000 -0.035022 0
15.480000 -0.029265 0
15.485000 -0.022168 0
15.490000 -0.013520 0
15.495000 -0.003125 0
15.500000 0.009183 0
15.505000 0.023513 0
15.510000 0.039902 0
15.515000 0.058290 0
15.520000 0.078502 0
15.525000 0.100239 0
15.530000 0.123070 0
15.535000 0.146438 0
15.540000 0.169675 0
15.545000 0.192032 0
15.550000 0.212716 0
15.555000 0.230933 0
15.560000 0.245938 0
15.565000 0.257088 0
15.570000 0.263883 0
15.575000 0.266008 1
15.580000 0.263351 0
15.585000 0.256016 0
15.590000 0.244313 0
15.595000 0.228741 0
15.600000 0.209946 0
15.605000 0.188680 0
15.610000 0.165752 0
15.615000 0.141972 0
15.620000 0.118112 0
15.625000 0.094859 0
15.630000 0.072790 0
15.635000 0.052341 0
15.640000 0.033787 0
15.645000 0.017199 0
15.650000 0.002370 0
15.655000 -0.011314 0
15.660000 -0.025033 0
15.665000 -0.040622 0
15.670000 -0.060402 0
15.675000 -0.086531 0
15.680000 -0.119799 0
15.685000 -0.158171 0
15.690000 -0.195725 0
15.695000 -0.222671 0
15.700000 -0.226599 2
15.705000 -0.194456 0
15.710000 -0.114588 0
15.715000 0.021102 0
15.720000 0.213956 0
15.725000 0.453922 0
15.730000 0.715277 0
15.735000 0.956815 0
15.740000 1.129994 0
15.745000 1.194049 3
15.750000 1.130188 0
15.755000 0.951147 0
15.760000 0.696033 0
15.765000 0.414493 0
15.770000 0.150882 0
15.775000 -0.064789 0
15.780000 -0.217914 0
15.785000 -0.306055 0
15.790000 -0.335477 4
15.795000 -0.318746 0
15.800000 -0.272343 0
15.805000 -0.213354 0
15.810000 -0.155828 0
15.815000 -0.108332 0
15.820000 -0.073693 0
15.825000 -0.050583 0
15.830000 -0.035753 0
15.835000 -0.025828 0
15.840000 -0.018218 0
15.845000 -0.011278 0
15.850000 -0.004101 0
15.855000 0.003778 0
15.860000 0.012591 0
15.865000 0.022470 0
15.870000 0.033500 0
15.875000 0.045741 0
15.880000 0.059238 0
15.885000 0.074012 0
15.890000 0.090066 0
15.895000 0.107375 0
15.900000 0.125887 0
15.905000 0.145519 0
15.910000 0.166156 0
15.915000 0.187650 0
15.920000 0.209820 0
15.925000 0.232450 0
15.930000 0.255299 0
15.935000 0.278096 0
15.940000 0.300549 0
15.945000 0.322349 0
15.950000 0.343178 0
15.955000 0.362715 0
15.960000 0.380646 0
15.965000 0.396668 0
15.970000 0.410501 0
15.975000 0.421895 0
15.980000 0.430636 0
15.985000 0.436552 0
15.990000 0.439522 5
15.995000 0.439475 0
16.000000 0.436396 0
16.005000 0.430324 0
16.010000 0.421353 0
16.015000 0.409626 0
16.020000 0.395337 0
16.025000 0.378720 0
16.030000 0.360043 0
16.035000 0.339604 0
16.040000 0.317720 0
16.045000 0.294717 0
16.050000 0.270928 0
16.055000 0.246679 0
16.060000 0.222284 0
16.065000 0.198038 0
16.070000 0.174213 0
16.075000 0.151051 0
16.080000 0.128764 0
16.085000 0.107528 0
16.090000 0.087485 0
16.095000 0.068743 0
16.100000 0.051377 0
16.105000 0.035428 0
16.110000 0.020912 0
16.115000 0.007815 0
16.120000 -0.003896 0
16.125000 -0.014273 0
16.130000 -0.023384 0
16.135000 -0.031307 0
16.140000 -0.038128 0
16.145000 -0.043939 0
16.150000 -0.048833 0
16.155000 -0.052902 0
16.160000 -0.056238 0
16.165000 -0.058926 0
16.170000 -0.061048 0
16.175000 -0.062680 0
16.180000 -0.063892 0
16.185000 -0.064744 0
16.190000 -0.065295 0
16.195000 -0.065592 0
16.200000 -0.065678 0
16.205000 -0.065592 0
16.210000 -0.065365 0
16.215000 -0.065023 0
16.220000 -0.064590 0
16.225000 -0.064084 0
16.230000 -0.063521 0
16.235000 -0.062914 0
16.240000 -0.062272 0
16.245000 -0.061606 0
16.250000 -0.060865 0
16.255000 -0.060115 0
16.260000 -0.059368 0
16.265000 -0.058626 0
16.270000 -0.057887 0
16.275000 -0.057151 0
16.280000 -0.056420 0
16.285000 -0.055692 0
16.290000 -0.054967 0
16.295000 -0.054247 0
16.300000 -0.053530 0
16.305000 -0.052816 0
16.310000 -0.052106 0
16.315000 -0.051400 0
16.320000 -0.050697 0
16.325000 -0.049997 0
16.330000 -0.049301 0
16.335000 -0.048609 0
16.340000 -0.047920 0
16.345000 -0.047234 0
16.350000 -0.046552 0
16.355000 -0.045873 0
16.360000 -0.045198 0
16.365000 -0.044526 0
16.370000 -0.043857 0
16.375000 -0.043191 0
16.380000 -0.042528 0
16.385000 -0.041868 0
16.390000 -0.041210 0
16.395000 -0.040554 0
16.400000 -0.039898 0
16.405000 -0.039240 0
16.410000 -0.038578 0
16.415000 -0.037905 0
16.420000 -0.037217 0
16.425000 -0.036500 0
16.430000 -0.035741 0
16.435000 -0.034915 0
16.440000 -0.033993 0
16.445000 -0.032931 0
16.450000 -0.031672 0
16.455000 -0.030140 0
16.460000 -0.028240 0
16.465000 -0.025852 0
16.470000 -0.022831 0
16.475000 -0.019008 0
16.480000 -0.014190 0
16.485000 -0.008168 0
16.490000 -0.000722 0
16.495000 0.008361 0
16.500000 0.019277 0
16.505000 0.032177 0
16.510000 0.047153 0
16.515000 0.064209 0
16.520000 0.083241 0
16.525000 0.104021 0
16.530000 0.126188 0
16.535000 0.149242 0
16.540000 0.172560 0
16.545000 0.195413 0
16.550000 0.217006 0
16.555000 0.236514 0
16.560000 0.253139 0
16.565000 0.266162 0
16.570000 0.274992 0
16.575000 0.279209 1
16.580000 0.278601 0
16.585000 0.273176 0
16.590000 0.263164 0
16.595000 0.249001 0
16.600000 0.231296 0
16.605000 0.210786 0
16.610000 0.188286 0
16.615000 0.164637 0
16.620000 0.140649 0
16.625000 0.117064 0
16.630000 0.094511 0
16.635000 0.073487 0
16.640000 0.054324 0
16.645000 0.037158 0
16.650000 0.021860 0
16.655000 0.007913 0
16.660000 -0.005750 0
16.665000 -0.020874 0
16.670000 -0.039782 0
16.675000 -0.064797 0
16.680000 -0.097075 0
16.685000 -0.135066 0
16.690000 -0.173278 0
16.695000 -0.202105 0
16.700000 -0.208997 2
16.705000 -0.180503 0
16.710000 -0.104433 0
16.715000 0.027885 0
16.720000 0.218331 0
16.725000 0.457155 0
16.730000 0.718381 0
16.735000 0.959832 0
16.740000 1.131625 0
16.745000 1.192119 3
16.750000 1.121572 0
16.755000 0.934545 0
16.760000 0.674004 0
16.765000 0.392609 0
16.770000 0.135550 0
16.775000 -0.068269 0
16.780000 -0.206270 0
16.785000 -0.278269 0
16.790000 -0.292865 4
16.795000 -0.264879 0
16.800000 -0.212401 0
16.805000 -0.152799 0
16.810000 -0.098923 0
16.815000 -0.057250 0
16.820000 -0.028564 0
16.825000 -0.010222 0
16.830000 0.001459 0
16.835000 0.009673 0
16.840000 0.016590 0
16.845000 0.023455 0
16.850000 0.030907 0
16.855000 0.039259 0
16.860000 0.048677 0
16.865000 0.059262 0
16.870000 0.071084 0
16.875000 0.084193 0
16.880000 0.098619 0
16.885000 0.114366 0
16.890000 0.131414 0
16.895000 0.149710 0
16.900000 0.169170 0
16.905000 0.189672 0
16.910000 0.211061 0
16.915000 0.233143 0
16.920000 0.255690 0
16.925000 0.278441 0
16.930000 0.301109 0
16.935000 0.323378 0
16.940000 0.344922 0
16.945000 0.365399 0
16.950000 0.384471 0
16.955000 0.401806 0
16.960000 0.417089 0
16.965000 0.430031 0
16.970000 0.440378 0
16.975000 0.447921 0
16.980000 0.452497 0
16.985000 0.454000 5
16.990000 0.452381 0
16.995000 0.447653 0
17.000000 0.439887 0
17.005000 0.429212 0
17.010000 0.415812 0
17.015000 0.399917 0
17.020000 0.381802 0
17.025000 0.361772 0
17.030000 0.340157 0
17.035000 0.317302 0
17.040000 0.293560 0
17.045000 0.269277 0
17.050000 0.244790 0
17.055000 0.220415 0
17.060000 0.196443 0
17.065000 0.173136 0
17.070000 0.150717 0
17.075000 0.129377 0
17.080000 0.109267 0
17.085000 0.090498 0
17.090000 0.073149 0
17.095000 0.057260 0
17.100000 0.042845 0
17.105000 0.029886 0
17.110000 0.018344 0
17.115000 0.008160 0
17.120000 -0.000740 0
17.125000 -0.008443 0
17.130000 -0.015041 0
17.135000 -0.020633 0
17.140000 -0.025316 0
17.145000 -0.029189 0
17.150000 -0.032345 0
17.155000 -0.034875 0
17.160000 -0.036861 0
17.165000 -0.038381 0
17.170000 -0.039504 0
17.175000 -0.040292 0
17.180000 -0.040800 0
17.185000 -0.041076 0
17.190000 -0.041161 0
17.195000 -0.041092 0
17.200000 -0.040897 0
17.205000 -0.040602 0
17.210000 -0.040229 0
17.215000 -0.039793 0
17.220000 -0.039309 0
17.225000 -0.038789 0
17.230000 -0.038241 0
17.235000 -0.037617 0
17.240000 -0.036983 0
17.245000 -0.036352 0
17.250000 -0.035724 0
17.255000 -0.035099 0
17.260000 -0.034478 0
17.265000 -0.033859 0
17.270000 -0.033244 0
17.275000 -0.032631 0
17.280000 -0.032022 0
17.285000 -0.031416 0
17.290000 -0.030812 0
17.295000 -0.030212 0
17.300000 -0.029615 0
17.305000 -0.029021 0
17.310000 -0.028429 0
17.315000 -0.027841 0
17.320000 -0.027255 0
17.325000 -0.026673 0
17.330000 -0.026093 0
17.335000 -0.025516 0
17.340000 -0.024943 0
17.345000 -0.024371 0
17.350000 -0.023803 0
17.355000 -0.023238 0
17.360000 -0.022674 0
17.365000 -0.022114 0
17.370000 -0.021555 0
17.375000 -0.020997 0
17.380000 -0.020439 0
17.385000 -0.019879 0
17.390000 -0.019314 0
17.395000 -0.018739 0
17.400000 -0.018147 0
17.405000 -0.017526 0
17.410000 -0.016860 0
17.415000 -0.016125 0
17.420000 -0.015287 0
17.425000 -0.014299 0
17.430000 -0.013099 0
17.435000 -0.011605 0
17.440000 -0.009709 0
17.445000 -0.007280 0
17.450000 -0.004158 0
17.455000 -0.000157 0
17.460000 0.004933 0
17.465000 0.011340 0
17.470000 0.019296 0
17.475000 0.029023 0
17.480000 0.040712 0
17.485000 0.054499 0
17.490000 0.070440 0
17.495000 0.088487 0
17.500000 0.108461 0
17.505000 0.130042 0
17.510000 0.152760 0
17.515000 0.176003 0
17.520000 0.199034 0
17.525000 0.221027 0
17.530000 0.241110 0
17.535000 0.258426 0
17.540000 0.272186 0
17.545000 0.281730 0
17.550000 0.286580 1
17.555000 0.286477 0
17.560000 0.281403 0
17.565000 0.271581 0
17.570000 0.257464 0
17.575000 0.239691 0
17.580000 0.219045 0
17.585000 0.196394 0
17.590000 0.172626 0
17.595000 0.148598 0
17.600000 0.125080 0
17.605000 0.102722 0
17.610000 0.082018 0
17.615000 0.063281 0
17.620000 0.046592 0
17.625000 0.031715 0
17.630000 0.017940 0
17.635000 0.003898 0
17.640000 -0.012520 0
17.645000 -0.033881 0
17.650000 -0.062296 0
17.655000 -0.097863 0
17.660000 -0.136999 0
17.665000 -0.171546 0
17.670000 -0.189380 2
17.675000 -0.176360 0
17.680000 -0.118775 0
17.685000 -0.005772 0
17.690000 0.167494 0
17.695000 0.394957 0
17.700000 0.654008 0
17.705000 0.903643 0
17.710000 1.091562 0
17.715000 1.170733 3
17.720000 1.117266 0
17.725000 0.942358 0
17.730000 0.687368 0
17.735000 0.405908 0
17.740000 0.145422 0
17.745000 -0.063016 0
17.750000 -0.205399 0
17.755000 -0.280826 0
17.760000 -0.297654 4
17.765000 -0.270790 0
17.770000 -0.218650 0
17.775000 -0.159030 0
17.780000 -0.105120 0
17.785000 -0.063545 0
17.790000 -0.035067 0
17.795000 -0.016949 0
17.800000 -0.005432 0
17.805000 0.002708 0
17.810000 0.009631 0
17.815000 0.016560 0
17.820000 0.024117 0
17.825000 0.032603 0
17.830000 0.042179 0
17.835000 0.052944 0
17.840000 0.064966 0
17.845000 0.078296 0
17.850000 0.092958 0
17.855000 0.108956 0
17.860000 0.126262 0
17.865000 0.144819 0
17.870000 0.164531 0
17.875000 0.185270 0
17.880000 0.206869 0
17.885000 0.229121 0
17.890000 0.251787 0
17.895000 0.274592 0
17.900000 0.297236 0
17.905000 0.319394 0
17.910000 0.340725 0
17.915000 0.360883 0
17.920000 0.379521 0
17.925000 0.396305 0
17.930000 0.410920 0
17.935000 0.423081 0
17.940000 0.432545 0
17.945000 0.439110 0
17.950000 0.442633 0
17.955000 0.443024 5
17.960000 0.440257 0
17.965000 0.434368 0
17.970000 0.425454 0
17.975000 0.413669 0
17.980000 0.399221 0
17.985000 0.382367 0
17.990000 0.363401 0
17.995000 0.342646 0
18.000000 0.320450 0
18.005000 0.297169 0
18.010000 0.273161 0
18.015000 0.248775 0
18.020000 0.224348 0
18.025000 0.200188 0
18.030000 0.176578 0
18.035000 0.153766 0
18.040000 0.131960 0
18.045000 0.111334 0
18.050000 0.092019 0
18.055000 0.074108 0
18.060000 0.057660 0
18.065000 0.042699 0
18.070000 0.029218 0
18.075000 0.017186 0
18.080000 0.006550 0
18.085000 -0.002762 0
18.090000 -0.010833 0
18.095000 -0.017757 0
18.100000 -0.023632 0
18.105000 -0.028558 0
18.110000 -0.032636 0
18.115000 -0.035964 0
18.120000 -0.038634 0
18.125000 -0.040733 0
18.130000 -0.042341 0
18.135000 -0.043532 0
18.140000 -0.044371 0
18.145000 -0.044914 0
18.150000 -0.045214 0
18.155000 -0.045313 0
18.160000 -0.045249 0
18.165000 -0.045054 0
18.170000 -0.044754 0
18.175000 -0.044371 0
18.180000 -0.043923 0
18.185000 -0.043425 0
18.190000 -0.042888 0
18.195000 -0.042323 0
18.200000 -0.041679 0
18.205000 -0.041024 0
18.210000 -0.040373 0
18.215000 -0.039725 0
18.220000 -0.039080 0
18.225000 -0.038439 0
18.230000 -0.037800 0
18.235000 -0.037165 0
18.240000 -0.036533 0
18.245000 -0.035905 0
18.250000 -0.035279 0
18.255000 -0.034656 0
18.260000 -0.034037 0
18.265000 -0.033421 0
18.270000 -0.032807 0
18.275000 -0.032197 0
18.280000 -0.031590 0
18.285000 -0.030986 0
18.290000 -0.030385 0
18.295000 -0.029787 0
18.300000 -0.029191 0
18.305000 -0.028599 0
18.310000 -0.028010 0
18.315000 -0.027423 0
18.320000 -0.026840 0
18.325000 -0.026258 0
18.330000 -0.025680 0
18.335000 -0.025103 0
18.340000 -0.024527 0
18.345000 -0.023950 0
18.350000 -0.023371 0
18.355000 -0.022786 0
18.360000 -0.022190 0
18.365000 -0.021574 0
18.370000 -0.020925 0
18.375000 -0.020225 0
18.380000 -0.019447 0
18.385000 -0.018552 0
18.390000 -0.017489 0
18.395000 -0.016188 0
18.400000 -0.014557 0
18.405000 -0.012479 0
18.410000 -0.009809 0
18.415000 -0.006376 0
18.420000 -0.001978 0
18.425000 0.003606 0
18.430000 0.010611 0
18.435000 0.019275 0
18.440000 0.029812 0
18.445000 0.042399 0
18.450000 0.057142 0
18.455000 0.074056 0
18.460000 0.093035 0
18.465000 0.113831 0
18.470000 0.136047 0
18.475000 0.159132 0
18.480000 0.182393 0
18.485000 0.205027 0
18.490000 0.226162 0
18.495000 0.244906 0
18.500000 0.260413 0
18.505000 0.271942 0
18.510000 0.278915 0
18.515000 0.280967 1
18.520000 0.277971 0
18.525000 0.270056 0
18.530000 0.257591 0
18.535000 0.241160 0
18.540000 0.221513 0
18.545000 0.199510 0
18.550000 0.176059 0
18.555000 0.152052 0
18.560000 0.128310 0
18.565000 0.105543 0
18.570000 0.084308 0
18.575000 0.064985 0
18.580000 0.047735 0
18.585000 0.032422 0
18.590000 0.018473 0
18.595000 0.004683 0
18.600000 -0.010917 0
18.605000 -0.030892 0
18.610000 -0.057624 0
18.615000 -0.091823 0
18.620000 -0.130734 0
18.625000 -0.166968 0
18.630000 -0.188788 2
18.635000 -0.181942 0
18.640000 -0.132182 0
18.645000 -0.027790 0
18.650000 0.137344 0
18.655000 0.358877 0
18.660000 0.616068 0
18.665000 0.869035 0
18.670000 1.064940 0
18.675000 1.154425 3
18.680000 1.112705 0
18.685000 0.948647 0
18.690000 0.700246 0
18.695000 0.419318 0
18.700000 0.153578 0
18.705000 -0.064258 0
18.710000 -0.218185 0
18.715000 -0.305466 0
18.720000 -0.332784 4
18.725000 -0.313578 0
18.730000 -0.265345 0
18.735000 -0.205916 0
18.740000 -0.149477 0
18.745000 -0.104134 0
18.750000 -0.071968 0
18.755000 -0.051009 0
18.760000 -0.037681 0
18.765000 -0.028589 0
18.770000 -0.021289 0
18.775000 -0.014315 0
18.780000 -0.006896 0
18.785000 0.001351 0
18.790000 0.010620 0
18.795000 0.021024 0
18.800000 0.032642 0
18.805000 0.045528 0
18.810000 0.059719 0
18.815000 0.075227 0
18.820000 0.092039 0
18.825000 0.110114 0
18.830000 0.129378 0
18.835000 0.149724 0
18.840000 0.171006 0
18.845000 0.193045 0
18.850000 0.215626 0
18.855000 0.238501 0
18.860000 0.261392 0
18.865000 0.283995 0
18.870000 0.305988 0
18.875000 0.327037 0
18.880000 0.346805 0
18.885000 0.364957 0
18.890000 0.381173 0
18.895000 0.395158 0
18.900000 0.406644 0
18.905000 0.415407 0
18.910000 0.421267 0
18.915000 0.424097 5
18.920000 0.423827 0
18.925000 0.420446 0
18.930000 0.414002 0
18.935000 0.404601 0
18.940000 0.392405 0
18.945000 0.377626 0
18.950000 0.360519 0
18.955000 0.341376 0
18.960000 0.320516 0
18.965000 0.298277 0
18.970000 0.275007 0
18.975000 0.251053 0
18.980000 0.226755 0
18.985000 0.202437 0
18.990000 0.178399 0
18.995000 0.154914 0
19.000000 0.132221 0
19.005000 0.110524 0
19.010000 0.089989 0
19.015000 0.070746 0
19.020000 0.052886 0
19.025000 0.036467 0
19.030000 0.021513 0
19.035000 0.008022 0
19.040000 -0.004037 0
19.045000 -0.014714 0
19.050000 -0.024075 0
19.055000 -0.032202 0
19.060000 -0.039183 0
19.065000 -0.045114 0
19.070000 -0.050093 0
19.075000 -0.054217 0
19.080000 -0.057582 0
19.085000 -0.060280 0
19.090000 -0.062397 0
19.095000 -0.064011 0
19.100000 -0.065196 0
19.105000 -0.066017 0
19.110000 -0.066533 0
19.115000 -0.066794 0
19.120000 -0.066845 0
19.125000 -0.066725 0
19.130000 -0.066466 0
19.135000 -0.066094 0
19.140000 -0.065634 0
19.145000 -0.065105 0
19.150000 -0.064521 0
19.155000 -0.063895 0
19.160000 -0.063237 0
19.165000 -0.062545 0
19.170000 -0.061786 0
19.175000 -0.061031 0
19.180000 -0.060280 0
19.185000 -0.059533 0
19.190000 -0.058790 0
19.195000 -0.058050 0
19.200000 -0.057314 0
19.205000 -0.056581 0
19.210000 -0.055852 0
19.215000 -0.055127 0
19.220000 -0.054406 0
19.225000 -0.053688 0
19.230000 -0.052973 0
19.235000 -0.052263 0
19.240000 -0.051555 0
19.245000 -0.050852 0
19.250000 -0.050151 0
19.255000 -0.049455 0
19.260000 -0.048761 0
19.265000 -0.048072 0
19.270000 -0.047385 0
19.275000 -0.046702 0
19.280000 -0.046023 0
19.285000 -0.045346 0
19.290000 -0.044673 0
19.295000 -0.044003 0
19.300000 -0.043335 0
19.305000 -0.042670 0
19.310000 -0.042006 0
19.315000 -0.041342 0
19.320000 -0.040676 0
19.325000 -0.040003 0
19.330000 -0.039319 0
19.335000 -0.038616 0
19.340000 -0.037879 0
19.345000 -0.037091 0
19.350000 -0.036226 0
19.355000 -0.035245 0
19.360000 -0.034098 0
19.365000 -0.032717 0
19.370000 -0.031012 0
19.375000 -0.028871 0
19.380000 -0.026155 0
19.385000 -0.022697 0
19.390000 -0.018305 0
19.395000 -0.012763 0
19.400000 -0.005843 0
19.405000 0.002684 0
19.410000 0.013032 0
19.415000 0.025379 0
19.420000 0.039840 0
19.425000 0.056445 0
19.430000 0.075114 0
19.435000 0.095634 0
19.440000 0.117648 0
19.445000 0.140652 0
19.450000 0.164005 0
19.455000 0.186948 0
19.460000 0.208647 0
19.465000 0.228232 0
19.470000 0.244864 0
19.475000 0.257785 0
19.480000 0.266376 0
19.485000 0.270211 1
19.490000 0.269083 0
19.495000 0.263029 0
19.500000 0.252323 0
19.505000 0.237458 0
19.510000 0.219103 0
19.515000 0.198058 0
19.520000 0.175194 0
19.525000 0.151391 0
19.530000 0.127487 0
19.535000 0.104227 0
19.540000 0.082228 0
19.545000 0.061950 0
19.550000 0.043666 0
19.555000 0.027408 0
19.560000 0.012871 0
19.565000 -0.000750 0
19.570000 -0.014940 0
19.575000 -0.031902 0
19.580000 -0.054194 0
19.585000 -0.083709 0
19.590000 -0.120080 0
19.595000 -0.159081 0
19.600000 -0.191947 0
19.605000 -0.206201 2
19.610000 -0.187710 0
19.615000 -0.123104 0
19.620000 -0.002195 0
19.625000 0.178727 0
19.630000 0.411826 0
19.635000 0.672333 0
19.640000 0.917574 0
19.645000 1.095220 0
19.650000 1.160404 3
19.655000 1.095377 0
19.660000 0.914696 0
19.665000 0.658417 0
19.670000 0.376992 0
19.675000 0.115073 0
19.680000 -0.097542 0
19.685000 -0.246720 0
19.690000 -0.330580 0
19.695000 -0.355972 4
19.700000 -0.336045 0
19.705000 -0.287729 0
19.710000 -0.228243 0
19.715000 -0.171383 0
19.720000 -0.125206 0
19.725000 -0.092000 0
19.730000 -0.070060 0
19.735000 -0.055987 0
19.740000 -0.046429 0
19.745000 -0.038897 0
19.750000 -0.031857 0
19.755000 -0.024475 0
19.760000 -0.016334 0
19.765000 -0.007222 0
19.770000 0.002983 0
19.775000 0.014361 0
19.780000 0.026972 0
19.785000 0.040854 0
19.790000 0.056027 0
19.795000 0.072486 0
19.800000 0.090200 0
19.805000 0.109110 0
19.810000 0.129123 0
19.815000 0.150112 0
19.820000 0.171920 0
19.825000 0.194352 0
19.830000 0.217182 0
19.835000 0.240154 0
19.840000 0.262988 0
19.845000 0.285380 0
19.850000 0.307013 0
19.855000 0.327562 0
19.860000 0.346702 0
19.865000 0.364117 0
19.870000 0.379506 0
19.875000 0.392594 0
19.880000 0.403140 0
19.885000 0.410941 0
19.890000 0.415842 0
19.895000 0.417739 5
19.900000 0.416582 0
19.905000 0.412377 0
19.910000 0.405187 0
19.915000 0.395129 0
19.920000 0.382371 0
19.925000 0.367127 0
19.930000 0.349653 0
19.935000 0.330234 0
19.940000 0.309183 0
19.945000 0.286828 0
19.950000 0.263505 0
19.955000 0.239548 0
19.960000 0.215285 0
19.965000 0.191025 0
19.970000 0.167057 0
19.975000 0.143642 0
19.980000 0.121010 0
19.985000 0.099359 0
19.990000 0.078847 0
19.995000 0.059601 0
20.000000 0.041711 0
20.005000 0.025234 0
20.010000 0.010197 0
20.015000 -0.003402 0
20.020000 -0.015589 0
20.025000 -0.026408 0
20.030000 -0.035924 0
20.035000 -0.044212 0
20.040000 -0.051356 0
20.045000 -0.057448 0
20.050000 -0.062583 0
20.055000 -0.066854 0
20.060000 -0.070354 0
20.065000 -0.073173 0
20.070000 -0.075397 0
20.075000 -0.077102 0
20.080000 -0.078363 0
20.085000 -0.079244 0
20.090000 -0.079805 0
20.095000 -0.080096 0
20.100000 -0.080165 0
20.105000 -0.080050 0
20.110000 -0.079784 0
20.115000 -0.079398 0
20.120000 -0.078914 0
20.125000 -0.078353 0
20.130000 -0.077731 0
20.135000 -0.077063 0
20.140000 -0.076358 0
20.145000 -0.075627 0
20.150000 -0.074817 0
20.155000 -0.073997 0
20.160000 -0.073181 0
20.165000 -0.072370 0
20.170000 -0.071562 0
20.175000 -0.070759 0
20.180000 -0.069959 0
20.185000 -0.069164 0
20.190000 -0.068372 0
20.195000 -0.067585 0
20.200000 -0.066801 0
20.205000 -0.066021 0
20.210000 -0.065245 0
20.215000 -0.064473 0
20.220000 -0.063705 0
20.225000 -0.062941 0
20.230000 -0.062180 0
20.235000 -0.061424 0
20.240000 -0.060671 0
20.245000 -0.059922 0
20.250000 -0.059176 0
20.255000 -0.058434 0
20.260000 -0.057696 0
20.265000 -0.056962 0
20.270000 -0.056231 0
20.275000 -0.055503 0
20.280000 -0.054779 0
20.285000 -0.054058 0
20.290000 -0.053339 0
20.295000 -0.052622 0
20.300000 -0.051906 0
20.305000 -0.051188 0
20.310000 -0.050465 0
20.315000 -0.049733 0
20.320000 -0.048983 0
20.325000 -0.048205 0
20.330000 -0.047382 0
20.335000 -0.046490 0
20.340000 -0.045497 0
20.345000 -0.044358 0
20.350000 -0.043012 0
20.355000 -0.041381 0
20.360000 -0.039364 0
20.365000 -0.036836 0
20.370000 -0.033647 0
20.375000 -0.029620 0
20.380000 -0.024556 0
20.385000 -0.018241 0
20.390000 -0.010450 0
20.395000 -0.000970 0
20.400000 0.010392 0
20.405000 0.023780 0
20.410000 0.039269 0
20.415000 0.056841 0
20.420000 0.076364 0
20.425000 0.097576 0
20.430000 0.120075 0
20.435000 0.143320 0
20.440000 0.166649 0
20.445000 0.189299 0
20.450000 0.210449 0
20.455000 0.229264 0
20.460000 0.244951 0
20.465000 0.256810 0
20.470000 0.264293 0
20.475000 0.267034 1
20.480000 0.264890 0
20.485000 0.257942 0
20.490000 0.246500 0
20.495000 0.231068 0
20.500000 0.212319 0
20.505000 0.191035 0
20.510000 0.168061 0
20.515000 0.144245 0
20.520000 0.120388 0
20.525000 0.097202 0
20.530000 0.075276 0
20.535000 0.055050 0
20.540000 0.036783 0
20.545000 0.020511 0
20.550000 0.005949 0
20.555000 -0.007653 0
20.560000 -0.021681 0
20.565000 -0.038212 0
20.570000 -0.059715 0
20.575000 -0.088168 0
20.580000 -0.123615 0
20.585000 -0.162626 0
20.590000 -0.197476 0
20.595000 -0.216675 2
20.600000 -0.206723 0
20.605000 -0.154358 0
20.610000 -0.048765 0
20.615000 0.115675 0
20.620000 0.335094 0
20.625000 0.590855 0
20.630000 0.846834 0
20.635000 1.054098 0
20.640000 1.164615 3
20.645000 1.149367 0
20.650000 1.009884 0
20.655000 0.777327 0
20.660000 0.499828 0
20.665000 0.225533 0
20.670000 -0.009603 0
20.675000 -0.185569 0
20.680000 -0.296018 0
20.685000 -0.344519 4
20.690000 -0.341779 0
20.695000 -0.303378 0
20.700000 -0.246749 0
20.705000 -0.187434 0
20.710000 -0.136029 0
20.715000 -0.097167 0
20.720000 -0.070620 0
20.725000 -0.053500 0
20.730000 -0.042305 0
20.735000 -0.034131 0
20.740000 -0.027043 0
20.745000 -0.019932 0
20.750000 -0.012224 0
20.755000 -0.003631 0
20.760000 0.005999 0
20.765000 0.016763 0
20.770000 0.028728 0
20.775000 0.041942 0
20.780000 0.056435 0
20.785000 0.072215 0
20.790000 0.089263 0
20.795000 0.107536 0
20.800000 0.126957 0
20.805000 0.147421 0
20.810000 0.168785 0
20.815000 0.190874 0
20.820000 0.213483 0
20.825000 0.236371 0
20.830000 0.259273 0
20.835000 0.281899 0
20.840000 0.303941 0
20.845000 0.325082 0
20.850000 0.344996 0
20.855000 0.363364 0
20.860000 0.379880 0
20.865000 0.394254 0
20.870000 0.406228 0
20.875000 0.415578 0
20.880000 0.422123 0
20.885000 0.425730 0
20.890000 0.426317 5
20.895000 0.423858 0
20.900000 0.418384 0
20.905000 0.409978 0
20.910000 0.398777 0
20.915000 0.384967 0
20.920000 0.368777 0
20.925000 0.350474 0
20.930000 0.330353 0
20.935000 0.308729 0
20.940000 0.285933 0
20.945000 0.262298 0
20.950000 0.238154 0
20.955000 0.213820 0
20.960000 0.189597 0
20.965000 0.165761 0
20.970000 0.142561 0
20.975000 0.120214 0
20.980000 0.098902 0
20.985000 0.078772 0
20.990000 0.059938 0
20.995000 0.042477 0
21.000000 0.026436 0
21.005000 0.011831 0
21.010000 -0.001346 0
21.015000 -0.013129 0
21.020000 -0.023568 0
21.025000 -0.032730 0
21.030000 -0.040693 0
21.035000 -0.047544 0
21.040000 -0.053375 0
21.045000 -0.058278 0
21.050000 -0.062348 0
21.055000 -0.065677 0
21.060000 -0.068351 0
21.065000 -0.070453 0
21.070000 -0.072059 0
21.075000 -0.073241 0
21.080000 -0.074060 0
21.085000 -0.074574 0
21.090000 -0.074832 0
21.095000 -0.074878 0
21.100000 -0.074749 0
21.105000 -0.074479 0
21.110000 -0.074093 0
21.115000 -0.073616 0
21.120000 -0.073066 0
21.125000 -0.072458 0
21.130000 -0.071807 0
21.135000 -0.071121 0
21.140000 -0.070410 0
21.145000 -0.069625 0
21.150000 -0.068831 0
21.155000 -0.068042 0
21.160000 -0.067256 0
21.165000 -0.066474 0
21.170000 -0.065695 0
21.175000 -0.064921 0
21.180000 -0.064151 0
21.185000 -0.063384 0
21.190000 -0.062622 0
21.195000 -0.061863 0
21.200000 -0.061108 0
21.205000 -0.060356 0
21.210000 -0.059609 0
21.215000 -0.058865 0
21.220000 -0.058125 0
21.225000 -0.057388 0
21.230000 -0.056655 0
21.235000 -0.055926 0
21.240000 -0.055201 0
21.245000 -0.054479 0
21.250000 -0.053760 0
21.255000 -0.053046 0
21.260000 -0.052334 0
21.265000 -0.051626 0
21.270000 -0.050922 0
21.275000 -0.050221 0
21.280000 -0.049522 0
21.285000 -0.048826 0
21.290000 -0.048131 0
21.295000 -0.047437 0
21.300000 -0.046741 0
21.305000 -0.046039 0
21.310000 -0.045328 0
21.315000 -0.044598 0
21.320000 -0.043839 0
21.325000 -0.043034 0
21.330000 -0.042160 0
21.335000 -0.041182 0
21.340000 -0.040056 0
21.345000 -0.038721 0
21.350000 -0.037098 0
21.355000 -0.035086 0
21.360000 -0.032561 0
21.365000 -0.029373 0
21.370000 -0.025346 0
21.375000 -0.020282 0
21.380000 -0.013968 0
21.385000 -0.006182 0
21.390000 0.003289 0
21.395000 0.014633 0
21.400000 0.027996 0
21.405000 0.043450 0
21.410000 0.060980 0
21.415000 0.080455 0
21.420000 0.101617 0
21.425000 0.124070 0
21.430000 0.147281 0
21.435000 0.170595 0
21.440000 0.193259 0
21.445000 0.214459 0
21.450000 0.233367 0
21.455000 0.249192 0
21.460000 0.261238 0
21.465000 0.268949 0
21.470000 0.271953 1
21.475000 0.270093 0
21.480000 0.263439 0
21.485000 0.252278 0
21.490000 0.237103 0
21.495000 0.218567 0
21.500000 0.197441 0
21.505000 0.174559 0
21.510000 0.150764 0
21.515000 0.126857 0
21.520000 0.103554 0
21.525000 0.081454 0
21.530000 0.061007 0
21.535000 0.042495 0
21.540000 0.025979 0
21.545000 0.011222 0
21.550000 -0.002455 0
21.555000 -0.016342 0
21.560000 -0.032416 0
21.565000 -0.053112 0
21.570000 -0.080535 0
21.575000 -0.115099 0
21.580000 -0.153979 0
21.585000 -0.190153 0
21.590000 -0.212705 2
21.595000 -0.208413 0
21.600000 -0.163935 0
21.605000 -0.067980 0
21.610000 0.086153 0
21.615000 0.296646 0
21.620000 0.547961 0
21.625000 0.807347 0
21.630000 1.027835 0
21.635000 1.160247 0
21.640000 1.170579 3
21.645000 1.053586 0
21.650000 0.835096 0
21.655000 0.561937 0
21.660000 0.284008 0
21.665000 0.040399 0
21.670000 -0.145948 0
21.675000 -0.266625 0
21.680000 -0.323895 0
21.685000 -0.327665 4
21.690000 -0.293174 0
21.695000 -0.238039 0
21.700000 -0.178451 0
21.705000 -0.125861 0
21.710000 -0.085643 0
21.715000 -0.058009 0
21.720000 -0.040208 0
21.725000 -0.028683 0
21.730000 -0.020415 0
21.735000 -0.013363 0
21.740000 -0.006347 0
21.745000 0.001242 0
21.750000 0.009710 0
21.755000 0.019216 0
21.760000 0.029861 0
21.765000 0.041712 0
21.770000 0.054821 0
21.775000 0.069216 0
21.780000 0.084907 0
21.785000 0.101877 0
21.790000 0.120081 0
21.795000 0.139442 0
21.800000 0.159851 0
21.805000 0.181167 0
21.810000 0.203210 0
21.815000 0.225771 0
21.820000 0.248607 0
21.825000 0.271447 0
21.830000 0.293997 0
21.835000 0.315944 0
21.840000 0.336966 0
21.845000 0.356734 0
21.850000 0.374925 0
21.855000 0.391229 0
21.860000 0.405355 0
21.865000 0.417044 0
21.870000 0.426073 0
21.875000 0.432263 0
21.880000 0.435484 0
21.885000 0.435661 5
21.890000 0.432774 0
21.895000 0.426858 0
21.900000 0.418007 0
21.905000 0.406367 0
21.910000 0.392132 0
21.915000 0.375542 0
21.920000 0.356870 0
21.925000 0.336419 0
21.930000 0.314514 0
21.935000 0.291489 0
21.940000 0.267681 0
21.945000 0.243425 0
21.950000 0.219039 0
21.955000 0.194823 0
21.960000 0.171054 0
21.965000 0.147974 0
21.970000 0.125798 0
21.975000 0.104700 0
21.980000 0.084823 0
21.985000 0.066272 0
21.990000 0.049117 0
21.995000 0.033399 0
22.000000 0.019126 0
22.005000 0.006282 0
22.010000 -0.005170 0
22.015000 -0.015288 0
22.020000 -0.024143 0
22.025000 -0.031816 0
22.030000 -0.038398 0
22.035000 -0.043981 0
22.040000 -0.048662 0
22.045000 -0.052533 0
22.050000 -0.055688 0
22.055000 -0.058213 0
22.060000 -0.060188 0
22.065000 -0.061691 0
22.070000 -0.062789 0
22.075000 -0.063543 0
22.080000 -0.064010 0
22.085000 -0.064236 0
22.090000 -0.064263 0
22.095000 -0.064128 0
22.100000 -0.063861 0
22.105000 -0.063488 0
22.110000 -0.063030 0
22.115000 -0.062506 0
22.120000 -0.061929 0
22.125000 -0.061313 0
22.130000 -0.060666 0
22.135000 -0.059985 0
22.140000 -0.059239 0
22.145000 -0.058497 0
22.150000 -0.057759 0
22.155000 -0.057024 0
22.160000 -0.056293 0
22.165000 -0.055566 0
22.170000 -0.054842 0
22.175000 -0.054122 0
22.180000 -0.053406 0
22.185000 -0.052693 0
22.190000 -0.051983 0
22.195000 -0.051278 0
22.200000 -0.050575 0
22.205000 -0.049876 0
22.210000 -0.049181 0
22.215000 -0.048489 0
22.220000 -0.047801 0
22.225000 -0.047116 0
22.230000 -0.046434 0
22.235000 -0.045756 0
22.240000 -0.045081 0
22.245000 -0.044410 0
22.250000 -0.043741 0
22.255000 -0.043077 0
22.260000 -0.042415 0
22.265000 -0.041756 0
22.270000 -0.041100 0
22.275000 -0.040446 0
22.280000 -0.039794 0
22.285000 -0.039143 0
22.290000 -0.038490 0
22.295000 -0.037833 0
22.300000 -0.037168 0
22.305000 -0.036487 0
22.310000 -0.035781 0
22.315000 -0.035035 0
22.320000 -0.034226 0
22.325000 -0.033325 0
22.330000 -0.032289 0
22.335000 -0.031063 0
22.340000 -0.029572 0
22.345000 -0.027721 0
22.350000 -0.025389 0
22.355000 -0.022433 0
22.360000 -0.018682 0
22.365000 -0.013939 0
22.370000 -0.007993 0
22.375000 -0.000619 0
22.380000 0.008402 0
22.385000 0.019269 0
22.390000 0.032140 0
22.395000 0.047108 0
22.400000 0.064178 0
22.405000 0.083244 0
22.410000 0.104070 0
22.415000 0.126284 0
22.420000 0.149370 0
22.425000 0.172687 0
22.430000 0.195486 0
22.435000 0.216951 0
22.440000 0.236240 0
22.445000 0.252544 0
22.450000 0.265139 0
22.455000 0.273438 0
22.460000 0.277039 1
22.465000 0.275752 0
22.470000 0.269619 0
22.475000 0.258907 0
22.480000 0.244093 0
22.485000 0.225824 0
22.490000 0.204871 0
22.495000 0.182076 0
22.500000 0.158293 0
22.505000 0.134341 0
22.510000 0.110951 0
22.515000 0.088737 0
22.520000 0.068167 0
22.525000 0.049534 0
22.530000 0.032913 0
22.535000 0.018076 0
22.540000 0.004351 0
22.545000 -0.009549 0
22.550000 -0.025618 0
22.555000 -0.046318 0
22.560000 -0.073785 0
22.565000 -0.108432 0
22.570000 -0.147365 0
22.575000 -0.183408 0
22.580000 -0.205438 2
22.585000 -0.200027 0
22.590000 -0.153695 0
22.595000 -0.055139 0
22.600000 0.102123 0
22.605000 0.315636 0
22.610000 0.568664 0
22.615000 0.826881 0
22.620000 1.042044 0
22.625000 1.164918 3
22.630000 1.163181 0
22.635000 1.034608 0
22.640000 0.808087 0
22.645000 0.532095 0
22.650000 0.256420 0
22.655000 0.018813 0
22.660000 -0.159473 0
22.665000 -0.271503 0
22.670000 -0.320727 4
22.675000 -0.318039 0
22.680000 -0.279397 0
22.685000 -0.222645 0
22.690000 -0.163595 0
22.695000 -0.112869 0
22.700000 -0.074926 0
22.705000 -0.049299 0
22.710000 -0.032924 0
22.715000 -0.022235 0
22.720000 -0.014354 0
22.725000 -0.007403 0
22.730000 -0.000329 0
22.735000 0.007404 0
22.740000 0.016063 0
22.745000 0.025793 0
22.750000 0.036684 0
22.755000 0.048803 0
22.760000 0.062196 0
22.765000 0.076888 0
22.770000 0.092881 0
22.775000 0.110151 0
22.780000 0.128647 0
22.785000 0.148281 0
22.790000 0.168935 0
22.795000 0.190455 0
22.800000 0.212652 0
22.805000 0.235304 0
22.810000 0.258155 0
22.815000 0.280927 0
22.820000 0.303314 0
22.825000 0.324997 0
22.830000 0.345646 0
22.835000 0.364930 0
22.840000 0.382526 0
22.845000 0.398125 0
22.850000 0.411444 0
22.855000 0.422231 0
22.860000 0.430276 0
22.865000 0.435415 0
22.870000 0.437535 5
22.875000 0.436580 0
22.880000 0.432549 0
22.885000 0.425503 0
22.890000 0.415554 0
22.895000 0.402871 0
22.900000 0.387667 0
22.905000 0.370199 0
22.910000 0.350758 0
22.915000 0.329659 0
22.920000 0.307234 0
22.925000 0.283826 0
22.930000 0.259774 0
22.935000 0.235411 0
22.940000 0.211051 0
22.945000 0.186987 0
22.950000 0.163486 0
22.955000 0.140779 0
22.960000 0.119065 0
22.965000 0.098506 0
22.970000 0.079228 0
22.975000 0.061321 0
22.980000 0.044841 0
22.985000 0.029812 0
22.990000 0.016232 0
22.995000 0.004073 0
23.000000 -0.006715 0
23.005000 -0.016195 0
23.010000 -0.024447 0
23.015000 -0.031557 0
23.020000 -0.037618 0
23.025000 -0.042726 0
23.030000 -0.046978 0
23.035000 -0.050467 0
23.040000 -0.053284 0
23.045000 -0.055512 0
23.050000 -0.057233 0
23.055000 -0.058517 0
23.060000 -0.059430 0
23.065000 -0.060030 0
23.070000 -0.060370 0
23.075000 -0.060493 0
23.080000 -0.060438 0
23.085000 -0.060239 0
23.090000 -0.059924 0
23.095000 -0.059515 0
23.100000 -0.059033 0
23.105000 -0.058493 0
23.110000 -0.057908 0
23.115000 -0.057290 0
23.120000 -0.056633 0
23.125000 -0.055904 0
23.130000 -0.055178 0
23.135000 -0.054457 0
23.140000 -0.053738 0
23.145000 -0.053024 0
23.150000 -0.052313 0
23.155000 -0.051605 0
23.160000 -0.050901 0
23.165000 -0.050201 0
23.170000 -0.049504 0
23.175000 -0.048810 0
23.180000 -0.048120 0
23.185000 -0.047434 0
23.190000 -0.046751 0
23.195000 -0.046071 0
23.200000 -0.045395 0
23.205000 -0.044722 0
23.210000 -0.044052 0
23.215000 -0.043386 0
23.220000 -0.042723 0
23.225000 -0.042063 0
23.230000 -0.041407 0
23.235000 -0.040753 0
23.240000 -0.040103 0
23.245000 -0.039456 0
23.250000 -0.038812 0
23.255000 -0.038171 0
23.260000 -0.037532 0
23.265000 -0.036895 0
23.270000 -0.036259 0
23.275000 -0.035622 0
23.280000 -0.034981 0
23.285000 -0.034332 0
23.290000 -0.033669 0
23.295000 -0.032983 0
23.300000 -0.032258 0
23.305000 -0.031475 0
23.310000 -0.030605 0
23.315000 -0.029605 0
23.320000 -0.028423 0
23.325000 -0.026986 0
23.330000 -0.025199 0
23.335000 -0.022946 0
23.340000 -0.020082 0
23.345000 -0.016439 0
23.350000 -0.011821 0
23.355000 -0.006013 0
23.360000 0.001209 0
23.365000 0.010068 0
23.370000 0.020769 0
23.375000 0.033474 0
23.380000 0.048286 0
23.385000 0.065213 0
23.390000 0.084159 0
23.395000 0.104891 0
23.400000 0.127042 0
23.405000 0.150096 0
23.410000 0.173408 0
23.415000 0.196227 0
23.420000 0.217727 0
23.425000 0.237058 0
23.430000 0.253400 0
23.435000 0.266019 0
23.440000 0.274322 0
23.445000 0.277900 1
23.450000 0.276562 0
23.455000 0.270353 0
23.460000 0.259547 0
23.465000 0.244629 0
23.470000 0.226257 0
23.475000 0.205214 0
23.480000 0.182353 0
23.485000 0.158538 0
23.490000 0.134590 0
23.495000 0.111246 0
23.500000 0.089119 0
23.505000 0.068670 0
23.510000 0.050181 0
23.515000 0.033709 0
23.520000 0.018993 0
23.525000 0.005306 0
23.530000 -0.008722 0
23.535000 -0.025169 0
23.540000 -0.046540 0
23.545000 -0.074878 0
23.550000 -0.110291 0
23.555000 -0.149358 0
23.560000 -0.184266 0
23.565000 -0.203343 2
23.570000 -0.192868 0
23.575000 -0.139390 0
23.580000 -0.032015 0
23.585000 0.134728 0
23.590000 0.356400 0
23.595000 0.613227 0
23.600000 0.867566 0
23.605000 1.069280 0
23.610000 1.170373 3
23.615000 1.143025 0
23.620000 0.991414 0
23.625000 0.750408 0
23.630000 0.470620 0
23.635000 0.200540 0
23.640000 -0.025258 0
23.645000 -0.188833 0
23.650000 -0.285865 0
23.655000 -0.321770 4
23.660000 -0.308957 0
23.665000 -0.264311 0
23.670000 -0.205697 0
23.675000 -0.147998 0
23.680000 -0.100361 0
23.685000 -0.065825 0
23.690000 -0.043005 0
23.695000 -0.028502 0
23.700000 -0.018830 0
23.705000 -0.011360 0
23.710000 -0.004458 0
23.715000 0.002762 0
23.720000 0.010741 0
23.725000 0.019700 0
23.730000 0.029767 0
23.735000 0.041023 0
23.740000 0.053529 0
23.745000 0.067325 0
23.750000 0.082429 0
23.755000 0.098836 0
23.760000 0.116513 0
23.765000 0.135395 0
23.770000 0.155387 0
23.775000 0.176354 0
23.780000 0.198130 0
23.785000 0.220513 0
23.790000 0.243267 0
23.795000 0.266124 0
23.800000 0.288794 0
23.805000 0.310962 0
23.810000 0.332301 0
23.815000 0.352478 0
23.820000 0.371160 0
23.825000 0.388025 0
23.830000 0.402771 0
23.835000 0.415124 0
23.840000 0.424845 0
23.845000 0.431739 0
23.850000 0.435663 0
23.855000 0.436523 5
23.860000 0.434288 0
23.865000 0.428982 0
23.870000 0.420687 0
23.875000 0.409544 0
23.880000 0.395740 0
23.885000 0.379513 0
23.890000 0.361135 0
23.895000 0.340914 0
23.900000 0.319176 0
23.905000 0.296262 0
23.910000 0.272516 0
23.915000 0.248279 0
23.920000 0.223880 0
23.925000 0.199626 0
23.930000 0.175800 0
23.935000 0.152654 0
23.940000 0.130407 0
23.945000 0.109242 0
23.950000 0.089304 0
23.955000 0.070701 0
23.960000 0.053508 0
23.965000 0.037763 0
23.970000 0.023479 0
23.975000 0.010637 0
23.980000 -0.000801 0
23.985000 -0.010894 0
23.990000 -0.019715 0
23.995000 -0.027347 0
24.000000 -0.033883 0
24.005000 -0.039417 0
24.010000 -0.044048 0
24.015000 -0.047871 0
24.020000 -0.050978 0
24.025000 -0.053459 0
24.030000 -0.055395 0
24.035000 -0.056863 0
24.040000 -0.057931 0
24.045000 -0.058661 0
24.050000 -0.059109 0
24.055000 -0.059321 0
24.060000 -0.059340 0
24.065000 -0.059201 0
24.070000 -0.058934 0
24.075000 -0.058565 0
24.080000 -0.058114 0
24.085000 -0.057600 0
24.090000 -0.057037 0
24.095000 -0.056435 0
24.100000 -0.055805 0
24.105000 -0.055094 0
24.110000 -0.054373 0
24.115000 -0.053655 0
24.120000 -0.052941 0
24.125000 -0.052230 0
24.130000 -0.051523 0
24.135000 -0.050820 0
24.140000 -0.050120 0
24.145000 -0.049423 0
24.150000 -0.048730 0
24.155000 -0.048041 0
24.160000 -0.047354 0
24.165000 -0.046672 0
24.170000 -0.045992 0
24.175000 -0.045316 0
24.180000 -0.044644 0
24.185000 -0.043974 0
24.190000 -0.043308 0
24.195000 -0.042646 0
24.200000 -0.041987 0
24.205000 -0.041331 0
24.210000 -0.040678 0
24.215000 -0.040028 0
24.220000 -0.039382 0
24.225000 -0.038739 0
24.230000 -0.038098 0
24.235000 -0.037461 0
24.240000 -0.036826 0
24.245000 -0.036193 0
24.250000 -0.035561 0
24.255000 -0.034928 0
24.260000 -0.034292 0
24.265000 -0.033650 0
24.270000 -0.032995 0
24.275000 -0.032319 0
24.280000 -0.031608 0
24.285000 -0.030843 0
24.290000 -0.029996 0
24.295000 -0.029030 0
24.300000 -0.027891 0
24.305000 -0.026511 0
24.310000 -0.024800 0
24.315000 -0.022642 0
24.320000 -0.019899 0
24.325000 -0.016404 0
24.330000 -0.011962 0
24.335000 -0.006363 0
24.340000 0.000622 0
24.345000 0.009219 0
24.350000 0.019637 0
24.355000 0.032049 0
24.360000 0.046567 0
24.365000 0.063215 0
24.370000 0.081911 0
24.375000 0.102439 0
24.380000 0.124443 0
24.385000 0.147424 0
24.390000 0.170744 0
24.395000 0.193654 0
24.400000 0.215327 0
24.405000 0.234906 0
24.410000 0.251558 0
24.415000 0.264533 0
24.420000 0.273217 0
24.425000 0.277181 1
24.430000 0.276214 0
24.435000 0.270343 0
24.440000 0.259828 0
24.445000 0.245146 0
24.450000 0.226952 0
24.455000 0.206030 0
24.460000 0.183237 0
24.465000 0.159447 0
24.470000 0.135490 0
24.475000 0.112115 0
24.480000 0.089943 0
24.485000 0.069446 0
24.490000 0.050913 0
24.495000 0.034406 0
24.500000 0.019670 0
24.505000 0.005975 0
24.510000 -0.008052 0
24.515000 -0.024509 0
24.520000 -0.045921 0
24.525000 -0.074341 0
24.530000 -0.109847 0
24.535000 -0.148925 0
24.540000 -0.183607 0
24.545000 -0.202044 2
24.550000 -0.190372 0
24.555000 -0.135067 0
24.560000 -0.025284 0
24.565000 0.144182 0
24.570000 0.368249 0
24.575000 0.626067 0
24.580000 0.878738 0
24.585000 1.075333 0
24.590000 1.168222 3
24.595000 1.131240 0
24.600000 0.970966 0
24.605000 0.724604 0
24.610000 0.443867 0
24.615000 0.176902 0
24.620000 -0.042952 0
24.625000 -0.199155 0
24.630000 -0.288597 0
24.635000 -0.317712 4
24.640000 -0.299775 0
24.645000 -0.252229 0
24.650000 -0.192978 0
24.655000 -0.136378 0
24.660000 -0.090735 0
24.665000 -0.058284 0
24.670000 -0.037134 0
24.675000 -0.023719 0
24.680000 -0.014622 0
24.685000 -0.007369 0
24.690000 -0.000469 0
24.695000 0.006864 0
24.700000 0.015019 0
24.705000 0.024193 0
24.710000 0.034501 0
24.715000 0.046023 0
24.720000 0.058813 0
24.725000 0.072908 0
24.730000 0.088322 0
24.735000 0.105042 0
24.740000 0.123027 0
24.745000 0.142203 0
24.750000 0.162464 0
24.755000 0.183666 0
24.760000 0.205629 0
24.765000 0.228138 0
24.770000 0.250947 0
24.775000 0.273775 0
24.780000 0.296321 0
24.785000 0.318263 0
24.790000 0.339264 0
24.795000 0.358988 0
24.800000 0.377100 0
24.805000 0.393279 0
24.810000 0.407229 0
24.815000 0.418682 0
24.820000 0.427412 0
24.825000 0.433240 0
24.830000 0.436037 5
24.835000 0.435733 0
24.840000 0.432317 0
24.845000 0.425835 0
24.850000 0.416394 0
24.855000 0.404155 0
24.860000 0.389331 0
24.865000 0.372177 0
24.870000 0.352983 0
24.875000 0.332071 0
24.880000 0.309779 0
24.885000 0.286453 0
24.890000 0.262444 0
24.895000 0.238089 0
24.900000 0.213715 0
24.905000 0.189621 0
24.910000 0.166080 0
24.915000 0.143332 0
24.920000 0.121581 0
24.925000 0.100994 0
24.930000 0.081699 0
24.935000 0.063789 0
24.940000 0.047321 0
24.945000 0.032320 0
24.950000 0.018782 0
24.955000 0.006677 0
24.960000 -0.004045 0
24.965000 -0.013450 0
24.970000 -0.021621 0
24.975000 -0.028647 0
24.980000 -0.034622 0
24.985000 -0.039645 0
24.990000 -0.043813 0
24.995000 -0.047223 0
25.000000 -0.049966 0
25.005000 -0.052128 0
25.010000 -0.053788 0
25.015000 -0.055019 0
25.020000 -0.055886 0
25.025000 -0.056449 0
25.030000 -0.056757 0
25.035000 -0.056855 0
25.040000 -0.056782 0
25.045000 -0.056570 0
25.050000 -0.056247 0
25.055000 -0.055835 0
25.060000 -0.055352 0
25.065000 -0.054816 0
25.070000 -0.054238 0
25.075000 -0.053628 0
25.080000 -0.052983 0
25.085000 -0.052272 0
25.090000 -0.051565 0
25.095000 -0.050861 0
25.100000 -0.050161 0
25.105000 -0.049464 0
25.110000 -0.048771 0
25.115000 -0.048081 0
25.120000 -0.047394 0
25.125000 -0.046711 0
25.130000 -0.046032 0
25.135000 -0.045356 0
25.140000 -0.044683 0
25.145000 -0.044013 0
25.150000 -0.043347 0
25.155000 -0.042684 0
25.160000 -0.042025 0
25.165000 -0.041369 0
25.170000 -0.040716 0
25.175000 -0.040066 0
25.180000 -0.039420 0
25.185000 -0.038777 0
25.190000 -0.038137 0
25.195000 -0.037500 0
25.200000 -0.036866 0
25.205000 -0.036235 0
25.210000 -0.035607 0
25.215000 -0.034981 0
25.220000 -0.034357 0
25.225000 -0.033735 0
25.230000 -0.033112 0
25.235000 -0.032486 0
25.240000 -0.031854 0
25.245000 -0.031210 0
25.250000 -0.030546 0
25.255000 -0.029848 0
25.260000 -0.029097 0
25.265000 -0.028267 0
25.270000 -0.027320 0
25.275000 -0.026204 0
25.280000 -0.024849 0
25.285000 -0.023167 0
25.290000 -0.021042 0
25.295000 -0.018334 0
25.300000 -0.014876 0
25.305000 -0.010472 0
25.310000 -0.004908 0
25.315000 0.002046 0
25.320000 0.010619 0
25.325000 0.021025 0
25.330000 0.033437 0
25.335000 0.047969 0
25.340000 0.064646 0
25.345000 0.083380 0
25.350000 0.103952 0
25.355000 0.125996 0
25.360000 0.149001 0
25.365000 0.172316 0
25.370000 0.195178 0
25.375000 0.216748 0
25.380000 0.236157 0
25.385000 0.252565 0
25.390000 0.265220 0
25.395000 0.273514 0
25.400000 0.277030 1
25.405000 0.275577 0
25.410000 0.269205 0
25.415000 0.258202 0
25.420000 0.243072 0
25.425000 0.224497 0
25.430000 0.203282 0
25.435000 0.180301 0
25.440000 0.156436 0
25.445000 0.132519 0
25.450000 0.109290 0
25.455000 0.087357 0
25.460000 0.067170 0
25.465000 0.048988 0
25.470000 0.032826 0
25.475000 0.018349 0
25.480000 0.004713 0
25.485000 -0.009620 0
25.490000 -0.026897 0
25.495000 -0.049675 0
25.500000 -0.079748 0
25.505000 -0.116526 0
25.510000 -0.155463 0
25.515000 -0.187478 0
25.520000 -0.199882 2
25.525000 -0.178501 0
25.530000 -0.110097 0
25.535000 0.015188 0
25.540000 0.200408 0
25.545000 0.436623 0
25.550000 0.697634 0
25.555000 0.939567 0
25.560000 1.109923 0
25.565000 1.165169 3
25.570000 1.088515 0
25.575000 0.897238 0
25.580000 0.634894 0
25.585000 0.353820 0
25.590000 0.098399 0
25.595000 -0.103260 0
25.600000 -0.239132 0
25.605000 -0.309336 0
25.610000 -0.322613 4
25.615000 -0.293805 0
25.620000 -0.240921 0
25.625000 -0.181175 0
25.630000 -0.127258 0
25.635000 -0.085540 0
25.640000 -0.056762 0
25.645000 -0.038290 0
25.650000 -0.026459 0
25.655000 -0.018095 0
25.660000 -0.011035 0
25.665000 -0.004037 0
25.670000 0.003540 0
25.675000 0.012010 0
25.680000 0.021540 0
25.685000 0.032230 0
25.690000 0.044151 0
25.695000 0.057353 0
25.700000 0.071865 0
25.705000 0.087695 0
25.710000 0.104822 0
25.715000 0.123195 0
25.720000 0.142731 0
25.725000 0.163313 0
25.730000 0.184786 0
25.735000 0.206960 0
25.740000 0.229611 0
25.745000 0.252481 0
25.750000 0.275285 0
25.755000 0.297713 0
25.760000 0.319439 0
25.765000 0.340127 0
25.770000 0.359439 0
25.775000 0.377043 0
25.780000 0.392626 0
25.785000 0.405898 0
25.790000 0.416603 0
25.795000 0.424529 0
25.800000 0.429510 0
25.805000 0.431435 5
25.810000 0.430249 0
25.815000 0.425959 0
25.820000 0.418630 0
25.825000 0.408384 0
25.830000 0.395397 0
25.835000 0.379894 0
25.840000 0.362143 0
25.845000 0.342443 0
25.850000 0.321121 0
25.855000 0.298518 0
25.860000 0.274983 0
25.865000 0.250863 0
25.870000 0.226494 0
25.875000 0.202193 0
25.880000 0.178254 0
25.885000 0.154940 0
25.890000 0.132481 0
25.895000 0.111070 0
25.900000 0.090863 0
25.905000 0.071978 0
25.910000 0.054498 0
25.915000 0.038469 0
25.920000 0.023908 0
25.925000 0.010803 0
25.930000 -0.000881 0
25.935000 -0.011200 0
25.940000 -0.020225 0
25.945000 -0.028040 0
25.950000 -0.034737 0
25.955000 -0.040411 0
25.960000 -0.045161 0
25.965000 -0.049085 0
25.970000 -0.052277 0
25.975000 -0.054826 0
25.980000 -0.056818 0
25.985000 -0.058329 0
25.990000 -0.059431 0
25.995000 -0.060187 0
26.000000 -0.060653 0
26.005000 -0.060877 0
26.010000 -0.060904 0
26.015000 -0.060769 0
26.020000 -0.060503 0
26.025000 -0.060133 0
26.030000 -0.059679 0
26.035000 -0.059161 0
26.040000 -0.058592 0
26.045000 -0.057984 0
26.050000 -0.057348 0
26.055000 -0.056629 0
26.060000 -0.055900 0
26.065000 -0.055175 0
26.070000 -0.054453 0
26.075000 -0.053735 0
26.080000 -0.053020 0
26.085000 -0.052309 0
26.090000 -0.051602 0
26.095000 -0.050898 0
26.100000 -0.050197 0
26.105000 -0.049501 0
26.110000 -0.048807 0
26.115000 -0.048117 0
26.120000 -0.047430 0
26.125000 -0.046747 0
26.130000 -0.046068 0
26.135000 -0.045391 0
26.140000 -0.044718 0
26.145000 -0.044049 0
26.150000 -0.043382 0
26.155000 -0.042719 0
26.160000 -0.042060 0
26.165000 -0.041403 0
26.170000 -0.040750 0
26.175000 -0.040100 0
26.180000 -0.039453 0
26.185000 -0.038808 0
26.190000 -0.038167 0
26.195000 -0.037527 0
26.200000 -0.036887 0
26.205000 -0.036247 0
26.210000 -0.035604 0
26.215000 -0.034953 0
26.220000 -0.034288 0
26.225000 -0.033600 0
26.230000 -0.032874 0
26.235000 -0.032089 0
26.240000 -0.031216 0
26.245000 -0.030213 0
26.250000 -0.029025 0
26.255000 -0.027577 0
26.260000 -0.025773 0
26.265000 -0.023492 0
26.270000 -0.020587 0
26.275000 -0.016881 0
26.280000 -0.012176 0
26.285000 -0.006250 0
26.290000 0.001127 0
26.295000 0.010181 0
26.300000 0.021118 0
26.305000 0.034098 0
26.310000 0.049213 0
26.315000 0.066461 0
26.320000 0.085721 0
26.325000 0.106737 0
26.330000 0.129104 0
26.335000 0.152273 0
26.340000 0.175561 0
26.345000 0.198182 0
26.350000 0.219283 0
26.355000 0.237999 0
26.360000 0.253507 0
26.365000 0.265088 0
26.370000 0.272180 0
26.375000 0.274423 1
26.380000 0.271687 0
26.385000 0.264086 0
26.390000 0.251967 0
26.395000 0.235884 0
26.400000 0.216556 0
26.405000 0.194812 0
26.410000 0.171532 0
26.415000 0.147589 0
26.420000 0.123797 0
26.425000 0.100863 0
26.430000 0.079358 0
26.435000 0.059684 0
26.440000 0.042045 0
26.445000 0.026378 0
26.450000 0.012236 0
26.455000 -0.001389 0
26.460000 -0.016225 0
26.465000 -0.034661 0
26.470000 -0.059186 0
26.475000 -0.091150 0
26.480000 -0.129079 0
26.485000 -0.167274 0
26.490000 -0.195586 0
26.495000 -0.200729 2
26.500000 -0.168549 0
26.505000 -0.086425 0
26.510000 0.054159 0
26.515000 0.253768 0
26.520000 0.499502 0
26.525000 0.760424 0
26.530000 0.989234 0
26.535000 1.133865 0
26.540000 1.156120 3
26.545000 1.048257 0
26.550000 0.835895 0
26.555000 0.565047 0
26.560000 0.286079 0
26.565000 0.039238 0
26.570000 -0.151341 0
26.575000 -0.276351 0
26.580000 -0.337457 0
26.585000 -0.344163 4
26.590000 -0.311482 0
26.595000 -0.257036 0
26.600000 -0.197259 0
26.605000 -0.143977 0
26.610000 -0.102931 0
26.615000 -0.074576 0
26.620000 -0.056255 0
26.625000 -0.044405 0
26.630000 -0.035952 0
26.635000 -0.028797 0
26.640000 -0.021722 0
26.645000 -0.014093 0
26.650000 -0.005595 0
26.655000 0.003937 0
26.660000 0.014605 0
26.665000 0.026478 0
26.670000 0.039609 0
26.675000 0.054027 0
26.680000 0.069743 0
26.685000 0.086740 0
26.690000 0.104974 0
26.695000 0.124370 0
26.700000 0.144820 0
26.705000 0.166182 0
26.710000 0.188278 0
26.715000 0.210899 0
26.720000 0.233802 0
26.725000 0.256716 0
26.730000 0.279347 0
26.735000 0.301383 0
26.740000 0.322497 0
26.745000 0.342363 0
26.750000 0.360656 0
26.755000 0.377063 0
26.760000 0.391294 0
26.765000 0.403088 0
26.770000 0.412221 0
26.775000 0.418512 0
26.780000 0.421832 0
26.785000 0.422102 5
26.790000 0.419304 0
26.795000 0.413472 0
26.800000 0.404701 0
26.805000 0.393135 0
26.810000 0.378970 0
26.815000 0.362446 0
26.820000 0.343836 0
26.825000 0.323446 0
26.830000 0.301600 0
26.835000 0.278633 0
26.840000 0.254885 0
26.845000 0.230689 0
26.850000 0.206366 0
26.855000 0.182216 0
26.860000 0.158515 0
26.865000 0.135507 0
26.870000 0.113406 0
26.875000 0.092388 0
26.880000 0.072594 0
26.885000 0.054128 0
26.890000 0.037062 0
26.895000 0.021433 0
26.900000 0.007252 0
26.905000 -0.005499 0
26.910000 -0.016859 0
26.915000 -0.026884 0
26.920000 -0.035646 0
26.925000 -0.043229 0
26.930000 -0.049721 0
26.935000 -0.055218 0
26.940000 -0.059814 0
26.945000 -0.063603 0
26.950000 -0.066678 0
26.955000 -0.069126 0
26.960000 -0.071027 0
26.965000 -0.072458 0
26.970000 -0.073486 0
26.975000 -0.074174 0
26.980000 -0.074575 0
26.985000 -0.074738 0
26.990000 -0.074705 0
26.995000 -0.074510 0
27.000000 -0.074185 0
27.005000 -0.073756 0
27.010000 -0.073243 0
27.015000 -0.072664 0
27.020000 -0.072034 0
27.025000 -0.071365 0
27.030000 -0.070667 0
27.035000 -0.069935 0
27.040000 -0.069139 0
27.045000 -0.068348 0
27.050000 -0.067560 0
27.055000 -0.066777 0
27.060000 -0.065997 0
27.065000 -0.065221 0
27.070000 -0.064450 0
27.075000 -0.063682 0
27.080000 -0.062917 0
27.085000 -0.062157 0
27.090000 -0.061400 0
27.095000 -0.060648 0
27.100000 -0.059898 0
27.105000 -0.059153 0
27.110000 -0.058412 0
27.115000 -0.057674 0
27.120000 -0.056939 0
27.125000 -0.056209 0
27.130000 -0.055482 0
27.135000 -0.054759 0
27.140000 -0.054039 0
27.145000 -0.053323 0
27.150000 -0.052610 0
27.155000 -0.051901 0
27.160000 -0.051195 0
27.165000 -0.050492 0
27.170000 -0.049793 0
27.175000 -0.049096 0
27.180000 -0.048400 0
27.185000 -0.047706 0
27.190000 -0.047010 0
27.195000 -0.046309 0
27.200000 -0.045600 0
27.205000 -0.044875 0
27.210000 -0.044123 0
27.215000 -0.043328 0
27.220000 -0.042469 0
27.225000 -0.041514 0
27.230000 -0.040418 0
27.235000 -0.039124 0
27.240000 -0.037555 0
27.245000 -0.035612 0
27.250000 -0.033173 0
27.255000 -0.030089 0
27.260000 -0.026186 0
27.265000 -0.021265 0
27.270000 -0.015110 0
27.275000 -0.007498 0
27.280000 0.001790 0
27.285000 0.012950 0
27.290000 0.026133 0
27.295000 0.041422 0
27.300000 0.058809 0
27.305000 0.078170 0
27.310000 0.099251 0
27.315000 0.121658 0
27.320000 0.144858 0
27.325000 0.168188 0
27.330000 0.190886 0
27.335000 0.212127 0
27.340000 0.231069 0
27.345000 0.246909 0
27.350000 0.258938 0
27.355000 0.266593 0
27.360000 0.269499 1
27.365000 0.267502 0
27.370000 0.260679 0
27.375000 0.249331 0
27.380000 0.233966 0
27.385000 0.215256 0
27.390000 0.193988 0
27.395000 0.171014 0
27.400000 0.147186 0
27.405000 0.123314 0
27.410000 0.100115 0
27.415000 0.078182 0
27.420000 0.057957 0
27.425000 0.039701 0
27.430000 0.023445 0
27.435000 0.008895 0
27.440000 -0.004714 0
27.445000 -0.018798 0
27.450000 -0.035467 0
27.455000 -0.057209 0
27.460000 -0.085973 0
27.465000 -0.121693 0
27.470000 -0.160730 0
27.475000 -0.195103 0
27.480000 -0.213078 2
27.485000 -0.201010 0
27.490000 -0.145619 0
27.495000 -0.036245 0
27.500000 0.132294 0
27.505000 0.355224 0
27.510000 0.612495 0
27.515000 0.866419 0
27.520000 1.067155 0
27.525000 1.167236 3
27.530000 1.140153 0
27.535000 0.991352 0
27.540000 0.753566 0
27.545000 0.474833 0
27.550000 0.202086 0
27.555000 -0.030183 0
27.560000 -0.203081 0
27.565000 -0.310900 0
27.570000 -0.357486 4
27.575000 -0.353585 0
27.580000 -0.314643 0
27.585000 -0.257848 0
27.590000 -0.198480 0
27.595000 -0.146967 0
27.600000 -0.107899 0
27.605000 -0.081090 0
27.610000 -0.063719 0
27.615000 -0.052329 0
27.620000 -0.044029 0
27.625000 -0.036873 0
27.630000 -0.029735 0
27.635000 -0.022028 0
27.640000 -0.013458 0
27.645000 -0.003867 0
27.650000 0.006842 0
27.655000 0.018738 0
27.660000 0.031870 0
27.665000 0.046268 0
27.670000 0.061942 0
27.675000 0.078879 0
27.680000 0.097038 0
27.685000 0.116348 0
27.690000 0.136708 0
27.695000 0.157984 0
27.700000 0.180008 0
27.705000 0.202582 0
27.710000 0.225475 0
27.715000 0.248429 0
27.720000 0.271163 0
27.725000 0.293376 0
27.730000 0.314756 0
27.735000 0.334984 0
27.740000 0.353744 0
27.745000 0.370730 0
27.750000 0.385653 0
27.755000 0.398250 0
27.760000 0.408291 0
27.765000 0.415589 0
27.770000 0.419998 0
27.775000 0.421427 5
27.780000 0.419833 0
27.785000 0.415231 0
27.790000 0.407690 0
27.795000 0.397330 0
27.800000 0.384319 0
27.805000 0.368872 0
27.810000 0.351241 0
27.815000 0.331707 0
27.820000 0.310577 0
27.825000 0.288173 0
27.830000 0.264822 0
27.835000 0.240852 0
27.840000 0.216581 0
27.845000 0.192314 0
27.850000 0.168333 0
27.855000 0.144893 0
27.860000 0.122220 0
27.865000 0.100507 0
27.870000 0.079915 0
27.875000 0.060566 0
27.880000 0.042554 0
27.885000 0.025935 0
27.890000 0.010738 0
27.895000 -0.003034 0
27.900000 -0.015405 0
27.905000 -0.026416 0
27.910000 -0.036127 0
27.915000 -0.044610 0
27.920000 -0.051947 0
27.925000 -0.058226 0
27.930000 -0.063540 0
27.935000 -0.067979 0
27.940000 -0.071637 0
27.945000 -0.074602 0
27.950000 -0.076956 0
27.955000 -0.078780 0
27.960000 -0.080145 0
27.965000 -0.081117 0
27.970000 -0.081757 0
27.975000 -0.082116 0
27.980000 -0.082240 0
27.985000 -0.082172 0
27.990000 -0.081944 0
27.995000 -0.081587 0
28.000000 -0.081126 0
28.005000 -0.080582 0
28.010000 -0.079972 0
28.015000 -0.079311 0
28.020000 -0.078610 0
28.025000 -0.077879 0
28.030000 -0.077114 0
28.035000 -0.076283 0
28.040000 -0.075456 0
28.045000 -0.074633 0
28.050000 -0.073814 0
28.055000 -0.072999 0
28.060000 -0.072188 0
28.065000 -0.071382 0
28.070000 -0.070579 0
28.075000 -0.069781 0
28.080000 -0.068986 0
28.085000 -0.068195 0
28.090000 -0.067409 0
28.095000 -0.066626 0
28.100000 -0.065847 0
28.105000 -0.065072 0
28.110000 -0.064301 0
28.115000 -0.063533 0
28.120000 -0.062770 0
28.125000 -0.062010 0
28.130000 -0.061254 0
28.135000 -0.060502 0
28.140000 -0.059754 0
28.145000 -0.059009 0
28.150000 -0.058268 0
28.155000 -0.057531 0
28.160000 -0.056797 0
28.165000 -0.056066 0
28.170000 -0.055338 0
28.175000 -0.054613 0
28.180000 -0.053889 0
28.185000 -0.053165 0
28.190000 -0.052440 0
28.195000 -0.051709 0
28.200000 -0.050967 0
28.205000 -0.050206 0
28.210000 -0.049416 0
28.215000 -0.048578 0
28.220000 -0.047668 0
28.225000 -0.046654 0
28.230000 -0.045489 0
28.235000 -0.044112 0
28.240000 -0.042446 0
28.245000 -0.040388 0
28.250000 -0.037816 0
28.255000 -0.034581 0
28.260000 -0.030509 0
28.265000 -0.025404 0
28.270000 -0.019057 0
28.275000 -0.011249 0
28.280000 -0.001770 0
28.285000 0.009566 0
28.290000 0.022903 0
28.295000 0.038315 0
28.300000 0.055788 0
28.305000 0.075201 0
28.310000 0.096303 0
28.315000 0.118711 0
28.320000 0.141910 0
28.325000 0.165260 0
28.330000 0.188025 0
28.335000 0.209408 0
28.340000 0.228590 0
28.345000 0.244788 0
28.350000 0.257302 0
