0.000000 1.158411 3
0.005000 1.022173 0
0.010000 0.685453 0
0.015000 0.280202 0
0.020000 -0.071041 0
0.025000 -0.302130 0
0.030000 -0.400000 4
0.035000 -0.386611 0
0.040000 -0.304951 0
0.045000 -0.202493 0
0.050000 -0.112621 0
0.055000 -0.046556 0
0.060000 0.000318 0
0.065000 0.037154 0
0.070000 0.070710 0
0.075000 0.104117 0
0.080000 0.138141 0
0.085000 0.172479 0
0.090000 0.206422 0
0.095000 0.239111 0
0.100000 0.269632 0
0.105000 0.297066 0
0.110000 0.320541 0
0.115000 0.339272 0
0.120000 0.352608 0
0.125000 0.360066 0
0.130000 0.361364 5
0.135000 0.356433 0
0.140000 0.345423 0
0.145000 0.328698 0
0.150000 0.306812 0
0.155000 0.280480 0
0.160000 0.250538 0
0.165000 0.217899 0
0.170000 0.183507 0
0.175000 0.148291 0
0.180000 0.113126 0
0.185000 0.078798 0
0.190000 0.045980 0
0.195000 0.015215 0
0.200000 -0.013094 0
0.205000 -0.038679 0
0.210000 -0.061399 0
0.215000 -0.081229 0
0.220000 -0.098240 0
0.225000 -0.112579 0
0.230000 -0.124449 0
0.235000 -0.134089 0
0.240000 -0.141758 0
0.245000 -0.147718 0
0.250000 -0.152226 0
0.255000 -0.155520 0
0.260000 -0.157329 0
0.265000 -0.156267 0
0.270000 -0.155210 0
0.275000 -0.154157 0
0.280000 -0.153108 0
0.285000 -0.152063 0
0.290000 -0.151017 0
0.295000 -0.149965 0
0.300000 -0.148897 0
0.305000 -0.147796 0
0.310000 -0.146627 0
0.315000 -0.145338 0
0.320000 -0.143842 0
0.325000 -0.142002 0
0.330000 -0.139621 0
0.335000 -0.136416 0
0.340000 -0.132012 0
0.345000 -0.125928 0
0.350000 -0.117597 0
0.355000 -0.106396 0
0.360000 -0.091709 0
0.365000 -0.073023 0
0.370000 -0.050043 0
0.375000 -0.022822 0
0.380000 0.008129 0
0.385000 0.041766 0
0.390000 0.076509 0
0.395000 0.110331 0
0.400000 0.140926 0
0.405000 0.165966 0
0.410000 0.183390 0
0.415000 0.191685 1
0.420000 0.190101 0
0.425000 0.178771 0
0.430000 0.158687 0
0.435000 0.131558 0
0.440000 0.099563 0
0.445000 0.065007 0
0.450000 0.029847 0
0.455000 -0.005049 0
0.460000 -0.040961 0
0.465000 -0.082049 0
0.470000 -0.133890 0
0.475000 -0.197912 0
0.480000 -0.263478 0
0.485000 -0.304203 2
0.490000 -0.283400 0
0.495000 -0.165310 0
0.500000 0.072005 0
0.505000 0.416888 0
0.510000 0.798942 0
0.515000 1.090185 0
0.520000 1.164382 3
0.525000 0.982322 0
0.530000 0.621496 0
0.535000 0.218509 0
0.540000 -0.112887 0
0.545000 -0.317917 0
0.550000 -0.391602 4
0.555000 -0.361096 0
0.560000 -0.271858 0
0.565000 -0.170000 0
0.570000 -0.084708 0
0.575000 -0.023220 0
0.580000 0.020852 0
0.585000 0.056542 0
0.590000 0.089852 0
0.595000 0.123311 0
0.600000 0.157384 0
0.605000 0.191644 0
0.610000 0.225340 0
0.615000 0.257592 0
0.620000 0.287480 0
0.625000 0.314090 0
0.630000 0.336560 0
0.635000 0.354131 0
0.640000 0.366182 0
0.645000 0.372271 5
0.650000 0.372160 0
0.655000 0.365827 0
0.660000 0.353471 0
0.665000 0.335500 0
0.670000 0.312509 0
0.675000 0.285243 0
0.680000 0.254562 0
0.685000 0.221392 0
0.690000 0.186679 0
0.695000 0.151345 0
0.700000 0.116250 0
0.705000 0.082158 0
0.710000 0.049713 0
0.715000 0.019430 0
0.720000 -0.008321 0
0.725000 -0.033300 0
0.730000 -0.055397 0
0.735000 -0.074609 0
0.740000 -0.091027 0
0.745000 -0.104813 0
0.750000 -0.116182 0
0.755000 -0.125379 0
0.760000 -0.132666 0
0.765000 -0.138305 0
0.770000 -0.142550 0
0.775000 -0.145635 0
0.780000 -0.147314 0
0.785000 -0.146302 0
0.790000 -0.145294 0
0.795000 -0.144291 0
0.800000 -0.143291 0
0.805000 -0.142293 0
0.810000 -0.141294 0
0.815000 -0.140286 0
0.820000 -0.139259 0
0.825000 -0.138191 0
0.830000 -0.137044 0
0.835000 -0.135758 0
0.840000 -0.134234 0
0.845000 -0.132322 0
0.850000 -0.129802 0
0.855000 -0.126370 0
0.860000 -0.121619 0
0.865000 -0.115046 0
0.870000 -0.106061 0
0.875000 -0.094035 0
0.880000 -0.078367 0
0.885000 -0.058590 0
0.890000 -0.034489 0
0.895000 -0.006231 0
0.900000 0.025533 0
0.905000 0.059606 0
0.910000 0.094273 0
0.915000 0.127402 0
0.920000 0.156651 0
0.925000 0.179730 0
0.930000 0.194698 0
0.935000 0.200234 1
0.940000 0.195829 0
0.945000 0.181862 0
0.950000 0.159550 0
0.955000 0.130769 0
0.960000 0.097777 0
0.965000 0.062840 0
0.970000 0.027699 0
0.975000 -0.007275 0
0.980000 -0.044173 0
0.985000 -0.087886 0
0.990000 -0.143556 0
0.995000 -0.209872 0
1.000000 -0.271568 0
1.005000 -0.298217 2
1.010000 -0.252079 0
1.015000 -0.099927 0
1.020000 0.172803 0
1.025000 0.539215 0
1.030000 0.909019 0
1.035000 1.145697 3
1.040000 1.141025 0
1.045000 0.892241 0
1.050000 0.503796 0
1.055000 0.113204 0
1.060000 -0.182418 0
1.065000 -0.345516 0
1.070000 -0.382705 4
1.075000 -0.328499 0
1.080000 -0.230874 0
1.085000 -0.132255 0
1.090000 -0.054708 0
1.095000 0.000141 0
1.100000 0.040576 0
1.105000 0.074988 0
1.110000 0.108164 0
1.115000 0.141797 0
1.120000 0.175965 0
1.125000 0.210094 0
1.130000 0.243373 0
1.135000 0.274899 0
1.140000 0.303747 0
1.145000 0.329010 0
1.150000 0.349854 0
1.155000 0.365559 0
1.160000 0.375560 0
1.165000 0.379483 5
1.170000 0.377161 0
1.175000 0.368652 0
1.180000 0.354229 0
1.185000 0.334371 0
1.190000 0.309734 0
1.195000 0.281111 0
1.200000 0.249393 0
1.205000 0.215524 0
1.210000 0.180448 0
1.215000 0.145073 0
1.220000 0.110230 0
1.225000 0.076644 0
1.230000 0.044915 0
1.235000 0.015504 0
1.240000 -0.011263 0
1.245000 -0.035199 0
1.250000 -0.056234 0
1.255000 -0.074403 0
1.260000 -0.089828 0
1.265000 -0.102694 0
1.270000 -0.113229 0
1.275000 -0.121689 0
1.280000 -0.128338 0
1.285000 -0.133436 0
1.290000 -0.137232 0
1.295000 -0.139952 0
1.300000 -0.139512 0
1.305000 -0.138539 0
1.310000 -0.137570 0
1.315000 -0.136604 0
1.320000 -0.135642 0
1.325000 -0.134680 0
1.330000 -0.133714 0
1.335000 -0.132737 0
1.340000 -0.131731 0
1.345000 -0.130672 0
1.350000 -0.129512 0
1.355000 -0.128176 0
1.360000 -0.126546 0
1.365000 -0.124445 0
1.370000 -0.121617 0
1.375000 -0.117715 0
1.380000 -0.112290 0
1.385000 -0.104794 0
1.390000 -0.094614 0
1.395000 -0.081119 0
1.400000 -0.063750 0
1.405000 -0.042131 0
1.410000 -0.016200 0
1.415000 0.013676 0
1.420000 0.046605 0
1.425000 0.081150 0
1.430000 0.115384 0
1.435000 0.147045 0
1.440000 0.173770 0
1.445000 0.193380 0
1.450000 0.204180 0
1.455000 0.205190 1
1.460000 0.196304 0
1.465000 0.178299 0
1.470000 0.152726 0
1.475000 0.121686 0
1.480000 0.087500 0
1.485000 0.052283 0
1.490000 0.017269 0
1.495000 -0.018192 0
1.500000 -0.057590 0
1.505000 -0.106530 0
1.510000 -0.168152 0
1.515000 -0.235219 0
1.520000 -0.284722 2
1.525000 -0.281240 0
1.530000 -0.187542 0
1.535000 0.022877 0
1.540000 0.347964 0
1.545000 0.731263 0
1.550000 1.053548 0
1.555000 1.180085 3
1.560000 1.047741 0
1.565000 0.712477 0
1.570000 0.307158 0
1.575000 -0.044218 0
1.580000 -0.274779 0
1.585000 -0.371514 4
1.590000 -0.356874 0
1.595000 -0.274489 0
1.600000 -0.172181 0
1.605000 -0.083131 0
1.610000 -0.018034 0
1.615000 0.028116 0
1.620000 0.064551 0
1.625000 0.097923 0
1.630000 0.131234 0
1.635000 0.165168 0
1.640000 0.199380 0
1.645000 0.233140 0
1.650000 0.265572 0
1.655000 0.295751 0
1.660000 0.322751 0
1.665000 0.345695 0
1.670000 0.363802 0
1.675000 0.376429 0
1.680000 0.383109 0
1.685000 0.383578 5
1.690000 0.377793 0
1.695000 0.365931 0
1.700000 0.348385 0
1.705000 0.325739 0
1.710000 0.298734 0
1.715000 0.268228 0
1.720000 0.235151 0
1.725000 0.200458 0
1.730000 0.165080 0
1.735000 0.129890 0
1.740000 0.095665 0
1.745000 0.063062 0
1.750000 0.032606 0
1.755000 0.004679 0
1.760000 -0.020473 0
1.765000 -0.042733 0
1.770000 -0.062095 0
1.775000 -0.078647 0
1.780000 -0.092553 0
1.785000 -0.104025 0
1.790000 -0.113313 0
1.795000 -0.120679 0
1.800000 -0.126388 0
1.805000 -0.130695 0
1.810000 -0.133838 0
1.815000 -0.135573 0
1.820000 -0.134619 0
1.825000 -0.133669 0
1.830000 -0.132724 0
1.835000 -0.131782 0
1.840000 -0.130841 0
1.845000 -0.129898 0
1.850000 -0.128947 0
1.855000 -0.127975 0
1.860000 -0.126961 0
1.865000 -0.125865 0
1.870000 -0.124625 0
1.875000 -0.123139 0
1.880000 -0.121252 0
1.885000 -0.118739 0
1.890000 -0.115285 0
1.895000 -0.110475 0
1.900000 -0.103793 0
1.905000 -0.094641 0
1.910000 -0.082382 0
1.915000 -0.066419 0
1.920000 -0.046296 0
1.925000 -0.021830 0
1.930000 0.006770 0
1.935000 0.038793 0
1.940000 0.072975 0
1.945000 0.107532 0
1.950000 0.140282 0
1.955000 0.168853 0
1.960000 0.190963 0
1.965000 0.204722 0
1.970000 0.208893 1
1.975000 0.203082 0
1.980000 0.187793 0
1.985000 0.164362 0
1.990000 0.134755 0
1.995000 0.101276 0
2.000000 0.066169 0
2.005000 0.031037 0
2.010000 -0.004079 0
2.015000 -0.041783 0
2.020000 -0.087344 0
2.025000 -0.145389 0
2.030000 -0.212533 0
2.035000 -0.270380 0
2.040000 -0.286056 2
2.045000 -0.221444 0
2.050000 -0.045439 0
2.055000 0.250418 0
2.060000 0.627114 0
2.065000 0.980437 0
2.070000 1.171178 3
2.075000 1.108225 0
2.080000 0.815897 0
2.085000 0.415367 0
2.090000 0.040763 0
2.095000 -0.224366 0
2.100000 -0.354655 0
2.105000 -0.364967 4
2.110000 -0.295060 0
2.115000 -0.193824 0
2.120000 -0.099652 0
2.125000 -0.028739 0
2.130000 0.021160 0
2.135000 0.059169 0
2.140000 0.092866 0
2.145000 0.126055 0
2.150000 0.159837 0
2.155000 0.194029 0
2.160000 0.227954 0
2.165000 0.260755 0
2.170000 0.291510 0
2.175000 0.319283 0
2.180000 0.343179 0
2.185000 0.362388 0
2.190000 0.376229 0
2.195000 0.384193 0
2.200000 0.385970 5
2.205000 0.381467 0
2.210000 0.370819 0
2.215000 0.354377 0
2.220000 0.332689 0
2.225000 0.306474 0
2.230000 0.276571 0
2.235000 0.243907 0
2.240000 0.209438 0
2.245000 0.174108 0
2.250000 0.138809 0
2.255000 0.104341 0
2.260000 0.071388 0
2.265000 0.040502 0
2.270000 0.012093 0
2.275000 -0.013569 0
2.280000 -0.036344 0
2.285000 -0.056207 0
2.290000 -0.073234 0
2.295000 -0.087577 0
2.300000 -0.099443 0
2.305000 -0.109078 0
2.310000 -0.116744 0
2.315000 -0.122708 0
2.320000 -0.127228 0
2.325000 -0.130547 0
2.330000 -0.132405 0
2.335000 -0.131467 0
2.340000 -0.130534 0
2.345000 -0.129604 0
2.350000 -0.128678 0
2.355000 -0.127753 0
2.360000 -0.126827 0
2.365000 -0.125894 0
2.370000 -0.124941 0
2.375000 -0.123949 0
2.380000 -0.122882 0
2.385000 -0.121680 0
2.390000 -0.120245 0
2.395000 -0.118431 0
2.400000 -0.116020 0
2.405000 -0.112705 0
2.410000 -0.108083 0
2.415000 -0.101644 0
2.420000 -0.092796 0
2.425000 -0.080900 0
2.430000 -0.065347 0
2.435000 -0.045660 0
2.440000 -0.021621 0
2.445000 0.006602 0
2.450000 0.038344 0
2.455000 0.072387 0
2.460000 0.106981 0
2.465000 0.139960 0
2.470000 0.168948 0
2.475000 0.191633 0
2.480000 0.206073 0
2.485000 0.210970 1
2.490000 0.205859 0
2.495000 0.191184 0
2.500000 0.168232 0
2.505000 0.138946 0
2.510000 0.105629 0
2.515000 0.070554 0
2.520000 0.035390 0
2.525000 0.000300 0
2.530000 -0.037166 0
2.535000 -0.082206 0
2.540000 -0.139646 0
2.545000 -0.206659 0
2.550000 -0.265512 0
2.555000 -0.283663 2
2.560000 -0.222797 0
2.565000 -0.051153 0
2.570000 0.240953 0
2.575000 0.616344 0
2.580000 0.972253 0
2.585000 1.168853 3
2.590000 1.112240 0
2.595000 0.823903 0
2.600000 0.424143 0
2.605000 0.048152 0
2.610000 -0.219056 0
2.615000 -0.351202 0
2.620000 -0.362757 4
2.625000 -0.293419 0
2.630000 -0.192271 0
2.635000 -0.098005 0
2.640000 -0.027011 0
2.645000 0.022907 0
2.650000 0.060905 0
2.655000 0.094590 0
2.660000 0.127773 0
2.665000 0.161552 0
2.670000 0.195738 0
2.675000 0.229648 0
2.680000 0.262423 0
2.685000 0.293135 0
2.690000 0.320845 0
2.695000 0.344654 0
2.700000 0.363752 0
2.705000 0.377459 0
2.710000 0.385267 0
2.715000 0.386870 5
2.720000 0.382181 0
2.725000 0.371342 0
2.730000 0.354712 0
2.735000 0.332848 0
2.740000 0.306474 0
2.745000 0.276440 0
2.750000 0.243677 0
2.755000 0.209145 0
2.760000 0.173792 0
2.765000 0.138508 0
2.770000 0.104093 0
2.775000 0.071227 0
2.780000 0.040456 0
2.785000 0.012186 0
2.790000 -0.013321 0
2.795000 -0.035930 0
2.800000 -0.055624 0
2.805000 -0.072484 0
2.810000 -0.086665 0
2.815000 -0.098381 0
2.820000 -0.107879 0
2.825000 -0.115423 0
2.830000 -0.121281 0
2.835000 -0.125711 0
2.840000 -0.128954 0
2.845000 -0.130762 0
2.850000 -0.129832 0
2.855000 -0.128906 0
2.860000 -0.127985 0
2.865000 -0.127066 0
2.870000 -0.126149 0
2.875000 -0.125231 0
2.880000 -0.124304 0
2.885000 -0.123356 0
2.890000 -0.122366 0
2.895000 -0.121296 0
2.900000 -0.120082 0
2.905000 -0.118623 0
2.910000 -0.116764 0
2.915000 -0.114278 0
2.920000 -0.110848 0
2.925000 -0.106055 0
2.930000 -0.099379 0
2.935000 -0.090215 0
2.940000 -0.077921 0
2.945000 -0.061896 0
2.950000 -0.041686 0
2.955000 -0.017111 0
2.960000 0.011601 0
2.965000 0.043714 0
2.970000 0.077934 0
2.975000 0.112441 0
2.980000 0.145016 0
2.985000 0.173266 0
2.990000 0.194904 0
2.995000 0.208054 0
3.000000 0.211520 1
3.005000 0.204967 0
3.010000 0.188969 0
3.015000 0.164932 0
3.020000 0.134879 0
3.025000 0.101148 0
3.030000 0.065971 0
3.035000 0.030858 0
3.040000 -0.004373 0
3.045000 -0.042667 0
3.050000 -0.089510 0
3.055000 -0.149071 0
3.060000 -0.216416 0
3.065000 -0.270960 0
3.070000 -0.278235 2
3.075000 -0.200005 0
3.080000 -0.006914 0
3.085000 0.304516 0
3.090000 0.685808 0
3.095000 1.023042 0
3.100000 1.177206 3
3.105000 1.072192 0
3.110000 0.752210 0
3.115000 0.347590 0
3.120000 -0.012361 0
3.125000 -0.254337 0
3.130000 -0.361268 4
3.135000 -0.353563 0
3.140000 -0.274253 0
3.145000 -0.172041 0
3.150000 -0.081792 0
3.155000 -0.015542 0
3.160000 0.031238 0
3.165000 0.067883 0
3.170000 0.101271 0
3.175000 0.134546 0
3.180000 0.168447 0
3.185000 0.202641 0
3.190000 0.236391 0
3.195000 0.268815 0
3.200000 0.298975 0
3.205000 0.325936 0
3.210000 0.348812 0
3.215000 0.366813 0
3.220000 0.379291 0
3.225000 0.385779 0
3.230000 0.386017 5
3.235000 0.379967 0
3.240000 0.367818 0
3.245000 0.349979 0
3.250000 0.327046 0
3.255000 0.299778 0
3.260000 0.269049 0
3.265000 0.235803 0
3.270000 0.201003 0
3.275000 0.165591 0
3.280000 0.130440 0
3.285000 0.096328 0
3.290000 0.063905 0
3.295000 0.033687 0
3.300000 0.006047 0
3.305000 -0.018783 0
3.310000 -0.040698 0
3.315000 -0.059706 0
3.320000 -0.075908 0
3.325000 -0.089475 0
3.330000 -0.100630 0
3.335000 -0.109628 0
3.340000 -0.116735 0
3.345000 -0.122219 0
3.350000 -0.126335 0
3.355000 -0.129319 0
3.360000 -0.128963 0
3.365000 -0.128042 0
3.370000 -0.127125 0
3.375000 -0.126212 0
3.380000 -0.125302 0
3.385000 -0.124392 0
3.390000 -0.123480 0
3.395000 -0.122556 0
3.400000 -0.121608 0
3.405000 -0.120609 0
3.410000 -0.119516 0
3.415000 -0.118256 0
3.420000 -0.116717 0
3.425000 -0.114723 0
3.430000 -0.112027 0
3.435000 -0.108282 0
3.440000 -0.103042 0
3.445000 -0.095759 0
3.450000 -0.085812 0
3.455000 -0.072557 0
3.460000 -0.055422 0
3.465000 -0.034013 0
3.470000 -0.008252 0
3.475000 0.021502 0
3.480000 0.054355 0
3.485000 0.088854 0
3.490000 0.123046 0
3.495000 0.154631 0
3.500000 0.181208 0
3.505000 0.200571 0
3.510000 0.211013 0
3.515000 0.211569 1
3.520000 0.202166 0
3.525000 0.183639 0
3.530000 0.157603 0
3.535000 0.126215 0
3.540000 0.091836 0
3.545000 0.056570 0
3.550000 0.021542 0
3.555000 -0.014161 0
3.560000 -0.054399 0
3.565000 -0.104896 0
3.570000 -0.167988 0
3.575000 -0.234388 0
3.580000 -0.278550 2
3.585000 -0.263473 0
3.590000 -0.152166 0
3.595000 0.079059 0
3.600000 0.420537 0
3.605000 0.802900 0
3.610000 1.096590 0
3.615000 1.172080 3
3.620000 0.988889 0
3.625000 0.626456 0
3.630000 0.224117 0
3.635000 -0.103481 0
3.640000 -0.302508 0
3.645000 -0.369653 4
3.650000 -0.333978 0
3.655000 -0.242461 0
3.660000 -0.141326 0
3.665000 -0.058394 0
3.670000 0.000748 0
3.675000 0.043343 0
3.680000 0.078403 0
3.685000 0.111563 0
3.690000 0.145029 0
3.695000 0.179088 0
3.700000 0.213231 0
3.705000 0.246660 0
3.710000 0.278467 0
3.715000 0.307711 0
3.720000 0.333464 0
3.725000 0.354867 0
3.730000 0.371171 0
3.735000 0.381781 0
3.740000 0.386293 5
3.745000 0.384517 0
3.750000 0.376489 0
3.755000 0.362469 0
3.760000 0.342928 0
3.765000 0.318521 0
3.770000 0.290046 0
3.775000 0.258407 0
3.780000 0.224560 0
3.785000 0.189465 0
3.790000 0.154046 0
3.795000 0.119151 0
3.800000 0.085517 0
3.805000 0.053754 0
3.810000 0.024332 0
3.815000 -0.002423 0
3.820000 -0.026320 0
3.825000 -0.047292 0
3.830000 -0.065381 0
3.835000 -0.080711 0
3.840000 -0.093474 0
3.845000 -0.103904 0
3.850000 -0.112261 0
3.855000 -0.118815 0
3.860000 -0.123829 0
3.865000 -0.127554 0
3.870000 -0.130217 0
3.875000 -0.129810 0
3.880000 -0.128884 0
3.885000 -0.127963 0
3.890000 -0.127045 0
3.895000 -0.126130 0
3.900000 -0.125215 0
3.905000 -0.124294 0
3.910000 -0.123359 0
3.915000 -0.122392 0
3.920000 -0.121363 0
3.925000 -0.120220 0
3.930000 -0.118879 0
3.935000 -0.117209 0
3.940000 -0.115013 0
3.945000 -0.112012 0
3.950000 -0.107829 0
3.955000 -0.101982 0
3.960000 -0.093895 0
3.965000 -0.082932 0
3.970000 -0.068462 0
3.975000 -0.049956 0
3.980000 -0.027109 0
3.985000 0.000028 0
3.990000 0.030926 0
3.995000 0.064510 0
4.000000 0.099150 0
4.005000 0.132757 0
4.010000 0.162966 0
4.015000 0.187407 0
4.020000 0.204004 0
4.025000 0.211270 1
4.030000 0.208522 0
4.035000 0.195991 0
4.040000 0.174789 0
4.045000 0.146742 0
4.050000 0.114115 0
4.055000 0.079247 0
4.060000 0.044015 0
4.065000 0.009005 0
4.070000 -0.027617 0
4.075000 -0.070616 0
4.080000 -0.125407 0
4.085000 -0.191395 0
4.090000 -0.254023 0
4.095000 -0.282947 2
4.100000 -0.239772 0
4.105000 -0.090285 0
4.110000 0.180952 0
4.115000 0.547119 0
4.120000 0.916283 0
4.125000 1.149248 3
4.130000 1.137286 0
4.135000 0.881271 0
4.140000 0.490071 0
4.145000 0.102455 0
4.150000 -0.186124 0
4.155000 -0.340636 0
4.160000 -0.369998 4
4.165000 -0.310689 0
4.170000 -0.211621 0
4.175000 -0.114445 0
4.180000 -0.039389 0
4.185000 0.013428 0
4.190000 0.052777 0
4.195000 0.086823 0
4.200000 0.119973 0
4.205000 0.153659 0
4.210000 0.187829 0
4.215000 0.221851 0
4.220000 0.254885 0
4.225000 0.286006 0
4.230000 0.314275 0
4.235000 0.338783 0
4.240000 0.358700 0
4.245000 0.373324 0
4.250000 0.382115 0
4.255000 0.384733 5
4.260000 0.381056 0
4.265000 0.371190 0
4.270000 0.355459 0
4.275000 0.334391 0
4.280000 0.308689 0
4.285000 0.279184 0
4.290000 0.246798 0
4.295000 0.212491 0
4.300000 0.177217 0
4.305000 0.141878 0
4.310000 0.107289 0
4.315000 0.074152 0
4.320000 0.043036 0
4.325000 0.014367 0
4.330000 -0.011570 0
4.335000 -0.034620 0
4.340000 -0.054751 0
4.345000 -0.072029 0
4.350000 -0.086599 0
4.355000 -0.098668 0
4.360000 -0.108478 0
4.365000 -0.116293 0
4.370000 -0.122381 0
4.375000 -0.127003 0
4.380000 -0.130402 0
4.385000 -0.132315 0
4.390000 -0.131377 0
4.395000 -0.130444 0
4.400000 -0.129515 0
4.405000 -0.128589 0
4.410000 -0.127665 0
4.415000 -0.126740 0
4.420000 -0.125808 0
4.425000 -0.124857 0
4.430000 -0.123869 0
4.435000 -0.122807 0
4.440000 -0.121613 0
4.445000 -0.120192 0
4.450000 -0.118398 0
4.455000 -0.116014 0
4.460000 -0.112739 0
4.465000 -0.108168 0
4.470000 -0.101795 0
4.475000 -0.093025 0
4.480000 -0.081218 0
4.485000 -0.065759 0
4.490000 -0.046164 0
4.495000 -0.022208 0
4.500000 0.005949 0
4.505000 0.037649 0
4.510000 0.071674 0
4.515000 0.106275 0
4.520000 0.139276 0
4.525000 0.168291 0
4.530000 0.190998 0
4.535000 0.205443 0
4.540000 0.210321 1
4.545000 0.205167 0
4.550000 0.190433 0
4.555000 0.167415 0
4.560000 0.138071 0
4.565000 0.104717 0
4.570000 0.069632 0
4.575000 0.034476 0
4.580000 -0.000628 0
4.585000 -0.038206 0
4.590000 -0.083523 0
4.595000 -0.141330 0
4.600000 -0.208440 0
4.605000 -0.266526 0
4.610000 -0.282522 2
4.615000 -0.217954 0
4.620000 -0.041430 0
4.625000 0.255413 0
4.630000 0.632602 0
4.635000 0.984111 0
4.640000 1.169554 3
4.645000 1.099637 0
4.650000 0.802614 0
4.655000 0.401187 0
4.660000 0.028726 0
4.665000 -0.232879 0
4.670000 -0.359595 0
4.675000 -0.367129 4
4.680000 -0.295723 0
4.685000 -0.194245 0
4.690000 -0.100578 0
4.695000 -0.030307 0
4.700000 0.019158 0
4.705000 0.056981 0
4.710000 0.090645 0
4.715000 0.123860 0
4.720000 0.157675 0
4.725000 0.191885 0
4.730000 0.225806 0
4.735000 0.258579 0
4.740000 0.289279 0
4.745000 0.316972 0
4.750000 0.340764 0
4.755000 0.359846 0
4.760000 0.373545 0
4.765000 0.381354 0
4.770000 0.382970 5
4.775000 0.378307 0
4.780000 0.367505 0
4.785000 0.350921 0
4.790000 0.329111 0
4.795000 0.302793 0
4.800000 0.272814 0
4.805000 0.240099 0
4.810000 0.205607 0
4.815000 0.170280 0
4.820000 0.135009 0
4.825000 0.100589 0
4.830000 0.067702 0
4.835000 0.036896 0
4.840000 0.008576 0
4.845000 -0.016990 0
4.850000 -0.039667 0
4.855000 -0.059433 0
4.860000 -0.076367 0
4.865000 -0.090621 0
4.870000 -0.102406 0
4.875000 -0.111966 0
4.880000 -0.119565 0
4.885000 -0.125470 0
4.890000 -0.129939 0
4.895000 -0.133213 0
4.900000 -0.135036 0
4.905000 -0.134085 0
4.910000 -0.133138 0
4.915000 -0.132196 0
4.920000 -0.131256 0
4.925000 -0.130319 0
4.930000 -0.129380 0
4.935000 -0.128433 0
4.940000 -0.127467 0
4.945000 -0.126461 0
4.950000 -0.125378 0
4.955000 -0.124158 0
4.960000 -0.122702 0
4.965000 -0.120861 0
4.970000 -0.118414 0
4.975000 -0.115054 0
4.980000 -0.110372 0
4.985000 -0.103858 0
4.990000 -0.094914 0
4.995000 -0.082903 0
5.000000 -0.067218 0
5.005000 -0.047387 0
5.010000 -0.023203 0
5.015000 0.005153 0
5.020000 0.036998 0
5.025000 0.071099 0
5.030000 0.105689 0
5.035000 0.138593 0
5.040000 0.167430 0
5.045000 0.189897 0
5.050000 0.204068 0
5.055000 0.208667 1
5.060000 0.203257 0
5.065000 0.188311 0
5.070000 0.165140 0
5.075000 0.135702 0
5.080000 0.102308 0
5.085000 0.067221 0
5.090000 0.032079 0
5.095000 -0.003021 0
5.100000 -0.040626 0
5.105000 -0.085992 0
5.110000 -0.143833 0
5.115000 -0.210938 0
5.120000 -0.269046 0
5.125000 -0.285253 2
5.130000 -0.221254 0
5.135000 -0.045713 0
5.140000 0.249983 0
5.145000 0.626703 0
5.150000 0.979677 0
5.155000 1.169079 3
5.160000 1.104423 0
5.165000 0.811492 0
5.170000 0.410944 0
5.175000 0.036100 0
5.180000 -0.229827 0
5.185000 -0.361343 0
5.190000 -0.372925 4
5.195000 -0.303862 0
5.200000 -0.202758 0
5.205000 -0.108127 0
5.210000 -0.036561 0
5.215000 0.013850 0
5.220000 0.052129 0
5.225000 0.085921 0
5.230000 0.119125 0
5.235000 0.152909 0
5.240000 0.187121 0
5.245000 0.221104 0
5.250000 0.254011 0
5.255000 0.284927 0
5.260000 0.312921 0
5.265000 0.337102 0
5.270000 0.356656 0
5.275000 0.370899 0
5.280000 0.379313 0
5.285000 0.381573 5
5.290000 0.377574 0
5.295000 0.367430 0
5.300000 0.351474 0
5.305000 0.330237 0
5.310000 0.304417 0
5.315000 0.274842 0
5.320000 0.242425 0
5.325000 0.208116 0
5.330000 0.172857 0
5.335000 0.137539 0
5.340000 0.102971 0
5.345000 0.069844 0
5.350000 0.038721 0
5.355000 0.010028 0
5.360000 -0.015951 0
5.365000 -0.039063 0
5.370000 -0.059270 0
5.375000 -0.076635 0
5.380000 -0.091300 0
5.385000 -0.103466 0
5.390000 -0.113372 0
5.395000 -0.121278 0
5.400000 -0.127448 0
5.405000 -0.132142 0
5.410000 -0.135603 0
5.415000 -0.137554 0
5.420000 -0.136591 0
5.425000 -0.135631 0
5.430000 -0.134676 0
5.435000 -0.133725 0
5.440000 -0.132776 0
5.445000 -0.131826 0
5.450000 -0.130871 0
5.455000 -0.129899 0
5.460000 -0.128893 0
5.465000 -0.127820 0
5.470000 -0.126626 0
5.475000 -0.125224 0
5.480000 -0.123477 0
5.485000 -0.121184 0
5.490000 -0.118061 0
5.495000 -0.113727 0
5.500000 -0.107698 0
5.505000 -0.099398 0
5.510000 -0.088199 0
5.515000 -0.073480 0
5.520000 -0.054729 0
5.525000 -0.031660 0
5.530000 -0.004343 0
5.535000 0.026685 0
5.540000 0.060341 0
5.545000 0.095007 0
5.550000 0.128614 0
5.555000 0.158826 0
5.560000 0.183306 0
5.565000 0.200003 0
5.570000 0.207443 1
5.575000 0.204939 0
5.580000 0.192701 0
5.585000 0.171799 0
5.590000 0.144017 0
5.595000 0.111579 0
5.600000 0.076800 0
5.605000 0.041577 0
5.610000 0.006602 0
5.615000 -0.029736 0
5.620000 -0.071952 0
5.625000 -0.125540 0
5.630000 -0.190799 0
5.635000 -0.254915 0
5.640000 -0.289320 2
5.645000 -0.256409 0
5.650000 -0.121282 0
5.655000 0.134613 0
5.660000 0.491817 0
5.665000 0.868636 0
5.670000 1.130681 0
5.675000 1.159969 3
5.680000 0.938182 0
5.685000 0.559840 0
5.690000 0.162622 0
5.695000 -0.149172 0
5.700000 -0.330785 0
5.705000 -0.383907 4
5.710000 -0.339824 0
5.715000 -0.245474 0
5.720000 -0.145059 0
5.725000 -0.063888 0
5.730000 -0.006051 0
5.735000 0.035968 0
5.740000 0.070898 0
5.745000 0.104088 0
5.750000 0.137610 0
5.755000 0.171714 0
5.760000 0.205894 0
5.765000 0.239369 0
5.770000 0.271250 0
5.775000 0.300615 0
5.780000 0.326555 0
5.785000 0.348225 0
5.790000 0.364884 0
5.795000 0.375942 0
5.800000 0.380987 5
5.805000 0.379816 0
5.810000 0.372445 0
5.815000 0.359106 0
5.820000 0.340239 0
5.825000 0.316465 0
5.830000 0.288551 0
5.835000 0.257369 0
5.840000 0.223849 0
5.845000 0.188937 0
5.850000 0.153547 0
5.855000 0.118523 0
5.860000 0.084613 0
5.865000 0.052439 0
5.870000 0.022493 0
5.875000 -0.004875 0
5.880000 -0.029448 0
5.885000 -0.051131 0
5.890000 -0.069940 0
5.895000 -0.085977 0
5.900000 -0.099413 0
5.905000 -0.110469 0
5.910000 -0.119393 0
5.915000 -0.126448 0
5.920000 -0.131896 0
5.925000 -0.135986 0
5.930000 -0.138950 0
5.935000 -0.140558 0
5.940000 -0.139579 0
5.945000 -0.138605 0
5.950000 -0.137634 0
5.955000 -0.136667 0
5.960000 -0.135702 0
5.965000 -0.134734 0
5.970000 -0.133757 0
5.975000 -0.132757 0
5.980000 -0.131712 0
5.985000 -0.130581 0
5.990000 -0.129299 0
5.995000 -0.127760 0
6.000000 -0.125807 0
6.005000 -0.123209 0
6.010000 -0.119645 0
6.015000 -0.114698 0
6.020000 -0.107850 0
6.025000 -0.098503 0
6.030000 -0.086028 0
6.035000 -0.069836 0
6.040000 -0.049488 0
6.045000 -0.024816 0
6.050000 0.003952 0
6.055000 0.036090 0
6.060000 0.070330 0
6.065000 0.104889 0
6.070000 0.137597 0
6.075000 0.166102 0
6.080000 0.188148 0
6.085000 0.201867 0
6.090000 0.206038 1
6.095000 0.200272 0
6.100000 0.185066 0
6.105000 0.161739 0
6.110000 0.132232 0
6.115000 0.098826 0
6.120000 0.063754 0
6.125000 0.028629 0
6.130000 -0.006443 0
6.135000 -0.043934 0
6.140000 -0.088999 0
6.145000 -0.146389 0
6.150000 -0.213346 0
6.155000 -0.272518 0
6.160000 -0.291969 2
6.165000 -0.233895 0
6.170000 -0.066584 0
6.175000 0.220709 0
6.180000 0.593909 0
6.185000 0.954737 0
6.190000 1.165366 3
6.195000 1.127953 0
6.200000 0.855454 0
6.205000 0.460061 0
6.210000 0.076048 0
6.215000 -0.206964 0
6.220000 -0.357206 0
6.225000 -0.384465 4
6.230000 -0.324697 0
6.235000 -0.225642 0
6.240000 -0.128058 0
6.245000 -0.052119 0
6.250000 0.001601 0
6.255000 0.041526 0
6.260000 0.075801 0
6.265000 0.108980 0
6.270000 0.142639 0
6.275000 0.176817 0
6.280000 0.210936 0
6.285000 0.244190 0
6.290000 0.275688 0
6.295000 0.304513 0
6.300000 0.329771 0
6.305000 0.350638 0
6.310000 0.366400 0
6.315000 0.376500 0
6.320000 0.380562 5
6.325000 0.378418 0
6.330000 0.370117 0
6.335000 0.355924 0
6.340000 0.336304 0
6.345000 0.311897 0
6.350000 0.283482 0
6.355000 0.251934 0
6.360000 0.218184 0
6.365000 0.183168 0
6.370000 0.147785 0
6.375000 0.112866 0
6.380000 0.079136 0
6.385000 0.047201 0
6.390000 0.017531 0
6.395000 -0.009540 0
6.400000 -0.033811 0
6.405000 -0.055198 0
6.410000 -0.073728 0
6.415000 -0.089509 0
6.420000 -0.102716 0
6.425000 -0.113572 0
6.430000 -0.122325 0
6.435000 -0.129236 0
6.440000 -0.134564 0
6.445000 -0.138558 0
6.450000 -0.141444 0
6.455000 -0.141023 0
6.460000 -0.140041 0
6.465000 -0.139065 0
6.470000 -0.138092 0
6.475000 -0.137123 0
6.480000 -0.136155 0
6.485000 -0.135184 0
6.490000 -0.134204 0
6.495000 -0.133201 0
6.500000 -0.132152 0
6.505000 -0.131016 0
6.510000 -0.129727 0
6.515000 -0.128180 0
6.520000 -0.126217 0
6.525000 -0.123607 0
6.530000 -0.120033 0
6.535000 -0.115078 0
6.540000 -0.108227 0
6.545000 -0.098888 0
6.550000 -0.086434 0
6.555000 -0.070283 0
6.560000 -0.049994 0
6.565000 -0.025398 0
6.570000 0.003289 0
6.575000 0.035356 0
6.580000 0.069557 0
6.585000 0.104137 0
6.590000 0.136950 0
6.595000 0.165663 0
6.600000 0.188027 0
6.605000 0.202165 0
6.610000 0.206831 1
6.615000 0.201593 0
6.620000 0.186899 0
6.625000 0.164014 0
6.630000 0.134838 0
6.635000 0.101623 0
6.640000 0.066603 0
6.645000 0.031451 0
6.650000 -0.003573 0
6.655000 -0.040694 0
6.660000 -0.084866 0
6.665000 -0.141081 0
6.670000 -0.207623 0
6.675000 -0.268776 0
6.680000 -0.293968 2
6.685000 -0.245719 0
6.690000 -0.091317 0
6.695000 0.183158 0
6.700000 0.550224 0
6.705000 0.919602 0
6.710000 1.155700 3
6.715000 1.151309 0
6.720000 0.903823 0
6.725000 0.516347 0
6.730000 0.124303 0
6.735000 -0.175441 0
6.740000 -0.344251 0
6.745000 -0.387197 4
6.750000 -0.337126 0
6.755000 -0.240914 0
6.760000 -0.141248 0
6.765000 -0.061568 0
6.770000 -0.004845 0
6.775000 0.036648 0
6.780000 0.071426 0
6.785000 0.104610 0
6.790000 0.138153 0
6.795000 0.172266 0
6.800000 0.206443 0
6.805000 0.239906 0
6.810000 0.271780 0
6.815000 0.301154 0
6.820000 0.327131 0
6.825000 0.348875 0
6.830000 0.365656 0
6.835000 0.376884 0
6.840000 0.382149 5
6.845000 0.381242 0
6.850000 0.374170 0
6.855000 0.361152 0
6.860000 0.342612 0
6.865000 0.319151 0
6.870000 0.291518 0
6.875000 0.260568 0
6.880000 0.227217 0
6.885000 0.192397 0
6.890000 0.157016 0
6.895000 0.121916 0
6.900000 0.087845 0
6.905000 0.055434 0
6.910000 0.025184 0
6.915000 -0.002543 0
6.920000 -0.027513 0
6.925000 -0.049619 0
6.930000 -0.068860 0
6.935000 -0.085326 0
6.940000 -0.099175 0
6.945000 -0.110620 0
6.950000 -0.119901 0
6.955000 -0.127276 0
6.960000 -0.133006 0
6.965000 -0.137339 0
6.970000 -0.140508 0
6.975000 -0.142258 0
6.980000 -0.141271 0
6.985000 -0.140288 0
6.990000 -0.139310 0
6.995000 -0.138335 0
7.000000 -0.137362 0
7.005000 -0.136389 0
7.010000 -0.135408 0
7.015000 -0.134409 0
7.020000 -0.133372 0
7.025000 -0.132264 0
7.030000 -0.131027 0
7.035000 -0.129571 0
7.040000 -0.127756 0
7.045000 -0.125378 0
7.050000 -0.122150 0
7.055000 -0.117691 0
7.060000 -0.111518 0
7.065000 -0.103065 0
7.070000 -0.091714 0
7.075000 -0.076861 0
7.080000 -0.058007 0
7.085000 -0.034877 0
7.090000 -0.007545 0
7.095000 0.023462 0
7.100000 0.057092 0
7.105000 0.091768 0
7.110000 0.125476 0
7.115000 0.155933 0
7.120000 0.180842 0
7.125000 0.198169 0
7.130000 0.206421 1
7.135000 0.204854 0
7.140000 0.193592 0
7.145000 0.173602 0
7.150000 0.146564 0
7.155000 0.114621 0
7.160000 0.080055 0
7.165000 0.044824 0
7.170000 0.009857 0
7.175000 -0.025975 0
7.180000 -0.066630 0
7.185000 -0.117656 0
7.190000 -0.181009 0
7.195000 -0.247298 0
7.200000 -0.291620 2
7.205000 -0.278183 0
7.210000 -0.171057 0
7.215000 0.053502 0
7.220000 0.388695 0
7.225000 0.772186 0
7.230000 1.082178 0
7.235000 1.188840 3
7.240000 1.039100 0
7.245000 0.695810 0
7.250000 0.290458 0
7.255000 -0.057858 0
7.260000 -0.285871 0
7.265000 -0.381774 4
7.270000 -0.367658 0
7.275000 -0.286017 0
7.280000 -0.183639 0
7.285000 -0.093556 0
7.290000 -0.027095 0
7.295000 0.020098 0
7.300000 0.057048 0
7.305000 0.090552 0
7.310000 0.123826 0
7.315000 0.157708 0
7.320000 0.191935 0
7.325000 0.225827 0
7.330000 0.258543 0
7.335000 0.289186 0
7.340000 0.316849 0
7.345000 0.340666 0
7.350000 0.359854 0
7.355000 0.373754 0
7.360000 0.381870 0
7.365000 0.383898 5
7.370000 0.379740 0
7.375000 0.369514 0
7.380000 0.353549 0
7.385000 0.332363 0
7.390000 0.306636 0
7.395000 0.277174 0
7.400000 0.244866 0
7.405000 0.210641 0
7.410000 0.175418 0
7.415000 0.140075 0
7.420000 0.105406 0
7.425000 0.072100 0
7.430000 0.040721 0
7.435000 0.011698 0
7.440000 -0.014671 0
7.445000 -0.038221 0
7.450000 -0.058897 0
7.455000 -0.076747 0
7.460000 -0.091898 0
7.465000 -0.104536 0
7.470000 -0.114888 0
7.475000 -0.123205 0
7.480000 -0.129748 0
7.485000 -0.134770 0
7.490000 -0.138513 0
7.495000 -0.141199 0
7.500000 -0.140749 0
7.505000 -0.139769 0
7.510000 -0.138794 0
7.515000 -0.137823 0
7.520000 -0.136854 0
7.525000 -0.135887 0
7.530000 -0.134915 0
7.535000 -0.133933 0
7.540000 -0.132925 0
7.545000 -0.131865 0
7.550000 -0.130711 0
7.555000 -0.129391 0
7.560000 -0.127795 0
7.565000 -0.125755 0
7.570000 -0.123033 0
7.575000 -0.119300 0
7.580000 -0.114130 0
7.585000 -0.107001 0
7.590000 -0.097319 0
7.595000 -0.084464 0
7.600000 -0.067868 0
7.605000 -0.047121 0
7.610000 -0.022087 0
7.615000 0.006969 0
7.620000 0.039294 0
7.625000 0.073604 0
7.630000 0.108117 0
7.635000 0.140682 0
7.640000 0.168984 0
7.645000 0.190813 0
7.650000 0.204343 0
7.655000 0.208390 1
7.660000 0.202580 0
7.665000 0.187406 0
7.670000 0.164162 0
7.675000 0.134753 0
7.680000 0.101419 0
7.685000 0.066367 0
7.690000 0.031221 0
7.695000 -0.003820 0
7.700000 -0.041030 0
7.705000 -0.085367 0
7.710000 -0.141737 0
7.715000 -0.208321 0
7.720000 -0.269432 0
7.725000 -0.294732 2
7.730000 -0.247074 0
7.735000 -0.093959 0
7.740000 0.178732 0
7.745000 0.544632 0
7.750000 0.915539 0
7.755000 1.157415 0
7.760000 1.161846 3
7.765000 0.922024 0
7.770000 0.537352 0
7.775000 0.143178 0
7.780000 -0.161623 0
7.785000 -0.336302 0
7.790000 -0.384397 4
7.795000 -0.337683 0
7.800000 -0.242620 0
7.805000 -0.142394 0
7.810000 -0.061488 0
7.815000 -0.003720 0
7.820000 0.038342 0
7.825000 0.073305 0
7.830000 0.106485 0
7.835000 0.139971 0
7.840000 0.174041 0
7.845000 0.208215 0
7.850000 0.241730 0
7.855000 0.273716 0
7.860000 0.303266 0
7.865000 0.329483 0
7.870000 0.351529 0
7.875000 0.368667 0
7.880000 0.380297 0
7.885000 0.385998 5
7.890000 0.385545 0
7.895000 0.378927 0
7.900000 0.366349 0
7.905000 0.348216 0
7.910000 0.325115 0
7.915000 0.297783 0
7.920000 0.267063 0
7.925000 0.233865 0
7.930000 0.199120 0
7.935000 0.163736 0
7.940000 0.128560 0
7.945000 0.094347 0
7.950000 0.061738 0
7.955000 0.031245 0
7.960000 0.003243 0
7.965000 -0.022025 0
7.970000 -0.044438 0
7.975000 -0.063986 0
7.980000 -0.080750 0
7.985000 -0.094882 0
7.990000 -0.106588 0
7.995000 -0.116107 0
8.000000 -0.123695 0
8.005000 -0.129611 0
8.010000 -0.134104 0
8.015000 -0.137411 0
8.020000 -0.139261 0
8.025000 -0.138289 0
8.030000 -0.137321 0
8.035000 -0.136357 0
8.040000 -0.135398 0
8.045000 -0.134440 0
8.050000 -0.133482 0
8.055000 -0.132517 0
8.060000 -0.131537 0
8.065000 -0.130522 0
8.070000 -0.129440 0
8.075000 -0.128240 0
8.080000 -0.126835 0
8.085000 -0.125095 0
8.090000 -0.122825 0
8.095000 -0.119751 0
8.100000 -0.115508 0
8.105000 -0.109629 0
8.110000 -0.101559 0
8.115000 -0.090686 0
8.120000 -0.076400 0
8.125000 -0.058183 0
8.130000 -0.035720 0
8.135000 -0.009022 0
8.140000 0.021458 0
8.145000 0.054756 0
8.150000 0.089376 0
8.155000 0.123371 0
8.160000 0.154492 0
8.165000 0.180433 0
8.170000 0.199104 0
8.175000 0.208911 0
8.180000 0.208981 1
8.185000 0.199288 0
8.190000 0.180664 0
8.195000 0.154675 0
8.200000 0.123401 0
8.205000 0.089119 0
8.210000 0.053882 0
8.215000 0.018863 0
8.220000 -0.016619 0
8.225000 -0.056008 0
8.230000 -0.104805 0
8.235000 -0.166174 0
8.240000 -0.233358 0
8.245000 -0.284325 0
8.250000 -0.284697 2
8.255000 -0.197784 0
8.260000 0.003504 0
8.265000 0.320141 0
8.270000 0.702254 0
8.275000 1.037851 0
8.280000 1.192471 3
8.285000 1.092109 0
8.290000 0.777470 0
8.295000 0.373493 0
8.300000 0.007359 0
8.305000 -0.245889 0
8.310000 -0.365942 0
8.315000 -0.369661 4
8.320000 -0.296907 0
8.325000 -0.195296 0
8.330000 -0.101555 0
8.335000 -0.030900 0
8.340000 0.019033 0
8.345000 0.057156 0
8.350000 0.090908 0
8.355000 0.124084 0
8.360000 0.157833 0
8.365000 0.192014 0
8.370000 0.225988 0
8.375000 0.258930 0
8.380000 0.289944 0
8.385000 0.318117 0
8.390000 0.342572 0
8.395000 0.362506 0
8.400000 0.377235 0
8.405000 0.386234 0
8.410000 0.389167 5
8.415000 0.385903 0
8.420000 0.376529 0
8.425000 0.361344 0
8.430000 0.340842 0
8.435000 0.315685 0
8.440000 0.286667 0
8.445000 0.254671 0
8.450000 0.220625 0
8.455000 0.185457 0
8.460000 0.150055 0
8.465000 0.115230 0
8.470000 0.081688 0
8.475000 0.050012 0
8.480000 0.020651 0
8.485000 -0.006083 0
8.490000 -0.030005 0
8.495000 -0.051049 0
8.500000 -0.069252 0
8.505000 -0.084732 0
8.510000 -0.097671 0
8.515000 -0.108292 0
8.520000 -0.116847 0
8.525000 -0.123595 0
8.530000 -0.128793 0
8.535000 -0.132686 0
8.540000 -0.135497 0
8.545000 -0.135090 0
8.550000 -0.134139 0
8.555000 -0.133192 0
8.560000 -0.132248 0
8.565000 -0.131308 0
8.570000 -0.130368 0
8.575000 -0.129426 0
8.580000 -0.128472 0
8.585000 -0.127495 0
8.590000 -0.126468 0
8.595000 -0.125351 0
8.600000 -0.124075 0
8.605000 -0.122532 0
8.610000 -0.120560 0
8.615000 -0.117924 0
8.620000 -0.114302 0
8.625000 -0.109274 0
8.630000 -0.102321 0
8.635000 -0.092850 0
8.640000 -0.080240 0
8.645000 -0.063914 0
8.650000 -0.043447 0
8.655000 -0.018683 0
8.660000 0.010139 0
8.665000 0.042292 0
8.670000 0.076514 0
8.675000 0.111042 0
8.680000 0.143731 0
8.685000 0.172259 0
8.690000 0.194395 0
8.695000 0.208286 0
8.700000 0.212709 1
8.705000 0.207256 0
8.710000 0.192387 0
8.715000 0.169374 0
8.720000 0.140112 0
8.725000 0.106845 0
8.730000 0.071793 0
8.735000 0.036616 0
8.740000 0.001566 0
8.745000 -0.035568 0
8.750000 -0.079714 0
8.755000 -0.135853 0
8.760000 -0.202366 0
8.765000 -0.263787 0
8.770000 -0.289860 2
8.775000 -0.243315 0
8.780000 -0.091410 0
8.785000 0.180303 0
8.790000 0.545787 0
8.795000 0.916918 0
8.800000 1.159260 0
8.805000 1.163848 3
8.810000 0.923565 0
8.815000 0.538353 0
8.820000 0.144849 0
8.825000 -0.157786 0
8.830000 -0.329333 0
8.835000 -0.374184 4
8.840000 -0.325071 0
8.845000 -0.229132 0
8.850000 -0.129476 0
8.855000 -0.049829 0
8.860000 0.006786 0
8.865000 0.048157 0
8.870000 0.082845 0
8.875000 0.115973 0
8.880000 0.149473 0
8.885000 0.183542 0
8.890000 0.217658 0
8.895000 0.251037 0
8.900000 0.282793 0
8.905000 0.312008 0
8.910000 0.337781 0
8.915000 0.359274 0
8.920000 0.375753 0
8.925000 0.386635 0
8.930000 0.391515 5
8.935000 0.390196 0
8.940000 0.382695 0
8.945000 0.369248 0
8.950000 0.350294 0
8.955000 0.326450 0
8.960000 0.298481 0
8.965000 0.267254 0
8.970000 0.233694 0
8.975000 0.198740 0
8.980000 0.163303 0
8.985000 0.128223 0
8.990000 0.094244 0
8.995000 0.061989 0
9.000000 0.031946 0
9.005000 0.004469 0
9.010000 -0.020223 0
9.015000 -0.042036 0
9.020000 -0.060979 0
9.025000 -0.077153 0
9.030000 -0.090727 0
9.035000 -0.101916 0
9.040000 -0.110969 0
9.045000 -0.118146 0
9.050000 -0.123707 0
9.055000 -0.127902 0
9.060000 -0.130962 0
9.065000 -0.132649 0
9.070000 -0.131710 0
9.075000 -0.130775 0
9.080000 -0.129844 0
9.085000 -0.128916 0
9.090000 -0.127989 0
9.095000 -0.127060 0
9.100000 -0.126123 0
9.105000 -0.125164 0
9.110000 -0.124162 0
9.115000 -0.123079 0
9.120000 -0.121852 0
9.125000 -0.120381 0
9.130000 -0.118513 0
9.135000 -0.116028 0
9.140000 -0.112616 0
9.145000 -0.107872 0
9.150000 -0.101289 0
9.155000 -0.092282 0
9.160000 -0.080224 0
9.165000 -0.064521 0
9.170000 -0.044713 0
9.175000 -0.020595 0
9.180000 0.007660 0
9.185000 0.039395 0
9.190000 0.073417 0
9.195000 0.108014 0
9.200000 0.141067 0
9.205000 0.170249 0
9.210000 0.193286 0
9.215000 0.208247 0
9.220000 0.213816 1
9.225000 0.209476 0
9.230000 0.195594 0
9.235000 0.173366 0
9.240000 0.144645 0
9.245000 0.111669 0
9.250000 0.076696 0
9.255000 0.041483 0
9.260000 0.006459 0
9.265000 -0.030345 0
9.270000 -0.073699 0
9.275000 -0.128818 0
9.280000 -0.194891 0
9.285000 -0.257550 0
9.290000 -0.287233 2
9.295000 -0.246547 0
9.300000 -0.101861 0
9.305000 0.163036 0
9.310000 0.525028 0
9.315000 0.898933 0
9.320000 1.150475 0
9.325000 1.166705 3
9.330000 0.934681 0
9.335000 0.552192 0
9.340000 0.157238 0
9.345000 -0.148415 0
9.350000 -0.322771 0
9.355000 -0.369498 4
9.360000 -0.321253 0
9.365000 -0.225513 0
9.370000 -0.125857 0
9.375000 -0.046282 0
9.380000 0.010186 0
9.385000 0.051428 0
9.390000 0.086050 0
9.395000 0.119162 0
9.400000 0.152667 0
9.405000 0.186736 0
9.410000 0.220830 0
9.415000 0.254153 0
9.420000 0.285809 0
9.425000 0.314872 0
9.430000 0.340433 0
9.435000 0.361651 0
9.440000 0.377794 0
9.445000 0.388283 0
9.450000 0.392724 5
9.455000 0.390930 0
9.460000 0.382937 0
9.465000 0.368999 0
9.470000 0.349576 0
9.475000 0.325306 0
9.480000 0.296970 0
9.485000 0.265452 0
9.490000 0.231690 0
9.495000 0.196629 0
9.500000 0.161182 0
9.505000 0.126187 0
9.510000 0.092382 0
9.515000 0.060378 0
9.520000 0.030651 0
9.525000 0.003539 0
9.530000 -0.020757 0
9.535000 -0.042155 0
9.540000 -0.060680 0
9.545000 -0.076447 0
9.550000 -0.089633 0
9.555000 -0.100464 0
9.560000 -0.109193 0
9.565000 -0.116083 0
9.570000 -0.121395 0
9.575000 -0.125379 0
9.580000 -0.128264 0
9.585000 -0.127899 0
9.590000 -0.126983 0
9.595000 -0.126071 0
9.600000 -0.125163 0
9.605000 -0.124258 0
9.610000 -0.123354 0
9.615000 -0.122446 0
9.620000 -0.121527 0
9.625000 -0.120583 0
9.630000 -0.119588 0
9.635000 -0.118498 0
9.640000 -0.117244 0
9.645000 -0.115712 0
9.650000 -0.113733 0
9.655000 -0.111062 0
9.660000 -0.107364 0
9.665000 -0.102202 0
9.670000 -0.095042 0
9.675000 -0.085274 0
9.680000 -0.072267 0
9.685000 -0.055449 0
9.690000 -0.034415 0
9.695000 -0.009058 0
9.700000 0.020314 0
9.705000 0.052878 0
9.710000 0.087265 0
9.715000 0.121606 0
9.720000 0.153670 0
9.725000 0.181095 0
9.730000 0.201667 0
9.735000 0.213613 0
9.740000 0.215855 1
9.745000 0.208170 0
9.750000 0.191223 0
9.755000 0.166476 0
9.760000 0.135969 0
9.765000 0.102017 0
9.770000 0.066787 0
9.775000 0.031682 0
9.780000 -0.003633 0
9.785000 -0.042247 0
9.790000 -0.089643 0
9.795000 -0.149710 0
9.800000 -0.217075 0
9.805000 -0.270916 0
9.810000 -0.277008 2
9.815000 -0.197695 0
9.820000 -0.004191 0
9.825000 0.306847 0
9.830000 0.687918 0
9.835000 1.027303 0
9.840000 1.187564 3
9.845000 1.090234 0
9.850000 0.775524 0
9.855000 0.371401 0
9.860000 0.007686 0
9.865000 -0.240293 0
9.870000 -0.353522 4
9.875000 -0.350849 0
9.880000 -0.274206 0
9.885000 -0.172184 0
9.890000 -0.080626 0
9.895000 -0.012840 0
9.900000 0.034962 0
9.905000 0.072034 0
9.910000 0.105485 0
9.915000 0.138684 0
9.920000 0.172502 0
9.925000 0.206662 0
9.930000 0.240452 0
9.935000 0.273007 0
9.940000 0.303397 0
9.945000 0.330692 0
9.950000 0.354005 0
9.955000 0.372539 0
9.960000 0.385635 0
9.965000 0.392805 0
9.970000 0.393767 5
9.975000 0.388457 0
9.980000 0.377034 0
9.985000 0.359877 0
9.990000 0.337557 0
9.995000 0.310806 0
10.000000 0.280479 0
10.005000 0.247507 0
10.010000 0.212846 0
10.015000 0.177436 0
10.020000 0.142159 0
10.025000 0.107801 0
10.030000 0.075031 0
10.035000 0.044384 0
10.040000 0.016253 0
10.045000 -0.009109 0
10.050000 -0.031575 0
10.055000 -0.051135 0
10.060000 -0.067874 0
10.065000 -0.081951 0
10.070000 -0.093579 0
10.075000 -0.103007 0
10.080000 -0.110496 0
10.085000 -0.116315 0
10.090000 -0.120720 0
10.095000 -0.123949 0
10.100000 -0.125757 0
10.105000 -0.124852 0
10.110000 -0.123951 0
10.115000 -0.123054 0
10.120000 -0.122160 0
10.125000 -0.121268 0
10.130000 -0.120373 0
10.135000 -0.119470 0
10.140000 -0.118546 0
10.145000 -0.117579 0
10.150000 -0.116532 0
10.155000 -0.115340 0
10.160000 -0.113903 0
10.165000 -0.112066 0
10.170000 -0.109602 0
10.175000 -0.106196 0
10.180000 -0.101432 0
10.185000 -0.094791 0
10.190000 -0.085673 0
10.195000 -0.073438 0
10.200000 -0.057487 0
10.205000 -0.037366 0
10.210000 -0.012891 0
10.215000 0.015721 0
10.220000 0.047747 0
10.225000 0.081911 0
10.230000 0.116414 0
10.235000 0.149056 0
10.240000 0.177455 0
10.245000 0.199327 0
10.250000 0.212787 0
10.255000 0.216616 1
10.260000 0.210444 0
10.265000 0.194809 0
10.270000 0.171075 0
10.275000 0.141236 0
10.280000 0.107610 0
10.285000 0.072439 0
10.290000 0.037283 0
10.295000 0.002088 0
10.300000 -0.035903 0
10.305000 -0.082063 0
10.310000 -0.140825 0
10.315000 -0.208127 0
10.320000 -0.264587 0
10.325000 -0.276592 2
10.330000 -0.205942 0
10.335000 -0.022275 0
10.340000 0.280694 0
10.345000 0.659745 0
10.350000 1.006189 0
10.355000 1.180619 3
10.360000 1.097842 0
10.365000 0.791669 0
10.370000 0.388604 0
10.375000 0.021229 0
10.380000 -0.231765 0
10.385000 -0.349351 0
10.390000 -0.349523 4
10.395000 -0.274110 0
10.400000 -0.172197 0
10.405000 -0.080339 0
10.410000 -0.012310 0
10.415000 0.035582 0
10.420000 0.072662 0
10.425000 0.106107 0
10.430000 0.139309 0
10.435000 0.173133 0
10.440000 0.207292 0
10.445000 0.241066 0
10.450000 0.273577 0
10.455000 0.303888 0
10.460000 0.331060 0
10.465000 0.354200 0
10.470000 0.372509 0
10.475000 0.385329 0
10.480000 0.392178 0
10.485000 0.392780 5
10.490000 0.387084 0
10.495000 0.375268 0
10.500000 0.357724 0
10.505000 0.335042 0
10.510000 0.307972 0
10.515000 0.277385 0
10.520000 0.244223 0
10.525000 0.209452 0
10.530000 0.174018 0
10.535000 0.138800 0
10.540000 0.104582 0
10.545000 0.072025 0
10.550000 0.041651 0
10.555000 0.013842 0
10.560000 -0.011163 0
10.565000 -0.033252 0
10.570000 -0.052429 0
10.575000 -0.068791 0
10.580000 -0.082506 0
10.585000 -0.093796 0
10.590000 -0.102915 0
10.595000 -0.110130 0
10.600000 -0.115709 0
10.605000 -0.119908 0
10.610000 -0.122965 0
10.615000 -0.124653 0
10.620000 -0.123754 0
10.625000 -0.122858 0
10.630000 -0.121967 0
10.635000 -0.121078 0
10.640000 -0.120190 0
10.645000 -0.119298 0
10.650000 -0.118396 0
10.655000 -0.117470 0
10.660000 -0.116494 0
10.665000 -0.115425 0
10.670000 -0.114193 0
10.675000 -0.112683 0
10.680000 -0.110726 0
10.685000 -0.108072 0
10.690000 -0.104380 0
10.695000 -0.099204 0
10.700000 -0.091997 0
10.705000 -0.082137 0
10.710000 -0.068982 0
10.715000 -0.051954 0
10.720000 -0.030653 0
10.725000 -0.004994 0
10.730000 0.024673 0
10.735000 0.057464 0
10.740000 0.091933 0
10.745000 0.126128 0
10.750000 0.157751 0
10.755000 0.184396 0
10.760000 0.203849 0
10.765000 0.214389 0
10.770000 0.215041 1
10.775000 0.205721 0
10.780000 0.187257 0
10.785000 0.161259 0
10.790000 0.129885 0
10.795000 0.095502 0
10.800000 0.060219 0
10.805000 0.025173 0
10.810000 -0.010539 0
10.815000 -0.050773 0
10.820000 -0.101261 0
10.825000 -0.164358 0
10.830000 -0.230776 0
10.835000 -0.274929 2
10.840000 -0.259748 0
10.845000 -0.148188 0
10.850000 0.083428 0
10.855000 0.425254 0
10.860000 0.807505 0
10.865000 1.100194 0
10.870000 1.173863 3
10.875000 0.988310 0
10.880000 0.624336 0
10.885000 0.222520 0
10.890000 -0.102565 0
10.895000 -0.297980 0
10.900000 -0.361448 4
10.905000 -0.323032 0
10.910000 -0.230403 0
10.915000 -0.129698 0
10.920000 -0.047954 0
10.925000 0.010074 0
10.930000 0.052003 0
10.935000 0.086801 0
10.940000 0.119912 0
10.945000 0.153393 0
10.950000 0.187450 0
10.955000 0.221540 0
10.960000 0.254845 0
10.965000 0.286444 0
10.970000 0.315388 0
10.975000 0.340746 0
10.980000 0.361659 0
10.985000 0.377386 0
10.990000 0.387345 0
10.995000 0.391150 5
11.000000 0.388634 0
11.005000 0.379858 0
11.010000 0.365112 0
11.015000 0.344894 0
11.020000 0.319885 0
11.025000 0.290907 0
11.030000 0.258879 0
11.035000 0.224769 0
11.040000 0.189544 0
11.045000 0.154126 0
11.050000 0.119354 0
11.055000 0.085952 0
11.060000 0.054515 0
11.065000 0.025492 0
11.070000 -0.000812 0
11.075000 -0.024226 0
11.080000 -0.044704 0
11.085000 -0.062304 0
11.090000 -0.077165 0
11.095000 -0.089491 0
11.100000 -0.099524 0
11.105000 -0.107529 0
11.110000 -0.113777 0
11.115000 -0.118533 0
11.120000 -0.122044 0
11.125000 -0.124043 0
11.130000 -0.123147 0
11.135000 -0.122255 0
11.140000 -0.121367 0
11.145000 -0.120481 0
11.150000 -0.119598 0
11.155000 -0.118713 0
11.160000 -0.117822 0
11.165000 -0.116912 0
11.170000 -0.115964 0
11.175000 -0.114942 0
11.180000 -0.113787 0
11.185000 -0.112404 0
11.190000 -0.110643 0
11.195000 -0.108288 0
11.200000 -0.105029 0
11.205000 -0.100457 0
11.210000 -0.094057 0
11.215000 -0.085227 0
11.220000 -0.073317 0
11.225000 -0.057712 0
11.230000 -0.037931 0
11.235000 -0.013762 0
11.240000 0.014605 0
11.245000 0.046471 0
11.250000 0.080571 0
11.255000 0.115097 0
11.260000 0.147829 0
11.265000 0.176348 0
11.270000 0.198327 0
11.275000 0.211846 0
11.280000 0.215660 1
11.285000 0.209395 0
11.290000 0.193606 0
11.295000 0.169692 0
11.300000 0.139689 0
11.305000 0.105959 0
11.310000 0.070761 0
11.315000 0.035624 0
11.320000 0.000359 0
11.325000 -0.038039 0
11.330000 -0.085128 0
11.335000 -0.145020 0
11.340000 -0.212385 0
11.345000 -0.265909 0
11.350000 -0.270409 2
11.355000 -0.187350 0
11.360000 0.012162 0
11.365000 0.329558 0
11.370000 0.711990 0
11.375000 1.040779 0
11.380000 1.176838 3
11.385000 1.051204 0
11.390000 0.718193 0
11.395000 0.312978 0
11.400000 -0.037543 0
11.405000 -0.265438 0
11.410000 -0.358231 4
11.415000 -0.339755 0
11.420000 -0.255200 0
11.425000 -0.153083 0
11.430000 -0.065865 0
11.435000 -0.002865 0
11.440000 0.041847 0
11.445000 0.077634 0
11.450000 0.110856 0
11.455000 0.144203 0
11.460000 0.178175 0
11.465000 0.212331 0
11.470000 0.245890 0
11.475000 0.277945 0
11.480000 0.307543 0
11.485000 0.333744 0
11.490000 0.355666 0
11.495000 0.372537 0
11.500000 0.383737 0
11.505000 0.388835 5
11.510000 0.387617 0
11.515000 0.380098 0
11.520000 0.366524 0
11.525000 0.347354 0
11.530000 0.323238 0
11.535000 0.294975 0
11.540000 0.263473 0
11.545000 0.229696 0
11.550000 0.194619 0
11.555000 0.159179 0
11.560000 0.124234 0
11.565000 0.090537 0
11.570000 0.058707 0
11.575000 0.029223 0
11.580000 0.002417 0
11.585000 -0.021516 0
11.590000 -0.042509 0
11.595000 -0.060602 0
11.600000 -0.075922 0
11.605000 -0.088664 0
11.610000 -0.099066 0
11.615000 -0.107391 0
11.620000 -0.113911 0
11.625000 -0.118892 0
11.630000 -0.122587 0
11.635000 -0.125226 0
11.640000 -0.124835 0
11.645000 -0.123934 0
11.650000 -0.123038 0
11.655000 -0.122145 0
11.660000 -0.121254 0
11.665000 -0.120362 0
11.670000 -0.119464 0
11.675000 -0.118550 0
11.680000 -0.117602 0
11.685000 -0.116587 0
11.690000 -0.115449 0
11.695000 -0.114099 0
11.700000 -0.112396 0
11.705000 -0.110134 0
11.710000 -0.107015 0
11.715000 -0.102645 0
11.720000 -0.096521 0
11.725000 -0.088047 0
11.730000 -0.076577 0
11.735000 -0.061481 0
11.740000 -0.042253 0
11.745000 -0.018639 0
11.750000 0.009232 0
11.755000 0.040727 0
11.760000 0.074646 0
11.765000 0.109241 0
11.770000 0.142323 0
11.775000 0.171476 0
11.780000 0.194339 0
11.785000 0.208921 0
11.790000 0.213885 1
11.795000 0.208749 0
11.800000 0.193967 0
11.805000 0.170857 0
11.810000 0.141407 0
11.815000 0.107967 0
11.820000 0.072839 0
11.825000 0.037674 0
11.830000 0.002511 0
11.835000 -0.035346 0
11.840000 -0.081323 0
11.845000 -0.139992 0
11.850000 -0.207287 0
11.855000 -0.263418 0
11.860000 -0.274024 2
11.865000 -0.200233 0
11.870000 -0.011602 0
11.875000 0.296721 0
11.880000 0.677419 0
11.885000 1.016262 0
11.890000 1.172176 3
11.895000 1.067463 0
11.900000 0.746867 0
11.905000 0.342192 0
11.910000 -0.016312 0
11.915000 -0.255506 0
11.920000 -0.359076 4
11.925000 -0.348405 0
11.930000 -0.267448 0
11.935000 -0.165218 0
11.940000 -0.076034 0
11.945000 -0.011034 0
11.950000 0.034894 0
11.955000 0.071163 0
11.960000 0.104475 0
11.965000 0.137787 0
11.970000 0.171730 0
11.975000 0.205916 0
11.980000 0.239581 0
11.985000 0.271827 0
11.990000 0.301703 0
11.995000 0.328267 0
12.000000 0.350630 0
12.005000 0.368010 0
12.010000 0.379770 0
12.015000 0.385463 5
12.020000 0.384853 0
12.025000 0.377934 0
12.030000 0.364930 0
12.035000 0.346281 0
12.040000 0.322618 0
12.045000 0.294730 0
12.050000 0.263513 0
12.055000 0.229930 0
12.060000 0.194952 0
12.065000 0.159523 0
12.070000 0.124510 0
12.075000 0.090676 0
12.080000 0.058653 0
12.085000 0.028934 0
12.090000 0.001865 0
12.095000 -0.022347 0
12.100000 -0.043620 0
12.105000 -0.061987 0
12.110000 -0.077567 0
12.115000 -0.090547 0
12.120000 -0.101162 0
12.125000 -0.109674 0
12.130000 -0.116353 0
12.135000 -0.121468 0
12.140000 -0.125271 0
12.145000 -0.127996 0
12.150000 -0.127606 0
12.155000 -0.126692 0
12.160000 -0.125782 0
12.165000 -0.124875 0
12.170000 -0.123970 0
12.175000 -0.123066 0
12.180000 -0.122156 0
12.185000 -0.121232 0
12.190000 -0.120276 0
12.195000 -0.119258 0
12.200000 -0.118124 0
12.205000 -0.116791 0
12.210000 -0.115124 0
12.215000 -0.112924 0
12.220000 -0.109907 0
12.225000 -0.105689 0
12.230000 -0.099780 0
12.235000 -0.091594 0
12.240000 -0.080487 0
12.245000 -0.065824 0
12.250000 -0.047080 0
12.255000 -0.023963 0
12.260000 0.003447 0
12.265000 0.034581 0
12.270000 0.068309 0
12.275000 0.102942 0
12.280000 0.136338 0
12.285000 0.166096 0
12.290000 0.189833 0
12.295000 0.205502 0
12.300000 0.211674 1
12.305000 0.207761 0
12.310000 0.194102 0
12.315000 0.171919 0
12.320000 0.143131 0
12.325000 0.110060 0
12.330000 0.075042 0
12.335000 0.039846 0
12.340000 0.004776 0
12.345000 -0.032481 0
12.350000 -0.077105 0
12.355000 -0.134131 0
12.360000 -0.201060 0
12.365000 -0.260256 0
12.370000 -0.278803 2
12.375000 -0.217735 0
12.380000 -0.044790 0
12.385000 0.249470 0
12.390000 0.625958 0
12.395000 0.978377 0
12.400000 1.164665 3
12.405000 1.094374 0
12.410000 0.796085 0
12.415000 0.394299 0
12.420000 0.023504 0
12.425000 -0.234669 0
12.430000 -0.357153 0
12.435000 -0.360840 4
12.440000 -0.287111 0
12.445000 -0.185323 0
12.450000 -0.092808 0
12.455000 -0.024065 0
12.460000 0.024283 0
12.465000 0.061573 0
12.470000 0.095101 0
12.475000 0.128346 0
12.480000 0.162211 0
12.485000 0.196421 0
12.490000 0.230258 0
12.495000 0.262841 0
12.500000 0.293231 0
12.505000 0.320483 0
12.510000 0.343702 0
12.515000 0.362085 0
12.520000 0.374968 0
12.525000 0.381869 0
12.530000 0.382511 5
12.535000 0.376843 0
12.540000 0.365043 0
12.545000 0.347507 0
12.550000 0.324828 0
12.555000 0.297762 0
12.560000 0.267182 0
12.565000 0.234036 0
12.570000 0.199294 0
12.575000 0.163903 0
12.580000 0.128745 0
12.585000 0.094606 0
12.590000 0.062144 0
12.595000 0.031881 0
12.600000 0.004196 0
12.605000 -0.020674 0
12.610000 -0.042623 0
12.615000 -0.061655 0
12.620000 -0.077872 0
12.625000 -0.091445 0
12.630000 -0.102599 0
12.635000 -0.111588 0
12.640000 -0.118682 0
12.645000 -0.124150 0
12.650000 -0.128246 0
12.655000 -0.131210 0
12.660000 -0.130842 0
12.665000 -0.129912 0
12.670000 -0.128986 0
12.675000 -0.128063 0
12.680000 -0.127144 0
12.685000 -0.126225 0
12.690000 -0.125303 0
12.695000 -0.124370 0
12.700000 -0.123411 0
12.705000 -0.122400 0
12.710000 -0.121292 0
12.715000 -0.120014 0
12.720000 -0.118448 0
12.725000 -0.116416 0
12.730000 -0.113663 0
12.735000 -0.109838 0
12.740000 -0.104483 0
12.745000 -0.097043 0
12.750000 -0.086889 0
12.755000 -0.073377 0
12.760000 -0.055938 0
12.765000 -0.034195 0
12.770000 -0.008097 0
12.775000 0.021954 0
12.780000 0.055017 0
12.785000 0.089583 0
12.790000 0.123652 0
12.795000 0.154889 0
12.800000 0.180887 0
12.805000 0.199461 0
12.810000 0.208956 1
12.815000 0.208488 0
12.820000 0.198079 0
12.825000 0.178658 0
12.830000 0.151924 0
12.835000 0.120086 0
12.840000 0.085517 0
12.845000 0.050260 0
12.850000 0.015263 0
12.855000 -0.020728 0
12.860000 -0.061959 0
12.865000 -0.114139 0
12.870000 -0.178553 0
12.875000 -0.243750 0
12.880000 -0.281952 2
12.885000 -0.255194 0
12.890000 -0.127319 0
12.895000 0.122112 0
12.900000 0.475996 0
12.905000 0.854114 0
12.910000 1.120700 0
12.915000 1.154158 3
12.920000 0.934233 0
12.925000 0.555937 0
12.930000 0.159225 0
12.935000 -0.150349 0
12.940000 -0.328246 0
12.945000 -0.377176 4
12.950000 -0.329799 0
12.955000 -0.234161 0
12.960000 -0.134503 0
12.965000 -0.055112 0
12.970000 0.001080 0
12.975000 0.042131 0
12.980000 0.076704 0
12.985000 0.109866 0
12.990000 0.143455 0
12.995000 0.177596 0
13.000000 0.211724 0
13.005000 0.245020 0
13.010000 0.276573 0
13.015000 0.305442 0
13.020000 0.330711 0
13.025000 0.351533 0
13.030000 0.367178 0
13.035000 0.377078 0
13.040000 0.380854 5
13.045000 0.378343 0
13.050000 0.369609 0
13.055000 0.354938 0
13.060000 0.334823 0
13.065000 0.309934 0
13.070000 0.281083 0
13.075000 0.249178 0
13.080000 0.215174 0
13.085000 0.180028 0
13.090000 0.144655 0
13.095000 0.109888 0
13.100000 0.076450 0
13.105000 0.044936 0
13.110000 0.015798 0
13.115000 -0.010652 0
13.120000 -0.034237 0
13.125000 -0.054902 0
13.130000 -0.072696 0
13.135000 -0.087751 0
13.140000 -0.100262 0
13.145000 -0.110468 0
13.150000 -0.118627 0
13.155000 -0.125010 0
13.160000 -0.129877 0
13.165000 -0.133477 0
13.170000 -0.136035 0
13.175000 -0.135587 0
13.180000 -0.134632 0
13.185000 -0.133682 0
13.190000 -0.132736 0
13.195000 -0.131792 0
13.200000 -0.130848 0
13.205000 -0.129899 0
13.210000 -0.128934 0
13.215000 -0.127936 0
13.220000 -0.126873 0
13.225000 -0.125692 0
13.230000 -0.124308 0
13.235000 -0.122584 0
13.240000 -0.120321 0
13.245000 -0.117237 0
13.250000 -0.112947 0
13.255000 -0.106967 0
13.260000 -0.098717 0
13.265000 -0.087562 0
13.270000 -0.072876 0
13.275000 -0.054139 0
13.280000 -0.031061 0
13.285000 -0.003715 0
13.290000 0.027353 0
13.295000 0.061042 0
13.300000 0.095708 0
13.305000 0.129252 0
13.310000 0.159312 0
13.315000 0.183530 0
13.320000 0.199853 0
13.325000 0.206821 1
13.330000 0.203786 0
13.335000 0.191004 0
13.340000 0.169607 0
13.345000 0.141431 0
13.350000 0.108745 0
13.355000 0.073873 0
13.360000 0.038669 0
13.365000 0.003678 0
13.370000 -0.032985 0
13.375000 -0.076118 0
13.380000 -0.131085 0
13.385000 -0.197140 0
13.390000 -0.259551 0
13.395000 -0.287909 2
13.400000 -0.243913 0
13.405000 -0.093549 0
13.410000 0.178375 0
13.415000 0.544818 0
13.420000 0.913861 0
13.425000 1.146673 3
13.430000 1.135747 0
13.435000 0.881646 0
13.440000 0.491388 0
13.445000 0.102476 0
13.450000 -0.189442 0
13.455000 -0.348325 0
13.460000 -0.381888 4
13.465000 -0.325412 0
13.470000 -0.227130 0
13.475000 -0.129035 0
13.480000 -0.052412 0
13.485000 0.001700 0
13.490000 0.041754 0
13.495000 0.076048 0
13.500000 0.109227 0
13.505000 0.142891 0
13.510000 0.177074 0
13.515000 0.211185 0
13.520000 0.244404 0
13.525000 0.275824 0
13.530000 0.304515 0
13.535000 0.329573 0
13.540000 0.350165 0
13.545000 0.365578 0
13.550000 0.375254 0
13.555000 0.378829 5
13.560000 0.376149 0
13.565000 0.367283 0
13.570000 0.352520 0
13.575000 0.332350 0
13.580000 0.307440 0
13.585000 0.278593 0
13.590000 0.246709 0
13.595000 0.212732 0
13.600000 0.177610 0
13.605000 0.142248 0
13.610000 0.107473 0
13.615000 0.074004 0
13.620000 0.042431 0
13.625000 0.013209 0
13.630000 -0.013349 0
13.635000 -0.037061 0
13.640000 -0.057869 0
13.645000 -0.075815 0
13.650000 -0.091025 0
13.655000 -0.103691 0
13.660000 -0.114043 0
13.665000 -0.122339 0
13.670000 -0.128845 0
13.675000 -0.133821 0
13.680000 -0.137513 0
13.685000 -0.140147 0
13.690000 -0.139693 0
13.695000 -0.138718 0
13.700000 -0.137748 0
13.705000 -0.136782 0
13.710000 -0.135818 0
13.715000 -0.134855 0
13.720000 -0.133887 0
13.725000 -0.132906 0
13.730000 -0.131896 0
13.735000 -0.130827 0
13.740000 -0.129652 0
13.745000 -0.128290 0
13.750000 -0.126618 0
13.755000 -0.124451 0
13.760000 -0.121524 0
13.765000 -0.117477 0
13.770000 -0.111849 0
13.775000 -0.104082 0
13.780000 -0.093555 0
13.785000 -0.079639 0
13.790000 -0.061788 0
13.795000 -0.039657 0
13.800000 -0.013227 0
13.805000 0.017075 0
13.810000 0.050290 0
13.815000 0.084911 0
13.820000 0.118956 0
13.825000 0.150131 0
13.830000 0.176072 0
13.835000 0.194643 0
13.840000 0.204221 1
13.845000 0.203934 0
13.850000 0.193789 0
13.855000 0.174679 0
13.860000 0.148247 0
13.865000 0.116648 0
13.870000 0.082211 0
13.875000 0.046981 0
13.880000 0.012003 0
13.885000 -0.023729 0
13.890000 -0.064122 0
13.895000 -0.114831 0
13.900000 -0.178026 0
13.905000 -0.244345 0
13.910000 -0.288469 2
13.915000 -0.273870 0
13.920000 -0.163995 0
13.925000 0.064835 0
13.930000 0.404043 0
13.935000 0.786981 0
13.940000 1.087085 0
13.945000 1.174632 3
13.950000 1.004986 0
13.955000 0.650532 0
13.960000 0.246327 0
13.965000 -0.091554 0
13.970000 -0.305079 0
13.975000 -0.386776 4
13.980000 -0.362010 0
13.985000 -0.275287 0
13.990000 -0.173103 0
13.995000 -0.086090 0
14.000000 -0.022909 0
14.005000 0.022181 0
14.010000 0.058257 0
14.015000 0.091607 0
14.020000 0.124992 0
14.025000 0.158995 0
14.030000 0.193243 0
14.035000 0.227005 0
14.040000 0.259414 0
14.045000 0.289555 0
14.050000 0.316517 0
14.055000 0.339434 0
14.060000 0.357538 0
14.065000 0.370195 0
14.070000 0.376944 0
14.075000 0.377525 5
14.080000 0.371891 0
14.085000 0.360214 0
14.090000 0.342876 0
14.095000 0.320449 0
14.100000 0.293657 0
14.105000 0.263345 0
14.110000 0.230427 0
14.115000 0.195844 0
14.120000 0.160521 0
14.125000 0.125322 0
14.130000 0.091025 0
14.135000 0.058287 0
14.140000 0.027639 0
14.145000 -0.000528 0
14.150000 -0.025958 0
14.155000 -0.048521 0
14.160000 -0.068200 0
14.165000 -0.085072 0
14.170000 -0.099289 0
14.175000 -0.111056 0
14.180000 -0.120614 0
14.185000 -0.128223 0
14.190000 -0.134144 0
14.195000 -0.138631 0
14.200000 -0.141921 0
14.205000 -0.143749 0
14.210000 -0.142754 0
14.215000 -0.141764 0
14.220000 -0.140779 0
14.225000 -0.139797 0
14.230000 -0.138817 0
14.235000 -0.137837 0
14.240000 -0.136850 0
14.245000 -0.135846 0
14.250000 -0.134807 0
14.255000 -0.133698 0
14.260000 -0.132465 0
14.265000 -0.131019 0
14.270000 -0.129223 0
14.275000 -0.126874 0
14.280000 -0.123688 0
14.285000 -0.119284 0
14.290000 -0.113180 0
14.295000 -0.104808 0
14.300000 -0.093544 0
14.305000 -0.078776 0
14.310000 -0.059999 0
14.315000 -0.036930 0
14.320000 -0.009634 0
14.325000 0.021362 0
14.330000 0.054997 0
14.335000 0.089684 0
14.340000 0.123387 0
14.345000 0.153804 0
14.350000 0.178616 0
14.355000 0.195778 0
14.360000 0.203797 1
14.365000 0.201945 0
14.370000 0.190372 0
14.375000 0.170083 0
14.380000 0.142795 0
14.385000 0.110685 0
14.390000 0.076051 0
14.395000 0.040835 0
14.400000 0.005882 0
14.405000 -0.030110 0
14.410000 -0.071321 0
14.415000 -0.123306 0
14.420000 -0.187436 0
14.425000 -0.253021 0
14.430000 -0.293686 2
14.435000 -0.272828 0
14.440000 -0.154796 0
14.445000 0.082295 0
14.450000 0.426895 0
14.455000 0.808990 0
14.460000 1.101093 0
14.465000 1.177029 3
14.470000 0.997760 0
14.475000 0.639041 0
14.480000 0.235355 0
14.485000 -0.099795 0
14.490000 -0.310470 0
14.495000 -0.390141 4
14.500000 -0.364365 0
14.505000 -0.277365 0
14.510000 -0.175164 0
14.515000 -0.088067 0
14.520000 -0.024703 0
14.525000 0.020562 0
14.530000 0.056733 0
14.535000 0.090106 0
14.540000 0.123478 0
14.545000 0.157466 0
14.550000 0.191719 0
14.555000 0.225519 0
14.560000 0.258011 0
14.565000 0.288291 0
14.570000 0.315454 0
14.575000 0.338640 0
14.580000 0.357081 0
14.585000 0.370139 0
14.590000 0.377345 0
14.595000 0.378424 5
14.600000 0.373314 0
14.605000 0.362167 0
14.610000 0.345343 0
14.615000 0.323392 0
14.620000 0.297018 0
14.625000 0.267046 0
14.630000 0.234378 0
14.635000 0.199945 0
14.640000 0.164666 0
14.645000 0.129407 0
14.650000 0.094951 0
14.655000 0.061966 0
14.660000 0.030994 0
14.665000 0.002445 0
14.670000 -0.023410 0
14.675000 -0.046424 0
14.680000 -0.066563 0
14.685000 -0.083890 0
14.690000 -0.098544 0
14.695000 -0.110721 0
14.700000 -0.120655 0
14.705000 -0.128601 0
14.710000 -0.134817 0
14.715000 -0.139558 0
14.720000 -0.143063 0
14.725000 -0.145549 0
14.730000 -0.145051 0
14.735000 -0.144050 0
14.740000 -0.143053 0
14.745000 -0.142060 0
14.750000 -0.141070 0
14.755000 -0.140080 0
14.760000 -0.139086 0
14.765000 -0.138077 0
14.770000 -0.137040 0
14.775000 -0.135943 0
14.780000 -0.134740 0
14.785000 -0.133352 0
14.790000 -0.131657 0
14.795000 -0.129475 0
14.800000 -0.126547 0
14.805000 -0.122525 0
14.810000 -0.116958 0
14.815000 -0.109307 0
14.820000 -0.098965 0
14.825000 -0.085312 0
14.830000 -0.067807 0
14.835000 -0.046086 0
14.840000 -0.020093 0
14.845000 0.009803 0
14.850000 0.042730 0
14.855000 0.077279 0
14.860000 0.111567 0
14.865000 0.143378 0
14.870000 0.170389 0
14.875000 0.190449 0
14.880000 0.201858 0
14.885000 0.203606 1
14.890000 0.195522 0
14.895000 0.178302 0
14.900000 0.153410 0
14.905000 0.122866 0
14.910000 0.088945 0
14.915000 0.053778 0
14.920000 0.018737 0
14.925000 -0.016494 0
14.930000 -0.054913 0
14.935000 -0.101892 0
14.940000 -0.161418 0
14.945000 -0.228718 0
14.950000 -0.284068 0
14.955000 -0.294326 2
14.960000 -0.222318 0
14.965000 -0.038637 0
14.970000 0.262932 0
14.975000 0.641229 0
14.980000 0.991945 0
14.985000 1.178860 3
14.990000 1.115067 0
14.995000 0.825071 0
15.000000 0.425546 0
15.005000 0.047194 0
15.010000 -0.226341 0
15.015000 -0.367464 0
15.020000 -0.388045 4
15.025000 -0.324777 0
15.030000 -0.224938 0
15.035000 -0.127996 0
15.040000 -0.052917 0
15.045000 0.000269 0
15.050000 0.039993 0
15.055000 0.074233 0
15.060000 0.107421 0
15.065000 0.141090 0
15.070000 0.175275 0
15.075000 0.209404 0
15.080000 0.242685 0
15.085000 0.274237 0
15.090000 0.303156 0
15.095000 0.328558 0
15.100000 0.349627 0
15.105000 0.365653 0
15.110000 0.376077 0
15.115000 0.380518 5
15.120000 0.378797 0
15.125000 0.370949 0
15.130000 0.357220 0
15.135000 0.338053 0
15.140000 0.314066 0
15.145000 0.286017 0
15.150000 0.254765 0
15.155000 0.221222 0
15.160000 0.186313 0
15.165000 0.150936 0
15.170000 0.115918 0
15.175000 0.081991 0
15.180000 0.049770 0
15.185000 0.019740 0
15.190000 -0.007750 0
15.195000 -0.032480 0
15.200000 -0.054352 0
15.205000 -0.073373 0
15.210000 -0.089637 0
15.215000 -0.103306 0
15.220000 -0.114594 0
15.225000 -0.123740 0
15.230000 -0.131003 0
15.235000 -0.136639 0
15.240000 -0.140895 0
15.245000 -0.144001 0
15.250000 -0.145705 0
15.255000 -0.144701 0
15.260000 -0.143701 0
15.265000 -0.142706 0
15.270000 -0.141714 0
15.275000 -0.140724 0
15.280000 -0.139733 0
15.285000 -0.138735 0
15.290000 -0.137720 0
15.295000 -0.136666 0
15.300000 -0.135541 0
15.305000 -0.134288 0
15.310000 -0.132816 0
15.315000 -0.130988 0
15.320000 -0.128601 0
15.325000 -0.125371 0
15.330000 -0.120920 0
15.335000 -0.114773 0
15.340000 -0.106367 0
15.345000 -0.095090 0
15.350000 -0.080339 0
15.355000 -0.061616 0
15.360000 -0.038638 0
15.365000 -0.011462 0
15.370000 0.019410 0
15.375000 0.052957 0
15.380000 0.087638 0
15.385000 0.121470 0
15.390000 0.152198 0
15.395000 0.177534 0
15.400000 0.195432 0
15.405000 0.204365 1
15.410000 0.203541 0
15.415000 0.193015 0
15.420000 0.173688 0
15.425000 0.147177 0
15.430000 0.115585 0
15.435000 0.081178 0
15.440000 0.045958 0
15.445000 0.010985 0
15.450000 -0.024611 0
15.455000 -0.064478 0
15.460000 -0.114127 0
15.465000 -0.176267 0
15.470000 -0.243197 0
15.475000 -0.291925 2
15.480000 -0.287700 0
15.485000 -0.194221 0
15.490000 0.014444 0
15.495000 0.336949 0
15.500000 0.719972 0
15.505000 1.049037 0
15.510000 1.191210 3
15.515000 1.078397 0
15.520000 0.756822 0
15.525000 0.352150 0
15.530000 -0.011011 0
15.535000 -0.260407 0
15.540000 -0.377281 0
15.545000 -0.379044 4
15.550000 -0.305486 0
15.555000 -0.203747 0
15.560000 -0.110035 0
15.565000 -0.039318 0
15.570000 0.010750 0
15.575000 0.048991 0
15.580000 0.082809 0
15.585000 0.116016 0
15.590000 0.149784 0
15.595000 0.183996 0
15.600000 0.218025 0
15.605000 0.251060 0
15.610000 0.282214 0
15.615000 0.310585 0
15.620000 0.335301 0
15.625000 0.355561 0
15.630000 0.370681 0
15.635000 0.380129 0
15.640000 0.383557 5
15.645000 0.380823 0
15.650000 0.371993 0
15.655000 0.357348 0
15.660000 0.337358 0
15.665000 0.312666 0
15.670000 0.284045 0
15.675000 0.252363 0
15.680000 0.218537 0
15.685000 0.183488 0
15.690000 0.148101 0
15.695000 0.113190 0
15.700000 0.079470 0
15.705000 0.047534 0
15.710000 0.017846 0
15.715000 -0.009264 0
15.720000 -0.033596 0
15.725000 -0.055067 0
15.730000 -0.073699 0
15.735000 -0.089597 0
15.740000 -0.102931 0
15.745000 -0.113917 0
15.750000 -0.122800 0
15.755000 -0.129836 0
15.760000 -0.135281 0
15.765000 -0.139380 0
15.770000 -0.142360 0
15.775000 -0.143980 0
15.780000 -0.142984 0
15.785000 -0.141993 0
15.790000 -0.141006 0
15.795000 -0.140022 0
15.800000 -0.139040 0
15.805000 -0.138057 0
15.810000 -0.137065 0
15.815000 -0.136054 0
15.820000 -0.135001 0
15.825000 -0.133872 0
15.830000 -0.132606 0
15.835000 -0.131108 0
15.840000 -0.129234 0
15.845000 -0.126774 0
15.850000 -0.123433 0
15.855000 -0.118824 0
15.860000 -0.112460 0
15.865000 -0.103775 0
15.870000 -0.092153 0
15.875000 -0.077001 0
15.880000 -0.057837 0
15.885000 -0.034412 0
15.890000 -0.006823 0
15.895000 0.024375 0
15.900000 0.058110 0
15.905000 0.092792 0
15.910000 0.126410 0
15.915000 0.156696 0
15.920000 0.181378 0
15.925000 0.198456 0
15.930000 0.206469 1
15.935000 0.204703 0
15.940000 0.193297 0
15.945000 0.173223 0
15.950000 0.146149 0
15.955000 0.114202 0
15.960000 0.079643 0
15.965000 0.044415 0
15.970000 0.009451 0
15.975000 -0.026333 0
15.980000 -0.066811 0
15.985000 -0.117489 0
15.990000 -0.180510 0
15.995000 -0.247039 0
16.000000 -0.292936 2
16.005000 -0.282989 0
16.010000 -0.181346 0
16.015000 0.036496 0
16.020000 0.366159 0
16.025000 0.749744 0
16.030000 1.069472 0
16.035000 1.194467 3
16.040000 1.063780 0
16.045000 0.731419 0
16.050000 0.326022 0
16.055000 -0.030323 0
16.060000 -0.269664 0
16.065000 -0.376590 4
16.070000 -0.370749 0
16.075000 -0.293236 0
16.080000 -0.191079 0
16.085000 -0.099027 0
16.090000 -0.030326 0
16.095000 0.018349 0
16.100000 0.055945 0
16.105000 0.089586 0
16.110000 0.122804 0
16.115000 0.156610 0
16.120000 0.190816 0
16.125000 0.224771 0
16.130000 0.257649 0
16.135000 0.288558 0
16.140000 0.316596 0
16.145000 0.340891 0
16.150000 0.360652 0
16.155000 0.375206 0
16.160000 0.384037 0
16.165000 0.386817 5
16.170000 0.383423 0
16.175000 0.373947 0
16.180000 0.358689 0
16.185000 0.338141 0
16.190000 0.312963 0
16.195000 0.283944 0
16.200000 0.251960 0
16.205000 0.217933 0
16.210000 0.182785 0
16.215000 0.147396 0
16.220000 0.112573 0
16.225000 0.079018 0
16.230000 0.047311 0
16.235000 0.017902 0
16.240000 -0.008895 0
16.245000 -0.032895 0
16.250000 -0.054028 0
16.255000 -0.072327 0
16.260000 -0.087906 0
16.265000 -0.100944 0
16.270000 -0.111661 0
16.275000 -0.120306 0
16.280000 -0.127135 0
16.285000 -0.132405 0
16.290000 -0.136358 0
16.295000 -0.139220 0
16.300000 -0.138805 0
16.305000 -0.137835 0
16.310000 -0.136869 0
16.315000 -0.135908 0
16.320000 -0.134949 0
16.325000 -0.133992 0
16.330000 -0.133032 0
16.335000 -0.132063 0
16.340000 -0.131072 0
16.345000 -0.130035 0
16.350000 -0.128913 0
16.355000 -0.127643 0
16.360000 -0.126123 0
16.365000 -0.124198 0
16.370000 -0.121647 0
16.375000 -0.118160 0
16.380000 -0.113333 0
16.385000 -0.106665 0
16.390000 -0.097575 0
16.395000 -0.085447 0
16.400000 -0.069696 0
16.405000 -0.049869 0
16.410000 -0.025763 0
16.415000 0.002454 0
16.420000 0.034143 0
16.425000 0.068140 0
16.430000 0.102772 0
16.435000 0.135964 0
16.440000 0.165424 0
16.445000 0.188901 0
16.450000 0.204464 0
16.455000 0.210767 1
16.460000 0.207242 0
16.465000 0.194178 0
16.470000 0.172688 0
16.475000 0.144549 0
16.480000 0.111942 0
16.485000 0.077114 0
16.490000 0.041889 0
16.495000 0.006913 0
16.500000 -0.029391 0
16.505000 -0.071397 0
16.510000 -0.124497 0
16.515000 -0.189341 0
16.520000 -0.254255 0
16.525000 -0.292306 2
16.530000 -0.267176 0
16.535000 -0.144142 0
16.540000 0.097385 0
16.545000 0.444383 0
16.550000 0.826085 0
16.555000 1.116158 0
16.560000 1.190850 3
16.565000 1.010992 0
16.570000 0.651918 0
16.575000 0.248223 0
16.580000 -0.086663 0
16.585000 -0.296946 0
16.590000 -0.376232 4
16.595000 -0.350182 0
16.600000 -0.263094 0
16.605000 -0.160979 0
16.610000 -0.074063 0
16.615000 -0.010884 0
16.620000 0.034240 0
16.625000 0.070313 0
16.630000 0.103614 0
16.635000 0.136923 0
16.640000 0.170849 0
16.645000 0.205036 0
16.650000 0.238764 0
16.655000 0.271178 0
16.660000 0.301372 0
16.665000 0.328442 0
16.670000 0.351527 0
16.675000 0.369859 0
16.680000 0.382803 0
16.685000 0.389889 0
16.690000 0.390845 5
16.695000 0.385611 0
16.700000 0.374341 0
16.705000 0.357398 0
16.710000 0.335333 0
16.715000 0.308853 0
16.720000 0.278784 0
16.725000 0.246029 0
16.730000 0.211520 0
16.735000 0.176176 0
16.740000 0.140864 0
16.745000 0.106363 0
16.750000 0.073342 0
16.755000 0.042343 0
16.760000 0.013771 0
16.765000 -0.012103 0
16.770000 -0.035133 0
16.775000 -0.055288 0
16.780000 -0.072630 0
16.785000 -0.087302 0
16.790000 -0.099499 0
16.795000 -0.109456 0
16.800000 -0.117427 0
16.805000 -0.123673 0
16.810000 -0.128447 0
16.815000 -0.131989 0
16.820000 -0.134514 0
16.825000 -0.134069 0
16.830000 -0.133123 0
16.835000 -0.132180 0
16.840000 -0.131242 0
16.845000 -0.130305 0
16.850000 -0.129369 0
16.855000 -0.128427 0
16.860000 -0.127472 0
16.865000 -0.126486 0
16.870000 -0.125440 0
16.875000 -0.124287 0
16.880000 -0.122945 0
16.885000 -0.121294 0
16.890000 -0.119150 0
16.895000 -0.116254 0
16.900000 -0.112253 0
16.905000 -0.106696 0
16.910000 -0.099041 0
16.915000 -0.088678 0
16.920000 -0.074990 0
16.925000 -0.057437 0
16.930000 -0.035661 0
16.935000 -0.009616 0
16.940000 0.020320 0
16.945000 0.053258 0
16.950000 0.087778 0
16.955000 0.121983 0
16.960000 0.153650 0
16.965000 0.180458 0
16.970000 0.200260 0
16.975000 0.211371 0
16.980000 0.212803 1
16.985000 0.204408 0
16.990000 0.186906 0
16.995000 0.161780 0
17.000000 0.131062 0
17.005000 0.097032 0
17.010000 0.061810 0
17.015000 0.026733 0
17.020000 -0.008579 0
17.025000 -0.047215 0
17.030000 -0.094583 0
17.035000 -0.154527 0
17.040000 -0.221880 0
17.045000 -0.276420 0
17.050000 -0.284691 2
17.055000 -0.209559 0
17.060000 -0.022060 0
17.065000 0.282919 0
17.070000 0.662244 0
17.075000 1.009669 0
17.080000 1.189075 3
17.085000 1.115124 0
17.090000 0.816776 0
17.095000 0.415244 0
17.100000 0.041857 0
17.105000 -0.222238 0
17.110000 -0.352549 0
17.115000 -0.363720 4
17.120000 -0.294733 0
17.125000 -0.193719 0
17.130000 -0.098924 0
17.135000 -0.027014 0
17.140000 0.023705 0
17.145000 0.062135 0
17.150000 0.095933 0
17.155000 0.129070 0
17.160000 0.162770 0
17.165000 0.196918 0
17.170000 0.230876 0
17.175000 0.263812 0
17.180000 0.294821 0
17.185000 0.322984 0
17.190000 0.347412 0
17.195000 0.367295 0
17.200000 0.381944 0
17.205000 0.390830 0
17.210000 0.393616 5
17.215000 0.390174 0
17.220000 0.380598 0
17.225000 0.365195 0
17.230000 0.344472 0
17.235000 0.319101 0
17.240000 0.289889 0
17.245000 0.257732 0
17.250000 0.223569 0
17.255000 0.188335 0
17.260000 0.152921 0
17.265000 0.118142 0
17.270000 0.084701 0
17.275000 0.053175 0
17.280000 0.024008 0
17.285000 -0.002496 0
17.290000 -0.026164 0
17.295000 -0.046941 0
17.300000 -0.064871 0
17.305000 -0.080083 0
17.310000 -0.092766 0
17.315000 -0.103150 0
17.320000 -0.111489 0
17.325000 -0.118047 0
17.330000 -0.123082 0
17.335000 -0.126838 0
17.340000 -0.129539 0
17.345000 -0.129140 0
17.350000 -0.128218 0
17.355000 -0.127300 0
17.360000 -0.126386 0
17.365000 -0.125475 0
17.370000 -0.124563 0
17.375000 -0.123647 0
17.380000 -0.122719 0
17.385000 -0.121762 0
17.390000 -0.120749 0
17.395000 -0.119633 0
17.400000 -0.118340 0
17.405000 -0.116748 0
17.410000 -0.114682 0
17.415000 -0.111885 0
17.420000 -0.108010 0
17.425000 -0.102610 0
17.430000 -0.095142 0
17.435000 -0.084994 0
17.440000 -0.071541 0
17.445000 -0.054228 0
17.450000 -0.032683 0
17.455000 -0.006839 0
17.460000 0.022941 0
17.465000 0.055780 0
17.470000 0.090261 0
17.475000 0.124480 0
17.480000 0.156196 0
17.485000 0.183062 0
17.490000 0.202907 0
17.495000 0.214024 0
17.500000 0.215411 1
17.505000 0.206924 0
17.510000 0.189295 0
17.515000 0.164031 0
17.520000 0.133193 0
17.525000 0.099086 0
17.530000 0.063838 0
17.535000 0.028757 0
17.540000 -0.006635 0
17.545000 -0.045589 0
17.550000 -0.093616 0
17.555000 -0.154302 0
17.560000 -0.221623 0
17.565000 -0.274112 0
17.570000 -0.277344 2
17.575000 -0.194009 0
17.580000 0.003891 0
17.585000 0.318350 0
17.590000 0.700107 0
17.595000 1.036471 0
17.600000 1.191186 3
17.605000 1.088418 0
17.610000 0.770632 0
17.615000 0.366191 0
17.620000 0.003801 0
17.625000 -0.242448 0
17.630000 -0.354238 4
17.635000 -0.350677 0
17.640000 -0.273682 0
17.645000 -0.171634 0
17.650000 -0.080138 0
17.655000 -0.012380 0
17.660000 0.035433 0
17.665000 0.072521 0
17.670000 0.105975 0
17.675000 0.139168 0
17.680000 0.172977 0
17.685000 0.207131 0
17.690000 0.240928 0
17.695000 0.273503 0
17.700000 0.303933 0
17.705000 0.331290 0
17.710000 0.354689 0
17.715000 0.373336 0
17.720000 0.386568 0
17.725000 0.393897 0
17.730000 0.395035 5
17.735000 0.389912 0
17.740000 0.378680 0
17.745000 0.361710 0
17.750000 0.339562 0
17.755000 0.312964 0
17.760000 0.282761 0
17.765000 0.249877 0
17.770000 0.215267 0
17.775000 0.179869 0
17.780000 0.144562 0
17.785000 0.110137 0
17.790000 0.077266 0
17.795000 0.046488 0
17.800000 0.018202 0
17.805000 -0.007329 0
17.810000 -0.029975 0
17.815000 -0.049718 0
17.820000 -0.066637 0
17.825000 -0.080887 0
17.830000 -0.092678 0
17.835000 -0.102253 0
17.840000 -0.109876 0
17.845000 -0.115812 0
17.850000 -0.120318 0
17.855000 -0.123632 0
17.860000 -0.125500 0
17.865000 -0.124596 0
17.870000 -0.123697 0
17.875000 -0.122801 0
17.880000 -0.121909 0
17.885000 -0.121018 0
17.890000 -0.120125 0
17.895000 -0.119225 0
17.900000 -0.118305 0
17.905000 -0.117346 0
17.910000 -0.116311 0
17.915000 -0.115139 0
17.920000 -0.113736 0
17.925000 -0.111953 0
17.930000 -0.109573 0
17.935000 -0.106292 0
17.940000 -0.101707 0
17.945000 -0.095313 0
17.950000 -0.086520 0
17.955000 -0.074691 0
17.960000 -0.059221 0
17.965000 -0.039631 0
17.970000 -0.015700 0
17.975000 0.012412 0
17.980000 0.044055 0
17.985000 0.078028 0
17.990000 0.112602 0
17.995000 0.145629 0
18.000000 0.174746 0
18.005000 0.197647 0
18.010000 0.212380 0
18.015000 0.217626 1
18.020000 0.212889 0
18.025000 0.198573 0
18.030000 0.175927 0
18.035000 0.146861 0
18.040000 0.113658 0
18.045000 0.078594 0
18.050000 0.043382 0
18.055000 0.008295 0
18.060000 -0.028933 0
18.065000 -0.073359 0
18.070000 -0.129988 0
18.075000 -0.196758 0
18.080000 -0.257115 0
18.085000 -0.279468 2
18.090000 -0.225684 0
18.095000 -0.063221 0
18.100000 0.219990 0
18.105000 0.591594 0
18.110000 0.954365 0
18.115000 1.169471 3
18.120000 1.135095 0
18.125000 0.862196 0
18.130000 0.466042 0
18.135000 0.084158 0
18.140000 -0.193203 0
18.145000 -0.335647 0
18.150000 -0.355173 4
18.155000 -0.290171 0
18.160000 -0.189849 0
18.165000 -0.094335 0
18.170000 -0.021699 0
18.175000 0.029328 0
18.180000 0.067793 0
18.185000 0.101558 0
18.190000 0.134675 0
18.195000 0.168370 0
18.200000 0.202503 0
18.205000 0.236409 0
18.210000 0.269230 0
18.215000 0.300038 0
18.220000 0.327891 0
18.225000 0.351885 0
18.230000 0.371199 0
18.235000 0.385145 0
18.240000 0.393204 0
18.245000 0.395059 5
18.250000 0.390612 0
18.255000 0.379994 0
18.260000 0.363557 0
18.265000 0.341851 0
18.270000 0.315598 0
18.275000 0.285645 0
18.280000 0.252923 0
18.285000 0.218396 0
18.290000 0.183016 0
18.295000 0.147677 0
18.300000 0.113184 0
18.305000 0.080226 0
18.310000 0.049352 0
18.315000 0.020973 0
18.320000 -0.004642 0
18.325000 -0.027357 0
18.330000 -0.047152 0
18.335000 -0.064106 0
18.340000 -0.078375 0
18.345000 -0.090170 0
18.350000 -0.099739 0
18.355000 -0.107347 0
18.360000 -0.113263 0
18.365000 -0.117747 0
18.370000 -0.121039 0
18.375000 -0.122892 0
18.380000 -0.122001 0
18.385000 -0.121115 0
18.390000 -0.120232 0
18.395000 -0.119352 0
18.400000 -0.118474 0
18.405000 -0.117593 0
18.410000 -0.116704 0
18.415000 -0.115795 0
18.420000 -0.114842 0
18.425000 -0.113808 0
18.430000 -0.112630 0
18.435000 -0.111205 0
18.440000 -0.109377 0
18.445000 -0.106917 0
18.450000 -0.103506 0
18.455000 -0.098722 0
18.460000 -0.092042 0
18.465000 -0.082858 0
18.470000 -0.070527 0
18.475000 -0.054447 0
18.480000 -0.034166 0
18.485000 -0.009515 0
18.490000 0.019267 0
18.495000 0.051428 0
18.500000 0.085652 0
18.505000 0.120100 0
18.510000 0.152537 0
18.515000 0.180562 0
18.520000 0.201889 0
18.525000 0.214658 0
18.530000 0.217700 1
18.535000 0.210713 0
18.540000 0.194311 0
18.545000 0.169934 0
18.550000 0.139632 0
18.555000 0.105755 0
18.560000 0.070525 0
18.565000 0.035397 0
18.570000 0.000076 0
18.575000 -0.038551 0
18.580000 -0.086054 0
18.585000 -0.146336 0
18.590000 -0.213695 0
18.595000 -0.266535 0
18.600000 -0.269736 2
18.605000 -0.185121 0
18.610000 0.015733 0
18.615000 0.333837 0
18.620000 0.716337 0
18.625000 1.045313 0
18.630000 1.182677 3
18.635000 1.058855 0
18.640000 0.726990 0
18.645000 0.321753 0
18.650000 -0.029771 0
18.655000 -0.259147 0
18.660000 -0.353439 4
18.665000 -0.336114 0
18.670000 -0.252121 0
18.675000 -0.149992 0
18.680000 -0.062450 0
18.685000 0.000888 0
18.690000 0.045802 0
18.695000 0.081655 0
18.700000 0.114867 0
18.705000 0.148180 0
18.710000 0.182118 0
18.715000 0.216254 0
18.720000 0.249813 0
18.725000 0.281889 0
18.730000 0.311533 0
18.735000 0.337805 0
18.740000 0.359822 0
18.745000 0.376811 0
18.750000 0.388147 0
18.755000 0.393397 5
18.760000 0.392339 0
18.765000 0.384982 0
18.770000 0.371564 0
18.775000 0.352538 0
18.780000 0.328547 0
18.785000 0.300385 0
18.790000 0.268955 0
18.795000 0.235220 0
18.800000 0.200151 0
18.805000 0.164687 0
18.810000 0.129689 0
18.815000 0.095910 0
18.820000 0.063977 0
18.825000 0.034371 0
18.830000 0.007432 0
18.835000 -0.016643 0
18.840000 -0.037781 0
18.845000 -0.056017 0
18.850000 -0.071475 0
18.855000 -0.084348 0
18.860000 -0.094871 0
18.865000 -0.103306 0
18.870000 -0.109924 0
18.875000 -0.114993 0
18.880000 -0.118764 0
18.885000 -0.121469 0
18.890000 -0.121104 0
18.895000 -0.120222 0
18.900000 -0.119344 0
18.905000 -0.118470 0
18.910000 -0.117597 0
18.915000 -0.116724 0
18.920000 -0.115845 0
18.925000 -0.114951 0
18.930000 -0.114024 0
18.935000 -0.113032 0
18.940000 -0.111922 0
18.945000 -0.110606 0
18.950000 -0.108948 0
18.955000 -0.106746 0
18.960000 -0.103710 0
18.965000 -0.099452 0
18.970000 -0.093476 0
18.975000 -0.085195 0
18.980000 -0.073962 0
18.985000 -0.059147 0
18.990000 -0.040231 0
18.995000 -0.016939 0
19.000000 0.010630 0
19.005000 0.041882 0
19.010000 0.075662 0
19.015000 0.110260 0
19.020000 0.143517 0
19.025000 0.173029 0
19.030000 0.196425 0
19.035000 0.211677 0
19.040000 0.217393 1
19.045000 0.213023 0
19.050000 0.198946 0
19.055000 0.176416 0
19.060000 0.147375 0
19.065000 0.114152 0
19.070000 0.079071 0
19.075000 0.043861 0
19.080000 0.008741 0
19.085000 -0.028720 0
19.090000 -0.073781 0
19.095000 -0.131342 0
19.100000 -0.198438 0
19.105000 -0.256794 0
19.110000 -0.273078 2
19.115000 -0.208369 0
19.120000 -0.030943 0
19.125000 0.267359 0
19.130000 0.645195 0
19.135000 0.994098 0
19.140000 1.172253 3
19.145000 1.091801 0
19.150000 0.786014 0
19.155000 0.382917 0
19.160000 0.016664 0
19.165000 -0.233737 0
19.170000 -0.347874 4
19.175000 -0.344783 0
19.180000 -0.267406 0
19.185000 -0.165342 0
19.190000 -0.074650 0
19.195000 -0.008084 0
19.200000 0.038769 0
19.205000 0.075376 0
19.210000 0.108720 0
19.215000 0.141969 0
19.220000 0.175852 0
19.225000 0.210012 0
19.230000 0.243695 0
19.235000 0.276002 0
19.240000 0.305979 0
19.245000 0.332677 0
19.250000 0.355199 0
19.255000 0.372755 0
19.260000 0.384697 0
19.265000 0.390570 5
19.270000 0.390128 0
19.275000 0.383358 0
19.280000 0.370479 0
19.285000 0.351928 0
19.290000 0.328336 0
19.295000 0.300490 0
19.300000 0.269292 0
19.305000 0.235706 0
19.310000 0.200712 0
19.315000 0.165256 0
19.320000 0.130211 0
19.325000 0.096344 0
19.330000 0.064292 0
19.335000 0.034549 0
19.340000 0.007463 0
19.345000 -0.016757 0
19.350000 -0.038032 0
19.355000 -0.056394 0
19.360000 -0.071964 0
19.365000 -0.084931 0
19.370000 -0.095532 0
19.375000 -0.104030 0
19.380000 -0.110697 0
19.385000 -0.115802 0
19.390000 -0.119600 0
19.395000 -0.122322 0
19.400000 -0.121956 0
19.405000 -0.121070 0
19.410000 -0.120188 0
19.415000 -0.119309 0
19.420000 -0.118432 0
19.425000 -0.117555 0
19.430000 -0.116672 0
19.435000 -0.115774 0
19.440000 -0.114843 0
19.445000 -0.113846 0
19.450000 -0.112730 0
19.455000 -0.111407 0
19.460000 -0.109739 0
19.465000 -0.107521 0
19.470000 -0.104460 0
19.475000 -0.100164 0
19.480000 -0.094132 0
19.485000 -0.085770 0
19.490000 -0.074429 0
19.495000 -0.059475 0
19.500000 -0.040393 0
19.505000 -0.016918 0
19.510000 0.010831 0
19.515000 0.042236 0
19.520000 0.076106 0
19.525000 0.110697 0
19.530000 0.143818 0
19.535000 0.173047 0
19.540000 0.196010 0
19.545000 0.210698 0
19.550000 0.215760 1
19.555000 0.210704 0
19.560000 0.195974 0
19.565000 0.172891 0
19.570000 0.143445 0
19.575000 0.109997 0
19.580000 0.074859 0
19.585000 0.039684 0
19.590000 0.004506 0
19.595000 -0.033401 0
19.600000 -0.079495 0
19.605000 -0.138321 0
19.610000 -0.205646 0
19.615000 -0.261370 0
19.620000 -0.270839 2
19.625000 -0.195061 0
19.630000 -0.003788 0
19.635000 0.307021 0
19.640000 0.688305 0
19.645000 1.023905 0
19.650000 1.172678 3
19.655000 1.059656 0
19.660000 0.733636 0
19.665000 0.328628 0
19.670000 -0.025947 0
19.675000 -0.259152 0
19.680000 -0.356635 4
19.685000 -0.341287 0
19.690000 -0.258044 0
19.695000 -0.155875 0
19.700000 -0.068052 0
19.705000 -0.004505 0
19.710000 0.040500 0
19.715000 0.076387 0
19.720000 0.109625 0
19.725000 0.142968 0
19.730000 0.176938 0
19.735000 0.211100 0
19.740000 0.244671 0
19.745000 0.276738 0
19.750000 0.306345 0
19.755000 0.332546 0
19.760000 0.354456 0
19.765000 0.371298 0
19.770000 0.382451 0
19.775000 0.387483 5
19.780000 0.386182 0
19.785000 0.378567 0
19.790000 0.364887 0
19.795000 0.345609 0
19.800000 0.321388 0
19.805000 0.293032 0
19.810000 0.261455 0
19.815000 0.227628 0
19.820000 0.192528 0
19.825000 0.157095 0
19.830000 0.122189 0
19.835000 0.088562 0
19.840000 0.056830 0
19.845000 0.027468 0
19.850000 0.000803 0
19.855000 -0.022977 0
19.860000 -0.043808 0
19.865000 -0.061737 0
19.870000 -0.076897 0
19.875000 -0.089486 0
19.880000 -0.099745 0
19.885000 -0.107939 0
19.890000 -0.114343 0
19.895000 -0.119223 0
19.900000 -0.122831 0
19.905000 -0.125397 0
19.910000 -0.124995 0
19.915000 -0.124093 0
19.920000 -0.123196 0
19.925000 -0.122302 0
19.930000 -0.121410 0
19.935000 -0.120516 0
19.940000 -0.119617 0
19.945000 -0.118699 0
19.950000 -0.117745 0
19.955000 -0.116719 0
19.960000 -0.115562 0
19.965000 -0.114181 0
19.970000 -0.112427 0
19.975000 -0.110083 0
19.980000 -0.106841 0
19.985000 -0.102291 0
19.990000 -0.095915 0
19.995000 -0.087107 0
20.000000 -0.075213 0
20.005000 -0.059611 0
20.010000 -0.039816 0
20.015000 -0.015615 0
20.020000 0.012799 0
20.025000 0.044715 0
20.030000 0.078850 0
20.035000 0.113374 0
20.040000 0.146040 0
20.045000 0.174408 0
20.050000 0.196141 0
20.055000 0.209321 0
20.060000 0.212724 1
20.065000 0.206012 0
20.070000 0.189786 0
20.075000 0.165495 0
20.080000 0.135220 0
20.085000 0.101347 0
20.090000 0.066130 0
20.095000 0.031029 0
20.100000 -0.004320 0
20.105000 -0.043179 0
20.110000 -0.091247 0
20.115000 -0.152203 0
20.120000 -0.219431 0
20.125000 -0.269903 2
20.130000 -0.267292 0
20.135000 -0.173121 0
20.140000 0.039845 0
20.145000 0.368467 0
20.150000 0.751804 0
20.155000 1.064150 0
20.160000 1.168909 3
20.165000 1.011578 0
20.170000 0.661252 0
20.175000 0.257005 0
20.180000 -0.080205 0
20.185000 -0.290434 0
20.190000 -0.366874 4
20.195000 -0.336958 0
20.200000 -0.247512 0
20.205000 -0.145973 0
20.210000 -0.061834 0
20.215000 -0.001741 0
20.220000 0.041309 0
20.225000 0.076506 0
20.230000 0.109682 0
20.235000 0.143142 0
20.240000 0.177203 0
20.245000 0.211356 0
20.250000 0.244794 0
20.255000 0.276598 0
20.260000 0.305813 0
20.265000 0.331504 0
20.270000 0.352799 0
20.275000 0.368944 0
20.280000 0.379343 0
20.285000 0.383594 5
20.290000 0.381514 0
20.295000 0.373150 0
20.300000 0.358779 0
20.305000 0.338890 0
20.310000 0.314158 0
20.315000 0.285401 0
20.320000 0.253538 0
20.325000 0.219541 0
20.330000 0.184380 0
20.335000 0.148986 0
20.340000 0.114205 0
20.345000 0.080770 0
20.350000 0.049283 0
20.355000 0.020200 0
20.360000 -0.006165 0
20.365000 -0.029639 0
20.370000 -0.050171 0
20.375000 -0.067815 0
20.380000 -0.082712 0
20.385000 -0.095062 0
20.390000 -0.105109 0
20.395000 -0.113119 0
20.400000 -0.119364 0
20.405000 -0.124111 0
20.410000 -0.127607 0
20.415000 -0.129586 0
20.420000 -0.128662 0
20.425000 -0.127742 0
20.430000 -0.126826 0
20.435000 -0.125914 0
20.440000 -0.125003 0
20.445000 -0.124092 0
20.450000 -0.123173 0
20.455000 -0.122236 0
20.460000 -0.121261 0
20.465000 -0.120211 0
20.470000 -0.119028 0
20.475000 -0.117613 0
20.480000 -0.115818 0
20.485000 -0.113421 0
20.490000 -0.110111 0
20.495000 -0.105474 0
20.500000 -0.098990 0
20.505000 -0.090053 0
20.510000 -0.078010 0
20.515000 -0.062244 0
20.520000 -0.042282 0
20.525000 -0.017921 0
20.530000 0.010630 0
20.535000 0.042646 0
20.540000 0.076833 0
20.545000 0.111354 0
20.550000 0.143963 0
20.555000 0.172230 0
20.560000 0.193831 0
20.565000 0.206865 0
20.570000 0.210130 1
20.575000 0.203301 0
20.580000 0.186990 0
20.585000 0.162648 0
20.590000 0.132352 0
20.595000 0.098480 0
20.600000 0.063275 0
20.605000 0.028188 0
20.610000 -0.007145 0
20.615000 -0.045971 0
20.620000 -0.093965 0
20.625000 -0.154825 0
20.630000 -0.222061 0
20.635000 -0.272881 2
20.640000 -0.271186 0
20.645000 -0.178595 0
20.650000 0.032308 0
20.655000 0.359131 0
20.660000 0.742460 0
20.665000 1.058083 0
20.670000 1.169121 3
20.675000 1.018725 0
20.680000 0.672543 0
20.685000 0.267791 0
20.690000 -0.073739 0
20.695000 -0.290100 0
20.700000 -0.372637 4
20.705000 -0.347252 0
20.710000 -0.259795 0
20.715000 -0.157864 0
20.720000 -0.072125 0
20.725000 -0.010469 0
20.730000 0.033527 0
20.735000 0.069097 0
20.740000 0.102336 0
20.745000 0.135763 0
20.750000 0.169804 0
20.755000 0.204002 0
20.760000 0.237571 0
20.765000 0.269607 0
20.770000 0.299165 0
20.775000 0.325313 0
20.780000 0.347176 0
20.785000 0.363992 0
20.790000 0.375148 0
20.795000 0.380220 5
20.800000 0.378997 0
20.805000 0.371498 0
20.810000 0.357965 0
20.815000 0.338856 0
20.820000 0.314815 0
20.825000 0.286635 0
20.830000 0.255216 0
20.835000 0.221516 0
20.840000 0.186501 0
20.845000 0.151103 0
20.850000 0.116178 0
20.855000 0.082475 0
20.860000 0.050615 0
20.865000 0.021076 0
20.870000 -0.005804 0
20.875000 -0.029828 0
20.880000 -0.050923 0
20.885000 -0.069123 0
20.890000 -0.084553 0
20.895000 -0.097400 0
20.900000 -0.107899 0
20.905000 -0.116311 0
20.910000 -0.122905 0
20.915000 -0.127948 0
20.920000 -0.131690 0
20.925000 -0.134361 0
20.930000 -0.133937 0
20.935000 -0.132991 0
20.940000 -0.132050 0
20.945000 -0.131112 0
20.950000 -0.130176 0
20.955000 -0.129241 0
20.960000 -0.128300 0
20.965000 -0.127346 0
20.970000 -0.126359 0
20.975000 -0.125311 0
20.980000 -0.124150 0
20.985000 -0.122791 0
20.990000 -0.121102 0
20.995000 -0.118888 0
21.000000 -0.115867 0
21.005000 -0.111661 0
21.010000 -0.105785 0
21.015000 -0.097662 0
21.020000 -0.086650 0
21.025000 -0.072119 0
21.030000 -0.053538 0
21.035000 -0.030604 0
21.040000 -0.003377 0
21.045000 0.027606 0
21.050000 0.061251 0
21.055000 0.095912 0
21.060000 0.129482 0
21.065000 0.159582 0
21.070000 0.183837 0
21.075000 0.200176 0
21.080000 0.207127 1
21.085000 0.204037 0
21.090000 0.191171 0
21.095000 0.169674 0
21.100000 0.141404 0
21.105000 0.108650 0
21.110000 0.073749 0
21.115000 0.038548 0
21.120000 0.003543 0
21.125000 -0.033256 0
21.130000 -0.076765 0
21.135000 -0.132294 0
21.140000 -0.198636 0
21.145000 -0.260187 0
21.150000 -0.285680 2
21.155000 -0.236456 0
21.160000 -0.078893 0
21.165000 0.200499 0
21.170000 0.570764 0
21.175000 0.934834 0
21.180000 1.152001 3
21.185000 1.120230 0
21.190000 0.849939 0
21.195000 0.454713 0
21.200000 0.071464 0
21.205000 -0.208938 0
21.210000 -0.355071 0
21.215000 -0.377918 4
21.220000 -0.314973 0
21.225000 -0.215044 0
21.230000 -0.118668 0
21.235000 -0.044775 0
21.240000 0.007244 0
21.245000 0.046254 0
21.250000 0.080242 0
21.255000 0.113439 0
21.260000 0.147186 0
21.265000 0.181401 0
21.270000 0.215444 0
21.275000 0.248473 0
21.280000 0.279570 0
21.285000 0.307798 0
21.290000 0.332255 0
21.295000 0.352119 0
21.300000 0.366692 0
21.305000 0.375440 0
21.310000 0.378029 5
21.315000 0.374338 0
21.320000 0.364475 0
21.325000 0.348764 0
21.330000 0.327732 0
21.335000 0.302074 0
21.340000 0.272621 0
21.345000 0.240288 0
21.350000 0.206031 0
21.355000 0.170798 0
21.360000 0.135487 0
21.365000 0.100913 0
21.370000 0.067775 0
21.375000 0.036641 0
21.380000 0.007940 0
21.385000 -0.018042 0
21.390000 -0.041147 0
21.395000 -0.061340 0
21.400000 -0.078683 0
21.405000 -0.093320 0
21.410000 -0.105451 0
21.415000 -0.115319 0
21.420000 -0.123185 0
21.425000 -0.129316 0
21.430000 -0.133971 0
21.435000 -0.137395 0
21.440000 -0.139316 0
21.445000 -0.138344 0
21.450000 -0.137376 0
21.455000 -0.136412 0
21.460000 -0.135452 0
21.465000 -0.134494 0
21.470000 -0.133536 0
21.475000 -0.132571 0
21.480000 -0.131589 0
21.485000 -0.130572 0
21.490000 -0.129485 0
21.495000 -0.128272 0
21.500000 -0.126843 0
21.505000 -0.125058 0
21.510000 -0.122709 0
21.515000 -0.119503 0
21.520000 -0.115048 0
21.525000 -0.108852 0
21.530000 -0.100328 0
21.535000 -0.088842 0
21.540000 -0.073776 0
21.545000 -0.054628 0
21.550000 -0.031138 0
21.555000 -0.003417 0
21.560000 0.027942 0
21.565000 0.061798 0
21.570000 0.096466 0
21.575000 0.129828 0
21.580000 0.159521 0
21.585000 0.183209 0
21.590000 0.198884 0
21.595000 0.205147 1
21.600000 0.201413 0
21.605000 0.188005 0
21.610000 0.166104 0
21.615000 0.137577 0
21.620000 0.104698 0
21.625000 0.069772 0
21.630000 0.034593 0
21.635000 -0.000403 0
21.640000 -0.037257 0
21.645000 -0.080875 0
21.650000 -0.136485 0
21.655000 -0.202824 0
21.660000 -0.264441 0
21.665000 -0.290466 2
21.670000 -0.242679 0
21.675000 -0.087651 0
21.680000 0.188619 0
21.685000 0.557122 0
21.690000 0.924019 0
21.695000 1.150537 3
21.700000 1.131626 0
21.705000 0.872102 0
21.710000 0.480326 0
21.715000 0.092621 0
21.720000 -0.197190 0
21.725000 -0.354222 0
21.730000 -0.386615 4
21.735000 -0.329643 0
21.740000 -0.231262 0
21.745000 -0.133144 0
21.750000 -0.056426 0
21.755000 -0.002178 0
21.760000 0.037982 0
21.765000 0.072328 0
21.770000 0.105521 0
21.775000 0.139188 0
21.780000 0.173379 0
21.785000 0.207516 0
21.790000 0.240788 0
21.795000 0.272295 0
21.800000 0.301113 0
21.805000 0.326343 0
21.810000 0.347154 0
21.815000 0.362831 0
21.820000 0.372813 0
21.825000 0.376727 5
21.830000 0.374409 0
21.835000 0.365916 0
21.840000 0.351521 0
21.845000 0.331701 0
21.850000 0.307106 0
21.855000 0.278528 0
21.860000 0.246854 0
21.865000 0.213020 0
21.870000 0.177971 0
21.875000 0.142609 0
21.880000 0.107764 0
21.885000 0.074161 0
21.890000 0.042399 0
21.895000 0.012942 0
21.900000 -0.013884 0
21.905000 -0.037888 0
21.910000 -0.058996 0
21.915000 -0.077243 0
21.920000 -0.092745 0
21.925000 -0.105686 0
21.930000 -0.116291 0
21.935000 -0.124815 0
21.940000 -0.131520 0
21.945000 -0.136667 0
21.950000 -0.140502 0
21.955000 -0.143254 0
21.960000 -0.142805 0
21.965000 -0.141815 0
21.970000 -0.140829 0
21.975000 -0.139847 0
21.980000 -0.138869 0
21.985000 -0.137891 0
21.990000 -0.136910 0
21.995000 -0.135918 0
22.000000 -0.134900 0
22.005000 -0.133830 0
22.010000 -0.132664 0
22.015000 -0.131330 0
22.020000 -0.129713 0
22.025000 -0.127642 0
22.030000 -0.124869 0
22.035000 -0.121057 0
22.040000 -0.115766 0
22.045000 -0.108460 0
22.050000 -0.098530 0
22.055000 -0.085348 0
22.060000 -0.068345 0
22.065000 -0.047125 0
22.070000 -0.021591 0
22.075000 0.007938 0
22.080000 0.040627 0
22.085000 0.075099 0
22.090000 0.109481 0
22.095000 0.141544 0
22.100000 0.168933 0
22.105000 0.189444 0
22.110000 0.201320 0
22.115000 0.203497 1
22.120000 0.195763 0
22.125000 0.178792 0
22.130000 0.154049 0
22.135000 0.123571 0
22.140000 0.089667 0
22.145000 0.054497 0
22.150000 0.019454 0
22.155000 -0.015802 0
22.160000 -0.054352 0
22.165000 -0.101663 0
22.170000 -0.161628 0
22.175000 -0.228936 0
22.180000 -0.282905 0
22.185000 -0.289465 2
22.190000 -0.211048 0
22.195000 -0.018802 0
22.200000 0.291014 0
22.205000 0.671815 0
22.210000 1.012964 0
22.215000 1.177196 3
22.220000 1.085923 0
22.225000 0.777029 0
22.230000 0.373890 0
22.235000 0.004910 0
22.240000 -0.252743 0
22.245000 -0.377150 0
22.250000 -0.384174 4
22.255000 -0.313137 0
22.260000 -0.211725 0
22.265000 -0.117296 0
22.270000 -0.045792 0
22.275000 0.004745 0
22.280000 0.043177 0
22.285000 0.077055 0
22.290000 0.110287 0
22.295000 0.144079 0
22.300000 0.178318 0
22.305000 0.212374 0
22.310000 0.245423 0
22.315000 0.276570 0
22.320000 0.304904 0
22.325000 0.329544 0
22.330000 0.349682 0
22.335000 0.364633 0
22.340000 0.373864 0
22.345000 0.377034 5
22.350000 0.374005 0
22.355000 0.364860 0
22.360000 0.349891 0
22.365000 0.329587 0
22.370000 0.304606 0
22.375000 0.275739 0
22.380000 0.243869 0
22.385000 0.209923 0
22.390000 0.174831 0
22.395000 0.139483 0
22.400000 0.104691 0
22.405000 0.071165 0
22.410000 0.039493 0
22.415000 0.010126 0
22.420000 -0.016619 0
22.425000 -0.040554 0
22.430000 -0.061612 0
22.435000 -0.079827 0
22.440000 -0.095314 0
22.445000 -0.108254 0
22.450000 -0.118872 0
22.455000 -0.127417 0
22.460000 -0.134149 0
22.465000 -0.139325 0
22.470000 -0.143191 0
22.475000 -0.145970 0
22.480000 -0.145514 0
22.485000 -0.144511 0
22.490000 -0.143512 0
22.495000 -0.142517 0
22.500000 -0.141525 0
22.505000 -0.140535 0
22.510000 -0.139542 0
22.515000 -0.138539 0
22.520000 -0.137511 0
22.525000 -0.136436 0
22.530000 -0.135272 0
22.535000 -0.133950 0
22.540000 -0.132364 0
22.545000 -0.130352 0
22.550000 -0.127682 0
22.555000 -0.124032 0
22.560000 -0.118983 0
22.565000 -0.112019 0
22.570000 -0.102547 0
22.575000 -0.089944 0
22.580000 -0.073634 0
22.585000 -0.053186 0
22.590000 -0.028440 0
22.595000 0.000372 0
22.600000 0.032530 0
22.605000 0.066780 0
22.610000 0.101364 0
22.615000 0.134140 0
22.620000 0.162786 0
22.625000 0.185066 0
22.630000 0.199120 0
22.635000 0.203714 1
22.640000 0.198428 0
22.645000 0.183714 0
22.650000 0.160833 0
22.655000 0.131676 0
22.660000 0.098485 0
22.665000 0.063486 0
22.670000 0.028349 0
22.675000 -0.006653 0
22.680000 -0.043701 0
22.685000 -0.087704 0
22.690000 -0.143674 0
22.695000 -0.210093 0
22.700000 -0.271639 0
22.705000 -0.298152 2
22.710000 -0.252357 0
22.715000 -0.101402 0
22.720000 0.169401 0
22.725000 0.534441 0
22.730000 0.906052 0
22.735000 1.149872 0
22.740000 1.156363 3
22.745000 0.918066 0
22.750000 0.534180 0
22.755000 0.139378 0
22.760000 -0.167293 0
22.765000 -0.344475 0
22.770000 -0.395031 4
22.775000 -0.350079 0
22.780000 -0.255656 0
22.785000 -0.155052 0
22.790000 -0.073287 0
22.795000 -0.014723 0
22.800000 0.027824 0
22.805000 0.062998 0
22.810000 0.096238 0
22.815000 0.129736 0
22.820000 0.163826 0
22.825000 0.198055 0
22.830000 0.231672 0
22.835000 0.263815 0
22.840000 0.293585 0
22.845000 0.320089 0
22.850000 0.342486 0
22.855000 0.360037 0
22.860000 0.372134 0
22.865000 0.378343 0
22.870000 0.378427 5
22.875000 0.372358 0
22.880000 0.360319 0
22.885000 0.342698 0
22.890000 0.320065 0
22.895000 0.293138 0
22.900000 0.262748 0
22.905000 0.229797 0
22.910000 0.195208 0
22.915000 0.159888 0
22.920000 0.124689 0
22.925000 0.090371 0
22.930000 0.057587 0
22.935000 0.026859 0
22.940000 -0.001422 0
22.945000 -0.027000 0
22.950000 -0.049740 0
22.955000 -0.069619 0
22.960000 -0.086707 0
22.965000 -0.101147 0
22.970000 -0.113137 0
22.975000 -0.122912 0
22.980000 -0.130724 0
22.985000 -0.136831 0
22.990000 -0.141484 0
22.995000 -0.144919 0
23.000000 -0.147351 0
23.005000 -0.146837 0
23.010000 -0.145827 0
23.015000 -0.144821 0
23.020000 -0.143820 0
23.025000 -0.142821 0
23.030000 -0.141822 0
23.035000 -0.140818 0
23.040000 -0.139801 0
23.045000 -0.138754 0
23.050000 -0.137648 0
23.055000 -0.136436 0
23.060000 -0.135039 0
23.065000 -0.133338 0
23.070000 -0.131153 0
23.075000 -0.128228 0
23.080000 -0.124220 0
23.085000 -0.118683 0
23.090000 -0.111085 0
23.095000 -0.100823 0
23.100000 -0.087285 0
23.105000 -0.069927 0
23.110000 -0.048380 0
23.115000 -0.022575 0
23.120000 0.007146 0
23.125000 0.039943 0
23.130000 0.074449 0
23.135000 0.108821 0
23.140000 0.140875 0
23.145000 0.168308 0
23.150000 0.188965 0
23.155000 0.201115 0
23.160000 0.203696 1
23.165000 0.196468 0
23.170000 0.180045 0
23.175000 0.155816 0
23.180000 0.125742 0
23.185000 0.092072 0
23.190000 0.056957 0
23.195000 0.021880 0
23.200000 -0.013224 0
23.205000 -0.050988 0
23.210000 -0.096567 0
23.215000 -0.154448 0
23.220000 -0.221489 0
23.225000 -0.280257 0
23.230000 -0.299294 2
23.235000 -0.241595 0
23.240000 -0.076064 0
23.245000 0.208326 0
23.250000 0.579782 0
23.255000 0.944401 0
23.260000 1.167536 3
23.265000 1.148486 0
23.270000 0.891546 0
23.275000 0.501338 0
23.280000 0.110992 0
23.285000 -0.185824 0
23.290000 -0.352351 0
23.295000 -0.394186 4
23.300000 -0.343916 0
23.305000 -0.247770 0
23.310000 -0.147908 0
23.315000 -0.067708 0
23.320000 -0.010413 0
23.325000 0.031470 0
23.330000 0.066417 0
23.335000 0.099630 0
23.340000 0.133151 0
23.345000 0.167253 0
23.350000 0.201462 0
23.355000 0.235026 0
23.360000 0.267085 0
23.365000 0.296743 0
23.370000 0.323114 0
23.375000 0.345367 0
23.380000 0.362768 0
23.385000 0.374718 0
23.390000 0.380790 5
23.395000 0.380752 0
23.400000 0.374579 0
23.405000 0.362460 0
23.410000 0.344780 0
23.415000 0.322107 0
23.420000 0.295157 0
23.425000 0.264757 0
23.430000 0.231801 0
23.435000 0.197210 0
23.440000 0.161884 0
23.445000 0.126670 0
23.450000 0.092328 0
23.455000 0.059505 0
23.460000 0.028724 0
23.465000 0.000376 0
23.470000 -0.025281 0
23.475000 -0.048110 0
23.480000 -0.068086 0
23.485000 -0.085274 0
23.490000 -0.099816 0
23.495000 -0.111906 0
23.500000 -0.121777 0
23.505000 -0.129679 0
23.510000 -0.135868 0
23.515000 -0.140596 0
23.520000 -0.144096 0
23.525000 -0.146584 0
23.530000 -0.146083 0
23.535000 -0.145076 0
23.540000 -0.144074 0
23.545000 -0.143076 0
23.550000 -0.142081 0
23.555000 -0.141087 0
23.560000 -0.140088 0
23.565000 -0.139076 0
23.570000 -0.138037 0
23.575000 -0.136942 0
23.580000 -0.135746 0
23.585000 -0.134375 0
23.590000 -0.132714 0
23.595000 -0.130592 0
23.600000 -0.127762 0
23.605000 -0.123891 0
23.610000 -0.118550 0
23.615000 -0.111216 0
23.620000 -0.101295 0
23.625000 -0.088178 0
23.630000 -0.071310 0
23.635000 -0.050297 0
23.640000 -0.025027 0
23.645000 0.004218 0
23.650000 0.036669 0
23.655000 0.071036 0
23.660000 0.105544 0
23.665000 0.138059 0
23.670000 0.166291 0
23.675000 0.188059 0
23.680000 0.201564 0
23.685000 0.205640 1
23.690000 0.199914 0
23.695000 0.184869 0
23.700000 0.161775 0
23.705000 0.132505 0
23.710000 0.099273 0
23.715000 0.064265 0
23.720000 0.029123 0
23.725000 -0.005874 0
23.730000 -0.042838 0
23.735000 -0.086564 0
23.740000 -0.142064 0
23.745000 -0.208232 0
23.750000 -0.270675 0
23.755000 -0.300326 2
23.760000 -0.260591 0
23.765000 -0.118449 0
23.770000 0.142578 0
23.775000 0.501667 0
23.780000 0.878344 0
23.785000 1.142429 0
23.790000 1.179061 3
23.795000 0.966977 0
23.800000 0.593840 0
23.805000 0.193601 0
23.810000 -0.128375 0
23.815000 -0.323825 0
23.820000 -0.390701 4
23.825000 -0.356760 0
23.830000 -0.266597 0
23.835000 -0.164792 0
23.840000 -0.079440 0
23.845000 -0.017595 0
23.850000 0.026853 0
23.855000 0.062729 0
23.860000 0.096040 0
23.865000 0.129409 0
23.870000 0.163389 0
23.875000 0.197615 0
23.880000 0.231375 0
23.885000 0.263827 0
23.890000 0.294080 0
23.895000 0.321242 0
23.900000 0.344466 0
23.905000 0.362993 0
23.910000 0.376193 0
23.915000 0.383597 0
23.920000 0.384928 5
23.925000 0.380114 0
23.930000 0.369296 0
23.935000 0.352815 0
23.940000 0.331200 0
23.945000 0.305137 0
23.950000 0.275429 0
23.955000 0.242959 0
23.960000 0.208644 0
23.965000 0.173393 0
23.970000 0.138066 0
23.975000 0.103444 0
23.980000 0.070203 0
23.985000 0.038895 0
23.990000 0.009939 0
23.995000 -0.016374 0
24.000000 -0.039882 0
24.005000 -0.060535 0
24.010000 -0.078379 0
24.015000 -0.093538 0
24.020000 -0.106198 0
24.025000 -0.116583 0
24.030000 -0.124940 0
24.035000 -0.131524 0
24.040000 -0.136590 0
24.045000 -0.140374 0
24.050000 -0.143099 0
24.055000 -0.142647 0
24.060000 -0.141658 0
24.065000 -0.140673 0
24.070000 -0.139693 0
24.075000 -0.138715 0
24.080000 -0.137739 0
24.085000 -0.136759 0
24.090000 -0.135770 0
24.095000 -0.134757 0
24.100000 -0.133696 0
24.105000 -0.132548 0
24.110000 -0.131245 0
24.115000 -0.129685 0
24.120000 -0.127711 0
24.125000 -0.125098 0
24.130000 -0.121534 0
24.135000 -0.116613 0
24.140000 -0.109835 0
24.145000 -0.100622 0
24.150000 -0.088360 0
24.155000 -0.072474 0
24.160000 -0.052521 0
24.165000 -0.028308 0
24.170000 -0.000010 0
24.175000 0.031732 0
24.180000 0.065756 0
24.185000 0.100401 0
24.190000 0.133606 0
24.195000 0.163101 0
24.200000 0.186653 0
24.205000 0.202344 0
24.210000 0.208831 1
24.215000 0.205534 0
24.220000 0.192723 0
24.225000 0.171481 0
24.230000 0.143551 0
24.235000 0.111089 0
24.240000 0.076326 0
24.245000 0.041105 0
24.250000 0.006144 0
24.255000 -0.029974 0
24.260000 -0.071445 0
24.265000 -0.123680 0
24.270000 -0.187886 0
24.275000 -0.253544 0
24.280000 -0.294989 2
24.285000 -0.276574 0
24.290000 -0.163296 0
24.295000 0.067129 0
24.300000 0.405974 0
24.305000 0.789295 0
24.310000 1.095709 0
24.315000 1.198116 3
24.320000 1.045771 0
24.325000 0.701544 0
24.330000 0.296131 0
24.335000 -0.052388 0
24.340000 -0.281173 0
24.345000 -0.378295 4
24.350000 -0.365428 0
24.355000 -0.284558 0
24.360000 -0.182211 0
24.365000 -0.091596 0
24.370000 -0.024469 0
24.375000 0.023202 0
24.380000 0.060367 0
24.385000 0.093903 0
24.390000 0.127132 0
24.395000 0.160960 0
24.400000 0.195159 0
24.405000 0.229066 0
24.410000 0.261855 0
24.415000 0.292635 0
24.420000 0.320509 0
24.425000 0.344611 0
24.430000 0.364158 0
24.435000 0.378484 0
24.440000 0.387085 0
24.445000 0.389640 5
24.450000 0.386033 0
24.455000 0.376364 0
24.460000 0.360937 0
24.465000 0.340247 0
24.470000 0.314956 0
24.475000 0.285851 0
24.480000 0.253807 0
24.485000 0.219741 0
24.490000 0.184571 0
24.495000 0.149173 0
24.500000 0.114349 0
24.505000 0.080797 0
24.510000 0.049093 0
24.515000 0.019685 0
24.520000 -0.007116 0
24.525000 -0.031126 0
24.530000 -0.052274 0
24.535000 -0.070594 0
24.540000 -0.086199 0
24.545000 -0.099267 0
24.550000 -0.110016 0
24.555000 -0.118694 0
24.560000 -0.125556 0
24.565000 -0.130858 0
24.570000 -0.134843 0
24.575000 -0.137734 0
24.580000 -0.137329 0
24.585000 -0.136367 0
24.590000 -0.135408 0
24.595000 -0.134454 0
24.600000 -0.133503 0
24.605000 -0.132553 0
24.610000 -0.131601 0
24.615000 -0.130640 0
24.620000 -0.129657 0
24.625000 -0.128630 0
24.630000 -0.127521 0
24.635000 -0.126267 0
24.640000 -0.124769 0
24.645000 -0.122878 0
24.650000 -0.120375 0
24.655000 -0.116958 0
24.660000 -0.112229 0
24.665000 -0.105697 0
24.670000 -0.096785 0
24.675000 -0.084881 0
24.680000 -0.069397 0
24.685000 -0.049871 0
24.690000 -0.026079 0
24.695000 0.001842 0
24.700000 0.033294 0
24.705000 0.067156 0
24.710000 0.101801 0
24.715000 0.135188 0
24.720000 0.165044 0
24.725000 0.189113 0
24.730000 0.205435 0
24.735000 0.212609 1
24.740000 0.209990 0
24.745000 0.197791 0
24.750000 0.177044 0
24.755000 0.149464 0
24.760000 0.117198 0
24.765000 0.082495 0
24.770000 0.047245 0
24.775000 0.012262 0
24.780000 -0.023735 0
24.785000 -0.064818 0
24.790000 -0.116457 0
24.795000 -0.180243 0
24.800000 -0.246293 0
24.805000 -0.289460 2
24.810000 -0.274167 0
24.815000 -0.165014 0
24.820000 0.061127 0
24.825000 0.397006 0
24.830000 0.780508 0
24.835000 1.091047 0
24.840000 1.200000 3
24.845000 1.053354 0
24.850000 0.711661 0
24.855000 0.306206 0
24.860000 -0.043272 0
24.865000 -0.272771 0
24.870000 -0.370012 4
24.875000 -0.356835 0
24.880000 -0.275648 0
24.885000 -0.173336 0
24.890000 -0.083137 0
24.895000 -0.016558 0
24.900000 0.030683 0
24.905000 0.067620 0
24.910000 0.101078 0
24.915000 0.134296 0
24.920000 0.168122 0
24.925000 0.202297 0
24.930000 0.236138 0
24.935000 0.268808 0
24.940000 0.299405 0
24.945000 0.327024 0
24.950000 0.350796 0
24.955000 0.369938 0
24.960000 0.383790 0
24.965000 0.391855 0
24.970000 0.393829 5
24.975000 0.389613 0
24.980000 0.379328 0
24.985000 0.363301 0
24.990000 0.342051 0
24.995000 0.316261 0
25.000000 0.286738 0
25.005000 0.254372 0
25.010000 0.220090 0
25.015000 0.184817 0
25.020000 0.149427 0
25.025000 0.114717 0
25.030000 0.081376 0
25.035000 0.049966 0
25.040000 0.020917 0
25.045000 -0.005475 0
25.050000 -0.029044 0
25.055000 -0.049739 0
25.060000 -0.067607 0
25.065000 -0.082775 0
25.070000 -0.095431 0
25.075000 -0.105803 0
25.080000 -0.114143 0
25.085000 -0.120709 0
25.090000 -0.125757 0
25.095000 -0.129529 0
25.100000 -0.132246 0
25.105000 -0.131839 0
25.110000 -0.130903 0
25.115000 -0.129972 0
25.120000 -0.129045 0
25.125000 -0.128120 0
25.130000 -0.127196 0
25.135000 -0.126268 0
25.140000 -0.125328 0
25.145000 -0.124362 0
25.150000 -0.123343 0
25.155000 -0.122229 0
25.160000 -0.120947 0
25.165000 -0.119385 0
25.170000 -0.117375 0
25.175000 -0.114675 0
25.180000 -0.110954 0
25.185000 -0.105785 0
25.190000 -0.098641 0
25.195000 -0.088927 0
25.200000 -0.076022 0
25.205000 -0.059362 0
25.210000 -0.038540 0
25.215000 -0.013430 0
25.220000 0.015690 0
25.225000 0.048054 0
25.230000 0.082357 0
25.235000 0.116806 0
25.240000 0.149239 0
25.245000 0.177336 0
25.250000 0.198893 0
25.255000 0.212098 0
25.260000 0.215791 1
25.265000 0.209624 0
25.270000 0.194119 0
25.275000 0.170595 0
25.280000 0.140975 0
25.285000 0.107510 0
25.290000 0.072395 0
25.295000 0.037225 0
25.300000 0.002127 0
25.305000 -0.035284 0
25.310000 -0.080039 0
25.315000 -0.136940 0
25.320000 -0.203744 0
25.325000 -0.264132 0
25.330000 -0.287273 2
25.335000 -0.235941 0
25.340000 -0.078047 0
25.345000 0.199383 0
25.350000 0.567693 0
25.355000 0.935925 0
25.360000 1.169229 3
25.365000 1.161655 0
25.370000 0.911081 0
25.375000 0.522198 0
25.380000 0.131511 0
25.385000 -0.164610 0
25.390000 -0.328738 0
25.395000 -0.367211 4
25.400000 -0.314068 0
25.405000 -0.216877 0
25.410000 -0.118028 0
25.415000 -0.039928 0
25.420000 0.015409 0
25.425000 0.056088 0
25.430000 0.090529 0
25.435000 0.123621 0
25.440000 0.157140 0
25.445000 0.191208 0
25.450000 0.225273 0
25.455000 0.258538 0
25.460000 0.290111 0
25.465000 0.319071 0
25.470000 0.344517 0
25.475000 0.365615 0
25.480000 0.381642 0
25.485000 0.392023 0
25.490000 0.396371 5
25.495000 0.394504 0
25.500000 0.386459 0
25.505000 0.372490 0
25.510000 0.353053 0
25.515000 0.328783 0
25.520000 0.300457 0
25.525000 0.268951 0
25.530000 0.235197 0
25.535000 0.200135 0
25.540000 0.164673 0
25.545000 0.129646 0
25.550000 0.095789 0
25.555000 0.063712 0
25.560000 0.033893 0
25.565000 0.006671 0
25.570000 -0.017747 0
25.575000 -0.039277 0
25.580000 -0.057941 0
25.585000 -0.073848 0
25.590000 -0.087171 0
25.595000 -0.098134 0
25.600000 -0.106987 0
25.605000 -0.113990 0
25.610000 -0.119405 0
25.615000 -0.123479 0
25.620000 -0.126444 0
25.625000 -0.126098 0
25.630000 -0.125191 0
25.635000 -0.124288 0
25.640000 -0.123389 0
25.645000 -0.122493 0
25.650000 -0.121598 0
25.655000 -0.120700 0
25.660000 -0.119792 0
25.665000 -0.118860 0
25.670000 -0.117881 0
25.675000 -0.116813 0
25.680000 -0.115591 0
25.685000 -0.114106 0
25.690000 -0.112198 0
25.695000 -0.109634 0
25.700000 -0.106092 0
25.705000 -0.101150 0
25.710000 -0.094287 0
25.715000 -0.084908 0
25.720000 -0.072382 0
25.725000 -0.056127 0
25.730000 -0.035712 0
25.735000 -0.010979 0
25.740000 0.017830 0
25.745000 0.049977 0
25.750000 0.084183 0
25.755000 0.118660 0
25.760000 0.151236 0
25.765000 0.179565 0
25.770000 0.201403 0
25.775000 0.214897 0
25.780000 0.218843 1
25.785000 0.212868 0
25.790000 0.197480 0
25.795000 0.174003 0
25.800000 0.144381 0
25.805000 0.110889 0
25.810000 0.075750 0
25.815000 0.040565 0
25.820000 0.005431 0
25.825000 -0.032134 0
25.830000 -0.077275 0
25.835000 -0.134727 0
25.840000 -0.201739 0
25.845000 -0.261031 0
25.850000 -0.280787 2
25.855000 -0.223309 0
25.860000 -0.056903 0
25.865000 0.229372 0
25.870000 0.602043 0
25.875000 0.963733 0
25.880000 1.177060 3
25.885000 1.142449 0
25.890000 0.870288 0
25.895000 0.474526 0
25.900000 0.091598 0
25.905000 -0.188253 0
25.910000 -0.333962 0
25.915000 -0.356623 4
25.920000 -0.293691 0
25.925000 -0.193863 0
25.930000 -0.097572 0
25.935000 -0.023726 0
25.940000 0.028251 0
25.945000 0.067197 0
25.950000 0.101093 0
25.955000 0.134182 0
25.960000 0.167820 0
25.965000 0.201928 0
25.970000 0.235873 0
25.975000 0.268817 0
25.980000 0.299842 0
25.985000 0.328017 0
25.990000 0.352441 0
25.995000 0.372289 0
26.000000 0.386865 0
26.005000 0.395633 0
26.010000 0.398254 5
26.015000 0.394605 0
26.020000 0.384787 0
26.025000 0.369118 0
26.030000 0.348119 0
26.035000 0.322481 0
26.040000 0.293027 0
26.045000 0.260671 0
26.050000 0.226363 0
26.055000 0.191051 0
26.060000 0.155635 0
26.065000 0.120928 0
26.070000 0.087632 0
26.075000 0.056321 0
26.080000 0.027425 0
26.085000 0.001238 0
26.090000 -0.022080 0
26.095000 -0.042488 0
26.100000 -0.060044 0
26.105000 -0.074889 0
26.110000 -0.087222 0
26.115000 -0.097281 0
26.120000 -0.105327 0
26.125000 -0.111627 0
26.130000 -0.116439 0
26.135000 -0.120009 0
26.140000 -0.122058 0
26.145000 -0.121172 0
26.150000 -0.120290 0
26.155000 -0.119411 0
26.160000 -0.118536 0
26.165000 -0.117663 0
26.170000 -0.116789 0
26.175000 -0.115908 0
26.180000 -0.115012 0
26.185000 -0.114080 0
26.190000 -0.113082 0
26.195000 -0.111963 0
26.200000 -0.110635 0
26.205000 -0.108962 0
26.210000 -0.106743 0
26.215000 -0.103693 0
26.220000 -0.099428 0
26.225000 -0.093463 0
26.230000 -0.085221 0
26.235000 -0.074070 0
26.240000 -0.059389 0
26.245000 -0.040664 0
26.250000 -0.017612 0
26.255000 0.009693 0
26.260000 0.040702 0
26.265000 0.074324 0
26.270000 0.108924 0
26.275000 0.142418 0
26.280000 0.172462 0
26.285000 0.196711 0
26.290000 0.213120 0
26.295000 0.220227 1
26.300000 0.217368 0
26.305000 0.204777 0
26.310000 0.183556 0
26.315000 0.155512 0
26.320000 0.122887 0
26.325000 0.087999 0
26.330000 0.052722 0
26.335000 0.017678 0
26.340000 -0.018864 0
26.345000 -0.061547 0
26.350000 -0.115808 0
26.355000 -0.181499 0
26.360000 -0.244983 0
26.365000 -0.276909 2
26.370000 -0.239388 0
26.375000 -0.097898 0
26.380000 0.164730 0
26.385000 0.525947 0
26.390000 0.899850 0
26.395000 1.150111 0
26.400000 1.162489 3
26.405000 0.925850 0
26.410000 0.540920 0
26.415000 0.148215 0
26.420000 -0.150950 0
26.425000 -0.316652 0
26.430000 -0.354939 4
26.435000 -0.300794 0
26.440000 -0.203112 0
26.445000 -0.104946 0
26.450000 -0.028300 0
26.455000 0.025647 0
26.460000 0.065483 0
26.465000 0.099610 0
26.470000 0.132679 0
26.475000 0.166257 0
26.480000 0.200344 0
26.485000 0.234321 0
26.490000 0.267347 0
26.495000 0.298497 0
26.500000 0.326825 0
26.505000 0.351415 0
26.510000 0.371428 0
26.515000 0.386153 0
26.520000 0.395041 0
26.525000 0.397746 5
26.530000 0.394138 0
26.535000 0.384318 0
26.540000 0.368610 0
26.545000 0.347542 0
26.550000 0.321816 0
26.555000 0.292270 0
26.560000 0.259829 0
26.565000 0.225459 0
26.570000 0.190119 0
26.575000 0.154717 0
26.580000 0.120072 0
26.585000 0.086888 0
26.590000 0.055736 0
26.595000 0.027044 0
26.600000 0.001096 0
26.605000 -0.021957 0
26.610000 -0.042081 0
26.615000 -0.059347 0
26.620000 -0.073904 0
26.625000 -0.085958 0
26.630000 -0.095756 0
26.635000 -0.103564 0
26.640000 -0.109650 0
26.645000 -0.114276 0
26.650000 -0.117686 0
26.655000 -0.119625 0
26.660000 -0.118750 0
26.665000 -0.117880 0
26.670000 -0.117014 0
26.675000 -0.116150 0
26.680000 -0.115288 0
26.685000 -0.114424 0
26.690000 -0.113552 0
26.695000 -0.112661 0
26.700000 -0.111729 0
26.705000 -0.110719 0
26.710000 -0.109570 0
26.715000 -0.108183 0
26.720000 -0.106406 0
26.725000 -0.104014 0
26.730000 -0.100694 0
26.735000 -0.096030 0
26.740000 -0.089503 0
26.745000 -0.080508 0
26.750000 -0.068400 0
26.755000 -0.052568 0
26.760000 -0.032549 0
26.765000 -0.008151 0
26.770000 0.020411 0
26.775000 0.052410 0
26.780000 0.086558 0
26.785000 0.121030 0
26.790000 0.153602 0
26.795000 0.181863 0
26.800000 0.203509 0
26.805000 0.216650 0
26.810000 0.220079 1
26.815000 0.213456 0
26.820000 0.197364 0
26.825000 0.173219 0
26.830000 0.143064 0
26.835000 0.109252 0
26.840000 0.074022 0
26.845000 0.038873 0
26.850000 0.003569 0
26.855000 -0.034931 0
26.860000 -0.082185 0
26.865000 -0.142223 0
26.870000 -0.209606 0
26.875000 -0.262984 0
26.880000 -0.267281 2
26.885000 -0.184145 0
26.890000 0.015175 0
26.895000 0.332174 0
26.900000 0.714512 0
26.905000 1.044367 0
26.910000 1.183059 3
26.915000 1.060561 0
26.920000 0.729133 0
26.925000 0.323913 0
26.930000 -0.027432 0
26.935000 -0.256257 0
26.940000 -0.349743 4
26.945000 -0.331643 0
26.950000 -0.247223 0
26.955000 -0.145148 0
26.960000 -0.057988 0
26.965000 0.004923 0
26.970000 0.049550 0
26.975000 0.085274 0
26.980000 0.118455 0
26.985000 0.151770 0
26.990000 0.185710 0
26.995000 0.219828 0
27.000000 0.253339 0
27.005000 0.285331 0
27.010000 0.314850 0
27.015000 0.340952 0
27.020000 0.362754 0
27.025000 0.379485 0
27.030000 0.390525 0
27.035000 0.395449 5
27.040000 0.394045 0
27.045000 0.386335 0
27.050000 0.372570 0
27.055000 0.353216 0
27.060000 0.328931 0
27.065000 0.300520 0
27.070000 0.268895 0
27.075000 0.235025 0
27.080000 0.199886 0
27.085000 0.164417 0
27.090000 0.129474 0
27.095000 0.095808 0
27.100000 0.064034 0
27.105000 0.034626 0
27.110000 0.007913 0
27.115000 -0.015919 0
27.120000 -0.036805 0
27.125000 -0.054792 0
27.130000 -0.070011 0
27.135000 -0.082658 0
27.140000 -0.092975 0
27.145000 -0.101227 0
27.150000 -0.107686 0
27.155000 -0.112619 0
27.160000 -0.116278 0
27.165000 -0.118892 0
27.170000 -0.118524 0
27.175000 -0.117655 0
27.180000 -0.116790 0
27.185000 -0.115928 0
27.190000 -0.115068 0
27.195000 -0.114206 0
27.200000 -0.113338 0
27.205000 -0.112453 0
27.210000 -0.111531 0
27.215000 -0.110539 0
27.220000 -0.109418 0
27.225000 -0.108076 0
27.230000 -0.106367 0
27.235000 -0.104076 0
27.240000 -0.100900 0
27.245000 -0.096432 0
27.250000 -0.090160 0
27.255000 -0.081481 0
27.260000 -0.069742 0
27.265000 -0.054321 0
27.270000 -0.034726 0
27.275000 -0.010732 0
27.280000 0.017489 0
27.285000 0.049250 0
27.290000 0.083293 0
27.295000 0.117815 0
27.300000 0.150588 0
27.305000 0.179181 0
27.310000 0.201249 0
27.315000 0.214850 0
27.320000 0.218725 1
27.325000 0.212491 0
27.330000 0.196700 0
27.335000 0.172760 0
27.340000 0.142719 0
27.345000 0.108954 0
27.350000 0.073734 0
27.355000 0.038585 0
27.360000 0.003282 0
27.365000 -0.035249 0
27.370000 -0.082626 0
27.375000 -0.142859 0
27.380000 -0.210220 0
27.385000 -0.262777 0
27.390000 -0.264837 2
27.395000 -0.177754 0
27.400000 0.026867 0
27.405000 0.348751 0
27.410000 0.731728 0
27.415000 1.053867 0
27.420000 1.176603 3
27.425000 1.036652 0
27.430000 0.694991 0
27.435000 0.290038 0
27.440000 -0.053214 0
27.445000 -0.270700 0
27.450000 -0.353233 4
27.455000 -0.327153 0
27.460000 -0.239166 0
27.465000 -0.137484 0
27.470000 -0.052669 0
27.475000 0.007945 0
27.480000 0.051214 0
27.485000 0.086436 0
27.490000 0.119566 0
27.495000 0.152970 0
27.500000 0.186979 0
27.505000 0.221083 0
27.510000 0.254467 0
27.515000 0.286206 0
27.520000 0.315336 0
27.525000 0.340912 0
27.530000 0.362059 0
27.535000 0.378017 0
27.540000 0.388191 0
27.545000 0.392181 5
27.550000 0.389810 0
27.555000 0.381136 0
27.560000 0.366447 0
27.565000 0.346245 0
27.570000 0.321220 0
27.575000 0.292204 0
27.580000 0.260129 0
27.585000 0.225975 0
27.590000 0.190722 0
27.595000 0.155301 0
27.600000 0.120559 0
27.605000 0.087225 0
27.610000 0.055894 0
27.615000 0.027013 0
27.620000 0.000884 0
27.625000 -0.022332 0
27.630000 -0.042594 0
27.635000 -0.059967 0
27.640000 -0.074602 0
27.645000 -0.086706 0
27.650000 -0.096530 0
27.655000 -0.104344 0
27.660000 -0.110420 0
27.665000 -0.115026 0
27.670000 -0.118410 0
27.675000 -0.120323 0
27.680000 -0.119445 0
27.685000 -0.118572 0
27.690000 -0.117702 0
27.695000 -0.116834 0
27.700000 -0.115969 0
27.705000 -0.115100 0
27.710000 -0.114224 0
27.715000 -0.113325 0
27.720000 -0.112383 0
27.725000 -0.111357 0
27.730000 -0.110180 0
27.735000 -0.108746 0
27.740000 -0.106891 0
27.745000 -0.104374 0
27.750000 -0.100861 0
27.755000 -0.095912 0
27.760000 -0.088979 0
27.765000 -0.079437 0
27.770000 -0.066627 0
27.775000 -0.049950 0
27.780000 -0.028979 0
27.785000 -0.003599 0
27.790000 0.025863 0
27.795000 0.058535 0
27.800000 0.092965 0
27.805000 0.127180 0
27.810000 0.158839 0
27.815000 0.185489 0
27.820000 0.204871 0
27.825000 0.215237 0
27.830000 0.215606 1
27.835000 0.205918 0
27.840000 0.187050 0
27.845000 0.160677 0
27.850000 0.129022 0
27.855000 0.094494 0
27.860000 0.059198 0
27.865000 0.024157 0
27.870000 -0.011819 0
27.875000 -0.052977 0
27.880000 -0.105114 0
27.885000 -0.169578 0
27.890000 -0.234706 0
27.895000 -0.272149 2
27.900000 -0.243286 0
27.905000 -0.111618 0
27.910000 0.142740 0
27.915000 0.500172 0
27.920000 0.875777 0
27.925000 1.130152 0
27.930000 1.144261 3
27.935000 0.906202 0
27.940000 0.520161 0
27.945000 0.129070 0
27.950000 -0.165463 0
27.955000 -0.324773 0
27.960000 -0.356696 4
27.965000 -0.298116 0
27.970000 -0.199101 0
27.975000 -0.102260 0
27.980000 -0.027965 0
27.985000 0.024063 0
27.990000 0.062911 0
27.995000 0.096767 0
28.000000 0.129900 0
28.005000 0.163612 0
28.010000 0.197769 0
28.015000 0.231690 0
28.020000 0.264499 0
28.025000 0.295242 0
28.030000 0.322957 0
28.035000 0.346721 0
28.040000 0.365704 0
28.045000 0.379209 0
28.050000 0.386722 0
28.055000 0.387939 5
28.060000 0.382786 0
28.065000 0.371422 0
28.070000 0.354236 0
28.075000 0.331816 0
28.080000 0.304924 0
28.085000 0.274443 0
28.090000 0.241336 0
28.095000 0.206589 0
28.100000 0.171168 0
28.105000 0.135972 0
28.110000 0.101800 0
28.115000 0.069324 0
28.120000 0.039072 0
28.125000 0.011428 0
28.130000 -0.013373 0
28.135000 -0.035224 0
28.140000 -0.054137 0
28.145000 -0.070219 0
28.150000 -0.083649 0
28.155000 -0.094657 0
28.160000 -0.103506 0
28.165000 -0.110468 0
28.170000 -0.115817 0
28.175000 -0.119812 0
28.180000 -0.122692 0
28.185000 -0.122347 0
28.190000 -0.121459 0
28.195000 -0.120575 0
28.200000 -0.119694 0
28.205000 -0.118816 0
28.210000 -0.117938 0
28.215000 -0.117055 0
28.220000 -0.116158 0
28.225000 -0.115231 0
28.230000 -0.114244 0
28.235000 -0.113145 0
28.240000 -0.111850 0
28.245000 -0.110229 0
28.250000 -0.108081 0
28.255000 -0.105125 0
28.260000 -0.100973 0
28.265000 -0.095134 0
28.270000 -0.087016 0
28.275000 -0.075967 0
28.280000 -0.061344 0
28.285000 -0.042614 0
28.290000 -0.019483 0
28.295000 0.007966 0
28.300000 0.039148 0
28.305000 0.072905 0
28.310000 0.107516 0
28.315000 0.140796 0
28.320000 0.170310 0
28.325000 0.193656 0
28.330000 0.208783 0
28.335000 0.214292 1
28.340000 0.209646 0
28.345000 0.195256 0
28.350000 0.172422 0
28.355000 0.143134 0
28.360000 0.109762 0
28.365000 0.074644 0
28.370000 0.039467 0
28.375000 0.004302 0
28.380000 -0.033556 0
28.385000 -0.079588 0
