0.000000 1.144253 3
0.005000 1.050715 0
0.010000 0.813157 0
0.015000 0.498056 0
0.020000 0.179793 0
0.025000 -0.085911 0
0.030000 -0.270587 0
0.035000 -0.368423 0
0.040000 -0.389267 4
0.045000 -0.353644 0
0.050000 -0.287526 0
0.055000 -0.215238 0
0.060000 -0.153086 0
0.065000 -0.107184 0
0.070000 -0.075901 0
0.075000 -0.054233 0
0.080000 -0.037259 0
0.085000 -0.021607 0
0.090000 -0.005451 0
0.095000 0.012018 0
0.100000 0.031090 0
0.105000 0.051814 0
0.110000 0.074126 0
0.115000 0.097887 0
0.120000 0.122899 0
0.125000 0.148899 0
0.130000 0.175571 0
0.135000 0.202543 0
0.140000 0.229397 0
0.145000 0.255675 0
0.150000 0.280898 0
0.155000 0.304572 0
0.160000 0.326207 0
0.165000 0.345335 0
0.170000 0.361523 0
0.175000 0.374392 0
0.180000 0.383630 0
0.185000 0.389005 0
0.190000 0.390372 5
0.195000 0.387683 0
0.200000 0.380986 0
0.205000 0.370427 0
0.210000 0.356239 0
0.215000 0.338737 0
0.220000 0.318308 0
0.225000 0.295390 0
0.230000 0.270464 0
0.235000 0.244031 0
0.240000 0.216597 0
0.245000 0.188661 0
0.250000 0.160695 0
0.255000 0.133132 0
0.260000 0.106361 0
0.265000 0.080714 0
0.270000 0.056465 0
0.275000 0.033826 0
0.280000 0.012948 0
0.285000 -0.006074 0
0.290000 -0.023201 0
0.295000 -0.038439 0
0.300000 -0.051834 0
0.305000 -0.063467 0
0.310000 -0.073444 0
0.315000 -0.081887 0
0.320000 -0.088933 0
0.325000 -0.094723 0
0.330000 -0.099399 0
0.335000 -0.103099 0
0.340000 -0.105954 0
0.345000 -0.108089 0
0.350000 -0.109614 0
0.355000 -0.110629 0
0.360000 -0.111225 0
0.365000 -0.111476 0
0.370000 -0.111451 0
0.375000 -0.111204 0
0.380000 -0.110782 0
0.385000 -0.109871 0
0.390000 -0.108883 0
0.395000 -0.107899 0
0.400000 -0.106920 0
0.405000 -0.105946 0
0.410000 -0.104977 0
0.415000 -0.104012 0
0.420000 -0.103053 0
0.425000 -0.102098 0
0.430000 -0.101148 0
0.435000 -0.100202 0
0.440000 -0.099262 0
0.445000 -0.098326 0
0.450000 -0.097394 0
0.455000 -0.096467 0
0.460000 -0.095543 0
0.465000 -0.094623 0
0.470000 -0.093705 0
0.475000 -0.092786 0
0.480000 -0.091864 0
0.485000 -0.090932 0
0.490000 -0.089981 0
0.495000 -0.088994 0
0.500000 -0.087949 0
0.505000 -0.086808 0
0.510000 -0.085520 0
0.515000 -0.084008 0
0.520000 -0.082170 0
0.525000 -0.079866 0
0.530000 -0.076918 0
0.535000 -0.073102 0
0.540000 -0.068151 0
0.545000 -0.061757 0
0.550000 -0.053591 0
0.555000 -0.043317 0
0.560000 -0.030625 0
0.565000 -0.015275 0
0.570000 0.002867 0
0.575000 0.023772 0
0.580000 0.047216 0
0.585000 0.072745 0
0.590000 0.099663 0
0.595000 0.127045 0
0.600000 0.153782 0
0.605000 0.178640 0
0.610000 0.200360 0
0.615000 0.217755 0
0.620000 0.229820 0
0.625000 0.235830 1
0.630000 0.235407 0
0.635000 0.228565 0
0.640000 0.215706 0
0.645000 0.197582 0
0.650000 0.175224 0
0.655000 0.149842 0
0.660000 0.122718 0
0.665000 0.095099 0
0.670000 0.068092 0
0.675000 0.042560 0
0.680000 0.018982 0
0.685000 -0.002778 0
0.690000 -0.023795 0
0.695000 -0.046393 0
0.700000 -0.073962 0
0.705000 -0.109714 0
0.710000 -0.154103 0
0.715000 -0.201832 0
0.720000 -0.240326 0
0.725000 -0.251152 2
0.730000 -0.213819 0
0.735000 -0.110153 0
0.740000 0.070865 0
0.745000 0.325585 0
0.750000 0.625670 0
0.755000 0.913348 0
0.760000 1.113289 0
0.765000 1.162495 3
0.770000 1.040090 0
0.775000 0.781664 0
0.780000 0.460032 0
0.785000 0.149615 0
0.790000 -0.098274 0
0.795000 -0.260544 0
0.800000 -0.335949 0
0.805000 -0.338126 4
0.810000 -0.290542 0
0.815000 -0.220296 0
0.820000 -0.150376 0
0.825000 -0.094019 0
0.830000 -0.054238 0
0.835000 -0.027537 0
0.840000 -0.008482 0
0.845000 0.007434 0
0.850000 0.022969 0
0.855000 0.039478 0
0.860000 0.057502 0
0.865000 0.077202 0
0.870000 0.098562 0
0.875000 0.121474 0
0.880000 0.145763 0
0.885000 0.171187 0
0.890000 0.197446 0
0.895000 0.224177 0
0.900000 0.250968 0
0.905000 0.277362 0
0.910000 0.302870 0
0.915000 0.326985 0
0.920000 0.349197 0
0.925000 0.369015 0
0.930000 0.385976 0
0.935000 0.399671 0
0.940000 0.409757 0
0.945000 0.415969 0
0.950000 0.418136 5
0.955000 0.416184 0
0.960000 0.410141 0
0.965000 0.400137 0
0.970000 0.386396 0
0.975000 0.369232 0
0.980000 0.349031 0
0.985000 0.326241 0
0.990000 0.301354 0
0.995000 0.274886 0
1.000000 0.247361 0
1.005000 0.219293 0
1.010000 0.191173 0
1.015000 0.163450 0
1.020000 0.136526 0
1.025000 0.110745 0
1.030000 0.086389 0
1.035000 0.063675 0
1.040000 0.042757 0
1.045000 0.023728 0
1.050000 0.006626 0
1.055000 -0.008559 0
1.060000 -0.021881 0
1.065000 -0.033424 0
1.070000 -0.043303 0
1.075000 -0.051645 0
1.080000 -0.058594 0
1.085000 -0.064295 0
1.090000 -0.068895 0
1.095000 -0.072534 0
1.100000 -0.075348 0
1.105000 -0.077459 0
1.110000 -0.078980 0
1.115000 -0.080011 0
1.120000 -0.080640 0
1.125000 -0.080944 0
1.130000 -0.080985 0
1.135000 -0.080819 0
1.140000 -0.080490 0
1.145000 -0.079722 0
1.150000 -0.078884 0
1.155000 -0.078050 0
1.160000 -0.077220 0
1.165000 -0.076394 0
1.170000 -0.075572 0
1.175000 -0.074754 0
1.180000 -0.073940 0
1.185000 -0.073131 0
1.190000 -0.072325 0
1.195000 -0.071524 0
1.200000 -0.070726 0
1.205000 -0.069932 0
1.210000 -0.069142 0
1.215000 -0.068355 0
1.220000 -0.067571 0
1.225000 -0.066789 0
1.230000 -0.066006 0
1.235000 -0.065221 0
1.240000 -0.064426 0
1.245000 -0.063615 0
1.250000 -0.062771 0
1.255000 -0.061874 0
1.260000 -0.060889 0
1.265000 -0.059765 0
1.270000 -0.058430 0
1.275000 -0.056783 0
1.280000 -0.054687 0
1.285000 -0.051963 0
1.290000 -0.048386 0
1.295000 -0.043685 0
1.300000 -0.037547 0
1.305000 -0.029632 0
1.310000 -0.019591 0
1.315000 -0.007105 0
1.320000 0.008081 0
1.325000 0.026103 0
1.330000 0.046936 0
1.335000 0.070344 0
1.340000 0.095848 0
1.345000 0.122718 0
1.350000 0.149986 0
1.355000 0.176492 0
1.360000 0.200955 0
1.365000 0.222076 0
1.370000 0.238648 0
1.375000 0.249670 0
1.380000 0.254446 1
1.385000 0.252658 0
1.390000 0.244399 0
1.395000 0.230165 0
1.400000 0.210806 0
1.405000 0.187442 0
1.410000 0.161352 0
1.415000 0.133861 0
1.420000 0.106227 0
1.425000 0.079524 0
1.430000 0.054535 0
1.435000 0.031565 0
1.440000 0.010168 0
1.445000 -0.011232 0
1.450000 -0.035536 0
1.455000 -0.066403 0
1.460000 -0.106311 0
1.465000 -0.153429 0
1.470000 -0.198857 0
1.475000 -0.226364 2
1.480000 -0.215308 0
1.485000 -0.145195 0
1.490000 -0.000408 0
1.495000 0.223411 0
1.500000 0.509440 0
1.505000 0.810678 0
1.510000 1.053964 0
1.515000 1.165006 3
1.520000 1.104953 0
1.525000 0.891246 0
1.530000 0.585075 0
1.535000 0.262180 0
1.540000 -0.016602 0
1.545000 -0.217578 0
1.550000 -0.331221 0
1.555000 -0.364946 4
1.560000 -0.337760 0
1.565000 -0.275257 0
1.570000 -0.202716 0
1.575000 -0.138232 0
1.580000 -0.089647 0
1.585000 -0.056347 0
1.590000 -0.033581 0
1.595000 -0.016238 0
1.600000 -0.000648 0
1.605000 0.015238 0
1.610000 0.032360 0
1.615000 0.051065 0
1.620000 0.071428 0
1.625000 0.093399 0
1.630000 0.116849 0
1.635000 0.141584 0
1.640000 0.167353 0
1.645000 0.193843 0
1.650000 0.220689 0
1.655000 0.247475 0
1.660000 0.273748 0
1.665000 0.299027 0
1.670000 0.322816 0
1.675000 0.344623 0
1.680000 0.363972 0
1.685000 0.380425 0
1.690000 0.393592 0
1.695000 0.403152 0
1.700000 0.408861 0
1.705000 0.410564 5
1.710000 0.408203 0
1.715000 0.401816 0
1.720000 0.391537 0
1.725000 0.377594 0
1.730000 0.360295 0
1.735000 0.340023 0
1.740000 0.317214 0
1.745000 0.292347 0
1.750000 0.265925 0
1.755000 0.238459 0
1.760000 0.210448 0
1.765000 0.182369 0
1.770000 0.154664 0
1.775000 0.127726 0
1.780000 0.101892 0
1.785000 0.077442 0
1.790000 0.054594 0
1.795000 0.033504 0
1.800000 0.014269 0
1.805000 -0.003065 0
1.810000 -0.018505 0
1.815000 -0.032093 0
1.820000 -0.043910 0
1.825000 -0.054060 0
1.830000 -0.062666 0
1.835000 -0.069865 0
1.840000 -0.075799 0
1.845000 -0.080609 0
1.850000 -0.084435 0
1.855000 -0.087410 0
1.860000 -0.089658 0
1.865000 -0.091291 0
1.870000 -0.092410 0
1.875000 -0.093106 0
1.880000 -0.093454 0
1.885000 -0.093524 0
1.890000 -0.093369 0
1.895000 -0.093039 0
1.900000 -0.092217 0
1.905000 -0.091316 0
1.910000 -0.090420 0
1.915000 -0.089528 0
1.920000 -0.088641 0
1.925000 -0.087758 0
1.930000 -0.086880 0
1.935000 -0.086005 0
1.940000 -0.085136 0
1.945000 -0.084270 0
1.950000 -0.083409 0
1.955000 -0.082552 0
1.960000 -0.081699 0
1.965000 -0.080851 0
1.970000 -0.080006 0
1.975000 -0.079165 0
1.980000 -0.078326 0
1.985000 -0.077489 0
1.990000 -0.076651 0
1.995000 -0.075809 0
2.000000 -0.074956 0
2.005000 -0.074083 0
2.010000 -0.073174 0
2.015000 -0.072204 0
2.020000 -0.071136 0
2.025000 -0.069916 0
2.030000 -0.068468 0
2.035000 -0.066685 0
2.040000 -0.064427 0
2.045000 -0.061510 0
2.050000 -0.057708 0
2.055000 -0.052748 0
2.060000 -0.046322 0
2.065000 -0.038095 0
2.070000 -0.027731 0
2.075000 -0.014923 0
2.080000 0.000566 0
2.085000 0.018856 0
2.090000 0.039908 0
2.095000 0.063478 0
2.100000 0.089087 0
2.105000 0.116016 0
2.110000 0.143319 0
2.115000 0.169864 0
2.120000 0.194407 0
2.125000 0.215683 0
2.130000 0.232513 0
2.135000 0.243912 0
2.140000 0.249184 1
2.145000 0.247990 0
2.150000 0.240388 0
2.155000 0.226822 0
2.160000 0.208086 0
2.165000 0.185239 0
2.170000 0.159514 0
2.175000 0.132199 0
2.180000 0.104535 0
2.185000 0.077612 0
2.190000 0.052254 0
2.195000 0.028878 0
2.200000 0.007243 0
2.205000 -0.013890 0
2.210000 -0.037032 0
2.215000 -0.065672 0
2.220000 -0.102823 0
2.225000 -0.148276 0
2.230000 -0.195656 0
2.235000 -0.231274 0
2.240000 -0.236010 2
2.245000 -0.189349 0
2.250000 -0.073807 0
2.255000 0.119932 0
2.260000 0.384837 0
2.265000 0.687546 0
2.270000 0.965647 0
2.275000 1.143106 0
2.280000 1.162312 3
2.285000 1.013472 0
2.290000 0.739927 0
2.295000 0.415599 0
2.300000 0.111238 0
2.305000 -0.126692 0
2.310000 -0.278693 0
2.315000 -0.345536 4
2.320000 -0.341834 0
2.325000 -0.291236 0
2.330000 -0.220273 0
2.335000 -0.150912 0
2.340000 -0.095437 0
2.345000 -0.056323 0
2.350000 -0.029962 0
2.355000 -0.011018 0
2.360000 0.004889 0
2.365000 0.020439 0
2.370000 0.036950 0
2.375000 0.054960 0
2.380000 0.074625 0
2.385000 0.095935 0
2.390000 0.118787 0
2.395000 0.143010 0
2.400000 0.168373 0
2.405000 0.194584 0
2.410000 0.221293 0
2.415000 0.248100 0
2.420000 0.274560 0
2.425000 0.300196 0
2.430000 0.324515 0
2.435000 0.347015 0
2.440000 0.367211 0
2.445000 0.384645 0
2.450000 0.398907 0
2.455000 0.409649 0
2.460000 0.416597 0
2.465000 0.419565 5
2.470000 0.418463 0
2.475000 0.413297 0
2.480000 0.404172 0
2.485000 0.391289 0
2.490000 0.374934 0
2.495000 0.355472 0
2.500000 0.333326 0
2.505000 0.308969 0
2.510000 0.282902 0
2.515000 0.255637 0
2.520000 0.227684 0
2.525000 0.199532 0
2.530000 0.171636 0
2.535000 0.144405 0
2.540000 0.118197 0
2.545000 0.093309 0
2.550000 0.069976 0
2.555000 0.048373 0
2.560000 0.028612 0
2.565000 0.010752 0
2.570000 -0.005201 0
2.575000 -0.019281 0
2.580000 -0.031562 0
2.585000 -0.042143 0
2.590000 -0.051144 0
2.595000 -0.058700 0
2.600000 -0.064953 0
2.605000 -0.070047 0
2.610000 -0.074123 0
2.615000 -0.077317 0
2.620000 -0.079755 0
2.625000 -0.081554 0
2.630000 -0.082816 0
2.635000 -0.083636 0
2.640000 -0.084094 0
2.645000 -0.084258 0
2.650000 -0.084188 0
2.655000 -0.083933 0
2.660000 -0.083466 0
2.665000 -0.082609 0
2.670000 -0.081756 0
2.675000 -0.080908 0
2.680000 -0.080064 0
2.685000 -0.079223 0
2.690000 -0.078387 0
2.695000 -0.077556 0
2.700000 -0.076728 0
2.705000 -0.075905 0
2.710000 -0.075085 0
2.715000 -0.074270 0
2.720000 -0.073458 0
2.725000 -0.072651 0
2.730000 -0.071847 0
2.735000 -0.071046 0
2.740000 -0.070248 0
2.745000 -0.069452 0
2.750000 -0.068655 0
2.755000 -0.067854 0
2.760000 -0.067043 0
2.765000 -0.066213 0
2.770000 -0.065348 0
2.775000 -0.064424 0
2.780000 -0.063406 0
2.785000 -0.062241 0
2.790000 -0.060855 0
2.795000 -0.059142 0
2.800000 -0.056964 0
2.805000 -0.054141 0
2.810000 -0.050446 0
2.815000 -0.045608 0
2.820000 -0.039319 0
2.825000 -0.031243 0
2.830000 -0.021039 0
2.835000 -0.008398 0
2.840000 0.006926 0
2.845000 0.025060 0
2.850000 0.045971 0
2.855000 0.069423 0
2.860000 0.094943 0
2.865000 0.121814 0
2.870000 0.149088 0
2.875000 0.175629 0
2.880000 0.200186 0
2.885000 0.221483 0
2.890000 0.238332 0
2.895000 0.249737 0
2.900000 0.254995 1
2.905000 0.253765 0
2.910000 0.246102 0
2.915000 0.232460 0
2.920000 0.213636 0
2.925000 0.190705 0
2.930000 0.164906 0
2.935000 0.137539 0
2.940000 0.109852 0
2.945000 0.082936 0
2.950000 0.057612 0
2.955000 0.034280 0
2.960000 0.012668 0
2.965000 -0.008525 0
2.970000 -0.031885 0
2.975000 -0.060950 0
2.980000 -0.098657 0
2.985000 -0.144513 0
2.990000 -0.191652 0
2.995000 -0.225847 0
3.000000 -0.227603 2
3.005000 -0.176328 0
3.010000 -0.054826 0
3.015000 0.145330 0
3.020000 0.415218 0
3.025000 0.718604 0
3.030000 0.990441 0
3.035000 1.154382 0
3.040000 1.156076 3
3.045000 0.991494 0
3.050000 0.708961 0
3.055000 0.383712 0
3.060000 0.084726 0
3.065000 -0.144462 0
3.070000 -0.286876 0
3.075000 -0.345062 4
3.080000 -0.334892 0
3.085000 -0.280730 0
3.090000 -0.209016 0
3.095000 -0.140837 0
3.100000 -0.087291 0
3.105000 -0.049927 0
3.110000 -0.024723 0
3.115000 -0.006348 0
3.120000 0.009395 0
3.125000 0.024998 0
3.130000 0.041660 0
3.135000 0.059856 0
3.140000 0.079714 0
3.145000 0.101211 0
3.150000 0.124233 0
3.155000 0.148603 0
3.160000 0.174080 0
3.165000 0.200364 0
3.170000 0.227098 0
3.175000 0.253874 0
3.180000 0.280242 0
3.185000 0.305721 0
3.190000 0.329813 0
3.195000 0.352019 0
3.200000 0.371854 0
3.205000 0.388866 0
3.210000 0.402650 0
3.215000 0.412867 0
3.220000 0.419255 0
3.225000 0.421642 5
3.230000 0.419947 0
3.235000 0.414194 0
3.240000 0.404502 0
3.245000 0.391083 0
3.250000 0.374238 0
3.255000 0.354341 0
3.260000 0.331826 0
3.265000 0.307170 0
3.270000 0.280879 0
3.275000 0.253467 0
3.280000 0.225443 0
3.285000 0.197291 0
3.290000 0.169462 0
3.295000 0.142358 0
3.300000 0.116328 0
3.305000 0.091662 0
3.310000 0.068584 0
3.315000 0.047259 0
3.320000 0.027792 0
3.325000 0.010231 0
3.330000 -0.005423 0
3.335000 -0.019213 0
3.340000 -0.031216 0
3.345000 -0.041535 0
3.350000 -0.050295 0
3.355000 -0.057633 0
3.360000 -0.063690 0
3.365000 -0.068611 0
3.370000 -0.072537 0
3.375000 -0.075603 0
3.380000 -0.077932 0
3.385000 -0.079640 0
3.390000 -0.080830 0
3.395000 -0.081591 0
3.400000 -0.082002 0
3.405000 -0.082131 0
3.410000 -0.082035 0
3.415000 -0.081761 0
3.420000 -0.080996 0
3.425000 -0.080151 0
3.430000 -0.079310 0
3.435000 -0.078474 0
3.440000 -0.077642 0
3.445000 -0.076814 0
3.450000 -0.075990 0
3.455000 -0.075170 0
3.460000 -0.074354 0
3.465000 -0.073543 0
3.470000 -0.072735 0
3.475000 -0.071931 0
3.480000 -0.071132 0
3.485000 -0.070336 0
3.490000 -0.069543 0
3.495000 -0.068754 0
3.500000 -0.067967 0
3.505000 -0.067181 0
3.510000 -0.066394 0
3.515000 -0.065602 0
3.520000 -0.064799 0
3.525000 -0.063973 0
3.530000 -0.063109 0
3.535000 -0.062179 0
3.540000 -0.061146 0
3.545000 -0.059952 0
3.550000 -0.058517 0
3.555000 -0.056729 0
3.560000 -0.054441 0
3.565000 -0.051462 0
3.570000 -0.047557 0
3.575000 -0.042444 0
3.580000 -0.035808 0
3.585000 -0.027307 0
3.590000 -0.016606 0
3.595000 -0.003403 0
3.600000 0.012524 0
3.605000 0.031273 0
3.610000 0.052768 0
3.615000 0.076723 0
3.620000 0.102608 0
3.625000 0.129652 0
3.630000 0.156857 0
3.635000 0.183051 0
3.640000 0.206965 0
3.645000 0.227332 0
3.650000 0.242996 0
3.655000 0.253019 0
3.660000 0.256775 1
3.665000 0.254012 0
3.670000 0.244883 0
3.675000 0.229926 0
3.680000 0.210017 0
3.685000 0.186278 0
3.690000 0.159978 0
3.695000 0.132418 0
3.700000 0.104818 0
3.705000 0.078216 0
3.710000 0.053353 0
3.715000 0.030492 0
3.720000 0.009142 0
3.725000 -0.012304 0
3.730000 -0.036742 0
3.735000 -0.067767 0
3.740000 -0.107770 0
3.745000 -0.154895 0
3.750000 -0.200389 0
3.755000 -0.228353 2
3.760000 -0.218544 0
3.765000 -0.150767 0
3.770000 -0.009428 0
3.775000 0.210435 0
3.780000 0.493683 0
3.785000 0.796060 0
3.790000 1.046914 0
3.795000 1.172007 3
3.800000 1.129130 0
3.805000 0.930298 0
3.810000 0.631503 0
3.815000 0.306651 0
3.820000 0.018223 0
3.825000 -0.196872 0
3.830000 -0.325975 0
3.835000 -0.373822 4
3.840000 -0.357111 0
3.845000 -0.299964 0
3.850000 -0.227724 0
3.855000 -0.160098 0
3.860000 -0.107164 0
3.865000 -0.070073 0
3.870000 -0.044847 0
3.875000 -0.026332 0
3.880000 -0.010464 0
3.885000 0.005205 0
3.890000 0.021874 0
3.895000 0.040028 0
3.900000 0.059811 0
3.905000 0.081207 0
3.910000 0.104118 0
3.915000 0.128379 0
3.920000 0.153767 0
3.925000 0.180002 0
3.930000 0.206750 0
3.935000 0.233626 0
3.940000 0.260205 0
3.945000 0.286029 0
3.950000 0.310621 0
3.955000 0.333497 0
3.960000 0.354184 0
3.965000 0.372234 0
3.970000 0.387241 0
3.975000 0.398853 0
3.980000 0.406791 0
3.985000 0.410853 0
3.990000 0.410925 5
3.995000 0.406990 0
4.000000 0.399122 0
4.005000 0.387486 0
4.010000 0.372333 0
4.015000 0.353992 0
4.020000 0.332853 0
4.025000 0.309358 0
4.030000 0.283981 0
4.035000 0.257217 0
4.040000 0.229562 0
4.045000 0.201498 0
4.050000 0.173482 0
4.055000 0.145932 0
4.060000 0.119219 0
4.065000 0.093662 0
4.070000 0.069520 0
4.075000 0.046992 0
4.080000 0.026221 0
4.085000 0.007294 0
4.090000 -0.009756 0
4.095000 -0.024938 0
4.100000 -0.038300 0
4.105000 -0.049923 0
4.110000 -0.059910 0
4.115000 -0.068384 0
4.120000 -0.075478 0
4.125000 -0.081330 0
4.130000 -0.086079 0
4.135000 -0.089860 0
4.140000 -0.092803 0
4.145000 -0.095028 0
4.150000 -0.096645 0
4.155000 -0.097752 0
4.160000 -0.098438 0
4.165000 -0.098779 0
4.170000 -0.098840 0
4.175000 -0.098676 0
4.180000 -0.098334 0
4.185000 -0.097788 0
4.190000 -0.096860 0
4.195000 -0.095936 0
4.200000 -0.095017 0
4.205000 -0.094102 0
4.210000 -0.093192 0
4.215000 -0.092286 0
4.220000 -0.091385 0
4.225000 -0.090488 0
4.230000 -0.089596 0
4.235000 -0.088709 0
4.240000 -0.087825 0
4.245000 -0.086946 0
4.250000 -0.086071 0
4.255000 -0.085201 0
4.260000 -0.084334 0
4.265000 -0.083470 0
4.270000 -0.082608 0
4.275000 -0.081747 0
4.280000 -0.080883 0
4.285000 -0.080012 0
4.290000 -0.079124 0
4.295000 -0.078209 0
4.300000 -0.077244 0
4.305000 -0.076200 0
4.310000 -0.075033 0
4.315000 -0.073677 0
4.320000 -0.072043 0
4.325000 -0.070011 0
4.330000 -0.067422 0
4.335000 -0.064077 0
4.340000 -0.059733 0
4.345000 -0.054107 0
4.350000 -0.046884 0
4.355000 -0.037733 0
4.360000 -0.026337 0
4.365000 -0.012420 0
4.370000 0.004207 0
4.375000 0.023604 0
4.380000 0.045659 0
4.385000 0.070050 0
4.390000 0.096227 0
4.395000 0.123409 0
4.400000 0.150606 0
4.405000 0.176672 0
4.410000 0.200378 0
4.415000 0.220507 0
4.420000 0.235953 0
4.425000 0.245825 0
4.430000 0.249529 1
4.435000 0.246830 0
4.440000 0.237872 0
4.445000 0.223169 0
4.450000 0.203553 0
4.455000 0.180099 0
4.460000 0.154023 0
4.465000 0.126583 0
4.470000 0.098970 0
4.475000 0.072215 0
4.480000 0.047083 0
4.485000 0.023920 0
4.490000 0.002413 0
4.495000 -0.018749 0
4.500000 -0.042099 0
4.505000 -0.071070 0
4.510000 -0.108521 0
4.515000 -0.154093 0
4.520000 -0.201429 0
4.525000 -0.237131 0
4.530000 -0.242585 2
4.535000 -0.197784 0
4.540000 -0.085533 0
4.545000 0.103750 0
4.550000 0.364429 0
4.555000 0.666061 0
4.560000 0.949888 0
4.565000 1.141840 0
4.570000 1.182083 3
4.575000 1.053711 0
4.580000 0.792364 0
4.585000 0.470174 0
4.590000 0.160059 0
4.595000 -0.087830 0
4.600000 -0.250849 0
4.605000 -0.327653 0
4.610000 -0.331454 4
4.615000 -0.285142 0
4.620000 -0.215365 0
4.625000 -0.145041 0
4.630000 -0.087731 0
4.635000 -0.046916 0
4.640000 -0.019442 0
4.645000 0.000021 0
4.650000 0.016039 0
4.655000 0.031480 0
4.660000 0.047788 0
4.665000 0.065563 0
4.670000 0.084989 0
4.675000 0.106069 0
4.680000 0.128707 0
4.685000 0.152739 0
4.690000 0.177939 0
4.695000 0.204021 0
4.700000 0.230638 0
4.705000 0.257394 0
4.710000 0.283848 0
4.715000 0.309524 0
4.720000 0.333927 0
4.725000 0.356555 0
4.730000 0.376920 0
4.735000 0.394559 0
4.740000 0.409055 0
4.745000 0.420054 0
4.750000 0.427276 0
4.755000 0.430524 5
4.760000 0.429701 0
4.765000 0.424804 0
4.770000 0.415932 0
4.775000 0.403278 0
4.780000 0.387123 0
4.785000 0.367826 0
4.790000 0.345809 0
4.795000 0.321542 0
4.800000 0.295526 0
4.805000 0.268275 0
4.810000 0.240300 0
4.815000 0.212093 0
4.820000 0.184113 0
4.825000 0.156775 0
4.830000 0.130439 0
4.835000 0.105408 0
4.840000 0.081923 0
4.845000 0.060160 0
4.850000 0.040238 0
4.855000 0.022216 0
4.860000 0.006106 0
4.865000 -0.008127 0
4.870000 -0.020552 0
4.875000 -0.031270 0
4.880000 -0.040399 0
4.885000 -0.048074 0
4.890000 -0.054437 0
4.895000 -0.059632 0
4.900000 -0.063802 0
4.905000 -0.067083 0
4.910000 -0.069601 0
4.915000 -0.071473 0
4.920000 -0.072806 0
4.925000 -0.073691 0
4.930000 -0.074210 0
4.935000 -0.074433 0
4.940000 -0.074419 0
4.945000 -0.074218 0
4.950000 -0.073803 0
4.955000 -0.072995 0
4.960000 -0.072190 0
4.965000 -0.071389 0
4.970000 -0.070592 0
4.975000 -0.069799 0
4.980000 -0.069010 0
4.985000 -0.068225 0
4.990000 -0.067444 0
4.995000 -0.066667 0
5.000000 -0.065893 0
5.005000 -0.065124 0
5.010000 -0.064358 0
5.015000 -0.063596 0
5.020000 -0.062837 0
5.025000 -0.062082 0
5.030000 -0.061329 0
5.035000 -0.060577 0
5.040000 -0.059824 0
5.045000 -0.059067 0
5.050000 -0.058300 0
5.055000 -0.057513 0
5.060000 -0.056692 0
5.065000 -0.055811 0
5.070000 -0.054836 0
5.075000 -0.053714 0
5.080000 -0.052369 0
5.085000 -0.050698 0
5.090000 -0.048559 0
5.095000 -0.045772 0
5.100000 -0.042111 0
5.105000 -0.037303 0
5.110000 -0.031039 0
5.115000 -0.022980 0
5.120000 -0.012787 0
5.125000 -0.000148 0
5.130000 0.015179 0
5.135000 0.033321 0
5.140000 0.054242 0
5.145000 0.077701 0
5.150000 0.103218 0
5.155000 0.130071 0
5.160000 0.157303 0
5.165000 0.183773 0
5.170000 0.208223 0
5.175000 0.229376 0
5.180000 0.246043 0
5.185000 0.257235 0
5.190000 0.262256 1
5.195000 0.260775 0
5.200000 0.252863 0
5.205000 0.238986 0
5.210000 0.219955 0
5.215000 0.196856 0
5.220000 0.170935 0
5.225000 0.143496 0
5.230000 0.115786 0
5.235000 0.088888 0
5.240000 0.063613 0
5.245000 0.040338 0
5.250000 0.018748 0
5.255000 -0.002515 0
5.260000 -0.026109 0
5.265000 -0.055596 0
5.270000 -0.093825 0
5.275000 -0.140026 0
5.280000 -0.186920 0
5.285000 -0.219865 2
5.290000 -0.219135 0
5.295000 -0.164159 0
5.300000 -0.038046 0
5.305000 0.166880 0
5.310000 0.440246 0
5.315000 0.743781 0
5.320000 1.010783 0
5.325000 1.165058 3
5.330000 1.154758 0
5.335000 0.979697 0
5.340000 0.691436 0
5.345000 0.365995 0
5.350000 0.071072 0
5.355000 -0.151813 0
5.360000 -0.287403 0
5.365000 -0.339478 4
5.370000 -0.324813 0
5.375000 -0.268275 0
5.380000 -0.196206 0
5.385000 -0.129025 0
5.390000 -0.076962 0
5.395000 -0.040904 0
5.400000 -0.016552 0
5.405000 0.001407 0
5.410000 0.017026 0
5.415000 0.032661 0
5.420000 0.049426 0
5.425000 0.067749 0
5.430000 0.087741 0
5.435000 0.109365 0
5.440000 0.132503 0
5.445000 0.156968 0
5.450000 0.182515 0
5.455000 0.208836 0
5.460000 0.235566 0
5.465000 0.262292 0
5.470000 0.288559 0
5.475000 0.313882 0
5.480000 0.337761 0
5.485000 0.359695 0
5.490000 0.379202 0
5.495000 0.395832 0
5.500000 0.409187 0
5.505000 0.418935 0
5.510000 0.424823 0
5.515000 0.426688 5
5.520000 0.424465 0
5.525000 0.418187 0
5.530000 0.407986 0
5.535000 0.394087 0
5.540000 0.376801 0
5.545000 0.356512 0
5.550000 0.333661 0
5.555000 0.308733 0
5.560000 0.282236 0
5.565000 0.254686 0
5.570000 0.226591 0
5.575000 0.198433 0
5.580000 0.170657 0
5.585000 0.143660 0
5.590000 0.117784 0
5.595000 0.093309 0
5.600000 0.070453 0
5.605000 0.049372 0
5.610000 0.030161 0
5.615000 0.012862 0
5.620000 -0.002531 0
5.625000 -0.016067 0
5.630000 -0.027828 0
5.635000 -0.037921 0
5.640000 -0.046473 0
5.645000 -0.053623 0
5.650000 -0.059514 0
5.655000 -0.064290 0
5.660000 -0.068092 0
5.665000 -0.071053 0
5.670000 -0.073297 0
5.675000 -0.074936 0
5.680000 -0.076072 0
5.685000 -0.076792 0
5.690000 -0.077175 0
5.695000 -0.077286 0
5.700000 -0.077180 0
5.705000 -0.076903 0
5.710000 -0.076158 0
5.715000 -0.075337 0
5.720000 -0.074521 0
5.725000 -0.073708 0
5.730000 -0.072900 0
5.735000 -0.072095 0
5.740000 -0.071295 0
5.745000 -0.070498 0
5.750000 -0.069706 0
5.755000 -0.068918 0
5.760000 -0.068133 0
5.765000 -0.067352 0
5.770000 -0.066575 0
5.775000 -0.065802 0
5.780000 -0.065032 0
5.785000 -0.064265 0
5.790000 -0.063500 0
5.795000 -0.062736 0
5.800000 -0.061970 0
5.805000 -0.061197 0
5.810000 -0.060411 0
5.815000 -0.059600 0
5.820000 -0.058745 0
5.825000 -0.057819 0
5.830000 -0.056778 0
5.835000 -0.055561 0
5.840000 -0.054081 0
5.845000 -0.052220 0
5.850000 -0.049820 0
5.855000 -0.046680 0
5.860000 -0.042555 0
5.865000 -0.037154 0
5.870000 -0.030151 0
5.875000 -0.021206 0
5.880000 -0.009984 0
5.885000 0.003802 0
5.890000 0.020351 0
5.895000 0.039726 0
5.900000 0.061806 0
5.905000 0.086247 0
5.910000 0.112464 0
5.915000 0.139624 0
5.920000 0.166683 0
5.925000 0.192433 0
5.930000 0.215594 0
5.935000 0.234909 0
5.940000 0.249264 0
5.945000 0.257786 0
5.950000 0.259934 1
5.955000 0.255554 0
5.960000 0.244898 0
5.965000 0.228596 0
5.970000 0.207596 0
5.975000 0.183071 0
5.980000 0.156314 0
5.985000 0.128616 0
5.990000 0.101166 0
5.995000 0.074942 0
6.000000 0.050580 0
6.005000 0.028183 0
6.010000 0.006999 0
6.015000 -0.014924 0
6.020000 -0.040780 0
6.025000 -0.074099 0
6.030000 -0.116461 0
6.035000 -0.164345 0
6.040000 -0.206930 0
6.045000 -0.226709 2
6.050000 -0.202945 0
6.055000 -0.116182 0
6.060000 0.047018 0
6.065000 0.287130 0
6.070000 0.581502 0
6.075000 0.877270 0
6.080000 1.099433 0
6.085000 1.178833 3
6.090000 1.086151 0
6.095000 0.847880 0
6.100000 0.532024 0
6.105000 0.214427 0
6.110000 -0.048691 0
6.115000 -0.229232 0
6.120000 -0.322186 0
6.125000 -0.338407 4
6.130000 -0.299475 0
6.135000 -0.232076 0
6.140000 -0.160523 0
6.145000 -0.100387 0
6.150000 -0.056801 0
6.155000 -0.027412 0
6.160000 -0.006958 0
6.165000 0.009399 0
6.170000 0.024826 0
6.175000 0.040968 0
6.180000 0.058525 0
6.185000 0.077727 0
6.190000 0.098596 0
6.195000 0.121047 0
6.200000 0.144925 0
6.205000 0.170009 0
6.210000 0.196018 0
6.215000 0.222613 0
6.220000 0.249398 0
6.225000 0.275936 0
6.230000 0.301749 0
6.235000 0.326341 0
6.240000 0.349206 0
6.245000 0.369850 0
6.250000 0.387803 0
6.255000 0.402640 0
6.260000 0.413997 0
6.265000 0.421584 0
6.270000 0.425197 5
6.275000 0.424727 0
6.280000 0.420165 0
6.285000 0.411602 0
6.290000 0.399226 0
6.295000 0.383315 0
6.300000 0.364224 0
6.305000 0.342376 0
6.310000 0.318242 0
6.315000 0.292324 0
6.320000 0.265142 0
6.325000 0.237210 0
6.330000 0.209024 0
6.335000 0.181049 0
6.340000 0.153704 0
6.345000 0.127355 0
6.350000 0.102308 0
6.355000 0.078806 0
6.360000 0.057031 0
6.365000 0.037100 0
6.370000 0.019077 0
6.375000 0.002971 0
6.380000 -0.011250 0
6.385000 -0.023657 0
6.390000 -0.034351 0
6.395000 -0.043451 0
6.400000 -0.051094 0
6.405000 -0.057423 0
6.410000 -0.062582 0
6.415000 -0.066716 0
6.420000 -0.069959 0
6.425000 -0.072442 0
6.430000 -0.074280 0
6.435000 -0.075580 0
6.440000 -0.076434 0
6.445000 -0.076925 0
6.450000 -0.077121 0
6.455000 -0.077083 0
6.460000 -0.076859 0
6.465000 -0.076425 0
6.470000 -0.075603 0
6.475000 -0.074785 0
6.480000 -0.073971 0
6.485000 -0.073161 0
6.490000 -0.072356 0
6.495000 -0.071554 0
6.500000 -0.070756 0
6.505000 -0.069962 0
6.510000 -0.069173 0
6.515000 -0.068387 0
6.520000 -0.067605 0
6.525000 -0.066827 0
6.530000 -0.066052 0
6.535000 -0.065281 0
6.540000 -0.064513 0
6.545000 -0.063748 0
6.550000 -0.062983 0
6.555000 -0.062218 0
6.560000 -0.061448 0
6.565000 -0.060666 0
6.570000 -0.059863 0
6.575000 -0.059023 0
6.580000 -0.058119 0
6.585000 -0.057114 0
6.590000 -0.055951 0
6.595000 -0.054550 0
6.600000 -0.052801 0
6.605000 -0.050558 0
6.610000 -0.047629 0
6.615000 -0.043778 0
6.620000 -0.038726 0
6.625000 -0.032152 0
6.630000 -0.023715 0
6.635000 -0.013075 0
6.640000 0.000073 0
6.645000 0.015954 0
6.650000 0.034668 0
6.655000 0.056142 0
6.660000 0.080084 0
6.665000 0.105962 0
6.670000 0.132997 0
6.675000 0.160181 0
6.680000 0.186331 0
6.685000 0.210167 0
6.690000 0.230413 0
6.695000 0.245908 0
6.700000 0.255715 0
6.705000 0.259215 1
6.710000 0.256169 0
6.715000 0.246747 0
6.720000 0.231509 0
6.725000 0.211351 0
6.730000 0.187417 0
6.735000 0.160989 0
6.740000 0.133377 0
6.745000 0.105801 0
6.750000 0.079292 0
6.755000 0.054567 0
6.760000 0.031844 0
6.765000 0.010550 0
6.770000 -0.011045 0
6.775000 -0.035963 0
6.780000 -0.067819 0
6.785000 -0.108745 0
6.790000 -0.156259 0
6.795000 -0.200737 0
6.800000 -0.225491 2
6.805000 -0.209896 0
6.810000 -0.133903 0
6.815000 0.017290 0
6.820000 0.246724 0
6.825000 0.535733 0
6.830000 0.835607 0
6.835000 1.072852 0
6.840000 1.174958 3
6.845000 1.104463 0
6.850000 0.879778 0
6.855000 0.567978 0
6.860000 0.248204 0
6.865000 -0.019209 0
6.870000 -0.203469 0
6.875000 -0.298519 0
6.880000 -0.315256 4
6.885000 -0.275958 0
6.890000 -0.208254 0
6.895000 -0.137104 0
6.900000 -0.078107 0
6.905000 -0.035957 0
6.910000 -0.007807 0
6.915000 0.011855 0
6.920000 0.027859 0
6.925000 0.043242 0
6.930000 0.059519 0
6.935000 0.077305 0
6.940000 0.096783 0
6.945000 0.117949 0
6.950000 0.140695 0
6.955000 0.164845 0
6.960000 0.190154 0
6.965000 0.216313 0
6.970000 0.242953 0
6.975000 0.269649 0
6.980000 0.295933 0
6.985000 0.321301 0
6.990000 0.345235 0
6.995000 0.367211 0
7.000000 0.386726 0
7.005000 0.403311 0
7.010000 0.416551 0
7.015000 0.426102 0
7.020000 0.431705 0
7.025000 0.433196 5
7.030000 0.430513 0
7.035000 0.423703 0
7.040000 0.412915 0
7.045000 0.398396 0
7.050000 0.380484 0
7.055000 0.359591 0
7.060000 0.336185 0
7.065000 0.310779 0
7.070000 0.283905 0
7.075000 0.256100 0
7.080000 0.227886 0
7.085000 0.199755 0
7.090000 0.172154 0
7.095000 0.145478 0
7.100000 0.120060 0
7.105000 0.096166 0
7.110000 0.073996 0
7.115000 0.053685 0
7.120000 0.035308 0
7.125000 0.018883 0
7.130000 0.004381 0
7.135000 -0.008267 0
7.140000 -0.019161 0
7.145000 -0.028426 0
7.150000 -0.036200 0
7.155000 -0.042632 0
7.160000 -0.047872 0
7.165000 -0.052067 0
7.170000 -0.055360 0
7.175000 -0.057883 0
7.180000 -0.059756 0
7.185000 -0.061089 0
7.190000 -0.061976 0
7.195000 -0.062501 0
7.200000 -0.062734 0
7.205000 -0.062736 0
7.210000 -0.062556 0
7.215000 -0.061886 0
7.220000 -0.061136 0
7.225000 -0.060390 0
7.230000 -0.059648 0
7.235000 -0.058910 0
7.240000 -0.058175 0
7.245000 -0.057444 0
7.250000 -0.056717 0
7.255000 -0.055993 0
7.260000 -0.055273 0
7.265000 -0.054557 0
7.270000 -0.053844 0
7.275000 -0.053134 0
7.280000 -0.052428 0
7.285000 -0.051725 0
7.290000 -0.051024 0
7.295000 -0.050324 0
7.300000 -0.049625 0
7.305000 -0.048922 0
7.310000 -0.048211 0
7.315000 -0.047484 0
7.320000 -0.046725 0
7.325000 -0.045915 0
7.330000 -0.045018 0
7.335000 -0.043986 0
7.340000 -0.042744 0
7.345000 -0.041192 0
7.350000 -0.039189 0
7.355000 -0.036556 0
7.360000 -0.033061 0
7.365000 -0.028427 0
7.370000 -0.022333 0
7.375000 -0.014429 0
7.380000 -0.004359 0
7.385000 0.008204 0
7.390000 0.023515 0
7.395000 0.041704 0
7.400000 0.062729 0
7.405000 0.086323 0
7.410000 0.111970 0
7.415000 0.138891 0
7.420000 0.166062 0
7.425000 0.192270 0
7.430000 0.216193 0
7.435000 0.236506 0
7.440000 0.252002 0
7.445000 0.261708 0
7.450000 0.264988 1
7.455000 0.261605 0
7.460000 0.251755 0
7.465000 0.236042 0
7.470000 0.215419 0
7.475000 0.191089 0
7.480000 0.164390 0
7.485000 0.136670 0
7.490000 0.109173 0
7.495000 0.082919 0
7.500000 0.058569 0
7.505000 0.036207 0
7.510000 0.014998 0
7.515000 -0.007182 0
7.520000 -0.033744 0
7.525000 -0.068273 0
7.530000 -0.111896 0
7.535000 -0.159894 0
7.540000 -0.199683 0
7.545000 -0.212073 2
7.550000 -0.175380 0
7.555000 -0.070338 0
7.560000 0.114451 0
7.565000 0.373992 0
7.570000 0.675778 0
7.575000 0.955692 0
7.580000 1.133799 0
7.585000 1.149369 3
7.590000 0.994559 0
7.595000 0.717532 0
7.600000 0.392808 0
7.605000 0.090536 0
7.610000 -0.143922 0
7.615000 -0.292057 0
7.620000 -0.355354 4
7.625000 -0.348949 0
7.630000 -0.296805 0
7.635000 -0.225451 0
7.640000 -0.156514 0
7.645000 -0.101794 0
7.650000 -0.063376 0
7.655000 -0.037467 0
7.660000 -0.018725 0
7.665000 -0.002844 0
7.670000 0.012774 0
7.675000 0.029399 0
7.680000 0.047538 0
7.685000 0.067337 0
7.690000 0.088778 0
7.695000 0.111754 0
7.700000 0.136092 0
7.705000 0.161554 0
7.710000 0.187846 0
7.715000 0.214614 0
7.720000 0.241454 0
7.725000 0.267919 0
7.730000 0.293530 0
7.735000 0.317789 0
7.740000 0.340198 0
7.745000 0.360269 0
7.750000 0.377549 0
7.755000 0.391629 0
7.760000 0.402164 0
7.765000 0.408888 0
7.770000 0.411619 5
7.775000 0.410273 0
7.780000 0.404863 0
7.785000 0.395503 0
7.790000 0.382399 0
7.795000 0.365845 0
7.800000 0.346208 0
7.805000 0.323920 0
7.810000 0.299455 0
7.815000 0.273316 0
7.820000 0.246019 0
7.825000 0.218071 0
7.830000 0.189960 0
7.835000 0.162138 0
7.840000 0.135014 0
7.845000 0.108938 0
7.850000 0.084205 0
7.855000 0.061045 0
7.860000 0.039627 0
7.865000 0.020060 0
7.870000 0.002396 0
7.875000 -0.013359 0
7.880000 -0.027247 0
7.885000 -0.039340 0
7.890000 -0.049743 0
7.895000 -0.058576 0
7.900000 -0.065976 0
7.905000 -0.072084 0
7.910000 -0.077047 0
7.915000 -0.081003 0
7.920000 -0.084089 0
7.925000 -0.086429 0
7.930000 -0.088140 0
7.935000 -0.089325 0
7.940000 -0.090075 0
7.945000 -0.090469 0
7.950000 -0.090577 0
7.955000 -0.090455 0
7.960000 -0.090152 0
7.965000 -0.089643 0
7.970000 -0.088755 0
7.975000 -0.087872 0
7.980000 -0.086993 0
7.985000 -0.086118 0
7.990000 -0.085248 0
7.995000 -0.084382 0
8.000000 -0.083520 0
8.005000 -0.082663 0
8.010000 -0.081810 0
8.015000 -0.080961 0
8.020000 -0.080116 0
8.025000 -0.079275 0
8.030000 -0.078439 0
8.035000 -0.077606 0
8.040000 -0.076777 0
8.045000 -0.075950 0
8.050000 -0.075125 0
8.055000 -0.074299 0
8.060000 -0.073468 0
8.065000 -0.072627 0
8.070000 -0.071765 0
8.075000 -0.070866 0
8.080000 -0.069906 0
8.085000 -0.068845 0
8.090000 -0.067631 0
8.095000 -0.066183 0
8.100000 -0.064394 0
8.105000 -0.062120 0
8.110000 -0.059174 0
8.115000 -0.055324 0
8.120000 -0.050295 0
8.125000 -0.043772 0
8.130000 -0.035416 0
8.135000 -0.024890 0
8.140000 -0.011887 0
8.145000 0.003824 0
8.150000 0.022354 0
8.155000 0.043644 0
8.160000 0.067428 0
8.165000 0.093201 0
8.170000 0.120212 0
8.175000 0.147483 0
8.180000 0.173856 0
8.185000 0.198069 0
8.190000 0.218849 0
8.195000 0.235026 0
8.200000 0.245638 0
8.205000 0.250027 1
8.210000 0.247906 0
8.215000 0.239388 0
8.220000 0.224978 0
8.225000 0.205522 0
8.230000 0.182124 0
8.235000 0.156043 0
8.240000 0.128580 0
8.245000 0.100968 0
8.250000 0.074266 0
8.255000 0.049248 0
8.260000 0.026234 0
8.265000 0.004820 0
8.270000 -0.016479 0
8.275000 -0.040441 0
8.280000 -0.070654 0
8.285000 -0.109745 0
8.290000 -0.156409 0
8.295000 -0.202627 0
8.300000 -0.233123 2
8.305000 -0.227902 0
8.310000 -0.166576 0
8.315000 -0.032885 0
8.320000 0.179536 0
8.325000 0.458016 0
8.330000 0.761359 0
8.335000 1.020870 0
8.340000 1.161194 3
8.345000 1.135107 0
8.350000 0.948440 0
8.355000 0.654975 0
8.360000 0.329704 0
8.365000 0.037760 0
8.370000 -0.181590 0
8.375000 -0.314326 0
8.380000 -0.364645 4
8.385000 -0.349222 0
8.390000 -0.292506 0
8.395000 -0.220336 0
8.400000 -0.152815 0
8.405000 -0.100158 0
8.410000 -0.063439 0
8.415000 -0.038544 0
8.420000 -0.020240 0
8.425000 -0.004453 0
8.430000 0.011228 0
8.435000 0.027969 0
8.440000 0.046228 0
8.445000 0.066136 0
8.450000 0.087668 0
8.455000 0.110715 0
8.460000 0.135103 0
8.465000 0.160598 0
8.470000 0.186908 0
8.475000 0.213684 0
8.480000 0.240529 0
8.485000 0.267003 0
8.490000 0.292635 0
8.495000 0.316936 0
8.500000 0.339415 0
8.505000 0.359594 0
8.510000 0.377022 0
8.515000 0.391297 0
8.520000 0.402076 0
8.525000 0.409090 0
8.530000 0.412155 5
8.535000 0.411181 0
8.540000 0.406172 0
8.545000 0.397228 0
8.550000 0.384545 0
8.555000 0.368401 0
8.560000 0.349151 0
8.565000 0.327210 0
8.570000 0.303040 0
8.575000 0.277134 0
8.580000 0.249996 0
8.585000 0.222130 0
8.590000 0.194019 0
8.595000 0.166115 0
8.600000 0.138829 0
8.605000 0.112517 0
8.610000 0.087481 0
8.615000 0.063961 0
8.620000 0.042137 0
8.625000 0.022128 0
8.630000 0.004000 0
8.635000 -0.012232 0
8.640000 -0.026596 0
8.645000 -0.039159 0
8.650000 -0.050013 0
8.655000 -0.059274 0
8.660000 -0.067072 0
8.665000 -0.073547 0
8.670000 -0.078840 0
8.675000 -0.083091 0
8.680000 -0.086436 0
8.685000 -0.089001 0
8.690000 -0.090903 0
8.695000 -0.092248 0
8.700000 -0.093131 0
8.705000 -0.093633 0
8.710000 -0.093827 0
8.715000 -0.093772 0
8.720000 -0.093520 0
8.725000 -0.093041 0
8.730000 -0.092136 0
8.735000 -0.091236 0
8.740000 -0.090340 0
8.745000 -0.089448 0
8.750000 -0.088561 0
8.755000 -0.087679 0
8.760000 -0.086801 0
8.765000 -0.085927 0
8.770000 -0.085058 0
8.775000 -0.084193 0
8.780000 -0.083332 0
8.785000 -0.082475 0
8.790000 -0.081623 0
8.795000 -0.080774 0
8.800000 -0.079930 0
8.805000 -0.079088 0
8.810000 -0.078249 0
8.815000 -0.077410 0
8.820000 -0.076570 0
8.825000 -0.075723 0
8.830000 -0.074861 0
8.835000 -0.073974 0
8.840000 -0.073041 0
8.845000 -0.072034 0
8.850000 -0.070910 0
8.855000 -0.069605 0
8.860000 -0.068034 0
8.865000 -0.066078 0
8.870000 -0.063579 0
8.875000 -0.060341 0
8.880000 -0.056118 0
8.885000 -0.050627 0
8.890000 -0.043548 0
8.895000 -0.034546 0
8.900000 -0.023294 0
8.905000 -0.009508 0
8.910000 0.007008 0
8.915000 0.026322 0
8.920000 0.048323 0
8.925000 0.072688 0
8.930000 0.098857 0
8.935000 0.126034 0
8.940000 0.153208 0
8.945000 0.179208 0
8.950000 0.202781 0
8.955000 0.222689 0
8.960000 0.237815 0
8.965000 0.247267 0
8.970000 0.250463 1
8.975000 0.247194 0
8.980000 0.237640 0
8.985000 0.222359 0
8.990000 0.202231 0
8.995000 0.178370 0
9.000000 0.152029 0
9.005000 0.124483 0
9.010000 0.096931 0
9.015000 0.070387 0
9.020000 0.045574 0
9.025000 0.022747 0
9.030000 0.001427 0
9.035000 -0.019950 0
9.040000 -0.044209 0
9.045000 -0.074889 0
9.050000 -0.114437 0
9.055000 -0.161293 0
9.060000 -0.207255 0
9.065000 -0.237072 2
9.070000 -0.231009 0
9.075000 -0.169040 0
9.080000 -0.035230 0
9.085000 0.176678 0
9.090000 0.454405 0
9.095000 0.757899 0
9.100000 1.020042 0
9.105000 1.166368 3
9.110000 1.148480 0
9.115000 0.968857 0
9.120000 0.679125 0
9.125000 0.353667 0
9.130000 0.058441 0
9.135000 -0.165896 0
9.140000 -0.304083 0
9.145000 -0.359362 4
9.150000 -0.347662 0
9.155000 -0.292974 0
9.160000 -0.221160 0
9.165000 -0.152831 0
9.170000 -0.098920 0
9.175000 -0.061073 0
9.180000 -0.035439 0
9.185000 -0.016785 0
9.190000 -0.000923 0
9.195000 0.014682 0
9.200000 0.031274 0
9.205000 0.049358 0
9.210000 0.069082 0
9.215000 0.090432 0
9.220000 0.113307 0
9.225000 0.137541 0
9.230000 0.162906 0
9.235000 0.189118 0
9.240000 0.215836 0
9.245000 0.242669 0
9.250000 0.269183 0
9.255000 0.294913 0
9.260000 0.319375 0
9.265000 0.342078 0
9.270000 0.362544 0
9.275000 0.380321 0
9.280000 0.395002 0
9.285000 0.406235 0
9.290000 0.413744 0
9.295000 0.417334 5
9.300000 0.416901 0
9.305000 0.412436 0
9.310000 0.404027 0
9.315000 0.391853 0
9.320000 0.376181 0
9.325000 0.357353 0
9.330000 0.335774 0
9.335000 0.311897 0
9.340000 0.286210 0
9.345000 0.259214 0
9.350000 0.231410 0
9.355000 0.203284 0
9.360000 0.175293 0
9.365000 0.147851 0
9.370000 0.121325 0
9.375000 0.096023 0
9.380000 0.072196 0
9.385000 0.050033 0
9.390000 0.029664 0
9.395000 0.011163 0
9.400000 -0.005445 0
9.405000 -0.020182 0
9.410000 -0.033105 0
9.415000 -0.044304 0
9.420000 -0.053890 0
9.425000 -0.061989 0
9.430000 -0.068740 0
9.435000 -0.074282 0
9.440000 -0.078757 0
9.445000 -0.082299 0
9.450000 -0.085037 0
9.455000 -0.087090 0
9.460000 -0.088566 0
9.465000 -0.089560 0
9.470000 -0.090157 0
9.475000 -0.090432 0
9.480000 -0.090446 0
9.485000 -0.090252 0
9.490000 -0.089894 0
9.495000 -0.089082 0
9.500000 -0.088197 0
9.505000 -0.087316 0
9.510000 -0.086440 0
9.515000 -0.085568 0
9.520000 -0.084701 0
9.525000 -0.083837 0
9.530000 -0.082978 0
9.535000 -0.082124 0
9.540000 -0.081273 0
9.545000 -0.080427 0
9.550000 -0.079585 0
9.555000 -0.078747 0
9.560000 -0.077913 0
9.565000 -0.077083 0
9.570000 -0.076256 0
9.575000 -0.075431 0
9.580000 -0.074608 0
9.585000 -0.073783 0
9.590000 -0.072954 0
9.595000 -0.072113 0
9.600000 -0.071249 0
9.605000 -0.070347 0
9.610000 -0.069380 0
9.615000 -0.068310 0
9.620000 -0.067082 0
9.625000 -0.065616 0
9.630000 -0.063804 0
9.635000 -0.061504 0
9.640000 -0.058529 0
9.645000 -0.054653 0
9.650000 -0.049603 0
9.655000 -0.043071 0
9.660000 -0.034726 0
9.665000 -0.024236 0
9.670000 -0.011303 0
9.675000 0.004304 0
9.680000 0.022696 0
9.685000 0.043827 0
9.690000 0.067447 0
9.695000 0.093079 0
9.700000 0.120006 0
9.705000 0.147289 0
9.710000 0.173810 0
9.715000 0.198339 0
9.720000 0.219628 0
9.725000 0.236510 0
9.730000 0.248011 0
9.735000 0.253434 1
9.740000 0.252437 0
9.745000 0.245062 0
9.750000 0.231735 0
9.755000 0.213224 0
9.760000 0.190565 0
9.765000 0.164967 0
9.770000 0.137705 0
9.775000 0.110010 0
9.780000 0.082972 0
9.785000 0.057434 0
9.790000 0.033851 0
9.795000 0.012062 0
9.800000 -0.009039 0
9.805000 -0.031793 0
9.810000 -0.059585 0
9.815000 -0.095575 0
9.820000 -0.140140 0
9.825000 -0.187926 0
9.830000 -0.226381 0
9.835000 -0.237182 2
9.840000 -0.199990 0
9.845000 -0.096762 0
9.850000 0.083494 0
9.855000 0.337334 0
9.860000 0.637002 0
9.865000 0.925595 0
9.870000 1.128428 0
9.875000 1.182251 3
9.880000 1.068154 0
9.885000 0.818660 0
9.890000 0.500235 0
9.895000 0.183833 0
9.900000 -0.078581 0
9.905000 -0.260837 0
9.910000 -0.357901 0
9.915000 -0.379400 4
9.920000 -0.345039 0
9.925000 -0.279790 0
9.930000 -0.207332 0
9.935000 -0.143996 0
9.940000 -0.096453 0
9.945000 -0.063696 0
9.950000 -0.041074 0
9.955000 -0.023704 0
9.960000 -0.008072 0
9.965000 0.007810 0
9.970000 0.024871 0
9.975000 0.043466 0
9.980000 0.063683 0
9.985000 0.085480 0
9.990000 0.108743 0
9.995000 0.133297 0
10.000000 0.158908 0
10.005000 0.185288 0
10.010000 0.212098 0
10.015000 0.238951 0
10.020000 0.265420 0
10.025000 0.291050 0
10.030000 0.315371 0
10.035000 0.337908 0
10.040000 0.358198 0
10.045000 0.375807 0
10.050000 0.390342 0
10.055000 0.401467 0
10.060000 0.408917 0
10.065000 0.412505 5
10.070000 0.412130 0
10.075000 0.407785 0
10.080000 0.399551 0
10.085000 0.387600 0
10.090000 0.372187 0
10.095000 0.353637 0
10.100000 0.332342 0
10.105000 0.308735 0
10.110000 0.283287 0
10.115000 0.256483 0
10.120000 0.228811 0
10.125000 0.200745 0
10.130000 0.172733 0
10.135000 0.145187 0
10.140000 0.118472 0
10.145000 0.092899 0
10.150000 0.068726 0
10.155000 0.046151 0
10.160000 0.025314 0
10.165000 0.006303 0
10.170000 -0.010846 0
10.175000 -0.026140 0
10.180000 -0.039624 0
10.185000 -0.051376 0
10.190000 -0.061496 0
10.195000 -0.070103 0
10.200000 -0.077326 0
10.205000 -0.083303 0
10.210000 -0.088169 0
10.215000 -0.092058 0
10.220000 -0.095099 0
10.225000 -0.097411 0
10.230000 -0.099104 0
10.235000 -0.100277 0
10.240000 -0.101018 0
10.245000 -0.101403 0
10.250000 -0.101500 0
10.255000 -0.101364 0
10.260000 -0.101043 0
10.265000 -0.100507 0
10.270000 -0.099564 0
10.275000 -0.098627 0
10.280000 -0.097694 0
10.285000 -0.096766 0
10.290000 -0.095843 0
10.295000 -0.094924 0
10.300000 -0.094010 0
10.305000 -0.093100 0
10.310000 -0.092195 0
10.315000 -0.091294 0
10.320000 -0.090398 0
10.325000 -0.089506 0
10.330000 -0.088619 0
10.335000 -0.087735 0
10.340000 -0.086856 0
10.345000 -0.085980 0
10.350000 -0.085107 0
10.355000 -0.084235 0
10.360000 -0.083362 0
10.365000 -0.082483 0
10.370000 -0.081593 0
10.375000 -0.080680 0
10.380000 -0.079728 0
10.385000 -0.078712 0
10.390000 -0.077593 0
10.395000 -0.076318 0
10.400000 -0.074811 0
10.405000 -0.072966 0
10.410000 -0.070646 0
10.415000 -0.067674 0
10.420000 -0.063831 0
10.425000 -0.058856 0
10.430000 -0.052453 0
10.435000 -0.044304 0
10.440000 -0.034085 0
10.445000 -0.021499 0
10.450000 -0.006311 0
10.455000 0.011610 0
10.460000 0.032249 0
10.465000 0.055407 0
10.470000 0.080668 0
10.475000 0.107389 0
10.480000 0.134710 0
10.485000 0.161586 0
10.490000 0.186845 0
10.495000 0.209271 0
10.500000 0.227700 0
10.505000 0.241113 0
10.510000 0.248739 0
10.515000 0.250119 1
10.520000 0.245157 0
10.525000 0.234127 0
10.530000 0.217651 0
10.535000 0.196638 0
10.540000 0.172201 0
10.545000 0.145563 0
10.550000 0.117950 0
10.555000 0.090495 0
10.560000 0.064147 0
10.565000 0.039558 0
10.570000 0.016916 0
10.575000 -0.004319 0
10.580000 -0.025739 0
10.585000 -0.050131 0
10.590000 -0.080918 0
10.595000 -0.120433 0
10.600000 -0.167185 0
10.605000 -0.213388 0
10.610000 -0.244532 2
10.615000 -0.241687 0
10.620000 -0.185396 0
10.625000 -0.059733 0
10.630000 0.142712 0
10.635000 0.412892 0
10.640000 0.716271 0
10.645000 0.991396 0
10.650000 1.165355 0
10.655000 1.183723 3
10.660000 1.034982 0
10.665000 0.761423 0
10.670000 0.437000 0
10.675000 0.132517 0
10.680000 -0.105521 0
10.685000 -0.257602 0
10.690000 -0.324502 4
10.695000 -0.320850 0
10.700000 -0.270313 0
10.705000 -0.199443 0
10.710000 -0.130204 0
10.715000 -0.074868 0
10.720000 -0.035895 0
10.725000 -0.009665 0
10.730000 0.009163 0
10.735000 0.024965 0
10.740000 0.040416 0
10.745000 0.056834 0
10.750000 0.074752 0
10.755000 0.094327 0
10.760000 0.115548 0
10.765000 0.138310 0
10.770000 0.162445 0
10.775000 0.187718 0
10.780000 0.213837 0
10.785000 0.240453 0
10.790000 0.267165 0
10.795000 0.293526 0
10.800000 0.319061 0
10.805000 0.343273 0
10.810000 0.365663 0
10.815000 0.385745 0
10.820000 0.403060 0
10.825000 0.417200 0
10.830000 0.427815 0
10.835000 0.434634 0
10.840000 0.437471 5
10.845000 0.436236 0
10.850000 0.430936 0
10.855000 0.421679 0
10.860000 0.408665 0
10.865000 0.392184 0
10.870000 0.372598 0
10.875000 0.350335 0
10.880000 0.325866 0
10.885000 0.299694 0
10.890000 0.272331 0
10.895000 0.244287 0
10.900000 0.216051 0
10.905000 0.188076 0
10.910000 0.160774 0
10.915000 0.134501 0
10.920000 0.109552 0
10.925000 0.086163 0
10.930000 0.064506 0
10.935000 0.044694 0
10.940000 0.026785 0
10.945000 0.010783 0
10.950000 -0.003347 0
10.955000 -0.015677 0
10.960000 -0.026307 0
10.965000 -0.035360 0
10.970000 -0.042970 0
10.975000 -0.049279 0
10.980000 -0.054430 0
10.985000 -0.058566 0
10.990000 -0.061822 0
10.995000 -0.064323 0
11.000000 -0.066187 0
11.005000 -0.067516 0
11.010000 -0.068404 0
11.015000 -0.068930 0
11.020000 -0.069165 0
11.025000 -0.069165 0
11.030000 -0.068981 0
11.035000 -0.068587 0
11.040000 -0.067804 0
11.045000 -0.067025 0
11.050000 -0.066250 0
11.055000 -0.065478 0
11.060000 -0.064711 0
11.065000 -0.063947 0
11.070000 -0.063188 0
11.075000 -0.062432 0
11.080000 -0.061680 0
11.085000 -0.060931 0
11.090000 -0.060186 0
11.095000 -0.059445 0
11.100000 -0.058707 0
11.105000 -0.057973 0
11.110000 -0.057242 0
11.115000 -0.056513 0
11.120000 -0.055785 0
11.125000 -0.055056 0
11.130000 -0.054322 0
11.135000 -0.053578 0
11.140000 -0.052814 0
11.145000 -0.052014 0
11.150000 -0.051155 0
11.155000 -0.050199 0
11.160000 -0.049094 0
11.165000 -0.047765 0
11.170000 -0.046105 0
11.175000 -0.043974 0
11.180000 -0.041190 0
11.185000 -0.037526 0
11.190000 -0.032710 0
11.195000 -0.026430 0
11.200000 -0.018350 0
11.205000 -0.008131 0
11.210000 0.004537 0
11.215000 0.019895 0
11.220000 0.038066 0
11.225000 0.059012 0
11.230000 0.082486 0
11.235000 0.108007 0
11.240000 0.134850 0
11.245000 0.162059 0
11.250000 0.188489 0
11.255000 0.212888 0
11.260000 0.233979 0
11.265000 0.250579 0
11.270000 0.261701 0
11.275000 0.266654 1
11.280000 0.265111 0
11.285000 0.257145 0
11.290000 0.243223 0
11.295000 0.224156 0
11.300000 0.201028 0
11.305000 0.175083 0
11.310000 0.147624 0
11.315000 0.119893 0
11.320000 0.092972 0
11.325000 0.067672 0
11.330000 0.044369 0
11.335000 0.022755 0
11.340000 0.001476 0
11.345000 -0.022109 0
11.350000 -0.051556 0
11.355000 -0.089723 0
11.360000 -0.135889 0
11.365000 -0.182859 0
11.370000 -0.216095 2
11.375000 -0.215943 0
11.380000 -0.161856 0
11.385000 -0.036892 0
11.390000 0.166800 0
11.395000 0.439235 0
11.400000 0.742732 0
11.405000 1.011114 0
11.410000 1.168218 3
11.415000 1.161554 0
11.420000 0.988600 0
11.425000 0.700607 0
11.430000 0.375175 0
11.435000 0.081302 0
11.440000 -0.139115 0
11.445000 -0.271154 0
11.450000 -0.319318 4
11.455000 -0.301307 0
11.460000 -0.242847 0
11.465000 -0.170641 0
11.470000 -0.104757 0
11.475000 -0.054610 0
11.480000 -0.020314 0
11.485000 0.002833 0
11.490000 0.020175 0
11.495000 0.035602 0
11.500000 0.051291 0
11.505000 0.068233 0
11.510000 0.086787 0
11.515000 0.107032 0
11.520000 0.128911 0
11.525000 0.152286 0
11.530000 0.176955 0
11.535000 0.202650 0
11.540000 0.229043 0
11.545000 0.255749 0
11.550000 0.282331 0
11.555000 0.308315 0
11.560000 0.333199 0
11.565000 0.356470 0
11.570000 0.377620 0
11.575000 0.396163 0
11.580000 0.411657 0
11.585000 0.423715 0
11.590000 0.432024 0
11.595000 0.436360 0
11.600000 0.436591 5
11.605000 0.432689 0
11.610000 0.424730 0
11.615000 0.412887 0
11.620000 0.397429 0
11.625000 0.378708 0
11.630000 0.357143 0
11.635000 0.333208 0
11.640000 0.307411 0
11.645000 0.280279 0
11.650000 0.252337 0
11.655000 0.224092 0
11.660000 0.196020 0
11.665000 0.168552 0
11.670000 0.142063 0
11.675000 0.116870 0
11.680000 0.093224 0
11.685000 0.071311 0
11.690000 0.051256 0
11.695000 0.033122 0
11.700000 0.016923 0
11.705000 0.002624 0
11.710000 -0.009846 0
11.715000 -0.020588 0
11.720000 -0.029726 0
11.725000 -0.037398 0
11.730000 -0.043748 0
11.735000 -0.048926 0
11.740000 -0.053075 0
11.745000 -0.056336 0
11.750000 -0.058837 0
11.755000 -0.060696 0
11.760000 -0.062021 0
11.765000 -0.062904 0
11.770000 -0.063428 0
11.775000 -0.063662 0
11.780000 -0.063665 0
11.785000 -0.063487 0
11.790000 -0.062813 0
11.795000 -0.062059 0
11.800000 -0.061309 0
11.805000 -0.060562 0
11.810000 -0.059819 0
11.815000 -0.059080 0
11.820000 -0.058345 0
11.825000 -0.057613 0
11.830000 -0.056885 0
11.835000 -0.056160 0
11.840000 -0.055439 0
11.845000 -0.054722 0
11.850000 -0.054008 0
11.855000 -0.053297 0
11.860000 -0.052589 0
11.865000 -0.051885 0
11.870000 -0.051181 0
11.875000 -0.050479 0
11.880000 -0.049773 0
11.885000 -0.049061 0
11.890000 -0.048335 0
11.895000 -0.047583 0
11.900000 -0.046784 0
11.905000 -0.045911 0
11.910000 -0.044917 0
11.915000 -0.043739 0
11.920000 -0.042284 0
11.925000 -0.040428 0
11.930000 -0.038005 0
11.935000 -0.034804 0
11.940000 -0.030567 0
11.945000 -0.024990 0
11.950000 -0.017739 0
11.955000 -0.008461 0
11.960000 0.003179 0
11.965000 0.017460 0
11.970000 0.034562 0
11.975000 0.054514 0
11.980000 0.077142 0
11.985000 0.102039 0
11.990000 0.128542 0
11.995000 0.155741 0
12.000000 0.182516 0
12.005000 0.207601 0
12.010000 0.229684 0
12.015000 0.247512 0
12.020000 0.260012 0
12.025000 0.266393 1
12.030000 0.266231 0
12.035000 0.259513 0
12.040000 0.246639 0
12.045000 0.228383 0
12.050000 0.205814 0
12.055000 0.180193 0
12.060000 0.152853 0
12.065000 0.125085 0
12.070000 0.098025 0
12.075000 0.072540 0
12.080000 0.049066 0
12.085000 0.027352 0
12.090000 0.006090 0
12.095000 -0.017367 0
12.100000 -0.046649 0
12.105000 -0.084731 0
12.110000 -0.130923 0
12.115000 -0.177824 0
12.120000 -0.210407 2
12.125000 -0.208416 0
12.130000 -0.150825 0
12.135000 -0.020598 0
12.140000 0.189380 0
12.145000 0.466838 0
12.150000 0.770082 0
12.155000 1.028817 0
12.160000 1.165936 3
12.165000 1.133425 0
12.170000 0.938605 0
12.175000 0.639770 0
12.180000 0.315340 0
12.185000 0.030914 0
12.190000 -0.176073 0
12.195000 -0.294222 0
12.200000 -0.330458 4
12.205000 -0.304150 0
12.210000 -0.241751 0
12.215000 -0.169416 0
12.220000 -0.105666 0
12.225000 -0.058217 0
12.230000 -0.026066 0
12.235000 -0.004159 0
12.240000 0.012699 0
12.245000 0.028109 0
12.250000 0.044012 0
12.255000 0.061259 0
12.260000 0.080147 0
12.265000 0.100725 0
12.270000 0.122919 0
12.275000 0.146581 0
12.280000 0.171496 0
12.285000 0.197386 0
12.290000 0.223911 0
12.295000 0.250677 0
12.300000 0.277238 0
12.305000 0.303113 0
12.310000 0.327798 0
12.315000 0.350776 0
12.320000 0.371542 0
12.325000 0.389616 0
12.330000 0.404563 0
12.335000 0.416008 0
12.340000 0.423654 0
12.345000 0.427291 5
12.350000 0.426806 0
12.355000 0.422191 0
12.360000 0.413540 0
12.365000 0.401044 0
12.370000 0.384990 0
12.375000 0.365743 0
12.380000 0.343736 0
12.385000 0.319452 0
12.390000 0.293404 0
12.395000 0.266120 0
12.400000 0.238124 0
12.405000 0.209921 0
12.410000 0.181977 0
12.415000 0.154716 0
12.420000 0.128502 0
12.425000 0.103639 0
12.430000 0.080366 0
12.435000 0.058857 0
12.440000 0.039225 0
12.445000 0.021522 0
12.450000 0.005751 0
12.455000 -0.008129 0
12.460000 -0.020197 0
12.465000 -0.030560 0
12.470000 -0.039345 0
12.475000 -0.046693 0
12.480000 -0.052748 0
12.485000 -0.057661 0
12.490000 -0.061575 0
12.495000 -0.064627 0
12.500000 -0.066944 0
12.505000 -0.068644 0
12.510000 -0.069829 0
12.515000 -0.070591 0
12.520000 -0.071010 0
12.525000 -0.071152 0
12.530000 -0.071075 0
12.535000 -0.070825 0
12.540000 -0.070110 0
12.545000 -0.069320 0
12.550000 -0.068533 0
12.555000 -0.067750 0
12.560000 -0.066972 0
12.565000 -0.066197 0
12.570000 -0.065426 0
12.575000 -0.064659 0
12.580000 -0.063895 0
12.585000 -0.063136 0
12.590000 -0.062380 0
12.595000 -0.061628 0
12.600000 -0.060880 0
12.605000 -0.060135 0
12.610000 -0.059393 0
12.615000 -0.058654 0
12.620000 -0.057916 0
12.625000 -0.057179 0
12.630000 -0.056438 0
12.635000 -0.055690 0
12.640000 -0.054925 0
12.645000 -0.054130 0
12.650000 -0.053283 0
12.655000 -0.052352 0
12.660000 -0.051288 0
12.665000 -0.050019 0
12.670000 -0.048448 0
12.675000 -0.046439 0
12.680000 -0.043815 0
12.685000 -0.040355 0
12.690000 -0.035787 0
12.695000 -0.029799 0
12.700000 -0.022048 0
12.705000 -0.012183 0
12.710000 0.000121 0
12.715000 0.015125 0
12.720000 0.032976 0
12.725000 0.053656 0
12.730000 0.076935 0
12.735000 0.102342 0
12.740000 0.129148 0
12.745000 0.156384 0
12.750000 0.182883 0
12.755000 0.207355 0
12.760000 0.228489 0
12.765000 0.245066 0
12.770000 0.256074 0
12.775000 0.260811 1
12.780000 0.258954 0
12.785000 0.250601 0
12.790000 0.236256 0
12.795000 0.216781 0
12.800000 0.193307 0
12.805000 0.167130 0
12.810000 0.139584 0
12.815000 0.111932 0
12.820000 0.085253 0
12.825000 0.060316 0
12.830000 0.037407 0
12.835000 0.016026 0
12.840000 -0.005487 0
12.845000 -0.030128 0
12.850000 -0.061583 0
12.855000 -0.102167 0
12.860000 -0.149598 0
12.865000 -0.194314 0
12.870000 -0.219448 2
12.875000 -0.204017 0
12.880000 -0.127586 0
12.885000 0.024861 0
12.890000 0.256135 0
12.895000 0.546491 0
12.900000 0.845208 0
12.905000 1.076803 0
12.910000 1.168564 3
12.915000 1.085283 0
12.920000 0.851063 0
12.925000 0.535790 0
12.930000 0.218590 0
12.935000 -0.042165 0
12.940000 -0.217995 0
12.945000 -0.304687 0
12.950000 -0.314566 4
12.955000 -0.270942 0
12.960000 -0.201769 0
12.965000 -0.131422 0
12.970000 -0.074342 0
12.975000 -0.034128 0
12.980000 -0.007340 0
12.985000 0.011625 0
12.990000 0.027423 0
12.995000 0.042879 0
13.000000 0.059359 0
13.005000 0.077398 0
13.010000 0.097145 0
13.015000 0.118575 0
13.020000 0.141570 0
13.025000 0.165940 0
13.030000 0.191427 0
13.035000 0.217710 0
13.040000 0.244407 0
13.045000 0.271082 0
13.050000 0.297254 0
13.055000 0.322414 0
13.060000 0.346035 0
13.065000 0.367593 0
13.070000 0.386585 0
13.075000 0.402548 0
13.080000 0.415078 0
13.085000 0.423842 0
13.090000 0.428600 0
13.095000 0.429207 5
13.100000 0.425625 0
13.105000 0.417924 0
13.110000 0.406276 0
13.115000 0.390954 0
13.120000 0.372316 0
13.125000 0.350791 0
13.130000 0.326864 0
13.135000 0.301060 0
13.140000 0.273916 0
13.145000 0.245972 0
13.150000 0.217748 0
13.155000 0.189729 0
13.160000 0.162353 0
13.165000 0.136002 0
13.170000 0.110992 0
13.175000 0.087574 0
13.180000 0.065932 0
13.185000 0.046183 0
13.190000 0.028385 0
13.195000 0.012543 0
13.200000 -0.001385 0
13.205000 -0.013480 0
13.210000 -0.023851 0
13.215000 -0.032627 0
13.220000 -0.039954 0
13.225000 -0.045980 0
13.230000 -0.050859 0
13.235000 -0.054736 0
13.240000 -0.057752 0
13.245000 -0.060037 0
13.250000 -0.061708 0
13.255000 -0.062870 0
13.260000 -0.063616 0
13.265000 -0.064024 0
13.270000 -0.064161 0
13.275000 -0.064086 0
13.280000 -0.063843 0
13.285000 -0.063158 0
13.290000 -0.062402 0
13.295000 -0.061650 0
13.300000 -0.060902 0
13.305000 -0.060158 0
13.310000 -0.059417 0
13.315000 -0.058680 0
13.320000 -0.057946 0
13.325000 -0.057216 0
13.330000 -0.056490 0
13.335000 -0.055767 0
13.340000 -0.055048 0
13.345000 -0.054333 0
13.350000 -0.053620 0
13.355000 -0.052910 0
13.360000 -0.052203 0
13.365000 -0.051496 0
13.370000 -0.050789 0
13.375000 -0.050076 0
13.380000 -0.049352 0
13.385000 -0.048605 0
13.390000 -0.047819 0
13.395000 -0.046967 0
13.400000 -0.046009 0
13.405000 -0.044883 0
13.410000 -0.043504 0
13.415000 -0.041753 0
13.420000 -0.039469 0
13.425000 -0.036449 0
13.430000 -0.032435 0
13.435000 -0.027126 0
13.440000 -0.020183 0
13.445000 -0.011245 0
13.450000 0.000037 0
13.455000 0.013962 0
13.460000 0.030730 0
13.465000 0.050391 0
13.470000 0.072793 0
13.475000 0.097540 0
13.480000 0.123975 0
13.485000 0.151178 0
13.490000 0.178009 0
13.495000 0.203176 0
13.500000 0.225330 0
13.505000 0.243184 0
13.510000 0.255635 0
13.515000 0.261878 1
13.520000 0.261485 0
13.525000 0.254459 0
13.530000 0.241232 0
13.535000 0.222620 0
13.540000 0.199740 0
13.545000 0.173895 0
13.550000 0.146457 0
13.555000 0.118737 0
13.560000 0.091872 0
13.565000 0.066698 0
13.570000 0.043573 0
13.575000 0.022083 0
13.580000 0.000642 0
13.585000 -0.023722 0
13.590000 -0.054784 0
13.595000 -0.095049 0
13.600000 -0.142410 0
13.605000 -0.187275 0
13.610000 -0.212456 2
13.615000 -0.196466 0
13.620000 -0.118411 0
13.625000 0.036880 0
13.630000 0.271633 0
13.635000 0.564199 0
13.640000 0.860701 0
13.645000 1.082905 0
13.650000 1.158427 3
13.655000 1.060886 0
13.660000 0.819801 0
13.665000 0.503252 0
13.670000 0.186268 0
13.675000 -0.075856 0
13.680000 -0.255594 0
13.685000 -0.348136 0
13.690000 -0.364291 4
13.695000 -0.325449 0
13.700000 -0.258066 0
13.705000 -0.186307 0
13.710000 -0.125759 0
13.715000 -0.081681 0
13.720000 -0.051854 0
13.725000 -0.031082 0
13.730000 -0.014527 0
13.735000 0.001013 0
13.740000 0.017218 0
13.745000 0.034812 0
13.750000 0.054037 0
13.755000 0.074924 0
13.760000 0.097392 0
13.765000 0.121291 0
13.770000 0.146407 0
13.775000 0.172466 0
13.780000 0.199135 0
13.785000 0.226027 0
13.790000 0.252710 0
13.795000 0.278716 0
13.800000 0.303551 0
13.805000 0.326716 0
13.810000 0.347719 0
13.815000 0.366089 0
13.820000 0.381402 0
13.825000 0.393289 0
13.830000 0.401451 0
13.835000 0.405676 0
13.840000 0.405844 5
13.845000 0.401934 0
13.850000 0.394020 0
13.855000 0.382277 0
13.860000 0.366968 0
13.865000 0.348436 0
13.870000 0.327089 0
13.875000 0.303387 0
13.880000 0.277827 0
13.885000 0.250919 0
13.890000 0.223177 0
13.895000 0.195096 0
13.900000 0.167145 0
13.905000 0.139746 0
13.910000 0.113275 0
13.915000 0.088044 0
13.920000 0.064310 0
13.925000 0.042262 0
13.930000 0.022032 0
13.935000 0.003691 0
13.940000 -0.012738 0
13.945000 -0.027280 0
13.950000 -0.039998 0
13.955000 -0.050985 0
13.960000 -0.060356 0
13.965000 -0.068244 0
13.970000 -0.074787 0
13.975000 -0.080131 0
13.980000 -0.084419 0
13.985000 -0.087787 0
13.990000 -0.090365 0
13.995000 -0.092272 0
14.000000 -0.093616 0
14.005000 -0.094494 0
14.010000 -0.094988 0
14.015000 -0.095171 0
14.020000 -0.095105 0
14.025000 -0.094841 0
14.030000 -0.094351 0
14.035000 -0.093440 0
14.040000 -0.092533 0
14.045000 -0.091630 0
14.050000 -0.090733 0
14.055000 -0.089839 0
14.060000 -0.088950 0
14.065000 -0.088066 0
14.070000 -0.087186 0
14.075000 -0.086310 0
14.080000 -0.085439 0
14.085000 -0.084572 0
14.090000 -0.083709 0
14.095000 -0.082851 0
14.100000 -0.081996 0
14.105000 -0.081145 0
14.110000 -0.080297 0
14.115000 -0.079451 0
14.120000 -0.078606 0
14.125000 -0.077758 0
14.130000 -0.076902 0
14.135000 -0.076029 0
14.140000 -0.075127 0
14.145000 -0.074174 0
14.150000 -0.073137 0
14.155000 -0.071968 0
14.160000 -0.070600 0
14.165000 -0.068934 0
14.170000 -0.066843 0
14.175000 -0.064155 0
14.180000 -0.060656 0
14.185000 -0.056087 0
14.190000 -0.050146 0
14.195000 -0.042501 0
14.200000 -0.032812 0
14.205000 -0.020756 0
14.210000 -0.006068 0
14.215000 0.011414 0
14.220000 0.031700 0
14.225000 0.054607 0
14.230000 0.079722 0
14.235000 0.106386 0
14.240000 0.133704 0
14.245000 0.160579 0
14.250000 0.185778 0
14.255000 0.208020 0
14.260000 0.226083 0
14.265000 0.238916 0
14.270000 0.245735 0
14.275000 0.246108 1
14.280000 0.239994 0
14.285000 0.227755 0
14.290000 0.210113 0
14.295000 0.188087 0
14.300000 0.162888 0
14.305000 0.135816 0
14.310000 0.108140 0
14.315000 0.080999 0
14.320000 0.055289 0
14.325000 0.031529 0
14.330000 0.009630 0
14.335000 -0.011439 0
14.340000 -0.033966 0
14.345000 -0.061360 0
14.350000 -0.096914 0
14.355000 -0.141207 0
14.360000 -0.189013 0
14.365000 -0.227695 0
14.370000 -0.238605 2
14.375000 -0.200979 0
14.380000 -0.096427 0
14.385000 0.086077 0
14.390000 0.342425 0
14.395000 0.643107 0
14.400000 0.928683 0
14.405000 1.122675 0
14.410000 1.162732 3
14.415000 1.034511 0
14.420000 0.775361 0
14.425000 0.454204 0
14.430000 0.141596 0
14.435000 -0.112676 0
14.440000 -0.284874 0
14.445000 -0.371930 0
14.450000 -0.385031 4
14.455000 -0.345069 0
14.460000 -0.277503 0
14.465000 -0.205538 0
14.470000 -0.144311 0
14.475000 -0.099203 0
14.480000 -0.068361 0
14.485000 -0.046865 0
14.490000 -0.029946 0
14.495000 -0.014330 0
14.500000 0.001763 0
14.505000 0.019139 0
14.510000 0.038087 0
14.515000 0.058666 0
14.520000 0.080816 0
14.525000 0.104409 0
14.530000 0.129255 0
14.535000 0.155108 0
14.540000 0.181663 0
14.545000 0.208566 0
14.550000 0.235417 0
14.555000 0.261778 0
14.560000 0.287182 0
14.565000 0.311153 0
14.570000 0.333211 0
14.575000 0.352895 0
14.580000 0.369776 0
14.585000 0.383471 0
14.590000 0.393658 0
14.595000 0.400089 0
14.600000 0.402600 5
14.605000 0.401115 0
14.610000 0.395653 0
14.615000 0.386324 0
14.620000 0.373327 0
14.625000 0.356944 0
14.630000 0.337525 0
14.635000 0.315480 0
14.640000 0.291262 0
14.645000 0.265352 0
14.650000 0.238245 0
14.655000 0.210428 0
14.660000 0.182375 0
14.665000 0.154526 0
14.670000 0.127281 0
14.675000 0.100990 0
14.680000 0.075949 0
14.685000 0.052396 0
14.690000 0.030508 0
14.695000 0.010407 0
14.700000 -0.007839 0
14.705000 -0.024212 0
14.710000 -0.038735 0
14.715000 -0.051467 0
14.720000 -0.062497 0
14.725000 -0.071935 0
14.730000 -0.079906 0
14.735000 -0.086544 0
14.740000 -0.091989 0
14.745000 -0.096377 0
14.750000 -0.099842 0
14.755000 -0.102508 0
14.760000 -0.104494 0
14.765000 -0.105904 0
14.770000 -0.106835 0
14.775000 -0.107368 0
14.780000 -0.107578 0
14.785000 -0.107525 0
14.790000 -0.107263 0
14.795000 -0.106836 0
14.800000 -0.105942 0
14.805000 -0.104972 0
14.810000 -0.104008 0
14.815000 -0.103048 0
14.820000 -0.102094 0
14.825000 -0.101144 0
14.830000 -0.100198 0
14.835000 -0.099258 0
14.840000 -0.098322 0
14.845000 -0.097391 0
14.850000 -0.096464 0
14.855000 -0.095542 0
14.860000 -0.094625 0
14.865000 -0.093712 0
14.870000 -0.092803 0
14.875000 -0.091897 0
14.880000 -0.090996 0
14.885000 -0.090096 0
14.890000 -0.089196 0
14.895000 -0.088293 0
14.900000 -0.087381 0
14.905000 -0.086451 0
14.910000 -0.085490 0
14.915000 -0.084475 0
14.920000 -0.083373 0
14.925000 -0.082137 0
14.930000 -0.080698 0
14.935000 -0.078961 0
14.940000 -0.076801 0
14.945000 -0.074052 0
14.950000 -0.070508 0
14.955000 -0.065920 0
14.960000 -0.060000 0
14.965000 -0.052431 0
14.970000 -0.042885 0
14.975000 -0.031050 0
14.980000 -0.016664 0
14.985000 0.000442 0
14.990000 0.020305 0
14.995000 0.042780 0
15.000000 0.067516 0
15.005000 0.093929 0
15.010000 0.121210 0
15.015000 0.148349 0
15.020000 0.174192 0
15.025000 0.197511 0
15.030000 0.217106 0
15.035000 0.231902 0
15.040000 0.241047 0
15.045000 0.243994 1
15.050000 0.240554 0
15.055000 0.230917 0
15.060000 0.215633 0
15.065000 0.195562 0
15.070000 0.171793 0
15.075000 0.145544 0
15.080000 0.118061 0
15.085000 0.090519 0
15.090000 0.063921 0
15.095000 0.038993 0
15.100000 0.016032 0
15.105000 -0.005347 0
15.110000 -0.026546 0
15.115000 -0.050182 0
15.120000 -0.079692 0
15.125000 -0.117780 0
15.130000 -0.163737 0
15.135000 -0.210756 0
15.140000 -0.245089 0
15.145000 -0.248017 2
15.150000 -0.199711 0
15.155000 -0.083370 0
15.160000 0.109934 0
15.165000 0.373562 0
15.170000 0.675887 0
15.175000 0.957390 0
15.180000 1.144364 0
15.185000 1.178554 3
15.190000 1.045540 0
15.195000 0.782969 0
15.200000 0.460853 0
15.205000 0.149803 0
15.210000 -0.101112 0
15.215000 -0.269077 0
15.220000 -0.351849 0
15.225000 -0.361336 4
15.230000 -0.319022 0
15.235000 -0.250630 0
15.240000 -0.179154 0
15.245000 -0.119158 0
15.250000 -0.075403 0
15.255000 -0.045630 0
15.260000 -0.024801 0
15.265000 -0.008210 0
15.270000 0.007294 0
15.275000 0.023389 0
15.280000 0.040818 0
15.285000 0.059842 0
15.290000 0.080500 0
15.295000 0.102726 0
15.300000 0.126383 0
15.305000 0.151271 0
15.310000 0.177136 0
15.315000 0.203665 0
15.320000 0.230494 0
15.325000 0.257213 0
15.330000 0.283376 0
15.335000 0.308512 0
15.340000 0.332137 0
15.345000 0.353772 0
15.350000 0.372954 0
15.355000 0.389257 0
15.360000 0.402304 0
15.365000 0.411782 0
15.370000 0.417456 0
15.375000 0.419174 5
15.380000 0.416878 0
15.385000 0.410602 0
15.390000 0.400475 0
15.395000 0.386715 0
15.400000 0.369618 0
15.405000 0.349551 0
15.410000 0.326938 0
15.415000 0.302242 0
15.420000 0.275953 0
15.425000 0.248567 0
15.430000 0.220576 0
15.435000 0.192450 0
15.440000 0.164623 0
15.445000 0.137490 0
15.450000 0.111390 0
15.455000 0.086608 0
15.460000 0.063368 0
15.465000 0.041835 0
15.470000 0.022118 0
15.475000 0.004273 0
15.480000 -0.011693 0
15.485000 -0.025814 0
15.490000 -0.038159 0
15.495000 -0.048823 0
15.500000 -0.057921 0
15.505000 -0.065584 0
15.510000 -0.071948 0
15.515000 -0.077153 0
15.520000 -0.081337 0
15.525000 -0.084631 0
15.530000 -0.087161 0
15.535000 -0.089039 0
15.540000 -0.090371 0
15.545000 -0.091247 0
15.550000 -0.091749 0
15.555000 -0.091946 0
15.560000 -0.091898 0
15.565000 -0.091654 0
15.570000 -0.091185 0
15.575000 -0.090289 0
15.580000 -0.089398 0
15.585000 -0.088511 0
15.590000 -0.087629 0
15.595000 -0.086751 0
15.600000 -0.085878 0
15.605000 -0.085008 0
15.610000 -0.084144 0
15.615000 -0.083283 0
15.620000 -0.082427 0
15.625000 -0.081575 0
15.630000 -0.080727 0
15.635000 -0.079883 0
15.640000 -0.079044 0
15.645000 -0.078208 0
15.650000 -0.077375 0
15.655000 -0.076545 0
15.660000 -0.075715 0
15.665000 -0.074885 0
15.670000 -0.074048 0
15.675000 -0.073199 0
15.680000 -0.072327 0
15.685000 -0.071415 0
15.690000 -0.070435 0
15.695000 -0.069350 0
15.700000 -0.068102 0
15.705000 -0.066611 0
15.710000 -0.064770 0
15.715000 -0.062433 0
15.720000 -0.059417 0
15.725000 -0.055493 0
15.730000 -0.050392 0
15.735000 -0.043808 0
15.740000 -0.035413 0
15.745000 -0.024882 0
15.750000 -0.011917 0
15.755000 0.003705 0
15.760000 0.022096 0
15.765000 0.043209 0
15.770000 0.066800 0
15.775000 0.092399 0
15.780000 0.119304 0
15.785000 0.146592 0
15.790000 0.173163 0
15.795000 0.197804 0
15.800000 0.219281 0
15.805000 0.236436 0
15.810000 0.248291 0
15.815000 0.254140 1
15.820000 0.253618 0
15.825000 0.246741 0
15.830000 0.233897 0
15.835000 0.215821 0
15.840000 0.193516 0
15.845000 0.168163 0
15.850000 0.141021 0
15.855000 0.113316 0
15.860000 0.086146 0
15.865000 0.060380 0
15.870000 0.036528 0
15.875000 0.014531 0
15.880000 -0.006552 0
15.885000 -0.028846 0
15.890000 -0.055588 0
15.895000 -0.090079 0
15.900000 -0.133360 0
15.905000 -0.181283 0
15.910000 -0.222692 0
15.915000 -0.240292 2
15.920000 -0.214032 0
15.925000 -0.125306 0
15.930000 0.038627 0
15.935000 0.278115 0
15.940000 0.571627 0
15.945000 0.868995 0
15.950000 1.098341 0
15.955000 1.191453 3
15.960000 1.116877 0
15.965000 0.894869 0
15.970000 0.586207 0
15.975000 0.263594 0
15.980000 -0.015083 0
15.985000 -0.217592 0
15.990000 -0.334488 0
15.995000 -0.372404 4
16.000000 -0.349074 0
16.005000 -0.288814 0
16.010000 -0.216274 0
16.015000 -0.149915 0
16.020000 -0.098626 0
16.025000 -0.062845 0
16.030000 -0.038398 0
16.035000 -0.020233 0
16.040000 -0.004465 0
16.045000 0.011214 0
16.050000 0.027929 0
16.055000 0.046131 0
16.060000 0.065951 0
16.065000 0.087369 0
16.070000 0.110287 0
16.075000 0.134540 0
16.080000 0.159908 0
16.085000 0.186114 0
16.090000 0.212829 0
16.095000 0.239675 0
16.100000 0.266232 0
16.105000 0.292049 0
16.110000 0.316658 0
16.115000 0.339582 0
16.120000 0.360354 0
16.125000 0.378531 0
16.130000 0.393710 0
16.135000 0.405542 0
16.140000 0.413744 0
16.145000 0.418111 0
16.150000 0.418527 5
16.155000 0.414961 0
16.160000 0.407480 0
16.165000 0.396236 0
16.170000 0.381468 0
16.175000 0.363491 0
16.180000 0.342681 0
16.185000 0.319469 0
16.190000 0.294318 0
16.195000 0.267714 0
16.200000 0.240145 0
16.205000 0.212090 0
16.210000 0.184005 0
16.215000 0.156309 0
16.220000 0.129379 0
16.225000 0.103537 0
16.230000 0.079051 0
16.235000 0.056132 0
16.240000 0.034930 0
16.245000 0.015543 0
16.250000 -0.001983 0
16.255000 -0.017647 0
16.260000 -0.031490 0
16.265000 -0.043581 0
16.270000 -0.054019 0
16.275000 -0.062920 0
16.280000 -0.070412 0
16.285000 -0.076631 0
16.290000 -0.081714 0
16.295000 -0.085796 0
16.300000 -0.089005 0
16.305000 -0.091465 0
16.310000 -0.093287 0
16.315000 -0.094571 0
16.320000 -0.095409 0
16.325000 -0.095878 0
16.330000 -0.096047 0
16.335000 -0.095974 0
16.340000 -0.095708 0
16.345000 -0.095218 0
16.350000 -0.094302 0
16.355000 -0.093391 0
16.360000 -0.092484 0
16.365000 -0.091582 0
16.370000 -0.090684 0
16.375000 -0.089791 0
16.380000 -0.088903 0
16.385000 -0.088018 0
16.390000 -0.087139 0
16.395000 -0.086263 0
16.400000 -0.085392 0
16.405000 -0.084525 0
16.410000 -0.083663 0
16.415000 -0.082804 0
16.420000 -0.081949 0
16.425000 -0.081098 0
16.430000 -0.080250 0
16.435000 -0.079402 0
16.440000 -0.078554 0
16.445000 -0.077702 0
16.450000 -0.076838 0
16.455000 -0.075954 0
16.460000 -0.075033 0
16.465000 -0.074052 0
16.470000 -0.072975 0
16.475000 -0.071751 0
16.480000 -0.070305 0
16.485000 -0.068539 0
16.490000 -0.066319 0
16.495000 -0.063472 0
16.500000 -0.059787 0
16.505000 -0.055007 0
16.510000 -0.048839 0
16.515000 -0.040967 0
16.520000 -0.031065 0
16.525000 -0.018831 0
16.530000 -0.004019 0
16.535000 0.013519 0
16.540000 0.033791 0
16.545000 0.056620 0
16.550000 0.081622 0
16.555000 0.108180 0
16.560000 0.135459 0
16.565000 0.162431 0
16.570000 0.187936 0
16.575000 0.210756 0
16.580000 0.229710 0
16.585000 0.243758 0
16.590000 0.252090 0
16.595000 0.254207 1
16.600000 0.249968 0
16.605000 0.239604 0
16.610000 0.223699 0
16.615000 0.203136 0
16.620000 0.179011 0
16.625000 0.152540 0
16.630000 0.124958 0
16.635000 0.097415 0
16.640000 0.070886 0
16.645000 0.046066 0
16.650000 0.023203 0
16.655000 0.001853 0
16.660000 -0.019455 0
16.665000 -0.043393 0
16.670000 -0.073383 0
16.675000 -0.111994 0
16.680000 -0.158262 0
16.685000 -0.205099 0
16.690000 -0.238588 0
16.695000 -0.240046 2
16.700000 -0.189845 0
16.705000 -0.071491 0
16.710000 0.123566 0
16.715000 0.388280 0
16.720000 0.690761 0
16.725000 0.971632 0
16.730000 1.157779 0
16.735000 1.191609 3
16.740000 1.056470 0
16.745000 0.790713 0
16.750000 0.467530 0
16.755000 0.159476 0
16.760000 -0.084449 0
16.765000 -0.242784 0
16.770000 -0.315108 0
16.775000 -0.315360 4
16.780000 -0.266939 0
16.785000 -0.196605 0
16.790000 -0.126906 0
16.795000 -0.070772 0
16.800000 -0.031110 0
16.805000 -0.004463 0
16.810000 0.014539 0
16.815000 0.030367 0
16.820000 0.045773 0
16.825000 0.062122 0
16.830000 0.079967 0
16.835000 0.099474 0
16.840000 0.120634 0
16.845000 0.143343 0
16.850000 0.167433 0
16.855000 0.192670 0
16.860000 0.218759 0
16.865000 0.245348 0
16.870000 0.272035 0
16.875000 0.298370 0
16.880000 0.323875 0
16.885000 0.348050 0
16.890000 0.370392 0
16.895000 0.390410 0
16.900000 0.407647 0
16.905000 0.421689 0
16.910000 0.432188 0
16.915000 0.438872 0
16.920000 0.441557 5
16.925000 0.440155 0
16.930000 0.434678 0
16.935000 0.425236 0
16.940000 0.412036 0
16.945000 0.395373 0
16.950000 0.375615 0
16.955000 0.353195 0
16.960000 0.328590 0
16.965000 0.302307 0
16.970000 0.274862 0
16.975000 0.246767 0
16.980000 0.218513 0
16.985000 0.190553 0
16.990000 0.163297 0
16.995000 0.137098 0
17.000000 0.112251 0
17.005000 0.088986 0
17.010000 0.067472 0
17.015000 0.047816 0
17.020000 0.030070 0
17.025000 0.014237 0
17.030000 0.000277 0
17.035000 -0.011888 0
17.040000 -0.022361 0
17.045000 -0.031265 0
17.050000 -0.038738 0
17.055000 -0.044923 0
17.060000 -0.049965 0
17.065000 -0.054005 0
17.070000 -0.057179 0
17.075000 -0.059612 0
17.080000 -0.061421 0
17.085000 -0.062707 0
17.090000 -0.063562 0
17.095000 -0.064066 0
17.100000 -0.064286 0
17.105000 -0.064279 0
17.110000 -0.064094 0
17.115000 -0.063416 0
17.120000 -0.062659 0
17.125000 -0.061906 0
17.130000 -0.061156 0
17.135000 -0.060411 0
17.140000 -0.059669 0
17.145000 -0.058930 0
17.150000 -0.058195 0
17.155000 -0.057464 0
17.160000 -0.056737 0
17.165000 -0.056013 0
17.170000 -0.055293 0
17.175000 -0.054576 0
17.180000 -0.053863 0
17.185000 -0.053152 0
17.190000 -0.052445 0
17.195000 -0.051739 0
17.200000 -0.051034 0
17.205000 -0.050327 0
17.210000 -0.049615 0
17.215000 -0.048890 0
17.220000 -0.048142 0
17.225000 -0.047353 0
17.230000 -0.046496 0
17.235000 -0.045533 0
17.240000 -0.044403 0
17.245000 -0.043024 0
17.250000 -0.041282 0
17.255000 -0.039025 0
17.260000 -0.036059 0
17.265000 -0.032143 0
17.270000 -0.026991 0
17.275000 -0.020283 0
17.280000 -0.011675 0
17.285000 -0.000832 0
17.290000 0.012545 0
17.295000 0.028669 0
17.300000 0.047623 0
17.305000 0.069313 0
17.310000 0.093426 0
17.315000 0.119406 0
17.320000 0.146450 0
17.325000 0.173534 0
17.330000 0.199464 0
17.335000 0.222961 0
17.340000 0.242757 0
17.345000 0.257711 0
17.350000 0.266915 0
17.355000 0.269782 1
17.360000 0.266111 0
17.365000 0.256107 0
17.370000 0.240360 0
17.375000 0.219788 0
17.380000 0.195548 0
17.385000 0.168926 0
17.390000 0.141222 0
17.395000 0.113646 0
17.400000 0.087204 0
17.405000 0.062581 0
17.410000 0.039947 0
17.415000 0.018657 0
17.420000 -0.003109 0
17.425000 -0.028443 0
17.430000 -0.060933 0
17.435000 -0.102495 0
17.440000 -0.150237 0
17.445000 -0.194059 0
17.450000 -0.216947 2
17.455000 -0.198231 0
17.460000 -0.118098 0
17.465000 0.037724 0
17.470000 0.271301 0
17.475000 0.562458 0
17.480000 0.860906 0
17.485000 1.092563 0
17.490000 1.186163 3
17.495000 1.105377 0
17.500000 0.872887 0
17.505000 0.558137 0
17.510000 0.240369 0
17.515000 -0.021620 0
17.520000 -0.198920 0
17.525000 -0.287013 0
17.530000 -0.298010 4
17.535000 -0.255092 0
17.540000 -0.186196 0
17.545000 -0.115808 0
17.550000 -0.058547 0
17.555000 -0.018163 0
17.560000 0.008715 0
17.565000 0.027682 0
17.570000 0.043423 0
17.575000 0.058789 0
17.580000 0.075166 0
17.585000 0.093098 0
17.590000 0.112736 0
17.595000 0.134060 0
17.600000 0.156951 0
17.605000 0.181220 0
17.610000 0.206613 0
17.615000 0.232808 0
17.620000 0.259424 0
17.625000 0.286026 0
17.630000 0.312134 0
17.635000 0.337239 0
17.640000 0.360815 0
17.645000 0.382338 0
17.650000 0.401304 0
17.655000 0.417250 0
17.660000 0.429769 0
17.665000 0.438529 0
17.670000 0.443286 0
17.675000 0.443895 5
17.680000 0.440315 0
17.685000 0.432615 0
17.690000 0.420965 0
17.695000 0.405635 0
17.700000 0.386983 0
17.705000 0.365435 0
17.710000 0.341478 0
17.715000 0.315633 0
17.720000 0.288439 0
17.725000 0.260436 0
17.730000 0.232143 0
17.735000 0.204047 0
17.740000 0.176586 0
17.745000 0.150143 0
17.750000 0.125037 0
17.755000 0.101518 0
17.760000 0.079773 0
17.765000 0.059919 0
17.770000 0.042016 0
17.775000 0.026070 0
17.780000 0.012038 0
17.785000 -0.000158 0
17.790000 -0.010627 0
17.795000 -0.019499 0
17.800000 -0.026918 0
17.805000 -0.033034 0
17.810000 -0.037998 0
17.815000 -0.041958 0
17.820000 -0.045054 0
17.825000 -0.047416 0
17.830000 -0.049161 0
17.835000 -0.050396 0
17.840000 -0.051211 0
17.845000 -0.051687 0
17.850000 -0.051891 0
17.855000 -0.051881 0
17.860000 -0.051702 0
17.865000 -0.051078 0
17.870000 -0.050383 0
17.875000 -0.049691 0
17.880000 -0.049002 0
17.885000 -0.048317 0
17.890000 -0.047635 0
17.895000 -0.046957 0
17.900000 -0.046282 0
17.905000 -0.045610 0
17.910000 -0.044942 0
17.915000 -0.044277 0
17.920000 -0.043615 0
17.925000 -0.042956 0
17.930000 -0.042300 0
17.935000 -0.041647 0
17.940000 -0.040996 0
17.945000 -0.040345 0
17.950000 -0.039693 0
17.955000 -0.039036 0
17.960000 -0.038367 0
17.965000 -0.037677 0
17.970000 -0.036947 0
17.975000 -0.036151 0
17.980000 -0.035249 0
17.985000 -0.034182 0
17.990000 -0.032864 0
17.995000 -0.031176 0
18.000000 -0.028961 0
18.005000 -0.026013 0
18.010000 -0.022079 0
18.015000 -0.016857 0
18.020000 -0.010009 0
18.025000 -0.001174 0
18.030000 0.009996 0
18.035000 0.023802 0
18.040000 0.040449 0
18.045000 0.059990 0
18.050000 0.082278 0
18.055000 0.106924 0
18.060000 0.133277 0
18.065000 0.160424 0
18.070000 0.187231 0
18.075000 0.212406 0
18.080000 0.234603 0
18.085000 0.252530 0
18.090000 0.265080 0
18.095000 0.271438 1
18.100000 0.271167 0
18.105000 0.264259 0
18.110000 0.251134 0
18.115000 0.232599 0
18.120000 0.209766 0
18.125000 0.183934 0
18.130000 0.156473 0
18.135000 0.128699 0
18.140000 0.101752 0
18.145000 0.076481 0
18.150000 0.053259 0
18.155000 0.031694 0
18.160000 0.010240 0
18.165000 -0.014044 0
18.170000 -0.044929 0
18.175000 -0.084992 0
18.180000 -0.132295 0
18.185000 -0.177466 0
18.190000 -0.203493 2
18.195000 -0.188945 0
18.200000 -0.112852 0
18.205000 0.040190 0
18.210000 0.272887 0
18.215000 0.564396 0
18.220000 0.861730 0
18.225000 1.087020 0
18.230000 1.167204 3
18.235000 1.072639 0
18.240000 0.831843 0
18.245000 0.514834 0
18.250000 0.198766 0
18.255000 -0.060152 0
18.260000 -0.234709 0
18.265000 -0.321065 0
18.270000 -0.331343 4
18.275000 -0.288329 0
18.280000 -0.219410 0
18.285000 -0.148677 0
18.290000 -0.090708 0
18.295000 -0.049476 0
18.300000 -0.021868 0
18.305000 -0.002409 0
18.310000 0.013593 0
18.315000 0.029062 0
18.320000 0.045450 0
18.325000 0.063345 0
18.330000 0.082922 0
18.335000 0.104173 0
18.340000 0.126994 0
18.345000 0.151207 0
18.350000 0.176573 0
18.355000 0.202787 0
18.360000 0.229485 0
18.365000 0.256250 0
18.370000 0.282619 0
18.375000 0.308098 0
18.380000 0.332174 0
18.385000 0.354331 0
18.390000 0.374070 0
18.395000 0.390927 0
18.400000 0.404487 0
18.405000 0.414405 0
18.410000 0.420418 0
18.415000 0.422355 5
18.420000 0.420147 0
18.425000 0.413829 0
18.430000 0.403537 0
18.435000 0.389506 0
18.440000 0.372058 0
18.445000 0.351590 0
18.450000 0.328561 0
18.455000 0.303470 0
18.460000 0.276842 0
18.465000 0.249206 0
18.470000 0.221082 0
18.475000 0.192961 0
18.480000 0.165294 0
18.485000 0.138479 0
18.490000 0.112857 0
18.495000 0.088702 0
18.500000 0.066227 0
18.505000 0.045577 0
18.510000 0.026836 0
18.515000 0.010036 0
18.520000 -0.004843 0
18.525000 -0.017861 0
18.530000 -0.029110 0
18.535000 -0.038707 0
18.540000 -0.046788 0
18.545000 -0.053496 0
18.550000 -0.058980 0
18.555000 -0.063388 0
18.560000 -0.066860 0
18.565000 -0.069531 0
18.570000 -0.071524 0
18.575000 -0.072948 0
18.580000 -0.073902 0
18.585000 -0.074472 0
18.590000 -0.074732 0
18.595000 -0.074743 0
18.600000 -0.074560 0
18.605000 -0.074154 0
18.610000 -0.073343 0
18.615000 -0.072537 0
18.620000 -0.071734 0
18.625000 -0.070936 0
18.630000 -0.070141 0
18.635000 -0.069350 0
18.640000 -0.068564 0
18.645000 -0.067781 0
18.650000 -0.067002 0
18.655000 -0.066227 0
18.660000 -0.065456 0
18.665000 -0.064688 0
18.670000 -0.063925 0
18.675000 -0.063164 0
18.680000 -0.062407 0
18.685000 -0.061652 0
18.690000 -0.060898 0
18.695000 -0.060142 0
18.700000 -0.059382 0
18.705000 -0.058609 0
18.710000 -0.057814 0
18.715000 -0.056979 0
18.720000 -0.056076 0
18.725000 -0.055066 0
18.730000 -0.053888 0
18.735000 -0.052457 0
18.740000 -0.050655 0
18.745000 -0.048326 0
18.750000 -0.045268 0
18.755000 -0.041232 0
18.760000 -0.035922 0
18.765000 -0.029007 0
18.770000 -0.020134 0
18.775000 -0.008961 0
18.780000 0.004809 0
18.785000 0.021383 0
18.790000 0.040822 0
18.795000 0.062996 0
18.800000 0.087545 0
18.805000 0.113852 0
18.810000 0.141048 0
18.815000 0.168041 0
18.820000 0.193583 0
18.825000 0.216352 0
18.830000 0.235071 0
18.835000 0.248619 0
18.840000 0.256147 0
18.845000 0.257159 1
18.850000 0.251570 0
18.855000 0.239715 0
18.860000 0.222313 0
18.865000 0.200399 0
18.870000 0.175215 0
18.875000 0.148099 0
18.880000 0.120363 0
18.885000 0.093179 0
18.890000 0.067467 0
18.895000 0.043742 0
18.900000 0.021873 0
18.905000 0.000716 0
18.910000 -0.022200 0
18.915000 -0.050452 0
18.920000 -0.087268 0
18.925000 -0.132630 0
18.930000 -0.180078 0
18.935000 -0.215404 0
18.940000 -0.218674 2
18.945000 -0.168594 0
18.950000 -0.047307 0
18.955000 0.153891 0
18.960000 0.425419 0
18.965000 0.728893 0
18.970000 0.996089 0
18.975000 1.148627 3
18.980000 1.133181 0
18.985000 0.951202 0
18.990000 0.658119 0
18.995000 0.333092 0
19.000000 0.044399 0
19.005000 -0.167956 0
19.010000 -0.290985 0
19.015000 -0.330844 4
19.020000 -0.306659 0
19.025000 -0.245065 0
19.030000 -0.172712 0
19.035000 -0.108658 0
19.040000 -0.060954 0
19.045000 -0.028688 0
19.050000 -0.006761 0
19.055000 0.010096 0
19.060000 0.025518 0
19.065000 0.041456 0
19.070000 0.058760 0
19.075000 0.077720 0
19.080000 0.098381 0
19.085000 0.120665 0
19.090000 0.144418 0
19.095000 0.169419 0
19.100000 0.195382 0
19.105000 0.221959 0
19.110000 0.248745 0
19.115000 0.275287 0
19.120000 0.301093 0
19.125000 0.325650 0
19.130000 0.348435 0
19.135000 0.368938 0
19.140000 0.386676 0
19.145000 0.401215 0
19.150000 0.412184 0
19.155000 0.419293 0
19.160000 0.422343 5
19.165000 0.421236 0
19.170000 0.415978 0
19.175000 0.406680 0
19.180000 0.393556 0
19.185000 0.376909 0
19.190000 0.357124 0
19.195000 0.334650 0
19.200000 0.309984 0
19.205000 0.283651 0
19.210000 0.256188 0
19.215000 0.228121 0
19.220000 0.199955 0
19.225000 0.172155 0
19.230000 0.145135 0
19.235000 0.119250 0
19.240000 0.094792 0
19.245000 0.071987 0
19.250000 0.050993 0
19.255000 0.031908 0
19.260000 0.014771 0
19.265000 -0.000430 0
19.270000 -0.013747 0
19.275000 -0.025271 0
19.280000 -0.035116 0
19.285000 -0.043417 0
19.290000 -0.050317 0
19.295000 -0.055967 0
19.300000 -0.060516 0
19.305000 -0.064107 0
19.310000 -0.066878 0
19.315000 -0.068953 0
19.320000 -0.070444 0
19.325000 -0.071454 0
19.330000 -0.072070 0
19.335000 -0.072368 0
19.340000 -0.072410 0
19.345000 -0.072252 0
19.350000 -0.071868 0
19.355000 -0.071068 0
19.360000 -0.070273 0
19.365000 -0.069482 0
19.370000 -0.068694 0
19.375000 -0.067911 0
19.380000 -0.067131 0
19.385000 -0.066356 0
19.390000 -0.065584 0
19.395000 -0.064816 0
19.400000 -0.064052 0
19.405000 -0.063292 0
19.410000 -0.062535 0
19.415000 -0.061782 0
19.420000 -0.061032 0
19.425000 -0.060285 0
19.430000 -0.059541 0
19.435000 -0.058797 0
19.440000 -0.058052 0
19.445000 -0.057302 0
19.450000 -0.056539 0
19.455000 -0.055754 0
19.460000 -0.054927 0
19.465000 -0.054031 0
19.470000 -0.053024 0
19.475000 -0.051845 0
19.480000 -0.050407 0
19.485000 -0.048587 0
19.490000 -0.046226 0
19.495000 -0.043117 0
19.500000 -0.039004 0
19.505000 -0.033585 0
19.510000 -0.026523 0
19.515000 -0.017462 0
19.520000 -0.006058 0
19.525000 0.007983 0
19.530000 0.024856 0
19.535000 0.044604 0
19.540000 0.067074 0
19.545000 0.091869 0
19.550000 0.118337 0
19.555000 0.145568 0
19.560000 0.172435 0
19.565000 0.197658 0
19.570000 0.219903 0
19.575000 0.237896 0
19.580000 0.250540 0
19.585000 0.257027 1
19.590000 0.256922 0
19.595000 0.250210 0
19.600000 0.237301 0
19.605000 0.218985 0
19.610000 0.196353 0
19.615000 0.170687 0
19.620000 0.143343 0
19.625000 0.115627 0
19.630000 0.088681 0
19.635000 0.063362 0
19.640000 0.040078 0
19.645000 0.018504 0
19.650000 -0.002796 0
19.655000 -0.026630 0
19.660000 -0.056715 0
19.665000 -0.095832 0
19.670000 -0.142631 0
19.675000 -0.188632 0
19.680000 -0.217685 2
19.685000 -0.208834 0
19.690000 -0.141020 0
19.695000 0.001964 0
19.700000 0.224908 0
19.705000 0.510888 0
19.710000 0.811852 0
19.715000 1.052874 0
19.720000 1.158489 3
19.725000 1.092732 0
19.730000 0.874701 0
19.735000 0.566730 0
19.740000 0.244543 0
19.745000 -0.031818 0
19.750000 -0.229603 0
19.755000 -0.340017 0
19.760000 -0.370999 4
19.765000 -0.341929 0
19.770000 -0.278558 0
19.775000 -0.206027 0
19.780000 -0.142070 0
19.785000 -0.094134 0
19.790000 -0.061347 0
19.795000 -0.038876 0
19.800000 -0.021639 0
19.805000 -0.006039 0
19.810000 0.009919 0
19.815000 0.027137 0
19.820000 0.045946 0
19.825000 0.066415 0
19.830000 0.088487 0
19.835000 0.112032 0
19.840000 0.136852 0
19.845000 0.162693 0
19.850000 0.189239 0
19.855000 0.216121 0
19.860000 0.242922 0
19.865000 0.269186 0
19.870000 0.294430 0
19.875000 0.318158 0
19.880000 0.339877 0
19.885000 0.359113 0
19.890000 0.375428 0
19.895000 0.388436 0
19.900000 0.397819 0
19.905000 0.403339 0
19.910000 0.404844 5
19.915000 0.402282 0
19.920000 0.395695 0
19.925000 0.385226 0
19.930000 0.371106 0
19.935000 0.353648 0
19.940000 0.333240 0
19.945000 0.310320 0
19.950000 0.285372 0
19.955000 0.258898 0
19.960000 0.231410 0
19.965000 0.203407 0
19.970000 0.175366 0
19.975000 0.147725 0
19.980000 0.120874 0
19.985000 0.095148 0
19.990000 0.070823 0
19.995000 0.048112 0
20.000000 0.027168 0
20.005000 0.008086 0
20.010000 -0.009095 0
20.015000 -0.024381 0
20.020000 -0.037820 0
20.025000 -0.049492 0
20.030000 -0.059505 0
20.035000 -0.067983 0
20.040000 -0.075063 0
20.045000 -0.080887 0
20.050000 -0.085597 0
20.055000 -0.089333 0
20.060000 -0.092227 0
20.065000 -0.094402 0
20.070000 -0.095970 0
20.075000 -0.097032 0
20.080000 -0.097675 0
20.085000 -0.097978 0
20.090000 -0.098005 0
20.095000 -0.097813 0
20.100000 -0.097448 0
20.105000 -0.096603 0
20.110000 -0.095680 0
20.115000 -0.094762 0
20.120000 -0.093848 0
20.125000 -0.092940 0
20.130000 -0.092035 0
20.135000 -0.091135 0
20.140000 -0.090240 0
20.145000 -0.089349 0
20.150000 -0.088463 0
20.155000 -0.087581 0
20.160000 -0.086703 0
20.165000 -0.085829 0
20.170000 -0.084960 0
20.175000 -0.084095 0
20.180000 -0.083233 0
20.185000 -0.082374 0
20.190000 -0.081516 0
20.195000 -0.080658 0
20.200000 -0.079795 0
20.205000 -0.078920 0
20.210000 -0.078025 0
20.215000 -0.077091 0
20.220000 -0.076093 0
20.225000 -0.074994 0
20.230000 -0.073736 0
20.235000 -0.072242 0
20.240000 -0.070401 0
20.245000 -0.068068 0
20.250000 -0.065057 0
20.255000 -0.061135 0
20.260000 -0.056026 0
20.265000 -0.049418 0
20.270000 -0.040975 0
20.275000 -0.030360 0
20.280000 -0.017273 0
20.285000 -0.001485 0
20.290000 0.017110 0
20.295000 0.038454 0
20.300000 0.062278 0
20.305000 0.088080 0
20.310000 0.115115 0
20.315000 0.142413 0
20.320000 0.168825 0
20.325000 0.193100 0
20.330000 0.213974 0
20.335000 0.230283 0
20.340000 0.241068 0
20.345000 0.245668 1
20.350000 0.243784 0
20.355000 0.235518 0
20.360000 0.221357 0
20.365000 0.202127 0
20.370000 0.178915 0
20.375000 0.152965 0
20.380000 0.125568 0
20.385000 0.097955 0
20.390000 0.071192 0
20.395000 0.046067 0
20.400000 0.022935 0
20.405000 0.001461 0
20.410000 -0.019735 0
20.415000 -0.043313 0
20.420000 -0.072814 0
20.425000 -0.111035 0
20.430000 -0.157177 0
20.435000 -0.203992 0
20.440000 -0.236970 2
20.445000 -0.236568 0
20.450000 -0.182377 0
20.455000 -0.057572 0
20.460000 0.145698 0
20.465000 0.417675 0
20.470000 0.721246 0
20.475000 0.990979 0
20.480000 1.151109 0
20.485000 1.151832 3
20.490000 0.990897 0
20.495000 0.712967 0
20.500000 0.388354 0
20.505000 0.083439 0
20.510000 -0.157759 0
20.515000 -0.315995 0
20.520000 -0.390896 0
20.525000 -0.395110 4
20.530000 -0.350069 0
20.535000 -0.280816 0
20.540000 -0.209384 0
20.545000 -0.149562 0
20.550000 -0.105771 0
20.555000 -0.075768 0
20.560000 -0.054655 0
20.565000 -0.037831 0
20.570000 -0.022182 0
20.575000 -0.006015 0
20.580000 0.011432 0
20.585000 0.030437 0
20.590000 0.051053 0
20.595000 0.073223 0
20.600000 0.096822 0
20.605000 0.121665 0
20.610000 0.147512 0
20.615000 0.174069 0
20.620000 0.200991 0
20.625000 0.227889 0
20.630000 0.254336 0
20.635000 0.279879 0
20.640000 0.304051 0
20.645000 0.326382 0
20.650000 0.346419 0
20.655000 0.363736 0
20.660000 0.377952 0
20.665000 0.388742 0
20.670000 0.395851 0
20.675000 0.399104 5
20.680000 0.398411 0
20.685000 0.393772 0
20.690000 0.385277 0
20.695000 0.373105 0
20.700000 0.357511 0
20.705000 0.338825 0
20.710000 0.317435 0
20.715000 0.293775 0
20.720000 0.268310 0
20.725000 0.241523 0
20.730000 0.213893 0
20.735000 0.185890 0
20.740000 0.157957 0
20.745000 0.130497 0
20.750000 0.103873 0
20.755000 0.078390 0
20.760000 0.054302 0
20.765000 0.031804 0
20.770000 0.011035 0
20.775000 -0.007918 0
20.780000 -0.025018 0
20.785000 -0.040274 0
20.790000 -0.053728 0
20.795000 -0.065457 0
20.800000 -0.075560 0
20.805000 -0.084154 0
20.810000 -0.091366 0
20.815000 -0.097331 0
20.820000 -0.102185 0
20.825000 -0.106060 0
20.830000 -0.109083 0
20.835000 -0.111374 0
20.840000 -0.113041 0
20.845000 -0.114184 0
20.850000 -0.114891 0
20.855000 -0.115238 0
20.860000 -0.115291 0
20.865000 -0.115109 0
20.870000 -0.114738 0
20.875000 -0.114147 0
20.880000 -0.113137 0
20.885000 -0.112132 0
20.890000 -0.111132 0
20.895000 -0.110136 0
20.900000 -0.109146 0
20.905000 -0.108161 0
20.910000 -0.107181 0
20.915000 -0.106205 0
20.920000 -0.105235 0
20.925000 -0.104269 0
20.930000 -0.103308 0
20.935000 -0.102352 0
20.940000 -0.101401 0
20.945000 -0.100454 0
20.950000 -0.099511 0
20.955000 -0.098572 0
20.960000 -0.097637 0
20.965000 -0.096703 0
20.970000 -0.095769 0
20.975000 -0.094831 0
20.980000 -0.093884 0
20.985000 -0.092917 0
20.990000 -0.091917 0
20.995000 -0.090860 0
21.000000 -0.089713 0
21.005000 -0.088426 0
21.010000 -0.086931 0
21.015000 -0.085131 0
21.020000 -0.082901 0
21.025000 -0.080075 0
21.030000 -0.076450 0
21.035000 -0.071779 0
21.040000 -0.065779 0
21.045000 -0.058139 0
21.050000 -0.048539 0
21.055000 -0.036672 0
21.060000 -0.022284 0
21.065000 -0.005207 0
21.070000 0.014597 0
21.075000 0.036994 0
21.080000 0.061647 0
21.085000 0.087997 0
21.090000 0.115267 0
21.095000 0.142481 0
21.100000 0.168517 0
21.105000 0.192178 0
21.110000 0.212282 0
21.115000 0.227756 0
21.120000 0.237735 0
21.125000 0.241637 1
21.130000 0.239225 0
21.135000 0.230626 0
21.140000 0.216321 0
21.145000 0.197102 0
21.150000 0.173999 0
21.155000 0.148188 0
21.160000 0.120892 0
21.165000 0.093283 0
21.170000 0.066392 0
21.175000 0.041008 0
21.180000 0.017548 0
21.185000 -0.004155 0
21.190000 -0.025165 0
21.195000 -0.047702 0
21.200000 -0.074994 0
21.205000 -0.110155 0
21.210000 -0.153890 0
21.215000 -0.201735 0
21.220000 -0.242478 0
21.225000 -0.259132 2
21.230000 -0.232204 0
21.235000 -0.143657 0
21.240000 0.018925 0
21.245000 0.256209 0
21.250000 0.548160 0
21.255000 0.847366 0
21.260000 1.084715 0
21.265000 1.192438 3
21.270000 1.132958 0
21.275000 0.920945 0
21.280000 0.615967 0
21.285000 0.292329 0
21.290000 0.010478 0
21.295000 -0.195376 0
21.300000 -0.314794 0
21.305000 -0.354138 4
21.310000 -0.331326 0
21.315000 -0.271124 0
21.320000 -0.198665 0
21.325000 -0.132674 0
21.330000 -0.082005 0
21.335000 -0.046889 0
21.340000 -0.022969 0
21.345000 -0.005124 0
21.350000 0.010509 0
21.355000 0.026178 0
21.360000 0.042954 0
21.365000 0.061258 0
21.370000 0.081200 0
21.375000 0.102752 0
21.380000 0.125800 0
21.385000 0.150171 0
21.390000 0.175631 0
21.395000 0.201889 0
21.400000 0.228601 0
21.405000 0.255371 0
21.410000 0.281766 0
21.415000 0.307321 0
21.420000 0.331553 0
21.425000 0.353978 0
21.430000 0.374123 0
21.435000 0.391543 0
21.440000 0.405840 0
21.445000 0.416674 0
21.450000 0.423777 0
21.455000 0.426963 5
21.460000 0.426139 0
21.465000 0.421303 0
21.470000 0.412550 0
21.475000 0.400066 0
21.480000 0.384120 0
21.485000 0.365056 0
21.490000 0.343281 0
21.495000 0.319245 0
21.500000 0.293434 0
21.505000 0.266346 0
21.510000 0.238476 0
21.515000 0.210306 0
21.520000 0.182287 0
21.525000 0.154830 0
21.530000 0.128294 0
21.535000 0.102986 0
21.540000 0.079152 0
21.545000 0.056978 0
21.550000 0.036593 0
21.555000 0.018069 0
21.560000 0.001431 0
21.565000 -0.013343 0
21.570000 -0.026311 0
21.575000 -0.037560 0
21.580000 -0.047200 0
21.585000 -0.055358 0
21.590000 -0.062170 0
21.595000 -0.067774 0
21.600000 -0.072311 0
21.605000 -0.075915 0
21.610000 -0.078714 0
21.615000 -0.080825 0
21.620000 -0.082356 0
21.625000 -0.083403 0
21.630000 -0.084051 0
21.635000 -0.084374 0
21.640000 -0.084432 0
21.645000 -0.084281 0
21.650000 -0.083964 0
21.655000 -0.083183 0
21.660000 -0.082327 0
21.665000 -0.081476 0
21.670000 -0.080629 0
21.675000 -0.079786 0
21.680000 -0.078947 0
21.685000 -0.078113 0
21.690000 -0.077282 0
21.695000 -0.076456 0
21.700000 -0.075634 0
21.705000 -0.074816 0
21.710000 -0.074002 0
21.715000 -0.073191 0
21.720000 -0.072385 0
21.725000 -0.071583 0
21.730000 -0.070783 0
21.735000 -0.069986 0
21.740000 -0.069191 0
21.745000 -0.068394 0
21.750000 -0.067593 0
21.755000 -0.066782 0
21.760000 -0.065950 0
21.765000 -0.065083 0
21.770000 -0.064157 0
21.775000 -0.063135 0
21.780000 -0.061967 0
21.785000 -0.060579 0
21.790000 -0.058869 0
21.795000 -0.056701 0
21.800000 -0.053902 0
21.805000 -0.050253 0
21.810000 -0.045494 0
21.815000 -0.039324 0
21.820000 -0.031418 0
21.825000 -0.021447 0
21.830000 -0.009103 0
21.835000 0.005861 0
21.840000 0.023586 0
21.845000 0.044065 0
21.850000 0.067101 0
21.855000 0.092276 0
21.860000 0.118936 0
21.865000 0.146201 0
21.870000 0.173000 0
21.875000 0.198135 0
21.880000 0.220362 0
21.885000 0.238493 0
21.890000 0.251501 0
21.895000 0.258614 0
21.900000 0.259389 1
21.905000 0.253761 0
21.910000 0.242047 0
21.915000 0.224919 0
21.920000 0.203336 0
21.925000 0.178457 0
21.930000 0.151538 0
21.935000 0.123824 0
21.940000 0.096451 0
21.945000 0.070342 0
21.950000 0.046091 0
21.955000 0.023765 0
21.960000 0.002610 0
21.965000 -0.019279 0
21.970000 -0.044991 0
21.975000 -0.077961 0
21.980000 -0.119851 0
21.985000 -0.167593 0
21.990000 -0.211228 0
21.995000 -0.234258 2
22.000000 -0.216729 0
22.005000 -0.139433 0
22.010000 0.011754 0
22.015000 0.239802 0
22.020000 0.527288 0
22.025000 0.828440 0
22.030000 1.073283 0
22.035000 1.190589 3
22.040000 1.140725 0
22.045000 0.936284 0
22.050000 0.634773 0
22.055000 0.310291 0
22.060000 0.024485 0
22.065000 -0.186859 0
22.070000 -0.312009 0
22.075000 -0.356376 4
22.080000 -0.337163 0
22.085000 -0.278762 0
22.090000 -0.206442 0
22.095000 -0.139513 0
22.100000 -0.087550 0
22.105000 -0.051321 0
22.110000 -0.026685 0
22.115000 -0.008498 0
22.120000 0.007223 0
22.125000 0.022843 0
22.130000 0.039509 0
22.135000 0.057678 0
22.140000 0.077480 0
22.145000 0.098894 0
22.150000 0.121816 0
22.155000 0.146078 0
22.160000 0.171451 0
22.165000 0.197653 0
22.170000 0.224343 0
22.175000 0.251135 0
22.180000 0.277598 0
22.185000 0.303272 0
22.190000 0.327678 0
22.195000 0.350331 0
22.200000 0.370760 0
22.205000 0.388517 0
22.210000 0.403199 0
22.215000 0.414459 0
22.220000 0.422021 0
22.225000 0.425691 5
22.230000 0.425364 0
22.235000 0.421027 0
22.240000 0.412764 0
22.245000 0.400747 0
22.250000 0.385235 0
22.255000 0.366563 0
22.260000 0.345127 0
22.265000 0.321374 0
22.270000 0.295781 0
22.275000 0.268845 0
22.280000 0.241062 0
22.285000 0.212913 0
22.290000 0.184853 0
22.295000 0.157298 0
22.300000 0.130615 0
22.305000 0.105115 0
22.310000 0.081055 0
22.315000 0.058628 0
22.320000 0.037971 0
22.325000 0.019165 0
22.330000 0.002240 0
22.335000 -0.012818 0
22.340000 -0.026061 0
22.345000 -0.037572 0
22.350000 -0.047459 0
22.355000 -0.055844 0
22.360000 -0.062862 0
22.365000 -0.068651 0
22.370000 -0.073352 0
22.375000 -0.077098 0
22.380000 -0.080019 0
22.385000 -0.082234 0
22.390000 -0.083852 0
22.395000 -0.084971 0
22.400000 -0.085677 0
22.405000 -0.086045 0
22.410000 -0.086139 0
22.415000 -0.086015 0
22.420000 -0.085718 0
22.425000 -0.084932 0
22.430000 -0.084068 0
22.435000 -0.083208 0
22.440000 -0.082352 0
22.445000 -0.081500 0
22.450000 -0.080653 0
22.455000 -0.079810 0
22.460000 -0.078971 0
22.465000 -0.078136 0
22.470000 -0.077306 0
22.475000 -0.076479 0
22.480000 -0.075657 0
22.485000 -0.074839 0
22.490000 -0.074024 0
22.495000 -0.073214 0
22.500000 -0.072406 0
22.505000 -0.071602 0
22.510000 -0.070799 0
22.515000 -0.069996 0
22.520000 -0.069189 0
22.525000 -0.068374 0
22.530000 -0.067541 0
22.535000 -0.066676 0
22.540000 -0.065759 0
22.545000 -0.064757 0
22.550000 -0.063621 0
22.555000 -0.062286 0
22.560000 -0.060656 0
22.565000 -0.058605 0
22.570000 -0.055968 0
22.575000 -0.052540 0
22.580000 -0.048070 0
22.585000 -0.042267 0
22.590000 -0.034814 0
22.595000 -0.025379 0
22.600000 -0.013647 0
22.605000 0.000646 0
22.610000 0.017671 0
22.615000 0.037465 0
22.620000 0.059882 0
22.625000 0.084563 0
22.630000 0.110917 0
22.635000 0.138125 0
22.640000 0.165164 0
22.645000 0.190866 0
22.650000 0.213993 0
22.655000 0.233338 0
22.660000 0.247824 0
22.665000 0.256602 0
22.670000 0.259139 1
22.675000 0.255262 0
22.680000 0.245186 0
22.685000 0.229486 0
22.690000 0.209047 0
22.695000 0.184977 0
22.700000 0.158513 0
22.705000 0.130908 0
22.710000 0.103335 0
22.715000 0.076787 0
22.720000 0.051965 0
22.725000 0.029115 0
22.730000 0.007762 0
22.735000 -0.013629 0
22.740000 -0.037824 0
22.745000 -0.068304 0
22.750000 -0.107549 0
22.755000 -0.154228 0
22.760000 -0.200596 0
22.765000 -0.231979 2
22.770000 -0.229114 0
22.775000 -0.172180 0
22.780000 -0.045018 0
22.785000 0.159654 0
22.790000 0.431936 0
22.795000 0.735475 0
22.800000 1.006582 0
22.805000 1.171205 0
22.810000 1.176398 3
22.815000 1.016028 0
22.820000 0.735128 0
22.825000 0.409882 0
22.830000 0.110577 0
22.835000 -0.118423 0
22.840000 -0.259938 0
22.845000 -0.316731 4
22.850000 -0.305138 0
22.855000 -0.250058 0
22.860000 -0.178272 0
22.865000 -0.110815 0
22.870000 -0.058408 0
22.875000 -0.022160 0
22.880000 0.002218 0
22.885000 0.020112 0
22.890000 0.035638 0
22.895000 0.051186 0
22.900000 0.067879 0
22.905000 0.086145 0
22.910000 0.106091 0
22.915000 0.127680 0
22.920000 0.150787 0
22.925000 0.175223 0
22.930000 0.200735 0
22.935000 0.227007 0
22.940000 0.253668 0
22.945000 0.280296 0
22.950000 0.306426 0
22.955000 0.331567 0
22.960000 0.355209 0
22.965000 0.376848 0
22.970000 0.395996 0
22.975000 0.412202 0
22.980000 0.425071 0
22.985000 0.434274 0
22.990000 0.439565 0
22.995000 0.440794 5
23.000000 0.437906 0
23.005000 0.430950 0
23.010000 0.420074 0
23.015000 0.405521 0
23.020000 0.387619 0
23.025000 0.366768 0
23.030000 0.343425 0
23.035000 0.318084 0
23.040000 0.291265 0
23.045000 0.263490 0
23.050000 0.235270 0
23.055000 0.207085 0
23.060000 0.179377 0
23.065000 0.152536 0
23.070000 0.126895 0
23.075000 0.102723 0
23.080000 0.080224 0
23.085000 0.059541 0
23.090000 0.040757 0
23.095000 0.023900 0
23.100000 0.008952 0
23.105000 -0.004147 0
23.110000 -0.015488 0
23.115000 -0.025187 0
23.120000 -0.033375 0
23.125000 -0.040195 0
23.130000 -0.045794 0
23.135000 -0.050316 0
23.140000 -0.053902 0
23.145000 -0.056684 0
23.150000 -0.058784 0
23.155000 -0.060312 0
23.160000 -0.061365 0
23.165000 -0.062030 0
23.170000 -0.062379 0
23.175000 -0.062476 0
23.180000 -0.062373 0
23.185000 -0.062043 0
23.190000 -0.061293 0
23.195000 -0.060546 0
23.200000 -0.059803 0
23.205000 -0.059064 0
23.210000 -0.058329 0
23.215000 -0.057597 0
23.220000 -0.056869 0
23.225000 -0.056145 0
23.230000 -0.055424 0
23.235000 -0.054707 0
23.240000 -0.053993 0
23.245000 -0.053283 0
23.250000 -0.052576 0
23.255000 -0.051872 0
23.260000 -0.051171 0
23.265000 -0.050473 0
23.270000 -0.049775 0
23.275000 -0.049077 0
23.280000 -0.048374 0
23.285000 -0.047662 0
23.290000 -0.046930 0
23.295000 -0.046163 0
23.300000 -0.045339 0
23.305000 -0.044420 0
23.310000 -0.043354 0
23.315000 -0.042066 0
23.320000 -0.040449 0
23.325000 -0.038363 0
23.330000 -0.035622 0
23.335000 -0.031998 0
23.340000 -0.027212 0
23.345000 -0.020949 0
23.350000 -0.012867 0
23.355000 -0.002620 0
23.360000 0.010107 0
23.365000 0.025554 0
23.370000 0.043842 0
23.375000 0.064922 0
23.380000 0.088529 0
23.385000 0.114159 0
23.390000 0.141053 0
23.395000 0.168220 0
23.400000 0.194484 0
23.405000 0.218560 0
23.410000 0.239156 0
23.415000 0.255086 0
23.420000 0.265379 0
23.425000 0.269379 1
23.430000 0.266812 0
23.435000 0.257816 0
23.440000 0.242926 0
23.445000 0.223023 0
23.450000 0.199245 0
23.455000 0.172881 0
23.460000 0.145250 0
23.465000 0.117593 0
23.470000 0.090961 0
23.475000 0.066094 0
23.480000 0.043242 0
23.485000 0.021864 0
23.490000 0.000266 0
23.495000 -0.024561 0
23.500000 -0.056264 0
23.505000 -0.097061 0
23.510000 -0.144575 0
23.515000 -0.189229 0
23.520000 -0.214278 2
23.525000 -0.198950 0
23.530000 -0.123021 0
23.535000 0.028424 0
23.540000 0.258381 0
23.545000 0.547810 0
23.550000 0.847242 0
23.555000 1.082375 0
23.560000 1.180537 3
23.565000 1.104762 0
23.570000 0.874815 0
23.575000 0.560621 0
23.580000 0.242779 0
23.585000 -0.018844 0
23.590000 -0.194979 0
23.595000 -0.281278 0
23.600000 -0.290339 4
23.605000 -0.245964 0
23.610000 -0.176562 0
23.615000 -0.106659 0
23.620000 -0.050482 0
23.625000 -0.011249 0
23.630000 0.014771 0
23.635000 0.033274 0
23.640000 0.048864 0
23.645000 0.064273 0
23.650000 0.080791 0
23.655000 0.098909 0
23.660000 0.118754 0
23.665000 0.140287 0
23.670000 0.163378 0
23.675000 0.187826 0
23.680000 0.213361 0
23.685000 0.239645 0
23.690000 0.266281 0
23.695000 0.292818 0
23.700000 0.318762 0
23.705000 0.343590 0
23.710000 0.366765 0
23.715000 0.387758 0
23.720000 0.406064 0
23.725000 0.421224 0
23.730000 0.432840 0
23.735000 0.440595 0
23.740000 0.444268 5
23.745000 0.443736 0
23.750000 0.438989 0
23.755000 0.430125 0
23.760000 0.417348 0
23.765000 0.400960 0
23.770000 0.381347 0
23.775000 0.358964 0
23.780000 0.334319 0
23.785000 0.307950 0
23.790000 0.280408 0
23.795000 0.252234 0
23.800000 0.223949 0
23.805000 0.196029 0
23.810000 0.168902 0
23.815000 0.142930 0
23.820000 0.118413 0
23.825000 0.095580 0
23.830000 0.074589 0
23.835000 0.055538 0
23.840000 0.038461 0
23.845000 0.023343 0
23.850000 0.010125 0
23.855000 -0.001290 0
23.860000 -0.011021 0
23.865000 -0.019209 0
23.870000 -0.026003 0
23.875000 -0.031558 0
23.880000 -0.036025 0
23.885000 -0.039552 0
23.890000 -0.042276 0
23.895000 -0.044323 0
23.900000 -0.045805 0
23.905000 -0.046823 0
23.910000 -0.047464 0
23.915000 -0.047802 0
23.920000 -0.047899 0
23.925000 -0.047808 0
23.930000 -0.047213 0
23.935000 -0.046537 0
23.940000 -0.045864 0
23.945000 -0.045194 0
23.950000 -0.044528 0
23.955000 -0.043865 0
23.960000 -0.043205 0
23.965000 -0.042549 0
23.970000 -0.041896 0
23.975000 -0.041246 0
23.980000 -0.040600 0
23.985000 -0.039956 0
23.990000 -0.039316 0
23.995000 -0.038678 0
24.000000 -0.038044 0
24.005000 -0.037411 0
24.010000 -0.036779 0
24.015000 -0.036146 0
24.020000 -0.035510 0
24.025000 -0.034863 0
24.030000 -0.034197 0
24.035000 -0.033497 0
24.040000 -0.032738 0
24.045000 -0.031883 0
24.050000 -0.030876 0
24.055000 -0.029637 0
24.060000 -0.028053 0
24.065000 -0.025972 0
24.070000 -0.023195 0
24.075000 -0.019474 0
24.080000 -0.014510 0
24.085000 -0.007964 0
24.090000 0.000528 0
24.095000 0.011325 0
24.100000 0.024743 0
24.105000 0.041007 0
24.110000 0.060192 0
24.115000 0.082176 0
24.120000 0.106594 0
24.125000 0.132810 0
24.130000 0.159921 0
24.135000 0.186790 0
24.140000 0.212114 0
24.145000 0.234523 0
24.150000 0.252700 0
24.155000 0.265503 0
24.160000 0.272089 1
24.165000 0.272000 0
24.170000 0.265213 0
24.175000 0.252149 0
24.180000 0.233623 0
24.185000 0.210764 0
24.190000 0.184894 0
24.195000 0.157405 0
24.200000 0.129632 0
24.205000 0.102728 0
24.210000 0.077540 0
24.215000 0.054417 0
24.220000 0.032906 0
24.225000 0.011346 0
24.230000 -0.013347 0
24.235000 -0.045004 0
24.240000 -0.085976 0
24.245000 -0.133653 0
24.250000 -0.177629 0
24.255000 -0.199882 2
24.260000 -0.178416 0
24.265000 -0.092348 0
24.270000 0.072692 0
24.275000 0.316663 0
24.280000 0.613602 0
24.285000 0.904377 0
24.290000 1.108036 0
24.295000 1.155538 3
24.300000 1.027949 0
24.305000 0.766186 0
24.310000 0.443822 0
24.315000 0.134944 0
24.320000 -0.110041 0
24.325000 -0.268932 0
24.330000 -0.341147 4
24.335000 -0.340826 0
24.340000 -0.291765 0
24.345000 -0.221107 0
24.350000 -0.151561 0
24.355000 -0.095921 0
24.360000 -0.056819 0
24.365000 -0.030574 0
24.370000 -0.011737 0
24.375000 0.004131 0
24.380000 0.019712 0
24.385000 0.036310 0
24.390000 0.054440 0
24.395000 0.074250 0
24.400000 0.095717 0
24.405000 0.118732 0
24.410000 0.143112 0
24.415000 0.168614 0
24.420000 0.194931 0
24.425000 0.221699 0
24.430000 0.248499 0
24.435000 0.274873 0
24.440000 0.300329 0
24.445000 0.324357 0
24.450000 0.346448 0
24.455000 0.366110 0
24.460000 0.382883 0
24.465000 0.396361 0
24.470000 0.406203 0
24.475000 0.412154 0
24.480000 0.414046 5
24.485000 0.411812 0
24.490000 0.405489 0
24.495000 0.395214 0
24.500000 0.381219 0
24.505000 0.363824 0
24.510000 0.343421 0
24.515000 0.320465 0
24.520000 0.295450 0
24.525000 0.268894 0
24.530000 0.241323 0
24.535000 0.213251 0
24.540000 0.185166 0
24.545000 0.157515 0
24.550000 0.130696 0
24.555000 0.105049 0
24.560000 0.080849 0
24.565000 0.058310 0
24.570000 0.037580 0
24.575000 0.018746 0
24.580000 0.001843 0
24.585000 -0.013145 0
24.590000 -0.026275 0
24.595000 -0.037634 0
24.600000 -0.047339 0
24.605000 -0.055521 0
24.610000 -0.062321 0
24.615000 -0.067888 0
24.620000 -0.072366 0
24.625000 -0.075898 0
24.630000 -0.078617 0
24.635000 -0.080645 0
24.640000 -0.082093 0
24.645000 -0.083062 0
24.650000 -0.083637 0
24.655000 -0.083894 0
24.660000 -0.083895 0
24.665000 -0.083694 0
24.670000 -0.083262 0
24.675000 -0.082406 0
24.680000 -0.081555 0
24.685000 -0.080707 0
24.690000 -0.079864 0
24.695000 -0.079024 0
24.700000 -0.078190 0
24.705000 -0.077359 0
24.710000 -0.076532 0
24.715000 -0.075710 0
24.720000 -0.074891 0
24.725000 -0.074077 0
24.730000 -0.073266 0
24.735000 -0.072460 0
24.740000 -0.071657 0
24.745000 -0.070857 0
24.750000 -0.070061 0
24.755000 -0.069265 0
24.760000 -0.068470 0
24.765000 -0.067671 0
24.770000 -0.066862 0
24.775000 -0.066034 0
24.780000 -0.065172 0
24.785000 -0.064252 0
24.790000 -0.063239 0
24.795000 -0.062077 0
24.800000 -0.060692 0
24.805000 -0.058977 0
24.810000 -0.056790 0
24.815000 -0.053943 0
24.820000 -0.050206 0
24.825000 -0.045300 0
24.830000 -0.038906 0
24.835000 -0.030679 0
24.840000 -0.020274 0
24.845000 -0.007376 0
24.850000 0.008255 0
24.855000 0.026733 0
24.860000 0.048003 0
24.865000 0.071792 0
24.870000 0.097581 0
24.875000 0.124598 0
24.880000 0.151838 0
24.885000 0.178114 0
24.890000 0.202131 0
24.895000 0.222595 0
24.900000 0.238324 0
24.905000 0.248357 0
24.910000 0.252056 1
24.915000 0.249169 0
24.920000 0.239861 0
24.925000 0.224694 0
24.930000 0.204572 0
24.935000 0.180653 0
24.940000 0.154236 0
24.945000 0.126645 0
24.950000 0.099115 0
24.955000 0.072683 0
24.960000 0.048060 0
24.965000 0.025445 0
24.970000 0.004214 0
24.975000 -0.017453 0
24.980000 -0.042676 0
24.985000 -0.075096 0
24.990000 -0.116653 0
24.995000 -0.164358 0
25.000000 -0.207837 0
25.005000 -0.229689 2
25.010000 -0.208897 0
25.015000 -0.125471 0
25.020000 0.034675 0
25.025000 0.272693 0
25.030000 0.566366 0
25.035000 0.862546 0
25.040000 1.085107 0
25.045000 1.163662 3
25.050000 1.068922 0
25.055000 0.828755 0
25.060000 0.512178 0
25.065000 0.195496 0
25.070000 -0.065292 0
25.075000 -0.242656 0
25.080000 -0.332210 0
25.085000 -0.345423 4
25.090000 -0.304430 0
25.095000 -0.236217 0
25.100000 -0.164969 0
25.105000 -0.105778 0
25.110000 -0.063232 0
25.115000 -0.034622 0
25.120000 -0.014586 0
25.125000 0.001648 0
25.130000 0.017135 0
25.135000 0.033431 0
25.140000 0.051183 0
25.145000 0.070598 0
25.150000 0.091682 0
25.155000 0.114342 0
25.160000 0.138414 0
25.165000 0.163669 0
25.170000 0.189816 0
25.175000 0.216505 0
25.180000 0.243332 0
25.185000 0.269848 0
25.190000 0.295569 0
25.195000 0.319991 0
25.200000 0.342606 0
25.205000 0.362915 0
25.210000 0.380452 0
25.215000 0.394796 0
25.220000 0.405590 0
25.225000 0.412557 0
25.230000 0.415505 5
25.235000 0.414343 0
25.240000 0.409079 0
25.245000 0.399823 0
25.250000 0.386784 0
25.255000 0.370257 0
25.260000 0.350617 0
25.265000 0.328299 0
25.270000 0.303789 0
25.275000 0.277598 0
25.280000 0.250249 0
25.285000 0.222260 0
25.290000 0.194126 0
25.295000 0.166305 0
25.300000 0.139208 0
25.305000 0.113191 0
25.310000 0.088547 0
25.315000 0.065506 0
25.320000 0.044235 0
25.325000 0.024838 0
25.330000 0.007364 0
25.335000 -0.008189 0
25.340000 -0.021866 0
25.345000 -0.033747 0
25.350000 -0.043938 0
25.355000 -0.052568 0
25.360000 -0.059776 0
25.365000 -0.065707 0
25.370000 -0.070507 0
25.375000 -0.074320 0
25.380000 -0.077280 0
25.385000 -0.079514 0
25.390000 -0.081136 0
25.395000 -0.082249 0
25.400000 -0.082943 0
25.405000 -0.083297 0
25.410000 -0.083376 0
25.415000 -0.083238 0
25.420000 -0.082928 0
25.425000 -0.082152 0
25.430000 -0.081302 0
25.435000 -0.080456 0
25.440000 -0.079613 0
25.445000 -0.078776 0
25.450000 -0.077942 0
25.455000 -0.077112 0
25.460000 -0.076287 0
25.465000 -0.075466 0
25.470000 -0.074648 0
25.475000 -0.073835 0
25.480000 -0.073026 0
25.485000 -0.072221 0
25.490000 -0.071419 0
25.495000 -0.070621 0
25.500000 -0.069826 0
25.505000 -0.069033 0
25.510000 -0.068241 0
25.515000 -0.067446 0
25.520000 -0.066644 0
25.525000 -0.065827 0
25.530000 -0.064982 0
25.535000 -0.064089 0
25.540000 -0.063117 0
25.545000 -0.062020 0
25.550000 -0.060731 0
25.555000 -0.059155 0
25.560000 -0.057165 0
25.565000 -0.054591 0
25.570000 -0.051221 0
25.575000 -0.046793 0
25.580000 -0.041004 0
25.585000 -0.033518 0
25.590000 -0.023987 0
25.595000 -0.012081 0
25.600000 0.002473 0
25.605000 0.019843 0
25.610000 0.040045 0
25.615000 0.062895 0
25.620000 0.087974 0
25.625000 0.114612 0
25.630000 0.141894 0
25.635000 0.168700 0
25.640000 0.193771 0
25.645000 0.215804 0
25.650000 0.233563 0
25.655000 0.245988 0
25.660000 0.252304 1
25.665000 0.252098 0
25.670000 0.245365 0
25.675000 0.232507 0
25.680000 0.214295 0
25.685000 0.191791 0
25.690000 0.166246 0
25.695000 0.138983 0
25.700000 0.111284 0
25.705000 0.084277 0
25.710000 0.058828 0
25.715000 0.035379 0
25.720000 0.013701 0
25.725000 -0.007471 0
25.730000 -0.030720 0
25.735000 -0.059635 0
25.740000 -0.097243 0
25.745000 -0.143090 0
25.750000 -0.190190 0
25.755000 -0.223989 0
25.760000 -0.224570 2
25.765000 -0.170984 0
25.770000 -0.045932 0
25.775000 0.158562 0
25.780000 0.432073 0
25.785000 0.735620 0
25.790000 1.001196 0
25.795000 1.151541 3
25.800000 1.136301 0
25.805000 0.958782 0
25.810000 0.670124 0
25.815000 0.344732 0
25.820000 0.048916 0
25.825000 -0.176275 0
25.830000 -0.315306 0
25.835000 -0.371264 4
25.840000 -0.360002 0
25.845000 -0.305497 0
25.850000 -0.233665 0
25.855000 -0.165207 0
25.860000 -0.111140 0
25.865000 -0.073159 0
25.870000 -0.047424 0
25.875000 -0.028694 0
25.880000 -0.012770 0
25.885000 0.002893 0
25.890000 0.019543 0
25.895000 0.037684 0
25.900000 0.057467 0
25.905000 0.078877 0
25.910000 0.101812 0
25.915000 0.126107 0
25.920000 0.151534 0
25.925000 0.177806 0
25.930000 0.204582 0
25.935000 0.231471 0
25.940000 0.258038 0
25.945000 0.283818 0
25.950000 0.308323 0
25.955000 0.331065 0
25.960000 0.351563 0
25.965000 0.369366 0
25.970000 0.384066 0
25.975000 0.395312 0
25.980000 0.402827 0
25.985000 0.406419 5
25.990000 0.405983 0
25.995000 0.401512 0
26.000000 0.393096 0
26.005000 0.380916 0
26.010000 0.365240 0
26.015000 0.346411 0
26.020000 0.324837 0
26.025000 0.300973 0
26.030000 0.275306 0
26.035000 0.248339 0
26.040000 0.220575 0
26.045000 0.192498 0
26.050000 0.164565 0
26.055000 0.137192 0
26.060000 0.110742 0
26.065000 0.085525 0
26.070000 0.061789 0
26.075000 0.039722 0
26.080000 0.019453 0
26.085000 0.001055 0
26.090000 -0.015450 0
26.095000 -0.030083 0
26.100000 -0.042904 0
26.105000 -0.054003 0
26.110000 -0.063491 0
26.115000 -0.071497 0
26.120000 -0.078158 0
26.125000 -0.083615 0
26.130000 -0.088008 0
26.135000 -0.091474 0
26.140000 -0.094139 0
26.145000 -0.096123 0
26.150000 -0.097533 0
26.155000 -0.098466 0
26.160000 -0.099005 0
26.165000 -0.099223 0
26.170000 -0.099184 0
26.175000 -0.098938 0
26.180000 -0.098531 0
26.185000 -0.097675 0
26.190000 -0.096747 0
26.195000 -0.095824 0
26.200000 -0.094905 0
26.205000 -0.093991 0
26.210000 -0.093081 0
26.215000 -0.092176 0
26.220000 -0.091276 0
26.225000 -0.090380 0
26.230000 -0.089488 0
26.235000 -0.088601 0
26.240000 -0.087718 0
26.245000 -0.086840 0
26.250000 -0.085965 0
26.255000 -0.085095 0
26.260000 -0.084228 0
26.265000 -0.083363 0
26.270000 -0.082500 0
26.275000 -0.081636 0
26.280000 -0.080767 0
26.285000 -0.079885 0
26.290000 -0.078981 0
26.295000 -0.078037 0
26.300000 -0.077026 0
26.305000 -0.075910 0
26.310000 -0.074630 0
26.315000 -0.073108 0
26.320000 -0.071231 0
26.325000 -0.068855 0
26.330000 -0.065791 0
26.335000 -0.061807 0
26.340000 -0.056629 0
26.345000 -0.049946 0
26.350000 -0.041426 0
26.355000 -0.030737 0
26.360000 -0.017584 0
26.365000 -0.001743 0
26.370000 0.016888 0
26.375000 0.038249 0
26.380000 0.062074 0
26.385000 0.087866 0
26.390000 0.114891 0
26.395000 0.142193 0
26.400000 0.168641 0
26.405000 0.192998 0
26.410000 0.214016 0
26.415000 0.230539 0
26.420000 0.241608 0
26.425000 0.246555 1
26.430000 0.245064 0
26.435000 0.237212 0
26.440000 0.223454 0
26.445000 0.204586 0
26.450000 0.181663 0
26.455000 0.155907 0
26.460000 0.128594 0
26.465000 0.100949 0
26.470000 0.074047 0
26.475000 0.048704 0
26.480000 0.025332 0
26.485000 0.003700 0
26.490000 -0.017404 0
26.495000 -0.040437 0
26.500000 -0.068844 0
26.505000 -0.105655 0
26.510000 -0.150829 0
26.515000 -0.198348 0
26.520000 -0.234984 0
26.525000 -0.242010 2
26.530000 -0.199092 0
26.535000 -0.088613 0
26.540000 0.099405 0
26.545000 0.359552 0
26.550000 0.661155 0
26.555000 0.944591 0
26.560000 1.134681 0
26.565000 1.171184 3
26.570000 1.040315 0
26.575000 0.780905 0
26.580000 0.459987 0
26.585000 0.146284 0
26.590000 -0.111155 0
26.595000 -0.288302 0
26.600000 -0.381240 0
26.605000 -0.400000 4
26.610000 -0.364229 0
26.615000 -0.298499 0
26.620000 -0.225958 0
26.625000 -0.162536 0
26.630000 -0.114760 0
26.635000 -0.081683 0
26.640000 -0.058767 0
26.645000 -0.041191 0
26.650000 -0.025450 0
26.655000 -0.009533 0
26.660000 0.007515 0
26.665000 0.026068 0
26.670000 0.046224 0
26.675000 0.067952 0
26.680000 0.091144 0
26.685000 0.115635 0
26.690000 0.141202 0
26.695000 0.167569 0
26.700000 0.194410 0
26.705000 0.221351 0
26.710000 0.247979 0
26.715000 0.273852 0
26.720000 0.298510 0
26.725000 0.321487 0
26.730000 0.342325 0
26.735000 0.360592 0
26.740000 0.375893 0
26.745000 0.387886 0
26.750000 0.396293 0
26.755000 0.400911 0
26.760000 0.401622 5
26.765000 0.398393 0
26.770000 0.391281 0
26.775000 0.380432 0
26.780000 0.366072 0
26.785000 0.348501 0
26.790000 0.328086 0
26.795000 0.305239 0
26.800000 0.280414 0
26.805000 0.254081 0
26.810000 0.226722 0
26.815000 0.198806 0
26.820000 0.170786 0
26.825000 0.143078 0
26.830000 0.116059 0
26.835000 0.090057 0
26.840000 0.065345 0
26.845000 0.042142 0
26.850000 0.020608 0
26.855000 0.000851 0
26.860000 -0.017070 0
26.865000 -0.033146 0
26.870000 -0.047404 0
26.875000 -0.059906 0
26.880000 -0.070740 0
26.885000 -0.080016 0
26.890000 -0.087857 0
26.895000 -0.094392 0
26.900000 -0.099757 0
26.905000 -0.104084 0
26.910000 -0.107504 0
26.915000 -0.110138 0
26.920000 -0.112099 0
26.925000 -0.113491 0
26.930000 -0.114405 0
26.935000 -0.114925 0
26.940000 -0.115120 0
26.945000 -0.115053 0
26.950000 -0.114775 0
26.955000 -0.114329 0
26.960000 -0.113400 0
26.965000 -0.112394 0
26.970000 -0.111392 0
26.975000 -0.110396 0
26.980000 -0.109404 0
26.985000 -0.108418 0
26.990000 -0.107436 0
26.995000 -0.106460 0
27.000000 -0.105488 0
27.005000 -0.104521 0
27.010000 -0.103559 0
27.015000 -0.102601 0
27.020000 -0.101649 0
27.025000 -0.100701 0
27.030000 -0.099757 0
27.035000 -0.098818 0
27.040000 -0.097882 0
27.045000 -0.096949 0
27.050000 -0.096017 0
27.055000 -0.095083 0
27.060000 -0.094144 0
27.065000 -0.093193 0
27.070000 -0.092217 0
27.075000 -0.091200 0
27.080000 -0.090115 0
27.085000 -0.088924 0
27.090000 -0.087571 0
27.095000 -0.085980 0
27.100000 -0.084043 0
27.105000 -0.081623 0
27.110000 -0.078544 0
27.115000 -0.074586 0
27.120000 -0.069494 0
27.125000 -0.062975 0
27.130000 -0.054716 0
27.135000 -0.044399 0
27.140000 -0.031735 0
27.145000 -0.016494 0
27.150000 0.001453 0
27.155000 0.022093 0
27.160000 0.045233 0
27.165000 0.070471 0
27.170000 0.097187 0
27.175000 0.124545 0
27.180000 0.151528 0
27.185000 0.176994 0
27.190000 0.199749 0
27.195000 0.218644 0
27.200000 0.232662 0
27.205000 0.241016 0
27.210000 0.243220 1
27.215000 0.239133 0
27.220000 0.228977 0
27.225000 0.213316 0
27.230000 0.193005 0
27.235000 0.169109 0
27.240000 0.142816 0
27.245000 0.115336 0
27.250000 0.087806 0
27.255000 0.061200 0
27.260000 0.036230 0
27.265000 0.013201 0
27.270000 -0.008224 0
27.275000 -0.029335 0
27.280000 -0.052586 0
27.285000 -0.081290 0
27.290000 -0.118262 0
27.295000 -0.163376 0
27.300000 -0.210933 0
27.305000 -0.248534 0
27.310000 -0.258564 2
27.315000 -0.221660 0
27.320000 -0.120614 0
27.325000 0.055356 0
27.330000 0.304032 0
27.335000 0.601209 0
27.340000 0.895443 0
27.345000 1.116437 0
27.350000 1.200000 3
27.355000 1.116202 0
27.360000 0.885428 0
27.365000 0.572557 0
27.370000 0.252346 0
27.375000 -0.017949 0
27.380000 -0.208265 0
27.385000 -0.311614 0
27.390000 -0.337026 4
27.395000 -0.304478 0
27.400000 -0.239775 0
27.405000 -0.167548 0
27.410000 -0.104719 0
27.415000 -0.058018 0
27.420000 -0.026183 0
27.425000 -0.004307 0
27.430000 0.012596 0
27.435000 0.028011 0
27.440000 0.043848 0
27.445000 0.060965 0
27.450000 0.079676 0
27.455000 0.100041 0
27.460000 0.122001 0
27.465000 0.145423 0
27.470000 0.170111 0
27.475000 0.195809 0
27.480000 0.222202 0
27.485000 0.248925 0
27.490000 0.275560 0
27.495000 0.301655 0
27.500000 0.326730 0
27.505000 0.350293 0
27.510000 0.371854 0
27.515000 0.390942 0
27.520000 0.407122 0
27.525000 0.420011 0
27.530000 0.429291 0
27.535000 0.434724 0
27.540000 0.436160 5
27.545000 0.433543 0
27.550000 0.426914 0
27.555000 0.416411 0
27.560000 0.402261 0
27.565000 0.384774 0
27.570000 0.364329 0
27.575000 0.341364 0
27.580000 0.316354 0
27.585000 0.289800 0
27.590000 0.262208 0
27.595000 0.234077 0
27.600000 0.205881 0
27.605000 0.178057 0
27.610000 0.150998 0
27.615000 0.125039 0
27.620000 0.100459 0
27.625000 0.077474 0
27.630000 0.056242 0
27.635000 0.036859 0
27.640000 0.019371 0
27.645000 0.003775 0
27.650000 -0.009973 0
27.655000 -0.021951 0
27.660000 -0.032263 0
27.665000 -0.041030 0
27.670000 -0.048387 0
27.675000 -0.054477 0
27.680000 -0.059439 0
27.685000 -0.063414 0
27.690000 -0.066533 0
27.695000 -0.068920 0
27.700000 -0.070687 0
27.705000 -0.071937 0
27.710000 -0.072758 0
27.715000 -0.073228 0
27.720000 -0.073415 0
27.725000 -0.073375 0
27.730000 -0.073156 0
27.735000 -0.072732 0
27.740000 -0.071928 0
27.745000 -0.071129 0
27.750000 -0.070333 0
27.755000 -0.069541 0
27.760000 -0.068754 0
27.765000 -0.067970 0
27.770000 -0.067190 0
27.775000 -0.066414 0
27.780000 -0.065642 0
27.785000 -0.064874 0
27.790000 -0.064110 0
27.795000 -0.063349 0
27.800000 -0.062592 0
27.805000 -0.061838 0
27.810000 -0.061087 0
27.815000 -0.060339 0
27.820000 -0.059592 0
27.825000 -0.058844 0
27.830000 -0.058092 0
27.835000 -0.057331 0
27.840000 -0.056550 0
27.845000 -0.055735 0
27.850000 -0.054863 0
27.855000 -0.053899 0
27.860000 -0.052792 0
27.865000 -0.051471 0
27.870000 -0.049833 0
27.875000 -0.047745 0
27.880000 -0.045031 0
27.885000 -0.041474 0
27.890000 -0.036808 0
27.895000 -0.030733 0
27.900000 -0.022919 0
27.905000 -0.013029 0
27.910000 -0.000752 0
27.915000 0.014164 0
27.920000 0.031864 0
27.925000 0.052339 0
27.930000 0.075385 0
27.935000 0.100574 0
27.940000 0.127235 0
27.945000 0.154467 0
27.950000 0.181176 0
27.955000 0.206140 0
27.960000 0.228097 0
27.965000 0.245850 0
27.970000 0.258371 0
27.975000 0.264899 0
27.980000 0.265021 1
27.985000 0.258706 0
27.990000 0.246316 0
27.995000 0.228570 0
28.000000 0.206469 0
28.005000 0.181210 0
28.010000 0.154071 0
28.015000 0.126307 0
28.020000 0.099046 0
28.025000 0.073180 0
28.030000 0.049240 0
28.035000 0.027174 0
28.040000 0.006027 0
28.045000 -0.016378 0
28.050000 -0.043348 0
28.055000 -0.078217 0
28.060000 -0.121906 0
28.065000 -0.169888 0
28.070000 -0.210404 0
28.075000 -0.225535 2
28.080000 -0.194817 0
28.085000 -0.099606 0
28.090000 0.072235 0
28.095000 0.319241 0
28.100000 0.616379 0
28.105000 0.909102 0
28.110000 1.122894 0
28.115000 1.191563 3
28.120000 1.089557 0
28.125000 0.845746 0
28.130000 0.528332 0
28.135000 0.211698 0
28.140000 -0.049643 0
28.145000 -0.228688 0
28.150000 -0.320842 0
28.155000 -0.336928 4
28.160000 -0.298227 0
28.165000 -0.231029 0
28.170000 -0.159368 0
28.175000 -0.098801 0
28.180000 -0.054645 0
28.185000 -0.024760 0
28.190000 -0.004000 0
28.195000 0.012472 0
28.200000 0.027875 0
28.205000 0.043910 0
28.210000 0.061316 0
28.215000 0.080346 0
28.220000 0.101033 0
28.225000 0.123301 0
28.230000 0.147004 0
28.235000 0.171932 0
28.240000 0.197816 0
28.245000 0.224327 0
28.250000 0.251084 0
28.255000 0.277660 0
28.260000 0.303592 0
28.265000 0.328391 0
28.270000 0.351561 0
28.275000 0.372610 0
28.280000 0.391072 0
28.285000 0.406519 0
28.290000 0.418579 0
28.295000 0.426949 0
28.300000 0.431412 0
28.305000 0.431838 5
28.310000 0.428197 0
28.315000 0.420555 0
28.320000 0.409075 0
28.325000 0.394010 0
28.330000 0.375691 0
28.335000 0.354519 0
28.340000 0.330946 0
28.345000 0.305460 0
28.350000 0.278570 0
28.355000 0.250786 0
28.360000 0.222603 0
28.365000 0.194490 0
28.370000 0.166875 0
28.375000 0.140136 0
28.380000 0.114594 0
