0.000000 1.167367 3
0.005000 1.042519 0
0.010000 0.731625 0
0.015000 0.347658 0
0.020000 0.000803 0
0.025000 -0.243804 0
0.030000 -0.367382 0
0.035000 -0.383029 4
0.040000 -0.324121 0
0.045000 -0.232462 0
0.050000 -0.143007 0
0.055000 -0.073221 0
0.060000 -0.023951 0
0.065000 0.012056 0
0.070000 0.042328 0
0.075000 0.071476 0
0.080000 0.101417 0
0.085000 0.132541 0
0.090000 0.164567 0
0.095000 0.196942 0
0.100000 0.228988 0
0.105000 0.259949 0
0.110000 0.289037 0
0.115000 0.315455 0
0.120000 0.338440 0
0.125000 0.357292 0
0.130000 0.371418 0
0.135000 0.380353 0
0.140000 0.383792 5
0.145000 0.381602 0
0.150000 0.373833 0
0.155000 0.360714 0
0.160000 0.342642 0
0.165000 0.320161 0
0.170000 0.293936 0
0.175000 0.264719 0
0.180000 0.233311 0
0.185000 0.200529 0
0.190000 0.167171 0
0.195000 0.133980 0
0.200000 0.101626 0
0.205000 0.070680 0
0.210000 0.041605 0
0.215000 0.014750 0
0.220000 -0.009649 0
0.225000 -0.031463 0
0.230000 -0.050657 0
0.235000 -0.067281 0
0.240000 -0.081450 0
0.245000 -0.093329 0
0.250000 -0.103117 0
0.255000 -0.111035 0
0.260000 -0.117311 0
0.265000 -0.122168 0
0.270000 -0.125823 0
0.275000 -0.128473 0
0.280000 -0.130298 0
0.285000 -0.131135 0
0.290000 -0.130094 0
0.295000 -0.129058 0
0.300000 -0.128027 0
0.305000 -0.127001 0
0.310000 -0.125980 0
0.315000 -0.124962 0
0.320000 -0.123948 0
0.325000 -0.122934 0
0.330000 -0.121916 0
0.335000 -0.120887 0
0.340000 -0.119832 0
0.345000 -0.118727 0
0.350000 -0.117531 0
0.355000 -0.116182 0
0.360000 -0.114579 0
0.365000 -0.112577 0
0.370000 -0.109968 0
0.375000 -0.106470 0
0.380000 -0.101718 0
0.385000 -0.095266 0
0.390000 -0.086602 0
0.395000 -0.075181 0
0.400000 -0.060486 0
0.405000 -0.042106 0
0.410000 -0.019832 0
0.415000 0.006242 0
0.420000 0.035632 0
0.425000 0.067411 0
0.430000 0.100212 0
0.435000 0.132290 0
0.440000 0.161663 0
0.445000 0.186307 0
0.450000 0.204381 0
0.455000 0.214460 0
0.460000 0.215717 1
0.465000 0.208035 0
0.470000 0.192030 0
0.475000 0.168969 0
0.480000 0.140598 0
0.485000 0.108922 0
0.490000 0.075924 0
0.495000 0.043203 0
0.500000 0.011425 0
0.505000 -0.020476 0
0.510000 -0.055955 0
0.515000 -0.100094 0
0.520000 -0.155842 0
0.525000 -0.217741 0
0.530000 -0.267360 0
0.535000 -0.275222 2
0.540000 -0.208726 0
0.545000 -0.041721 0
0.550000 0.233237 0
0.555000 0.585411 0
0.560000 0.930500 0
0.565000 1.149183 3
0.570000 1.148924 0
0.575000 0.924611 0
0.580000 0.563298 0
0.585000 0.185847 0
0.590000 -0.115939 0
0.595000 -0.300690 0
0.600000 -0.367136 4
0.605000 -0.340067 0
0.610000 -0.259336 0
0.615000 -0.165547 0
0.620000 -0.085521 0
0.625000 -0.027324 0
0.630000 0.013712 0
0.635000 0.045765 0
0.640000 0.074967 0
0.645000 0.104357 0
0.650000 0.134885 0
0.655000 0.166494 0
0.660000 0.198718 0
0.665000 0.230914 0
0.670000 0.262349 0
0.675000 0.292233 0
0.680000 0.319760 0
0.685000 0.344141 0
0.690000 0.364637 0
0.695000 0.380601 0
0.700000 0.391510 0
0.705000 0.396989 5
0.710000 0.396837 0
0.715000 0.391035 0
0.720000 0.379748 0
0.725000 0.363318 0
0.730000 0.342246 0
0.735000 0.317163 0
0.740000 0.288805 0
0.745000 0.257967 0
0.750000 0.225477 0
0.755000 0.192149 0
0.760000 0.158758 0
0.765000 0.126005 0
0.770000 0.094502 0
0.775000 0.064751 0
0.780000 0.037139 0
0.785000 0.011940 0
0.790000 -0.010686 0
0.795000 -0.030679 0
0.800000 -0.048066 0
0.805000 -0.062948 0
0.810000 -0.075479 0
0.815000 -0.085854 0
0.820000 -0.094290 0
0.825000 -0.101018 0
0.830000 -0.106267 0
0.835000 -0.110256 0
0.840000 -0.113191 0
0.845000 -0.115257 0
0.850000 -0.116280 0
0.855000 -0.115313 0
0.860000 -0.114350 0
0.865000 -0.113393 0
0.870000 -0.112440 0
0.875000 -0.111491 0
0.880000 -0.110546 0
0.885000 -0.109604 0
0.890000 -0.108663 0
0.895000 -0.107718 0
0.900000 -0.106763 0
0.905000 -0.105784 0
0.910000 -0.104759 0
0.915000 -0.103650 0
0.920000 -0.102397 0
0.925000 -0.100903 0
0.930000 -0.099029 0
0.935000 -0.096574 0
0.940000 -0.093260 0
0.945000 -0.088729 0
0.950000 -0.082539 0
0.955000 -0.074175 0
0.960000 -0.063088 0
0.965000 -0.048751 0
0.970000 -0.030733 0
0.975000 -0.008806 0
0.980000 0.016962 0
0.985000 0.046109 0
0.990000 0.077728 0
0.995000 0.110456 0
1.000000 0.142546 0
1.005000 0.172002 0
1.010000 0.196773 0
1.015000 0.214990 0
1.020000 0.225194 0
1.025000 0.226535 1
1.030000 0.218885 0
1.035000 0.202859 0
1.040000 0.179734 0
1.045000 0.151278 0
1.050000 0.119519 0
1.055000 0.086458 0
1.060000 0.053701 0
1.065000 0.021888 0
1.070000 -0.010126 0
1.075000 -0.045921 0
1.080000 -0.090641 0
1.085000 -0.147010 0
1.090000 -0.208883 0
1.095000 -0.256839 0
1.100000 -0.260595 2
1.105000 -0.187327 0
1.110000 -0.011521 0
1.115000 0.272012 0
1.120000 0.627806 0
1.125000 0.965815 0
1.130000 1.164848 3
1.135000 1.138396 0
1.140000 0.893264 0
1.145000 0.524266 0
1.150000 0.151592 0
1.155000 -0.138323 0
1.160000 -0.309351 0
1.165000 -0.363741 4
1.170000 -0.328537 0
1.175000 -0.244485 0
1.180000 -0.151279 0
1.185000 -0.073648 0
1.190000 -0.017782 0
1.195000 0.021818 0
1.200000 0.053280 0
1.205000 0.082380 0
1.210000 0.111858 0
1.215000 0.142503 0
1.220000 0.174189 0
1.225000 0.206425 0
1.230000 0.238552 0
1.235000 0.269830 0
1.240000 0.299465 0
1.245000 0.326652 0
1.250000 0.350602 0
1.255000 0.370588 0
1.260000 0.385975 0
1.265000 0.396254 0
1.270000 0.401070 5
1.275000 0.400243 0
1.280000 0.393774 0
1.285000 0.381851 0
1.290000 0.364834 0
1.295000 0.343241 0
1.300000 0.317719 0
1.305000 0.289011 0
1.310000 0.257919 0
1.315000 0.225270 0
1.320000 0.191878 0
1.325000 0.158508 0
1.330000 0.125855 0
1.335000 0.094516 0
1.340000 0.064981 0
1.345000 0.037625 0
1.350000 0.012706 0
1.355000 -0.009627 0
1.360000 -0.029326 0
1.365000 -0.046427 0
1.370000 -0.061038 0
1.375000 -0.073319 0
1.380000 -0.083468 0
1.385000 -0.091706 0
1.390000 -0.098262 0
1.395000 -0.103365 0
1.400000 -0.107235 0
1.405000 -0.110073 0
1.410000 -0.112063 0
1.415000 -0.113038 0
1.420000 -0.112088 0
1.425000 -0.111141 0
1.430000 -0.110200 0
1.435000 -0.109263 0
1.440000 -0.108330 0
1.445000 -0.107401 0
1.450000 -0.106474 0
1.455000 -0.105547 0
1.460000 -0.104617 0
1.465000 -0.103675 0
1.470000 -0.102707 0
1.475000 -0.101688 0
1.480000 -0.100580 0
1.485000 -0.099317 0
1.490000 -0.097800 0
1.495000 -0.095882 0
1.500000 -0.093351 0
1.505000 -0.089922 0
1.510000 -0.085226 0
1.515000 -0.078809 0
1.520000 -0.070151 0
1.525000 -0.058703 0
1.530000 -0.043941 0
1.535000 -0.025458 0
1.540000 -0.003054 0
1.545000 0.023157 0
1.550000 0.052659 0
1.555000 0.084486 0
1.560000 0.117224 0
1.565000 0.149083 0
1.570000 0.178048 0
1.575000 0.202076 0
1.580000 0.219338 0
1.585000 0.228442 0
1.590000 0.228625 1
1.595000 0.219852 0
1.600000 0.202830 0
1.605000 0.178909 0
1.610000 0.149905 0
1.615000 0.117861 0
1.620000 0.084750 0
1.625000 0.052094 0
1.630000 0.020354 0
1.635000 -0.011905 0
1.640000 -0.048566 0
1.645000 -0.094761 0
1.650000 -0.152453 0
1.655000 -0.213922 0
1.660000 -0.258043 2
1.665000 -0.253658 0
1.670000 -0.168313 0
1.675000 0.021765 0
1.680000 0.317764 0
1.685000 0.677436 0
1.690000 1.004255 0
1.695000 1.177242 3
1.700000 1.120275 0
1.705000 0.854084 0
1.710000 0.478889 0
1.715000 0.111618 0
1.720000 -0.167753 0
1.725000 -0.327997 0
1.730000 -0.373946 4
1.735000 -0.333735 0
1.740000 -0.247948 0
1.745000 -0.155078 0
1.750000 -0.078428 0
1.755000 -0.023320 0
1.760000 0.015933 0
1.765000 0.047316 0
1.770000 0.076438 0
1.775000 0.105954 0
1.780000 0.136628 0
1.785000 0.168336 0
1.790000 0.200594 0
1.795000 0.232758 0
1.800000 0.264100 0
1.805000 0.293841 0
1.810000 0.321186 0
1.815000 0.345360 0
1.820000 0.365641 0
1.825000 0.381399 0
1.830000 0.392122 0
1.835000 0.397448 5
1.840000 0.397185 0
1.845000 0.391317 0
1.850000 0.380009 0
1.855000 0.363599 0
1.860000 0.342579 0
1.865000 0.317569 0
1.870000 0.289292 0
1.875000 0.258531 0
1.880000 0.226099 0
1.885000 0.192800 0
1.890000 0.159398 0
1.895000 0.126590 0
1.900000 0.094983 0
1.905000 0.065081 0
1.910000 0.037275 0
1.915000 0.011842 0
1.920000 -0.011048 0
1.925000 -0.031327 0
1.930000 -0.049013 0
1.935000 -0.064196 0
1.940000 -0.077024 0
1.945000 -0.087682 0
1.950000 -0.096384 0
1.955000 -0.103354 0
1.960000 -0.108820 0
1.965000 -0.112999 0
1.970000 -0.116096 0
1.975000 -0.118299 0
1.980000 -0.119771 0
1.985000 -0.119143 0
1.990000 -0.118161 0
1.995000 -0.117185 0
2.000000 -0.116213 0
2.005000 -0.115246 0
2.010000 -0.114283 0
2.015000 -0.113322 0
2.020000 -0.112364 0
2.025000 -0.111404 0
2.030000 -0.110435 0
2.035000 -0.109448 0
2.040000 -0.108423 0
2.045000 -0.107328 0
2.050000 -0.106111 0
2.055000 -0.104690 0
2.060000 -0.102943 0
2.065000 -0.100691 0
2.070000 -0.097690 0
2.075000 -0.093615 0
2.080000 -0.088057 0
2.085000 -0.080533 0
2.090000 -0.070510 0
2.095000 -0.057452 0
2.100000 -0.040889 0
2.105000 -0.020507 0
2.110000 0.003755 0
2.115000 0.031607 0
2.120000 0.062340 0
2.125000 0.094797 0
2.130000 0.127408 0
2.135000 0.158292 0
2.140000 0.185428 0
2.145000 0.206864 0
2.150000 0.220953 0
2.155000 0.226560 1
2.160000 0.223214 0
2.165000 0.211170 0
2.170000 0.191384 0
2.175000 0.165381 0
2.180000 0.135062 0
2.185000 0.102449 0
2.190000 0.069381 0
2.195000 0.037077 0
2.200000 0.005466 0
2.205000 -0.027640 0
2.210000 -0.066722 0
2.215000 -0.116491 0
2.220000 -0.176667 0
2.225000 -0.235867 0
2.230000 -0.269790 2
2.235000 -0.246440 0
2.240000 -0.135167 0
2.245000 0.083233 0
2.250000 0.401112 0
2.255000 0.763582 0
2.260000 1.065229 0
2.265000 1.190358 3
2.270000 1.081741 0
2.275000 0.780300 0
2.280000 0.397306 0
2.285000 0.045549 0
2.290000 -0.206222 0
2.295000 -0.336705 0
2.300000 -0.357595 4
2.305000 -0.301626 0
2.310000 -0.210768 0
2.315000 -0.120827 0
2.320000 -0.050235 0
2.325000 -0.000404 0
2.330000 0.035814 0
2.335000 0.066061 0
2.340000 0.095082 0
2.345000 0.124871 0
2.350000 0.155847 0
2.355000 0.187739 0
2.360000 0.219995 0
2.365000 0.251933 0
2.370000 0.282797 0
2.375000 0.311790 0
2.380000 0.338113 0
2.385000 0.360995 0
2.390000 0.379737 0
2.395000 0.393737 0
2.400000 0.402531 0
2.405000 0.405810 5
2.410000 0.403445 0
2.415000 0.395487 0
2.420000 0.382168 0
2.425000 0.363890 0
2.430000 0.341205 0
2.435000 0.314783 0
2.440000 0.285382 0
2.445000 0.253809 0
2.450000 0.220886 0
2.455000 0.187412 0
2.460000 0.154136 0
2.465000 0.121725 0
2.470000 0.090751 0
2.475000 0.061672 0
2.480000 0.034836 0
2.485000 0.010473 0
2.490000 -0.011293 0
2.495000 -0.030432 0
2.500000 -0.046999 0
2.505000 -0.061112 0
2.510000 -0.072941 0
2.515000 -0.082689 0
2.520000 -0.090577 0
2.525000 -0.096836 0
2.530000 -0.101690 0
2.535000 -0.105354 0
2.540000 -0.108028 0
2.545000 -0.109888 0
2.550000 -0.110780 0
2.555000 -0.109840 0
2.560000 -0.108905 0
2.565000 -0.107975 0
2.570000 -0.107049 0
2.575000 -0.106127 0
2.580000 -0.105208 0
2.585000 -0.104292 0
2.590000 -0.103375 0
2.595000 -0.102454 0
2.600000 -0.101518 0
2.605000 -0.100554 0
2.610000 -0.099536 0
2.615000 -0.098419 0
2.620000 -0.097136 0
2.625000 -0.095581 0
2.630000 -0.093600 0
2.635000 -0.090974 0
2.640000 -0.087407 0
2.645000 -0.082520 0
2.650000 -0.075853 0
2.655000 -0.066881 0
2.660000 -0.055058 0
2.665000 -0.039874 0
2.670000 -0.020942 0
2.675000 0.001904 0
2.680000 0.028508 0
2.685000 0.058310 0
2.690000 0.090299 0
2.695000 0.123022 0
2.700000 0.154670 0
2.705000 0.183226 0
2.710000 0.206669 0
2.715000 0.223212 0
2.720000 0.231523 1
2.725000 0.230904 0
2.730000 0.221387 0
2.735000 0.203734 0
2.740000 0.179331 0
2.745000 0.150013 0
2.750000 0.117815 0
2.755000 0.084684 0
2.760000 0.052080 0
2.765000 0.020365 0
2.770000 -0.012037 0
2.775000 -0.049123 0
2.780000 -0.095972 0
2.785000 -0.154176 0
2.790000 -0.215403 0
2.795000 -0.258008 2
2.800000 -0.250732 0
2.805000 -0.161465 0
2.810000 0.032838 0
2.815000 0.332129 0
2.820000 0.692527 0
2.825000 1.016502 0
2.830000 1.183943 3
2.835000 1.120332 0
2.840000 0.847975 0
2.845000 0.470734 0
2.850000 0.106740 0
2.855000 -0.165392 0
2.860000 -0.316693 0
2.865000 -0.354204 4
2.870000 -0.308076 0
2.875000 -0.220090 0
2.880000 -0.128331 0
2.885000 -0.054396 0
2.890000 -0.001873 0
2.895000 0.035761 0
2.900000 0.066461 0
2.905000 0.095461 0
2.910000 0.125081 0
2.915000 0.155892 0
2.920000 0.187678 0
2.925000 0.219906 0
2.930000 0.251900 0
2.935000 0.282904 0
2.940000 0.312118 0
2.945000 0.338735 0
2.950000 0.361974 0
2.955000 0.381120 0
2.960000 0.395556 0
2.965000 0.404800 0
2.970000 0.408528 5
2.975000 0.406591 0
2.980000 0.399028 0
2.985000 0.386059 0
2.990000 0.368080 0
2.995000 0.345635 0
3.000000 0.319395 0
3.005000 0.290118 0
3.010000 0.258618 0
3.015000 0.225722 0
3.020000 0.192239 0
3.025000 0.158926 0
3.030000 0.126458 0
3.035000 0.095415 0
3.040000 0.066265 0
3.045000 0.039358 0
3.050000 0.014931 0
3.055000 -0.006889 0
3.060000 -0.026072 0
3.065000 -0.042673 0
3.070000 -0.056809 0
3.075000 -0.068653 0
3.080000 -0.078408 0
3.085000 -0.086298 0
3.090000 -0.092554 0
3.095000 -0.097405 0
3.100000 -0.101066 0
3.105000 -0.103736 0
3.110000 -0.105594 0
3.115000 -0.106491 0
3.120000 -0.105572 0
3.125000 -0.104659 0
3.130000 -0.103749 0
3.135000 -0.102844 0
3.140000 -0.101943 0
3.145000 -0.101046 0
3.150000 -0.100150 0
3.155000 -0.099253 0
3.160000 -0.098351 0
3.165000 -0.097435 0
3.170000 -0.096487 0
3.175000 -0.095482 0
3.180000 -0.094374 0
3.185000 -0.093090 0
3.190000 -0.091521 0
3.195000 -0.089505 0
3.200000 -0.086814 0
3.205000 -0.083142 0
3.210000 -0.078096 0
3.215000 -0.071204 0
3.220000 -0.061933 0
3.225000 -0.049731 0
3.230000 -0.034096 0
3.235000 -0.014661 0
3.240000 0.008705 0
3.245000 0.035792 0
3.250000 0.065972 0
3.255000 0.098158 0
3.260000 0.130826 0
3.265000 0.162107 0
3.270000 0.189953 0
3.275000 0.212349 0
3.280000 0.227553 0
3.285000 0.234322 1
3.290000 0.232076 0
3.295000 0.220983 0
3.300000 0.201934 0
3.305000 0.176430 0
3.310000 0.146376 0
3.315000 0.113833 0
3.320000 0.080702 0
3.325000 0.048290 0
3.330000 0.016626 0
3.335000 -0.016388 0
3.340000 -0.055229 0
3.345000 -0.104749 0
3.350000 -0.164858 0
3.355000 -0.224170 0
3.360000 -0.258020 2
3.365000 -0.233827 0
3.370000 -0.120464 0
3.375000 0.101215 0
3.380000 0.422203 0
3.385000 0.784368 0
3.390000 1.078567 0
3.395000 1.188656 3
3.400000 1.063346 0
3.405000 0.751856 0
3.410000 0.367726 0
3.415000 0.021406 0
3.420000 -0.222095 0
3.425000 -0.344313 0
3.430000 -0.358713 4
3.435000 -0.299031 0
3.440000 -0.207256 0
3.445000 -0.118224 0
3.450000 -0.049073 0
3.455000 -0.000359 0
3.460000 0.035288 0
3.465000 0.065365 0
3.470000 0.094410 0
3.475000 0.124281 0
3.480000 0.155337 0
3.485000 0.187280 0
3.490000 0.219549 0
3.495000 0.251458 0
3.500000 0.282247 0
3.505000 0.311122 0
3.510000 0.337284 0
3.515000 0.359968 0
3.520000 0.378479 0
3.525000 0.392223 0
3.530000 0.400744 0
3.535000 0.403745 5
3.540000 0.401103 0
3.545000 0.392879 0
3.550000 0.379316 0
3.555000 0.360821 0
3.560000 0.337953 0
3.565000 0.311384 0
3.570000 0.281875 0
3.575000 0.250233 0
3.580000 0.217280 0
3.585000 0.183811 0
3.590000 0.150569 0
3.595000 0.118219 0
3.600000 0.087325 0
3.605000 0.058342 0
3.610000 0.031611 0
3.615000 0.007359 0
3.620000 -0.014295 0
3.625000 -0.033326 0
3.630000 -0.049790 0
3.635000 -0.063807 0
3.640000 -0.075549 0
3.645000 -0.085218 0
3.650000 -0.093037 0
3.655000 -0.099235 0
3.660000 -0.104037 0
3.665000 -0.107657 0
3.670000 -0.110292 0
3.675000 -0.112120 0
3.680000 -0.112987 0
3.685000 -0.112036 0
3.690000 -0.111090 0
3.695000 -0.110149 0
3.700000 -0.109212 0
3.705000 -0.108279 0
3.710000 -0.107350 0
3.715000 -0.106423 0
3.720000 -0.105495 0
3.725000 -0.104563 0
3.730000 -0.103617 0
3.735000 -0.102641 0
3.740000 -0.101611 0
3.745000 -0.100481 0
3.750000 -0.099184 0
3.755000 -0.097614 0
3.760000 -0.095614 0
3.765000 -0.092966 0
3.770000 -0.089373 0
3.775000 -0.084455 0
3.780000 -0.077752 0
3.785000 -0.068740 0
3.790000 -0.056873 0
3.795000 -0.041642 0
3.800000 -0.022664 0
3.805000 0.000225 0
3.810000 0.026867 0
3.815000 0.056698 0
3.820000 0.088705 0
3.825000 0.121437 0
3.830000 0.153084 0
3.835000 0.181632 0
3.840000 0.205065 0
3.845000 0.221599 0
3.850000 0.229905 1
3.855000 0.229287 0
3.860000 0.219779 0
3.865000 0.202141 0
3.870000 0.177756 0
3.875000 0.148456 0
3.880000 0.116272 0
3.885000 0.083149 0
3.890000 0.050549 0
3.895000 0.018840 0
3.900000 -0.013538 0
3.905000 -0.050563 0
3.910000 -0.097309 0
3.915000 -0.155421 0
3.920000 -0.216694 0
3.925000 -0.259637 2
3.930000 -0.253099 0
3.935000 -0.164976 0
3.940000 0.027921 0
3.945000 0.325964 0
3.950000 0.686071 0
3.955000 1.011532 0
3.960000 1.182287 3
3.965000 1.123366 0
3.970000 0.855916 0
3.975000 0.480386 0
3.980000 0.113411 0
3.985000 -0.165449 0
3.990000 -0.325230 0
3.995000 -0.370874 4
4.000000 -0.330526 0
4.005000 -0.244718 0
4.010000 -0.151866 0
4.015000 -0.075225 0
4.020000 -0.020111 0
4.025000 0.019149 0
4.030000 0.050528 0
4.035000 0.079635 0
4.040000 0.109130 0
4.045000 0.139780 0
4.050000 0.171466 0
4.055000 0.203706 0
4.060000 0.235858 0
4.065000 0.267193 0
4.070000 0.296936 0
4.075000 0.324294 0
4.080000 0.348491 0
4.085000 0.368807 0
4.090000 0.384610 0
4.095000 0.395389 0
4.100000 0.400781 5
4.105000 0.400589 0
4.110000 0.394795 0
4.115000 0.383563 0
4.120000 0.367225 0
4.125000 0.346270 0
4.130000 0.321317 0
4.135000 0.293084 0
4.140000 0.262352 0
4.145000 0.229933 0
4.150000 0.196630 0
4.155000 0.163207 0
4.160000 0.130361 0
4.165000 0.098702 0
4.170000 0.068734 0
4.175000 0.040852 0
4.180000 0.015335 0
4.185000 -0.007645 0
4.190000 -0.028016 0
4.195000 -0.045795 0
4.200000 -0.061069 0
4.205000 -0.073984 0
4.210000 -0.084725 0
4.215000 -0.093503 0
4.220000 -0.100544 0
4.225000 -0.106072 0
4.230000 -0.110308 0
4.235000 -0.113455 0
4.240000 -0.115702 0
4.245000 -0.117213 0
4.250000 -0.116601 0
4.255000 -0.115632 0
4.260000 -0.114668 0
4.265000 -0.113709 0
4.270000 -0.112754 0
4.275000 -0.111804 0
4.280000 -0.110856 0
4.285000 -0.109910 0
4.290000 -0.108962 0
4.295000 -0.108007 0
4.300000 -0.107033 0
4.305000 -0.106023 0
4.310000 -0.104945 0
4.315000 -0.103748 0
4.320000 -0.102352 0
4.325000 -0.100638 0
4.330000 -0.098432 0
4.335000 -0.095492 0
4.340000 -0.091498 0
4.345000 -0.086047 0
4.350000 -0.078662 0
4.355000 -0.068811 0
4.360000 -0.055958 0
4.365000 -0.039628 0
4.370000 -0.019494 0
4.375000 0.004522 0
4.380000 0.032154 0
4.385000 0.062723 0
4.390000 0.095100 0
4.395000 0.127744 0
4.400000 0.158791 0
4.405000 0.186227 0
4.410000 0.208092 0
4.415000 0.222714 0
4.420000 0.228919 1
4.425000 0.226187 0
4.430000 0.214724 0
4.435000 0.195436 0
4.440000 0.169812 0
4.445000 0.139729 0
4.450000 0.107207 0
4.455000 0.074108 0
4.460000 0.041717 0
4.465000 0.010088 0
4.470000 -0.022777 0
4.475000 -0.061207 0
4.480000 -0.110040 0
4.485000 -0.169634 0
4.490000 -0.229673 0
4.495000 -0.266834 2
4.500000 -0.249481 0
4.505000 -0.146547 0
4.510000 0.062575 0
4.515000 0.373314 0
4.520000 0.735500 0
4.525000 1.047346 0
4.530000 1.191565 3
4.535000 1.102959 0
4.540000 0.813560 0
4.545000 0.432455 0
4.550000 0.075591 0
4.555000 -0.183895 0
4.560000 -0.321720 0
4.565000 -0.348053 4
4.570000 -0.295041 0
4.575000 -0.204952 0
4.580000 -0.114545 0
4.585000 -0.043220 0
4.590000 0.007106 0
4.595000 0.043521 0
4.600000 0.073789 0
4.605000 0.102769 0
4.610000 0.132507 0
4.615000 0.163439 0
4.620000 0.195294 0
4.625000 0.227514 0
4.630000 0.259408 0
4.635000 0.290212 0
4.640000 0.319122 0
4.645000 0.345330 0
4.650000 0.368060 0
4.655000 0.386604 0
4.660000 0.400363 0
4.665000 0.408872 0
4.670000 0.411829 5
4.675000 0.409110 0
4.680000 0.400778 0
4.685000 0.387079 0
4.690000 0.368431 0
4.695000 0.345399 0
4.700000 0.318669 0
4.705000 0.289011 0
4.710000 0.257246 0
4.715000 0.224201 0
4.720000 0.190681 0
4.725000 0.157434 0
4.730000 0.125125 0
4.735000 0.094318 0
4.740000 0.065465 0
4.745000 0.038901 0
4.750000 0.014845 0
4.755000 -0.006592 0
4.760000 -0.025392 0
4.765000 -0.041621 0
4.770000 -0.055407 0
4.775000 -0.066928 0
4.780000 -0.076392 0
4.785000 -0.084025 0
4.790000 -0.090060 0
4.795000 -0.094722 0
4.800000 -0.098227 0
4.805000 -0.100771 0
4.810000 -0.102529 0
4.815000 -0.102015 0
4.820000 -0.101119 0
4.825000 -0.100228 0
4.830000 -0.099340 0
4.835000 -0.098457 0
4.840000 -0.097578 0
4.845000 -0.096702 0
4.850000 -0.095827 0
4.855000 -0.094951 0
4.860000 -0.094068 0
4.865000 -0.093168 0
4.870000 -0.092233 0
4.875000 -0.091234 0
4.880000 -0.090121 0
4.885000 -0.088815 0
4.890000 -0.087200 0
4.895000 -0.085101 0
4.900000 -0.082276 0
4.905000 -0.078403 0
4.910000 -0.073075 0
4.915000 -0.065803 0
4.920000 -0.056047 0
4.925000 -0.043256 0
4.930000 -0.026947 0
4.935000 -0.006787 0
4.940000 0.017297 0
4.945000 0.045021 0
4.950000 0.075668 0
4.955000 0.108061 0
4.960000 0.140596 0
4.965000 0.171351 0
4.970000 0.198261 0
4.975000 0.219342 0
4.980000 0.232932 0
4.985000 0.237906 1
4.990000 0.233829 0
4.995000 0.221018 0
5.000000 0.200505 0
5.005000 0.173892 0
5.010000 0.143144 0
5.015000 0.110319 0
5.020000 0.077244 0
5.025000 0.045026 0
5.030000 0.013321 0
5.035000 -0.020500 0
5.040000 -0.061278 0
5.045000 -0.113368 0
5.050000 -0.174749 0
5.055000 -0.231089 0
5.060000 -0.255298 2
5.065000 -0.214213 0
5.070000 -0.078261 0
5.075000 0.167286 0
5.080000 0.504298 0
5.085000 0.862099 0
5.090000 1.124293 0
5.095000 1.182828 3
5.100000 1.007915 0
5.105000 0.668770 0
5.110000 0.284918 0
5.115000 -0.040982 0
5.120000 -0.255561 0
5.125000 -0.349282 4
5.130000 -0.341640 0
5.135000 -0.269984 0
5.140000 -0.176248 0
5.145000 -0.091540 0
5.150000 -0.028237 0
5.155000 0.016135 0
5.160000 0.049615 0
5.165000 0.079063 0
5.170000 0.108209 0
5.175000 0.138389 0
5.180000 0.169717 0
5.185000 0.201793 0
5.190000 0.234006 0
5.195000 0.265639 0
5.200000 0.295915 0
5.205000 0.324026 0
5.210000 0.349175 0
5.215000 0.370608 0
5.220000 0.387654 0
5.225000 0.399755 0
5.230000 0.406500 0
5.235000 0.407645 5
5.240000 0.403126 0
5.245000 0.393066 0
5.250000 0.377766 0
5.255000 0.357691 0
5.260000 0.333445 0
5.265000 0.305741 0
5.270000 0.275366 0
5.275000 0.243142 0
5.280000 0.209891 0
5.285000 0.176399 0
5.290000 0.143388 0
5.295000 0.111493 0
5.300000 0.081242 0
5.305000 0.053051 0
5.310000 0.027219 0
5.315000 0.003933 0
5.320000 -0.016725 0
5.325000 -0.034763 0
5.330000 -0.050266 0
5.335000 -0.063378 0
5.340000 -0.074284 0
5.345000 -0.083199 0
5.350000 -0.090350 0
5.355000 -0.095969 0
5.360000 -0.100278 0
5.365000 -0.103487 0
5.370000 -0.105784 0
5.375000 -0.107341 0
5.380000 -0.106777 0
5.385000 -0.105857 0
5.390000 -0.104942 0
5.395000 -0.104031 0
5.400000 -0.103125 0
5.405000 -0.102222 0
5.410000 -0.101322 0
5.415000 -0.100423 0
5.420000 -0.099522 0
5.425000 -0.098612 0
5.430000 -0.097682 0
5.435000 -0.096712 0
5.440000 -0.095668 0
5.445000 -0.094495 0
5.450000 -0.093108 0
5.455000 -0.091377 0
5.460000 -0.089116 0
5.465000 -0.086067 0
5.470000 -0.081890 0
5.475000 -0.076161 0
5.480000 -0.068379 0
5.485000 -0.058000 0
5.490000 -0.044483 0
5.495000 -0.027369 0
5.500000 -0.006373 0
5.505000 0.018511 0
5.510000 0.046918 0
5.515000 0.078043 0
5.520000 0.110623 0
5.525000 0.142988 0
5.530000 0.173182 0
5.535000 0.199144 0
5.540000 0.218944 0
5.545000 0.231012 0
5.550000 0.234345 1
5.555000 0.228650 0
5.560000 0.214376 0
5.565000 0.192666 0
5.570000 0.165197 0
5.575000 0.133961 0
5.580000 0.100995 0
5.585000 0.068033 0
5.590000 0.035996 0
5.595000 0.004212 0
5.600000 -0.030349 0
5.605000 -0.072705 0
5.610000 -0.126637 0
5.615000 -0.188515 0
5.620000 -0.241927 0
5.625000 -0.258404 2
5.630000 -0.204834 0
5.635000 -0.053166 0
5.640000 0.207807 0
5.645000 0.553463 0
5.650000 0.905501 0
5.655000 1.144951 0
5.660000 1.171238 3
5.665000 0.969021 0
5.670000 0.617828 0
5.675000 0.236083 0
5.680000 -0.080227 0
5.685000 -0.283771 0
5.690000 -0.368348 4
5.695000 -0.354845 0
5.700000 -0.280660 0
5.705000 -0.186683 0
5.710000 -0.102599 0
5.715000 -0.039834 0
5.720000 0.004336 0
5.725000 0.037823 0
5.730000 0.067333 0
5.735000 0.096525 0
5.740000 0.126730 0
5.745000 0.158076 0
5.750000 0.190182 0
5.755000 0.222455 0
5.760000 0.254198 0
5.765000 0.284650 0
5.770000 0.313025 0
5.775000 0.338537 0
5.780000 0.360443 0
5.785000 0.378076 0
5.790000 0.390874 0
5.795000 0.398416 0
5.800000 0.400439 5
5.805000 0.396854 0
5.810000 0.387752 0
5.815000 0.373401 0
5.820000 0.354228 0
5.825000 0.330802 0
5.830000 0.303803 0
5.835000 0.273989 0
5.840000 0.242161 0
5.845000 0.209128 0
5.850000 0.175671 0
5.855000 0.142515 0
5.860000 0.110307 0
5.865000 0.079593 0
5.870000 0.050812 0
5.875000 0.024292 0
5.880000 0.000245 0
5.885000 -0.021214 0
5.890000 -0.040069 0
5.895000 -0.056378 0
5.900000 -0.070264 0
5.905000 -0.081896 0
5.910000 -0.091477 0
5.915000 -0.099225 0
5.920000 -0.105368 0
5.925000 -0.110127 0
5.930000 -0.113714 0
5.935000 -0.116322 0
5.940000 -0.118127 0
5.945000 -0.118971 0
5.950000 -0.117991 0
5.955000 -0.117015 0
5.960000 -0.116045 0
5.965000 -0.115078 0
5.970000 -0.114116 0
5.975000 -0.113158 0
5.980000 -0.112202 0
5.985000 -0.111246 0
5.990000 -0.110286 0
5.995000 -0.109313 0
6.000000 -0.108314 0
6.005000 -0.107262 0
6.010000 -0.106118 0
6.015000 -0.104817 0
6.020000 -0.103258 0
6.025000 -0.101295 0
6.030000 -0.098720 0
6.035000 -0.095251 0
6.040000 -0.090525 0
6.045000 -0.084097 0
6.050000 -0.075459 0
6.055000 -0.064072 0
6.060000 -0.049424 0
6.065000 -0.031107 0
6.070000 -0.008913 0
6.075000 0.017065 0
6.080000 0.046354 0
6.085000 0.078042 0
6.090000 0.110781 0
6.095000 0.142850 0
6.100000 0.172290 0
6.105000 0.197092 0
6.110000 0.215422 0
6.115000 0.225843 0
6.120000 0.227506 1
6.125000 0.220259 0
6.130000 0.204671 0
6.135000 0.181963 0
6.140000 0.153843 0
6.145000 0.122287 0
6.150000 0.089273 0
6.155000 0.056432 0
6.160000 0.024531 0
6.165000 -0.007301 0
6.170000 -0.042268 0
6.175000 -0.085360 0
6.180000 -0.139985 0
6.185000 -0.201916 0
6.190000 -0.254348 0
6.195000 -0.268996 2
6.200000 -0.213420 0
6.205000 -0.060354 0
6.210000 0.200913 0
6.215000 0.546210 0
6.220000 0.899257 0
6.225000 1.143708 0
6.230000 1.179329 3
6.235000 0.986015 0
6.240000 0.638170 0
6.245000 0.255801 0
6.250000 -0.062381 0
6.255000 -0.267302 0
6.260000 -0.352256 4
6.265000 -0.338393 0
6.270000 -0.263767 0
6.275000 -0.169846 0
6.280000 -0.086412 0
6.285000 -0.024544 0
6.290000 0.018880 0
6.295000 0.051941 0
6.300000 0.081294 0
6.305000 0.110476 0
6.310000 0.140721 0
6.315000 0.172097 0
6.320000 0.204192 0
6.325000 0.236390 0
6.330000 0.267974 0
6.335000 0.298166 0
6.340000 0.326164 0
6.345000 0.351174 0
6.350000 0.372450 0
6.355000 0.389324 0
6.360000 0.401248 0
6.365000 0.407817 0
6.370000 0.408793 5
6.375000 0.404119 0
6.380000 0.393921 0
6.385000 0.378504 0
6.390000 0.358334 0
6.395000 0.334015 0
6.400000 0.306258 0
6.405000 0.275848 0
6.410000 0.243603 0
6.415000 0.210343 0
6.420000 0.176848 0
6.425000 0.143838 0
6.430000 0.111943 0
6.435000 0.081691 0
6.440000 0.053494 0
6.445000 0.027650 0
6.450000 0.004346 0
6.455000 -0.016335 0
6.460000 -0.034402 0
6.465000 -0.049938 0
6.470000 -0.063084 0
6.475000 -0.074026 0
6.480000 -0.082978 0
6.485000 -0.090165 0
6.490000 -0.095818 0
6.495000 -0.100159 0
6.500000 -0.103395 0
6.505000 -0.105718 0
6.510000 -0.107296 0
6.515000 -0.106735 0
6.520000 -0.105816 0
6.525000 -0.104901 0
6.530000 -0.103990 0
6.535000 -0.103084 0
6.540000 -0.102181 0
6.545000 -0.101282 0
6.550000 -0.100383 0
6.555000 -0.099483 0
6.560000 -0.098574 0
6.565000 -0.097646 0
6.570000 -0.096680 0
6.575000 -0.095642 0
6.580000 -0.094480 0
6.585000 -0.093111 0
6.590000 -0.091409 0
6.595000 -0.089193 0
6.600000 -0.086211 0
6.605000 -0.082132 0
6.610000 -0.076538 0
6.615000 -0.068937 0
6.620000 -0.058788 0
6.625000 -0.045551 0
6.630000 -0.028758 0
6.635000 -0.008106 0
6.640000 0.016438 0
6.645000 0.044548 0
6.650000 0.075463 0
6.655000 0.107968 0
6.660000 0.140435 0
6.665000 0.170936 0
6.670000 0.197422 0
6.675000 0.217944 0
6.680000 0.230892 0
6.685000 0.235201 1
6.690000 0.230496 0
6.695000 0.217145 0
6.700000 0.196212 0
6.705000 0.169317 0
6.710000 0.138420 0
6.715000 0.105559 0
6.720000 0.072522 0
6.725000 0.040361 0
6.730000 0.008659 0
6.735000 -0.025279 0
6.740000 -0.066301 0
6.745000 -0.118646 0
6.750000 -0.180092 0
6.755000 -0.236179 0
6.760000 -0.259902 2
6.765000 -0.218367 0
6.770000 -0.082297 0
6.775000 0.162905 0
6.780000 0.499438 0
6.785000 0.857675 0
6.790000 1.122499 0
6.795000 1.185978 3
6.800000 1.015812 0
6.805000 0.678480 0
6.810000 0.294508 0
6.815000 -0.031889 0
6.820000 -0.246456 0
6.825000 -0.339541 4
6.830000 -0.330980 0
6.835000 -0.258664 0
6.840000 -0.164914 0
6.845000 -0.080784 0
6.850000 -0.018266 0
6.855000 0.025476 0
6.860000 0.058611 0
6.865000 0.087944 0
6.870000 0.117093 0
6.875000 0.147314 0
6.880000 0.178675 0
6.885000 0.210750 0
6.890000 0.242912 0
6.895000 0.274430 0
6.900000 0.304512 0
6.905000 0.332344 0
6.910000 0.357120 0
6.915000 0.378085 0
6.920000 0.394571 0
6.925000 0.406030 0
6.930000 0.412063 0
6.935000 0.412447 5
6.940000 0.407141 0
6.945000 0.396295 0
6.950000 0.380236 0
6.955000 0.359457 0
6.960000 0.334589 0
6.965000 0.306366 0
6.970000 0.275593 0
6.975000 0.243102 0
6.980000 0.209722 0
6.985000 0.176237 0
6.990000 0.143363 0
6.995000 0.111722 0
7.000000 0.081827 0
7.005000 0.054075 0
7.010000 0.028743 0
7.015000 0.005996 0
7.020000 -0.014102 0
7.025000 -0.031580 0
7.030000 -0.046537 0
7.035000 -0.059131 0
7.040000 -0.069559 0
7.045000 -0.078041 0
7.050000 -0.084809 0
7.055000 -0.090096 0
7.060000 -0.094123 0
7.065000 -0.097097 0
7.070000 -0.099206 0
7.075000 -0.100280 0
7.080000 -0.099392 0
7.085000 -0.098510 0
7.090000 -0.097631 0
7.095000 -0.096757 0
7.100000 -0.095886 0
7.105000 -0.095019 0
7.110000 -0.094154 0
7.115000 -0.093289 0
7.120000 -0.092420 0
7.125000 -0.091539 0
7.130000 -0.090631 0
7.135000 -0.089673 0
7.140000 -0.088624 0
7.145000 -0.087418 0
7.150000 -0.085954 0
7.155000 -0.084081 0
7.160000 -0.081585 0
7.165000 -0.078175 0
7.170000 -0.073473 0
7.175000 -0.067018 0
7.180000 -0.058280 0
7.185000 -0.046704 0
7.190000 -0.031767 0
7.195000 -0.013064 0
7.200000 0.009586 0
7.205000 0.036039 0
7.210000 0.065738 0
7.215000 0.097665 0
7.220000 0.130350 0
7.225000 0.161954 0
7.230000 0.190423 0
7.235000 0.213707 0
7.240000 0.229992 0
7.245000 0.237942 1
7.250000 0.236873 0
7.255000 0.226854 0
7.260000 0.208695 0
7.265000 0.183842 0
7.270000 0.154184 0
7.275000 0.121794 0
7.280000 0.088627 0
7.285000 0.056090 0
7.290000 0.024382 0
7.295000 -0.008378 0
7.300000 -0.046520 0
7.305000 -0.095069 0
7.310000 -0.154603 0
7.315000 -0.214691 0
7.320000 -0.251347 2
7.325000 -0.231974 0
7.330000 -0.124780 0
7.335000 0.090648 0
7.340000 0.407380 0
7.345000 0.769693 0
7.350000 1.069354 0
7.355000 1.188089 3
7.360000 1.071352 0
7.365000 0.765867 0
7.370000 0.382441 0
7.375000 0.031742 0
7.380000 -0.219166 0
7.385000 -0.349593 0
7.390000 -0.371090 4
7.395000 -0.315839 0
7.400000 -0.225219 0
7.405000 -0.134835 0
7.410000 -0.063394 0
7.415000 -0.012748 0
7.420000 0.023995 0
7.425000 0.054471 0
7.430000 0.083535 0
7.435000 0.113290 0
7.440000 0.144223 0
7.445000 0.176102 0
7.450000 0.208395 0
7.455000 0.240440 0
7.460000 0.271496 0
7.465000 0.300782 0
7.470000 0.327507 0
7.475000 0.350907 0
7.480000 0.370281 0
7.485000 0.385021 0
7.490000 0.394649 0
7.495000 0.398837 5
7.500000 0.397428 0
7.505000 0.390443 0
7.510000 0.378084 0
7.515000 0.360718 0
7.520000 0.338863 0
7.525000 0.313160 0
7.530000 0.284343 0
7.535000 0.253200 0
7.540000 0.220541 0
7.545000 0.187164 0
7.550000 0.153818 0
7.555000 0.121184 0
7.560000 0.089847 0
7.565000 0.060290 0
7.570000 0.032882 0
7.575000 0.007881 0
7.580000 -0.014564 0
7.585000 -0.034400 0
7.590000 -0.051659 0
7.595000 -0.066441 0
7.600000 -0.078899 0
7.605000 -0.089226 0
7.610000 -0.097635 0
7.615000 -0.104353 0
7.620000 -0.109603 0
7.625000 -0.113602 0
7.630000 -0.116551 0
7.635000 -0.118634 0
7.640000 -0.120011 0
7.645000 -0.119367 0
7.650000 -0.118385 0
7.655000 -0.117407 0
7.660000 -0.116434 0
7.665000 -0.115466 0
7.670000 -0.114501 0
7.675000 -0.113540 0
7.680000 -0.112579 0
7.685000 -0.111617 0
7.690000 -0.110645 0
7.695000 -0.109653 0
7.700000 -0.108619 0
7.705000 -0.107511 0
7.710000 -0.106273 0
7.715000 -0.104819 0
7.720000 -0.103021 0
7.725000 -0.100696 0
7.730000 -0.097590 0
7.735000 -0.093370 0
7.740000 -0.087620 0
7.745000 -0.079852 0
7.750000 -0.069533 0
7.755000 -0.056131 0
7.760000 -0.039190 0
7.765000 -0.018419 0
7.770000 0.006213 0
7.775000 0.034380 0
7.780000 0.065330 0
7.785000 0.097873 0
7.790000 0.130408 0
7.795000 0.161044 0
7.800000 0.187762 0
7.805000 0.208638 0
7.810000 0.222064 0
7.815000 0.226960 1
7.820000 0.222912 0
7.825000 0.210234 0
7.830000 0.189926 0
7.835000 0.163543 0
7.840000 0.132995 0
7.845000 0.100295 0
7.850000 0.067250 0
7.855000 0.035012 0
7.860000 0.003398 0
7.865000 -0.029924 0
7.870000 -0.069519 0
7.875000 -0.119965 0
7.880000 -0.180505 0
7.885000 -0.239079 0
7.890000 -0.270887 2
7.895000 -0.243893 0
7.900000 -0.127871 0
7.905000 0.095467 0
7.910000 0.416814 0
7.915000 0.779145 0
7.920000 1.075893 0
7.925000 1.192758 3
7.930000 1.076256 0
7.935000 0.770596 0
7.940000 0.387100 0
7.945000 0.036815 0
7.950000 -0.213182 0
7.955000 -0.342419 0
7.960000 -0.362757 4
7.965000 -0.306716 0
7.970000 -0.215883 0
7.975000 -0.125792 0
7.980000 -0.054870 0
7.985000 -0.004689 0
7.990000 0.031767 0
7.995000 0.062116 0
8.000000 0.091148 0
8.005000 0.120907 0
8.010000 0.151848 0
8.015000 0.183721 0
8.020000 0.215986 0
8.025000 0.247973 0
8.030000 0.278937 0
8.035000 0.308090 0
8.040000 0.334639 0
8.045000 0.357819 0
8.050000 0.376929 0
8.055000 0.391366 0
8.060000 0.400655 0
8.065000 0.404479 5
8.070000 0.402689 0
8.075000 0.395319 0
8.080000 0.382581 0
8.085000 0.364856 0
8.090000 0.342673 0
8.095000 0.316685 0
8.100000 0.287633 0
8.105000 0.256313 0
8.110000 0.223539 0
8.115000 0.190107 0
8.120000 0.156769 0
8.125000 0.124197 0
8.130000 0.092973 0
8.135000 0.063572 0
8.140000 0.036353 0
8.145000 0.011565 0
8.150000 -0.010651 0
8.155000 -0.030253 0
8.160000 -0.047278 0
8.165000 -0.061835 0
8.170000 -0.074083 0
8.175000 -0.084216 0
8.180000 -0.092453 0
8.185000 -0.099020 0
8.190000 -0.104142 0
8.195000 -0.108035 0
8.200000 -0.110899 0
8.205000 -0.112915 0
8.210000 -0.113911 0
8.215000 -0.112956 0
8.220000 -0.112005 0
8.225000 -0.111059 0
8.230000 -0.110118 0
8.235000 -0.109181 0
8.240000 -0.108248 0
8.245000 -0.107317 0
8.250000 -0.106387 0
8.255000 -0.105453 0
8.260000 -0.104510 0
8.265000 -0.103543 0
8.270000 -0.102530 0
8.275000 -0.101435 0
8.280000 -0.100198 0
8.285000 -0.098728 0
8.290000 -0.096888 0
8.295000 -0.094482 0
8.300000 -0.091243 0
8.305000 -0.086822 0
8.310000 -0.080789 0
8.315000 -0.072643 0
8.320000 -0.061843 0
8.325000 -0.047864 0
8.330000 -0.030270 0
8.335000 -0.008808 0
8.340000 0.016492 0
8.345000 0.045228 0
8.350000 0.076562 0
8.355000 0.109213 0
8.360000 0.141508 0
8.365000 0.171506 0
8.370000 0.197179 0
8.375000 0.216640 0
8.380000 0.228366 0
8.385000 0.231400 1
8.390000 0.225476 0
8.395000 0.211059 0
8.400000 0.189285 0
8.405000 0.161811 0
8.410000 0.130600 0
8.415000 0.097661 0
8.420000 0.064706 0
8.425000 0.032665 0
8.430000 0.000932 0
8.435000 -0.033392 0
8.440000 -0.075211 0
8.445000 -0.128447 0
8.450000 -0.190137 0
8.455000 -0.245003 0
8.460000 -0.265677 2
8.465000 -0.219559 0
8.470000 -0.078170 0
8.475000 0.171833 0
8.480000 0.510935 0
8.485000 0.868121 0
8.490000 1.128624 0
8.495000 1.186853 3
8.500000 1.012520 0
8.505000 0.672818 0
8.510000 0.289195 0
8.515000 -0.034639 0
8.520000 -0.245549 0
8.525000 -0.334911 4
8.530000 -0.323425 0
8.535000 -0.249589 0
8.540000 -0.155778 0
8.545000 -0.072498 0
8.550000 -0.011002 0
8.555000 0.032009 0
8.560000 0.064790 0
8.565000 0.094026 0
8.570000 0.123196 0
8.575000 0.153468 0
8.580000 0.184866 0
8.585000 0.216946 0
8.590000 0.249069 0
8.595000 0.280493 0
8.600000 0.310421 0
8.605000 0.338033 0
8.610000 0.362521 0
8.615000 0.383133 0
8.620000 0.399205 0
8.625000 0.410196 0
8.630000 0.415722 5
8.635000 0.415572 0
8.640000 0.409723 0
8.645000 0.398343 0
8.650000 0.381777 0
8.655000 0.360537 0
8.660000 0.335268 0
8.665000 0.306717 0
8.670000 0.275698 0
8.675000 0.243049 0
8.680000 0.209599 0
8.685000 0.176132 0
8.690000 0.143356 0
8.695000 0.111884 0
8.700000 0.082217 0
8.705000 0.054740 0
8.710000 0.029717 0
8.715000 0.007301 0
8.720000 -0.012460 0
8.725000 -0.029604 0
8.730000 -0.044239 0
8.735000 -0.056531 0
8.740000 -0.066681 0
8.745000 -0.074915 0
8.750000 -0.081465 0
8.755000 -0.086565 0
8.760000 -0.090436 0
8.765000 -0.093281 0
8.770000 -0.095287 0
8.775000 -0.096295 0
8.780000 -0.095428 0
8.785000 -0.094565 0
8.790000 -0.093706 0
8.795000 -0.092851 0
8.800000 -0.092000 0
8.805000 -0.091152 0
8.810000 -0.090306 0
8.815000 -0.089459 0
8.820000 -0.088607 0
8.825000 -0.087740 0
8.830000 -0.086843 0
8.835000 -0.085889 0
8.840000 -0.084832 0
8.845000 -0.083601 0
8.850000 -0.082086 0
8.855000 -0.080122 0
8.860000 -0.077479 0
8.865000 -0.073847 0
8.870000 -0.068827 0
8.875000 -0.061939 0
8.880000 -0.052642 0
8.885000 -0.040377 0
8.890000 -0.024637 0
8.895000 -0.005057 0
8.900000 0.018480 0
8.905000 0.045740 0
8.910000 0.076059 0
8.915000 0.108301 0
8.920000 0.140890 0
8.925000 0.171910 0
8.930000 0.199274 0
8.935000 0.220958 0
8.940000 0.235237 0
8.945000 0.240919 1
8.950000 0.237503 0
8.955000 0.225253 0
8.960000 0.205167 0
8.965000 0.178834 0
8.970000 0.148229 0
8.975000 0.115438 0
8.980000 0.082327 0
8.985000 0.050056 0
8.990000 0.018337 0
8.995000 -0.015421 0
9.000000 -0.056085 0
9.005000 -0.108099 0
9.010000 -0.169488 0
9.015000 -0.225779 0
9.020000 -0.249524 2
9.025000 -0.207158 0
9.030000 -0.068905 0
9.035000 0.179620 0
9.040000 0.518778 0
9.045000 0.875108 0
9.050000 1.129884 0
9.055000 1.176084 3
9.060000 0.990634 0
9.065000 0.646845 0
9.070000 0.263595 0
9.075000 -0.059143 0
9.080000 -0.270267 0
9.085000 -0.361354 4
9.090000 -0.352211 0
9.095000 -0.279998 0
9.100000 -0.186174 0
9.105000 -0.101419 0
9.110000 -0.037959 0
9.115000 0.006615 0
9.120000 0.040248 0
9.125000 0.069775 0
9.130000 0.098946 0
9.135000 0.129128 0
9.140000 0.160458 0
9.145000 0.192552 0
9.150000 0.224813 0
9.155000 0.256536 0
9.160000 0.286951 0
9.165000 0.315264 0
9.170000 0.340683 0
9.175000 0.362459 0
9.180000 0.379920 0
9.185000 0.392505 0
9.190000 0.399793 0
9.195000 0.401526 5
9.200000 0.397624 0
9.205000 0.388190 0
9.210000 0.373502 0
9.215000 0.354004 0
9.220000 0.330277 0
9.225000 0.303017 0
9.230000 0.272992 0
9.235000 0.241014 0
9.240000 0.207898 0
9.245000 0.174430 0
9.250000 0.141334 0
9.255000 0.109252 0
9.260000 0.078727 0
9.265000 0.050189 0
9.270000 0.023952 0
9.275000 0.000222 0
9.280000 -0.020902 0
9.285000 -0.039413 0
9.290000 -0.055379 0
9.295000 -0.068934 0
9.300000 -0.080253 0
9.305000 -0.089544 0
9.310000 -0.097031 0
9.315000 -0.102942 0
9.320000 -0.107499 0
9.325000 -0.110914 0
9.330000 -0.113379 0
9.335000 -0.115067 0
9.340000 -0.114490 0
9.345000 -0.113532 0
9.350000 -0.112579 0
9.355000 -0.111630 0
9.360000 -0.110686 0
9.365000 -0.109745 0
9.370000 -0.108809 0
9.375000 -0.107874 0
9.380000 -0.106938 0
9.385000 -0.105996 0
9.390000 -0.105038 0
9.395000 -0.104049 0
9.400000 -0.102998 0
9.405000 -0.101841 0
9.410000 -0.100503 0
9.415000 -0.098873 0
9.420000 -0.096786 0
9.425000 -0.094015 0
9.430000 -0.090251 0
9.435000 -0.085104 0
9.440000 -0.078105 0
9.445000 -0.068727 0
9.450000 -0.056426 0
9.455000 -0.040706 0
9.460000 -0.021210 0
9.465000 0.002190 0
9.470000 0.029288 0
9.475000 0.059465 0
9.480000 0.091655 0
9.485000 0.124362 0
9.490000 0.155749 0
9.495000 0.183797 0
9.500000 0.206511 0
9.505000 0.222156 0
9.510000 0.229474 1
9.515000 0.227851 0
9.520000 0.217403 0
9.525000 0.198961 0
9.530000 0.173965 0
9.535000 0.144271 0
9.540000 0.111910 0
9.545000 0.078791 0
9.550000 0.046292 0
9.555000 0.014630 0
9.560000 -0.017977 0
9.565000 -0.055700 0
9.570000 -0.103520 0
9.575000 -0.162440 0
9.580000 -0.223143 0
9.585000 -0.263109 2
9.590000 -0.250839 0
9.595000 -0.154696 0
9.600000 0.047171 0
9.605000 0.352440 0
9.610000 0.713955 0
9.615000 1.031808 0
9.620000 1.187124 3
9.625000 1.111975 0
9.630000 0.833935 0
9.635000 0.455781 0
9.640000 0.092065 0
9.645000 -0.181093 0
9.650000 -0.335215 0
9.655000 -0.376520 4
9.660000 -0.333660 0
9.665000 -0.247022 0
9.670000 -0.154367 0
9.675000 -0.078216 0
9.680000 -0.023464 0
9.685000 0.015640 0
9.690000 0.046990 0
9.695000 0.076112 0
9.700000 0.105625 0
9.705000 0.136289 0
9.710000 0.167985 0
9.715000 0.200237 0
9.720000 0.232411 0
9.725000 0.263786 0
9.730000 0.293593 0
9.735000 0.321047 0
9.740000 0.345379 0
9.745000 0.365871 0
9.750000 0.381895 0
9.755000 0.392937 0
9.760000 0.398630 0
9.765000 0.398770 5
9.770000 0.393331 0
9.775000 0.382460 0
9.780000 0.366480 0
9.785000 0.345864 0
9.790000 0.321216 0
9.795000 0.293242 0
9.800000 0.262712 0
9.805000 0.230429 0
9.810000 0.197191 0
9.815000 0.163760 0
9.820000 0.130837 0
9.825000 0.099034 0
9.830000 0.068864 0
9.835000 0.040730 0
9.840000 0.014923 0
9.845000 -0.008374 0
9.850000 -0.029078 0
9.855000 -0.047193 0
9.860000 -0.062799 0
9.865000 -0.076032 0
9.870000 -0.087072 0
9.875000 -0.096123 0
9.880000 -0.103409 0
9.885000 -0.109153 0
9.890000 -0.113574 0
9.895000 -0.116878 0
9.900000 -0.119253 0
9.905000 -0.120869 0
9.910000 -0.120257 0
9.915000 -0.119270 0
9.920000 -0.118288 0
9.925000 -0.117311 0
9.930000 -0.116338 0
9.935000 -0.115370 0
9.940000 -0.114405 0
9.945000 -0.113442 0
9.950000 -0.112478 0
9.955000 -0.111509 0
9.960000 -0.110525 0
9.965000 -0.109509 0
9.970000 -0.108435 0
9.975000 -0.107257 0
9.980000 -0.105905 0
9.985000 -0.104271 0
9.990000 -0.102198 0
9.995000 -0.099464 0
10.000000 -0.095775 0
10.005000 -0.090754 0
10.010000 -0.083944 0
10.015000 -0.074832 0
10.020000 -0.062881 0
10.025000 -0.047594 0
10.030000 -0.028596 0
10.035000 -0.005726 0
10.040000 0.020866 0
10.045000 0.050636 0
10.050000 0.082604 0
10.055000 0.115363 0
10.060000 0.147154 0
10.065000 0.176008 0
10.070000 0.199940 0
10.075000 0.217173 0
10.080000 0.226355 0
10.085000 0.226739 1
10.090000 0.218276 0
10.095000 0.201631 0
10.100000 0.178093 0
10.105000 0.149410 0
10.110000 0.117563 0
10.115000 0.084496 0
10.120000 0.051757 0
10.125000 0.019955 0
10.130000 -0.012023 0
10.135000 -0.047636 0
10.140000 -0.091900 0
10.145000 -0.147693 0
10.150000 -0.209648 0
10.155000 -0.259703 0
10.160000 -0.268924 2
10.165000 -0.205151 0
10.170000 -0.042270 0
10.175000 0.228081 0
10.180000 0.577810 0
10.185000 0.926589 0
10.190000 1.157445 0
10.195000 1.175044 3
10.200000 0.964861 0
10.205000 0.608718 0
10.210000 0.229189 0
10.215000 -0.077860 0
10.220000 -0.267969 0
10.225000 -0.338414 4
10.230000 -0.313593 0
10.235000 -0.233678 0
10.240000 -0.139998 0
10.245000 -0.060001 0
10.250000 -0.001976 0
10.255000 0.038814 0
10.260000 0.070656 0
10.265000 0.099718 0
10.270000 0.129020 0
10.275000 0.159479 0
10.280000 0.191014 0
10.285000 0.223139 0
10.290000 0.255198 0
10.295000 0.286440 0
10.300000 0.316063 0
10.305000 0.343247 0
10.310000 0.367194 0
10.315000 0.387162 0
10.320000 0.402505 0
10.325000 0.412706 0
10.330000 0.417405 5
10.335000 0.416419 0
10.340000 0.409753 0
10.345000 0.397599 0
10.350000 0.380329 0
10.355000 0.358473 0
10.360000 0.332691 0
10.365000 0.303742 0
10.370000 0.272442 0
10.375000 0.239629 0
10.380000 0.206127 0
10.385000 0.172708 0
10.390000 0.140068 0
10.395000 0.108805 0
10.400000 0.079403 0
10.405000 0.052230 0
10.410000 0.027535 0
10.415000 0.005455 0
10.420000 -0.013972 0
10.425000 -0.030793 0
10.430000 -0.045128 0
10.435000 -0.057144 0
10.440000 -0.067049 0
10.445000 -0.075067 0
10.450000 -0.081432 0
10.455000 -0.086376 0
10.460000 -0.090116 0
10.465000 -0.092857 0
10.470000 -0.094777 0
10.475000 -0.095730 0
10.480000 -0.094866 0
10.485000 -0.094005 0
10.490000 -0.093149 0
10.495000 -0.092297 0
10.500000 -0.091449 0
10.505000 -0.090603 0
10.510000 -0.089759 0
10.515000 -0.088914 0
10.520000 -0.088063 0
10.525000 -0.087196 0
10.530000 -0.086297 0
10.535000 -0.085337 0
10.540000 -0.084269 0
10.545000 -0.083017 0
10.550000 -0.081466 0
10.555000 -0.079448 0
10.560000 -0.076724 0
10.565000 -0.072976 0
10.570000 -0.067799 0
10.575000 -0.060705 0
10.580000 -0.051151 0
10.585000 -0.038580 0
10.590000 -0.022496 0
10.595000 -0.002552 0
10.600000 0.021339 0
10.605000 0.048908 0
10.610000 0.079449 0
10.615000 0.111788 0
10.620000 0.144318 0
10.625000 0.175101 0
10.630000 0.202054 0
10.635000 0.223169 0
10.640000 0.236764 0
10.645000 0.241701 1
10.650000 0.237542 0
10.655000 0.224613 0
10.660000 0.203962 0
10.665000 0.177216 0
10.670000 0.146365 0
10.675000 0.113486 0
10.680000 0.080407 0
10.685000 0.048209 0
10.690000 0.016458 0
10.695000 -0.017619 0
10.700000 -0.058983 0
10.705000 -0.111841 0
10.710000 -0.173511 0
10.715000 -0.228576 0
10.720000 -0.248940 2
10.725000 -0.201044 0
10.730000 -0.055782 0
10.735000 0.199653 0
10.740000 0.542696 0
10.745000 0.896429 0
10.750000 1.140974 0
10.755000 1.172734 3
10.760000 0.973926 0
10.765000 0.623286 0
10.770000 0.241763 0
10.775000 -0.072783 0
10.780000 -0.272778 0
10.785000 -0.352836 4
10.790000 -0.335205 0
10.795000 -0.258678 0
10.800000 -0.164732 0
10.805000 -0.082400 0
10.810000 -0.021820 0
10.815000 0.020706 0
10.820000 0.053352 0
10.825000 0.082616 0
10.830000 0.111858 0
10.835000 0.142200 0
10.840000 0.173657 0
10.845000 0.205791 0
10.850000 0.237972 0
10.855000 0.269469 0
10.860000 0.299498 0
10.865000 0.327249 0
10.870000 0.351927 0
10.875000 0.372786 0
10.880000 0.389166 0
10.885000 0.400528 0
10.890000 0.406483 0
10.895000 0.406810 5
10.900000 0.401474 0
10.905000 0.390624 0
10.910000 0.374587 0
10.915000 0.353850 0
10.920000 0.329039 0
10.925000 0.300882 0
10.930000 0.270173 0
10.935000 0.237740 0
10.940000 0.204403 0
10.945000 0.170942 0
10.950000 0.138068 0
10.955000 0.106401 0
10.960000 0.076454 0
10.965000 0.048625 0
10.970000 0.023195 0
10.975000 0.000333 0
10.980000 -0.019894 0
10.985000 -0.037507 0
10.990000 -0.052602 0
10.995000 -0.065331 0
11.000000 -0.075887 0
11.005000 -0.084488 0
11.010000 -0.091363 0
11.015000 -0.096742 0
11.020000 -0.100847 0
11.025000 -0.103885 0
11.030000 -0.106041 0
11.035000 -0.107484 0
11.040000 -0.106902 0
11.045000 -0.105982 0
11.050000 -0.105066 0
11.055000 -0.104155 0
11.060000 -0.103247 0
11.065000 -0.102344 0
11.070000 -0.101443 0
11.075000 -0.100542 0
11.080000 -0.099639 0
11.085000 -0.098725 0
11.090000 -0.097787 0
11.095000 -0.096805 0
11.100000 -0.095740 0
11.105000 -0.094533 0
11.110000 -0.093090 0
11.115000 -0.091272 0
11.120000 -0.088878 0
11.125000 -0.085637 0
11.130000 -0.081188 0
11.135000 -0.075092 0
11.140000 -0.066836 0
11.145000 -0.055868 0
11.150000 -0.041658 0
11.155000 -0.023772 0
11.160000 -0.001972 0
11.165000 0.023679 0
11.170000 0.052728 0
11.175000 0.084274 0
11.180000 0.116961 0
11.185000 0.149043 0
11.190000 0.178520 0
11.195000 0.203334 0
11.200000 0.221608 0
11.205000 0.231874 0
11.210000 0.233271 1
11.215000 0.225664 0
11.220000 0.209661 0
11.225000 0.186540 0
11.230000 0.158071 0
11.235000 0.126286 0
11.240000 0.093193 0
11.245000 0.060402 0
11.250000 0.028556 0
11.255000 -0.003495 0
11.260000 -0.039346 0
11.265000 -0.084152 0
11.270000 -0.140617 0
11.275000 -0.202508 0
11.280000 -0.250254 0
11.285000 -0.253433 2
11.290000 -0.179160 0
11.295000 -0.002002 0
11.300000 0.282863 0
11.305000 0.639157 0
11.310000 0.975822 0
11.315000 1.171334 3
11.320000 1.143079 0
11.325000 0.899459 0
11.330000 0.531928 0
11.335000 0.157231 0
11.340000 -0.138965 0
11.345000 -0.319131 0
11.350000 -0.383240 4
11.355000 -0.355733 0
11.360000 -0.275268 0
11.365000 -0.181286 0
11.370000 -0.100269 0
11.375000 -0.040743 0
11.380000 0.001365 0
11.385000 0.033986 0
11.390000 0.063340 0
11.395000 0.092662 0
11.400000 0.123053 0
11.405000 0.154550 0
11.410000 0.186741 0
11.415000 0.219027 0
11.420000 0.250711 0
11.425000 0.281037 0
11.430000 0.309228 0
11.435000 0.334510 0
11.440000 0.356154 0
11.445000 0.373507 0
11.450000 0.386024 0
11.455000 0.393297 0
11.460000 0.395076 5
11.465000 0.391282 0
11.470000 0.382014 0
11.475000 0.367539 0
11.480000 0.348287 0
11.485000 0.324821 0
11.490000 0.297816 0
11.495000 0.268019 0
11.500000 0.236224 0
11.505000 0.203227 0
11.510000 0.169802 0
11.515000 0.136666 0
11.520000 0.104458 0
11.525000 0.073722 0
11.530000 0.044894 0
11.535000 0.018301 0
11.540000 -0.005839 0
11.545000 -0.027413 0
11.550000 -0.046396 0
11.555000 -0.062842 0
11.560000 -0.076869 0
11.565000 -0.088642 0
11.570000 -0.098358 0
11.575000 -0.106233 0
11.580000 -0.112489 0
11.585000 -0.117348 0
11.590000 -0.121019 0
11.595000 -0.123697 0
11.600000 -0.125556 0
11.605000 -0.126429 0
11.610000 -0.125411 0
11.615000 -0.124399 0
11.620000 -0.123391 0
11.625000 -0.122388 0
11.630000 -0.121390 0
11.635000 -0.120396 0
11.640000 -0.119404 0
11.645000 -0.118414 0
11.650000 -0.117420 0
11.655000 -0.116416 0
11.660000 -0.115389 0
11.665000 -0.114316 0
11.670000 -0.113163 0
11.675000 -0.111869 0
11.680000 -0.110346 0
11.685000 -0.108460 0
11.690000 -0.106020 0
11.695000 -0.102768 0
11.700000 -0.098363 0
11.705000 -0.092388 0
11.710000 -0.084352 0
11.715000 -0.073728 0
11.720000 -0.059996 0
11.725000 -0.042715 0
11.730000 -0.021615 0
11.735000 0.003308 0
11.740000 0.031704 0
11.745000 0.062806 0
11.750000 0.095412 0
11.755000 0.127925 0
11.760000 0.158469 0
11.765000 0.185051 0
11.770000 0.205777 0
11.775000 0.219073 0
11.780000 0.223883 1
11.785000 0.219807 0
11.790000 0.207160 0
11.795000 0.186925 0
11.800000 0.160636 0
11.805000 0.130173 0
11.810000 0.097525 0
11.815000 0.064485 0
11.820000 0.032226 0
11.825000 0.000638 0
11.830000 -0.032462 0
11.835000 -0.071494 0
11.840000 -0.121104 0
11.845000 -0.181120 0
11.850000 -0.240612 0
11.855000 -0.276001 2
11.860000 -0.255943 0
11.865000 -0.150037 0
11.870000 0.061543 0
11.875000 0.373562 0
11.880000 0.735875 0
11.885000 1.047917 0
11.890000 1.194047 3
11.895000 1.107140 0
11.900000 0.818810 0
11.905000 0.437893 0
11.910000 0.080572 0
11.915000 -0.179636 0
11.920000 -0.318176 0
11.925000 -0.345061 4
11.930000 -0.292368 0
11.935000 -0.202375 0
11.940000 -0.111926 0
11.945000 -0.040522 0
11.950000 0.009860 0
11.955000 0.046295 0
11.960000 0.076559 0
11.965000 0.105525 0
11.970000 0.135246 0
11.975000 0.166161 0
11.980000 0.198001 0
11.985000 0.230207 0
11.990000 0.262088 0
11.995000 0.292881 0
12.000000 0.321779 0
12.005000 0.347975 0
12.010000 0.370692 0
12.015000 0.389222 0
12.020000 0.402966 0
12.025000 0.411458 0
12.030000 0.414395 5
12.035000 0.411655 0
12.040000 0.403300 0
12.045000 0.389578 0
12.050000 0.370906 0
12.055000 0.347851 0
12.060000 0.321098 0
12.065000 0.291420 0
12.070000 0.259636 0
12.075000 0.226575 0
12.080000 0.193042 0
12.085000 0.159785 0
12.090000 0.127470 0
12.095000 0.096660 0
12.100000 0.067806 0
12.105000 0.041243 0
12.110000 0.017190 0
12.115000 -0.004242 0
12.120000 -0.023037 0
12.125000 -0.039260 0
12.130000 -0.053041 0
12.135000 -0.064557 0
12.140000 -0.074018 0
12.145000 -0.081649 0
12.150000 -0.087683 0
12.155000 -0.092347 0
12.160000 -0.095854 0
12.165000 -0.098401 0
12.170000 -0.100164 0
12.175000 -0.099661 0
12.180000 -0.098777 0
12.185000 -0.097897 0
12.190000 -0.097021 0
12.195000 -0.096150 0
12.200000 -0.095282 0
12.205000 -0.094417 0
12.210000 -0.093554 0
12.215000 -0.092689 0
12.220000 -0.091817 0
12.225000 -0.090928 0
12.230000 -0.090004 0
12.235000 -0.089014 0
12.240000 -0.087910 0
12.245000 -0.086612 0
12.250000 -0.085002 0
12.255000 -0.082904 0
12.260000 -0.080077 0
12.265000 -0.076195 0
12.270000 -0.070850 0
12.275000 -0.063552 0
12.280000 -0.053760 0
12.285000 -0.040924 0
12.290000 -0.024560 0
12.295000 -0.004340 0
12.300000 0.019803 0
12.305000 0.047578 0
12.310000 0.078259 0
12.315000 0.110661 0
12.320000 0.143171 0
12.325000 0.173861 0
12.330000 0.200664 0
12.335000 0.221599 0
12.340000 0.235012 0
12.345000 0.239790 1
12.350000 0.235512 0
12.355000 0.222514 0
12.360000 0.201840 0
12.365000 0.175104 0
12.370000 0.144278 0
12.375000 0.111420 0
12.380000 0.078346 0
12.385000 0.046142 0
12.390000 0.014418 0
12.395000 -0.019516 0
12.400000 -0.060538 0
12.405000 -0.112931 0
12.410000 -0.174428 0
12.415000 -0.230344 0
12.420000 -0.253312 2
12.425000 -0.210118 0
12.430000 -0.071400 0
12.435000 0.176990 0
12.440000 0.515729 0
12.445000 0.872585 0
12.450000 1.130410 0
12.455000 1.182384 3
12.460000 1.000681 0
12.465000 0.657437 0
12.470000 0.274390 0
12.475000 -0.046302 0
12.480000 -0.253247 0
12.485000 -0.338991 4
12.490000 -0.324933 0
12.495000 -0.249881 0
12.500000 -0.156018 0
12.505000 -0.073285 0
12.510000 -0.012390 0
12.515000 0.030238 0
12.520000 0.062863 0
12.525000 0.092079 0
12.530000 0.121283 0
12.535000 0.151600 0
12.540000 0.183034 0
12.545000 0.215136 0
12.550000 0.247264 0
12.555000 0.278676 0
12.560000 0.308574 0
12.565000 0.336139 0
12.570000 0.360567 0
12.575000 0.381105 0
12.580000 0.397093 0
12.585000 0.407996 0
12.590000 0.413430 5
12.595000 0.413190 0
12.600000 0.407257 0
12.605000 0.395799 0
12.610000 0.379166 0
12.615000 0.357871 0
12.620000 0.332560 0
12.625000 0.303980 0
12.630000 0.272945 0
12.635000 0.240292 0
12.640000 0.206850 0
12.645000 0.173398 0
12.650000 0.140645 0
12.655000 0.109201 0
12.660000 0.079566 0
12.665000 0.052122 0
12.670000 0.027133 0
12.675000 0.004748 0
12.680000 -0.014982 0
12.685000 -0.032096 0
12.690000 -0.046705 0
12.695000 -0.058972 0
12.700000 -0.069101 0
12.705000 -0.077315 0
12.710000 -0.083849 0
12.715000 -0.088933 0
12.720000 -0.092789 0
12.725000 -0.095622 0
12.730000 -0.097614 0
12.735000 -0.098611 0
12.740000 -0.097732 0
12.745000 -0.096858 0
12.750000 -0.095988 0
12.755000 -0.095121 0
12.760000 -0.094259 0
12.765000 -0.093400 0
12.770000 -0.092542 0
12.775000 -0.091684 0
12.780000 -0.090821 0
12.785000 -0.089943 0
12.790000 -0.089035 0
12.795000 -0.088071 0
12.800000 -0.087005 0
12.805000 -0.085765 0
12.810000 -0.084242 0
12.815000 -0.082272 0
12.820000 -0.079627 0
12.825000 -0.075997 0
12.830000 -0.070985 0
12.835000 -0.064113 0
12.840000 -0.054839 0
12.845000 -0.042607 0
12.850000 -0.026908 0
12.855000 -0.007375 0
12.860000 0.016113 0
12.865000 0.043329 0
12.870000 0.073615 0
12.875000 0.105846 0
12.880000 0.138455 0
12.885000 0.169530 0
12.890000 0.196992 0
12.895000 0.218813 0
12.900000 0.233264 0
12.905000 0.239140 1
12.910000 0.235926 0
12.915000 0.223871 0
12.920000 0.203954 0
12.925000 0.177753 0
12.930000 0.147234 0
12.935000 0.114481 0
12.940000 0.081368 0
12.945000 0.049080 0
12.950000 0.017378 0
12.955000 -0.016260 0
12.960000 -0.056652 0
12.965000 -0.108318 0
12.970000 -0.169562 0
12.975000 -0.226333 0
12.980000 -0.251527 2
12.985000 -0.211663 0
12.990000 -0.076730 0
12.995000 0.168356 0
13.000000 0.505419 0
13.005000 0.862947 0
13.010000 1.123181 0
13.015000 1.177568 3
13.020000 1.000883 0
13.025000 0.662483 0
13.030000 0.278266 0
13.035000 -0.051300 0
13.040000 -0.272611 0
13.045000 -0.374526 4
13.050000 -0.374325 0
13.055000 -0.307139 0
13.060000 -0.213901 0
13.065000 -0.126664 0
13.070000 -0.059875 0
13.075000 -0.012732 0
13.080000 0.022254 0
13.085000 0.052214 0
13.090000 0.081350 0
13.095000 0.111349 0
13.100000 0.142513 0
13.105000 0.174539 0
13.110000 0.206874 0
13.115000 0.238848 0
13.120000 0.269720 0
13.125000 0.298715 0
13.130000 0.325055 0
13.135000 0.347992 0
13.140000 0.366841 0
13.145000 0.381019 0
13.150000 0.390068 0
13.155000 0.393686 5
13.160000 0.391734 0
13.165000 0.384253 0
13.170000 0.371457 0
13.175000 0.353723 0
13.180000 0.331576 0
13.185000 0.305656 0
13.190000 0.276692 0
13.195000 0.245468 0
13.200000 0.212782 0
13.205000 0.179421 0
13.210000 0.146123 0
13.215000 0.113556 0
13.220000 0.082296 0
13.225000 0.052815 0
13.230000 0.025478 0
13.235000 0.000535 0
13.240000 -0.021867 0
13.245000 -0.041674 0
13.250000 -0.058919 0
13.255000 -0.073701 0
13.260000 -0.086169 0
13.265000 -0.096515 0
13.270000 -0.104947 0
13.275000 -0.111690 0
13.280000 -0.116965 0
13.285000 -0.120987 0
13.290000 -0.123954 0
13.295000 -0.126050 0
13.300000 -0.127435 0
13.305000 -0.126761 0
13.310000 -0.125741 0
13.315000 -0.124727 0
13.320000 -0.123717 0
13.325000 -0.122713 0
13.330000 -0.121712 0
13.335000 -0.120715 0
13.340000 -0.119720 0
13.345000 -0.118722 0
13.350000 -0.117718 0
13.355000 -0.116695 0
13.360000 -0.115635 0
13.365000 -0.114506 0
13.370000 -0.113259 0
13.375000 -0.111814 0
13.380000 -0.110052 0
13.385000 -0.107803 0
13.390000 -0.104828 0
13.395000 -0.100813 0
13.400000 -0.095363 0
13.405000 -0.088009 0
13.410000 -0.078228 0
13.415000 -0.065492 0
13.420000 -0.049325 0
13.425000 -0.029397 0
13.430000 -0.005611 0
13.435000 0.021798 0
13.440000 0.052193 0
13.445000 0.084500 0
13.450000 0.117234 0
13.455000 0.148585 0
13.460000 0.176572 0
13.465000 0.199246 0
13.470000 0.214913 0
13.475000 0.222342 1
13.480000 0.220928 0
13.485000 0.210769 0
13.490000 0.192661 0
13.495000 0.167993 0
13.500000 0.138566 0
13.505000 0.106369 0
13.510000 0.073290 0
13.515000 0.040743 0
13.520000 0.009082 0
13.525000 -0.023198 0
13.530000 -0.059938 0
13.535000 -0.106118 0
13.540000 -0.163639 0
13.545000 -0.225192 0
13.550000 -0.270667 2
13.555000 -0.270134 0
13.560000 -0.191948 0
13.565000 -0.012024 0
13.570000 0.273666 0
13.575000 0.629774 0
13.580000 0.968728 0
13.585000 1.172918 3
13.590000 1.154658 0
13.595000 0.916534 0
13.600000 0.550215 0
13.605000 0.175305 0
13.610000 -0.120187 0
13.615000 -0.298079 0
13.620000 -0.358903 4
13.625000 -0.328310 0
13.630000 -0.246241 0
13.635000 -0.152650 0
13.640000 -0.073414 0
13.645000 -0.015924 0
13.650000 0.024703 0
13.655000 0.056578 0
13.660000 0.085712 0
13.665000 0.115065 0
13.670000 0.145555 0
13.675000 0.177118 0
13.680000 0.209290 0
13.685000 0.241435 0
13.690000 0.272822 0
13.695000 0.302670 0
13.700000 0.330181 0
13.705000 0.354568 0
13.710000 0.375100 0
13.715000 0.391133 0
13.720000 0.402143 0
13.725000 0.407755 0
13.730000 0.407763 5
13.735000 0.402141 0
13.740000 0.391046 0
13.745000 0.374809 0
13.750000 0.353920 0
13.755000 0.329000 0
13.760000 0.300771 0
13.765000 0.270023 0
13.770000 0.237573 0
13.775000 0.204232 0
13.780000 0.170771 0
13.785000 0.137895 0
13.790000 0.106216 0
13.795000 0.076243 0
13.800000 0.048372 0
13.805000 0.022882 0
13.810000 -0.000055 0
13.815000 -0.020372 0
13.820000 -0.038087 0
13.825000 -0.053291 0
13.830000 -0.066133 0
13.835000 -0.076802 0
13.840000 -0.085512 0
13.845000 -0.092490 0
13.850000 -0.097965 0
13.855000 -0.102155 0
13.860000 -0.105267 0
13.865000 -0.107489 0
13.870000 -0.108985 0
13.875000 -0.108405 0
13.880000 -0.107477 0
13.885000 -0.106554 0
13.890000 -0.105635 0
13.895000 -0.104720 0
13.900000 -0.103810 0
13.905000 -0.102902 0
13.910000 -0.101995 0
13.915000 -0.101085 0
13.920000 -0.100167 0
13.925000 -0.099228 0
13.930000 -0.098248 0
13.935000 -0.097194 0
13.940000 -0.096011 0
13.945000 -0.094612 0
13.950000 -0.092869 0
13.955000 -0.090596 0
13.960000 -0.087537 0
13.965000 -0.083355 0
13.970000 -0.077629 0
13.975000 -0.069864 0
13.980000 -0.059519 0
13.985000 -0.046059 0
13.990000 -0.029026 0
13.995000 -0.008132 0
14.000000 0.016638 0
14.005000 0.044935 0
14.010000 0.075976 0
14.015000 0.108528 0
14.020000 0.140951 0
14.025000 0.171313 0
14.030000 0.197575 0
14.035000 0.217806 0
14.040000 0.230421 0
14.045000 0.234387 1
14.050000 0.229357 0
14.055000 0.215726 0
14.060000 0.194576 0
14.065000 0.167533 0
14.070000 0.136557 0
14.075000 0.103676 0
14.080000 0.070656 0
14.085000 0.038523 0
14.090000 0.006818 0
14.095000 -0.027192 0
14.100000 -0.068358 0
14.105000 -0.120856 0
14.110000 -0.182344 0
14.115000 -0.238267 0
14.120000 -0.261639 2
14.125000 -0.219688 0
14.130000 -0.083302 0
14.135000 0.161999 0
14.140000 0.498462 0
14.145000 0.856824 0
14.150000 1.122512 0
14.155000 1.187770 3
14.160000 1.018046 0
14.165000 0.680366 0
14.170000 0.296536 0
14.175000 -0.028500 0
14.180000 -0.240631 0
14.185000 -0.330811 4
14.190000 -0.319689 0
14.195000 -0.245927 0
14.200000 -0.152139 0
14.205000 -0.068967 0
14.210000 -0.007650 0
14.215000 0.035199 0
14.220000 0.067884 0
14.225000 0.097087 0
14.230000 0.126260 0
14.235000 0.156547 0
14.240000 0.187957 0
14.245000 0.220037 0
14.250000 0.252138 0
14.255000 0.283515 0
14.260000 0.313364 0
14.265000 0.340858 0
14.270000 0.365189 0
14.275000 0.385602 0
14.280000 0.401432 0
14.285000 0.412146 0
14.290000 0.417362 5
14.295000 0.416881 0
14.300000 0.410689 0
14.305000 0.398965 0
14.310000 0.382070 0
14.315000 0.360525 0
14.320000 0.334989 0
14.325000 0.306218 0
14.330000 0.275035 0
14.335000 0.242283 0
14.340000 0.208793 0
14.345000 0.175348 0
14.350000 0.142654 0
14.355000 0.111316 0
14.360000 0.081830 0
14.365000 0.054570 0
14.370000 0.029791 0
14.375000 0.007634 0
14.380000 -0.011860 0
14.385000 -0.028737 0
14.390000 -0.043115 0
14.395000 -0.055164 0
14.400000 -0.065091 0
14.405000 -0.073123 0
14.410000 -0.079496 0
14.415000 -0.084443 0
14.420000 -0.088184 0
14.425000 -0.090922 0
14.430000 -0.092840 0
14.435000 -0.093793 0
14.440000 -0.092938 0
14.445000 -0.092087 0
14.450000 -0.091240 0
14.455000 -0.090398 0
14.460000 -0.089559 0
14.465000 -0.088723 0
14.470000 -0.087888 0
14.475000 -0.087052 0
14.480000 -0.086209 0
14.485000 -0.085350 0
14.490000 -0.084457 0
14.495000 -0.083500 0
14.500000 -0.082430 0
14.505000 -0.081169 0
14.510000 -0.079597 0
14.515000 -0.077538 0
14.520000 -0.074748 0
14.525000 -0.070896 0
14.530000 -0.065567 0
14.535000 -0.058263 0
14.540000 -0.048432 0
14.545000 -0.035515 0
14.550000 -0.019025 0
14.555000 0.001365 0
14.560000 0.025707 0
14.565000 0.053680 0
14.570000 0.084517 0
14.575000 0.116976 0
14.580000 0.149384 0
14.585000 0.179760 0
14.590000 0.205999 0
14.595000 0.226109 0
14.600000 0.238464 0
14.605000 0.242012 1
14.610000 0.236430 0
14.615000 0.222165 0
14.620000 0.200381 0
14.625000 0.172793 0
14.630000 0.141442 0
14.635000 0.108405 0
14.640000 0.075433 0
14.645000 0.043404 0
14.650000 0.011501 0
14.655000 -0.023562 0
14.660000 -0.066975 0
14.665000 -0.122166 0
14.670000 -0.184211 0
14.675000 -0.234692 0
14.680000 -0.243389 2
14.685000 -0.176589 0
14.690000 -0.007336 0
14.695000 0.271362 0
14.700000 0.625650 0
14.705000 0.965389 0
14.710000 1.166905 3
14.715000 1.144412 0
14.720000 0.904166 0
14.725000 0.537494 0
14.730000 0.162547 0
14.735000 -0.133704 0
14.740000 -0.313236 0
14.745000 -0.376164 4
14.750000 -0.347431 0
14.755000 -0.266280 0
14.760000 -0.172433 0
14.765000 -0.092163 0
14.770000 -0.033516 0
14.775000 0.007943 0
14.780000 0.040240 0
14.785000 0.069508 0
14.790000 0.098861 0
14.795000 0.129317 0
14.800000 0.160866 0
14.805000 0.193071 0
14.810000 0.225316 0
14.815000 0.256887 0
14.820000 0.287018 0
14.825000 0.314918 0
14.830000 0.339811 0
14.835000 0.360964 0
14.840000 0.377727 0
14.845000 0.389566 0
14.850000 0.396086 0
14.855000 0.397058 5
14.860000 0.392428 0
14.865000 0.382320 0
14.870000 0.367033 0
14.875000 0.347024 0
14.880000 0.322883 0
14.885000 0.295309 0
14.890000 0.265069 0
14.895000 0.232969 0
14.900000 0.199813 0
14.905000 0.166375 0
14.910000 0.133365 0
14.915000 0.101413 0
14.920000 0.071044 0
14.925000 0.042678 0
14.930000 0.016620 0
14.935000 -0.006937 0
14.940000 -0.027898 0
14.945000 -0.046260 0
14.950000 -0.062096 0
14.955000 -0.075537 0
14.960000 -0.086761 0
14.965000 -0.095973 0
14.970000 -0.103396 0
14.975000 -0.109254 0
14.980000 -0.113769 0
14.985000 -0.117148 0
14.990000 -0.119583 0
14.995000 -0.121244 0
15.000000 -0.120637 0
15.005000 -0.119648 0
15.010000 -0.118664 0
15.015000 -0.117685 0
15.020000 -0.116711 0
15.025000 -0.115740 0
15.030000 -0.114774 0
15.035000 -0.113809 0
15.040000 -0.112844 0
15.045000 -0.111874 0
15.050000 -0.110889 0
15.055000 -0.109873 0
15.060000 -0.108800 0
15.065000 -0.107625 0
15.070000 -0.106278 0
15.075000 -0.104651 0
15.080000 -0.102588 0
15.085000 -0.099870 0
15.090000 -0.096199 0
15.095000 -0.091199 0
15.100000 -0.084413 0
15.105000 -0.075324 0
15.110000 -0.063392 0
15.115000 -0.048119 0
15.120000 -0.029125 0
15.125000 -0.006247 0
15.130000 0.020361 0
15.135000 0.050153 0
15.140000 0.082139 0
15.145000 0.114901 0
15.150000 0.146668 0
15.155000 0.175457 0
15.160000 0.199274 0
15.165000 0.216339 0
15.170000 0.225307 0
15.175000 0.225441 1
15.180000 0.216714 0
15.185000 0.199816 0
15.190000 0.176062 0
15.195000 0.147221 0
15.200000 0.115289 0
15.205000 0.082213 0
15.210000 0.049519 0
15.215000 0.017755 0
15.220000 -0.014306 0
15.225000 -0.050267 0
15.230000 -0.095176 0
15.235000 -0.151617 0
15.240000 -0.213488 0
15.245000 -0.261792 0
15.250000 -0.266946 2
15.255000 -0.196736 0
15.260000 -0.025742 0
15.265000 0.252415 0
15.270000 0.605747 0
15.275000 0.949328 0
15.280000 1.164712 3
15.285000 1.161610 0
15.290000 0.936932 0
15.295000 0.576313 0
15.300000 0.197874 0
15.305000 -0.107691 0
15.310000 -0.298383 0
15.315000 -0.371475 4
15.320000 -0.349943 0
15.325000 -0.272046 0
15.330000 -0.177999 0
15.335000 -0.095718 0
15.340000 -0.034927 0
15.345000 0.007943 0
15.350000 0.040852 0
15.355000 0.070231 0
15.360000 0.099477 0
15.365000 0.129777 0
15.370000 0.161197 0
15.375000 0.193335 0
15.380000 0.225590 0
15.385000 0.257262 0
15.390000 0.287591 0
15.395000 0.315792 0
15.400000 0.341087 0
15.405000 0.362738 0
15.410000 0.380087 0
15.415000 0.392583 0
15.420000 0.399815 0
15.425000 0.401530 5
15.430000 0.397651 0
15.435000 0.388277 0
15.440000 0.373682 0
15.445000 0.354300 0
15.450000 0.330702 0
15.455000 0.303569 0
15.460000 0.273659 0
15.465000 0.241771 0
15.470000 0.208707 0
15.475000 0.175246 0
15.480000 0.142106 0
15.485000 0.109928 0
15.490000 0.079255 0
15.495000 0.050520 0
15.500000 0.024046 0
15.505000 0.000044 0
15.510000 -0.021376 0
15.515000 -0.040196 0
15.520000 -0.056478 0
15.525000 -0.070343 0
15.530000 -0.081961 0
15.535000 -0.091533 0
15.540000 -0.099278 0
15.545000 -0.105421 0
15.550000 -0.110183 0
15.555000 -0.113774 0
15.560000 -0.116388 0
15.565000 -0.118199 0
15.570000 -0.119049 0
15.575000 -0.118068 0
15.580000 -0.117092 0
15.585000 -0.116121 0
15.590000 -0.115154 0
15.595000 -0.114192 0
15.600000 -0.113233 0
15.605000 -0.112277 0
15.610000 -0.111321 0
15.615000 -0.110361 0
15.620000 -0.109388 0
15.625000 -0.108390 0
15.630000 -0.107341 0
15.635000 -0.106201 0
15.640000 -0.104908 0
15.645000 -0.103364 0
15.650000 -0.101424 0
15.655000 -0.098886 0
15.660000 -0.095471 0
15.665000 -0.090824 0
15.670000 -0.084506 0
15.675000 -0.076013 0
15.680000 -0.064809 0
15.685000 -0.050381 0
15.690000 -0.032314 0
15.695000 -0.010385 0
15.700000 0.015338 0
15.705000 0.044412 0
15.710000 0.075961 0
15.715000 0.108674 0
15.720000 0.140863 0
15.725000 0.170591 0
15.730000 0.195851 0
15.735000 0.214797 0
15.740000 0.225955 0
15.745000 0.228422 1
15.750000 0.221982 0
15.755000 0.207139 0
15.760000 0.185050 0
15.765000 0.157378 0
15.770000 0.126075 0
15.775000 0.093125 0
15.780000 0.060207 0
15.785000 0.028209 0
15.790000 -0.003519 0
15.795000 -0.037899 0
15.800000 -0.079804 0
15.805000 -0.133089 0
15.810000 -0.194764 0
15.815000 -0.249692 0
15.820000 -0.270799 2
15.825000 -0.225801 0
15.830000 -0.086366 0
15.835000 0.161151 0
15.840000 0.498467 0
15.845000 0.856806 0
15.850000 1.123293 0
15.855000 1.191607 3
15.860000 1.024978 0
15.865000 0.688651 0
15.870000 0.304682 0
15.875000 -0.021142 0
15.880000 -0.234061 0
15.885000 -0.324753 4
15.890000 -0.313846 0
15.895000 -0.240124 0
15.900000 -0.146366 0
15.905000 -0.063300 0
15.910000 -0.002137 0
15.915000 0.040573 0
15.920000 0.073171 0
15.925000 0.102335 0
15.930000 0.131496 0
15.935000 0.161779 0
15.940000 0.193182 0
15.945000 0.225246 0
15.950000 0.257318 0
15.955000 0.288645 0
15.960000 0.318421 0
15.965000 0.345816 0
15.970000 0.370018 0
15.975000 0.390272 0
15.980000 0.405915 0
15.985000 0.416415 0
15.990000 0.421396 5
15.995000 0.420663 0
16.000000 0.414213 0
16.005000 0.402231 0
16.010000 0.385088 0
16.015000 0.363314 0
16.020000 0.337576 0
16.025000 0.308639 0
16.030000 0.277328 0
16.035000 0.244492 0
16.040000 0.210964 0
16.045000 0.177524 0
16.050000 0.144877 0
16.055000 0.113624 0
16.060000 0.084254 0
16.065000 0.057136 0
16.070000 0.032516 0
16.075000 0.010530 0
16.080000 -0.008787 0
16.085000 -0.025490 0
16.090000 -0.039701 0
16.095000 -0.051593 0
16.100000 -0.061376 0
16.105000 -0.069281 0
16.110000 -0.075544 0
16.115000 -0.080397 0
16.120000 -0.084060 0
16.125000 -0.086737 0
16.130000 -0.088608 0
16.135000 -0.089534 0
16.140000 -0.088701 0
16.145000 -0.087871 0
16.150000 -0.087046 0
16.155000 -0.086224 0
16.160000 -0.085406 0
16.165000 -0.084590 0
16.170000 -0.083776 0
16.175000 -0.082959 0
16.180000 -0.082135 0
16.185000 -0.081293 0
16.190000 -0.080414 0
16.195000 -0.079466 0
16.200000 -0.078397 0
16.205000 -0.077124 0
16.210000 -0.075520 0
16.215000 -0.073402 0
16.220000 -0.070511 0
16.225000 -0.066508 0
16.230000 -0.060961 0
16.235000 -0.053361 0
16.240000 -0.043151 0
16.245000 -0.029775 0
16.250000 -0.012758 0
16.255000 0.008193 0
16.260000 0.033083 0
16.265000 0.061528 0
16.270000 0.092684 0
16.275000 0.125237 0
16.280000 0.157449 0
16.285000 0.187297 0
16.290000 0.212670 0
16.295000 0.231610 0
16.300000 0.242563 0
16.305000 0.244586 1
16.310000 0.237483 0
16.315000 0.221829 0
16.320000 0.198900 0
16.325000 0.170493 0
16.330000 0.138684 0
16.335000 0.105532 0
16.340000 0.072687 0
16.345000 0.040790 0
16.350000 0.008613 0
16.355000 -0.027606 0
16.360000 -0.073140 0
16.365000 -0.130396 0
16.370000 -0.192103 0
16.375000 -0.237107 2
16.380000 -0.233616 0
16.385000 -0.148289 0
16.390000 0.043233 0
16.395000 0.341639 0
16.400000 0.702025 0
16.405000 1.023434 0
16.410000 1.182382 3
16.415000 1.108773 0
16.420000 0.830619 0
16.425000 0.452196 0
16.430000 0.089537 0
16.435000 -0.180907 0
16.440000 -0.331223 0
16.445000 -0.368590 4
16.450000 -0.322774 0
16.455000 -0.234980 0
16.460000 -0.142938 0
16.465000 -0.068338 0
16.470000 -0.015107 0
16.475000 0.023024 0
16.480000 0.053963 0
16.485000 0.083028 0
16.490000 0.112634 0
16.495000 0.143416 0
16.500000 0.175194 0
16.505000 0.207460 0
16.510000 0.239552 0
16.515000 0.270733 0
16.520000 0.300216 0
16.525000 0.327204 0
16.530000 0.350922 0
16.535000 0.370654 0
16.540000 0.385781 0
16.545000 0.395807 0
16.550000 0.400389 5
16.555000 0.399356 0
16.560000 0.392717 0
16.565000 0.380663 0
16.570000 0.363555 0
16.575000 0.341908 0
16.580000 0.316361 0
16.585000 0.287652 0
16.590000 0.256574 0
16.595000 0.223943 0
16.600000 0.190565 0
16.605000 0.157197 0
16.610000 0.124527 0
16.615000 0.093149 0
16.620000 0.063552 0
16.625000 0.036108 0
16.630000 0.011078 0
16.635000 -0.011385 0
16.640000 -0.031228 0
16.645000 -0.048483 0
16.650000 -0.063253 0
16.655000 -0.075692 0
16.660000 -0.085995 0
16.665000 -0.094378 0
16.670000 -0.101067 0
16.675000 -0.106290 0
16.680000 -0.110264 0
16.685000 -0.113191 0
16.690000 -0.115255 0
16.695000 -0.116280 0
16.700000 -0.115313 0
16.705000 -0.114350 0
16.710000 -0.113393 0
16.715000 -0.112440 0
16.720000 -0.111491 0
16.725000 -0.110547 0
16.730000 -0.109605 0
16.735000 -0.108663 0
16.740000 -0.107719 0
16.745000 -0.106765 0
16.750000 -0.105789 0
16.755000 -0.104769 0
16.760000 -0.103668 0
16.765000 -0.102430 0
16.770000 -0.100962 0
16.775000 -0.099132 0
16.780000 -0.096745 0
16.785000 -0.093536 0
16.790000 -0.089159 0
16.795000 -0.083185 0
16.800000 -0.075113 0
16.805000 -0.064401 0
16.810000 -0.050521 0
16.815000 -0.033030 0
16.820000 -0.011667 0
16.825000 0.013548 0
16.830000 0.042219 0
16.835000 0.073519 0
16.840000 0.106171 0
16.845000 0.138501 0
16.850000 0.168565 0
16.855000 0.194328 0
16.860000 0.213890 0
16.865000 0.225718 0
16.870000 0.228842 1
16.875000 0.222991 0
16.880000 0.208626 0
16.885000 0.186883 0
16.890000 0.159426 0
16.895000 0.128225 0
16.900000 0.095295 0
16.905000 0.062355 0
16.910000 0.030330 0
16.915000 -0.001399 0
16.920000 -0.035766 0
16.925000 -0.077704 0
16.930000 -0.131100 0
16.935000 -0.192828 0
16.940000 -0.247328 0
16.945000 -0.266955 2
16.950000 -0.218974 0
16.955000 -0.075004 0
16.960000 0.177784 0
16.965000 0.518632 0
16.970000 0.874707 0
16.975000 1.130117 0
16.980000 1.180401 3
16.985000 1.000795 0
16.990000 0.660795 0
16.995000 0.276761 0
17.000000 -0.051245 0
17.005000 -0.270341 0
17.010000 -0.370009 4
17.015000 -0.368017 0
17.020000 -0.299843 0
17.025000 -0.206468 0
17.030000 -0.119664 0
17.035000 -0.053466 0
17.040000 -0.006785 0
17.045000 0.027950 0
17.050000 0.057817 0
17.055000 0.086940 0
17.060000 0.116954 0
17.065000 0.148130 0
17.070000 0.180154 0
17.075000 0.212466 0
17.080000 0.244390 0
17.085000 0.275184 0
17.090000 0.304069 0
17.095000 0.330266 0
17.100000 0.353025 0
17.105000 0.371666 0
17.110000 0.385607 0
17.115000 0.394398 0
17.120000 0.397740 5
17.125000 0.395505 0
17.130000 0.387740 0
17.135000 0.374668 0
17.140000 0.356677 0
17.145000 0.334297 0
17.150000 0.308176 0
17.155000 0.279049 0
17.160000 0.247702 0
17.165000 0.214937 0
17.170000 0.181540 0
17.175000 0.148247 0
17.180000 0.115722 0
17.185000 0.084539 0
17.190000 0.055163 0
17.195000 0.027951 0
17.200000 0.003149 0
17.205000 -0.019101 0
17.210000 -0.038755 0
17.215000 -0.055848 0
17.220000 -0.070483 0
17.225000 -0.082815 0
17.230000 -0.093036 0
17.235000 -0.101357 0
17.240000 -0.108004 0
17.245000 -0.113197 0
17.250000 -0.117151 0
17.255000 -0.120065 0
17.260000 -0.122118 0
17.265000 -0.123472 0
17.270000 -0.122811 0
17.275000 -0.121811 0
17.280000 -0.120816 0
17.285000 -0.119826 0
17.290000 -0.118841 0
17.295000 -0.117860 0
17.300000 -0.116881 0
17.305000 -0.115905 0
17.310000 -0.114926 0
17.315000 -0.113938 0
17.320000 -0.112931 0
17.325000 -0.111884 0
17.330000 -0.110765 0
17.335000 -0.109521 0
17.340000 -0.108069 0
17.345000 -0.106285 0
17.350000 -0.103992 0
17.355000 -0.100944 0
17.360000 -0.096819 0
17.365000 -0.091211 0
17.370000 -0.083643 0
17.375000 -0.073588 0
17.380000 -0.060519 0
17.385000 -0.043972 0
17.390000 -0.023634 0
17.395000 0.000558 0
17.400000 0.028327 0
17.405000 0.058986 0
17.410000 0.091410 0
17.415000 0.124065 0
17.420000 0.155109 0
17.425000 0.182549 0
17.430000 0.204451 0
17.435000 0.219160 0
17.440000 0.225513 1
17.445000 0.222984 0
17.450000 0.211764 0
17.455000 0.192729 0
17.460000 0.167336 0
17.465000 0.137429 0
17.470000 0.105002 0
17.475000 0.071913 0
17.480000 0.039480 0
17.485000 0.007858 0
17.490000 -0.024764 0
17.495000 -0.062517 0
17.500000 -0.110289 0
17.505000 -0.169090 0
17.510000 -0.229913 0
17.515000 -0.270894 2
17.520000 -0.261249 0
17.525000 -0.169750 0
17.530000 0.025797 0
17.535000 0.325054 0
17.540000 0.685285 0
17.545000 1.011804 0
17.550000 1.186963 3
17.555000 1.131924 0
17.560000 0.864712 0
17.565000 0.488594 0
17.570000 0.123384 0
17.575000 -0.150434 0
17.580000 -0.302906 0
17.585000 -0.340865 4
17.590000 -0.294708 0
17.595000 -0.206655 0
17.600000 -0.115099 0
17.605000 -0.041623 0
17.610000 0.010403 0
17.615000 0.047682 0
17.620000 0.078205 0
17.625000 0.107150 0
17.630000 0.136768 0
17.635000 0.167586 0
17.640000 0.199363 0
17.645000 0.231548 0
17.650000 0.263453 0
17.655000 0.294308 0
17.660000 0.323304 0
17.665000 0.349625 0
17.670000 0.372486 0
17.675000 0.391172 0
17.680000 0.405070 0
17.685000 0.413707 0
17.690000 0.416774 5
17.695000 0.414141 0
17.700000 0.405868 0
17.705000 0.392201 0
17.710000 0.373559 0
17.715000 0.350510 0
17.720000 0.323747 0
17.725000 0.294047 0
17.730000 0.262236 0
17.735000 0.229151 0
17.740000 0.195602 0
17.745000 0.162342 0
17.750000 0.130039 0
17.755000 0.099261 0
17.760000 0.070458 0
17.765000 0.043963 0
17.770000 0.019994 0
17.775000 -0.001341 0
17.780000 -0.020030 0
17.785000 -0.036143 0
17.790000 -0.049812 0
17.795000 -0.061218 0
17.800000 -0.070575 0
17.805000 -0.078110 0
17.810000 -0.084058 0
17.815000 -0.088646 0
17.820000 -0.092089 0
17.825000 -0.094584 0
17.830000 -0.096306 0
17.835000 -0.095812 0
17.840000 -0.094947 0
17.845000 -0.094087 0
17.850000 -0.093230 0
17.855000 -0.092378 0
17.860000 -0.091528 0
17.865000 -0.090682 0
17.870000 -0.089837 0
17.875000 -0.088989 0
17.880000 -0.088134 0
17.885000 -0.087259 0
17.890000 -0.086346 0
17.895000 -0.085361 0
17.900000 -0.084252 0
17.905000 -0.082933 0
17.910000 -0.081278 0
17.915000 -0.079101 0
17.920000 -0.076145 0
17.925000 -0.072069 0
17.930000 -0.066445 0
17.935000 -0.058771 0
17.940000 -0.048494 0
17.945000 -0.035066 0
17.950000 -0.018021 0
17.955000 0.002932 0
17.960000 0.027800 0
17.965000 0.056207 0
17.970000 0.087332 0
17.975000 0.119887 0
17.980000 0.152170 0
17.985000 0.182192 0
17.990000 0.207866 0
17.995000 0.227248 0
18.000000 0.238774 0
18.005000 0.241468 1
18.010000 0.235082 0
18.015000 0.220127 0
18.020000 0.197810 0
18.025000 0.169866 0
18.030000 0.138330 0
18.035000 0.105253 0
18.040000 0.072332 0
18.045000 0.040360 0
18.050000 0.008403 0
18.055000 -0.026929 0
18.060000 -0.070812 0
18.065000 -0.126435 0
18.070000 -0.188467 0
18.075000 -0.238170 0
18.080000 -0.245343 2
18.085000 -0.176613 0
18.090000 -0.005517 0
18.095000 0.274414 0
18.100000 0.629028 0
18.105000 0.968584 0
18.110000 1.170436 3
18.115000 1.146247 0
18.120000 0.902003 0
18.125000 0.533020 0
18.130000 0.160547 0
18.135000 -0.128410 0
18.140000 -0.297794 0
18.145000 -0.350285 4
18.150000 -0.313533 0
18.155000 -0.228809 0
18.160000 -0.135900 0
18.165000 -0.059137 0
18.170000 -0.004169 0
18.175000 0.034822 0
18.180000 0.065996 0
18.185000 0.095015 0
18.190000 0.124501 0
18.195000 0.155170 0
18.200000 0.186862 0
18.205000 0.219061 0
18.210000 0.251099 0
18.215000 0.282220 0
18.220000 0.311621 0
18.225000 0.338489 0
18.230000 0.362033 0
18.235000 0.381526 0
18.240000 0.396338 0
18.245000 0.405972 0
18.250000 0.410088 5
18.255000 0.408524 0
18.260000 0.401307 0
18.265000 0.388646 0
18.270000 0.370929 0
18.275000 0.348698 0
18.280000 0.322619 0
18.285000 0.293456 0
18.290000 0.262024 0
18.295000 0.229157 0
18.300000 0.195671 0
18.305000 0.162329 0
18.310000 0.129816 0
18.315000 0.098719 0
18.320000 0.069510 0
18.325000 0.042546 0
18.330000 0.018067 0
18.335000 -0.003797 0
18.340000 -0.023016 0
18.345000 -0.039642 0
18.350000 -0.053796 0
18.355000 -0.065649 0
18.360000 -0.075407 0
18.365000 -0.083296 0
18.370000 -0.089549 0
18.375000 -0.094393 0
18.380000 -0.098048 0
18.385000 -0.100712 0
18.390000 -0.102567 0
18.395000 -0.103463 0
18.400000 -0.102560 0
18.405000 -0.101661 0
18.410000 -0.100767 0
18.415000 -0.099877 0
18.420000 -0.098991 0
18.425000 -0.098108 0
18.430000 -0.097226 0
18.435000 -0.096344 0
18.440000 -0.095456 0
18.445000 -0.094552 0
18.450000 -0.093615 0
18.455000 -0.092618 0
18.460000 -0.091513 0
18.465000 -0.090226 0
18.470000 -0.088640 0
18.475000 -0.086590 0
18.480000 -0.083838 0
18.485000 -0.080068 0
18.490000 -0.074879 0
18.495000 -0.067786 0
18.500000 -0.058249 0
18.505000 -0.045714 0
18.510000 -0.029685 0
18.515000 -0.009814 0
18.520000 0.013997 0
18.525000 0.041490 0
18.530000 0.071978 0
18.535000 0.104309 0
18.540000 0.136897 0
18.545000 0.167827 0
18.550000 0.195025 0
18.555000 0.216487 0
18.560000 0.230519 0
18.565000 0.235956 1
18.570000 0.232324 0
18.575000 0.219906 0
18.580000 0.199707 0
18.585000 0.173316 0
18.590000 0.142697 0
18.595000 0.109922 0
18.600000 0.076839 0
18.605000 0.044597 0
18.610000 0.012907 0
18.615000 -0.020797 0
18.620000 -0.061341 0
18.625000 -0.113170 0
18.630000 -0.174456 0
18.635000 -0.231061 0
18.640000 -0.255942 2
18.645000 -0.215797 0
18.650000 -0.080817 0
18.655000 0.163999 0
18.660000 0.500719 0
18.665000 0.858572 0
18.670000 1.120679 0
18.675000 1.178531 3
18.680000 1.005707 0
18.685000 0.669680 0
18.690000 0.285187 0
18.695000 -0.047058 0
18.700000 -0.272416 0
18.705000 -0.378656 0
18.710000 -0.382072 4
18.715000 -0.317002 0
18.720000 -0.224136 0
18.725000 -0.136016 0
18.730000 -0.067941 0
18.735000 -0.019766 0
18.740000 0.015789 0
18.745000 0.045946 0
18.750000 0.075081 0
18.755000 0.105012 0
18.760000 0.136107 0
18.765000 0.168098 0
18.770000 0.200450 0
18.775000 0.232505 0
18.780000 0.263533 0
18.785000 0.292768 0
18.790000 0.319435 0
18.795000 0.342788 0
18.800000 0.362140 0
18.805000 0.376898 0
18.810000 0.386594 0
18.815000 0.390907 5
18.820000 0.389679 0
18.825000 0.382928 0
18.830000 0.370845 0
18.835000 0.353784 0
18.840000 0.332244 0
18.845000 0.306848 0
18.850000 0.278308 0
18.855000 0.247396 0
18.860000 0.214904 0
18.865000 0.181617 0
18.870000 0.148277 0
18.875000 0.115559 0
18.880000 0.084052 0
18.885000 0.054243 0
18.890000 0.026513 0
18.895000 0.001130 0
18.900000 -0.021740 0
18.905000 -0.042030 0
18.910000 -0.059754 0
18.915000 -0.075000 0
18.920000 -0.087909 0
18.925000 -0.098660 0
18.930000 -0.107461 0
18.935000 -0.114530 0
18.940000 -0.120090 0
18.945000 -0.124354 0
18.950000 -0.127524 0
18.955000 -0.129787 0
18.960000 -0.131305 0
18.965000 -0.130635 0
18.970000 -0.129596 0
18.975000 -0.128562 0
18.980000 -0.127534 0
18.985000 -0.126510 0
18.990000 -0.125491 0
18.995000 -0.124476 0
19.000000 -0.123462 0
19.005000 -0.122449 0
19.010000 -0.121430 0
19.015000 -0.120396 0
19.020000 -0.119332 0
19.025000 -0.118211 0
19.030000 -0.116988 0
19.035000 -0.115595 0
19.040000 -0.113926 0
19.045000 -0.111830 0
19.050000 -0.109090 0
19.055000 -0.105421 0
19.060000 -0.100453 0
19.065000 -0.093744 0
19.070000 -0.084787 0
19.075000 -0.073054 0
19.080000 -0.058049 0
19.085000 -0.039386 0
19.090000 -0.016879 0
19.095000 0.009357 0
19.100000 0.038834 0
19.105000 0.070635 0
19.110000 0.103424 0
19.115000 0.135502 0
19.120000 0.164944 0
19.125000 0.189780 0
19.130000 0.208211 0
19.135000 0.218824 0
19.140000 0.220774 1
19.145000 0.213890 0
19.150000 0.198709 0
19.155000 0.176399 0
19.160000 0.148614 0
19.165000 0.117284 0
19.170000 0.084361 0
19.175000 0.051492 0
19.180000 0.019540 0
19.185000 -0.012140 0
19.190000 -0.046414 0
19.195000 -0.088081 0
19.200000 -0.141013 0
19.205000 -0.202536 0
19.210000 -0.258175 0
19.215000 -0.281631 2
19.220000 -0.241123 0
19.225000 -0.108259 0
19.230000 0.131768 0
19.235000 0.463898 0
19.240000 0.824538 0
19.245000 1.104738 0
19.250000 1.196065 3
19.255000 1.052825 0
19.260000 0.729900 0
19.265000 0.345165 0
19.270000 0.007559 0
19.275000 -0.222283 0
19.280000 -0.330032 0
19.285000 -0.332482 4
19.290000 -0.265850 0
19.295000 -0.172757 0
19.300000 -0.086347 0
19.305000 -0.021013 0
19.310000 0.024696 0
19.315000 0.058736 0
19.320000 0.088274 0
19.325000 0.117318 0
19.330000 0.147358 0
19.335000 0.178565 0
19.340000 0.210558 0
19.345000 0.242729 0
19.350000 0.274357 0
19.355000 0.304659 0
19.360000 0.332821 0
19.365000 0.358036 0
19.370000 0.379541 0
19.375000 0.396654 0
19.380000 0.408809 0
19.385000 0.415587 0
19.390000 0.416739 5
19.395000 0.412199 0
19.400000 0.402089 0
19.405000 0.386715 0
19.410000 0.366545 0
19.415000 0.342193 0
19.420000 0.314379 0
19.425000 0.283899 0
19.430000 0.251583 0
19.435000 0.218262 0
19.440000 0.184728 0
19.445000 0.151707 0
19.450000 0.119834 0
19.455000 0.089639 0
19.460000 0.061535 0
19.465000 0.035816 0
19.470000 0.012664 0
19.475000 -0.007845 0
19.480000 -0.025725 0
19.485000 -0.041067 0
19.490000 -0.054020 0
19.495000 -0.064777 0
19.500000 -0.073555 0
19.505000 -0.080585 0
19.510000 -0.086099 0
19.515000 -0.090321 0
19.520000 -0.093460 0
19.525000 -0.095707 0
19.530000 -0.097229 0
19.535000 -0.096702 0
19.540000 -0.095833 0
19.545000 -0.094967 0
19.550000 -0.094106 0
19.555000 -0.093249 0
19.560000 -0.092396 0
19.565000 -0.091544 0
19.570000 -0.090693 0
19.575000 -0.089839 0
19.580000 -0.088974 0
19.585000 -0.088085 0
19.590000 -0.087151 0
19.595000 -0.086134 0
19.600000 -0.084972 0
19.605000 -0.083572 0
19.610000 -0.081792 0
19.615000 -0.079430 0
19.620000 -0.076208 0
19.625000 -0.071763 0
19.630000 -0.065647 0
19.635000 -0.057342 0
19.640000 -0.046293 0
19.645000 -0.031965 0
19.650000 -0.013930 0
19.655000 0.008039 0
19.660000 0.033860 0
19.665000 0.063053 0
19.670000 0.094678 0
19.675000 0.127342 0
19.680000 0.159262 0
19.685000 0.188410 0
19.690000 0.212718 0
19.695000 0.230320 0
19.700000 0.239780 0
19.705000 0.240294 1
19.710000 0.231795 0
19.715000 0.214968 0
19.720000 0.191158 0
19.725000 0.162190 0
19.730000 0.130123 0
19.735000 0.096957 0
19.740000 0.064234 0
19.745000 0.032432 0
19.750000 0.000105 0
19.755000 -0.036675 0
19.760000 -0.083083 0
19.765000 -0.141009 0
19.770000 -0.202422 0
19.775000 -0.245683 2
19.780000 -0.239160 0
19.785000 -0.150202 0
19.790000 0.044621 0
19.795000 0.345047 0
19.800000 0.705758 0
19.805000 1.026739 0
19.810000 1.186397 3
19.815000 1.112491 0
19.820000 0.832465 0
19.825000 0.453245 0
19.830000 0.092752 0
19.835000 -0.172653 0
19.840000 -0.316343 0
19.845000 -0.347187 4
19.850000 -0.296733 0
19.855000 -0.207345 0
19.860000 -0.116492 0
19.865000 -0.044408 0
19.870000 0.006489 0
19.875000 0.043181 0
19.880000 0.073531 0
19.885000 0.102508 0
19.890000 0.132221 0
19.895000 0.163133 0
19.900000 0.194977 0
19.905000 0.227196 0
19.910000 0.259096 0
19.915000 0.289910 0
19.920000 0.318828 0
19.925000 0.345038 0
19.930000 0.367760 0
19.935000 0.386283 0
19.940000 0.400003 0
19.945000 0.408455 0
19.950000 0.411337 5
19.955000 0.408526 0
19.960000 0.400090 0
19.965000 0.386279 0
19.970000 0.367516 0
19.975000 0.344373 0
19.980000 0.317543 0
19.985000 0.287803 0
19.990000 0.255977 0
19.995000 0.222899 0
20.000000 0.189376 0
20.005000 0.156156 0
20.010000 0.123906 0
20.015000 0.093185 0
20.020000 0.064445 0
20.025000 0.038013 0
20.030000 0.014106 0
20.035000 -0.007171 0
20.040000 -0.025807 0
20.045000 -0.041871 0
20.050000 -0.055496 0
20.055000 -0.066863 0
20.060000 -0.076185 0
20.065000 -0.083689 0
20.070000 -0.089608 0
20.075000 -0.094170 0
20.080000 -0.097588 0
20.085000 -0.100059 0
20.090000 -0.101757 0
20.095000 -0.101237 0
20.100000 -0.100345 0
20.105000 -0.099458 0
20.110000 -0.098574 0
20.115000 -0.097695 0
20.120000 -0.096819 0
20.125000 -0.095947 0
20.130000 -0.095075 0
20.135000 -0.094202 0
20.140000 -0.093321 0
20.145000 -0.092421 0
20.150000 -0.091483 0
20.155000 -0.090475 0
20.160000 -0.089345 0
20.165000 -0.088009 0
20.170000 -0.086342 0
20.175000 -0.084160 0
20.180000 -0.081210 0
20.185000 -0.077155 0
20.190000 -0.071572 0
20.195000 -0.063961 0
20.200000 -0.053774 0
20.205000 -0.040462 0
20.210000 -0.023554 0
20.215000 -0.002753 0
20.220000 0.021963 0
20.225000 0.050241 0
20.230000 0.081282 0
20.235000 0.113825 0
20.240000 0.146191 0
20.245000 0.176408 0
20.250000 0.202396 0
20.255000 0.222201 0
20.260000 0.234237 0
20.265000 0.237493 1
20.270000 0.231675 0
20.275000 0.217249 0
20.280000 0.195378 0
20.285000 0.167763 0
20.290000 0.136424 0
20.295000 0.103413 0
20.300000 0.070461 0
20.305000 0.038447 0
20.310000 0.006594 0
20.315000 -0.028292 0
20.320000 -0.071324 0
20.325000 -0.126048 0
20.330000 -0.188049 0
20.335000 -0.239751 0
20.340000 -0.251714 2
20.345000 -0.190551 0
20.350000 -0.028880 0
20.355000 0.242177 0
20.360000 0.593001 0
20.365000 0.938888 0
20.370000 1.158225 3
20.375000 1.156337 0
20.380000 0.931488 0
20.385000 0.570802 0
20.390000 0.192440 0
20.395000 -0.112932 0
20.400000 -0.303375 0
20.405000 -0.376219 4
20.410000 -0.354489 0
20.415000 -0.276483 0
20.420000 -0.182416 0
20.425000 -0.100168 0
20.430000 -0.039418 0
20.435000 0.003430 0
20.440000 0.036341 0
20.445000 0.065737 0
20.450000 0.095009 0
20.455000 0.125337 0
20.460000 0.156784 0
20.465000 0.188947 0
20.470000 0.221223 0
20.475000 0.252913 0
20.480000 0.283256 0
20.485000 0.311466 0
20.490000 0.336765 0
20.495000 0.358415 0
20.500000 0.375759 0
20.505000 0.388246 0
20.510000 0.395466 0
20.515000 0.397166 5
20.520000 0.393271 0
20.525000 0.383882 0
20.530000 0.369273 0
20.535000 0.349879 0
20.540000 0.326273 0
20.545000 0.299137 0
20.550000 0.269229 0
20.555000 0.237349 0
20.560000 0.204299 0
20.565000 0.170858 0
20.570000 0.137745 0
20.575000 0.105599 0
20.580000 0.074962 0
20.585000 0.046267 0
20.590000 0.019835 0
20.595000 -0.004122 0
20.600000 -0.025497 0
20.605000 -0.044271 0
20.610000 -0.060508 0
20.615000 -0.074329 0
20.620000 -0.085905 0
20.625000 -0.095437 0
20.630000 -0.103143 0
20.635000 -0.109250 0
20.640000 -0.113979 0
20.645000 -0.117538 0
20.650000 -0.120123 0
20.655000 -0.121907 0
20.660000 -0.122732 0
20.665000 -0.121733 0
20.670000 -0.120739 0
20.675000 -0.119749 0
20.680000 -0.118765 0
20.685000 -0.117784 0
20.690000 -0.116808 0
20.695000 -0.115834 0
20.700000 -0.114860 0
20.705000 -0.113882 0
20.710000 -0.112892 0
20.715000 -0.111875 0
20.720000 -0.110807 0
20.725000 -0.109649 0
20.730000 -0.108336 0
20.735000 -0.106769 0
20.740000 -0.104805 0
20.745000 -0.102237 0
20.750000 -0.098789 0
20.755000 -0.094102 0
20.760000 -0.087735 0
20.765000 -0.079185 0
20.770000 -0.067915 0
20.775000 -0.053411 0
20.780000 -0.035262 0
20.785000 -0.013248 0
20.790000 0.012555 0
20.795000 0.041698 0
20.800000 0.073297 0
20.805000 0.106033 0
20.810000 0.138212 0
20.815000 0.167890 0
20.820000 0.193064 0
20.825000 0.211889 0
20.830000 0.222902 0
20.835000 0.225211 1
20.840000 0.218615 0
20.845000 0.203630 0
20.850000 0.181427 0
20.855000 0.153677 0
20.860000 0.122336 0
20.865000 0.089386 0
20.870000 0.056498 0
20.875000 0.024534 0
20.880000 -0.007196 0
20.885000 -0.041668 0
20.890000 -0.083777 0
20.895000 -0.137300 0
20.900000 -0.199026 0
20.905000 -0.253514 0
20.910000 -0.273476 2
20.915000 -0.226599 0
20.920000 -0.084743 0
20.925000 0.165236 0
20.930000 0.504056 0
20.935000 0.861649 0
20.940000 1.124507 0
20.945000 1.187293 3
20.950000 1.018479 0
20.955000 0.683238 0
20.960000 0.298822 0
20.965000 -0.031875 0
20.970000 -0.253725 0
20.975000 -0.355225 4
20.980000 -0.354025 0
20.985000 -0.285987 0
20.990000 -0.192656 0
20.995000 -0.106149 0
21.000000 -0.040462 0
21.005000 0.005722 0
21.010000 0.040130 0
21.015000 0.069852 0
21.020000 0.098945 0
21.025000 0.128973 0
21.030000 0.160167 0
21.035000 0.192182 0
21.040000 0.224441 0
21.045000 0.256252 0
21.050000 0.286857 0
21.055000 0.315465 0
21.060000 0.341286 0
21.065000 0.363566 0
21.070000 0.381625 0
21.075000 0.394887 0
21.080000 0.402913 0
21.085000 0.405423 5
21.090000 0.402312 0
21.095000 0.393655 0
21.100000 0.379705 0
21.105000 0.360881 0
21.110000 0.337741 0
21.115000 0.310964 0
21.120000 0.281305 0
21.125000 0.249568 0
21.130000 0.216566 0
21.135000 0.183088 0
21.140000 0.149867 0
21.145000 0.117558 0
21.150000 0.086717 0
21.155000 0.057792 0
21.160000 0.031118 0
21.165000 0.006916 0
21.170000 -0.014696 0
21.175000 -0.033695 0
21.180000 -0.050138 0
21.185000 -0.064146 0
21.190000 -0.075887 0
21.195000 -0.085564 0
21.200000 -0.093396 0
21.205000 -0.099612 0
21.210000 -0.104433 0
21.215000 -0.108074 0
21.220000 -0.110729 0
21.225000 -0.112576 0
21.230000 -0.113456 0
21.235000 -0.112504 0
21.240000 -0.111555 0
21.245000 -0.110612 0
21.250000 -0.109672 0
21.255000 -0.108737 0
21.260000 -0.107806 0
21.265000 -0.106877 0
21.270000 -0.105948 0
21.275000 -0.105014 0
21.280000 -0.104067 0
21.285000 -0.103093 0
21.290000 -0.102066 0
21.295000 -0.100946 0
21.300000 -0.099666 0
21.305000 -0.098126 0
21.310000 -0.096176 0
21.315000 -0.093606 0
21.320000 -0.090130 0
21.325000 -0.085381 0
21.330000 -0.078909 0
21.335000 -0.070202 0
21.340000 -0.058718 0
21.345000 -0.043944 0
21.350000 -0.025477 0
21.355000 -0.003120 0
21.360000 0.023018 0
21.365000 0.052438 0
21.370000 0.084202 0
21.375000 0.116930 0
21.380000 0.148876 0
21.385000 0.178060 0
21.390000 0.202468 0
21.395000 0.220275 0
21.400000 0.230074 0
21.405000 0.231056 1
21.410000 0.223124 0
21.415000 0.206904 0
21.420000 0.183667 0
21.425000 0.155160 0
21.430000 0.123382 0
21.435000 0.090306 0
21.440000 0.057518 0
21.445000 0.025673 0
21.450000 -0.006306 0
21.455000 -0.041869 0
21.460000 -0.086082 0
21.465000 -0.141883 0
21.470000 -0.203857 0
21.475000 -0.253688 0
21.480000 -0.262054 2
21.485000 -0.196464 0
21.490000 -0.030757 0
21.495000 0.242797 0
21.500000 0.594232 0
21.505000 0.940362 0
21.510000 1.162468 0
21.515000 1.167153 3
21.520000 0.945201 0
21.525000 0.583772 0
21.530000 0.206929 0
21.535000 -0.091765 0
21.540000 -0.271193 0
21.545000 -0.331456 4
21.550000 -0.299240 0
21.555000 -0.216089 0
21.560000 -0.122990 0
21.565000 -0.045572 0
21.570000 0.009824 0
21.575000 0.048933 0
21.580000 0.080068 0
21.585000 0.109017 0
21.590000 0.138449 0
21.595000 0.169077 0
21.600000 0.200728 0
21.605000 0.232871 0
21.610000 0.264821 0
21.615000 0.295803 0
21.620000 0.325000 0
21.625000 0.351582 0
21.630000 0.374748 0
21.635000 0.393765 0
21.640000 0.408001 0
21.645000 0.416966 0
21.650000 0.420334 5
21.655000 0.417962 0
21.660000 0.409903 0
21.665000 0.396397 0
21.670000 0.377863 0
21.675000 0.354875 0
21.680000 0.328133 0
21.685000 0.298425 0
21.690000 0.266588 0
21.695000 0.233472 0
21.700000 0.199898 0
21.705000 0.166628 0
21.710000 0.134340 0
21.715000 0.103604 0
21.720000 0.074873 0
21.725000 0.048481 0
21.730000 0.024642 0
21.735000 0.003458 0
21.740000 -0.015064 0
21.745000 -0.030999 0
21.750000 -0.044487 0
21.755000 -0.055715 0
21.760000 -0.064902 0
21.765000 -0.072280 0
21.770000 -0.078085 0
21.775000 -0.082549 0
21.780000 -0.085887 0
21.785000 -0.088294 0
21.790000 -0.089947 0
21.795000 -0.089470 0
21.800000 -0.088637 0
21.805000 -0.087807 0
21.810000 -0.086982 0
21.815000 -0.086161 0
21.820000 -0.085342 0
21.825000 -0.084526 0
21.830000 -0.083711 0
21.835000 -0.082892 0
21.840000 -0.082062 0
21.845000 -0.081210 0
21.850000 -0.080313 0
21.855000 -0.079332 0
21.860000 -0.078208 0
21.865000 -0.076845 0
21.870000 -0.075100 0
21.875000 -0.072766 0
21.880000 -0.069560 0
21.885000 -0.065111 0
21.890000 -0.058962 0
21.895000 -0.050582 0
21.900000 -0.039407 0
21.905000 -0.024896 0
21.910000 -0.006622 0
21.915000 0.015628 0
21.920000 0.041741 0
21.925000 0.071189 0
21.930000 0.102972 0
21.935000 0.135623 0
21.940000 0.167291 0
21.945000 0.195896 0
21.950000 0.219347 0
21.955000 0.235789 0
21.960000 0.243849 1
21.965000 0.242821 0
21.970000 0.232767 0
21.975000 0.214512 0
21.980000 0.189530 0
21.985000 0.159746 0
21.990000 0.127268 0
21.995000 0.094071 0
22.000000 0.061550 0
22.005000 0.029818 0
22.010000 -0.003184 0
22.015000 -0.041995 0
22.020000 -0.091596 0
22.025000 -0.151861 0
22.030000 -0.210912 0
22.035000 -0.243149 2
22.040000 -0.215047 0
22.045000 -0.095062 0
22.050000 0.135121 0
22.055000 0.463001 0
22.060000 0.823697 0
22.065000 1.101723 0
22.070000 1.182169 3
22.075000 1.026809 0
22.080000 0.699485 0
22.085000 0.314693 0
22.090000 -0.023177 0
22.095000 -0.255662 0
22.100000 -0.368208 0
22.105000 -0.376005 4
22.110000 -0.313105 0
22.115000 -0.220656 0
22.120000 -0.132087 0
22.125000 -0.063461 0
22.130000 -0.014958 0
22.135000 0.020707 0
22.140000 0.050866 0
22.145000 0.079976 0
22.150000 0.109884 0
22.155000 0.140964 0
22.160000 0.172941 0
22.165000 0.205271 0
22.170000 0.237290 0
22.175000 0.268257 0
22.180000 0.297397 0
22.185000 0.323928 0
22.190000 0.347095 0
22.195000 0.366207 0
22.200000 0.380673 0
22.205000 0.390025 0
22.210000 0.393948 5
22.215000 0.392296 0
22.220000 0.385100 0
22.225000 0.372564 0
22.230000 0.355060 0
22.235000 0.333106 0
22.240000 0.307341 0
22.245000 0.278494 0
22.250000 0.247346 0
22.255000 0.214702 0
22.260000 0.181350 0
22.265000 0.148034 0
22.270000 0.115426 0
22.275000 0.084109 0
22.280000 0.054561 0
22.285000 0.027148 0
22.290000 0.002128 0
22.295000 -0.020349 0
22.300000 -0.040229 0
22.305000 -0.057540 0
22.310000 -0.072380 0
22.315000 -0.084901 0
22.320000 -0.095290 0
22.325000 -0.103760 0
22.330000 -0.110534 0
22.335000 -0.115834 0
22.340000 -0.119875 0
22.345000 -0.122859 0
22.350000 -0.124967 0
22.355000 -0.126362 0
22.360000 -0.125694 0
22.365000 -0.124680 0
22.370000 -0.123671 0
22.375000 -0.122667 0
22.380000 -0.121667 0
22.385000 -0.120672 0
22.390000 -0.119680 0
22.395000 -0.118689 0
22.400000 -0.117697 0
22.405000 -0.116698 0
22.410000 -0.115679 0
22.415000 -0.114624 0
22.420000 -0.113499 0
22.425000 -0.112254 0
22.430000 -0.110810 0
22.435000 -0.109046 0
22.440000 -0.106789 0
22.445000 -0.103799 0
22.450000 -0.099760 0
22.455000 -0.094273 0
22.460000 -0.086864 0
22.465000 -0.077010 0
22.470000 -0.064180 0
22.475000 -0.047902 0
22.480000 -0.027848 0
22.485000 -0.003932 0
22.490000 0.023598 0
22.495000 0.054086 0
22.500000 0.086439 0
22.505000 0.119150 0
22.510000 0.150393 0
22.515000 0.178178 0
22.520000 0.200556 0
22.525000 0.215845 0
22.530000 0.222837 1
22.535000 0.220958 0
22.540000 0.210346 0
22.545000 0.191834 0
22.550000 0.166842 0
22.555000 0.137197 0
22.560000 0.104893 0
22.565000 0.071811 0
22.570000 0.039322 0
22.575000 0.007687 0
22.580000 -0.024750 0
22.585000 -0.061986 0
22.590000 -0.108975 0
22.595000 -0.167176 0
22.600000 -0.228390 0
22.605000 -0.271529 2
22.610000 -0.266125 0
22.615000 -0.180675 0
22.620000 0.007943 0
22.625000 0.301379 0
22.630000 0.660082 0
22.635000 0.992187 0
22.640000 1.179671 3
22.645000 1.141800 0
22.650000 0.889118 0
22.655000 0.517900 0
22.660000 0.146617 0
22.665000 -0.140756 0
22.670000 -0.309623 0
22.675000 -0.362762 4
22.680000 -0.327138 0
22.685000 -0.243079 0
22.690000 -0.149831 0
22.695000 -0.071951 0
22.700000 -0.015737 0
22.705000 0.024135 0
22.710000 0.055721 0
22.715000 0.084824 0
22.720000 0.114243 0
22.725000 0.144811 0
22.730000 0.176432 0
22.735000 0.208631 0
22.740000 0.240767 0
22.745000 0.272110 0
22.750000 0.301879 0
22.755000 0.329277 0
22.760000 0.353524 0
22.765000 0.373893 0
22.770000 0.389746 0
22.775000 0.400568 0
22.780000 0.405991 5
22.785000 0.405814 0
22.790000 0.400020 0
22.795000 0.388770 0
22.800000 0.372400 0
22.805000 0.351401 0
22.810000 0.326396 0
22.815000 0.298107 0
22.820000 0.267322 0
22.825000 0.234855 0
22.830000 0.201515 0
22.835000 0.168070 0
22.840000 0.135218 0
22.845000 0.103571 0
22.850000 0.073632 0
22.855000 0.045796 0
22.860000 0.020339 0
22.865000 -0.002569 0
22.870000 -0.022860 0
22.875000 -0.040554 0
22.880000 -0.055742 0
22.885000 -0.068571 0
22.890000 -0.079231 0
22.895000 -0.087935 0
22.900000 -0.094910 0
22.905000 -0.100381 0
22.910000 -0.104570 0
22.915000 -0.107680 0
22.920000 -0.109898 0
22.925000 -0.111391 0
22.930000 -0.110801 0
22.935000 -0.109861 0
22.940000 -0.108926 0
22.945000 -0.107995 0
22.950000 -0.107069 0
22.955000 -0.106146 0
22.960000 -0.105227 0
22.965000 -0.104308 0
22.970000 -0.103388 0
22.975000 -0.102458 0
22.980000 -0.101509 0
22.985000 -0.100520 0
22.990000 -0.099459 0
22.995000 -0.098270 0
23.000000 -0.096871 0
23.005000 -0.095134 0
23.010000 -0.092878 0
23.015000 -0.089850 0
23.020000 -0.085717 0
23.025000 -0.080065 0
23.030000 -0.072404 0
23.035000 -0.062194 0
23.040000 -0.048902 0
23.045000 -0.032064 0
23.050000 -0.011382 0
23.055000 0.013178 0
23.060000 0.041291 0
23.065000 0.072203 0
23.070000 0.104713 0
23.075000 0.137209 0
23.080000 0.167781 0
23.085000 0.194396 0
23.090000 0.215115 0
23.095000 0.228327 0
23.100000 0.232957 1
23.105000 0.228607 0
23.110000 0.215615 0
23.115000 0.195011 0
23.120000 0.168380 0
23.125000 0.137657 0
23.130000 0.104869 0
23.135000 0.071815 0
23.140000 0.039603 0
23.145000 0.007943 0
23.150000 -0.025671 0
23.155000 -0.065945 0
23.160000 -0.117315 0
23.165000 -0.178344 0
23.170000 -0.235824 0
23.175000 -0.263863 2
23.180000 -0.229960 0
23.185000 -0.104289 0
23.190000 0.129744 0
23.195000 0.458837 0
23.200000 0.819842 0
23.205000 1.101708 0
23.210000 1.192710 3
23.215000 1.048978 0
23.220000 0.725735 0
23.225000 0.341016 0
23.230000 0.003729 0
23.235000 -0.225626 0
23.240000 -0.332856 0
23.245000 -0.334874 4
23.250000 -0.267989 0
23.255000 -0.174845 0
23.260000 -0.088524 0
23.265000 -0.023316 0
23.270000 0.022300 0
23.275000 0.056300 0
23.280000 0.085836 0
23.285000 0.114898 0
23.290000 0.144961 0
23.295000 0.176191 0
23.300000 0.208201 0
23.305000 0.240384 0
23.310000 0.272016 0
23.315000 0.302314 0
23.320000 0.330462 0
23.325000 0.355653 0
23.330000 0.377125 0
23.335000 0.394195 0
23.340000 0.406300 0
23.345000 0.413021 0
23.350000 0.414112 5
23.355000 0.409509 0
23.360000 0.399337 0
23.365000 0.383903 0
23.370000 0.363681 0
23.375000 0.339283 0
23.380000 0.311435 0
23.385000 0.280931 0
23.390000 0.248606 0
23.395000 0.215287 0
23.400000 0.181768 0
23.405000 0.148773 0
23.410000 0.116937 0
23.415000 0.086789 0
23.420000 0.058738 0
23.425000 0.033078 0
23.430000 0.009988 0
23.435000 -0.010457 0
23.440000 -0.028274 0
23.445000 -0.043554 0
23.450000 -0.056448 0
23.455000 -0.067149 0
23.460000 -0.075876 0
23.465000 -0.082859 0
23.470000 -0.088331 0
23.475000 -0.092516 0
23.480000 -0.095622 0
23.485000 -0.097839 0
23.490000 -0.099334 0
23.495000 -0.098795 0
23.500000 -0.097915 0
23.505000 -0.097040 0
23.510000 -0.096168 0
23.515000 -0.095301 0
23.520000 -0.094437 0
23.525000 -0.093575 0
23.530000 -0.092714 0
23.535000 -0.091849 0
23.540000 -0.090973 0
23.545000 -0.090074 0
23.550000 -0.089128 0
23.555000 -0.088097 0
23.560000 -0.086920 0
23.565000 -0.085501 0
23.570000 -0.083697 0
23.575000 -0.081303 0
23.580000 -0.078039 0
23.585000 -0.073538 0
23.590000 -0.067351 0
23.595000 -0.058956 0
23.600000 -0.047797 0
23.605000 -0.033343 0
23.610000 -0.015169 0
23.615000 0.006944 0
23.620000 0.032902 0
23.625000 0.062208 0
23.630000 0.093906 0
23.635000 0.126585 0
23.640000 0.158451 0
23.645000 0.187468 0
23.650000 0.211570 0
23.655000 0.228900 0
23.660000 0.238044 0
23.665000 0.238221 1
23.670000 0.229394 0
23.675000 0.212277 0
23.680000 0.188238 0
23.685000 0.159116 0
23.690000 0.126978 0
23.695000 0.093813 0
23.700000 0.061138 0
23.705000 0.029368 0
23.710000 -0.003041 0
23.715000 -0.040115 0
23.720000 -0.087011 0
23.725000 -0.145335 0
23.730000 -0.206498 0
23.735000 -0.248282 2
23.740000 -0.238782 0
23.745000 -0.145506 0
23.750000 0.054310 0
23.755000 0.358861 0
23.760000 0.720310 0
23.765000 1.036462 0
23.770000 1.186232 3
23.775000 1.101760 0
23.780000 0.815576 0
23.785000 0.435209 0
23.790000 0.076492 0
23.795000 -0.186498 0
23.800000 -0.328360 0
23.805000 -0.358284 4
23.810000 -0.307602 0
23.815000 -0.218207 0
23.820000 -0.127180 0
23.825000 -0.054699 0
23.830000 -0.003362 0
23.835000 0.033647 0
23.840000 0.064151 0
23.845000 0.093166 0
23.850000 0.122867 0
23.855000 0.153759 0
23.860000 0.185601 0
23.865000 0.217852 0
23.870000 0.249835 0
23.875000 0.280793 0
23.880000 0.309931 0
23.885000 0.336443 0
23.890000 0.359555 0
23.895000 0.378558 0
23.900000 0.392841 0
23.905000 0.401930 0
23.910000 0.405508 5
23.915000 0.403432 0
23.920000 0.395745 0
23.925000 0.382672 0
23.930000 0.364609 0
23.935000 0.342103 0
23.940000 0.315822 0
23.945000 0.286524 0
23.950000 0.255018 0
23.955000 0.222129 0
23.960000 0.188661 0
23.965000 0.155367 0
23.970000 0.122920 0
23.975000 0.091896 0
23.980000 0.062762 0
23.985000 0.035865 0
23.990000 0.011442 0
23.995000 -0.010380 0
24.000000 -0.029570 0
24.005000 -0.046182 0
24.010000 -0.060334 0
24.015000 -0.072195 0
24.020000 -0.081968 0
24.025000 -0.089875 0
24.030000 -0.096148 0
24.035000 -0.101012 0
24.040000 -0.104684 0
24.045000 -0.107362 0
24.050000 -0.109226 0
24.055000 -0.110120 0
24.060000 -0.109184 0
24.065000 -0.108252 0
24.070000 -0.107325 0
24.075000 -0.106402 0
24.080000 -0.105483 0
24.085000 -0.104568 0
24.090000 -0.103655 0
24.095000 -0.102741 0
24.100000 -0.101823 0
24.105000 -0.100890 0
24.110000 -0.099928 0
24.115000 -0.098910 0
24.120000 -0.097793 0
24.125000 -0.096507 0
24.130000 -0.094945 0
24.135000 -0.092950 0
24.140000 -0.090299 0
24.145000 -0.086695 0
24.150000 -0.081751 0
24.155000 -0.075005 0
24.160000 -0.065927 0
24.165000 -0.053969 0
24.170000 -0.038624 0
24.175000 -0.019509 0
24.180000 0.003528 0
24.185000 0.030312 0
24.190000 0.060259 0
24.195000 0.092328 0
24.200000 0.125040 0
24.205000 0.156562 0
24.210000 0.184863 0
24.215000 0.207922 0
24.220000 0.223967 0
24.225000 0.231697 1
24.230000 0.230460 0
24.235000 0.220339 0
24.240000 0.202145 0
24.245000 0.177312 0
24.250000 0.147702 0
24.255000 0.115365 0
24.260000 0.082231 0
24.265000 0.049705 0
24.270000 0.018024 0
24.275000 -0.014591 0
24.280000 -0.052341 0
24.285000 -0.100242 0
24.290000 -0.159263 0
24.295000 -0.219868 0
24.300000 -0.259165 2
24.305000 -0.245284 0
24.310000 -0.146429 0
24.315000 0.058993 0
24.320000 0.367484 0
24.325000 0.729446 0
24.330000 1.042294 0
24.335000 1.186853 3
24.340000 1.098901 0
24.345000 0.812870 0
24.350000 0.432992 0
24.355000 0.071942 0
24.360000 -0.196878 0
24.365000 -0.346845 0
24.370000 -0.385072 4
24.375000 -0.340498 0
24.380000 -0.253314 0
24.385000 -0.160761 0
24.390000 -0.084855 0
24.395000 -0.030244 0
24.400000 0.008838 0
24.405000 0.040217 0
24.410000 0.069373 0
24.415000 0.098911 0
24.420000 0.129592 0
24.425000 0.161306 0
24.430000 0.193583 0
24.435000 0.225796 0
24.440000 0.257233 0
24.445000 0.287133 0
24.450000 0.314715 0
24.455000 0.339217 0
24.460000 0.359925 0
24.465000 0.376209 0
24.470000 0.387555 0
24.475000 0.393590 0
24.480000 0.394103 5
24.485000 0.389056 0
24.490000 0.378585 0
24.495000 0.362997 0
24.500000 0.342751 0
24.505000 0.318438 0
24.510000 0.290750 0
24.515000 0.260446 0
24.520000 0.228322 0
24.525000 0.195171 0
24.530000 0.161754 0
24.535000 0.128772 0
24.540000 0.096844 0
24.545000 0.066489 0
24.550000 0.038120 0
24.555000 0.012040 0
24.560000 -0.011558 0
24.565000 -0.032579 0
24.570000 -0.051017 0
24.575000 -0.066941 0
24.580000 -0.080479 0
24.585000 -0.091804 0
24.590000 -0.101117 0
24.595000 -0.108637 0
24.600000 -0.114585 0
24.605000 -0.119181 0
24.610000 -0.122631 0
24.615000 -0.125125 0
24.620000 -0.126835 0
24.625000 -0.127604 0
24.630000 -0.126581 0
24.635000 -0.125562 0
24.640000 -0.124549 0
24.645000 -0.123540 0
24.650000 -0.122536 0
24.655000 -0.121535 0
24.660000 -0.120538 0
24.665000 -0.119540 0
24.670000 -0.118539 0
24.675000 -0.117525 0
24.680000 -0.116485 0
24.685000 -0.115394 0
24.690000 -0.114213 0
24.695000 -0.112879 0
24.700000 -0.111294 0
24.705000 -0.109316 0
24.710000 -0.106743 0
24.715000 -0.103303 0
24.720000 -0.098641 0
24.725000 -0.092327 0
24.730000 -0.083863 0
24.735000 -0.072717 0
24.740000 -0.058380 0
24.745000 -0.040435 0
24.750000 -0.018653 0
24.755000 0.006916 0
24.760000 0.035853 0
24.765000 0.067316 0
24.770000 0.100033 0
24.775000 0.132355 0
24.780000 0.162374 0
24.785000 0.188103 0
24.790000 0.207691 0
24.795000 0.219640 0
24.800000 0.222996 1
24.805000 0.217478 0
24.810000 0.203514 0
24.815000 0.182186 0
24.820000 0.155096 0
24.825000 0.124155 0
24.830000 0.091339 0
24.835000 0.058373 0
24.840000 0.026276 0
24.845000 -0.005338 0
24.850000 -0.039019 0
24.855000 -0.079422 0
24.860000 -0.130840 0
24.865000 -0.191802 0
24.870000 -0.249435 0
24.875000 -0.278569 2
24.880000 -0.247480 0
24.885000 -0.126743 0
24.890000 0.100828 0
24.895000 0.424641 0
24.900000 0.786876 0
24.905000 1.081667 0
24.910000 1.196730 3
24.915000 1.078125 0
24.920000 0.768628 0
24.925000 0.384543 0
24.930000 0.039511 0
24.935000 -0.200315 0
24.940000 -0.317113 0
24.945000 -0.325936 4
24.950000 -0.262451 0
24.955000 -0.169876 0
24.960000 -0.082672 0
24.965000 -0.016401 0
24.970000 0.029876 0
24.975000 0.064125 0
24.980000 0.093682 0
24.985000 0.122688 0
24.990000 0.152686 0
24.995000 0.183861 0
25.000000 0.215828 0
25.005000 0.247972 0
25.010000 0.279563 0
25.015000 0.309804 0
25.020000 0.337873 0
25.025000 0.362953 0
25.030000 0.384271 0
25.035000 0.401142 0
25.040000 0.412999 0
25.045000 0.419425 0
25.050000 0.420180 5
25.055000 0.415208 0
25.060000 0.404647 0
25.065000 0.388821 0
25.070000 0.368218 0
25.075000 0.343470 0
25.080000 0.315316 0
25.085000 0.284567 0
25.090000 0.252068 0
25.095000 0.218656 0
25.100000 0.185126 0
25.105000 0.152203 0
25.110000 0.120517 0
25.115000 0.090587 0
25.120000 0.062815 0
25.125000 0.037479 0
25.130000 0.014746 0
25.135000 -0.005323 0
25.140000 -0.022759 0
25.145000 -0.037665 0
25.150000 -0.050202 0
25.155000 -0.060570 0
25.160000 -0.068993 0
25.165000 -0.075708 0
25.170000 -0.080947 0
25.175000 -0.084935 0
25.180000 -0.087879 0
25.185000 -0.089967 0
25.190000 -0.091039 0
25.195000 -0.090197 0
25.200000 -0.089360 0
25.205000 -0.088527 0
25.210000 -0.087698 0
25.215000 -0.086873 0
25.220000 -0.086051 0
25.225000 -0.085230 0
25.230000 -0.084409 0
25.235000 -0.083582 0
25.240000 -0.082741 0
25.245000 -0.081871 0
25.250000 -0.080944 0
25.255000 -0.079916 0
25.260000 -0.078716 0
25.265000 -0.077232 0
25.270000 -0.075303 0
25.275000 -0.072697 0
25.280000 -0.069103 0
25.285000 -0.064121 0
25.290000 -0.057270 0
25.295000 -0.048003 0
25.300000 -0.035759 0
25.305000 -0.020027 0
25.310000 -0.000441 0
25.315000 0.023115 0
25.320000 0.050402 0
25.325000 0.080742 0
25.330000 0.112988 0
25.335000 0.145544 0
25.340000 0.176473 0
25.345000 0.203677 0
25.350000 0.225122 0
25.355000 0.239087 0
25.360000 0.244395 1
25.365000 0.240571 0
25.370000 0.227915 0
25.375000 0.207461 0
25.380000 0.180835 0
25.385000 0.150035 0
25.390000 0.117160 0
25.395000 0.084058 0
25.400000 0.051834 0
25.405000 0.020068 0
25.410000 -0.014029 0
25.415000 -0.055454 0
25.420000 -0.108431 0
25.425000 -0.170160 0
25.430000 -0.224910 0
25.435000 -0.244188 2
25.440000 -0.194145 0
25.445000 -0.045688 0
25.450000 0.213340 0
25.455000 0.558540 0
25.460000 0.910174 0
25.465000 1.146598 0
25.470000 1.166084 3
25.475000 0.956293 0
25.480000 0.601330 0
25.485000 0.220946 0
25.490000 -0.090042 0
25.495000 -0.286402 0
25.500000 -0.363824 4
25.505000 -0.344789 0
25.510000 -0.267804 0
25.515000 -0.173796 0
25.520000 -0.091374 0
25.525000 -0.030575 0
25.530000 0.012192 0
25.535000 0.045001 0
25.540000 0.074335 0
25.545000 0.103587 0
25.550000 0.133916 0
25.555000 0.165364 0
25.560000 0.197511 0
25.565000 0.229740 0
25.570000 0.261336 0
25.575000 0.291525 0
25.580000 0.319510 0
25.585000 0.344501 0
25.590000 0.365758 0
25.595000 0.382619 0
25.600000 0.394540 0
25.605000 0.401119 0
25.610000 0.402122 5
25.615000 0.397491 0
25.620000 0.387352 0
25.625000 0.372006 0
25.630000 0.351916 0
25.635000 0.327682 0
25.640000 0.300010 0
25.645000 0.269678 0
25.650000 0.237500 0
25.655000 0.204289 0
25.660000 0.170826 0
25.665000 0.137825 0
25.670000 0.105918 0
25.675000 0.075632 0
25.680000 0.047382 0
25.685000 0.021468 0
25.690000 -0.001919 0
25.695000 -0.022694 0
25.700000 -0.040859 0
25.705000 -0.056494 0
25.710000 -0.069737 0
25.715000 -0.080771 0
25.720000 -0.089807 0
25.725000 -0.097069 0
25.730000 -0.102785 0
25.735000 -0.107177 0
25.740000 -0.110454 0
25.745000 -0.112806 0
25.750000 -0.114403 0
25.755000 -0.113815 0
25.760000 -0.112861 0
25.765000 -0.111910 0
25.770000 -0.110965 0
25.775000 -0.110024 0
25.780000 -0.109087 0
25.785000 -0.108153 0
25.790000 -0.107221 0
25.795000 -0.106287 0
25.800000 -0.105346 0
25.805000 -0.104388 0
25.810000 -0.103394 0
25.815000 -0.102335 0
25.820000 -0.101159 0
25.825000 -0.099790 0
25.830000 -0.098107 0
25.835000 -0.095940 0
25.840000 -0.093048 0
25.845000 -0.089112 0
25.850000 -0.083728 0
25.855000 -0.076418 0
25.860000 -0.066648 0
25.865000 -0.053877 0
25.870000 -0.037622 0
25.875000 -0.017554 0
25.880000 0.006413 0
25.885000 0.034014 0
25.890000 0.064566 0
25.895000 0.096936 0
25.900000 0.129567 0
25.905000 0.160583 0
25.910000 0.187953 0
25.915000 0.209705 0
25.920000 0.224161 0
25.925000 0.230150 1
25.930000 0.227165 0
25.935000 0.215433 0
25.940000 0.195889 0
25.945000 0.170048 0
25.950000 0.139813 0
25.955000 0.107219 0
25.960000 0.074124 0
25.965000 0.041778 0
25.970000 0.010145 0
25.975000 -0.022928 0
25.980000 -0.061918 0
25.985000 -0.111585 0
25.990000 -0.171728 0
25.995000 -0.230996 0
26.000000 -0.265002 2
26.005000 -0.241574 0
26.010000 -0.129899 0
26.015000 0.089258 0
26.020000 0.407919 0
26.025000 0.770324 0
26.030000 1.069978 0
26.035000 1.190950 3
26.040000 1.078077 0
26.045000 0.774897 0
26.050000 0.391755 0
26.055000 0.039884 0
26.060000 -0.212802 0
26.065000 -0.344988 0
26.070000 -0.367858 4
26.075000 -0.313400 0
26.080000 -0.223005 0
26.085000 -0.132477 0
26.090000 -0.060783 0
26.095000 -0.009941 0
26.100000 0.026896 0
26.105000 0.057392 0
26.110000 0.086440 0
26.115000 0.116168 0
26.120000 0.147075 0
26.125000 0.178931 0
26.130000 0.211209 0
26.135000 0.243243 0
26.140000 0.274294 0
26.145000 0.303580 0
26.150000 0.330309 0
26.155000 0.353717 0
26.160000 0.373099 0
26.165000 0.387849 0
26.170000 0.397487 0
26.175000 0.401682 5
26.180000 0.400279 0
26.185000 0.393298 0
26.190000 0.380938 0
26.195000 0.363568 0
26.200000 0.341706 0
26.205000 0.315993 0
26.210000 0.287163 0
26.215000 0.256006 0
26.220000 0.223334 0
26.225000 0.189942 0
26.230000 0.156583 0
26.235000 0.123936 0
26.240000 0.092589 0
26.245000 0.063023 0
26.250000 0.035609 0
26.255000 0.010602 0
26.260000 -0.011846 0
26.265000 -0.031684 0
26.270000 -0.048944 0
26.275000 -0.063726 0
26.280000 -0.076185 0
26.285000 -0.086512 0
26.290000 -0.094923 0
26.295000 -0.101642 0
26.300000 -0.106896 0
26.305000 -0.110899 0
26.310000 -0.113853 0
26.315000 -0.115942 0
26.320000 -0.117326 0
26.325000 -0.116695 0
26.330000 -0.115726 0
26.335000 -0.114761 0
26.340000 -0.113802 0
26.345000 -0.112846 0
26.350000 -0.111895 0
26.355000 -0.110946 0
26.360000 -0.109999 0
26.365000 -0.109049 0
26.370000 -0.108090 0
26.375000 -0.107110 0
26.380000 -0.106088 0
26.385000 -0.104990 0
26.390000 -0.103762 0
26.395000 -0.102316 0
26.400000 -0.100523 0
26.405000 -0.098198 0
26.410000 -0.095087 0
26.415000 -0.090854 0
26.420000 -0.085082 0
26.425000 -0.077280 0
26.430000 -0.066915 0
26.435000 -0.053455 0
26.440000 -0.036446 0
26.445000 -0.015600 0
26.450000 0.009105 0
26.455000 0.037334 0
26.460000 0.068326 0
26.465000 0.100877 0
26.470000 0.133378 0
26.475000 0.163930 0
26.480000 0.190513 0
26.485000 0.211203 0
26.490000 0.224406 0
26.495000 0.229054 1
26.500000 0.224753 0
26.505000 0.211837 0
26.510000 0.191324 0
26.515000 0.164783 0
26.520000 0.134134 0
26.525000 0.101390 0
26.530000 0.068346 0
26.535000 0.036128 0
26.540000 0.004498 0
26.545000 -0.028953 0
26.550000 -0.068848 0
26.555000 -0.119692 0
26.560000 -0.180443 0
26.565000 -0.238595 0
26.570000 -0.268955 2
26.575000 -0.239367 0
26.580000 -0.119807 0
26.585000 0.107379 0
26.590000 0.431507 0
26.595000 0.793536 0
26.600000 1.085501 0
26.605000 1.194029 3
26.610000 1.068558 0
26.615000 0.756661 0
26.620000 0.372459 0
26.625000 0.026715 0
26.630000 -0.215652 0
26.635000 -0.336470 0
26.640000 -0.349569 4
26.645000 -0.289051 0
26.650000 -0.197098 0
26.655000 -0.108425 0
26.660000 -0.039842 0
26.665000 0.008389 0
26.670000 0.043750 0
26.675000 0.073708 0
26.680000 0.102725 0
26.685000 0.132602 0
26.690000 0.163662 0
26.695000 0.195595 0
26.700000 0.227828 0
26.705000 0.259669 0
26.710000 0.290353 0
26.715000 0.319081 0
26.720000 0.345050 0
26.725000 0.367495 0
26.730000 0.385721 0
26.735000 0.399141 0
26.740000 0.407303 0
26.745000 0.409920 5
26.750000 0.406880 0
26.755000 0.398256 0
26.760000 0.384303 0
26.765000 0.365443 0
26.770000 0.342244 0
26.775000 0.315391 0
26.780000 0.285653 0
26.785000 0.253844 0
26.790000 0.220785 0
26.795000 0.187276 0
26.800000 0.154056 0
26.805000 0.121784 0
26.810000 0.091017 0
26.815000 0.062203 0
26.820000 0.035673 0
26.825000 0.011643 0
26.830000 -0.009777 0
26.835000 -0.028569 0
26.840000 -0.044798 0
26.845000 -0.058592 0
26.850000 -0.070126 0
26.855000 -0.079607 0
26.860000 -0.087259 0
26.865000 -0.093314 0
26.870000 -0.097995 0
26.875000 -0.101517 0
26.880000 -0.104075 0
26.885000 -0.105843 0
26.890000 -0.106679 0
26.895000 -0.105760 0
26.900000 -0.104845 0
26.905000 -0.103935 0
26.910000 -0.103029 0
26.915000 -0.102127 0
26.920000 -0.101228 0
26.925000 -0.100331 0
26.930000 -0.099433 0
26.935000 -0.098529 0
26.940000 -0.097609 0
26.945000 -0.096656 0
26.950000 -0.095642 0
26.955000 -0.094521 0
26.960000 -0.093216 0
26.965000 -0.091616 0
26.970000 -0.089554 0
26.975000 -0.086798 0
26.980000 -0.083035 0
26.985000 -0.077871 0
26.990000 -0.070829 0
26.995000 -0.061377 0
27.000000 -0.048965 0
27.005000 -0.033101 0
27.010000 -0.013431 0
27.015000 0.010158 0
27.020000 0.037435 0
27.025000 0.067750 0
27.030000 0.099999 0
27.035000 0.132644 0
27.040000 0.163815 0
27.045000 0.191470 0
27.050000 0.213610 0
27.055000 0.228520 0
27.060000 0.234982 1
27.065000 0.232447 0
27.070000 0.221103 0
27.075000 0.201858 0
27.080000 0.176218 0
27.085000 0.146087 0
27.090000 0.113514 0
27.095000 0.080386 0
27.100000 0.047986 0
27.105000 0.016324 0
27.110000 -0.016716 0
27.115000 -0.055607 0
27.120000 -0.105168 0
27.125000 -0.165284 0
27.130000 -0.224617 0
27.135000 -0.258645 2
27.140000 -0.234963 0
27.145000 -0.122554 0
27.150000 0.097810 0
27.155000 0.417643 0
27.160000 0.779926 0
27.165000 1.076684 0
27.170000 1.191773 3
27.175000 1.071101 0
27.180000 0.760910 0
27.185000 0.376811 0
27.190000 0.031558 0
27.195000 -0.209068 0
27.200000 -0.327122 0
27.205000 -0.337267 4
27.210000 -0.274679 0
27.215000 -0.182260 0
27.220000 -0.094564 0
27.225000 -0.027552 0
27.230000 0.019344 0
27.235000 0.053947 0
27.240000 0.083640 0
27.245000 0.112665 0
27.250000 0.142643 0
27.255000 0.173803 0
27.260000 0.205780 0
27.265000 0.237974 0
27.270000 0.269665 0
27.275000 0.300068 0
27.280000 0.328365 0
27.285000 0.353745 0
27.290000 0.375438 0
27.295000 0.392754 0
27.300000 0.405119 0
27.305000 0.412107 0
27.310000 0.413460 5
27.315000 0.409106 0
27.320000 0.399162 0
27.325000 0.383930 0
27.330000 0.363878 0
27.335000 0.339619 0
27.340000 0.311874 0
27.345000 0.281442 0
27.350000 0.249159 0
27.355000 0.215858 0
27.360000 0.182336 0
27.365000 0.149324 0
27.370000 0.117459 0
27.375000 0.087276 0
27.380000 0.059188 0
27.385000 0.033493 0
27.390000 0.010371 0
27.395000 -0.010101 0
27.400000 -0.027940 0
27.405000 -0.043236 0
27.410000 -0.056140 0
27.415000 -0.066846 0
27.420000 -0.075573 0
27.425000 -0.082554 0
27.430000 -0.088021 0
27.435000 -0.092200 0
27.440000 -0.095299 0
27.445000 -0.097509 0
27.450000 -0.098998 0
27.455000 -0.098459 0
27.460000 -0.097581 0
27.465000 -0.096707 0
27.470000 -0.095837 0
27.475000 -0.094972 0
27.480000 -0.094109 0
27.485000 -0.093249 0
27.490000 -0.092389 0
27.495000 -0.091526 0
27.500000 -0.090651 0
27.505000 -0.089752 0
27.510000 -0.088805 0
27.515000 -0.087771 0
27.520000 -0.086587 0
27.525000 -0.085156 0
27.530000 -0.083331 0
27.535000 -0.080904 0
27.540000 -0.077587 0
27.545000 -0.073011 0
27.550000 -0.066719 0
27.555000 -0.058183 0
27.560000 -0.046846 0
27.565000 -0.032177 0
27.570000 -0.013758 0
27.575000 0.008611 0
27.580000 0.034813 0
27.585000 0.064320 0
27.590000 0.096141 0
27.595000 0.128826 0
27.600000 0.160550 0
27.605000 0.189259 0
27.610000 0.212888 0
27.615000 0.229596 0
27.620000 0.238011 1
27.625000 0.237407 0
27.630000 0.227814 0
27.635000 0.210012 0
27.640000 0.185424 0
27.645000 0.155931 0
27.650000 0.123612 0
27.655000 0.090442 0
27.660000 0.057864 0
27.665000 0.026140 0
27.670000 -0.006529 0
27.675000 -0.044418 0
27.680000 -0.092608 0
27.685000 -0.151912 0
27.690000 -0.212241 0
27.695000 -0.249848 2
27.700000 -0.232124 0
27.705000 -0.127031 0
27.710000 0.086287 0
27.715000 0.401585 0
27.720000 0.763894 0
27.725000 1.065200 0
27.730000 1.186482 3
27.735000 1.072643 0
27.740000 0.770009 0
27.745000 0.387086 0
27.750000 0.033700 0
27.755000 -0.222328 0
27.760000 -0.358918 0
27.765000 -0.386129 4
27.770000 -0.334719 0
27.775000 -0.245284 0
27.780000 -0.153821 0
27.785000 -0.080299 0
27.790000 -0.027772 0
27.795000 0.010112 0
27.800000 0.041049 0
27.805000 0.070175 0
27.810000 0.099835 0
27.815000 0.130655 0
27.820000 0.162468 0
27.825000 0.194782 0
27.830000 0.226959 0
27.835000 0.258279 0
27.840000 0.287978 0
27.845000 0.315277 0
27.850000 0.339417 0
27.855000 0.359692 0
27.860000 0.375484 0
27.865000 0.386292 0
27.870000 0.391761 5
27.875000 0.391697 0
27.880000 0.386080 0
27.885000 0.375066 0
27.890000 0.358977 0
27.895000 0.338287 0
27.900000 0.313600 0
27.905000 0.285614 0
27.910000 0.255095 0
27.915000 0.222839 0
27.920000 0.189637 0
27.925000 0.156244 0
27.930000 0.123354 0
27.935000 0.091574 0
27.940000 0.061415 0
27.945000 0.033277 0
27.950000 0.007451 0
27.955000 -0.015879 0
27.960000 -0.036628 0
27.965000 -0.054799 0
27.970000 -0.070467 0
27.975000 -0.083766 0
27.980000 -0.094870 0
27.985000 -0.103985 0
27.990000 -0.111329 0
27.995000 -0.117124 0
28.000000 -0.121589 0
28.005000 -0.124927 0
28.010000 -0.127327 0
28.015000 -0.128958 0
28.020000 -0.128314 0
28.025000 -0.127287 0
28.030000 -0.126265 0
28.035000 -0.125248 0
28.040000 -0.124236 0
28.045000 -0.123228 0
28.050000 -0.122224 0
28.055000 -0.121223 0
28.060000 -0.120221 0
28.065000 -0.119215 0
28.070000 -0.118196 0
28.075000 -0.117148 0
28.080000 -0.116047 0
28.085000 -0.114851 0
28.090000 -0.113494 0
28.095000 -0.111876 0
28.100000 -0.109849 0
28.105000 -0.107205 0
28.110000 -0.103664 0
28.115000 -0.098866 0
28.120000 -0.092373 0
28.125000 -0.083683 0
28.130000 -0.072263 0
28.135000 -0.057610 0
28.140000 -0.039321 0
28.145000 -0.017187 0
28.150000 0.008711 0
28.155000 0.037918 0
28.160000 0.069555 0
28.165000 0.102312 0
28.170000 0.134512 0
28.175000 0.164235 0
28.180000 0.189496 0
28.185000 0.208469 0
28.190000 0.219697 0
28.195000 0.222283 1
28.200000 0.216006 0
28.205000 0.201354 0
28.210000 0.179462 0
28.215000 0.151964 0
28.220000 0.120789 0
28.225000 0.087902 0
28.230000 0.054988 0
28.235000 0.022975 0
28.240000 -0.008677 0
28.245000 -0.042723 0
28.250000 -0.083922 0
28.255000 -0.136320 0
28.260000 -0.197678 0
28.265000 -0.254039 0
28.270000 -0.279405 2
28.275000 -0.241915 0
28.280000 -0.112760 0
28.285000 0.123648 0
28.290000 0.453528 0
28.295000 0.814712 0
28.300000 1.098699 0
28.305000 1.195702 3
28.310000 1.059642 0
28.315000 0.740914 0
28.320000 0.356274 0
28.325000 0.015645 0
28.330000 -0.218631 0
28.335000 -0.330844 0
28.340000 -0.336808 4
28.345000 -0.272109 0
28.350000 -0.179325 0
28.355000 -0.092181 0
28.360000 -0.025854 0
28.365000 0.020595 0
28.370000 0.055007 0
28.375000 0.084653 0
28.380000 0.113682 0
28.385000 0.143672 0
28.390000 0.174837 0
28.395000 0.206813 0
28.400000 0.239002 0
