0.000000 1.162849 3
0.005000 1.045259 0
0.010000 0.751266 0
0.015000 0.382520 0
0.020000 0.041127 0
0.025000 -0.209278 0
0.030000 -0.347132 0
0.035000 -0.380693 4
0.040000 -0.337611 0
0.045000 -0.255376 0
0.050000 -0.168453 0
0.055000 -0.097300 0
0.060000 -0.046425 0
0.065000 -0.010585 0
0.070000 0.017619 0
0.075000 0.043558 0
0.080000 0.069937 0
0.085000 0.097686 0
0.090000 0.126864 0
0.095000 0.157159 0
0.100000 0.188090 0
0.105000 0.219074 0
0.110000 0.249459 0
0.115000 0.278544 0
0.120000 0.305608 0
0.125000 0.329933 0
0.130000 0.350845 0
0.135000 0.367734 0
0.140000 0.380090 0
0.145000 0.387525 0
0.150000 0.389793 5
0.155000 0.386805 0
0.160000 0.378631 0
0.165000 0.365497 0
0.170000 0.347779 0
0.175000 0.325979 0
0.180000 0.300703 0
0.185000 0.272633 0
0.190000 0.242496 0
0.195000 0.211035 0
0.200000 0.178974 0
0.205000 0.146994 0
0.210000 0.115712 0
0.215000 0.085662 0
0.220000 0.057283 0
0.225000 0.030913 0
0.230000 0.006792 0
0.235000 -0.014938 0
0.240000 -0.034223 0
0.245000 -0.051082 0
0.250000 -0.065601 0
0.255000 -0.077914 0
0.260000 -0.088192 0
0.265000 -0.096626 0
0.270000 -0.103423 0
0.275000 -0.108788 0
0.280000 -0.112922 0
0.285000 -0.116014 0
0.290000 -0.118238 0
0.295000 -0.119748 0
0.300000 -0.120679 0
0.305000 -0.119958 0
0.310000 -0.118961 0
0.315000 -0.117969 0
0.320000 -0.116982 0
0.325000 -0.116000 0
0.330000 -0.115022 0
0.335000 -0.114049 0
0.340000 -0.113080 0
0.345000 -0.112115 0
0.350000 -0.111151 0
0.355000 -0.110187 0
0.360000 -0.109217 0
0.365000 -0.108231 0
0.370000 -0.107215 0
0.375000 -0.106142 0
0.380000 -0.104969 0
0.385000 -0.103631 0
0.390000 -0.102028 0
0.395000 -0.100016 0
0.400000 -0.097393 0
0.405000 -0.093891 0
0.410000 -0.089169 0
0.415000 -0.082813 0
0.420000 -0.074355 0
0.425000 -0.063300 0
0.430000 -0.049183 0
0.435000 -0.031630 0
0.440000 -0.010447 0
0.445000 0.014295 0
0.450000 0.042189 0
0.455000 0.072437 0
0.460000 0.103850 0
0.465000 0.134894 0
0.470000 0.163801 0
0.475000 0.188725 0
0.480000 0.207936 0
0.485000 0.220018 0
0.490000 0.224040 1
0.495000 0.219678 0
0.500000 0.207256 0
0.505000 0.187707 0
0.510000 0.162458 0
0.515000 0.133256 0
0.520000 0.101959 0
0.525000 0.070293 0
0.530000 0.039553 0
0.535000 0.010125 0
0.540000 -0.019182 0
0.545000 -0.051670 0
0.550000 -0.092093 0
0.555000 -0.143482 0
0.560000 -0.201778 0
0.565000 -0.251576 0
0.570000 -0.267118 2
0.575000 -0.218660 0
0.580000 -0.080593 0
0.585000 0.158951 0
0.590000 0.482661 0
0.595000 0.827608 0
0.600000 1.090476 0
0.605000 1.171372 3
0.610000 1.034052 0
0.615000 0.728735 0
0.620000 0.358656 0
0.625000 0.022793 0
0.630000 -0.219389 0
0.635000 -0.349244 0
0.640000 -0.376636 4
0.645000 -0.329965 0
0.650000 -0.246615 0
0.655000 -0.160185 0
0.660000 -0.090058 0
0.665000 -0.040035 0
0.670000 -0.004666 0
0.675000 0.023355 0
0.680000 0.049252 0
0.685000 0.075637 0
0.690000 0.103394 0
0.695000 0.132570 0
0.700000 0.162851 0
0.705000 0.193758 0
0.710000 0.224714 0
0.715000 0.255071 0
0.720000 0.284135 0
0.725000 0.311190 0
0.730000 0.335527 0
0.735000 0.356474 0
0.740000 0.373428 0
0.745000 0.385879 0
0.750000 0.393440 0
0.755000 0.395864 5
0.760000 0.393054 0
0.765000 0.385076 0
0.770000 0.372147 0
0.775000 0.354632 0
0.780000 0.333023 0
0.785000 0.307915 0
0.790000 0.279981 0
0.795000 0.249941 0
0.800000 0.218528 0
0.805000 0.186464 0
0.810000 0.154428 0
0.815000 0.123039 0
0.820000 0.092831 0
0.825000 0.064250 0
0.830000 0.037642 0
0.835000 0.013252 0
0.840000 -0.008768 0
0.845000 -0.028354 0
0.850000 -0.045519 0
0.855000 -0.060341 0
0.860000 -0.072947 0
0.865000 -0.083502 0
0.870000 -0.092196 0
0.875000 -0.099229 0
0.880000 -0.104808 0
0.885000 -0.109132 0
0.890000 -0.112391 0
0.895000 -0.114758 0
0.900000 -0.116392 0
0.905000 -0.117428 0
0.910000 -0.117762 0
0.915000 -0.116776 0
0.920000 -0.115795 0
0.925000 -0.114818 0
0.930000 -0.113847 0
0.935000 -0.112880 0
0.940000 -0.111918 0
0.945000 -0.110960 0
0.950000 -0.110005 0
0.955000 -0.109053 0
0.960000 -0.108101 0
0.965000 -0.107144 0
0.970000 -0.106174 0
0.975000 -0.105178 0
0.980000 -0.104133 0
0.985000 -0.103001 0
0.990000 -0.101723 0
0.995000 -0.100208 0
1.000000 -0.098328 0
1.005000 -0.095897 0
1.010000 -0.092667 0
1.015000 -0.088320 0
1.020000 -0.082464 0
1.025000 -0.074646 0
1.030000 -0.064381 0
1.035000 -0.051191 0
1.040000 -0.034674 0
1.045000 -0.014576 0
1.050000 0.009119 0
1.055000 0.036111 0
1.060000 0.065731 0
1.065000 0.096917 0
1.070000 0.128246 0
1.075000 0.158024 0
1.080000 0.184426 0
1.085000 0.205678 0
1.090000 0.220254 0
1.095000 0.227055 1
1.100000 0.225546 0
1.105000 0.215829 0
1.110000 0.198628 0
1.115000 0.175205 0
1.120000 0.147199 0
1.125000 0.116438 0
1.130000 0.084713 0
1.135000 0.053506 0
1.140000 0.023608 0
1.145000 -0.005485 0
1.150000 -0.036227 0
1.155000 -0.072990 0
1.160000 -0.120005 0
1.165000 -0.176710 0
1.170000 -0.232584 0
1.175000 -0.265726 2
1.180000 -0.247310 0
1.185000 -0.149262 0
1.190000 0.047340 0
1.195000 0.339862 0
1.200000 0.686526 0
1.205000 0.999127 0
1.210000 1.169699 3
1.215000 1.128556 0
1.220000 0.888720 0
1.225000 0.534753 0
1.230000 0.172499 0
1.235000 -0.119260 0
1.240000 -0.304203 0
1.245000 -0.379859 4
1.250000 -0.366159 0
1.255000 -0.296830 0
1.260000 -0.208490 0
1.265000 -0.128322 0
1.270000 -0.067748 0
1.275000 -0.025294 0
1.280000 0.005987 0
1.285000 0.032613 0
1.290000 0.058533 0
1.295000 0.085459 0
1.300000 0.113830 0
1.305000 0.143508 0
1.310000 0.174105 0
1.315000 0.205108 0
1.320000 0.235919 0
1.325000 0.265880 0
1.330000 0.294299 0
1.335000 0.320469 0
1.340000 0.343704 0
1.345000 0.363363 0
1.350000 0.378881 0
1.355000 0.389793 0
1.360000 0.395761 0
1.365000 0.396588 5
1.370000 0.392228 0
1.375000 0.382790 0
1.380000 0.368531 0
1.385000 0.349847 0
1.390000 0.327252 0
1.395000 0.301356 0
1.400000 0.272833 0
1.405000 0.242399 0
1.410000 0.210776 0
1.415000 0.178664 0
1.420000 0.146721 0
1.425000 0.115539 0
1.430000 0.085626 0
1.435000 0.057402 0
1.440000 0.031188 0
1.445000 0.007209 0
1.450000 -0.014403 0
1.455000 -0.033598 0
1.460000 -0.050399 0
1.465000 -0.064891 0
1.470000 -0.077205 0
1.475000 -0.087507 0
1.480000 -0.095986 0
1.485000 -0.102840 0
1.490000 -0.108273 0
1.495000 -0.112479 0
1.500000 -0.115644 0
1.505000 -0.117938 0
1.510000 -0.119513 0
1.515000 -0.120504 0
1.520000 -0.120805 0
1.525000 -0.119804 0
1.530000 -0.118808 0
1.535000 -0.117816 0
1.540000 -0.116830 0
1.545000 -0.115848 0
1.550000 -0.114871 0
1.555000 -0.113898 0
1.560000 -0.112929 0
1.565000 -0.111963 0
1.570000 -0.110996 0
1.575000 -0.110025 0
1.580000 -0.109043 0
1.585000 -0.108035 0
1.590000 -0.106980 0
1.595000 -0.105842 0
1.600000 -0.104566 0
1.605000 -0.103065 0
1.610000 -0.101215 0
1.615000 -0.098842 0
1.620000 -0.095709 0
1.625000 -0.091510 0
1.630000 -0.085869 0
1.635000 -0.078348 0
1.640000 -0.068471 0
1.645000 -0.055765 0
1.650000 -0.039817 0
1.655000 -0.020347 0
1.660000 0.002708 0
1.665000 0.029115 0
1.670000 0.058288 0
1.675000 0.089260 0
1.680000 0.120700 0
1.685000 0.150988 0
1.690000 0.178345 0
1.695000 0.200997 0
1.700000 0.217366 0
1.705000 0.226250 0
1.710000 0.226973 1
1.715000 0.219464 0
1.720000 0.204275 0
1.725000 0.182508 0
1.730000 0.155689 0
1.735000 0.125581 0
1.740000 0.093982 0
1.745000 0.062481 0
1.750000 0.032131 0
1.755000 0.002939 0
1.760000 -0.026799 0
1.765000 -0.060826 0
1.770000 -0.103764 0
1.775000 -0.157441 0
1.780000 -0.215636 0
1.785000 -0.260870 0
1.790000 -0.266619 2
1.795000 -0.204021 0
1.800000 -0.049659 0
1.805000 0.204649 0
1.810000 0.536201 0
1.815000 0.877103 0
1.820000 1.123849 0
1.825000 1.183082 3
1.830000 1.026711 0
1.835000 0.710582 0
1.840000 0.339901 0
1.845000 0.010866 0
1.850000 -0.221205 0
1.855000 -0.340854 0
1.860000 -0.360029 4
1.865000 -0.308412 0
1.870000 -0.223600 0
1.875000 -0.138199 0
1.880000 -0.070050 0
1.885000 -0.021760 0
1.890000 0.012565 0
1.895000 0.040142 0
1.900000 0.065938 0
1.905000 0.092359 0
1.910000 0.120182 0
1.915000 0.149406 0
1.920000 0.179696 0
1.925000 0.210563 0
1.930000 0.241422 0
1.935000 0.271620 0
1.940000 0.300460 0
1.945000 0.327226 0
1.950000 0.351210 0
1.955000 0.371747 0
1.960000 0.388239 0
1.965000 0.400189 0
1.970000 0.407220 0
1.975000 0.409099 5
1.980000 0.405745 0
1.985000 0.397236 0
1.990000 0.383805 0
1.995000 0.365828 0
2.000000 0.343808 0
2.005000 0.318349 0
2.010000 0.290129 0
2.015000 0.259869 0
2.020000 0.228303 0
2.025000 0.196151 0
2.030000 0.164087 0
2.035000 0.132721 0
2.040000 0.102583 0
2.045000 0.074106 0
2.050000 0.047629 0
2.055000 0.023389 0
2.060000 0.001527 0
2.065000 -0.017898 0
2.070000 -0.034908 0
2.075000 -0.049583 0
2.080000 -0.062056 0
2.085000 -0.072494 0
2.090000 -0.081088 0
2.095000 -0.088041 0
2.100000 -0.093556 0
2.105000 -0.097835 0
2.110000 -0.101065 0
2.115000 -0.103418 0
2.120000 -0.105049 0
2.125000 -0.106095 0
2.130000 -0.106453 0
2.135000 -0.105524 0
2.140000 -0.104599 0
2.145000 -0.103678 0
2.150000 -0.102762 0
2.155000 -0.101851 0
2.160000 -0.100943 0
2.165000 -0.100040 0
2.170000 -0.099140 0
2.175000 -0.098241 0
2.180000 -0.097342 0
2.185000 -0.096438 0
2.190000 -0.095520 0
2.195000 -0.094573 0
2.200000 -0.093575 0
2.205000 -0.092484 0
2.210000 -0.091241 0
2.215000 -0.089752 0
2.220000 -0.087882 0
2.225000 -0.085442 0
2.230000 -0.082178 0
2.235000 -0.077764 0
2.240000 -0.071803 0
2.245000 -0.063838 0
2.250000 -0.053382 0
2.255000 -0.039961 0
2.260000 -0.023183 0
2.265000 -0.002812 0
2.270000 0.021142 0
2.275000 0.048351 0
2.280000 0.078110 0
2.285000 0.109322 0
2.290000 0.140538 0
2.295000 0.170044 0
2.300000 0.196013 0
2.305000 0.216686 0
2.310000 0.230566 0
2.315000 0.236600 1
2.320000 0.234309 0
2.325000 0.223849 0
2.330000 0.205999 0
2.335000 0.182057 0
2.340000 0.153689 0
2.345000 0.122729 0
2.350000 0.090951 0
2.355000 0.059797 0
2.360000 0.029968 0
2.365000 0.000816 0
2.370000 -0.030302 0
2.375000 -0.067867 0
2.380000 -0.115907 0
2.385000 -0.173174 0
2.390000 -0.228126 0
2.395000 -0.258007 2
2.400000 -0.233738 0
2.405000 -0.127694 0
2.410000 0.077760 0
2.415000 0.377299 0
2.420000 0.725049 0
2.425000 1.029444 0
2.430000 1.183322 3
2.435000 1.121158 0
2.440000 0.861998 0
2.445000 0.500504 0
2.450000 0.146050 0
2.455000 -0.126118 0
2.460000 -0.285875 0
2.465000 -0.336753 4
2.470000 -0.304176 0
2.475000 -0.225722 0
2.480000 -0.138068 0
2.485000 -0.064576 0
2.490000 -0.011733 0
2.495000 0.025096 0
2.500000 0.053532 0
2.505000 0.079332 0
2.510000 0.105457 0
2.515000 0.132949 0
2.520000 0.161897 0
2.525000 0.191991 0
2.530000 0.222742 0
2.535000 0.253552 0
2.540000 0.283753 0
2.545000 0.312624 0
2.550000 0.339425 0
2.555000 0.363422 0
2.560000 0.383925 0
2.565000 0.400313 0
2.570000 0.412074 0
2.575000 0.418820 0
2.580000 0.420316 5
2.585000 0.416489 0
2.590000 0.407432 0
2.595000 0.393400 0
2.600000 0.374799 0
2.605000 0.352163 0
2.610000 0.326132 0
2.615000 0.297417 0
2.620000 0.266768 0
2.625000 0.234946 0
2.630000 0.202686 0
2.635000 0.170672 0
2.640000 0.139517 0
2.645000 0.109742 0
2.650000 0.081769 0
2.655000 0.055915 0
2.660000 0.032393 0
2.665000 0.011320 0
2.670000 -0.007275 0
2.675000 -0.023438 0
2.680000 -0.037276 0
2.685000 -0.048942 0
2.690000 -0.058621 0
2.695000 -0.066517 0
2.700000 -0.072842 0
2.705000 -0.077806 0
2.710000 -0.081610 0
2.715000 -0.084441 0
2.720000 -0.086468 0
2.725000 -0.087840 0
2.730000 -0.088442 0
2.735000 -0.087603 0
2.740000 -0.086767 0
2.745000 -0.085935 0
2.750000 -0.085108 0
2.755000 -0.084285 0
2.760000 -0.083465 0
2.765000 -0.082649 0
2.770000 -0.081836 0
2.775000 -0.081025 0
2.780000 -0.080213 0
2.785000 -0.079397 0
2.790000 -0.078568 0
2.795000 -0.077714 0
2.800000 -0.076811 0
2.805000 -0.075822 0
2.810000 -0.074688 0
2.815000 -0.073316 0
2.820000 -0.071573 0
2.825000 -0.069270 0
2.830000 -0.066147 0
2.835000 -0.061874 0
2.840000 -0.056042 0
2.845000 -0.048179 0
2.850000 -0.037781 0
2.855000 -0.024358 0
2.860000 -0.007507 0
2.865000 0.013007 0
2.870000 0.037157 0
2.875000 0.064574 0
2.880000 0.094490 0
2.885000 0.125727 0
2.890000 0.156742 0
2.895000 0.185734 0
2.900000 0.210811 0
2.905000 0.230185 0
2.910000 0.242385 0
2.915000 0.246439 1
2.920000 0.242004 0
2.925000 0.229406 0
2.930000 0.209609 0
2.935000 0.184083 0
2.940000 0.154628 0
2.945000 0.123149 0
2.950000 0.091399 0
2.955000 0.060655 0
2.960000 0.031202 0
2.965000 0.001619 0
2.970000 -0.031720 0
2.975000 -0.073696 0
2.980000 -0.126751 0
2.985000 -0.185143 0
2.990000 -0.231096 0
2.995000 -0.236906 2
3.000000 -0.172239 0
3.005000 -0.012773 0
3.010000 0.248767 0
3.015000 0.585054 0
3.020000 0.919683 0
3.025000 1.142042 0
3.030000 1.161651 3
3.035000 0.966058 0
3.040000 0.628796 0
3.045000 0.260557 0
3.050000 -0.047994 0
3.055000 -0.250961 0
3.060000 -0.340933 4
3.065000 -0.336064 0
3.070000 -0.270438 0
3.075000 -0.182578 0
3.080000 -0.101863 0
3.085000 -0.040996 0
3.090000 0.001311 0
3.095000 0.032289 0
3.100000 0.058695 0
3.105000 0.084532 0
3.110000 0.111472 0
3.115000 0.139896 0
3.120000 0.169619 0
3.125000 0.200213 0
3.130000 0.231125 0
3.135000 0.261715 0
3.140000 0.291286 0
3.145000 0.319107 0
3.150000 0.344441 0
3.155000 0.366580 0
3.160000 0.384872 0
3.165000 0.398758 0
3.170000 0.407796 0
3.175000 0.411682 5
3.180000 0.410272 0
3.185000 0.403585 0
3.190000 0.391803 0
3.195000 0.375263 0
3.200000 0.354443 0
3.205000 0.329934 0
3.210000 0.302414 0
3.215000 0.272615 0
3.220000 0.241293 0
3.225000 0.209194 0
3.230000 0.177026 0
3.235000 0.145433 0
3.240000 0.114981 0
3.245000 0.086135 0
3.250000 0.059263 0
3.255000 0.034625 0
3.260000 0.012385 0
3.265000 -0.007389 0
3.270000 -0.024707 0
3.275000 -0.039647 0
3.280000 -0.052339 0
3.285000 -0.062954 0
3.290000 -0.071686 0
3.295000 -0.078744 0
3.300000 -0.084337 0
3.305000 -0.088672 0
3.310000 -0.091943 0
3.315000 -0.094326 0
3.320000 -0.095981 0
3.325000 -0.097047 0
3.330000 -0.096445 0
3.335000 -0.095566 0
3.340000 -0.094690 0
3.345000 -0.093819 0
3.350000 -0.092952 0
3.355000 -0.092090 0
3.360000 -0.091231 0
3.365000 -0.090376 0
3.370000 -0.089524 0
3.375000 -0.088673 0
3.380000 -0.087820 0
3.385000 -0.086959 0
3.390000 -0.086082 0
3.395000 -0.085171 0
3.400000 -0.084198 0
3.405000 -0.083117 0
3.410000 -0.081857 0
3.415000 -0.080310 0
3.420000 -0.078322 0
3.425000 -0.075677 0
3.430000 -0.072088 0
3.435000 -0.067193 0
3.440000 -0.060559 0
3.445000 -0.051699 0
3.450000 -0.040109 0
3.455000 -0.025329 0
3.460000 -0.007013 0
3.465000 0.014981 0
3.470000 0.040502 0
3.475000 0.069032 0
3.480000 0.099649 0
3.485000 0.131033 0
3.490000 0.161538 0
3.495000 0.189317 0
3.500000 0.212501 0
3.505000 0.229408 0
3.510000 0.238739 0
3.515000 0.239744 1
3.520000 0.232325 0
3.525000 0.217043 0
3.530000 0.195054 0
3.535000 0.167960 0
3.540000 0.137615 0
3.545000 0.105890 0
3.550000 0.074410 0
3.555000 0.044175 0
3.560000 0.014976 0
3.565000 -0.015323 0
3.570000 -0.050969 0
3.575000 -0.096567 0
3.580000 -0.152516 0
3.585000 -0.209387 0
3.590000 -0.245759 2
3.595000 -0.232322 0
3.600000 -0.139863 0
3.605000 0.051928 0
3.610000 0.341689 0
3.615000 0.687901 0
3.620000 1.000588 0
3.625000 1.168828 3
3.630000 1.122858 0
3.635000 0.879302 0
3.640000 0.523973 0
3.645000 0.162682 0
3.650000 -0.126662 0
3.655000 -0.308686 0
3.660000 -0.381619 4
3.665000 -0.365899 0
3.670000 -0.295548 0
3.675000 -0.207128 0
3.680000 -0.127451 0
3.685000 -0.067492 0
3.690000 -0.025494 0
3.695000 0.005555 0
3.700000 0.032117 0
3.705000 0.058060 0
3.710000 0.085040 0
3.715000 0.113468 0
3.720000 0.143194 0
3.725000 0.173822 0
3.730000 0.204836 0
3.735000 0.235634 0
3.740000 0.265556 0
3.745000 0.293906 0
3.750000 0.319978 0
3.755000 0.343086 0
3.760000 0.362589 0
3.765000 0.377925 0
3.770000 0.388636 0
3.775000 0.394387 0
3.780000 0.394987 5
3.785000 0.390398 0
3.790000 0.380735 0
3.795000 0.366264 0
3.800000 0.347386 0
3.805000 0.324623 0
3.810000 0.298586 0
3.815000 0.269957 0
3.820000 0.239451 0
3.825000 0.207792 0
3.830000 0.175679 0
3.835000 0.143769 0
3.840000 0.112650 0
3.845000 0.082827 0
3.850000 0.054713 0
3.855000 0.028626 0
3.860000 0.004786 0
3.865000 -0.016681 0
3.870000 -0.035727 0
3.875000 -0.052382 0
3.880000 -0.066733 0
3.885000 -0.078914 0
3.890000 -0.089092 0
3.895000 -0.097458 0
3.900000 -0.104211 0
3.905000 -0.109554 0
3.910000 -0.113682 0
3.915000 -0.116780 0
3.920000 -0.119016 0
3.925000 -0.120544 0
3.930000 -0.121495 0
3.935000 -0.121767 0
3.940000 -0.120761 0
3.945000 -0.119760 0
3.950000 -0.118763 0
3.955000 -0.117772 0
3.960000 -0.116786 0
3.965000 -0.115804 0
3.970000 -0.114827 0
3.975000 -0.113853 0
3.980000 -0.112881 0
3.985000 -0.111910 0
3.990000 -0.110933 0
3.995000 -0.109944 0
4.000000 -0.108929 0
4.005000 -0.107864 0
4.010000 -0.106713 0
4.015000 -0.105417 0
4.020000 -0.103888 0
4.025000 -0.101998 0
4.030000 -0.099566 0
4.035000 -0.096351 0
4.040000 -0.092040 0
4.045000 -0.086250 0
4.050000 -0.078540 0
4.055000 -0.068430 0
4.060000 -0.055448 0
4.065000 -0.039190 0
4.070000 -0.019392 0
4.075000 0.003985 0
4.080000 0.030680 0
4.085000 0.060070 0
4.090000 0.091152 0
4.095000 0.122561 0
4.100000 0.152655 0
4.105000 0.179645 0
4.110000 0.201763 0
4.115000 0.217459 0
4.120000 0.225574 1
4.125000 0.225486 0
4.130000 0.217189 0
4.135000 0.201291 0
4.140000 0.178948 0
4.145000 0.151718 0
4.150000 0.121382 0
4.155000 0.089731 0
4.160000 0.058319 0
4.165000 0.028118 0
4.170000 -0.001012 0
4.175000 -0.030991 0
4.180000 -0.065753 0
4.185000 -0.109851 0
4.190000 -0.164503 0
4.195000 -0.222332 0
4.200000 -0.264631 2
4.205000 -0.264208 0
4.210000 -0.192372 0
4.215000 -0.026801 0
4.220000 0.238117 0
4.225000 0.575038 0
4.230000 0.910748 0
4.235000 1.139850 0
4.240000 1.173917 3
4.245000 0.995719 0
4.250000 0.669617 0
4.255000 0.299091 0
4.260000 -0.025082 0
4.265000 -0.252024 0
4.270000 -0.368301 0
4.275000 -0.386145 4
4.280000 -0.334502 0
4.285000 -0.249814 0
4.290000 -0.163891 0
4.295000 -0.094572 0
4.300000 -0.044982 0
4.305000 -0.009693 0
4.310000 0.018377 0
4.315000 0.044304 0
4.320000 0.070662 0
4.325000 0.098354 0
4.330000 0.127451 0
4.335000 0.157665 0
4.340000 0.188542 0
4.345000 0.219534 0
4.350000 0.250019 0
4.355000 0.279330 0
4.360000 0.306777 0
4.365000 0.331669 0
4.370000 0.353348 0
4.375000 0.371214 0
4.380000 0.384753 0
4.385000 0.393559 0
4.390000 0.397360 5
4.395000 0.396022 0
4.400000 0.389564 0
4.405000 0.378155 0
4.410000 0.362104 0
4.415000 0.341849 0
4.420000 0.317936 0
4.425000 0.290991 0
4.430000 0.261698 0
4.435000 0.230766 0
4.440000 0.198900 0
4.445000 0.166780 0
4.450000 0.135032 0
4.455000 0.104213 0
4.460000 0.074796 0
4.465000 0.047164 0
4.470000 0.021604 0
4.475000 -0.001690 0
4.480000 -0.022613 0
4.485000 -0.041137 0
4.490000 -0.057302 0
4.495000 -0.071207 0
4.500000 -0.082989 0
4.505000 -0.092819 0
4.510000 -0.100886 0
4.515000 -0.107388 0
4.520000 -0.112522 0
4.525000 -0.116480 0
4.530000 -0.119440 0
4.535000 -0.121568 0
4.540000 -0.123009 0
4.545000 -0.123893 0
4.550000 -0.123152 0
4.555000 -0.122139 0
4.560000 -0.121132 0
4.565000 -0.120129 0
4.570000 -0.119131 0
4.575000 -0.118137 0
4.580000 -0.117149 0
4.585000 -0.116165 0
4.590000 -0.115184 0
4.595000 -0.114206 0
4.600000 -0.113227 0
4.605000 -0.112245 0
4.610000 -0.111249 0
4.615000 -0.110228 0
4.620000 -0.109158 0
4.625000 -0.108004 0
4.630000 -0.106709 0
4.635000 -0.105188 0
4.640000 -0.103318 0
4.645000 -0.100923 0
4.650000 -0.097771 0
4.655000 -0.093561 0
4.660000 -0.087922 0
4.665000 -0.080423 0
4.670000 -0.070598 0
4.675000 -0.057977 0
4.680000 -0.042153 0
4.685000 -0.022845 0
4.690000 0.000023 0
4.695000 0.026238 0
4.700000 0.055248 0
4.705000 0.086126 0
4.710000 0.117589 0
4.715000 0.148064 0
4.720000 0.175806 0
4.725000 0.199062 0
4.730000 0.216248 0
4.735000 0.226129 0
4.740000 0.227966 1
4.745000 0.221610 0
4.750000 0.207517 0
4.755000 0.186699 0
4.760000 0.160602 0
4.765000 0.130936 0
4.770000 0.099481 0
4.775000 0.067861 0
4.780000 0.037243 0
4.785000 0.007891 0
4.790000 -0.021473 0
4.795000 -0.054126 0
4.800000 -0.094652 0
4.805000 -0.145939 0
4.810000 -0.204196 0
4.815000 -0.254982 0
4.820000 -0.273938 2
4.825000 -0.232512 0
4.830000 -0.105411 0
4.835000 0.120893 0
4.840000 0.434627 0
4.845000 0.782624 0
4.850000 1.070312 0
4.855000 1.196268 3
4.860000 1.107020 0
4.865000 0.831676 0
4.870000 0.466502 0
4.875000 0.115960 0
4.880000 -0.150360 0
4.885000 -0.305557 0
4.890000 -0.354106 4
4.895000 -0.321012 0
4.900000 -0.242711 0
4.905000 -0.154813 0
4.910000 -0.080375 0
4.915000 -0.026292 0
4.920000 0.011543 0
4.925000 0.040519 0
4.930000 0.066465 0
4.935000 0.092509 0
4.940000 0.119830 0
4.945000 0.148602 0
4.950000 0.178567 0
4.955000 0.209273 0
4.960000 0.240161 0
4.965000 0.270594 0
4.970000 0.299887 0
4.975000 0.327324 0
4.980000 0.352192 0
4.985000 0.373808 0
4.990000 0.391551 0
4.995000 0.404888 0
5.000000 0.413404 0
5.005000 0.416819 5
5.010000 0.415007 0
5.015000 0.407996 0
5.020000 0.395974 0
5.025000 0.379276 0
5.030000 0.358371 0
5.035000 0.333833 0
5.040000 0.306325 0
5.045000 0.276558 0
5.050000 0.245266 0
5.055000 0.213178 0
5.060000 0.180984 0
5.065000 0.149316 0
5.070000 0.118729 0
5.075000 0.089687 0
5.080000 0.062558 0
5.085000 0.037607 0
5.090000 0.015004 0
5.095000 -0.005169 0
5.100000 -0.022912 0
5.105000 -0.038289 0
5.110000 -0.051421 0
5.115000 -0.062464 0
5.120000 -0.071605 0
5.125000 -0.079045 0
5.130000 -0.084988 0
5.135000 -0.089637 0
5.140000 -0.093183 0
5.145000 -0.095805 0
5.150000 -0.097662 0
5.155000 -0.098896 0
5.160000 -0.099394 0
5.165000 -0.098499 0
5.170000 -0.097609 0
5.175000 -0.096724 0
5.180000 -0.095842 0
5.185000 -0.094965 0
5.190000 -0.094093 0
5.195000 -0.093224 0
5.200000 -0.092358 0
5.205000 -0.091494 0
5.210000 -0.090631 0
5.215000 -0.089763 0
5.220000 -0.088884 0
5.225000 -0.087982 0
5.230000 -0.087035 0
5.235000 -0.086009 0
5.240000 -0.084849 0
5.245000 -0.083472 0
5.250000 -0.081755 0
5.255000 -0.079526 0
5.260000 -0.076547 0
5.265000 -0.072513 0
5.270000 -0.067044 0
5.275000 -0.059698 0
5.280000 -0.049991 0
5.285000 -0.037439 0
5.290000 -0.021621 0
5.295000 -0.002250 0
5.300000 0.020739 0
5.305000 0.047106 0
5.310000 0.076250 0
5.315000 0.107175 0
5.320000 0.138516 0
5.325000 0.168616 0
5.330000 0.195658 0
5.335000 0.217844 0
5.340000 0.233589 0
5.345000 0.241706 1
5.350000 0.241557 0
5.355000 0.233132 0
5.360000 0.217055 0
5.365000 0.194506 0
5.370000 0.167075 0
5.375000 0.136575 0
5.380000 0.104822 0
5.385000 0.073375 0
5.390000 0.043175 0
5.395000 0.013986 0
5.400000 -0.016294 0
5.405000 -0.051794 0
5.410000 -0.097034 0
5.415000 -0.152630 0
5.420000 -0.209932 0
5.425000 -0.248717 2
5.430000 -0.240766 0
5.435000 -0.157306 0
5.440000 0.022756 0
5.445000 0.301392 0
5.450000 0.644143 0
5.455000 0.969424 0
5.460000 1.168897 3
5.465000 1.162220 0
5.470000 0.946963 0
5.475000 0.601042 0
5.480000 0.235528 0
5.485000 -0.063140 0
5.490000 -0.253766 0
5.495000 -0.332259 4
5.500000 -0.318966 0
5.505000 -0.249134 0
5.510000 -0.160958 0
5.515000 -0.082191 0
5.520000 -0.023699 0
5.525000 0.016888 0
5.530000 0.047001 0
5.535000 0.073136 0
5.540000 0.098990 0
5.545000 0.126038 0
5.550000 0.154571 0
5.555000 0.184363 0
5.560000 0.214968 0
5.565000 0.245821 0
5.570000 0.276273 0
5.575000 0.305622 0
5.580000 0.333131 0
5.585000 0.358067 0
5.590000 0.379724 0
5.595000 0.397461 0
5.600000 0.410729 0
5.605000 0.419102 0
5.610000 0.422294 5
5.615000 0.420181 0
5.620000 0.412801 0
5.625000 0.400357 0
5.630000 0.383205 0
5.635000 0.361839 0
5.640000 0.336862 0
5.645000 0.308963 0
5.650000 0.278878 0
5.655000 0.247366 0
5.660000 0.215169 0
5.665000 0.182989 0
5.670000 0.151464 0
5.675000 0.121145 0
5.680000 0.092488 0
5.685000 0.065845 0
5.690000 0.041466 0
5.695000 0.019498 0
5.700000 0.000003 0
5.705000 -0.017042 0
5.710000 -0.031722 0
5.715000 -0.044174 0
5.720000 -0.054572 0
5.725000 -0.063113 0
5.730000 -0.070007 0
5.735000 -0.075465 0
5.740000 -0.079691 0
5.745000 -0.082876 0
5.750000 -0.085197 0
5.755000 -0.086809 0
5.760000 -0.087849 0
5.765000 -0.087283 0
5.770000 -0.086449 0
5.775000 -0.085619 0
5.780000 -0.084793 0
5.785000 -0.083972 0
5.790000 -0.083154 0
5.795000 -0.082340 0
5.800000 -0.081529 0
5.805000 -0.080720 0
5.810000 -0.079912 0
5.815000 -0.079102 0
5.820000 -0.078283 0
5.825000 -0.077445 0
5.830000 -0.076569 0
5.835000 -0.075625 0
5.840000 -0.074565 0
5.845000 -0.073312 0
5.850000 -0.071752 0
5.855000 -0.069721 0
5.860000 -0.066995 0
5.865000 -0.063274 0
5.870000 -0.058185 0
5.875000 -0.051284 0
5.880000 -0.042078 0
5.885000 -0.030066 0
5.890000 -0.014798 0
5.895000 0.004046 0
5.900000 0.026568 0
5.905000 0.052564 0
5.910000 0.081454 0
5.915000 0.112250 0
5.920000 0.143574 0
5.925000 0.173735 0
5.930000 0.200868 0
5.935000 0.223117 0
5.940000 0.238847 0
5.945000 0.246837 1
5.950000 0.246435 0
5.955000 0.237650 0
5.960000 0.221148 0
5.965000 0.198172 0
5.970000 0.170380 0
5.975000 0.139646 0
5.980000 0.107825 0
5.985000 0.076470 0
5.990000 0.046429 0
5.995000 0.017220 0
6.000000 -0.013667 0
6.005000 -0.050740 0
6.010000 -0.098292 0
6.015000 -0.155427 0
6.020000 -0.210666 0
6.025000 -0.240772 2
6.030000 -0.215820 0
6.035000 -0.107423 0
6.040000 0.102136 0
6.045000 0.405943 0
6.050000 0.753943 0
6.055000 1.049223 0
6.060000 1.182888 3
6.065000 1.096910 0
6.070000 0.822576 0
6.075000 0.457433 0
6.080000 0.107612 0
6.085000 -0.156601 0
6.090000 -0.308570 0
6.095000 -0.353548 4
6.100000 -0.317564 0
6.105000 -0.237917 0
6.110000 -0.150373 0
6.115000 -0.077341 0
6.120000 -0.024797 0
6.125000 0.011965 0
6.130000 0.040449 0
6.135000 0.066316 0
6.140000 0.092490 0
6.145000 0.120011 0
6.150000 0.148979 0
6.155000 0.179098 0
6.160000 0.209889 0
6.165000 0.240769 0
6.170000 0.271083 0
6.175000 0.300124 0
6.180000 0.327164 0
6.185000 0.351481 0
6.190000 0.372388 0
6.195000 0.389270 0
6.200000 0.401608 0
6.205000 0.409008 0
6.210000 0.411220 5
6.215000 0.408150 0
6.220000 0.399870 0
6.225000 0.386609 0
6.230000 0.368745 0
6.235000 0.346785 0
6.240000 0.321344 0
6.245000 0.293111 0
6.250000 0.262821 0
6.255000 0.231222 0
6.260000 0.199045 0
6.265000 0.166976 0
6.270000 0.135635 0
6.275000 0.105554 0
6.280000 0.077174 0
6.285000 0.050830 0
6.290000 0.026756 0
6.295000 0.005091 0
6.300000 -0.014115 0
6.305000 -0.030889 0
6.310000 -0.045321 0
6.315000 -0.057551 0
6.320000 -0.067751 0
6.325000 -0.076120 0
6.330000 -0.082864 0
6.335000 -0.088190 0
6.340000 -0.092302 0
6.345000 -0.095388 0
6.350000 -0.097620 0
6.355000 -0.099152 0
6.360000 -0.100120 0
6.365000 -0.099491 0
6.370000 -0.098596 0
6.375000 -0.097706 0
6.380000 -0.096819 0
6.385000 -0.095938 0
6.390000 -0.095060 0
6.395000 -0.094187 0
6.400000 -0.093317 0
6.405000 -0.092449 0
6.410000 -0.091583 0
6.415000 -0.090715 0
6.420000 -0.089839 0
6.425000 -0.088945 0
6.430000 -0.088015 0
6.435000 -0.087020 0
6.440000 -0.085914 0
6.445000 -0.084622 0
6.450000 -0.083037 0
6.455000 -0.081000 0
6.460000 -0.078295 0
6.465000 -0.074634 0
6.470000 -0.069655 0
6.475000 -0.062924 0
6.480000 -0.053960 0
6.485000 -0.042264 0
6.490000 -0.027383 0
6.495000 -0.008979 0
6.500000 0.013084 0
6.505000 0.038651 0
6.510000 0.067205 0
6.515000 0.097832 0
6.520000 0.129225 0
6.525000 0.159757 0
6.530000 0.187600 0
6.535000 0.210905 0
6.540000 0.227999 0
6.545000 0.237586 0
6.550000 0.238906 1
6.555000 0.231836 0
6.560000 0.216905 0
6.565000 0.195234 0
6.570000 0.168390 0
6.575000 0.138198 0
6.580000 0.106518 0
6.585000 0.074984 0
6.590000 0.044648 0
6.595000 0.015425 0
6.600000 -0.014620 0
6.605000 -0.049534 0
6.610000 -0.094001 0
6.615000 -0.149093 0
6.620000 -0.206698 0
6.625000 -0.246823 2
6.630000 -0.240979 0
6.635000 -0.159793 0
6.640000 0.018501 0
6.645000 0.296350 0
6.650000 0.639065 0
6.655000 0.963686 0
6.660000 1.160090 3
6.665000 1.148376 0
6.670000 0.929975 0
6.675000 0.583833 0
6.680000 0.217930 0
6.685000 -0.083280 0
6.690000 -0.278686 0
6.695000 -0.363113 4
6.700000 -0.355228 0
6.705000 -0.288566 0
6.710000 -0.200540 0
6.715000 -0.119610 0
6.720000 -0.058217 0
6.725000 -0.015291 0
6.730000 0.016141 0
6.735000 0.042757 0
6.740000 0.068622 0
6.745000 0.095496 0
6.750000 0.123827 0
6.755000 0.153474 0
6.760000 0.184040 0
6.765000 0.215001 0
6.770000 0.245747 0
6.775000 0.275609 0
6.780000 0.303879 0
6.785000 0.329841 0
6.790000 0.352799 0
6.795000 0.372105 0
6.800000 0.387192 0
6.805000 0.397599 0
6.810000 0.402996 0
6.815000 0.403196 5
6.820000 0.398172 0
6.825000 0.388052 0
6.830000 0.373118 0
6.835000 0.353789 0
6.840000 0.330603 0
6.845000 0.304193 0
6.850000 0.275254 0
6.855000 0.244514 0
6.860000 0.212706 0
6.865000 0.180537 0
6.870000 0.148662 0
6.875000 0.117668 0
6.880000 0.088053 0
6.885000 0.060221 0
6.890000 0.034476 0
6.895000 0.011023 0
6.900000 -0.010022 0
6.905000 -0.028631 0
6.910000 -0.044845 0
6.915000 -0.058762 0
6.920000 -0.070529 0
6.925000 -0.080321 0
6.930000 -0.088335 0
6.935000 -0.094774 0
6.940000 -0.099842 0
6.945000 -0.103735 0
6.950000 -0.106638 0
6.955000 -0.108717 0
6.960000 -0.110120 0
6.965000 -0.110979 0
6.970000 -0.110288 0
6.975000 -0.109339 0
6.980000 -0.108395 0
6.985000 -0.107456 0
6.990000 -0.106521 0
6.995000 -0.105591 0
7.000000 -0.104664 0
7.005000 -0.103742 0
7.010000 -0.102823 0
7.015000 -0.101905 0
7.020000 -0.100985 0
7.025000 -0.100058 0
7.030000 -0.099113 0
7.035000 -0.098133 0
7.040000 -0.097091 0
7.045000 -0.095939 0
7.050000 -0.094609 0
7.055000 -0.092995 0
7.060000 -0.090944 0
7.065000 -0.088249 0
7.070000 -0.084633 0
7.075000 -0.079745 0
7.080000 -0.073168 0
7.085000 -0.064431 0
7.090000 -0.053044 0
7.095000 -0.038554 0
7.100000 -0.020609 0
7.105000 0.000957 0
7.110000 0.026038 0
7.115000 0.054187 0
7.120000 0.084573 0
7.125000 0.115978 0
7.130000 0.146853 0
7.135000 0.175432 0
7.140000 0.199887 0
7.145000 0.218524 0
7.150000 0.229970 0
7.155000 0.233348 1
7.160000 0.228381 0
7.165000 0.215433 0
7.170000 0.195464 0
7.175000 0.169911 0
7.180000 0.140519 0
7.185000 0.109127 0
7.190000 0.077435 0
7.195000 0.046700 0
7.200000 0.017264 0
7.205000 -0.012113 0
7.210000 -0.044758 0
7.215000 -0.085392 0
7.220000 -0.136953 0
7.225000 -0.195298 0
7.230000 -0.245069 0
7.235000 -0.260702 2
7.240000 -0.212716 0
7.245000 -0.075682 0
7.250000 0.162379 0
7.255000 0.484887 0
7.260000 0.830410 0
7.265000 1.097106 0
7.270000 1.184973 3
7.275000 1.054679 0
7.280000 0.753391 0
7.285000 0.383646 0
7.290000 0.045467 0
7.295000 -0.200164 0
7.300000 -0.333473 0
7.305000 -0.363636 4
7.310000 -0.318665 0
7.315000 -0.235908 0
7.320000 -0.149293 0
7.325000 -0.078689 0
7.330000 -0.028256 0
7.335000 0.007323 0
7.340000 0.035386 0
7.345000 0.061232 0
7.350000 0.087529 0
7.355000 0.115191 0
7.360000 0.144277 0
7.365000 0.174478 0
7.370000 0.205317 0
7.375000 0.236217 0
7.380000 0.266531 0
7.385000 0.295564 0
7.390000 0.322599 0
7.395000 0.346926 0
7.400000 0.367871 0
7.405000 0.384829 0
7.410000 0.397287 0
7.415000 0.404856 0
7.420000 0.407286 5
7.425000 0.404480 0
7.430000 0.396499 0
7.435000 0.383562 0
7.440000 0.366031 0
7.445000 0.344398 0
7.450000 0.319259 0
7.455000 0.291287 0
7.460000 0.261201 0
7.465000 0.229739 0
7.470000 0.197621 0
7.475000 0.165529 0
7.480000 0.134081 0
7.485000 0.103816 0
7.490000 0.075177 0
7.495000 0.048513 0
7.500000 0.024069 0
7.505000 0.001996 0
7.510000 -0.017640 0
7.515000 -0.034854 0
7.520000 -0.049723 0
7.525000 -0.062374 0
7.530000 -0.072974 0
7.535000 -0.081711 0
7.540000 -0.088788 0
7.545000 -0.094409 0
7.550000 -0.098777 0
7.555000 -0.102080 0
7.560000 -0.104492 0
7.565000 -0.106170 0
7.570000 -0.107251 0
7.575000 -0.107632 0
7.580000 -0.106696 0
7.585000 -0.105766 0
7.590000 -0.104839 0
7.595000 -0.103918 0
7.600000 -0.103000 0
7.605000 -0.102087 0
7.610000 -0.101178 0
7.615000 -0.100273 0
7.620000 -0.099369 0
7.625000 -0.098465 0
7.630000 -0.097556 0
7.635000 -0.096633 0
7.640000 -0.095684 0
7.645000 -0.094685 0
7.650000 -0.093597 0
7.655000 -0.092361 0
7.660000 -0.090887 0
7.665000 -0.089041 0
7.670000 -0.086639 0
7.675000 -0.083430 0
7.680000 -0.079093 0
7.685000 -0.073233 0
7.690000 -0.065398 0
7.695000 -0.055098 0
7.700000 -0.041857 0
7.705000 -0.025276 0
7.710000 -0.005107 0
7.715000 0.018657 0
7.720000 0.045706 0
7.725000 0.075356 0
7.730000 0.106530 0
7.735000 0.137791 0
7.740000 0.167437 0
7.745000 0.193637 0
7.750000 0.214622 0
7.755000 0.228874 0
7.760000 0.235314 1
7.765000 0.233429 0
7.770000 0.223348 0
7.775000 0.205821 0
7.780000 0.182128 0
7.785000 0.153926 0
7.790000 0.123047 0
7.795000 0.091276 0
7.800000 0.060079 0
7.805000 0.030202 0
7.810000 0.001064 0
7.815000 -0.029895 0
7.820000 -0.067112 0
7.825000 -0.114718 0
7.830000 -0.171768 0
7.835000 -0.227142 0
7.840000 -0.258403 2
7.845000 -0.236525 0
7.850000 -0.133653 0
7.855000 0.068392 0
7.860000 0.365325 0
7.865000 0.712744 0
7.870000 1.020150 0
7.875000 1.179881 3
7.880000 1.125461 0
7.885000 0.874448 0
7.890000 0.516179 0
7.895000 0.157503 0
7.900000 -0.125070 0
7.905000 -0.298396 0
7.910000 -0.362771 4
7.915000 -0.340469 0
7.920000 -0.266806 0
7.925000 -0.178419 0
7.930000 -0.100894 0
7.935000 -0.043556 0
7.940000 -0.003537 0
7.945000 0.026459 0
7.950000 0.052666 0
7.955000 0.078623 0
7.960000 0.105754 0
7.965000 0.134348 0
7.970000 0.164192 0
7.975000 0.194860 0
7.980000 0.225806 0
7.985000 0.256406 0
7.990000 0.285981 0
7.995000 0.313819 0
8.000000 0.339205 0
8.005000 0.361448 0
8.010000 0.379916 0
8.015000 0.394059 0
8.020000 0.403442 0
8.025000 0.407762 5
8.030000 0.406866 0
8.035000 0.400755 0
8.040000 0.389594 0
8.045000 0.373691 0
8.050000 0.353495 0
8.055000 0.329565 0
8.060000 0.302549 0
8.065000 0.273153 0
8.070000 0.242109 0
8.075000 0.210148 0
8.080000 0.177967 0
8.085000 0.146211 0
8.090000 0.115448 0
8.095000 0.086158 0
8.100000 0.058724 0
8.105000 0.033430 0
8.110000 0.010461 0
8.115000 -0.010087 0
8.120000 -0.028201 0
8.125000 -0.043935 0
8.130000 -0.057399 0
8.135000 -0.068747 0
8.140000 -0.078161 0
8.145000 -0.085838 0
8.150000 -0.091985 0
8.155000 -0.096803 0
8.160000 -0.100487 0
8.165000 -0.103217 0
8.170000 -0.105157 0
8.175000 -0.106451 0
8.180000 -0.106977 0
8.185000 -0.106045 0
8.190000 -0.105117 0
8.195000 -0.104194 0
8.200000 -0.103276 0
8.205000 -0.102362 0
8.210000 -0.101452 0
8.215000 -0.100546 0
8.220000 -0.099644 0
8.225000 -0.098745 0
8.230000 -0.097846 0
8.235000 -0.096945 0
8.240000 -0.096033 0
8.245000 -0.095102 0
8.250000 -0.094130 0
8.255000 -0.093086 0
8.260000 -0.091921 0
8.265000 -0.090556 0
8.270000 -0.088877 0
8.275000 -0.086720 0
8.280000 -0.083861 0
8.285000 -0.080008 0
8.290000 -0.074793 0
8.295000 -0.067785 0
8.300000 -0.058503 0
8.305000 -0.046463 0
8.310000 -0.031225 0
8.315000 -0.012472 0
8.320000 0.009905 0
8.325000 0.035728 0
8.330000 0.064464 0
8.335000 0.095190 0
8.340000 0.126604 0
8.345000 0.157092 0
8.350000 0.184857 0
8.355000 0.208084 0
8.360000 0.225133 0
8.365000 0.234736 0
8.370000 0.236145 1
8.375000 0.229234 0
8.380000 0.214514 0
8.385000 0.193071 0
8.390000 0.166433 0
8.395000 0.136387 0
8.400000 0.104766 0
8.405000 0.073196 0
8.410000 0.042770 0
8.415000 0.013518 0
8.420000 -0.016273 0
8.425000 -0.050406 0
8.430000 -0.093573 0
8.435000 -0.147534 0
8.440000 -0.205686 0
8.445000 -0.249876 0
8.450000 -0.252875 2
8.455000 -0.185420 0
8.460000 -0.024302 0
8.465000 0.237203 0
8.470000 0.572799 0
8.475000 0.909429 0
8.480000 1.140387 0
8.485000 1.175371 3
8.490000 0.996428 0
8.495000 0.669072 0
8.500000 0.298754 0
8.505000 -0.022858 0
8.510000 -0.245294 0
8.515000 -0.356155 0
8.520000 -0.368945 4
8.525000 -0.313894 0
8.530000 -0.228187 0
8.535000 -0.143336 0
8.540000 -0.076078 0
8.545000 -0.028421 0
8.550000 0.005625 0
8.555000 0.033146 0
8.560000 0.058974 0
8.565000 0.085443 0
8.570000 0.113307 0
8.575000 0.142561 0
8.580000 0.172876 0
8.585000 0.203769 0
8.590000 0.234667 0
8.595000 0.264925 0
8.600000 0.293857 0
8.605000 0.320758 0
8.610000 0.344928 0
8.615000 0.365708 0
8.620000 0.382505 0
8.625000 0.394819 0
8.630000 0.402273 0
8.635000 0.404622 5
8.640000 0.401776 0
8.645000 0.393795 0
8.650000 0.380896 0
8.655000 0.363435 0
8.660000 0.341895 0
8.665000 0.316861 0
8.670000 0.288995 0
8.675000 0.259004 0
8.680000 0.227613 0
8.685000 0.195533 0
8.690000 0.163441 0
8.695000 0.131947 0
8.700000 0.101590 0
8.705000 0.072814 0
8.710000 0.045969 0
8.715000 0.021309 0
8.720000 -0.001009 0
8.725000 -0.020913 0
8.730000 -0.038406 0
8.735000 -0.053559 0
8.740000 -0.066490 0
8.745000 -0.077359 0
8.750000 -0.086350 0
8.755000 -0.093659 0
8.760000 -0.099491 0
8.765000 -0.104042 0
8.770000 -0.107503 0
8.775000 -0.110048 0
8.780000 -0.111835 0
8.785000 -0.113003 0
8.790000 -0.113436 0
8.795000 -0.112472 0
8.800000 -0.111512 0
8.805000 -0.110557 0
8.810000 -0.109607 0
8.815000 -0.108661 0
8.820000 -0.107720 0
8.825000 -0.106783 0
8.830000 -0.105850 0
8.835000 -0.104919 0
8.840000 -0.103989 0
8.845000 -0.103056 0
8.850000 -0.102113 0
8.855000 -0.101149 0
8.860000 -0.100144 0
8.865000 -0.099066 0
8.870000 -0.097864 0
8.875000 -0.096461 0
8.880000 -0.094742 0
8.885000 -0.092545 0
8.890000 -0.089648 0
8.895000 -0.085761 0
8.900000 -0.080523 0
8.905000 -0.073507 0
8.910000 -0.064243 0
8.915000 -0.052251 0
8.920000 -0.037095 0
8.925000 -0.018460 0
8.930000 0.003774 0
8.935000 0.029445 0
8.940000 0.058049 0
8.945000 0.088698 0
8.950000 0.120134 0
8.955000 0.150787 0
8.960000 0.178894 0
8.965000 0.202659 0
8.970000 0.220443 0
8.975000 0.230947 0
8.980000 0.233372 1
8.985000 0.227517 0
8.990000 0.213809 0
8.995000 0.193248 0
9.000000 0.167290 0
9.005000 0.137671 0
9.010000 0.106205 0
9.015000 0.074548 0
9.020000 0.043898 0
9.025000 0.014519 0
9.030000 -0.014909 0
9.035000 -0.047763 0
9.040000 -0.088713 0
9.045000 -0.140527 0
9.050000 -0.198887 0
9.055000 -0.248427 0
9.060000 -0.263840 2
9.065000 -0.216036 0
9.070000 -0.079901 0
9.075000 0.156580 0
9.080000 0.477681 0
9.085000 0.823899 0
9.090000 1.095481 0
9.095000 1.192554 3
9.100000 1.072433 0
9.105000 0.777913 0
9.110000 0.409092 0
9.115000 0.066552 0
9.120000 -0.186511 0
9.125000 -0.328089 0
9.130000 -0.365555 4
9.135000 -0.325489 0
9.140000 -0.244557 0
9.145000 -0.157185 0
9.150000 -0.084584 0
9.155000 -0.032209 0
9.160000 0.004614 0
9.165000 0.033208 0
9.170000 0.059126 0
9.175000 0.085285 0
9.180000 0.112750 0
9.185000 0.141652 0
9.190000 0.171716 0
9.195000 0.202488 0
9.200000 0.233410 0
9.205000 0.263850 0
9.210000 0.293125 0
9.215000 0.320526 0
9.220000 0.345349 0
9.225000 0.366918 0
9.230000 0.384619 0
9.235000 0.397928 0
9.240000 0.406434 0
9.245000 0.409862 5
9.250000 0.408087 0
9.255000 0.401139 0
9.260000 0.389202 0
9.265000 0.372606 0
9.270000 0.351814 0
9.275000 0.327395 0
9.280000 0.300000 0
9.285000 0.270335 0
9.290000 0.239126 0
9.295000 0.207095 0
9.300000 0.174929 0
9.305000 0.143256 0
9.310000 0.112631 0
9.315000 0.083519 0
9.320000 0.056290 0
9.325000 0.031213 0
9.330000 0.008464 0
9.335000 -0.011870 0
9.340000 -0.029782 0
9.345000 -0.045332 0
9.350000 -0.058633 0
9.355000 -0.069840 0
9.360000 -0.079133 0
9.365000 -0.086711 0
9.370000 -0.092776 0
9.375000 -0.097529 0
9.380000 -0.101163 0
9.385000 -0.103854 0
9.390000 -0.105765 0
9.395000 -0.107038 0
9.400000 -0.107550 0
9.405000 -0.106615 0
9.410000 -0.105684 0
9.415000 -0.104758 0
9.420000 -0.103837 0
9.425000 -0.102920 0
9.430000 -0.102008 0
9.435000 -0.101099 0
9.440000 -0.100195 0
9.445000 -0.099293 0
9.450000 -0.098391 0
9.455000 -0.097487 0
9.460000 -0.096574 0
9.465000 -0.095640 0
9.470000 -0.094668 0
9.475000 -0.093626 0
9.480000 -0.092465 0
9.485000 -0.091110 0
9.490000 -0.089450 0
9.495000 -0.087325 0
9.500000 -0.084517 0
9.505000 -0.080741 0
9.510000 -0.075639 0
9.515000 -0.068786 0
9.520000 -0.059710 0
9.525000 -0.047928 0
9.530000 -0.032998 0
9.535000 -0.014593 0
9.540000 0.007420 0
9.545000 0.032898 0
9.550000 0.061350 0
9.555000 0.091906 0
9.560000 0.123315 0
9.565000 0.154011 0
9.570000 0.182228 0
9.575000 0.206156 0
9.580000 0.224140 0
9.585000 0.234858 0
9.590000 0.237492 1
9.595000 0.231821 0
9.600000 0.218259 0
9.605000 0.197799 0
9.610000 0.171898 0
9.615000 0.142298 0
9.620000 0.110821 0
9.625000 0.079139 0
9.630000 0.048459 0
9.635000 0.019054 0
9.640000 -0.010396 0
9.645000 -0.043286 0
9.650000 -0.084308 0
9.655000 -0.136222 0
9.660000 -0.194610 0
9.665000 -0.243908 0
9.670000 -0.258579 2
9.675000 -0.209382 0
9.680000 -0.071221 0
9.685000 0.167566 0
9.690000 0.490275 0
9.695000 0.835828 0
9.700000 1.103211 0
9.705000 1.193028 3
9.710000 1.063265 0
9.715000 0.760880 0
9.720000 0.390895 0
9.725000 0.055005 0
9.730000 -0.185857 0
9.735000 -0.313007 0
9.740000 -0.337132 4
9.745000 -0.287876 0
9.750000 -0.203659 0
9.755000 -0.118205 0
9.760000 -0.050086 0
9.765000 -0.002046 0
9.770000 0.031975 0
9.775000 0.059338 0
9.780000 0.085039 0
9.785000 0.111446 0
9.790000 0.139290 0
9.795000 0.168537 0
9.800000 0.198825 0
9.805000 0.229642 0
9.810000 0.260380 0
9.815000 0.290361 0
9.820000 0.318867 0
9.825000 0.345162 0
9.830000 0.368527 0
9.835000 0.388288 0
9.840000 0.403849 0
9.845000 0.414723 0
9.850000 0.420553 0
9.855000 0.421134 5
9.860000 0.416421 0
9.865000 0.406533 0
9.870000 0.391750 0
9.875000 0.372494 0
9.880000 0.349313 0
9.885000 0.322851 0
9.890000 0.293821 0
9.895000 0.262971 0
9.900000 0.231051 0
9.905000 0.198785 0
9.910000 0.166843 0
9.915000 0.135821 0
9.920000 0.106225 0
9.925000 0.078463 0
9.930000 0.052836 0
9.935000 0.029546 0
9.940000 0.008700 0
9.945000 -0.009680 0
9.950000 -0.025647 0
9.955000 -0.039310 0
9.960000 -0.050823 0
9.965000 -0.060372 0
9.970000 -0.068159 0
9.975000 -0.074396 0
9.980000 -0.079288 0
9.985000 -0.083036 0
9.990000 -0.085823 0
9.995000 -0.087817 0
10.000000 -0.089163 0
10.005000 -0.089748 0
10.010000 -0.088902 0
10.015000 -0.088060 0
10.020000 -0.087222 0
10.025000 -0.086388 0
10.030000 -0.085558 0
10.035000 -0.084732 0
10.040000 -0.083910 0
10.045000 -0.083091 0
10.050000 -0.082273 0
10.055000 -0.081455 0
10.060000 -0.080633 0
10.065000 -0.079799 0
10.070000 -0.078940 0
10.075000 -0.078034 0
10.080000 -0.077044 0
10.085000 -0.075912 0
10.090000 -0.074550 0
10.095000 -0.072828 0
10.100000 -0.070561 0
10.105000 -0.067498 0
10.110000 -0.063316 0
10.115000 -0.057615 0
10.120000 -0.049932 0
10.125000 -0.039770 0
10.130000 -0.026638 0
10.135000 -0.010126 0
10.140000 0.010017 0
10.145000 0.033797 0
10.150000 0.060886 0
10.155000 0.090568 0
10.160000 0.121724 0
10.165000 0.152862 0
10.170000 0.182224 0
10.175000 0.207935 0
10.180000 0.228199 0
10.185000 0.241504 0
10.190000 0.246807 1
10.195000 0.243668 0
10.200000 0.232312 0
10.205000 0.213598 0
10.210000 0.188913 0
10.215000 0.159999 0
10.220000 0.128742 0
10.225000 0.096928 0
10.230000 0.065937 0
10.235000 0.036286 0
10.240000 0.006950 0
10.245000 -0.025241 0
10.250000 -0.065072 0
10.255000 -0.115903 0
10.260000 -0.174219 0
10.265000 -0.225040 0
10.270000 -0.242580 2
10.275000 -0.196635 0
10.280000 -0.060938 0
10.285000 0.177012 0
10.290000 0.500167 0
10.295000 0.844922 0
10.300000 1.106348 0
10.305000 1.183397 3
10.310000 1.039407 0
10.315000 0.728169 0
10.320000 0.357648 0
10.325000 0.028236 0
10.330000 -0.202426 0
10.335000 -0.318694 0
10.340000 -0.333636 4
10.345000 -0.278681 0
10.350000 -0.192847 0
10.355000 -0.108861 0
10.360000 -0.043399 0
10.365000 0.002351 0
10.370000 0.035055 0
10.375000 0.061947 0
10.380000 0.087663 0
10.385000 0.114280 0
10.390000 0.142373 0
10.395000 0.171833 0
10.400000 0.202262 0
10.405000 0.233122 0
10.410000 0.263783 0
10.415000 0.293551 0
10.420000 0.321692 0
10.425000 0.347465 0
10.430000 0.370146 0
10.435000 0.389069 0
10.440000 0.403652 0
10.445000 0.413429 0
10.450000 0.418071 5
10.455000 0.417409 0
10.460000 0.411435 0
10.465000 0.400312 0
10.470000 0.384357 0
10.475000 0.364035 0
10.480000 0.339926 0
10.485000 0.312705 0
10.490000 0.283105 0
10.495000 0.251887 0
10.500000 0.219804 0
10.505000 0.187575 0
10.510000 0.155859 0
10.515000 0.125233 0
10.520000 0.096179 0
10.525000 0.069074 0
10.530000 0.044193 0
10.535000 0.021708 0
10.540000 0.001696 0
10.545000 -0.015848 0
10.550000 -0.030995 0
10.555000 -0.043877 0
10.560000 -0.054660 0
10.565000 -0.063540 0
10.570000 -0.070727 0
10.575000 -0.076432 0
10.580000 -0.080864 0
10.585000 -0.084217 0
10.590000 -0.086672 0
10.595000 -0.088390 0
10.600000 -0.089512 0
10.605000 -0.089942 0
10.610000 -0.089095 0
10.615000 -0.088252 0
10.620000 -0.087413 0
10.625000 -0.086578 0
10.630000 -0.085747 0
10.635000 -0.084920 0
10.640000 -0.084096 0
10.645000 -0.083275 0
10.650000 -0.082455 0
10.655000 -0.081633 0
10.660000 -0.080804 0
10.665000 -0.079957 0
10.670000 -0.079076 0
10.675000 -0.078131 0
10.680000 -0.077076 0
10.685000 -0.075839 0
10.690000 -0.074309 0
10.695000 -0.072329 0
10.700000 -0.069678 0
10.705000 -0.066066 0
10.710000 -0.061122 0
10.715000 -0.054407 0
10.720000 -0.045429 0
10.725000 -0.033680 0
10.730000 -0.018701 0
10.735000 -0.000155 0
10.740000 0.022083 0
10.745000 0.047837 0
10.750000 0.076552 0
10.755000 0.107267 0
10.760000 0.138620 0
10.765000 0.168926 0
10.770000 0.196314 0
10.775000 0.218911 0
10.780000 0.235051 0
10.785000 0.243476 0
10.790000 0.243501 1
10.795000 0.235100 0
10.800000 0.218915 0
10.805000 0.196174 0
10.810000 0.168535 0
10.815000 0.137880 0
10.820000 0.106080 0
10.825000 0.074711 0
10.830000 0.044652 0
10.835000 0.015455 0
10.840000 -0.015366 0
10.845000 -0.052326 0
10.850000 -0.099768 0
10.855000 -0.156858 0
10.860000 -0.212109 0
10.865000 -0.242155 2
10.870000 -0.216877 0
10.875000 -0.107734 0
10.880000 0.102973 0
10.885000 0.407888 0
10.890000 0.755901 0
10.895000 1.048848 0
10.900000 1.177565 3
10.905000 1.087589 0
10.910000 0.811673 0
10.915000 0.446407 0
10.920000 0.096330 0
10.925000 -0.169133 0
10.930000 -0.323308 0
10.935000 -0.370886 4
10.940000 -0.337062 0
10.945000 -0.258395 0
10.950000 -0.170473 0
10.955000 -0.096200 0
10.960000 -0.042300 0
10.965000 -0.004565 0
10.970000 0.024411 0
10.975000 0.050422 0
10.980000 0.076564 0
10.985000 0.103994 0
10.990000 0.132875 0
10.995000 0.162941 0
11.000000 0.193738 0
11.005000 0.224703 0
11.010000 0.255199 0
11.015000 0.284536 0
11.020000 0.311998 0
11.025000 0.336872 0
11.030000 0.358473 0
11.035000 0.376181 0
11.040000 0.389465 0
11.045000 0.397914 0
11.050000 0.401252 5
11.055000 0.399355 0
11.060000 0.392258 0
11.065000 0.380154 0
11.070000 0.363383 0
11.075000 0.342418 0
11.080000 0.317839 0
11.085000 0.290311 0
11.090000 0.260548 0
11.095000 0.229287 0
11.100000 0.197256 0
11.105000 0.165144 0
11.110000 0.133582 0
11.115000 0.103123 0
11.120000 0.074228 0
11.125000 0.047260 0
11.130000 0.022481 0
11.135000 0.000058 0
11.140000 -0.019933 0
11.145000 -0.037493 0
11.150000 -0.052690 0
11.155000 -0.065647 0
11.160000 -0.076523 0
11.165000 -0.085505 0
11.170000 -0.092795 0
11.175000 -0.098598 0
11.180000 -0.103116 0
11.185000 -0.106542 0
11.190000 -0.109051 0
11.195000 -0.110804 0
11.200000 -0.111942 0
11.205000 -0.112352 0
11.210000 -0.111393 0
11.215000 -0.110439 0
11.220000 -0.109489 0
11.225000 -0.108544 0
11.230000 -0.107604 0
11.235000 -0.106668 0
11.240000 -0.105737 0
11.245000 -0.104808 0
11.250000 -0.103882 0
11.255000 -0.102957 0
11.260000 -0.102027 0
11.265000 -0.101085 0
11.270000 -0.100120 0
11.275000 -0.099107 0
11.280000 -0.098013 0
11.285000 -0.096780 0
11.290000 -0.095323 0
11.295000 -0.093515 0
11.300000 -0.091179 0
11.305000 -0.088072 0
11.310000 -0.083883 0
11.315000 -0.078226 0
11.320000 -0.070653 0
11.325000 -0.060678 0
11.330000 -0.047819 0
11.335000 -0.031661 0
11.340000 -0.011933 0
11.345000 0.011409 0
11.350000 0.038096 0
11.355000 0.067493 0
11.360000 0.098569 0
11.365000 0.129928 0
11.370000 0.159889 0
11.375000 0.186627 0
11.380000 0.208350 0
11.385000 0.223500 0
11.390000 0.230932 1
11.395000 0.230063 0
11.400000 0.220943 0
11.405000 0.204252 0
11.410000 0.181219 0
11.415000 0.153466 0
11.420000 0.122821 0
11.425000 0.091089 0
11.430000 0.059790 0
11.435000 0.029780 0
11.440000 0.000664 0
11.445000 -0.029878 0
11.450000 -0.066141 0
11.455000 -0.112490 0
11.460000 -0.168816 0
11.465000 -0.225259 0
11.470000 -0.260448 2
11.475000 -0.245673 0
11.480000 -0.152528 0
11.485000 0.038709 0
11.490000 0.326944 0
11.495000 0.672635 0
11.500000 0.989336 0
11.505000 1.168543 3
11.510000 1.139058 0
11.515000 0.909092 0
11.520000 0.559213 0
11.525000 0.194414 0
11.530000 -0.104631 0
11.535000 -0.298958 0
11.540000 -0.383837 4
11.545000 -0.377341 0
11.550000 -0.311900 0
11.555000 -0.224006 0
11.560000 -0.141990 0
11.565000 -0.078923 0
11.570000 -0.034500 0
11.575000 -0.002141 0
11.580000 0.024852 0
11.585000 0.050745 0
11.590000 0.077489 0
11.595000 0.105651 0
11.600000 0.135155 0
11.605000 0.165647 0
11.610000 0.196635 0
11.615000 0.227542 0
11.620000 0.257729 0
11.625000 0.286514 0
11.630000 0.313201 0
11.635000 0.337106 0
11.640000 0.357583 0
11.645000 0.374057 0
11.650000 0.386044 0
11.655000 0.393183 0
11.660000 0.395244 5
11.665000 0.392146 0
11.670000 0.383960 0
11.675000 0.370905 0
11.680000 0.353339 0
11.685000 0.331742 0
11.690000 0.306692 0
11.695000 0.278843 0
11.700000 0.248892 0
11.705000 0.217553 0
11.710000 0.185529 0
11.715000 0.153483 0
11.720000 0.122021 0
11.725000 0.091674 0
11.730000 0.062884 0
11.735000 0.035998 0
11.740000 0.011271 0
11.745000 -0.011137 0
11.750000 -0.031150 0
11.755000 -0.048768 0
11.760000 -0.064055 0
11.765000 -0.077125 0
11.770000 -0.088131 0
11.775000 -0.097253 0
11.780000 -0.104684 0
11.785000 -0.110625 0
11.790000 -0.115271 0
11.795000 -0.118811 0
11.800000 -0.121418 0
11.805000 -0.123252 0
11.810000 -0.124452 0
11.815000 -0.125139 0
11.820000 -0.124364 0
11.825000 -0.123345 0
11.830000 -0.122331 0
11.835000 -0.121322 0
11.840000 -0.120318 0
11.845000 -0.119319 0
11.850000 -0.118324 0
11.855000 -0.117334 0
11.860000 -0.116346 0
11.865000 -0.115361 0
11.870000 -0.114373 0
11.875000 -0.113378 0
11.880000 -0.112366 0
11.885000 -0.111320 0
11.890000 -0.110212 0
11.895000 -0.108998 0
11.900000 -0.107610 0
11.905000 -0.105947 0
11.910000 -0.103865 0
11.915000 -0.101164 0
11.920000 -0.097579 0
11.925000 -0.092779 0
11.930000 -0.086363 0
11.935000 -0.077877 0
11.940000 -0.066848 0
11.945000 -0.052824 0
11.950000 -0.035442 0
11.955000 -0.014506 0
11.960000 0.009940 0
11.965000 0.037533 0
11.970000 0.067547 0
11.975000 0.098882 0
11.980000 0.130105 0
11.985000 0.159541 0
11.990000 0.185411 0
11.995000 0.206012 0
12.000000 0.219896 0
12.005000 0.226045 1
12.010000 0.223987 0
12.015000 0.213864 0
12.020000 0.196409 0
12.025000 0.172866 0
12.030000 0.144836 0
12.035000 0.114096 0
12.040000 0.082386 0
12.045000 0.051160 0
12.050000 0.021216 0
12.055000 -0.007855 0
12.060000 -0.038305 0
12.065000 -0.074281 0
12.070000 -0.120078 0
12.075000 -0.175921 0
12.080000 -0.232942 0
12.085000 -0.271201 2
12.090000 -0.263224 0
12.095000 -0.181066 0
12.100000 -0.004037 0
12.105000 0.270635 0
12.110000 0.611525 0
12.115000 0.942002 0
12.120000 1.157121 0
12.125000 1.173804 3
12.130000 0.980455 0
12.135000 0.646012 0
12.140000 0.276591 0
12.145000 -0.038797 0
12.150000 -0.252929 0
12.155000 -0.355758 0
12.160000 -0.362316 4
12.165000 -0.303723 0
12.170000 -0.217168 0
12.175000 -0.133269 0
12.180000 -0.067554 0
12.185000 -0.021169 0
12.190000 0.012155 0
12.195000 0.039401 0
12.200000 0.065200 0
12.205000 0.091737 0
12.210000 0.119685 0
12.215000 0.149007 0
12.220000 0.179359 0
12.225000 0.210252 0
12.230000 0.241104 0
12.235000 0.271270 0
12.240000 0.300061 0
12.245000 0.326769 0
12.250000 0.350700 0
12.255000 0.371198 0
12.260000 0.387675 0
12.265000 0.399640 0
12.270000 0.406724 0
12.275000 0.408693 5
12.280000 0.405467 0
12.285000 0.397118 0
12.290000 0.383872 0
12.295000 0.366095 0
12.300000 0.344277 0
12.305000 0.319009 0
12.310000 0.290956 0
12.315000 0.260828 0
12.320000 0.229348 0
12.325000 0.197228 0
12.330000 0.165138 0
12.335000 0.133686 0
12.340000 0.103401 0
12.345000 0.074725 0
12.350000 0.047999 0
12.355000 0.023471 0
12.360000 0.001291 0
12.365000 -0.018472 0
12.370000 -0.035828 0
12.375000 -0.050851 0
12.380000 -0.063662 0
12.385000 -0.074422 0
12.390000 -0.083316 0
12.395000 -0.090542 0
12.400000 -0.096303 0
12.405000 -0.100798 0
12.410000 -0.104213 0
12.415000 -0.106723 0
12.420000 -0.108484 0
12.425000 -0.109635 0
12.430000 -0.110062 0
12.435000 -0.109114 0
12.440000 -0.108171 0
12.445000 -0.107233 0
12.450000 -0.106299 0
12.455000 -0.105370 0
12.460000 -0.104445 0
12.465000 -0.103525 0
12.470000 -0.102608 0
12.475000 -0.101693 0
12.480000 -0.100779 0
12.485000 -0.099861 0
12.490000 -0.098933 0
12.495000 -0.097982 0
12.500000 -0.096989 0
12.505000 -0.095921 0
12.510000 -0.094725 0
12.515000 -0.093322 0
12.520000 -0.091596 0
12.525000 -0.089380 0
12.530000 -0.086449 0
12.535000 -0.082509 0
12.540000 -0.077196 0
12.545000 -0.070079 0
12.550000 -0.060687 0
12.555000 -0.048540 0
12.560000 -0.033208 0
12.565000 -0.014385 0
12.570000 0.008034 0
12.575000 0.033872 0
12.580000 0.062603 0
12.585000 0.093318 0
12.590000 0.124739 0
12.595000 0.155284 0
12.600000 0.183185 0
12.605000 0.206648 0
12.610000 0.224051 0
12.615000 0.234118 0
12.620000 0.236081 1
12.625000 0.229773 0
12.630000 0.215654 0
12.635000 0.194751 0
12.640000 0.168540 0
12.645000 0.138764 0
12.650000 0.107235 0
12.655000 0.075594 0
12.660000 0.045001 0
12.665000 0.015656 0
12.670000 -0.013862 0
12.675000 -0.047032 0
12.680000 -0.088522 0
12.685000 -0.140872 0
12.690000 -0.199266 0
12.695000 -0.247762 0
12.700000 -0.260693 2
12.705000 -0.208996 0
12.710000 -0.067981 0
12.715000 0.173381 0
12.720000 0.497518 0
12.725000 0.842603 0
12.730000 1.107684 0
12.735000 1.194456 3
12.740000 1.062387 0
12.745000 0.759058 0
12.750000 0.389001 0
12.755000 0.053121 0
12.760000 -0.188094 0
12.765000 -0.315987 0
12.770000 -0.341023 4
12.775000 -0.292498 0
12.780000 -0.208540 0
12.785000 -0.122840 0
12.790000 -0.054196 0
12.795000 -0.005645 0
12.800000 0.028707 0
12.805000 0.056212 0
12.810000 0.081928 0
12.815000 0.108293 0
12.820000 0.136079 0
12.825000 0.165272 0
12.830000 0.195526 0
12.835000 0.226337 0
12.840000 0.257105 0
12.845000 0.287162 0
12.850000 0.315796 0
12.855000 0.342276 0
12.860000 0.365887 0
12.865000 0.385954 0
12.870000 0.401879 0
12.875000 0.413169 0
12.880000 0.419458 0
12.885000 0.420527 5
12.890000 0.416319 0
12.895000 0.406935 0
12.900000 0.392639 0
12.905000 0.373836 0
12.910000 0.351057 0
12.915000 0.324936 0
12.920000 0.296172 0
12.925000 0.265506 0
12.930000 0.233685 0
12.935000 0.201431 0
12.940000 0.169418 0
12.945000 0.138250 0
12.950000 0.108441 0
12.955000 0.080408 0
12.960000 0.054467 0
12.965000 0.030833 0
12.970000 0.009624 0
12.975000 -0.009126 0
12.980000 -0.025459 0
12.985000 -0.039474 0
12.990000 -0.051320 0
12.995000 -0.061176 0
13.000000 -0.069241 0
13.005000 -0.075724 0
13.010000 -0.080831 0
13.015000 -0.084763 0
13.020000 -0.087705 0
13.025000 -0.089825 0
13.030000 -0.091275 0
13.035000 -0.092184 0
13.040000 -0.091581 0
13.045000 -0.090725 0
13.050000 -0.089874 0
13.055000 -0.089027 0
13.060000 -0.088184 0
13.065000 -0.087345 0
13.070000 -0.086510 0
13.075000 -0.085678 0
13.080000 -0.084848 0
13.085000 -0.084019 0
13.090000 -0.083187 0
13.095000 -0.082344 0
13.100000 -0.081481 0
13.105000 -0.080578 0
13.110000 -0.079602 0
13.115000 -0.078502 0
13.120000 -0.077198 0
13.125000 -0.075575 0
13.130000 -0.073462 0
13.135000 -0.070630 0
13.140000 -0.066777 0
13.145000 -0.061527 0
13.150000 -0.054435 0
13.155000 -0.045013 0
13.160000 -0.032766 0
13.165000 -0.017257 0
13.170000 0.001820 0
13.175000 0.024550 0
13.180000 0.050712 0
13.185000 0.079717 0
13.190000 0.110571 0
13.195000 0.141900 0
13.200000 0.172026 0
13.205000 0.199105 0
13.210000 0.221306 0
13.215000 0.237015 0
13.220000 0.245028 1
13.225000 0.244701 0
13.230000 0.236037 0
13.235000 0.219687 0
13.240000 0.196867 0
13.245000 0.169210 0
13.250000 0.138563 0
13.255000 0.106766 0
13.260000 0.075372 0
13.265000 0.045268 0
13.270000 0.016074 0
13.275000 -0.014555 0
13.280000 -0.050977 0
13.285000 -0.097596 0
13.290000 -0.154165 0
13.295000 -0.210383 0
13.300000 -0.244232 2
13.305000 -0.226437 0
13.310000 -0.128395 0
13.315000 0.069123 0
13.320000 0.363090 0
13.325000 0.710054 0
13.330000 1.019152 0
13.335000 1.180889 3
13.340000 1.126646 0
13.345000 0.874062 0
13.350000 0.514783 0
13.355000 0.157629 0
13.360000 -0.120638 0
13.365000 -0.287863 0
13.370000 -0.345794 4
13.375000 -0.318332 0
13.380000 -0.242117 0
13.385000 -0.154025 0
13.390000 -0.078624 0
13.395000 -0.023757 0
13.400000 0.014447 0
13.405000 0.043519 0
13.410000 0.069460 0
13.415000 0.095493 0
13.420000 0.122820 0
13.425000 0.151613 0
13.430000 0.181602 0
13.435000 0.212320 0
13.440000 0.243192 0
13.445000 0.273566 0
13.450000 0.302736 0
13.455000 0.329971 0
13.460000 0.354544 0
13.465000 0.375763 0
13.470000 0.392999 0
13.475000 0.405723 0
13.480000 0.413527 0
13.485000 0.416148 5
13.490000 0.413477 0
13.495000 0.405574 0
13.500000 0.392655 0
13.505000 0.375091 0
13.510000 0.353381 0
13.515000 0.328137 0
13.520000 0.300044 0
13.525000 0.269841 0
13.530000 0.238278 0
13.535000 0.206091 0
13.540000 0.173972 0
13.545000 0.142548 0
13.550000 0.112361 0
13.555000 0.083855 0
13.560000 0.057375 0
13.565000 0.033161 0
13.570000 0.011357 0
13.575000 -0.007985 0
13.580000 -0.024887 0
13.585000 -0.039437 0
13.590000 -0.051774 0
13.595000 -0.062071 0
13.600000 -0.070524 0
13.605000 -0.077342 0
13.610000 -0.082735 0
13.615000 -0.086904 0
13.620000 -0.090039 0
13.625000 -0.092315 0
13.630000 -0.093887 0
13.635000 -0.094890 0
13.640000 -0.094289 0
13.645000 -0.093420 0
13.650000 -0.092555 0
13.655000 -0.091695 0
13.660000 -0.090839 0
13.665000 -0.089987 0
13.670000 -0.089139 0
13.675000 -0.088294 0
13.680000 -0.087452 0
13.685000 -0.086610 0
13.690000 -0.085767 0
13.695000 -0.084915 0
13.700000 -0.084045 0
13.705000 -0.083139 0
13.710000 -0.082168 0
13.715000 -0.081083 0
13.720000 -0.079812 0
13.725000 -0.078243 0
13.730000 -0.076218 0
13.735000 -0.073518 0
13.740000 -0.069851 0
13.745000 -0.064852 0
13.750000 -0.058084 0
13.755000 -0.049063 0
13.760000 -0.037288 0
13.765000 -0.022305 0
13.770000 -0.003783 0
13.775000 0.018406 0
13.780000 0.044092 0
13.785000 0.072741 0
13.790000 0.103415 0
13.795000 0.134786 0
13.800000 0.165205 0
13.805000 0.192832 0
13.810000 0.215814 0
13.815000 0.232488 0
13.820000 0.241578 0
13.825000 0.242357 1
13.830000 0.234743 0
13.835000 0.219308 0
13.840000 0.197212 0
13.845000 0.170053 0
13.850000 0.139673 0
13.855000 0.107933 0
13.860000 0.076445 0
13.865000 0.046200 0
13.870000 0.016992 0
13.875000 -0.013298 0
13.880000 -0.048880 0
13.885000 -0.094348 0
13.890000 -0.150187 0
13.895000 -0.207212 0
13.900000 -0.244332 2
13.905000 -0.232503 0
13.910000 -0.142584 0
13.915000 0.046002 0
13.920000 0.332839 0
13.925000 0.678301 0
13.930000 0.994515 0
13.935000 1.170988 3
13.940000 1.134870 0
13.945000 0.896816 0
13.950000 0.542792 0
13.955000 0.181120 0
13.960000 -0.108085 0
13.965000 -0.288660 0
13.970000 -0.359134 4
13.975000 -0.340863 0
13.980000 -0.268957 0
13.985000 -0.180587 0
13.990000 -0.102270 0
13.995000 -0.044110 0
14.000000 -0.003575 0
14.005000 0.026637 0
14.010000 0.052888 0
14.015000 0.078823 0
14.020000 0.105919 0
14.025000 0.134483 0
14.030000 0.164310 0
14.035000 0.194969 0
14.040000 0.225913 0
14.045000 0.256514 0
14.050000 0.286088 0
14.055000 0.313916 0
14.060000 0.339278 0
14.065000 0.361481 0
14.070000 0.379885 0
14.075000 0.393940 0
14.080000 0.403208 0
14.085000 0.407389 5
14.090000 0.406331 0
14.095000 0.400043 0
14.100000 0.388693 0
14.105000 0.372600 0
14.110000 0.352219 0
14.115000 0.328120 0
14.120000 0.300958 0
14.125000 0.271447 0
14.130000 0.240325 0
14.135000 0.208327 0
14.140000 0.176154 0
14.145000 0.144450 0
14.150000 0.113781 0
14.155000 0.084624 0
14.160000 0.057356 0
14.165000 0.032256 0
14.170000 0.009502 0
14.175000 -0.010819 0
14.180000 -0.028698 0
14.185000 -0.044198 0
14.190000 -0.057435 0
14.195000 -0.068566 0
14.200000 -0.077777 0
14.205000 -0.085269 0
14.210000 -0.091250 0
14.215000 -0.095922 0
14.220000 -0.099479 0
14.225000 -0.102102 0
14.230000 -0.103952 0
14.235000 -0.105173 0
14.240000 -0.105650 0
14.245000 -0.104724 0
14.250000 -0.103803 0
14.255000 -0.102887 0
14.260000 -0.101975 0
14.265000 -0.101067 0
14.270000 -0.100164 0
14.275000 -0.099265 0
14.280000 -0.098369 0
14.285000 -0.097475 0
14.290000 -0.096582 0
14.295000 -0.095684 0
14.300000 -0.094776 0
14.305000 -0.093843 0
14.310000 -0.092866 0
14.315000 -0.091808 0
14.320000 -0.090614 0
14.325000 -0.089199 0
14.330000 -0.087439 0
14.335000 -0.085156 0
14.340000 -0.082110 0
14.345000 -0.077990 0
14.350000 -0.072411 0
14.355000 -0.064923 0
14.360000 -0.055038 0
14.365000 -0.042271 0
14.370000 -0.026204 0
14.375000 -0.006559 0
14.380000 0.016710 0
14.385000 0.043340 0
14.390000 0.072693 0
14.395000 0.103738 0
14.400000 0.135071 0
14.405000 0.165004 0
14.410000 0.191702 0
14.415000 0.213365 0
14.420000 0.228427 0
14.425000 0.235743 1
14.430000 0.234733 0
14.435000 0.225455 0
14.440000 0.208606 0
14.445000 0.185426 0
14.450000 0.157557 0
14.455000 0.126834 0
14.460000 0.095071 0
14.465000 0.063781 0
14.470000 0.033793 0
14.475000 0.004653 0
14.480000 -0.026054 0
14.485000 -0.062702 0
14.490000 -0.109593 0
14.495000 -0.166272 0
14.500000 -0.222258 0
14.505000 -0.255547 2
14.510000 -0.237089 0
14.515000 -0.138593 0
14.520000 0.058935 0
14.525000 0.352529 0
14.530000 0.699415 0
14.535000 1.009974 0
14.540000 1.175567 3
14.545000 1.127606 0
14.550000 0.881220 0
14.555000 0.524456 0
14.560000 0.164592 0
14.565000 -0.120606 0
14.570000 -0.296876 0
14.575000 -0.363804 4
14.580000 -0.343245 0
14.585000 -0.270359 0
14.590000 -0.181957 0
14.595000 -0.104014 0
14.600000 -0.046222 0
14.605000 -0.005896 0
14.610000 0.024245 0
14.615000 0.050492 0
14.620000 0.076444 0
14.625000 0.103557 0
14.630000 0.132133 0
14.635000 0.161967 0
14.640000 0.192633 0
14.645000 0.223588 0
14.650000 0.254208 0
14.655000 0.283812 0
14.660000 0.311689 0
14.665000 0.337121 0
14.670000 0.359419 0
14.675000 0.377946 0
14.680000 0.392152 0
14.685000 0.401598 0
14.690000 0.405981 5
14.695000 0.405144 0
14.700000 0.399090 0
14.705000 0.387979 0
14.710000 0.372121 0
14.715000 0.351962 0
14.720000 0.328063 0
14.725000 0.301072 0
14.730000 0.271695 0
14.735000 0.240665 0
14.740000 0.208713 0
14.745000 0.176540 0
14.750000 0.144790 0
14.755000 0.114032 0
14.760000 0.084746 0
14.765000 0.057318 0
14.770000 0.032031 0
14.775000 0.009070 0
14.780000 -0.011468 0
14.785000 -0.029571 0
14.790000 -0.045292 0
14.795000 -0.058743 0
14.800000 -0.070078 0
14.805000 -0.079476 0
14.810000 -0.087139 0
14.815000 -0.093271 0
14.820000 -0.098075 0
14.825000 -0.101746 0
14.830000 -0.104463 0
14.835000 -0.106391 0
14.840000 -0.107674 0
14.845000 -0.108190 0
14.850000 -0.107252 0
14.855000 -0.106318 0
14.860000 -0.105389 0
14.865000 -0.104464 0
14.870000 -0.103545 0
14.875000 -0.102629 0
14.880000 -0.101718 0
14.885000 -0.100810 0
14.890000 -0.099904 0
14.895000 -0.099000 0
14.900000 -0.098092 0
14.905000 -0.097175 0
14.910000 -0.096237 0
14.915000 -0.095258 0
14.920000 -0.094207 0
14.925000 -0.093033 0
14.930000 -0.091657 0
14.935000 -0.089964 0
14.940000 -0.087789 0
14.945000 -0.084906 0
14.950000 -0.081019 0
14.955000 -0.075762 0
14.960000 -0.068698 0
14.965000 -0.059348 0
14.970000 -0.047224 0
14.975000 -0.031891 0
14.980000 -0.013035 0
14.985000 0.009447 0
14.990000 0.035368 0
14.995000 0.064183 0
15.000000 0.094955 0
15.005000 0.126372 0
15.010000 0.156809 0
15.015000 0.184464 0
15.020000 0.207521 0
15.025000 0.224349 0
15.030000 0.233692 0
15.035000 0.234821 1
15.040000 0.227632 0
15.045000 0.212658 0
15.050000 0.191004 0
15.055000 0.164215 0
15.060000 0.134083 0
15.065000 0.102441 0
15.070000 0.070906 0
15.075000 0.040540 0
15.080000 0.011319 0
15.085000 -0.018557 0
15.090000 -0.052969 0
15.095000 -0.096589 0
15.100000 -0.150935 0
15.105000 -0.208937 0
15.110000 -0.251928 0
15.115000 -0.252389 2
15.120000 -0.181118 0
15.125000 -0.015358 0
15.130000 0.250509 0
15.135000 0.588172 0
15.140000 0.922293 0
15.145000 1.145447 0
15.150000 1.169607 3
15.155000 0.980850 0
15.160000 0.648022 0
15.165000 0.278513 0
15.170000 -0.037085 0
15.175000 -0.250738 0
15.180000 -0.352368 0
15.185000 -0.357434 4
15.190000 -0.297701 0
15.195000 -0.210851 0
15.200000 -0.127513 0
15.205000 -0.062781 0
15.210000 -0.017300 0
15.215000 0.015464 0
15.220000 0.042491 0
15.225000 0.068291 0
15.230000 0.094928 0
15.235000 0.123004 0
15.240000 0.152441 0
15.245000 0.182872 0
15.250000 0.213789 0
15.255000 0.244595 0
15.260000 0.274629 0
15.265000 0.303186 0
15.270000 0.329552 0
15.275000 0.353024 0
15.280000 0.372944 0
15.285000 0.388732 0
15.290000 0.399906 0
15.295000 0.406113 0
15.300000 0.407145 5
15.305000 0.402946 0
15.310000 0.393620 0
15.315000 0.379424 0
15.320000 0.360757 0
15.325000 0.338139 0
15.330000 0.312189 0
15.335000 0.283594 0
15.340000 0.253079 0
15.345000 0.221378 0
15.350000 0.189204 0
15.355000 0.157223 0
15.360000 0.126032 0
15.365000 0.096146 0
15.370000 0.067983 0
15.375000 0.041865 0
15.380000 0.018013 0
15.385000 -0.003445 0
15.390000 -0.022466 0
15.395000 -0.039080 0
15.400000 -0.053379 0
15.405000 -0.065501 0
15.410000 -0.075618 0
15.415000 -0.083923 0
15.420000 -0.090620 0
15.425000 -0.095914 0
15.430000 -0.100002 0
15.435000 -0.103070 0
15.440000 -0.105288 0
15.445000 -0.106808 0
15.450000 -0.107763 0
15.455000 -0.107100 0
15.460000 -0.106167 0
15.465000 -0.105239 0
15.470000 -0.104315 0
15.475000 -0.103396 0
15.480000 -0.102481 0
15.485000 -0.101571 0
15.490000 -0.100664 0
15.495000 -0.099761 0
15.500000 -0.098859 0
15.505000 -0.097955 0
15.510000 -0.097046 0
15.515000 -0.096120 0
15.520000 -0.095164 0
15.525000 -0.094150 0
15.530000 -0.093036 0
15.535000 -0.091756 0
15.540000 -0.090213 0
15.545000 -0.088262 0
15.550000 -0.085704 0
15.555000 -0.082276 0
15.560000 -0.077638 0
15.565000 -0.071383 0
15.570000 -0.063048 0
15.575000 -0.052143 0
15.580000 -0.038203 0
15.585000 -0.020855 0
15.590000 0.000102 0
15.595000 0.024613 0
15.600000 0.052292 0
15.605000 0.082371 0
15.610000 0.113693 0
15.615000 0.144758 0
15.620000 0.173824 0
15.625000 0.199063 0
15.630000 0.218744 0
15.635000 0.231430 0
15.640000 0.236153 1
15.645000 0.232533 0
15.650000 0.220829 0
15.655000 0.201910 0
15.660000 0.177147 0
15.665000 0.148245 0
15.670000 0.117043 0
15.675000 0.085285 0
15.680000 0.054324 0
15.685000 0.024695 0
15.690000 -0.004533 0
15.695000 -0.036344 0
15.700000 -0.075371 0
15.705000 -0.125177 0
15.710000 -0.183154 0
15.715000 -0.235887 0
15.720000 -0.259163 2
15.725000 -0.223603 0
15.730000 -0.102553 0
15.735000 0.119026 0
15.740000 0.430530 0
15.745000 0.778490 0
15.750000 1.065817 0
15.755000 1.188036 3
15.760000 1.093222 0
15.765000 0.814864 0
15.770000 0.449159 0
15.775000 0.099316 0
15.780000 -0.166241 0
15.785000 -0.321138 0
15.790000 -0.369874 4
15.795000 -0.337178 0
15.800000 -0.259113 0
15.805000 -0.171054 0
15.810000 -0.096117 0
15.815000 -0.041444 0
15.820000 -0.003144 0
15.825000 0.026102 0
15.830000 0.052158 0
15.835000 0.078226 0
15.840000 0.105537 0
15.845000 0.134297 0
15.850000 0.164264 0
15.855000 0.195000 0
15.860000 0.225955 0
15.865000 0.256505 0
15.870000 0.285973 0
15.875000 0.313652 0
15.880000 0.338833 0
15.885000 0.360838 0
15.890000 0.379043 0
15.895000 0.392911 0
15.900000 0.402018 0
15.905000 0.406072 5
15.910000 0.404929 0
15.915000 0.398600 0
15.920000 0.387253 0
15.925000 0.371201 0
15.930000 0.350892 0
15.935000 0.326884 0
15.940000 0.299820 0
15.945000 0.270401 0
15.950000 0.239353 0
15.955000 0.207400 0
15.960000 0.175232 0
15.965000 0.143489 0
15.970000 0.112733 0
15.975000 0.083440 0
15.980000 0.055991 0
15.985000 0.030669 0
15.990000 0.007659 0
15.995000 -0.012942 0
16.000000 -0.031118 0
16.005000 -0.046922 0
16.010000 -0.060462 0
16.015000 -0.071888 0
16.020000 -0.081378 0
16.025000 -0.089128 0
16.030000 -0.095343 0
16.035000 -0.100223 0
16.040000 -0.103961 0
16.045000 -0.106738 0
16.050000 -0.108716 0
16.055000 -0.110040 0
16.060000 -0.110837 0
16.065000 -0.110138 0
16.070000 -0.109190 0
16.075000 -0.108246 0
16.080000 -0.107308 0
16.085000 -0.106374 0
16.090000 -0.105444 0
16.095000 -0.104519 0
16.100000 -0.103597 0
16.105000 -0.102678 0
16.110000 -0.101761 0
16.115000 -0.100841 0
16.120000 -0.099913 0
16.125000 -0.098966 0
16.130000 -0.097984 0
16.135000 -0.096936 0
16.140000 -0.095776 0
16.145000 -0.094432 0
16.150000 -0.092799 0
16.155000 -0.090721 0
16.160000 -0.087990 0
16.165000 -0.084327 0
16.170000 -0.079382 0
16.175000 -0.072737 0
16.180000 -0.063926 0
16.185000 -0.052463 0
16.190000 -0.037899 0
16.195000 -0.019888 0
16.200000 0.001728 0
16.205000 0.026842 0
16.210000 0.055005 0
16.215000 0.085392 0
16.220000 0.116792 0
16.225000 0.147672 0
16.230000 0.176278 0
16.235000 0.200799 0
16.240000 0.219550 0
16.245000 0.231164 0
16.250000 0.234757 1
16.255000 0.230037 0
16.260000 0.217348 0
16.265000 0.197622 0
16.270000 0.172270 0
16.275000 0.143012 0
16.280000 0.111673 0
16.285000 0.079955 0
16.290000 0.049138 0
16.295000 0.019633 0
16.300000 -0.009667 0
16.305000 -0.041924 0
16.310000 -0.081793 0
16.315000 -0.132500 0
16.320000 -0.190701 0
16.325000 -0.242153 0
16.330000 -0.262197 2
16.335000 -0.221616 0
16.340000 -0.094441 0
16.345000 0.133133 0
16.350000 0.448525 0
16.355000 0.796054 0
16.360000 1.077806 0
16.365000 1.191191 3
16.370000 1.087274 0
16.375000 0.802809 0
16.380000 0.435753 0
16.385000 0.088630 0
16.390000 -0.171995 0
16.395000 -0.321446 0
16.400000 -0.365425 4
16.405000 -0.329512 0
16.410000 -0.250138 0
16.415000 -0.162364 0
16.420000 -0.088507 0
16.425000 -0.034937 0
16.430000 0.002628 0
16.435000 0.031532 0
16.440000 0.057505 0
16.445000 0.083610 0
16.450000 0.110993 0
16.455000 0.139821 0
16.460000 0.169834 0
16.465000 0.200584 0
16.470000 0.231515 0
16.475000 0.261996 0
16.480000 0.291345 0
16.485000 0.318854 0
16.490000 0.343813 0
16.495000 0.365544 0
16.500000 0.383428 0
16.505000 0.396934 0
16.510000 0.405646 0
16.515000 0.409282 5
16.520000 0.407711 0
16.525000 0.400955 0
16.530000 0.389195 0
16.535000 0.372757 0
16.540000 0.352098 0
16.545000 0.327788 0
16.550000 0.300476 0
16.555000 0.270870 0
16.560000 0.239697 0
16.565000 0.207680 0
16.570000 0.175510 0
16.575000 0.143820 0
16.580000 0.113166 0
16.585000 0.084017 0
16.590000 0.056746 0
16.595000 0.031626 0
16.600000 0.008834 0
16.605000 -0.011541 0
16.610000 -0.029491 0
16.615000 -0.045074 0
16.620000 -0.058404 0
16.625000 -0.069635 0
16.630000 -0.078947 0
16.635000 -0.086540 0
16.640000 -0.092617 0
16.645000 -0.097379 0
16.650000 -0.101019 0
16.655000 -0.103715 0
16.660000 -0.105628 0
16.665000 -0.106902 0
16.670000 -0.107415 0
16.675000 -0.106481 0
16.680000 -0.105551 0
16.685000 -0.104626 0
16.690000 -0.103705 0
16.695000 -0.102789 0
16.700000 -0.101877 0
16.705000 -0.100970 0
16.710000 -0.100066 0
16.715000 -0.099164 0
16.720000 -0.098263 0
16.725000 -0.097359 0
16.730000 -0.096447 0
16.735000 -0.095513 0
16.740000 -0.094541 0
16.745000 -0.093497 0
16.750000 -0.092334 0
16.755000 -0.090974 0
16.760000 -0.089306 0
16.765000 -0.087168 0
16.770000 -0.084340 0
16.775000 -0.080535 0
16.780000 -0.075390 0
16.785000 -0.068479 0
16.790000 -0.059329 0
16.795000 -0.047454 0
16.800000 -0.032415 0
16.805000 -0.013888 0
16.810000 0.008252 0
16.815000 0.033850 0
16.820000 0.062401 0
16.825000 0.093016 0
16.830000 0.124429 0
16.835000 0.155059 0
16.840000 0.183129 0
16.845000 0.206828 0
16.850000 0.224508 0
16.855000 0.234863 0
16.860000 0.237099 1
16.865000 0.231025 0
16.870000 0.217087 0
16.875000 0.196307 0
16.880000 0.170165 0
16.885000 0.140417 0
16.890000 0.108889 0
16.895000 0.077238 0
16.900000 0.046637 0
16.905000 0.017287 0
16.910000 -0.012255 0
16.915000 -0.045513 0
16.920000 -0.087191 0
16.925000 -0.139764 0
16.930000 -0.198160 0
16.935000 -0.246013 0
16.940000 -0.257238 2
16.945000 -0.202555 0
16.950000 -0.057401 0
16.955000 0.188467 0
16.960000 0.515529 0
16.965000 0.859040 0
16.970000 1.115982 0
16.975000 1.189328 3
16.980000 1.044287 0
16.985000 0.733657 0
16.990000 0.363120 0
16.995000 0.031528 0
17.000000 -0.203455 0
17.005000 -0.325219 0
17.010000 -0.345454 4
17.015000 -0.294119 0
17.020000 -0.209338 0
17.025000 -0.124143 0
17.030000 -0.056449 0
17.035000 -0.008679 0
17.040000 0.025253 0
17.045000 0.052623 0
17.050000 0.078356 0
17.055000 0.104791 0
17.060000 0.132656 0
17.065000 0.161917 0
17.070000 0.192221 0
17.075000 0.223062 0
17.080000 0.253839 0
17.085000 0.283885 0
17.090000 0.312489 0
17.095000 0.338923 0
17.100000 0.362473 0
17.105000 0.382469 0
17.110000 0.398318 0
17.115000 0.409529 0
17.120000 0.415741 0
17.125000 0.416739 5
17.130000 0.412468 0
17.135000 0.403032 0
17.140000 0.388696 0
17.145000 0.369865 0
17.150000 0.347072 0
17.155000 0.320946 0
17.160000 0.292187 0
17.165000 0.261533 0
17.170000 0.229729 0
17.175000 0.197494 0
17.180000 0.165501 0
17.185000 0.134351 0
17.190000 0.104556 0
17.195000 0.076534 0
17.200000 0.050600 0
17.205000 0.026967 0
17.210000 0.005755 0
17.215000 -0.013003 0
17.220000 -0.029345 0
17.225000 -0.043372 0
17.230000 -0.055230 0
17.235000 -0.065098 0
17.240000 -0.073175 0
17.245000 -0.079667 0
17.250000 -0.084783 0
17.255000 -0.088720 0
17.260000 -0.091664 0
17.265000 -0.093784 0
17.270000 -0.095231 0
17.275000 -0.096135 0
17.280000 -0.095514 0
17.285000 -0.094638 0
17.290000 -0.093768 0
17.295000 -0.092901 0
17.300000 -0.092039 0
17.305000 -0.091181 0
17.310000 -0.090327 0
17.315000 -0.089476 0
17.320000 -0.088627 0
17.325000 -0.087779 0
17.330000 -0.086929 0
17.335000 -0.086069 0
17.340000 -0.085189 0
17.345000 -0.084270 0
17.350000 -0.083280 0
17.355000 -0.082171 0
17.360000 -0.080864 0
17.365000 -0.079245 0
17.370000 -0.077149 0
17.375000 -0.074352 0
17.380000 -0.070556 0
17.385000 -0.065391 0
17.390000 -0.058418 0
17.395000 -0.049151 0
17.400000 -0.037097 0
17.405000 -0.021813 0
17.410000 -0.002983 0
17.415000 0.019497 0
17.420000 0.045433 0
17.425000 0.074265 0
17.430000 0.105035 0
17.435000 0.136400 0
17.440000 0.166707 0
17.445000 0.194125 0
17.450000 0.216820 0
17.455000 0.233158 0
17.460000 0.241894 0
17.465000 0.242335 1
17.470000 0.234425 0
17.475000 0.218756 0
17.480000 0.196494 0
17.485000 0.169234 0
17.490000 0.138810 0
17.495000 0.107063 0
17.500000 0.075588 0
17.505000 0.045358 0
17.510000 0.016155 0
17.515000 -0.014131 0
17.520000 -0.049681 0
17.525000 -0.095062 0
17.530000 -0.150811 0
17.535000 -0.207946 0
17.540000 -0.245700 2
17.545000 -0.235333 0
17.550000 -0.147832 0
17.555000 0.037583 0
17.560000 0.321414 0
17.565000 0.665982 0
17.570000 0.985728 0
17.575000 1.170856 3
17.580000 1.144217 0
17.585000 0.912051 0
17.590000 0.559701 0
17.595000 0.197324 0
17.600000 -0.092908 0
17.605000 -0.273786 0
17.610000 -0.343728 4
17.615000 -0.324530 0
17.620000 -0.251970 0
17.625000 -0.163683 0
17.630000 -0.086134 0
17.635000 -0.028983 0
17.640000 0.010730 0
17.645000 0.040475 0
17.650000 0.066558 0
17.655000 0.092495 0
17.660000 0.119661 0
17.665000 0.148304 0
17.670000 0.178185 0
17.675000 0.208852 0
17.680000 0.239739 0
17.685000 0.270198 0
17.690000 0.299528 0
17.695000 0.326998 0
17.700000 0.351877 0
17.705000 0.373467 0
17.710000 0.391130 0
17.715000 0.404326 0
17.720000 0.412631 0
17.725000 0.415767 5
17.730000 0.413611 0
17.735000 0.406204 0
17.740000 0.393751 0
17.745000 0.376606 0
17.750000 0.355261 0
17.755000 0.330316 0
17.760000 0.302456 0
17.765000 0.272415 0
17.770000 0.240944 0
17.775000 0.208785 0
17.780000 0.176635 0
17.785000 0.145128 0
17.790000 0.114815 0
17.795000 0.086152 0
17.800000 0.059490 0
17.805000 0.035080 0
17.810000 0.013073 0
17.815000 -0.006471 0
17.820000 -0.023568 0
17.825000 -0.038302 0
17.830000 -0.050808 0
17.835000 -0.061258 0
17.840000 -0.069848 0
17.845000 -0.076784 0
17.850000 -0.082278 0
17.855000 -0.086532 0
17.860000 -0.089738 0
17.865000 -0.092072 0
17.870000 -0.093690 0
17.875000 -0.094730 0
17.880000 -0.094135 0
17.885000 -0.093267 0
17.890000 -0.092403 0
17.895000 -0.091543 0
17.900000 -0.090688 0
17.905000 -0.089837 0
17.910000 -0.088989 0
17.915000 -0.088145 0
17.920000 -0.087304 0
17.925000 -0.086464 0
17.930000 -0.085621 0
17.935000 -0.084772 0
17.940000 -0.083904 0
17.945000 -0.083002 0
17.950000 -0.082036 0
17.955000 -0.080961 0
17.960000 -0.079703 0
17.965000 -0.078156 0
17.970000 -0.076162 0
17.975000 -0.073505 0
17.980000 -0.069898 0
17.985000 -0.064979 0
17.990000 -0.058314 0
17.995000 -0.049417 0
18.000000 -0.037790 0
18.005000 -0.022972 0
18.010000 -0.004622 0
18.015000 0.017397 0
18.020000 0.042932 0
18.025000 0.071465 0
18.030000 0.102075 0
18.035000 0.133448 0
18.040000 0.163944 0
18.045000 0.191723 0
18.050000 0.214926 0
18.055000 0.231876 0
18.060000 0.241276 0
18.065000 0.242374 1
18.070000 0.235062 0
18.075000 0.219891 0
18.080000 0.198004 0
18.085000 0.170988 0
18.090000 0.140685 0
18.095000 0.108962 0
18.100000 0.077446 0
18.105000 0.047158 0
18.110000 0.017938 0
18.115000 -0.012271 0
18.120000 -0.047638 0
18.125000 -0.092802 0
18.130000 -0.148436 0
18.135000 -0.205644 0
18.140000 -0.243574 2
18.145000 -0.233243 0
18.150000 -0.145364 0
18.155000 0.040978 0
18.160000 0.326004 0
18.165000 0.671004 0
18.170000 0.988811 0
18.175000 1.168687 3
18.180000 1.136778 0
18.185000 0.902140 0
18.190000 0.549443 0
18.195000 0.186881 0
18.200000 -0.104678 0
18.205000 -0.288170 0
18.210000 -0.361408 4
18.215000 -0.345198 0
18.220000 -0.274310 0
18.225000 -0.185955 0
18.230000 -0.107051 0
18.235000 -0.048189 0
18.240000 -0.007140 0
18.245000 0.023333 0
18.250000 0.049662 0
18.255000 0.075582 0
18.260000 0.102630 0
18.265000 0.131145 0
18.270000 0.160935 0
18.275000 0.191578 0
18.280000 0.222532 0
18.285000 0.253175 0
18.290000 0.282824 0
18.295000 0.310766 0
18.300000 0.336282 0
18.305000 0.358677 0
18.310000 0.377310 0
18.315000 0.391628 0
18.320000 0.401187 0
18.325000 0.405679 5
18.330000 0.404943 0
18.335000 0.398979 0
18.340000 0.387945 0
18.345000 0.372150 0
18.350000 0.352041 0
18.355000 0.328177 0
18.360000 0.301209 0
18.365000 0.271845 0
18.370000 0.240822 0
18.375000 0.208872 0
18.380000 0.176698 0
18.385000 0.144947 0
18.390000 0.114191 0
18.395000 0.084911 0
18.400000 0.057493 0
18.405000 0.032221 0
18.410000 0.009281 0
18.415000 -0.011232 0
18.420000 -0.029305 0
18.425000 -0.044994 0
18.430000 -0.058412 0
18.435000 -0.069711 0
18.440000 -0.079076 0
18.445000 -0.086706 0
18.450000 -0.092807 0
18.455000 -0.097583 0
18.460000 -0.101228 0
18.465000 -0.103923 0
18.470000 -0.105832 0
18.475000 -0.107099 0
18.480000 -0.107605 0
18.485000 -0.106670 0
18.490000 -0.105739 0
18.495000 -0.104813 0
18.500000 -0.103891 0
18.505000 -0.102974 0
18.510000 -0.102061 0
18.515000 -0.101153 0
18.520000 -0.100248 0
18.525000 -0.099345 0
18.530000 -0.098443 0
18.535000 -0.097537 0
18.540000 -0.096622 0
18.545000 -0.095685 0
18.550000 -0.094705 0
18.555000 -0.093651 0
18.560000 -0.092469 0
18.565000 -0.091079 0
18.570000 -0.089362 0
18.575000 -0.087149 0
18.580000 -0.084208 0
18.585000 -0.080238 0
18.590000 -0.074865 0
18.595000 -0.067648 0
18.600000 -0.058103 0
18.605000 -0.045743 0
18.610000 -0.030136 0
18.615000 -0.010983 0
18.620000 0.011799 0
18.625000 0.037994 0
18.630000 0.067024 0
18.635000 0.097912 0
18.640000 0.129309 0
18.645000 0.159564 0
18.650000 0.186859 0
18.655000 0.209380 0
18.660000 0.225519 0
18.665000 0.234061 0
18.670000 0.234336 1
18.675000 0.226303 0
18.680000 0.210562 0
18.685000 0.188277 0
18.690000 0.161033 0
18.695000 0.130645 0
18.700000 0.098941 0
18.705000 0.067500 0
18.710000 0.037295 0
18.715000 0.008130 0
18.720000 -0.022050 0
18.725000 -0.057351 0
18.730000 -0.102338 0
18.735000 -0.157760 0
18.740000 -0.215128 0
18.745000 -0.254298 2
18.750000 -0.246993 0
18.755000 -0.164280 0
18.760000 0.015132 0
18.765000 0.293396 0
18.770000 0.636097 0
18.775000 0.961404 0
18.780000 1.160537 3
18.785000 1.154395 0
18.790000 0.941650 0
18.795000 0.598385 0
18.800000 0.231192 0
18.805000 -0.074824 0
18.810000 -0.276935 0
18.815000 -0.368319 4
18.820000 -0.366132 0
18.825000 -0.302711 0
18.830000 -0.215157 0
18.835000 -0.132734 0
18.840000 -0.069220 0
18.845000 -0.024578 0
18.850000 0.007814 0
18.855000 0.034765 0
18.860000 0.060612 0
18.865000 0.087325 0
18.870000 0.115471 0
18.875000 0.144963 0
18.880000 0.175437 0
18.885000 0.206392 0
18.890000 0.237237 0
18.895000 0.267321 0
18.900000 0.295952 0
18.905000 0.322422 0
18.910000 0.346039 0
18.915000 0.366152 0
18.920000 0.382183 0
18.925000 0.393654 0
18.930000 0.400208 0
18.935000 0.401631 5
18.940000 0.397858 0
18.945000 0.388978 0
18.950000 0.375235 0
18.955000 0.357009 0
18.960000 0.334803 0
18.965000 0.309218 0
18.970000 0.280927 0
18.975000 0.250642 0
18.980000 0.219087 0
18.985000 0.186971 0
18.990000 0.154957 0
18.995000 0.123646 0
19.000000 0.093558 0
19.005000 0.065122 0
19.010000 0.038671 0
19.015000 0.014439 0
19.020000 -0.007431 0
19.025000 -0.026883 0
19.030000 -0.043932 0
19.035000 -0.058659 0
19.040000 -0.071192 0
19.045000 -0.081694 0
19.050000 -0.090352 0
19.055000 -0.097366 0
19.060000 -0.102939 0
19.065000 -0.107266 0
19.070000 -0.110537 0
19.075000 -0.112921 0
19.080000 -0.114574 0
19.085000 -0.115631 0
19.090000 -0.115984 0
19.095000 -0.115007 0
19.100000 -0.114035 0
19.105000 -0.113067 0
19.110000 -0.112105 0
19.115000 -0.111147 0
19.120000 -0.110193 0
19.125000 -0.109244 0
19.130000 -0.108298 0
19.135000 -0.107354 0
19.140000 -0.106411 0
19.145000 -0.105464 0
19.150000 -0.104505 0
19.155000 -0.103523 0
19.160000 -0.102495 0
19.165000 -0.101386 0
19.170000 -0.100142 0
19.175000 -0.098679 0
19.180000 -0.096875 0
19.185000 -0.094557 0
19.190000 -0.091493 0
19.195000 -0.087378 0
19.200000 -0.081841 0
19.205000 -0.074443 0
19.210000 -0.064710 0
19.215000 -0.052165 0
19.220000 -0.036389 0
19.225000 -0.017094 0
19.230000 0.005792 0
19.235000 0.032051 0
19.240000 0.061112 0
19.245000 0.092018 0
19.250000 0.123448 0
19.255000 0.153787 0
19.260000 0.181254 0
19.265000 0.204067 0
19.270000 0.220635 0
19.275000 0.229738 0
19.280000 0.230680 1
19.285000 0.223374 0
19.290000 0.208355 0
19.295000 0.186716 0
19.300000 0.159977 0
19.305000 0.129904 0
19.310000 0.098301 0
19.315000 0.066767 0
19.320000 0.036374 0
19.325000 0.007151 0
19.330000 -0.022574 0
19.335000 -0.056526 0
19.340000 -0.099346 0
19.345000 -0.152933 0
19.350000 -0.211168 0
19.355000 -0.256642 0
19.360000 -0.262818 2
19.365000 -0.200747 0
19.370000 -0.046895 0
19.375000 0.207048 0
19.380000 0.538459 0
19.385000 0.879375 0
19.390000 1.126050 0
19.395000 1.184917 3
19.400000 1.027982 0
19.405000 0.711881 0
19.410000 0.341179 0
19.415000 0.011596 0
19.420000 -0.221600 0
19.425000 -0.342719 0
19.430000 -0.363345 4
19.435000 -0.312756 0
19.440000 -0.228278 0
19.445000 -0.142572 0
19.450000 -0.073800 0
19.455000 -0.024919 0
19.460000 0.009784 0
19.465000 0.037520 0
19.470000 0.063334 0
19.475000 0.089708 0
19.480000 0.117465 0
19.485000 0.146628 0
19.490000 0.176876 0
19.495000 0.207730 0
19.500000 0.238613 0
19.505000 0.268880 0
19.510000 0.297839 0
19.515000 0.324780 0
19.520000 0.349000 0
19.525000 0.369831 0
19.530000 0.386674 0
19.535000 0.399026 0
19.540000 0.406502 0
19.545000 0.408857 5
19.550000 0.405997 0
19.555000 0.397984 0
19.560000 0.385036 0
19.565000 0.367512 0
19.570000 0.345900 0
19.575000 0.320790 0
19.580000 0.292851 0
19.585000 0.262794 0
19.590000 0.231351 0
19.595000 0.199238 0
19.600000 0.167132 0
19.605000 0.135650 0
19.610000 0.105326 0
19.615000 0.076608 0
19.620000 0.049842 0
19.625000 0.025278 0
19.630000 0.003072 0
19.635000 -0.016710 0
19.640000 -0.034075 0
19.645000 -0.049098 0
19.650000 -0.061902 0
19.655000 -0.072649 0
19.660000 -0.081525 0
19.665000 -0.088731 0
19.670000 -0.094470 0
19.675000 -0.098943 0
19.680000 -0.102337 0
19.685000 -0.104828 0
19.690000 -0.106573 0
19.695000 -0.107710 0
19.700000 -0.108129 0
19.705000 -0.107191 0
19.710000 -0.106258 0
19.715000 -0.105329 0
19.720000 -0.104405 0
19.725000 -0.103485 0
19.730000 -0.102570 0
19.735000 -0.101659 0
19.740000 -0.100751 0
19.745000 -0.099845 0
19.750000 -0.098940 0
19.755000 -0.098030 0
19.760000 -0.097109 0
19.765000 -0.096164 0
19.770000 -0.095174 0
19.775000 -0.094104 0
19.780000 -0.092898 0
19.785000 -0.091473 0
19.790000 -0.089707 0
19.795000 -0.087426 0
19.800000 -0.084394 0
19.805000 -0.080307 0
19.810000 -0.074788 0
19.815000 -0.067396 0
19.820000 -0.057651 0
19.825000 -0.045075 0
19.830000 -0.029246 0
19.835000 -0.009882 0
19.840000 0.013087 0
19.845000 0.039428 0
19.850000 0.068552 0
19.855000 0.099480 0
19.860000 0.130866 0
19.865000 0.161073 0
19.870000 0.188301 0
19.875000 0.210761 0
19.880000 0.226867 0
19.885000 0.235420 0
19.890000 0.235756 1
19.895000 0.227832 0
19.900000 0.212231 0
19.905000 0.190093 0
19.910000 0.162975 0
19.915000 0.132668 0
19.920000 0.100982 0
19.925000 0.069495 0
19.930000 0.039210 0
19.935000 0.010018 0
19.940000 -0.019979 0
19.945000 -0.054723 0
19.950000 -0.098812 0
19.955000 -0.153502 0
19.960000 -0.211368 0
19.965000 -0.253517 2
19.970000 -0.252496 0
19.975000 -0.179402 0
19.980000 -0.011900 0
19.985000 0.255177 0
19.990000 0.593219 0
19.995000 0.927118 0
20.000000 1.150256 0
20.005000 1.175305 3
20.010000 0.986912 0
20.015000 0.653772 0
20.020000 0.284398 0
20.025000 -0.029990 0
20.030000 -0.241457 0
20.035000 -0.340424 0
20.040000 -0.343032 4
20.045000 -0.281738 0
20.050000 -0.194589 0
20.055000 -0.111992 0
20.060000 -0.048416 0
20.065000 -0.003937 0
20.070000 0.028221 0
20.075000 0.054999 0
20.080000 0.080762 0
20.085000 0.107453 0
20.090000 0.135604 0
20.095000 0.165099 0
20.100000 0.195552 0
20.105000 0.226439 0
20.110000 0.257148 0
20.115000 0.287005 0
20.120000 0.315295 0
20.125000 0.341296 0
20.130000 0.364302 0
20.135000 0.383655 0
20.140000 0.398780 0
20.145000 0.409208 0
20.150000 0.414603 0
20.155000 0.414774 5
20.160000 0.409693 0
20.165000 0.399489 0
20.170000 0.384447 0
20.175000 0.364994 0
20.180000 0.341674 0
20.185000 0.315127 0
20.190000 0.286059 0
20.195000 0.255206 0
20.200000 0.223308 0
20.205000 0.191078 0
20.210000 0.159176 0
20.215000 0.128190 0
20.220000 0.098617 0
20.225000 0.070861 0
20.230000 0.045221 0
20.235000 0.021899 0
20.240000 0.001001 0
20.245000 -0.017448 0
20.250000 -0.033496 0
20.255000 -0.047248 0
20.260000 -0.058856 0
20.265000 -0.068499 0
20.270000 -0.076378 0
20.275000 -0.082698 0
20.280000 -0.087666 0
20.285000 -0.091478 0
20.290000 -0.094318 0
20.295000 -0.096352 0
20.300000 -0.097728 0
20.305000 -0.098573 0
20.310000 -0.097933 0
20.315000 -0.097046 0
20.320000 -0.096163 0
20.325000 -0.095285 0
20.330000 -0.094411 0
20.335000 -0.093541 0
20.340000 -0.092675 0
20.345000 -0.091812 0
20.350000 -0.090952 0
20.355000 -0.090092 0
20.360000 -0.089229 0
20.365000 -0.088356 0
20.370000 -0.087463 0
20.375000 -0.086528 0
20.380000 -0.085521 0
20.385000 -0.084390 0
20.390000 -0.083056 0
20.395000 -0.081403 0
20.400000 -0.079262 0
20.405000 -0.076406 0
20.410000 -0.072536 0
20.415000 -0.067278 0
20.420000 -0.060193 0
20.425000 -0.050795 0
20.430000 -0.038593 0
20.435000 -0.023151 0
20.440000 -0.004161 0
20.445000 0.018470 0
20.450000 0.044535 0
20.455000 0.073463 0
20.460000 0.104285 0
20.465000 0.135652 0
20.470000 0.165911 0
20.475000 0.193234 0
20.480000 0.215799 0
20.485000 0.231983 0
20.490000 0.240561 0
20.495000 0.240853 1
20.500000 0.232816 0
20.505000 0.217049 0
20.510000 0.194721 0
20.515000 0.167427 0
20.520000 0.136991 0
20.525000 0.105250 0
20.530000 0.073787 0
20.535000 0.043569 0
20.540000 0.014375 0
20.545000 -0.015895 0
20.550000 -0.051403 0
20.555000 -0.096705 0
20.560000 -0.152381 0
20.565000 -0.209581 0
20.570000 -0.247732 2
20.575000 -0.238264 0
20.580000 -0.152226 0
20.585000 0.031298 0
20.590000 0.313340 0
20.595000 0.657329 0
20.600000 0.979027 0
20.605000 1.169043 3
20.610000 1.149400 0
20.615000 0.923642 0
20.620000 0.574094 0
20.625000 0.209918 0
20.630000 -0.085605 0
20.635000 -0.273411 0
20.640000 -0.350211 4
20.645000 -0.336315 0
20.650000 -0.266451 0
20.655000 -0.178194 0
20.660000 -0.098999 0
20.665000 -0.039851 0
20.670000 0.001339 0
20.675000 0.031833 0
20.680000 0.058130 0
20.685000 0.084006 0
20.690000 0.111015 0
20.695000 0.139497 0
20.700000 0.169255 0
20.705000 0.199866 0
20.710000 0.230781 0
20.715000 0.261373 0
20.720000 0.290953 0
20.725000 0.318803 0
20.730000 0.344199 0
20.735000 0.366442 0
20.740000 0.384890 0
20.745000 0.398987 0
20.750000 0.408294 0
20.755000 0.412504 5
20.760000 0.411465 0
20.765000 0.405184 0
20.770000 0.393829 0
20.775000 0.377719 0
20.780000 0.357312 0
20.785000 0.333178 0
20.790000 0.305978 0
20.795000 0.276427 0
20.800000 0.245269 0
20.805000 0.213239 0
20.810000 0.181041 0
20.815000 0.149322 0
20.820000 0.118649 0
20.825000 0.089499 0
20.830000 0.062250 0
20.835000 0.037177 0
20.840000 0.014459 0
20.845000 -0.005819 0
20.850000 -0.023651 0
20.855000 -0.039102 0
20.860000 -0.052290 0
20.865000 -0.063374 0
20.870000 -0.072541 0
20.875000 -0.079993 0
20.880000 -0.085940 0
20.885000 -0.090584 0
20.890000 -0.094120 0
20.895000 -0.096727 0
20.900000 -0.098568 0
20.905000 -0.099785 0
20.910000 -0.100268 0
20.915000 -0.099369 0
20.920000 -0.098474 0
20.925000 -0.097584 0
20.930000 -0.096699 0
20.935000 -0.095818 0
20.940000 -0.094941 0
20.945000 -0.094067 0
20.950000 -0.093197 0
20.955000 -0.092329 0
20.960000 -0.091461 0
20.965000 -0.090588 0
20.970000 -0.089703 0
20.975000 -0.088793 0
20.980000 -0.087835 0
20.985000 -0.086792 0
20.990000 -0.085606 0
20.995000 -0.084189 0
21.000000 -0.082411 0
21.005000 -0.080089 0
21.010000 -0.076974 0
21.015000 -0.072746 0
21.020000 -0.067012 0
21.025000 -0.059313 0
21.030000 -0.049159 0
21.035000 -0.036065 0
21.040000 -0.019622 0
21.045000 0.000424 0
21.050000 0.024089 0
21.055000 0.051066 0
21.060000 0.080669 0
21.065000 0.111813 0
21.070000 0.143046 0
21.075000 0.172645 0
21.080000 0.198761 0
21.085000 0.219605 0
21.090000 0.233652 0
21.095000 0.239821 1
21.100000 0.237614 0
21.105000 0.227183 0
21.110000 0.209312 0
21.115000 0.185316 0
21.120000 0.156884 0
21.125000 0.125873 0
21.130000 0.094077 0
21.135000 0.062940 0
21.140000 0.033139 0
21.145000 0.003948 0
21.150000 -0.027410 0
21.155000 -0.065523 0
21.160000 -0.114310 0
21.165000 -0.171954 0
21.170000 -0.225921 0
21.175000 -0.252434 2
21.180000 -0.221869 0
21.185000 -0.106786 0
21.190000 0.109101 0
21.195000 0.416964 0
21.200000 0.765052 0
21.205000 1.056515 0
21.210000 1.184860 3
21.215000 1.095033 0
21.220000 0.818943 0
21.225000 0.453555 0
21.230000 0.103721 0
21.235000 -0.161086 0
21.240000 -0.314343 0
21.245000 -0.360965 4
21.250000 -0.326409 0
21.255000 -0.247434 0
21.260000 -0.159646 0
21.265000 -0.085771 0
21.270000 -0.032301 0
21.275000 0.005122 0
21.280000 0.033928 0
21.285000 0.059870 0
21.290000 0.085996 0
21.295000 0.113426 0
21.300000 0.142306 0
21.305000 0.172362 0
21.310000 0.203133 0
21.315000 0.234051 0
21.320000 0.264474 0
21.325000 0.293709 0
21.330000 0.321036 0
21.335000 0.345740 0
21.340000 0.367135 0
21.345000 0.384603 0
21.350000 0.397617 0
21.355000 0.405769 0
21.360000 0.408789 5
21.365000 0.406563 0
21.370000 0.399135 0
21.375000 0.386706 0
21.380000 0.369626 0
21.385000 0.348378 0
21.390000 0.323549 0
21.395000 0.295812 0
21.400000 0.265885 0
21.405000 0.234509 0
21.410000 0.202411 0
21.415000 0.170282 0
21.420000 0.138748 0
21.425000 0.108359 0
21.430000 0.079568 0
21.435000 0.052732 0
21.440000 0.028108 0
21.445000 0.005853 0
21.450000 -0.013962 0
21.455000 -0.031345 0
21.460000 -0.046370 0
21.465000 -0.059163 0
21.470000 -0.069889 0
21.475000 -0.078736 0
21.480000 -0.085908 0
21.485000 -0.091610 0
21.490000 -0.096045 0
21.495000 -0.099404 0
21.500000 -0.101863 0
21.505000 -0.103580 0
21.510000 -0.104694 0
21.515000 -0.105100 0
21.520000 -0.104177 0
21.525000 -0.103259 0
21.530000 -0.102345 0
21.535000 -0.101436 0
21.540000 -0.100531 0
21.545000 -0.099630 0
21.550000 -0.098733 0
21.555000 -0.097840 0
21.560000 -0.096948 0
21.565000 -0.096056 0
21.570000 -0.095159 0
21.575000 -0.094249 0
21.580000 -0.093312 0
21.585000 -0.092324 0
21.590000 -0.091248 0
21.595000 -0.090022 0
21.600000 -0.088556 0
21.605000 -0.086716 0
21.610000 -0.084315 0
21.615000 -0.081100 0
21.620000 -0.076747 0
21.625000 -0.070858 0
21.630000 -0.062976 0
21.635000 -0.052610 0
21.640000 -0.039283 0
21.645000 -0.022594 0
21.650000 -0.002304 0
21.655000 0.021586 0
21.660000 0.048749 0
21.665000 0.078482 0
21.670000 0.109685 0
21.675000 0.140901 0
21.680000 0.170405 0
21.685000 0.196359 0
21.690000 0.216990 0
21.695000 0.230796 0
21.700000 0.236719 1
21.705000 0.234287 0
21.710000 0.223668 0
21.715000 0.205656 0
21.720000 0.181571 0
21.725000 0.153096 0
21.730000 0.122078 0
21.735000 0.090299 0
21.740000 0.059189 0
21.745000 0.029413 0
21.750000 0.000239 0
21.755000 -0.031095 0
21.760000 -0.069155 0
21.765000 -0.117847 0
21.770000 -0.175429 0
21.775000 -0.229554 0
21.780000 -0.256699 2
21.785000 -0.227438 0
21.790000 -0.114375 0
21.795000 0.099047 0
21.800000 0.404888 0
21.805000 0.753031 0
21.810000 1.048215 0
21.815000 1.183904 3
21.820000 1.102205 0
21.825000 0.831669 0
21.830000 0.467650 0
21.835000 0.115594 0
21.840000 -0.153373 0
21.845000 -0.311225 0
21.850000 -0.361847 4
21.855000 -0.329986 0
21.860000 -0.252112 0
21.865000 -0.164110 0
21.870000 -0.089378 0
21.875000 -0.035040 0
21.880000 0.002948 0
21.885000 0.032005 0
21.890000 0.057997 0
21.895000 0.084081 0
21.900000 0.111444 0
21.905000 0.140261 0
21.910000 0.170272 0
21.915000 0.201023 0
21.920000 0.231952 0
21.925000 0.262419 0
21.930000 0.291735 0
21.935000 0.319182 0
21.940000 0.344044 0
21.945000 0.365634 0
21.950000 0.383331 0
21.955000 0.396602 0
21.960000 0.405033 0
21.965000 0.408347 5
21.970000 0.406420 0
21.975000 0.399287 0
21.980000 0.387141 0
21.985000 0.370323 0
21.990000 0.349308 0
21.995000 0.324677 0
22.000000 0.297097 0
22.005000 0.267286 0
22.010000 0.235980 0
22.015000 0.203909 0
22.020000 0.171765 0
22.025000 0.140179 0
22.030000 0.109704 0
22.035000 0.080800 0
22.040000 0.053831 0
22.045000 0.029057 0
22.050000 0.006644 0
22.055000 -0.013332 0
22.060000 -0.030876 0
22.065000 -0.046056 0
22.070000 -0.058996 0
22.075000 -0.069857 0
22.080000 -0.078827 0
22.085000 -0.086107 0
22.090000 -0.091905 0
22.095000 -0.096422 0
22.100000 -0.099851 0
22.105000 -0.102367 0
22.110000 -0.104131 0
22.115000 -0.105283 0
22.120000 -0.105713 0
22.125000 -0.104787 0
22.130000 -0.103866 0
22.135000 -0.102949 0
22.140000 -0.102037 0
22.145000 -0.101129 0
22.150000 -0.100225 0
22.155000 -0.099325 0
22.160000 -0.098429 0
22.165000 -0.097535 0
22.170000 -0.096641 0
22.175000 -0.095742 0
22.180000 -0.094830 0
22.185000 -0.093894 0
22.190000 -0.092909 0
22.195000 -0.091839 0
22.200000 -0.090627 0
22.205000 -0.089184 0
22.210000 -0.087381 0
22.215000 -0.085036 0
22.220000 -0.081903 0
22.225000 -0.077664 0
22.230000 -0.071928 0
22.235000 -0.064244 0
22.240000 -0.054122 0
22.245000 -0.041082 0
22.250000 -0.024715 0
22.255000 -0.004761 0
22.260000 0.018802 0
22.265000 0.045683 0
22.270000 0.075215 0
22.275000 0.106338 0
22.280000 0.137625 0
22.285000 0.167377 0
22.290000 0.193758 0
22.295000 0.214985 0
22.300000 0.229520 0
22.305000 0.236259 1
22.310000 0.234666 0
22.315000 0.224846 0
22.320000 0.207531 0
22.325000 0.183993 0
22.330000 0.155885 0
22.335000 0.125045 0
22.340000 0.093271 0
22.345000 0.062044 0
22.350000 0.032134 0
22.355000 0.002991 0
22.360000 -0.027916 0
22.365000 -0.065021 0
22.370000 -0.112503 0
22.375000 -0.169501 0
22.380000 -0.224968 0
22.385000 -0.256460 2
22.390000 -0.234858 0
22.395000 -0.132178 0
22.400000 0.069853 0
22.405000 0.366928 0
22.410000 0.714375 0
22.415000 1.021206 0
22.420000 1.179425 3
22.425000 1.123009 0
22.430000 0.870569 0
22.435000 0.511850 0
22.440000 0.153578 0
22.445000 -0.128132 0
22.450000 -0.300486 0
22.455000 -0.364009 4
22.460000 -0.341119 0
22.465000 -0.267189 0
22.470000 -0.178803 0
22.475000 -0.101417 0
22.480000 -0.044232 0
22.485000 -0.004313 0
22.490000 0.025638 0
22.495000 0.051838 0
22.500000 0.077806 0
22.505000 0.104953 0
22.510000 0.133561 0
22.515000 0.163418 0
22.520000 0.194095 0
22.525000 0.225045 0
22.530000 0.255646 0
22.535000 0.285217 0
22.540000 0.313046 0
22.545000 0.338418 0
22.550000 0.360644 0
22.555000 0.379091 0
22.560000 0.393212 0
22.565000 0.402570 0
22.570000 0.406865 5
22.575000 0.405942 0
22.580000 0.399808 0
22.585000 0.388623 0
22.590000 0.372701 0
22.595000 0.352488 0
22.600000 0.328545 0
22.605000 0.301520 0
22.610000 0.272118 0
22.615000 0.241072 0
22.620000 0.209113 0
22.625000 0.176937 0
22.630000 0.145189 0
22.635000 0.114435 0
22.640000 0.085157 0
22.645000 0.057736 0
22.650000 0.032455 0
22.655000 0.009500 0
22.660000 -0.011035 0
22.665000 -0.029135 0
22.670000 -0.044856 0
22.675000 -0.058308 0
22.680000 -0.069645 0
22.685000 -0.079049 0
22.690000 -0.086717 0
22.695000 -0.092854 0
22.700000 -0.097665 0
22.705000 -0.101341 0
22.710000 -0.104065 0
22.715000 -0.105999 0
22.720000 -0.107287 0
22.725000 -0.107808 0
22.730000 -0.106872 0
22.735000 -0.105940 0
22.740000 -0.105013 0
22.745000 -0.104090 0
22.750000 -0.103172 0
22.755000 -0.102259 0
22.760000 -0.101349 0
22.765000 -0.100443 0
22.770000 -0.099540 0
22.775000 -0.098637 0
22.780000 -0.097731 0
22.785000 -0.096816 0
22.790000 -0.095880 0
22.795000 -0.094905 0
22.800000 -0.093857 0
22.805000 -0.092688 0
22.810000 -0.091319 0
22.815000 -0.089636 0
22.820000 -0.087475 0
22.825000 -0.084613 0
22.830000 -0.080755 0
22.835000 -0.075537 0
22.840000 -0.068525 0
22.845000 -0.059241 0
22.850000 -0.047198 0
22.855000 -0.031958 0
22.860000 -0.013204 0
22.865000 0.009173 0
22.870000 0.034998 0
22.875000 0.063735 0
22.880000 0.094463 0
22.885000 0.125880 0
22.890000 0.156374 0
22.895000 0.184148 0
22.900000 0.207386 0
22.905000 0.224450 0
22.910000 0.234070 0
22.915000 0.235498 1
22.920000 0.228606 0
22.925000 0.213905 0
22.930000 0.192478 0
22.935000 0.165853 0
22.940000 0.135817 0
22.945000 0.104200 0
22.950000 0.072632 0
22.955000 0.042205 0
22.960000 0.012955 0
22.965000 -0.016827 0
22.970000 -0.050936 0
22.975000 -0.094065 0
22.980000 -0.147991 0
22.985000 -0.206151 0
22.990000 -0.250431 0
22.995000 -0.253632 2
23.000000 -0.186488 0
23.005000 -0.025757 0
23.010000 0.235375 0
23.015000 0.570788 0
23.020000 0.907630 0
23.025000 1.139276 0
23.030000 1.175237 3
23.035000 0.997022 0
23.040000 0.669801 0
23.045000 0.299508 0
23.050000 -0.021788 0
23.055000 -0.243525 0
23.060000 -0.353438 0
23.065000 -0.365277 4
23.070000 -0.309564 0
23.075000 -0.223670 0
23.080000 -0.139068 0
23.085000 -0.072268 0
23.090000 -0.025036 0
23.095000 0.008740 0
23.100000 0.036147 0
23.105000 0.061960 0
23.110000 0.088461 0
23.115000 0.116369 0
23.120000 0.145662 0
23.125000 0.176002 0
23.130000 0.206900 0
23.135000 0.237773 0
23.140000 0.267974 0
23.145000 0.296811 0
23.150000 0.323573 0
23.155000 0.347561 0
23.160000 0.368113 0
23.165000 0.384639 0
23.170000 0.396644 0
23.175000 0.403756 0
23.180000 0.405739 5
23.185000 0.402512 0
23.190000 0.394150 0
23.195000 0.380878 0
23.200000 0.363067 0
23.205000 0.341211 0
23.210000 0.315904 0
23.215000 0.287817 0
23.220000 0.257663 0
23.225000 0.226172 0
23.230000 0.194055 0
23.235000 0.161987 0
23.240000 0.130576 0
23.245000 0.100353 0
23.250000 0.071755 0
23.255000 0.045126 0
23.260000 0.020707 0
23.265000 -0.001352 0
23.270000 -0.020987 0
23.275000 -0.038211 0
23.280000 -0.053100 0
23.285000 -0.065780 0
23.290000 -0.076415 0
23.295000 -0.085190 0
23.300000 -0.092307 0
23.305000 -0.097968 0
23.310000 -0.102372 0
23.315000 -0.105708 0
23.320000 -0.108148 0
23.325000 -0.109850 0
23.330000 -0.110950 0
23.335000 -0.111339 0
23.340000 -0.110385 0
23.345000 -0.109435 0
23.350000 -0.108491 0
23.355000 -0.107551 0
23.360000 -0.106615 0
23.365000 -0.105684 0
23.370000 -0.104758 0
23.375000 -0.103834 0
23.380000 -0.102913 0
23.385000 -0.101992 0
23.390000 -0.101067 0
23.395000 -0.100130 0
23.400000 -0.099170 0
23.405000 -0.098163 0
23.410000 -0.097075 0
23.415000 -0.095851 0
23.420000 -0.094407 0
23.425000 -0.092618 0
23.430000 -0.090312 0
23.435000 -0.087253 0
23.440000 -0.083134 0
23.445000 -0.077579 0
23.450000 -0.070148 0
23.455000 -0.060362 0
23.460000 -0.047743 0
23.465000 -0.031873 0
23.470000 -0.012469 0
23.475000 0.010534 0
23.480000 0.036904 0
23.485000 0.066049 0
23.490000 0.096993 0
23.495000 0.128391 0
23.500000 0.158610 0
23.505000 0.185855 0
23.510000 0.208340 0
23.515000 0.224482 0
23.520000 0.233084 0
23.525000 0.233479 1
23.530000 0.225622 0
23.535000 0.210091 0
23.540000 0.188018 0
23.545000 0.160954 0
23.550000 0.130686 0
23.555000 0.099018 0
23.560000 0.067532 0
23.565000 0.037238 0
23.570000 0.008050 0
23.575000 -0.021892 0
23.580000 -0.056491 0
23.585000 -0.100351 0
23.590000 -0.154845 0
23.595000 -0.212792 0
23.600000 -0.255585 0
23.605000 -0.255959 2
23.610000 -0.185017 0
23.615000 -0.020197 0
23.620000 0.244307 0
23.625000 0.581139 0
23.630000 0.916679 0
23.635000 1.144892 0
23.640000 1.177097 3
23.645000 0.995982 0
23.650000 0.666977 0
23.655000 0.296902 0
23.660000 -0.022325 0
23.665000 -0.240894 0
23.670000 -0.347366 0
23.675000 -0.356248 4
23.680000 -0.298701 0
23.685000 -0.212355 0
23.690000 -0.128377 0
23.695000 -0.062633 0
23.700000 -0.016328 0
23.705000 0.016887 0
23.710000 0.044062 0
23.715000 0.069842 0
23.720000 0.096395 0
23.725000 0.124376 0
23.730000 0.153730 0
23.735000 0.184102 0
23.740000 0.214992 0
23.745000 0.245808 0
23.750000 0.275891 0
23.755000 0.304543 0
23.760000 0.331049 0
23.765000 0.354705 0
23.770000 0.374853 0
23.775000 0.390905 0
23.780000 0.402376 0
23.785000 0.408904 0
23.790000 0.410270 5
23.795000 0.406409 0
23.800000 0.397413 0
23.805000 0.383530 0
23.810000 0.365148 0
23.815000 0.342779 0
23.820000 0.317033 0
23.825000 0.288593 0
23.830000 0.258181 0
23.835000 0.226531 0
23.840000 0.194355 0
23.845000 0.162323 0
23.850000 0.131038 0
23.855000 0.101019 0
23.860000 0.072694 0
23.865000 0.046389 0
23.870000 0.022333 0
23.875000 0.000663 0
23.880000 -0.018574 0
23.885000 -0.035400 0
23.890000 -0.049903 0
23.895000 -0.062218 0
23.900000 -0.072514 0
23.905000 -0.080982 0
23.910000 -0.087826 0
23.915000 -0.093248 0
23.920000 -0.097449 0
23.925000 -0.100615 0
23.930000 -0.102916 0
23.935000 -0.104506 0
23.940000 -0.105520 0
23.945000 -0.104876 0
23.950000 -0.103954 0
23.955000 -0.103037 0
23.960000 -0.102124 0
23.965000 -0.101216 0
23.970000 -0.100312 0
23.975000 -0.099412 0
23.980000 -0.098517 0
23.985000 -0.097624 0
23.990000 -0.096733 0
23.995000 -0.095841 0
24.000000 -0.094943 0
24.005000 -0.094031 0
24.010000 -0.093090 0
24.015000 -0.092095 0
24.020000 -0.091005 0
24.025000 -0.089759 0
24.030000 -0.088262 0
24.035000 -0.086376 0
24.040000 -0.083910 0
24.045000 -0.080607 0
24.050000 -0.076138 0
24.055000 -0.070104 0
24.060000 -0.062047 0
24.065000 -0.051480 0
24.070000 -0.037932 0
24.075000 -0.021017 0
24.080000 -0.000508 0
24.085000 0.023575 0
24.090000 0.050889 0
24.095000 0.080716 0
24.100000 0.111948 0
24.105000 0.143126 0
24.110000 0.172534 0
24.115000 0.198348 0
24.120000 0.218816 0
24.125000 0.232457 0
24.130000 0.238236 1
24.135000 0.235693 0
24.140000 0.225004 0
24.145000 0.206960 0
24.150000 0.182872 0
24.155000 0.154408 0
24.160000 0.123401 0
24.165000 0.091616 0
24.170000 0.060480 0
24.175000 0.030673 0
24.180000 0.001508 0
24.185000 -0.029694 0
24.190000 -0.067428 0
24.195000 -0.115670 0
24.200000 -0.173031 0
24.205000 -0.227802 0
24.210000 -0.257121 2
24.215000 -0.231929 0
24.220000 -0.124729 0
24.225000 0.081892 0
24.230000 0.382257 0
24.235000 0.730087 0
24.240000 1.033632 0
24.245000 1.186029 3
24.250000 1.122871 0
24.255000 0.864135 0
24.260000 0.503056 0
24.265000 0.147646 0
24.270000 -0.127140 0
24.275000 -0.290629 0
24.280000 -0.345449 4
24.285000 -0.315976 0
24.290000 -0.238954 0
24.295000 -0.150958 0
24.300000 -0.076047 0
24.305000 -0.021656 0
24.310000 0.016257 0
24.315000 0.045206 0
24.320000 0.071121 0
24.325000 0.097164 0
24.330000 0.124510 0
24.335000 0.153317 0
24.340000 0.183312 0
24.345000 0.214029 0
24.350000 0.244892 0
24.355000 0.275251 0
24.360000 0.304402 0
24.365000 0.331617 0
24.370000 0.356170 0
24.375000 0.377369 0
24.380000 0.394592 0
24.385000 0.407308 0
24.390000 0.415112 0
24.395000 0.417740 5
24.400000 0.415086 0
24.405000 0.407205 0
24.410000 0.394316 0
24.415000 0.376783 0
24.420000 0.355106 0
24.425000 0.329892 0
24.430000 0.301827 0
24.435000 0.271643 0
24.440000 0.240089 0
24.445000 0.207901 0
24.450000 0.175769 0
24.455000 0.144319 0
24.460000 0.114093 0
24.465000 0.085538 0
24.470000 0.058998 0
24.475000 0.034716 0
24.480000 0.012838 0
24.485000 -0.006581 0
24.490000 -0.023563 0
24.495000 -0.038192 0
24.500000 -0.050605 0
24.505000 -0.060975 0
24.510000 -0.069498 0
24.515000 -0.076379 0
24.520000 -0.081828 0
24.525000 -0.086047 0
24.530000 -0.089227 0
24.535000 -0.091542 0
24.540000 -0.093147 0
24.545000 -0.094177 0
24.550000 -0.093583 0
24.555000 -0.092718 0
24.560000 -0.091856 0
24.565000 -0.091000 0
24.570000 -0.090147 0
24.575000 -0.089298 0
24.580000 -0.088453 0
24.585000 -0.087612 0
24.590000 -0.086773 0
24.595000 -0.085936 0
24.600000 -0.085096 0
24.605000 -0.084249 0
24.610000 -0.083384 0
24.615000 -0.082485 0
24.620000 -0.081523 0
24.625000 -0.080452 0
24.630000 -0.079201 0
24.635000 -0.077663 0
24.640000 -0.075684 0
24.645000 -0.073048 0
24.650000 -0.069473 0
24.655000 -0.064600 0
24.660000 -0.057998 0
24.665000 -0.049187 0
24.670000 -0.037668 0
24.675000 -0.022981 0
24.680000 -0.004781 0
24.685000 0.017078 0
24.690000 0.042459 0
24.695000 0.070864 0
24.700000 0.101395 0
24.705000 0.132762 0
24.710000 0.163347 0
24.715000 0.191326 0
24.720000 0.214845 0
24.725000 0.232216 0
24.730000 0.242122 0
24.735000 0.243775 1
24.740000 0.237025 0
24.745000 0.222375 0
24.750000 0.200925 0
24.755000 0.174230 0
24.760000 0.144110 0
24.765000 0.112431 0
24.770000 0.080844 0
24.775000 0.050432 0
24.780000 0.021166 0
24.785000 -0.008814 0
24.790000 -0.043495 0
24.795000 -0.087598 0
24.800000 -0.142419 0
24.805000 -0.200221 0
24.810000 -0.241366 2
24.815000 -0.237501 0
24.820000 -0.159113 0
24.825000 0.015976 0
24.830000 0.291059 0
24.835000 0.632788 0
24.840000 0.959443 0
24.845000 1.160872 3
24.850000 1.154569 0
24.855000 0.938516 0
24.860000 0.592544 0
24.865000 0.226962 0
24.870000 -0.072283 0
24.875000 -0.264025 0
24.880000 -0.343909 4
24.885000 -0.331876 0
24.890000 -0.262759 0
24.895000 -0.174571 0
24.900000 -0.095247 0
24.905000 -0.036038 0
24.910000 0.005118 0
24.915000 0.035554 0
24.920000 0.061814 0
24.925000 0.087686 0
24.930000 0.114710 0
24.935000 0.143214 0
24.940000 0.172993 0
24.945000 0.203612 0
24.950000 0.234514 0
24.955000 0.265062 0
24.960000 0.294560 0
24.965000 0.322280 0
24.970000 0.347491 0
24.975000 0.369489 0
24.980000 0.387632 0
24.985000 0.401366 0
24.990000 0.410256 0
24.995000 0.414004 5
25.000000 0.412471 0
25.005000 0.405679 0
25.010000 0.393812 0
25.015000 0.377208 0
25.020000 0.356342 0
25.025000 0.331804 0
25.030000 0.304267 0
25.035000 0.274459 0
25.040000 0.243133 0
25.045000 0.211028 0
25.050000 0.178849 0
25.055000 0.147239 0
25.060000 0.116758 0
25.065000 0.087872 0
25.070000 0.060947 0
25.075000 0.036246 0
25.080000 0.013932 0
25.085000 -0.005924 0
25.090000 -0.023329 0
25.095000 -0.038359 0
25.100000 -0.051143 0
25.105000 -0.061848 0
25.110000 -0.070666 0
25.115000 -0.077805 0
25.120000 -0.083473 0
25.125000 -0.087876 0
25.130000 -0.091207 0
25.135000 -0.093643 0
25.140000 -0.095344 0
25.145000 -0.096448 0
25.150000 -0.096858 0
25.155000 -0.095976 0
25.160000 -0.095099 0
25.165000 -0.094226 0
25.170000 -0.093357 0
25.175000 -0.092493 0
25.180000 -0.091632 0
25.185000 -0.090775 0
25.190000 -0.089921 0
25.195000 -0.089068 0
25.200000 -0.088214 0
25.205000 -0.087353 0
25.210000 -0.086477 0
25.215000 -0.085570 0
25.220000 -0.084604 0
25.225000 -0.083537 0
25.230000 -0.082302 0
25.235000 -0.080797 0
25.240000 -0.078874 0
25.245000 -0.076327 0
25.250000 -0.072881 0
25.255000 -0.068186 0
25.260000 -0.061821 0
25.265000 -0.053306 0
25.270000 -0.042142 0
25.275000 -0.027859 0
25.280000 -0.010091 0
25.285000 0.011337 0
25.290000 0.036328 0
25.295000 0.064426 0
25.300000 0.094782 0
25.305000 0.126144 0
25.310000 0.156923 0
25.315000 0.185305 0
25.320000 0.209424 0
25.325000 0.227558 0
25.330000 0.238336 0
25.335000 0.240905 1
25.340000 0.235042 0
25.345000 0.221185 0
25.350000 0.200380 0
25.355000 0.174148 0
25.360000 0.144298 0
25.365000 0.112707 0
25.370000 0.081066 0
25.375000 0.050535 0
25.380000 0.021220 0
25.385000 -0.008545 0
25.390000 -0.042587 0
25.395000 -0.085703 0
25.400000 -0.139722 0
25.405000 -0.197858 0
25.410000 -0.241399 0
25.415000 -0.242382 2
25.420000 -0.170987 0
25.425000 -0.004025 0
25.430000 0.263892 0
25.435000 0.602822 0
25.440000 0.934337 0
25.445000 1.148469 0
25.450000 1.158375 3
25.455000 0.956254 0
25.460000 0.617268 0
25.465000 0.249028 0
25.470000 -0.060619 0
25.475000 -0.266689 0
25.480000 -0.361205 4
25.485000 -0.360931 0
25.490000 -0.298311 0
25.495000 -0.210886 0
25.500000 -0.128406 0
25.505000 -0.064911 0
25.510000 -0.020377 0
25.515000 0.011902 0
25.520000 0.038789 0
25.525000 0.064624 0
25.530000 0.091360 0
25.535000 0.119541 0
25.540000 0.149067 0
25.545000 0.179561 0
25.550000 0.210513 0
25.555000 0.241320 0
25.560000 0.271322 0
25.565000 0.299814 0
25.570000 0.326083 0
25.575000 0.349429 0
25.580000 0.369199 0
25.585000 0.384816 0
25.590000 0.395807 0
25.595000 0.401825 0
25.600000 0.402666 5
25.605000 0.398284 0
25.610000 0.388787 0
25.615000 0.374438 0
25.620000 0.355640 0
25.625000 0.332916 0
25.630000 0.306886 0
25.635000 0.278237 0
25.640000 0.247695 0
25.645000 0.215991 0
25.650000 0.183835 0
25.655000 0.151890 0
25.660000 0.120752 0
25.665000 0.090928 0
25.670000 0.062837 0
25.675000 0.036795 0
25.680000 0.013020 0
25.685000 -0.008361 0
25.690000 -0.027308 0
25.695000 -0.043852 0
25.700000 -0.058085 0
25.705000 -0.070146 0
25.710000 -0.080208 0
25.715000 -0.088464 0
25.720000 -0.095117 0
25.725000 -0.100370 0
25.730000 -0.104422 0
25.735000 -0.107458 0
25.740000 -0.109646 0
25.745000 -0.111138 0
25.750000 -0.112067 0
25.755000 -0.111382 0
25.760000 -0.110428 0
25.765000 -0.109478 0
25.770000 -0.108533 0
25.775000 -0.107593 0
25.780000 -0.106658 0
25.785000 -0.105726 0
25.790000 -0.104799 0
25.795000 -0.103875 0
25.800000 -0.102952 0
25.805000 -0.102028 0
25.810000 -0.101098 0
25.815000 -0.100153 0
25.820000 -0.099177 0
25.825000 -0.098143 0
25.830000 -0.097010 0
25.835000 -0.095713 0
25.840000 -0.094153 0
25.845000 -0.092189 0
25.850000 -0.089621 0
25.855000 -0.086188 0
25.860000 -0.081551 0
25.865000 -0.075307 0
25.870000 -0.066992 0
25.875000 -0.056119 0
25.880000 -0.042223 0
25.885000 -0.024928 0
25.890000 -0.004030 0
25.895000 0.020423 0
25.900000 0.048053 0
25.905000 0.078103 0
25.910000 0.109428 0
25.915000 0.140539 0
25.920000 0.169702 0
25.925000 0.195093 0
25.930000 0.214979 0
25.935000 0.227915 0
25.940000 0.232917 1
25.945000 0.229587 0
25.950000 0.218164 0
25.955000 0.199494 0
25.960000 0.174929 0
25.965000 0.146165 0
25.970000 0.115034 0
25.975000 0.083284 0
25.980000 0.052290 0
25.985000 0.022628 0
25.990000 -0.006555 0
25.995000 -0.038146 0
26.000000 -0.076734 0
26.005000 -0.126017 0
26.010000 -0.183802 0
26.015000 -0.237252 0
26.020000 -0.262629 2
26.025000 -0.230688 0
26.030000 -0.114501 0
26.035000 0.101811 0
26.040000 0.409457 0
26.045000 0.757644 0
26.050000 1.051274 0
26.055000 1.184964 3
26.060000 1.102576 0
26.065000 0.833287 0
26.070000 0.470002 0
26.075000 0.116141 0
26.080000 -0.157423 0
26.085000 -0.321670 0
26.090000 -0.378982 4
26.095000 -0.352415 0
26.100000 -0.277077 0
26.105000 -0.188651 0
26.110000 -0.111623 0
26.115000 -0.054658 0
26.120000 -0.014749 0
26.125000 0.015284 0
26.130000 0.041554 0
26.135000 0.067552 0
26.140000 0.094696 0
26.145000 0.123288 0
26.150000 0.153132 0
26.155000 0.183814 0
26.160000 0.214806 0
26.165000 0.245499 0
26.170000 0.275230 0
26.175000 0.303304 0
26.180000 0.329016 0
26.185000 0.351688 0
26.190000 0.370689 0
26.195000 0.385471 0
26.200000 0.395590 0
26.205000 0.400728 5
26.210000 0.400714 0
26.215000 0.395524 0
26.220000 0.385293 0
26.225000 0.370298 0
26.230000 0.350956 0
26.235000 0.327795 0
26.240000 0.301434 0
26.245000 0.272557 0
26.250000 0.241879 0
26.255000 0.210119 0
26.260000 0.177971 0
26.265000 0.146085 0
26.270000 0.115037 0
26.275000 0.085326 0
26.280000 0.057353 0
26.285000 0.031425 0
26.290000 0.007755 0
26.295000 -0.013538 0
26.300000 -0.032416 0
26.305000 -0.048911 0
26.310000 -0.063114 0
26.315000 -0.075162 0
26.320000 -0.085225 0
26.325000 -0.093493 0
26.330000 -0.100165 0
26.335000 -0.105442 0
26.340000 -0.109520 0
26.345000 -0.112580 0
26.350000 -0.114790 0
26.355000 -0.116301 0
26.360000 -0.117243 0
26.365000 -0.116539 0
26.370000 -0.115559 0
26.375000 -0.114584 0
26.380000 -0.113614 0
26.385000 -0.112648 0
26.390000 -0.111688 0
26.395000 -0.110731 0
26.400000 -0.109779 0
26.405000 -0.108830 0
26.410000 -0.107884 0
26.415000 -0.106936 0
26.420000 -0.105984 0
26.425000 -0.105019 0
26.430000 -0.104027 0
26.435000 -0.102985 0
26.440000 -0.101855 0
26.445000 -0.100577 0
26.450000 -0.099065 0
26.455000 -0.097188 0
26.460000 -0.094766 0
26.465000 -0.091556 0
26.470000 -0.087246 0
26.475000 -0.081453 0
26.480000 -0.073734 0
26.485000 -0.063614 0
26.490000 -0.050623 0
26.495000 -0.034358 0
26.500000 -0.014557 0
26.505000 0.008815 0
26.510000 0.035497 0
26.515000 0.064867 0
26.520000 0.095925 0
26.525000 0.127311 0
26.530000 0.157390 0
26.535000 0.184377 0
26.540000 0.206514 0
26.545000 0.222250 0
26.550000 0.230429 1
26.555000 0.230424 0
26.560000 0.222220 0
26.565000 0.206416 0
26.570000 0.184153 0
26.575000 0.156981 0
26.580000 0.126670 0
26.585000 0.095008 0
26.590000 0.063552 0
26.595000 0.033291 0
26.600000 0.004126 0
26.605000 -0.025797 0
26.610000 -0.060345 0
26.615000 -0.104085 0
26.620000 -0.158435 0
26.625000 -0.216438 0
26.630000 -0.259871 0
26.635000 -0.261856 2
26.640000 -0.193712 0
26.645000 -0.032738 0
26.650000 0.227739 0
26.655000 0.562432 0
26.660000 0.900626 0
26.665000 1.137981 0
26.670000 1.183949 3
26.675000 1.015717 0
26.680000 0.693381 0
26.685000 0.322769 0
26.690000 -0.002034 0
26.695000 -0.228298 0
26.700000 -0.342368 0
26.705000 -0.357260 4
26.710000 -0.303208 0
26.715000 -0.217748 0
26.720000 -0.132864 0
26.725000 -0.065602 0
26.730000 -0.018035 0
26.735000 0.015889 0
26.740000 0.043316 0
26.745000 0.069094 0
26.750000 0.095545 0
26.755000 0.123404 0
26.760000 0.152654 0
26.765000 0.182957 0
26.770000 0.213820 0
26.775000 0.244658 0
26.780000 0.274820 0
26.785000 0.303610 0
26.790000 0.330313 0
26.795000 0.354227 0
26.800000 0.374687 0
26.805000 0.391101 0
26.810000 0.402974 0
26.815000 0.409933 0
26.820000 0.411746 5
26.825000 0.408336 0
26.830000 0.399780 0
26.835000 0.386313 0
26.840000 0.368310 0
26.845000 0.346272 0
26.850000 0.320801 0
26.855000 0.292573 0
26.860000 0.262307 0
26.865000 0.230736 0
26.870000 0.198574 0
26.875000 0.166496 0
26.880000 0.135109 0
26.885000 0.104943 0
26.890000 0.076431 0
26.895000 0.049911 0
26.900000 0.025621 0
26.905000 0.003705 0
26.910000 -0.015780 0
26.915000 -0.032851 0
26.920000 -0.047590 0
26.925000 -0.060126 0
26.930000 -0.070625 0
26.935000 -0.079278 0
26.940000 -0.086286 0
26.945000 -0.091853 0
26.950000 -0.096179 0
26.955000 -0.099451 0
26.960000 -0.101842 0
26.965000 -0.103506 0
26.970000 -0.104581 0
26.975000 -0.104962 0
26.980000 -0.104040 0
26.985000 -0.103122 0
26.990000 -0.102209 0
26.995000 -0.101300 0
27.000000 -0.100396 0
27.005000 -0.099496 0
27.010000 -0.098600 0
27.015000 -0.097707 0
27.020000 -0.096816 0
27.025000 -0.095925 0
27.030000 -0.095028 0
27.035000 -0.094119 0
27.040000 -0.093182 0
27.045000 -0.092195 0
27.050000 -0.091120 0
27.055000 -0.089897 0
27.060000 -0.088437 0
27.065000 -0.086608 0
27.070000 -0.084226 0
27.075000 -0.081043 0
27.080000 -0.076740 0
27.085000 -0.070927 0
27.090000 -0.063152 0
27.095000 -0.052930 0
27.100000 -0.039787 0
27.105000 -0.023321 0
27.110000 -0.003281 0
27.115000 0.020350 0
27.120000 0.047274 0
27.125000 0.076826 0
27.130000 0.107949 0
27.135000 0.139228 0
27.140000 0.168976 0
27.145000 0.195376 0
27.150000 0.216657 0
27.155000 0.231295 0
27.160000 0.238184 1
27.165000 0.236783 0
27.170000 0.227180 0
27.175000 0.210085 0
27.180000 0.186743 0
27.185000 0.158782 0
27.190000 0.128020 0
27.195000 0.096246 0
27.200000 0.064953 0
27.205000 0.034958 0
27.210000 0.005814 0
27.215000 -0.024848 0
27.220000 -0.061334 0
27.225000 -0.107941 0
27.230000 -0.164415 0
27.235000 -0.220765 0
27.240000 -0.255609 2
27.245000 -0.240378 0
27.250000 -0.146878 0
27.255000 0.044440 0
27.260000 0.332468 0
27.265000 0.678029 0
27.270000 0.995438 0
27.275000 1.176816 3
27.280000 1.147607 0
27.285000 0.914177 0
27.290000 0.561598 0
27.295000 0.199123 0
27.300000 -0.091699 0
27.305000 -0.273748 0
27.310000 -0.345177 4
27.315000 -0.327335 0
27.320000 -0.255544 0
27.325000 -0.167246 0
27.330000 -0.089112 0
27.335000 -0.031222 0
27.340000 0.009056 0
27.345000 0.039091 0
27.350000 0.065248 0
27.355000 0.091144 0
27.360000 0.118224 0
27.365000 0.146778 0
27.370000 0.176587 0
27.375000 0.207214 0
27.380000 0.238102 0
27.385000 0.268617 0
27.390000 0.298065 0
27.395000 0.325723 0
27.400000 0.350866 0
27.405000 0.372796 0
27.410000 0.390875 0
27.415000 0.404556 0
27.420000 0.413406 0
27.425000 0.417132 5
27.430000 0.415595 0
27.435000 0.408817 0
27.440000 0.396980 0
27.445000 0.380418 0
27.450000 0.359602 0
27.455000 0.335115 0
27.460000 0.307625 0
27.465000 0.277855 0
27.470000 0.246550 0
27.475000 0.214448 0
27.480000 0.182249 0
27.485000 0.150594 0
27.490000 0.120042 0
27.495000 0.091063 0
27.500000 0.064022 0
27.505000 0.039187 0
27.510000 0.016724 0
27.515000 -0.003290 0
27.520000 -0.020859 0
27.525000 -0.036055 0
27.530000 -0.049001 0
27.535000 -0.059861 0
27.540000 -0.068826 0
27.545000 -0.076101 0
27.550000 -0.081892 0
27.555000 -0.086406 0
27.560000 -0.089833 0
27.565000 -0.092353 0
27.570000 -0.094126 0
27.575000 -0.095291 0
27.580000 -0.095745 0
27.585000 -0.094869 0
27.590000 -0.093997 0
27.595000 -0.093129 0
27.600000 -0.092266 0
27.605000 -0.091407 0
27.610000 -0.090552 0
27.615000 -0.089700 0
27.620000 -0.088852 0
27.625000 -0.088005 0
27.630000 -0.087157 0
27.635000 -0.086304 0
27.640000 -0.085437 0
27.645000 -0.084541 0
27.650000 -0.083593 0
27.655000 -0.082552 0
27.660000 -0.081356 0
27.665000 -0.079910 0
27.670000 -0.078076 0
27.675000 -0.075659 0
27.680000 -0.072401 0
27.685000 -0.067965 0
27.690000 -0.061945 0
27.695000 -0.053875 0
27.700000 -0.043257 0
27.705000 -0.029616 0
27.710000 -0.012561 0
27.715000 0.008127 0
27.720000 0.032409 0
27.725000 0.059914 0
27.730000 0.089877 0
27.735000 0.121140 0
27.740000 0.152186 0
27.745000 0.181250 0
27.750000 0.206474 0
27.755000 0.226098 0
27.760000 0.238664 0
27.765000 0.243194 1
27.770000 0.239313 0
27.775000 0.227303 0
27.780000 0.208065 0
27.785000 0.183011 0
27.790000 0.153885 0
27.795000 0.122557 0
27.800000 0.090780 0
27.805000 0.059886 0
27.810000 0.030318 0
27.815000 0.000957 0
27.820000 -0.031440 0
27.825000 -0.071642 0
27.830000 -0.122828 0
27.835000 -0.181180 0
27.840000 -0.231486 0
27.845000 -0.247982 2
27.850000 -0.200726 0
27.855000 -0.063822 0
27.860000 0.174889 0
27.865000 0.498251 0
27.870000 0.843103 0
27.875000 1.105475 0
27.880000 1.184941 3
27.885000 1.045018 0
27.890000 0.737359 0
27.895000 0.367010 0
27.900000 0.033518 0
27.905000 -0.204326 0
27.910000 -0.329010 0
27.915000 -0.351614 4
27.920000 -0.301702 0
27.925000 -0.217318 0
27.930000 -0.131783 0
27.935000 -0.063473 0
27.940000 -0.015169 0
27.945000 0.019082 0
27.950000 0.046587 0
27.955000 0.072351 0
27.960000 0.098775 0
27.965000 0.126620 0
27.970000 0.155867 0
27.975000 0.186171 0
27.980000 0.217029 0
27.985000 0.247844 0
27.990000 0.277950 0
27.995000 0.306637 0
28.000000 0.333179 0
28.005000 0.356861 0
28.010000 0.377012 0
28.015000 0.393035 0
28.020000 0.404437 0
28.025000 0.410851 0
28.030000 0.412058 5
28.035000 0.407997 0
28.040000 0.398767 0
28.045000 0.384626 0
28.050000 0.365974 0
28.055000 0.343340 0
28.060000 0.317350 0
28.065000 0.288700 0
28.070000 0.258128 0
28.075000 0.226377 0
28.080000 0.194169 0
28.085000 0.162178 0
28.090000 0.131007 0
28.095000 0.101172 0
28.100000 0.073095 0
28.105000 0.047093 0
28.110000 0.023385 0
28.115000 0.002094 0
28.120000 -0.016743 0
28.125000 -0.033162 0
28.130000 -0.047263 0
28.135000 -0.059188 0
28.140000 -0.069116 0
28.145000 -0.077245 0
28.150000 -0.083781 0
28.155000 -0.088931 0
28.160000 -0.092895 0
28.165000 -0.095858 0
28.170000 -0.097991 0
28.175000 -0.099444 0
28.180000 -0.100349 0
28.185000 -0.099710 0
28.190000 -0.098814 0
28.195000 -0.097923 0
28.200000 -0.097036 0
28.205000 -0.096153 0
28.210000 -0.095274 0
28.215000 -0.094399 0
28.220000 -0.093528 0
28.225000 -0.092660 0
28.230000 -0.091792 0
28.235000 -0.090922 0
28.240000 -0.090043 0
28.245000 -0.089145 0
28.250000 -0.088209 0
28.255000 -0.087205 0
28.260000 -0.086084 0
28.265000 -0.084770 0
28.270000 -0.083152 0
28.275000 -0.081068 0
28.280000 -0.078296 0
28.285000 -0.074543 0
28.290000 -0.069444 0
28.295000 -0.062563 0
28.300000 -0.053417 0
28.305000 -0.041511 0
28.310000 -0.026398 0
28.315000 -0.007753 0
28.320000 0.014542 0
28.325000 0.040311 0
28.330000 0.069018 0
28.335000 0.099727 0
28.340000 0.131118 0
28.345000 0.161553 0
28.350000 0.189208 0
28.355000 0.212247 0
28.360000 0.229016 0
28.365000 0.238248 0
28.370000 0.239211 1
28.375000 0.231810 0
28.380000 0.216600 0
28.385000 0.194714 0
28.390000 0.167726 0
28.395000 0.137459 0
