0.000000 1.151667 3
0.005000 1.051013 0
0.010000 0.796168 0
0.015000 0.462593 0
0.020000 0.132563 0
0.025000 -0.134882 0
0.030000 -0.311959 0
0.035000 -0.395700 0
0.040000 -0.400000 4
0.045000 -0.349884 0
0.050000 -0.274695 0
0.055000 -0.199462 0
0.060000 -0.138543 0
0.065000 -0.095081 0
0.070000 -0.065190 0
0.075000 -0.043004 0
0.080000 -0.023783 0
0.085000 -0.004719 0
0.090000 0.015495 0
0.095000 0.037323 0
0.100000 0.060828 0
0.105000 0.085895 0
0.110000 0.112306 0
0.115000 0.139767 0
0.120000 0.167916 0
0.125000 0.196329 0
0.130000 0.224529 0
0.135000 0.252000 0
0.140000 0.278196 0
0.145000 0.302566 0
0.150000 0.324565 0
0.155000 0.343678 0
0.160000 0.359441 0
0.165000 0.371456 0
0.170000 0.379410 0
0.175000 0.383085 5
0.180000 0.382371 0
0.185000 0.377271 0
0.190000 0.367898 0
0.195000 0.354473 0
0.200000 0.337316 0
0.205000 0.316833 0
0.210000 0.293497 0
0.215000 0.267836 0
0.220000 0.240405 0
0.225000 0.211774 0
0.230000 0.182503 0
0.235000 0.153124 0
0.240000 0.124132 0
0.245000 0.095966 0
0.250000 0.069001 0
0.255000 0.043546 0
0.260000 0.019839 0
0.265000 -0.001953 0
0.270000 -0.021730 0
0.275000 -0.039450 0
0.280000 -0.055129 0
0.285000 -0.068825 0
0.290000 -0.080633 0
0.295000 -0.090678 0
0.300000 -0.099101 0
0.305000 -0.106057 0
0.310000 -0.111704 0
0.315000 -0.116201 0
0.320000 -0.119700 0
0.325000 -0.122344 0
0.330000 -0.124265 0
0.335000 -0.125582 0
0.340000 -0.126400 0
0.345000 -0.126811 0
0.350000 -0.126894 0
0.355000 -0.126717 0
0.360000 -0.125802 0
0.365000 -0.124768 0
0.370000 -0.123739 0
0.375000 -0.122714 0
0.380000 -0.121695 0
0.385000 -0.120681 0
0.390000 -0.119672 0
0.395000 -0.118668 0
0.400000 -0.117669 0
0.405000 -0.116675 0
0.410000 -0.115686 0
0.415000 -0.114701 0
0.420000 -0.113720 0
0.425000 -0.112744 0
0.430000 -0.111769 0
0.435000 -0.110795 0
0.440000 -0.109818 0
0.445000 -0.108831 0
0.450000 -0.107824 0
0.455000 -0.106781 0
0.460000 -0.105675 0
0.465000 -0.104467 0
0.470000 -0.103098 0
0.475000 -0.101482 0
0.480000 -0.099501 0
0.485000 -0.096996 0
0.490000 -0.093760 0
0.495000 -0.089535 0
0.500000 -0.084012 0
0.505000 -0.076840 0
0.510000 -0.067644 0
0.515000 -0.056053 0
0.520000 -0.041739 0
0.525000 -0.024469 0
0.530000 -0.004157 0
0.535000 0.019081 0
0.540000 0.044880 0
0.545000 0.072603 0
0.550000 0.101335 0
0.555000 0.129921 0
0.560000 0.157027 0
0.565000 0.181241 0
0.570000 0.201190 0
0.575000 0.215669 0
0.580000 0.223764 0
0.585000 0.224942 1
0.590000 0.219117 0
0.595000 0.206654 0
0.600000 0.188334 0
0.605000 0.165274 0
0.610000 0.138814 0
0.615000 0.110387 0
0.620000 0.081385 0
0.625000 0.053029 0
0.630000 0.026208 0
0.635000 0.001251 0
0.640000 -0.022437 0
0.645000 -0.046795 0
0.650000 -0.075192 0
0.655000 -0.111452 0
0.660000 -0.157237 0
0.665000 -0.208443 0
0.670000 -0.252740 0
0.675000 -0.270461 2
0.680000 -0.238737 0
0.685000 -0.136694 0
0.690000 0.048906 0
0.695000 0.315048 0
0.700000 0.630631 0
0.705000 0.930718 0
0.710000 1.130993 0
0.715000 1.163779 3
0.720000 1.013261 0
0.725000 0.726236 0
0.730000 0.385635 0
0.735000 0.070207 0
0.740000 -0.170007 0
0.745000 -0.315817 0
0.750000 -0.370597 4
0.755000 -0.352940 0
0.760000 -0.290748 0
0.765000 -0.213301 0
0.770000 -0.142564 0
0.775000 -0.088619 0
0.780000 -0.051296 0
0.785000 -0.025322 0
0.790000 -0.004960 0
0.795000 0.013808 0
0.800000 0.033119 0
0.805000 0.053865 0
0.810000 0.076301 0
0.815000 0.100393 0
0.820000 0.125973 0
0.825000 0.152781 0
0.830000 0.180484 0
0.835000 0.208683 0
0.840000 0.236920 0
0.845000 0.264686 0
0.850000 0.291440 0
0.855000 0.316620 0
0.860000 0.339666 0
0.865000 0.360039 0
0.870000 0.377238 0
0.875000 0.390827 0
0.880000 0.400446 0
0.885000 0.405831 0
0.890000 0.406823 5
0.895000 0.403376 0
0.900000 0.395559 0
0.905000 0.383555 0
0.910000 0.367651 0
0.915000 0.348229 0
0.920000 0.325748 0
0.925000 0.300725 0
0.930000 0.273720 0
0.935000 0.245309 0
0.940000 0.216066 0
0.945000 0.186545 0
0.950000 0.157263 0
0.955000 0.128685 0
0.960000 0.101214 0
0.965000 0.075183 0
0.970000 0.050855 0
0.975000 0.028421 0
0.980000 0.007999 0
0.985000 -0.010354 0
0.990000 -0.026640 0
0.995000 -0.040907 0
1.000000 -0.053246 0
1.005000 -0.063777 0
1.010000 -0.072641 0
1.015000 -0.079993 0
1.020000 -0.085995 0
1.025000 -0.090807 0
1.030000 -0.094585 0
1.035000 -0.097478 0
1.040000 -0.099622 0
1.045000 -0.101139 0
1.050000 -0.102138 0
1.055000 -0.102716 0
1.060000 -0.102953 0
1.065000 -0.102920 0
1.070000 -0.102128 0
1.075000 -0.101211 0
1.080000 -0.100299 0
1.085000 -0.099392 0
1.090000 -0.098489 0
1.095000 -0.097591 0
1.100000 -0.096697 0
1.105000 -0.095807 0
1.110000 -0.094922 0
1.115000 -0.094042 0
1.120000 -0.093165 0
1.125000 -0.092293 0
1.130000 -0.091424 0
1.135000 -0.090558 0
1.140000 -0.089695 0
1.145000 -0.088830 0
1.150000 -0.087962 0
1.155000 -0.087083 0
1.160000 -0.086183 0
1.165000 -0.085244 0
1.170000 -0.084239 0
1.175000 -0.083125 0
1.180000 -0.081842 0
1.185000 -0.080298 0
1.190000 -0.078371 0
1.195000 -0.075891 0
1.200000 -0.072643 0
1.205000 -0.068357 0
1.210000 -0.062710 0
1.215000 -0.055342 0
1.220000 -0.045869 0
1.225000 -0.033917 0
1.230000 -0.019166 0
1.235000 -0.001403 0
1.240000 0.019426 0
1.245000 0.043152 0
1.250000 0.069348 0
1.255000 0.097301 0
1.260000 0.126021 0
1.265000 0.154282 0
1.270000 0.180695 0
1.275000 0.203822 0
1.280000 0.222298 0
1.285000 0.234967 0
1.290000 0.241000 1
1.295000 0.239982 0
1.300000 0.231965 0
1.305000 0.217457 0
1.310000 0.197371 0
1.315000 0.172933 0
1.320000 0.145552 0
1.325000 0.116686 0
1.330000 0.087708 0
1.335000 0.059757 0
1.340000 0.033561 0
1.345000 0.009146 0
1.350000 -0.014580 0
1.355000 -0.040198 0
1.360000 -0.071532 0
1.365000 -0.111967 0
1.370000 -0.161143 0
1.375000 -0.211399 0
1.380000 -0.246550 2
1.385000 -0.244484 0
1.390000 -0.182211 0
1.395000 -0.041318 0
1.400000 0.185142 0
1.405000 0.481664 0
1.410000 0.799308 0
1.415000 1.058662 0
1.420000 1.177354 3
1.425000 1.110414 0
1.430000 0.876295 0
1.435000 0.548526 0
1.440000 0.214300 0
1.445000 -0.060963 0
1.450000 -0.245216 0
1.455000 -0.333725 0
1.460000 -0.340249 4
1.465000 -0.290674 0
1.470000 -0.215627 0
1.475000 -0.141082 0
1.480000 -0.081548 0
1.485000 -0.039716 0
1.490000 -0.011185 0
1.495000 0.010139 0
1.500000 0.028953 0
1.505000 0.047912 0
1.510000 0.068186 0
1.515000 0.090148 0
1.520000 0.113814 0
1.525000 0.139032 0
1.530000 0.165552 0
1.535000 0.193045 0
1.540000 0.221113 0
1.545000 0.249291 0
1.550000 0.277066 0
1.555000 0.303883 0
1.560000 0.329167 0
1.565000 0.352342 0
1.570000 0.372849 0
1.575000 0.390173 0
1.580000 0.403859 0
1.585000 0.413534 0
1.590000 0.418924 0
1.595000 0.419861 5
1.600000 0.416300 0
1.605000 0.408311 0
1.610000 0.396086 0
1.615000 0.379923 0
1.620000 0.360219 0
1.625000 0.337448 0
1.630000 0.312149 0
1.635000 0.284895 0
1.640000 0.256282 0
1.645000 0.226897 0
1.650000 0.197305 0
1.655000 0.168029 0
1.660000 0.139539 0
1.665000 0.112236 0
1.670000 0.086450 0
1.675000 0.062435 0
1.680000 0.040371 0
1.685000 0.020364 0
1.690000 0.002459 0
1.695000 -0.013360 0
1.700000 -0.027156 0
1.705000 -0.039030 0
1.710000 -0.049113 0
1.715000 -0.057556 0
1.720000 -0.064520 0
1.725000 -0.070173 0
1.730000 -0.074677 0
1.735000 -0.078190 0
1.740000 -0.080861 0
1.745000 -0.082822 0
1.750000 -0.084196 0
1.755000 -0.085088 0
1.760000 -0.085590 0
1.765000 -0.085781 0
1.770000 -0.085612 0
1.775000 -0.084778 0
1.780000 -0.083948 0
1.785000 -0.083123 0
1.790000 -0.082301 0
1.795000 -0.081483 0
1.800000 -0.080670 0
1.805000 -0.079860 0
1.810000 -0.079055 0
1.815000 -0.078253 0
1.820000 -0.077456 0
1.825000 -0.076662 0
1.830000 -0.075871 0
1.835000 -0.075084 0
1.840000 -0.074298 0
1.845000 -0.073513 0
1.850000 -0.072724 0
1.855000 -0.071926 0
1.860000 -0.071110 0
1.865000 -0.070260 0
1.870000 -0.069350 0
1.875000 -0.068343 0
1.880000 -0.067179 0
1.885000 -0.065773 0
1.890000 -0.064007 0
1.895000 -0.061716 0
1.900000 -0.058688 0
1.905000 -0.054654 0
1.910000 -0.049292 0
1.915000 -0.042235 0
1.920000 -0.033091 0
1.925000 -0.021472 0
1.930000 -0.007041 0
1.935000 0.010433 0
1.940000 0.031017 0
1.945000 0.054555 0
1.950000 0.080620 0
1.955000 0.108489 0
1.960000 0.137151 0
1.965000 0.165345 0
1.970000 0.191646 0
1.975000 0.214575 0
1.980000 0.232735 0
1.985000 0.244954 0
1.990000 0.250402 1
1.995000 0.248692 0
2.000000 0.239917 0
2.005000 0.224647 0
2.010000 0.203865 0
2.015000 0.178860 0
2.020000 0.151095 0
2.025000 0.122066 0
2.030000 0.093150 0
2.035000 0.065455 0
2.040000 0.039612 0
2.045000 0.015439 0
2.050000 -0.008511 0
2.055000 -0.035265 0
2.060000 -0.068865 0
2.065000 -0.112130 0
2.070000 -0.162874 0
2.075000 -0.210591 0
2.080000 -0.236320 2
2.085000 -0.216452 0
2.090000 -0.128331 0
2.095000 0.043798 0
2.100000 0.300141 0
2.105000 0.612671 0
2.110000 0.917189 0
2.115000 1.126238 0
2.120000 1.166825 3
2.125000 1.020286 0
2.130000 0.733588 0
2.135000 0.392874 0
2.140000 0.079673 0
2.145000 -0.155217 0
2.150000 -0.293426 0
2.155000 -0.339951 4
2.160000 -0.315414 0
2.165000 -0.249519 0
2.170000 -0.172140 0
2.175000 -0.104264 0
2.180000 -0.054136 0
2.185000 -0.020040 0
2.190000 0.003948 0
2.195000 0.023462 0
2.200000 0.042125 0
2.205000 0.061715 0
2.210000 0.082902 0
2.215000 0.105827 0
2.220000 0.130395 0
2.225000 0.156393 0
2.230000 0.183519 0
2.235000 0.211396 0
2.240000 0.239581 0
2.245000 0.267572 0
2.250000 0.294819 0
2.255000 0.320745 0
2.260000 0.344765 0
2.265000 0.366302 0
2.270000 0.384815 0
2.275000 0.399818 0
2.280000 0.410902 0
2.285000 0.417752 0
2.290000 0.420163 5
2.295000 0.418044 0
2.300000 0.411432 0
2.305000 0.400480 0
2.310000 0.385461 0
2.315000 0.366746 0
2.320000 0.344798 0
2.325000 0.320144 0
2.330000 0.293360 0
2.335000 0.265043 0
2.340000 0.235796 0
2.345000 0.206197 0
2.350000 0.176791 0
2.355000 0.148067 0
2.360000 0.120450 0
2.365000 0.094290 0
2.370000 0.069864 0
2.375000 0.047369 0
2.380000 0.026930 0
2.385000 0.008602 0
2.390000 -0.007619 0
2.395000 -0.021788 0
2.400000 -0.034001 0
2.405000 -0.044388 0
2.410000 -0.053097 0
2.415000 -0.060292 0
2.420000 -0.066140 0
2.425000 -0.070810 0
2.430000 -0.074461 0
2.435000 -0.077244 0
2.440000 -0.079299 0
2.445000 -0.080748 0
2.450000 -0.081702 0
2.455000 -0.082254 0
2.460000 -0.082486 0
2.465000 -0.082465 0
2.470000 -0.081761 0
2.475000 -0.080946 0
2.480000 -0.080135 0
2.485000 -0.079329 0
2.490000 -0.078526 0
2.495000 -0.077727 0
2.500000 -0.076932 0
2.505000 -0.076141 0
2.510000 -0.075355 0
2.515000 -0.074571 0
2.520000 -0.073792 0
2.525000 -0.073016 0
2.530000 -0.072242 0
2.535000 -0.071471 0
2.540000 -0.070699 0
2.545000 -0.069924 0
2.550000 -0.069139 0
2.555000 -0.068336 0
2.560000 -0.067497 0
2.565000 -0.066596 0
2.570000 -0.065594 0
2.575000 -0.064429 0
2.580000 -0.063012 0
2.585000 -0.061219 0
2.590000 -0.058881 0
2.595000 -0.055775 0
2.600000 -0.051625 0
2.605000 -0.046097 0
2.610000 -0.038816 0
2.615000 -0.029381 0
2.620000 -0.017404 0
2.625000 -0.002554 0
2.630000 0.015383 0
2.635000 0.036444 0
2.640000 0.060430 0
2.645000 0.086859 0
2.650000 0.114947 0
2.655000 0.143617 0
2.660000 0.171553 0
2.665000 0.197288 0
2.670000 0.219330 0
2.675000 0.236296 0
2.680000 0.247063 0
2.685000 0.250884 1
2.690000 0.247474 0
2.695000 0.237045 0
2.700000 0.220285 0
2.705000 0.198279 0
2.710000 0.172394 0
2.715000 0.144136 0
2.720000 0.115004 0
2.725000 0.086335 0
2.730000 0.059139 0
2.735000 0.033856 0
2.740000 0.009967 0
2.745000 -0.014478 0
2.750000 -0.043001 0
2.755000 -0.079638 0
2.760000 -0.126031 0
2.765000 -0.177394 0
2.770000 -0.219930 0
2.775000 -0.232176 2
2.780000 -0.189876 0
2.785000 -0.071850 0
2.790000 0.133298 0
2.795000 0.416518 0
2.800000 0.735398 0
2.805000 1.012487 0
2.810000 1.159525 3
2.815000 1.121808 0
2.820000 0.909927 0
2.825000 0.591044 0
2.830000 0.252658 0
2.835000 -0.035180 0
2.840000 -0.235312 0
2.845000 -0.339211 0
2.850000 -0.357985 4
2.855000 -0.315803 0
2.860000 -0.242998 0
2.865000 -0.166871 0
2.870000 -0.104098 0
2.875000 -0.059202 0
2.880000 -0.028639 0
2.885000 -0.006334 0
2.890000 0.012754 0
2.895000 0.031625 0
2.900000 0.051663 0
2.905000 0.073352 0
2.910000 0.096753 0
2.915000 0.121741 0
2.920000 0.148084 0
2.925000 0.175469 0
2.930000 0.203514 0
2.935000 0.231769 0
2.940000 0.259731 0
2.945000 0.286856 0
2.950000 0.312574 0
2.955000 0.336311 0
2.960000 0.357503 0
2.965000 0.375628 0
2.970000 0.390216 0
2.975000 0.400878 0
2.980000 0.407316 0
2.985000 0.409340 5
2.990000 0.406874 0
2.995000 0.399964 0
3.000000 0.388772 0
3.005000 0.373570 0
3.010000 0.354732 0
3.015000 0.332713 0
3.020000 0.308035 0
3.025000 0.281264 0
3.030000 0.252988 0
3.035000 0.223795 0
3.040000 0.194257 0
3.045000 0.164907 0
3.050000 0.136225 0
3.055000 0.108630 0
3.060000 0.082469 0
3.065000 0.058016 0
3.070000 0.035468 0
3.075000 0.014952 0
3.080000 -0.003474 0
3.085000 -0.019809 0
3.090000 -0.034103 0
3.095000 -0.046449 0
3.100000 -0.056969 0
3.105000 -0.065809 0
3.110000 -0.073127 0
3.115000 -0.079088 0
3.120000 -0.083857 0
3.125000 -0.087593 0
3.130000 -0.090446 0
3.135000 -0.092554 0
3.140000 -0.094041 0
3.145000 -0.095017 0
3.150000 -0.095578 0
3.155000 -0.095806 0
3.160000 -0.095770 0
3.165000 -0.095008 0
3.170000 -0.094127 0
3.175000 -0.093250 0
3.180000 -0.092378 0
3.185000 -0.091510 0
3.190000 -0.090647 0
3.195000 -0.089788 0
3.200000 -0.088933 0
3.205000 -0.088082 0
3.210000 -0.087235 0
3.215000 -0.086393 0
3.220000 -0.085554 0
3.225000 -0.084719 0
3.230000 -0.083886 0
3.235000 -0.083054 0
3.240000 -0.082220 0
3.245000 -0.081380 0
3.250000 -0.080526 0
3.255000 -0.079645 0
3.260000 -0.078715 0
3.265000 -0.077703 0
3.270000 -0.076558 0
3.275000 -0.075207 0
3.280000 -0.073543 0
3.285000 -0.071421 0
3.290000 -0.068648 0
3.295000 -0.064976 0
3.300000 -0.060105 0
3.305000 -0.053684 0
3.310000 -0.045327 0
3.315000 -0.034645 0
3.320000 -0.021275 0
3.325000 -0.004942 0
3.330000 0.014492 0
3.335000 0.036962 0
3.340000 0.062154 0
3.345000 0.089462 0
3.350000 0.117990 0
3.355000 0.146571 0
3.360000 0.173842 0
3.365000 0.198334 0
3.370000 0.218609 0
3.375000 0.233393 0
3.380000 0.241708 0
3.385000 0.242981 1
3.390000 0.237108 0
3.395000 0.224465 0
3.400000 0.205871 0
3.405000 0.182497 0
3.410000 0.155746 0
3.415000 0.127110 0
3.420000 0.098027 0
3.425000 0.069736 0
3.430000 0.043100 0
3.435000 0.018335 0
3.440000 -0.005396 0
3.445000 -0.030422 0
3.450000 -0.060488 0
3.455000 -0.099332 0
3.460000 -0.147478 0
3.465000 -0.198394 0
3.470000 -0.236694 0
3.475000 -0.240293 2
3.480000 -0.185504 0
3.485000 -0.052720 0
3.490000 0.166680 0
3.495000 0.459249 0
3.500000 0.777600 0
3.505000 1.041942 0
3.510000 1.167294 3
3.515000 1.107444 0
3.520000 0.881238 0
3.525000 0.557457 0
3.530000 0.220469 0
3.535000 -0.063915 0
3.540000 -0.261307 0
3.545000 -0.364162 0
3.550000 -0.383379 4
3.555000 -0.342230 0
3.560000 -0.269976 0
3.565000 -0.193306 0
3.570000 -0.129055 0
3.575000 -0.082401 0
3.580000 -0.050412 0
3.585000 -0.027260 0
3.590000 -0.007844 0
3.595000 0.011017 0
3.600000 0.030867 0
3.605000 0.052288 0
3.610000 0.075396 0
3.615000 0.100100 0
3.620000 0.126197 0
3.625000 0.153404 0
3.630000 0.181370 0
3.635000 0.209678 0
3.640000 0.237860 0
3.645000 0.265400 0
3.650000 0.291757 0
3.655000 0.316373 0
3.660000 0.338702 0
3.665000 0.358219 0
3.670000 0.374449 0
3.675000 0.386981 0
3.680000 0.395484 0
3.685000 0.399727 5
3.690000 0.399581 0
3.695000 0.395033 0
3.700000 0.386179 0
3.705000 0.373227 0
3.710000 0.356485 0
3.715000 0.336348 0
3.720000 0.313285 0
3.725000 0.287819 0
3.730000 0.260505 0
3.735000 0.231915 0
3.740000 0.202612 0
3.745000 0.173137 0
3.750000 0.143991 0
3.755000 0.115623 0
3.760000 0.088417 0
3.765000 0.062693 0
3.770000 0.038697 0
3.775000 0.016604 0
3.780000 -0.003476 0
3.785000 -0.021498 0
3.790000 -0.037469 0
3.795000 -0.051445 0
3.800000 -0.063517 0
3.805000 -0.073809 0
3.810000 -0.082461 0
3.815000 -0.089627 0
3.820000 -0.095467 0
3.825000 -0.100140 0
3.830000 -0.103798 0
3.835000 -0.106588 0
3.840000 -0.108641 0
3.845000 -0.110080 0
3.850000 -0.111011 0
3.855000 -0.111527 0
3.860000 -0.111708 0
3.865000 -0.111623 0
3.870000 -0.110787 0
3.875000 -0.109827 0
3.880000 -0.108872 0
3.885000 -0.107922 0
3.890000 -0.106977 0
3.895000 -0.106036 0
3.900000 -0.105100 0
3.905000 -0.104169 0
3.910000 -0.103242 0
3.915000 -0.102320 0
3.920000 -0.101402 0
3.925000 -0.100489 0
3.930000 -0.099579 0
3.935000 -0.098673 0
3.940000 -0.097769 0
3.945000 -0.096865 0
3.950000 -0.095957 0
3.955000 -0.095040 0
3.960000 -0.094103 0
3.965000 -0.093130 0
3.970000 -0.092095 0
3.975000 -0.090958 0
3.980000 -0.089660 0
3.985000 -0.088117 0
3.990000 -0.086211 0
3.995000 -0.083782 0
4.000000 -0.080624 0
4.005000 -0.076477 0
4.010000 -0.071033 0
4.015000 -0.063939 0
4.020000 -0.054818 0
4.025000 -0.043298 0
4.030000 -0.029050 0
4.035000 -0.011838 0
4.040000 0.008423 0
4.045000 0.031615 0
4.050000 0.057371 0
4.055000 0.085048 0
4.060000 0.113726 0
4.065000 0.142240 0
4.070000 0.169250 0
4.075000 0.193337 0
4.080000 0.213123 0
4.085000 0.227406 0
4.090000 0.235272 0
4.095000 0.236199 1
4.100000 0.230112 0
4.105000 0.217391 0
4.110000 0.198834 0
4.115000 0.175570 0
4.120000 0.148952 0
4.125000 0.120419 0
4.130000 0.091365 0
4.135000 0.063006 0
4.140000 0.036215 0
4.145000 0.011288 0
4.150000 -0.012431 0
4.155000 -0.036966 0
4.160000 -0.065764 0
4.165000 -0.102625 0
4.170000 -0.148984 0
4.175000 -0.200262 0
4.180000 -0.243552 0
4.185000 -0.258747 2
4.190000 -0.222850 0
4.195000 -0.115233 0
4.200000 0.076579 0
4.205000 0.347894 0
4.210000 0.664942 0
4.215000 0.960156 0
4.220000 1.148687 0
4.225000 1.165782 3
4.230000 1.002321 0
4.235000 0.709346 0
4.240000 0.368248 0
4.245000 0.054532 0
4.250000 -0.184265 0
4.255000 -0.329984 0
4.260000 -0.385935 4
4.265000 -0.369987 0
4.270000 -0.309058 0
4.275000 -0.231705 0
4.280000 -0.159869 0
4.285000 -0.104212 0
4.290000 -0.065272 0
4.295000 -0.038196 0
4.300000 -0.017304 0
4.305000 0.001572 0
4.310000 0.020749 0
4.315000 0.041243 0
4.320000 0.063381 0
4.325000 0.087170 0
4.330000 0.112466 0
4.335000 0.139037 0
4.340000 0.166577 0
4.345000 0.194715 0
4.350000 0.223020 0
4.355000 0.251014 0
4.360000 0.278178 0
4.365000 0.303974 0
4.370000 0.327855 0
4.375000 0.349288 0
4.380000 0.367774 0
4.385000 0.382863 0
4.390000 0.394174 0
4.395000 0.401413 0
4.400000 0.404380 5
4.405000 0.402981 0
4.410000 0.397234 0
4.415000 0.387264 0
4.420000 0.373301 0
4.425000 0.355672 0
4.430000 0.334784 0
4.435000 0.311112 0
4.440000 0.285180 0
4.445000 0.257537 0
4.450000 0.228745 0
4.455000 0.199356 0
4.460000 0.169895 0
4.465000 0.140844 0
4.470000 0.112634 0
4.475000 0.085634 0
4.480000 0.060145 0
4.485000 0.036399 0
4.490000 0.014560 0
4.495000 -0.005275 0
4.500000 -0.023066 0
4.505000 -0.038828 0
4.510000 -0.052619 0
4.515000 -0.064533 0
4.520000 -0.074692 0
4.525000 -0.083236 0
4.530000 -0.090317 0
4.535000 -0.096091 0
4.540000 -0.100716 0
4.545000 -0.104341 0
4.550000 -0.107108 0
4.555000 -0.109149 0
4.560000 -0.110581 0
4.565000 -0.111510 0
4.570000 -0.112027 0
4.575000 -0.112212 0
4.580000 -0.112131 0
4.585000 -0.111293 0
4.590000 -0.110331 0
4.595000 -0.109373 0
4.600000 -0.108421 0
4.605000 -0.107473 0
4.610000 -0.106530 0
4.615000 -0.105591 0
4.620000 -0.104658 0
4.625000 -0.103728 0
4.630000 -0.102804 0
4.635000 -0.101884 0
4.640000 -0.100968 0
4.645000 -0.100056 0
4.650000 -0.099148 0
4.655000 -0.098242 0
4.660000 -0.097336 0
4.665000 -0.096428 0
4.670000 -0.095512 0
4.675000 -0.094578 0
4.680000 -0.093613 0
4.685000 -0.092592 0
4.690000 -0.091481 0
4.695000 -0.090225 0
4.700000 -0.088749 0
4.705000 -0.086945 0
4.710000 -0.084667 0
4.715000 -0.081724 0
4.720000 -0.077876 0
4.725000 -0.072832 0
4.730000 -0.066256 0
4.735000 -0.057784 0
4.740000 -0.047043 0
4.745000 -0.033692 0
4.750000 -0.017467 0
4.755000 0.001772 0
4.760000 0.023982 0
4.765000 0.048889 0
4.770000 0.075959 0
4.775000 0.104384 0
4.780000 0.133104 0
4.785000 0.160856 0
4.790000 0.186262 0
4.795000 0.207938 0
4.800000 0.224617 0
4.805000 0.235271 0
4.810000 0.239216 1
4.815000 0.236184 0
4.820000 0.226354 0
4.825000 0.210333 0
4.830000 0.189095 0
4.835000 0.163884 0
4.840000 0.136088 0
4.845000 0.107116 0
4.850000 0.078267 0
4.855000 0.050591 0
4.860000 0.024704 0
4.865000 0.000502 0
4.870000 -0.023249 0
4.875000 -0.049227 0
4.880000 -0.081206 0
4.885000 -0.122311 0
4.890000 -0.171802 0
4.895000 -0.221791 0
4.900000 -0.256267 2
4.905000 -0.253683 0
4.910000 -0.191753 0
4.915000 -0.052565 0
4.920000 0.170970 0
4.925000 0.464853 0
4.930000 0.783392 0
4.935000 1.050887 0
4.940000 1.186064 3
4.945000 1.140525 0
4.950000 0.925536 0
4.955000 0.606498 0
4.960000 0.267513 0
4.965000 -0.023558 0
4.970000 -0.229771 0
4.975000 -0.341535 0
4.980000 -0.368223 4
4.985000 -0.332001 0
4.990000 -0.261718 0
4.995000 -0.184578 0
5.000000 -0.118576 0
5.005000 -0.070041 0
5.010000 -0.036705 0
5.015000 -0.012880 0
5.020000 0.006701 0
5.025000 0.025434 0
5.030000 0.045024 0
5.035000 0.066139 0
5.040000 0.088936 0
5.045000 0.113345 0
5.050000 0.139176 0
5.055000 0.166159 0
5.060000 0.193953 0
5.065000 0.222155 0
5.070000 0.250304 0
5.075000 0.277897 0
5.080000 0.304397 0
5.085000 0.329252 0
5.090000 0.351914 0
5.095000 0.371859 0
5.100000 0.388604 0
5.105000 0.401728 0
5.110000 0.410888 0
5.115000 0.415835 0
5.120000 0.416422 5
5.125000 0.412615 0
5.130000 0.404489 0
5.135000 0.392230 0
5.140000 0.376125 0
5.145000 0.356553 0
5.150000 0.333965 0
5.155000 0.308871 0
5.160000 0.281819 0
5.165000 0.253376 0
5.170000 0.224103 0
5.175000 0.194547 0
5.180000 0.165213 0
5.185000 0.136560 0
5.190000 0.108987 0
5.195000 0.082824 0
5.200000 0.058334 0
5.205000 0.035707 0
5.210000 0.015068 0
5.215000 -0.003525 0
5.220000 -0.020066 0
5.225000 -0.034599 0
5.230000 -0.047209 0
5.235000 -0.058010 0
5.240000 -0.067137 0
5.245000 -0.074743 0
5.250000 -0.080983 0
5.255000 -0.086018 0
5.260000 -0.090001 0
5.265000 -0.093079 0
5.270000 -0.095388 0
5.275000 -0.097051 0
5.280000 -0.098178 0
5.285000 -0.098867 0
5.290000 -0.099200 0
5.295000 -0.099249 0
5.300000 -0.098968 0
5.305000 -0.098067 0
5.310000 -0.097171 0
5.315000 -0.096279 0
5.320000 -0.095392 0
5.325000 -0.094509 0
5.330000 -0.093630 0
5.335000 -0.092756 0
5.340000 -0.091886 0
5.345000 -0.091021 0
5.350000 -0.090160 0
5.355000 -0.089302 0
5.360000 -0.088449 0
5.365000 -0.087599 0
5.370000 -0.086751 0
5.375000 -0.085903 0
5.380000 -0.085054 0
5.385000 -0.084197 0
5.390000 -0.083324 0
5.395000 -0.082421 0
5.400000 -0.081467 0
5.405000 -0.080427 0
5.410000 -0.079251 0
5.415000 -0.077864 0
5.420000 -0.076162 0
5.425000 -0.074003 0
5.430000 -0.071200 0
5.435000 -0.067514 0
5.440000 -0.062658 0
5.445000 -0.056295 0
5.450000 -0.048057 0
5.455000 -0.037569 0
5.460000 -0.024482 0
5.465000 -0.008517 0
5.470000 0.010474 0
5.475000 0.032462 0
5.480000 0.057187 0
5.485000 0.084121 0
5.490000 0.112462 0
5.495000 0.141146 0
5.500000 0.168902 0
5.505000 0.194340 0
5.510000 0.216057 0
5.515000 0.232769 0
5.520000 0.243431 0
5.525000 0.247348 1
5.530000 0.244249 0
5.535000 0.234316 0
5.540000 0.218167 0
5.545000 0.196792 0
5.550000 0.171451 0
5.555000 0.143554 0
5.560000 0.114522 0
5.565000 0.085662 0
5.570000 0.058021 0
5.575000 0.032194 0
5.580000 0.008024 0
5.585000 -0.015823 0
5.590000 -0.042152 0
5.595000 -0.074810 0
5.600000 -0.116779 0
5.605000 -0.166807 0
5.610000 -0.216162 0
5.615000 -0.247950 2
5.620000 -0.240068 0
5.625000 -0.170205 0
5.630000 -0.021105 0
5.635000 0.212478 0
5.640000 0.512853 0
5.645000 0.829315 0
5.650000 1.082589 0
5.655000 1.192857 3
5.660000 1.118842 0
5.665000 0.881296 0
5.670000 0.552842 0
5.675000 0.218478 0
5.680000 -0.057967 0
5.685000 -0.244850 0
5.690000 -0.336992 0
5.695000 -0.347232 4
5.700000 -0.300351 0
5.705000 -0.226198 0
5.710000 -0.150773 0
5.715000 -0.089354 0
5.720000 -0.045588 0
5.725000 -0.015679 0
5.730000 0.006339 0
5.735000 0.025322 0
5.740000 0.044145 0
5.745000 0.064137 0
5.750000 0.085763 0
5.755000 0.109082 0
5.760000 0.133974 0
5.765000 0.160213 0
5.770000 0.187495 0
5.775000 0.215449 0
5.780000 0.243636 0
5.785000 0.271570 0
5.790000 0.298718 0
5.795000 0.324525 0
5.800000 0.348428 0
5.805000 0.369874 0
5.810000 0.388345 0
5.815000 0.403375 0
5.820000 0.414569 0
5.825000 0.421623 0
5.830000 0.424334 5
5.835000 0.422607 0
5.840000 0.416467 0
5.845000 0.406049 0
5.850000 0.391601 0
5.855000 0.373468 0
5.860000 0.352080 0
5.865000 0.327934 0
5.870000 0.301576 0
5.875000 0.273577 0
5.880000 0.244517 0
5.885000 0.214960 0
5.890000 0.185441 0
5.895000 0.156447 0
5.900000 0.128407 0
5.905000 0.101685 0
5.910000 0.076571 0
5.915000 0.053285 0
5.920000 0.031973 0
5.925000 0.012717 0
5.930000 -0.004463 0
5.935000 -0.019599 0
5.940000 -0.032765 0
5.945000 -0.044070 0
5.950000 -0.053650 0
5.955000 -0.061655 0
5.960000 -0.068244 0
5.965000 -0.073580 0
5.970000 -0.077822 0
5.975000 -0.081120 0
5.980000 -0.083616 0
5.985000 -0.085439 0
5.990000 -0.086703 0
5.995000 -0.087509 0
6.000000 -0.087944 0
6.005000 -0.088082 0
6.010000 -0.087877 0
6.015000 -0.087032 0
6.020000 -0.086190 0
6.025000 -0.085353 0
6.030000 -0.084521 0
6.035000 -0.083692 0
6.040000 -0.082867 0
6.045000 -0.082047 0
6.050000 -0.081231 0
6.055000 -0.080418 0
6.060000 -0.079610 0
6.065000 -0.078805 0
6.070000 -0.078004 0
6.075000 -0.077206 0
6.080000 -0.076410 0
6.085000 -0.075614 0
6.090000 -0.074815 0
6.095000 -0.074008 0
6.100000 -0.073185 0
6.105000 -0.072329 0
6.110000 -0.071419 0
6.115000 -0.070418 0
6.120000 -0.069272 0
6.125000 -0.067902 0
6.130000 -0.066199 0
6.135000 -0.064011 0
6.140000 -0.061139 0
6.145000 -0.057333 0
6.150000 -0.052291 0
6.155000 -0.045662 0
6.160000 -0.037068 0
6.165000 -0.026126 0
6.170000 -0.012491 0
6.175000 0.004097 0
6.180000 0.023755 0
6.185000 0.046402 0
6.190000 0.071709 0
6.195000 0.099066 0
6.200000 0.127580 0
6.205000 0.156100 0
6.210000 0.183285 0
6.215000 0.207698 0
6.220000 0.227932 0
6.225000 0.242737 0
6.230000 0.251156 0
6.235000 0.252616 1
6.240000 0.247001 0
6.245000 0.234659 0
6.250000 0.216371 0
6.255000 0.193264 0
6.260000 0.166701 0
6.265000 0.138139 0
6.270000 0.109000 0
6.275000 0.080523 0
6.280000 0.053608 0
6.285000 0.028570 0
6.290000 0.004761 0
6.295000 -0.019861 0
6.300000 -0.048795 0
6.305000 -0.085884 0
6.310000 -0.132514 0
6.315000 -0.183865 0
6.320000 -0.226593 0
6.325000 -0.240110 2
6.330000 -0.201084 0
6.335000 -0.088860 0
6.340000 0.108483 0
6.345000 0.384600 0
6.350000 0.702688 0
6.355000 0.991859 0
6.360000 1.166183 3
6.365000 1.164104 0
6.370000 0.982154 0
6.375000 0.677271 0
6.380000 0.336141 0
6.385000 0.034091 0
6.390000 -0.185222 0
6.395000 -0.308327 0
6.400000 -0.342938 4
6.405000 -0.310974 0
6.410000 -0.242113 0
6.415000 -0.164962 0
6.420000 -0.098716 0
6.425000 -0.050228 0
6.430000 -0.017189 0
6.435000 0.006316 0
6.440000 0.025692 0
6.445000 0.044362 0
6.450000 0.063996 0
6.455000 0.085220 0
6.460000 0.108161 0
6.465000 0.132726 0
6.470000 0.158704 0
6.475000 0.185800 0
6.480000 0.213648 0
6.485000 0.241814 0
6.490000 0.269809 0
6.495000 0.297098 0
6.500000 0.323117 0
6.505000 0.347292 0
6.510000 0.369060 0
6.515000 0.387885 0
6.520000 0.403286 0
6.525000 0.414854 0
6.530000 0.422267 0
6.535000 0.425310 5
6.540000 0.423879 0
6.545000 0.417989 0
6.550000 0.407771 0
6.555000 0.393473 0
6.560000 0.375441 0
6.565000 0.354111 0
6.570000 0.329988 0
6.575000 0.303627 0
6.580000 0.275610 0
6.585000 0.246526 0
6.590000 0.216951 0
6.595000 0.187427 0
6.600000 0.158450 0
6.605000 0.130453 0
6.610000 0.103802 0
6.615000 0.078791 0
6.620000 0.055636 0
6.625000 0.034482 0
6.630000 0.015406 0
6.635000 -0.001577 0
6.640000 -0.016503 0
6.645000 -0.029454 0
6.650000 -0.040545 0
6.655000 -0.049914 0
6.660000 -0.057718 0
6.665000 -0.064119 0
6.670000 -0.069283 0
6.675000 -0.073369 0
6.680000 -0.076531 0
6.685000 -0.078910 0
6.690000 -0.080633 0
6.695000 -0.081815 0
6.700000 -0.082556 0
6.705000 -0.082940 0
6.710000 -0.083041 0
6.715000 -0.082818 0
6.720000 -0.081998 0
6.725000 -0.081182 0
6.730000 -0.080370 0
6.735000 -0.079562 0
6.740000 -0.078758 0
6.745000 -0.077958 0
6.750000 -0.077162 0
6.755000 -0.076370 0
6.760000 -0.075582 0
6.765000 -0.074798 0
6.770000 -0.074017 0
6.775000 -0.073239 0
6.780000 -0.072464 0
6.785000 -0.071691 0
6.790000 -0.070916 0
6.795000 -0.070137 0
6.800000 -0.069346 0
6.805000 -0.068533 0
6.810000 -0.067679 0
6.815000 -0.066755 0
6.820000 -0.065719 0
6.825000 -0.064503 0
6.830000 -0.063016 0
6.835000 -0.061125 0
6.840000 -0.058655 0
6.845000 -0.055378 0
6.850000 -0.051014 0
6.855000 -0.045227 0
6.860000 -0.037645 0
6.865000 -0.027874 0
6.870000 -0.015541 0
6.875000 -0.000333 0
6.880000 0.017942 0
6.885000 0.039299 0
6.890000 0.063517 0
6.895000 0.090099 0
6.900000 0.118254 0
6.905000 0.146913 0
6.910000 0.174775 0
6.915000 0.200402 0
6.920000 0.222334 0
6.925000 0.239223 0
6.930000 0.249973 0
6.935000 0.253853 1
6.940000 0.250579 0
6.945000 0.240352 0
6.950000 0.223828 0
6.955000 0.202056 0
6.960000 0.176363 0
6.965000 0.148220 0
6.970000 0.119097 0
6.975000 0.090325 0
6.980000 0.062932 0
6.985000 0.037423 0
6.990000 0.013429 0
6.995000 -0.010756 0
7.000000 -0.038391 0
7.005000 -0.073492 0
7.010000 -0.118316 0
7.015000 -0.169530 0
7.020000 -0.215278 0
7.025000 -0.235703 2
7.030000 -0.207148 0
7.035000 -0.107739 0
7.040000 0.076593 0
7.045000 0.342960 0
7.050000 0.658860 0
7.055000 0.956198 0
7.060000 1.147521 0
7.065000 1.165242 3
7.070000 0.998817 0
7.075000 0.701279 0
7.080000 0.359994 0
7.085000 0.053545 0
7.090000 -0.171296 0
7.095000 -0.299226 0
7.100000 -0.337185 4
7.105000 -0.306988 0
7.110000 -0.238693 0
7.115000 -0.161532 0
7.120000 -0.095216 0
7.125000 -0.046798 0
7.130000 -0.013920 0
7.135000 0.009440 0
7.140000 0.028746 0
7.145000 0.047421 0
7.150000 0.067111 0
7.155000 0.088422 0
7.160000 0.111465 0
7.165000 0.136135 0
7.170000 0.162211 0
7.175000 0.189388 0
7.180000 0.217284 0
7.185000 0.245453 0
7.190000 0.273391 0
7.195000 0.300549 0
7.200000 0.326351 0
7.205000 0.350213 0
7.210000 0.371562 0
7.215000 0.389864 0
7.220000 0.404636 0
7.225000 0.415478 0
7.230000 0.422081 0
7.235000 0.424245 5
7.240000 0.421889 0
7.245000 0.415052 0
7.250000 0.403894 0
7.255000 0.388691 0
7.260000 0.369818 0
7.265000 0.347738 0
7.270000 0.322978 0
7.275000 0.296112 0
7.280000 0.267739 0
7.285000 0.238454 0
7.290000 0.208837 0
7.295000 0.179425 0
7.300000 0.150707 0
7.305000 0.123101 0
7.310000 0.096958 0
7.315000 0.072550 0
7.320000 0.050072 0
7.325000 0.029647 0
7.330000 0.011330 0
7.335000 -0.004885 0
7.340000 -0.019051 0
7.345000 -0.031268 0
7.350000 -0.041661 0
7.355000 -0.050381 0
7.360000 -0.057589 0
7.365000 -0.063453 0
7.370000 -0.068140 0
7.375000 -0.071810 0
7.380000 -0.074613 0
7.385000 -0.076687 0
7.390000 -0.078156 0
7.395000 -0.079129 0
7.400000 -0.079700 0
7.405000 -0.079949 0
7.410000 -0.079945 0
7.415000 -0.079255 0
7.420000 -0.078452 0
7.425000 -0.077654 0
7.430000 -0.076860 0
7.435000 -0.076069 0
7.440000 -0.075283 0
7.445000 -0.074500 0
7.450000 -0.073721 0
7.455000 -0.072946 0
7.460000 -0.072175 0
7.465000 -0.071408 0
7.470000 -0.070644 0
7.475000 -0.069882 0
7.480000 -0.069122 0
7.485000 -0.068363 0
7.490000 -0.067600 0
7.495000 -0.066828 0
7.500000 -0.066037 0
7.505000 -0.065213 0
7.510000 -0.064328 0
7.515000 -0.063345 0
7.520000 -0.062205 0
7.525000 -0.060819 0
7.530000 -0.059069 0
7.535000 -0.056787 0
7.540000 -0.053756 0
7.545000 -0.049706 0
7.550000 -0.044307 0
7.555000 -0.037188 0
7.560000 -0.027952 0
7.565000 -0.016208 0
7.570000 -0.001622 0
7.575000 0.016033 0
7.580000 0.036812 0
7.585000 0.060538 0
7.590000 0.086758 0
7.595000 0.114720 0
7.600000 0.143375 0
7.605000 0.171434 0
7.610000 0.197445 0
7.615000 0.219917 0
7.620000 0.237456 0
7.625000 0.248911 0
7.630000 0.253491 1
7.635000 0.250862 0
7.640000 0.241181 0
7.645000 0.225082 0
7.650000 0.203606 0
7.655000 0.178089 0
7.660000 0.150024 0
7.665000 0.120910 0
7.670000 0.092108 0
7.675000 0.064676 0
7.680000 0.039141 0
7.685000 0.015137 0
7.690000 -0.009074 0
7.695000 -0.036814 0
7.700000 -0.072165 0
7.705000 -0.117319 0
7.710000 -0.168615 0
7.715000 -0.213589 0
7.720000 -0.231707 2
7.725000 -0.198849 0
7.730000 -0.093101 0
7.735000 0.098881 0
7.740000 0.372007 0
7.745000 0.689692 0
7.750000 0.979315 0
7.755000 1.151971 3
7.760000 1.144514 0
7.765000 0.955671 0
7.770000 0.646629 0
7.775000 0.306162 0
7.780000 0.009401 0
7.785000 -0.201648 0
7.790000 -0.315446 0
7.795000 -0.341550 4
7.800000 -0.303556 0
7.805000 -0.232143 0
7.810000 -0.155667 0
7.815000 -0.091966 0
7.820000 -0.046305 0
7.825000 -0.015354 0
7.830000 0.007053 0
7.835000 0.026105 0
7.840000 0.044900 0
7.845000 0.064868 0
7.850000 0.086503 0
7.855000 0.109866 0
7.860000 0.134828 0
7.865000 0.161151 0
7.870000 0.188514 0
7.875000 0.216523 0
7.880000 0.244719 0
7.885000 0.272585 0
7.890000 0.299565 0
7.895000 0.325077 0
7.900000 0.348536 0
7.905000 0.369372 0
7.910000 0.387057 0
7.915000 0.401122 0
7.920000 0.411179 0
7.925000 0.416941 0
7.930000 0.418230 5
7.935000 0.414987 0
7.940000 0.407278 0
7.945000 0.395288 0
7.950000 0.379315 0
7.955000 0.359755 0
7.960000 0.337087 0
7.965000 0.311854 0
7.970000 0.284640 0
7.975000 0.256044 0
7.980000 0.226664 0
7.985000 0.197074 0
7.990000 0.167803 0
7.995000 0.139327 0
8.000000 0.112051 0
8.005000 0.086310 0
8.010000 0.062357 0
8.015000 0.040374 0
8.020000 0.020466 0
8.025000 0.002673 0
8.030000 -0.013022 0
8.035000 -0.026686 0
8.040000 -0.038424 0
8.045000 -0.048371 0
8.050000 -0.056681 0
8.055000 -0.063517 0
8.060000 -0.069049 0
8.065000 -0.073443 0
8.070000 -0.076858 0
8.075000 -0.079440 0
8.080000 -0.081326 0
8.085000 -0.082634 0
8.090000 -0.083473 0
8.095000 -0.083931 0
8.100000 -0.084086 0
8.105000 -0.083896 0
8.110000 -0.083070 0
8.115000 -0.082249 0
8.120000 -0.081431 0
8.125000 -0.080618 0
8.130000 -0.079809 0
8.135000 -0.079004 0
8.140000 -0.078203 0
8.145000 -0.077406 0
8.150000 -0.076612 0
8.155000 -0.075823 0
8.160000 -0.075037 0
8.165000 -0.074254 0
8.170000 -0.073474 0
8.175000 -0.072696 0
8.180000 -0.071917 0
8.185000 -0.071133 0
8.190000 -0.070338 0
8.195000 -0.069520 0
8.200000 -0.068662 0
8.205000 -0.067734 0
8.210000 -0.066692 0
8.215000 -0.065467 0
8.220000 -0.063965 0
8.225000 -0.062049 0
8.230000 -0.059539 0
8.235000 -0.056199 0
8.240000 -0.051737 0
8.245000 -0.045810 0
8.250000 -0.038032 0
8.255000 -0.028003 0
8.260000 -0.015345 0
8.265000 0.000252 0
8.270000 0.018963 0
8.275000 0.040773 0
8.280000 0.065417 0
8.285000 0.092342 0
8.290000 0.120687 0
8.295000 0.149313 0
8.300000 0.176858 0
8.305000 0.201835 0
8.310000 0.222766 0
8.315000 0.238321 0
8.320000 0.247456 0
8.325000 0.249531 1
8.330000 0.244381 0
8.335000 0.232340 0
8.340000 0.214199 0
8.345000 0.191123 0
8.350000 0.164527 0
8.355000 0.135929 0
8.360000 0.106801 0
8.365000 0.078419 0
8.370000 0.051681 0
8.375000 0.026836 0
8.380000 0.003060 0
8.385000 -0.021994 0
8.390000 -0.052133 0
8.395000 -0.091151 0
8.400000 -0.139502 0
8.405000 -0.190336 0
8.410000 -0.227717 0
8.415000 -0.228982 2
8.420000 -0.170088 0
8.425000 -0.031512 0
8.430000 0.194378 0
8.435000 0.491546 0
8.440000 0.808471 0
8.445000 1.061817 0
8.450000 1.167094 3
8.455000 1.083838 0
8.460000 0.839073 0
8.465000 0.508019 0
8.470000 0.176065 0
8.475000 -0.094365 0
8.480000 -0.273529 0
8.485000 -0.357902 0
8.490000 -0.361712 4
8.495000 -0.310809 0
8.500000 -0.235398 0
8.505000 -0.160894 0
8.510000 -0.101404 0
8.515000 -0.059491 0
8.520000 -0.030804 0
8.525000 -0.009326 0
8.530000 0.009601 0
8.535000 0.028628 0
8.540000 0.048939 0
8.545000 0.070920 0
8.550000 0.094595 0
8.555000 0.119820 0
8.560000 0.146354 0
8.565000 0.173877 0
8.570000 0.202001 0
8.575000 0.230273 0
8.580000 0.258190 0
8.585000 0.285208 0
8.590000 0.310764 0
8.595000 0.334286 0
8.600000 0.355222 0
8.605000 0.373057 0
8.610000 0.387335 0
8.615000 0.397676 0
8.620000 0.403794 0
8.625000 0.405510 5
8.630000 0.402758 0
8.635000 0.395591 0
8.640000 0.384176 0
8.645000 0.368789 0
8.650000 0.349806 0
8.655000 0.327680 0
8.660000 0.302932 0
8.665000 0.276122 0
8.670000 0.247833 0
8.675000 0.218648 0
8.680000 0.189132 0
8.685000 0.159810 0
8.690000 0.131160 0
8.695000 0.103594 0
8.700000 0.077457 0
8.705000 0.053018 0
8.710000 0.030474 0
8.715000 0.009951 0
8.720000 -0.008491 0
8.725000 -0.024853 0
8.730000 -0.039182 0
8.735000 -0.051568 0
8.740000 -0.062132 0
8.745000 -0.071018 0
8.750000 -0.078381 0
8.755000 -0.084385 0
8.760000 -0.089194 0
8.765000 -0.092965 0
8.770000 -0.095847 0
8.775000 -0.097979 0
8.780000 -0.099484 0
8.785000 -0.100472 0
8.790000 -0.101040 0
8.795000 -0.101269 0
8.800000 -0.101229 0
8.805000 -0.100443 0
8.810000 -0.099535 0
8.815000 -0.098632 0
8.820000 -0.097732 0
8.825000 -0.096838 0
8.830000 -0.095948 0
8.835000 -0.095062 0
8.840000 -0.094181 0
8.845000 -0.093304 0
8.850000 -0.092431 0
8.855000 -0.091563 0
8.860000 -0.090698 0
8.865000 -0.089838 0
8.870000 -0.088979 0
8.875000 -0.088123 0
8.880000 -0.087265 0
8.885000 -0.086403 0
8.890000 -0.085528 0
8.895000 -0.084629 0
8.900000 -0.083687 0
8.905000 -0.082671 0
8.910000 -0.081536 0
8.915000 -0.080213 0
8.920000 -0.078606 0
8.925000 -0.076579 0
8.930000 -0.073951 0
8.935000 -0.070492 0
8.940000 -0.065915 0
8.945000 -0.059884 0
8.950000 -0.052025 0
8.955000 -0.041947 0
8.960000 -0.029283 0
8.965000 -0.013731 0
8.970000 0.004887 0
8.975000 0.026567 0
8.980000 0.051068 0
8.985000 0.077873 0
8.990000 0.106175 0
8.995000 0.134893 0
9.000000 0.162723 0
9.005000 0.188230 0
9.010000 0.209967 0
9.015000 0.226607 0
9.020000 0.237078 0
9.025000 0.240676 1
9.030000 0.237143 0
9.035000 0.226698 0
9.040000 0.210013 0
9.045000 0.188143 0
9.050000 0.162413 0
9.055000 0.134287 0
9.060000 0.105224 0
9.065000 0.076538 0
9.070000 0.049243 0
9.075000 0.023829 0
9.080000 -0.000087 0
9.085000 -0.024219 0
9.090000 -0.051813 0
9.095000 -0.086861 0
9.100000 -0.131603 0
9.105000 -0.182742 0
9.110000 -0.228550 0
9.115000 -0.249352 2
9.120000 -0.221663 0
9.125000 -0.123682 0
9.130000 0.058783 0
9.135000 0.323381 0
9.140000 0.638719 0
9.145000 0.938079 0
9.150000 1.134659 0
9.155000 1.159839 3
9.160000 1.003351 0
9.165000 0.714358 0
9.170000 0.373665 0
9.175000 0.057600 0
9.180000 -0.184975 0
9.185000 -0.334783 0
9.190000 -0.394358 4
9.195000 -0.381031 0
9.200000 -0.321437 0
9.205000 -0.244232 0
9.210000 -0.171780 0
9.215000 -0.115265 0
9.220000 -0.075598 0
9.225000 -0.048061 0
9.230000 -0.026945 0
9.235000 -0.007995 0
9.240000 0.011181 0
9.245000 0.031645 0
9.250000 0.053745 0
9.255000 0.077499 0
9.260000 0.102769 0
9.265000 0.129327 0
9.270000 0.156869 0
9.275000 0.185028 0
9.280000 0.213377 0
9.285000 0.241440 0
9.290000 0.268699 0
9.295000 0.294618 0
9.300000 0.318650 0
9.305000 0.340262 0
9.310000 0.358951 0
9.315000 0.374266 0
9.320000 0.385822 0
9.325000 0.393319 0
9.330000 0.396554 5
9.335000 0.395427 0
9.340000 0.389948 0
9.345000 0.380239 0
9.350000 0.366523 0
9.355000 0.349121 0
9.360000 0.328438 0
9.365000 0.304944 0
9.370000 0.279160 0
9.375000 0.251635 0
9.380000 0.222930 0
9.385000 0.193598 0
9.390000 0.164164 0
9.395000 0.135115 0
9.400000 0.106883 0
9.405000 0.079841 0
9.410000 0.054294 0
9.415000 0.030478 0
9.420000 0.008560 0
9.425000 -0.011358 0
9.430000 -0.029234 0
9.435000 -0.045080 0
9.440000 -0.058950 0
9.445000 -0.070938 0
9.450000 -0.081164 0
9.455000 -0.089766 0
9.460000 -0.096897 0
9.465000 -0.102712 0
9.470000 -0.107368 0
9.475000 -0.111017 0
9.480000 -0.113799 0
9.485000 -0.115847 0
9.490000 -0.117280 0
9.495000 -0.118204 0
9.500000 -0.118712 0
9.505000 -0.118882 0
9.510000 -0.118783 0
9.515000 -0.118372 0
9.520000 -0.117374 0
9.525000 -0.116382 0
9.530000 -0.115394 0
9.535000 -0.114411 0
9.540000 -0.113434 0
9.545000 -0.112461 0
9.550000 -0.111493 0
9.555000 -0.110530 0
9.560000 -0.109571 0
9.565000 -0.108617 0
9.570000 -0.107668 0
9.575000 -0.106723 0
9.580000 -0.105781 0
9.585000 -0.104842 0
9.590000 -0.103904 0
9.595000 -0.102964 0
9.600000 -0.102016 0
9.605000 -0.101052 0
9.610000 -0.100058 0
9.615000 -0.099010 0
9.620000 -0.097875 0
9.625000 -0.096600 0
9.630000 -0.095112 0
9.635000 -0.093304 0
9.640000 -0.091035 0
9.645000 -0.088117 0
9.650000 -0.084314 0
9.655000 -0.079337 0
9.660000 -0.072856 0
9.665000 -0.064506 0
9.670000 -0.053915 0
9.675000 -0.040739 0
9.680000 -0.024705 0
9.685000 -0.005664 0
9.690000 0.016358 0
9.695000 0.041106 0
9.700000 0.068066 0
9.705000 0.096451 0
9.710000 0.125219 0
9.715000 0.153121 0
9.720000 0.178787 0
9.725000 0.200828 0
9.730000 0.217964 0
9.735000 0.229146 0
9.740000 0.233659 1
9.745000 0.231203 0
9.750000 0.221920 0
9.755000 0.206386 0
9.760000 0.185549 0
9.765000 0.160631 0
9.770000 0.133017 0
9.775000 0.104117 0
9.780000 0.075241 0
9.785000 0.047466 0
9.790000 0.021451 0
9.795000 -0.002834 0
9.800000 -0.026515 0
9.805000 -0.052148 0
9.810000 -0.083459 0
9.815000 -0.123730 0
9.820000 -0.172683 0
9.825000 -0.223114 0
9.830000 -0.259649 0
9.835000 -0.261048 2
9.840000 -0.204905 0
9.845000 -0.072738 0
9.850000 0.143799 0
9.855000 0.432983 0
9.860000 0.752073 0
9.865000 1.027367 0
9.870000 1.176643 3
9.875000 1.148483 0
9.880000 0.949067 0
9.885000 0.637985 0
9.890000 0.297124 0
9.895000 -0.003964 0
9.900000 -0.224856 0
9.905000 -0.352572 0
9.910000 -0.393569 4
9.915000 -0.367531 0
9.920000 -0.301868 0
9.925000 -0.224154 0
9.930000 -0.154374 0
9.935000 -0.101293 0
9.940000 -0.064328 0
9.945000 -0.038352 0
9.950000 -0.017881 0
9.955000 0.000955 0
9.960000 0.020255 0
9.965000 0.040919 0
9.970000 0.063224 0
9.975000 0.087158 0
9.980000 0.112573 0
9.985000 0.139231 0
9.990000 0.166828 0
9.995000 0.194993 0
10.000000 0.223300 0
10.005000 0.251275 0
10.010000 0.278408 0
10.015000 0.304166 0
10.020000 0.328011 0
10.025000 0.349421 0
10.030000 0.367901 0
10.035000 0.383011 0
10.040000 0.394375 0
10.045000 0.401701 0
10.050000 0.404790 5
10.055000 0.403549 0
10.060000 0.397989 0
10.065000 0.388230 0
10.070000 0.374495 0
10.075000 0.357098 0
10.080000 0.336437 0
10.085000 0.312975 0
10.090000 0.287224 0
10.095000 0.259725 0
10.100000 0.231032 0
10.105000 0.201687 0
10.110000 0.172214 0
10.115000 0.143092 0
10.120000 0.114754 0
10.125000 0.087570 0
10.130000 0.061847 0
10.135000 0.037824 0
10.140000 0.015672 0
10.145000 -0.004502 0
10.150000 -0.022650 0
10.155000 -0.038777 0
10.160000 -0.052933 0
10.165000 -0.065206 0
10.170000 -0.075709 0
10.175000 -0.084578 0
10.180000 -0.091960 0
10.185000 -0.098011 0
10.190000 -0.102883 0
10.195000 -0.106727 0
10.200000 -0.109685 0
10.205000 -0.111890 0
10.210000 -0.113460 0
10.215000 -0.114504 0
10.220000 -0.115115 0
10.225000 -0.115374 0
10.230000 -0.115351 0
10.235000 -0.114997 0
10.240000 -0.114017 0
10.245000 -0.113041 0
10.250000 -0.112070 0
10.255000 -0.111104 0
10.260000 -0.110143 0
10.265000 -0.109186 0
10.270000 -0.108235 0
10.275000 -0.107288 0
10.280000 -0.106345 0
10.285000 -0.105408 0
10.290000 -0.104474 0
10.295000 -0.103545 0
10.300000 -0.102620 0
10.305000 -0.101698 0
10.310000 -0.100777 0
10.315000 -0.099855 0
10.320000 -0.098928 0
10.325000 -0.097989 0
10.330000 -0.097026 0
10.335000 -0.096019 0
10.340000 -0.094941 0
10.345000 -0.093748 0
10.350000 -0.092376 0
10.355000 -0.090735 0
10.360000 -0.088700 0
10.365000 -0.086108 0
10.370000 -0.082746 0
10.375000 -0.078353 0
10.380000 -0.072620 0
10.385000 -0.065202 0
10.390000 -0.055731 0
10.395000 -0.043851 0
10.400000 -0.029252 0
10.405000 -0.011723 0
10.410000 0.008804 0
10.415000 0.032194 0
10.420000 0.058075 0
10.425000 0.085808 0
10.430000 0.114496 0
10.435000 0.143005 0
10.440000 0.170039 0
10.445000 0.194224 0
10.450000 0.214224 0
10.455000 0.228864 0
10.460000 0.237242 0
10.465000 0.238820 1
10.470000 0.233483 0
10.475000 0.221554 0
10.480000 0.203756 0
10.485000 0.181146 0
10.490000 0.155005 0
10.495000 0.126722 0
10.500000 0.097666 0
10.505000 0.069059 0
10.510000 0.041840 0
10.515000 0.016456 0
10.520000 -0.007447 0
10.525000 -0.031433 0
10.530000 -0.058485 0
10.535000 -0.092389 0
10.540000 -0.135658 0
10.545000 -0.186214 0
10.550000 -0.234500 0
10.555000 -0.263270 2
10.560000 -0.250734 0
10.565000 -0.175382 0
10.570000 -0.020996 0
10.575000 0.216532 0
10.580000 0.518622 0
10.585000 0.834716 0
10.590000 1.087151 0
10.595000 1.198249 3
10.600000 1.126329 0
10.605000 0.891450 0
10.610000 0.564350 0
10.615000 0.228792 0
10.620000 -0.051363 0
10.625000 -0.243611 0
10.630000 -0.341667 0
10.635000 -0.357196 4
10.640000 -0.313883 0
10.645000 -0.240976 0
10.650000 -0.164730 0
10.655000 -0.101368 0
10.660000 -0.055577 0
10.665000 -0.024202 0
10.670000 -0.001412 0
10.675000 0.017812 0
10.680000 0.036564 0
10.685000 0.056338 0
10.690000 0.077691 0
10.695000 0.100727 0
10.700000 0.125353 0
10.705000 0.151362 0
10.710000 0.178472 0
10.715000 0.206329 0
10.720000 0.234519 0
10.725000 0.262572 0
10.730000 0.289974 0
10.735000 0.316185 0
10.740000 0.340651 0
10.745000 0.362826 0
10.750000 0.382188 0
10.755000 0.398264 0
10.760000 0.410645 0
10.765000 0.419004 0
10.770000 0.423109 5
10.775000 0.422834 0
10.780000 0.418164 0
10.785000 0.409197 0
10.790000 0.396139 0
10.795000 0.379298 0
10.800000 0.359066 0
10.805000 0.335911 0
10.810000 0.310353 0
10.815000 0.282945 0
10.820000 0.254258 0
10.825000 0.224852 0
10.830000 0.195267 0
10.835000 0.166003 0
10.840000 0.137508 0
10.845000 0.110168 0
10.850000 0.084301 0
10.855000 0.060154 0
10.860000 0.037904 0
10.865000 0.017662 0
10.870000 -0.000525 0
10.875000 -0.016663 0
10.880000 -0.030806 0
10.885000 -0.043046 0
10.890000 -0.053502 0
10.895000 -0.062314 0
10.900000 -0.069637 0
10.905000 -0.075629 0
10.910000 -0.080448 0
10.915000 -0.084247 0
10.920000 -0.087172 0
10.925000 -0.089355 0
10.930000 -0.090919 0
10.935000 -0.091969 0
10.940000 -0.092601 0
10.945000 -0.092894 0
10.950000 -0.092916 0
10.955000 -0.092175 0
10.960000 -0.091308 0
10.965000 -0.090446 0
10.970000 -0.089588 0
10.975000 -0.088734 0
10.980000 -0.087884 0
10.985000 -0.087039 0
10.990000 -0.086197 0
10.995000 -0.085360 0
11.000000 -0.084527 0
11.005000 -0.083698 0
11.010000 -0.082873 0
11.015000 -0.082052 0
11.020000 -0.081233 0
11.025000 -0.080416 0
11.030000 -0.079599 0
11.035000 -0.078778 0
11.040000 -0.077949 0
11.045000 -0.077100 0
11.050000 -0.076216 0
11.055000 -0.075273 0
11.060000 -0.074232 0
11.065000 -0.073038 0
11.070000 -0.071608 0
11.075000 -0.069829 0
11.080000 -0.067547 0
11.085000 -0.064559 0
11.090000 -0.060615 0
11.095000 -0.055411 0
11.100000 -0.048601 0
11.105000 -0.039809 0
11.110000 -0.028663 0
11.115000 -0.014827 0
11.120000 0.001946 0
11.125000 0.021763 0
11.130000 0.044532 0
11.135000 0.069921 0
11.140000 0.097323 0
11.145000 0.125855 0
11.150000 0.154384 0
11.155000 0.181592 0
11.160000 0.206068 0
11.165000 0.226428 0
11.170000 0.241441 0
11.175000 0.250153 0
11.180000 0.251985 1
11.185000 0.246798 0
11.190000 0.234909 0
11.195000 0.217056 0
11.200000 0.194325 0
11.205000 0.168038 0
11.210000 0.139626 0
11.215000 0.110493 0
11.220000 0.081887 0
11.225000 0.054742 0
11.230000 0.029464 0
11.235000 0.005577 0
11.240000 -0.018697 0
11.245000 -0.046599 0
11.250000 -0.082003 0
11.255000 -0.126969 0
11.260000 -0.178160 0
11.265000 -0.224130 0
11.270000 -0.245818 2
11.275000 -0.220425 0
11.280000 -0.126613 0
11.285000 0.049987 0
11.290000 0.308572 0
11.295000 0.621404 0
11.300000 0.926735 0
11.305000 1.140774 0
11.310000 1.192193 3
11.315000 1.057684 0
11.320000 0.779074 0
11.325000 0.439404 0
11.330000 0.120408 0
11.335000 -0.124736 0
11.340000 -0.274921 0
11.345000 -0.332739 4
11.350000 -0.316710 0
11.355000 -0.255132 0
11.360000 -0.177892 0
11.365000 -0.107425 0
11.370000 -0.053944 0
11.375000 -0.017160 0
11.380000 0.008356 0
11.385000 0.028412 0
11.390000 0.047010 0
11.395000 0.066240 0
11.400000 0.086954 0
11.405000 0.109380 0
11.410000 0.133472 0
11.415000 0.159044 0
11.420000 0.185824 0
11.425000 0.213466 0
11.430000 0.241553 0
11.435000 0.269609 0
11.440000 0.297112 0
11.445000 0.323503 0
11.450000 0.348209 0
11.455000 0.370661 0
11.460000 0.390314 0
11.465000 0.406669 0
11.470000 0.419295 0
11.475000 0.427845 0
11.480000 0.432072 5
11.485000 0.431841 0
11.490000 0.427135 0
11.495000 0.418052 0
11.500000 0.404810 0
11.505000 0.387729 0
11.510000 0.367222 0
11.515000 0.343777 0
11.520000 0.317937 0
11.525000 0.290281 0
11.530000 0.261397 0
11.535000 0.231866 0
11.540000 0.202243 0
11.545000 0.173036 0
11.550000 0.144699 0
11.555000 0.117615 0
11.560000 0.092099 0
11.565000 0.068388 0
11.570000 0.046646 0
11.575000 0.026968 0
11.580000 0.009386 0
11.585000 -0.006125 0
11.590000 -0.019635 0
11.595000 -0.031250 0
11.600000 -0.041103 0
11.605000 -0.049347 0
11.610000 -0.056143 0
11.615000 -0.061657 0
11.620000 -0.066050 0
11.625000 -0.069479 0
11.630000 -0.072087 0
11.635000 -0.074006 0
11.640000 -0.075355 0
11.645000 -0.076236 0
11.650000 -0.076739 0
11.655000 -0.076940 0
11.660000 -0.076794 0
11.665000 -0.076004 0
11.670000 -0.075218 0
11.675000 -0.074436 0
11.680000 -0.073657 0
11.685000 -0.072883 0
11.690000 -0.072112 0
11.695000 -0.071345 0
11.700000 -0.070582 0
11.705000 -0.069823 0
11.710000 -0.069068 0
11.715000 -0.068316 0
11.720000 -0.067567 0
11.725000 -0.066820 0
11.730000 -0.066076 0
11.735000 -0.065331 0
11.740000 -0.064582 0
11.745000 -0.063824 0
11.750000 -0.063047 0
11.755000 -0.062234 0
11.760000 -0.061361 0
11.765000 -0.060388 0
11.770000 -0.059255 0
11.775000 -0.057879 0
11.780000 -0.056137 0
11.785000 -0.053867 0
11.790000 -0.050855 0
11.795000 -0.046835 0
11.800000 -0.041484 0
11.805000 -0.034438 0
11.810000 -0.025307 0
11.815000 -0.013707 0
11.820000 0.000696 0
11.825000 0.018132 0
11.830000 0.038667 0
11.835000 0.062147 0
11.840000 0.088149 0
11.845000 0.115960 0
11.850000 0.144579 0
11.855000 0.172758 0
11.860000 0.199084 0
11.865000 0.222089 0
11.870000 0.240384 0
11.875000 0.252791 0
11.880000 0.258477 1
11.885000 0.257037 0
11.890000 0.248543 0
11.895000 0.233539 0
11.900000 0.212984 0
11.905000 0.188144 0
11.910000 0.160467 0
11.915000 0.131438 0
11.920000 0.102437 0
11.925000 0.074590 0
11.930000 0.048565 0
11.935000 0.024259 0
11.940000 0.000350 0
11.945000 -0.026039 0
11.950000 -0.058897 0
11.955000 -0.101273 0
11.960000 -0.151636 0
11.965000 -0.200432 0
11.970000 -0.229566 2
11.975000 -0.215823 0
11.980000 -0.136333 0
11.985000 0.025662 0
11.990000 0.272751 0
11.995000 0.581106 0
12.000000 0.891242 0
12.005000 1.117552 0
12.010000 1.183118 3
12.015000 1.060141 0
12.020000 0.787816 0
12.025000 0.449174 0
12.030000 0.128063 0
12.035000 -0.120099 0
12.040000 -0.272863 0
12.045000 -0.332318 4
12.050000 -0.317002 0
12.055000 -0.255557 0
12.060000 -0.178318 0
12.065000 -0.108011 0
12.070000 -0.054868 0
12.075000 -0.018451 0
12.080000 0.006804 0
12.085000 0.026748 0
12.090000 0.045355 0
12.095000 0.064669 0
12.100000 0.085506 0
12.105000 0.108072 0
12.110000 0.132305 0
12.115000 0.158012 0
12.120000 0.184908 0
12.125000 0.212634 0
12.130000 0.240761 0
12.135000 0.268801 0
12.140000 0.296216 0
12.145000 0.322438 0
12.150000 0.346883 0
12.155000 0.368976 0
12.160000 0.388170 0
12.165000 0.403966 0
12.170000 0.415941 0
12.175000 0.423758 0
12.180000 0.427186 5
12.185000 0.426109 0
12.190000 0.420532 0
12.195000 0.410582 0
12.200000 0.396501 0
12.205000 0.378635 0
12.210000 0.357422 0
12.215000 0.333374 0
12.220000 0.307051 0
12.225000 0.279045 0
12.230000 0.249955 0
12.235000 0.220364 0
12.240000 0.190824 0
12.245000 0.161838 0
12.250000 0.133845 0
12.255000 0.107217 0
12.260000 0.082248 0
12.265000 0.059156 0
12.270000 0.038085 0
12.275000 0.019110 0
12.280000 0.002243 0
12.285000 -0.012557 0
12.290000 -0.025374 0
12.295000 -0.036328 0
12.300000 -0.045562 0
12.305000 -0.053235 0
12.310000 -0.059513 0
12.315000 -0.064563 0
12.320000 -0.068547 0
12.325000 -0.071620 0
12.330000 -0.073922 0
12.335000 -0.075582 0
12.340000 -0.076713 0
12.345000 -0.077414 0
12.350000 -0.077769 0
12.355000 -0.077851 0
12.360000 -0.077182 0
12.365000 -0.076390 0
12.370000 -0.075602 0
12.375000 -0.074818 0
12.380000 -0.074037 0
12.385000 -0.073261 0
12.390000 -0.072488 0
12.395000 -0.071720 0
12.400000 -0.070955 0
12.405000 -0.070194 0
12.410000 -0.069436 0
12.415000 -0.068682 0
12.420000 -0.067931 0
12.425000 -0.067182 0
12.430000 -0.066433 0
12.435000 -0.065683 0
12.440000 -0.064925 0
12.445000 -0.064154 0
12.450000 -0.063354 0
12.455000 -0.062504 0
12.460000 -0.061571 0
12.465000 -0.060504 0
12.470000 -0.059226 0
12.475000 -0.057629 0
12.480000 -0.055565 0
12.485000 -0.052835 0
12.490000 -0.049188 0
12.495000 -0.044315 0
12.500000 -0.037858 0
12.505000 -0.029428 0
12.510000 -0.018628 0
12.515000 -0.005099 0
12.520000 0.011433 0
12.525000 0.031088 0
12.530000 0.053780 0
12.535000 0.079162 0
12.540000 0.106589 0
12.545000 0.135120 0
12.550000 0.163547 0
12.555000 0.190468 0
12.560000 0.214394 0
12.565000 0.233882 0
12.570000 0.247679 0
12.575000 0.254851 0
12.580000 0.254888 1
12.585000 0.247765 0
12.590000 0.233943 0
12.595000 0.214320 0
12.600000 0.190136 0
12.605000 0.162839 0
12.610000 0.133939 0
12.615000 0.104864 0
12.620000 0.076807 0
12.625000 0.050527 0
12.630000 0.026050 0
12.635000 0.002218 0
12.640000 -0.023700 0
12.645000 -0.055694 0
12.650000 -0.097105 0
12.655000 -0.147002 0
12.660000 -0.196495 0
12.665000 -0.227846 2
12.670000 -0.217701 0
12.675000 -0.142645 0
12.680000 0.014874 0
12.685000 0.258483 0
12.690000 0.565419 0
12.695000 0.876608 0
12.700000 1.105574 0
12.705000 1.173652 3
12.710000 1.052505 0
12.715000 0.781189 0
12.720000 0.442754 0
12.725000 0.121400 0
12.730000 -0.127109 0
12.735000 -0.280126 0
12.740000 -0.339685 4
12.745000 -0.324350 0
12.750000 -0.262836 0
12.755000 -0.185556 0
12.760000 -0.115269 0
12.765000 -0.062184 0
12.770000 -0.025824 0
12.775000 -0.000594 0
12.780000 0.019360 0
12.785000 0.038005 0
12.790000 0.057372 0
12.795000 0.078270 0
12.800000 0.100899 0
12.805000 0.125196 0
12.810000 0.150964 0
12.815000 0.177917 0
12.820000 0.205694 0
12.825000 0.233862 0
12.830000 0.261931 0
12.835000 0.289361 0
12.840000 0.315582 0
12.845000 0.340008 0
12.850000 0.362063 0
12.855000 0.381198 0
12.860000 0.396918 0
12.865000 0.408798 0
12.870000 0.416505 0
12.875000 0.419811 5
12.880000 0.418603 0
12.885000 0.412893 0
12.890000 0.402809 0
12.895000 0.388601 0
12.900000 0.370619 0
12.905000 0.349306 0
12.910000 0.325178 0
12.915000 0.298798 0
12.920000 0.270761 0
12.925000 0.241667 0
12.930000 0.212100 0
12.935000 0.182610 0
12.940000 0.153700 0
12.945000 0.125806 0
12.950000 0.099297 0
12.955000 0.074463 0
12.960000 0.051519 0
12.965000 0.030604 0
12.970000 0.011791 0
12.975000 -0.004912 0
12.980000 -0.019550 0
12.985000 -0.032210 0
12.990000 -0.043013 0
12.995000 -0.052105 0
13.000000 -0.059645 0
13.005000 -0.065800 0
13.010000 -0.070738 0
13.015000 -0.074620 0
13.020000 -0.077600 0
13.025000 -0.079820 0
13.030000 -0.081406 0
13.035000 -0.082470 0
13.040000 -0.083112 0
13.045000 -0.083414 0
13.050000 -0.083447 0
13.055000 -0.082748 0
13.060000 -0.081928 0
13.065000 -0.081112 0
13.070000 -0.080300 0
13.075000 -0.079493 0
13.080000 -0.078689 0
13.085000 -0.077890 0
13.090000 -0.077094 0
13.095000 -0.076302 0
13.100000 -0.075515 0
13.105000 -0.074730 0
13.110000 -0.073950 0
13.115000 -0.073172 0
13.120000 -0.072397 0
13.125000 -0.071622 0
13.130000 -0.070844 0
13.135000 -0.070060 0
13.140000 -0.069260 0
13.145000 -0.068430 0
13.150000 -0.067547 0
13.155000 -0.066577 0
13.160000 -0.065464 0
13.165000 -0.064130 0
13.170000 -0.062462 0
13.175000 -0.060305 0
13.180000 -0.057454 0
13.185000 -0.053651 0
13.190000 -0.048579 0
13.195000 -0.041875 0
13.200000 -0.033144 0
13.205000 -0.021992 0
13.210000 -0.008066 0
13.215000 0.008892 0
13.220000 0.028979 0
13.225000 0.052078 0
13.230000 0.077801 0
13.235000 0.105463 0
13.240000 0.134081 0
13.245000 0.162412 0
13.250000 0.189030 0
13.255000 0.212442 0
13.260000 0.231218 0
13.265000 0.244139 0
13.270000 0.250323 1
13.275000 0.249330 0
13.280000 0.241203 0
13.285000 0.226476 0
13.290000 0.206107 0
13.295000 0.181379 0
13.300000 0.153763 0
13.305000 0.124770 0
13.310000 0.095807 0
13.315000 0.068016 0
13.320000 0.042067 0
13.325000 0.017831 0
13.330000 -0.006088 0
13.335000 -0.032686 0
13.340000 -0.066036 0
13.345000 -0.109070 0
13.350000 -0.159746 0
13.355000 -0.207620 0
13.360000 -0.233634 2
13.365000 -0.213947 0
13.370000 -0.125655 0
13.375000 0.047135 0
13.380000 0.304447 0
13.385000 0.617493 0
13.390000 0.920763 0
13.395000 1.125748 0
13.400000 1.159830 3
13.405000 1.007066 0
13.410000 0.717167 0
13.415000 0.376225 0
13.420000 0.064579 0
13.425000 -0.168213 0
13.430000 -0.304540 0
13.435000 -0.349726 4
13.440000 -0.324451 0
13.445000 -0.258283 0
13.450000 -0.180858 0
13.455000 -0.112961 0
13.460000 -0.062759 0
13.465000 -0.028553 0
13.470000 -0.004466 0
13.475000 0.015116 0
13.480000 0.033814 0
13.485000 0.053418 0
13.490000 0.074605 0
13.495000 0.097524 0
13.500000 0.122085 0
13.505000 0.148078 0
13.510000 0.175206 0
13.515000 0.203098 0
13.520000 0.231316 0
13.525000 0.259362 0
13.530000 0.286693 0
13.535000 0.312739 0
13.540000 0.336915 0
13.545000 0.358650 0
13.550000 0.377402 0
13.555000 0.392686 0
13.560000 0.404089 0
13.565000 0.411291 0
13.570000 0.414080 5
13.575000 0.412358 0
13.580000 0.406150 0
13.585000 0.395600 0
13.590000 0.380967 0
13.595000 0.362613 0
13.600000 0.340990 0
13.605000 0.316615 0
13.610000 0.290057 0
13.615000 0.261908 0
13.620000 0.232767 0
13.625000 0.203212 0
13.630000 0.173789 0
13.635000 0.144990 0
13.640000 0.117246 0
13.645000 0.090915 0
13.650000 0.066280 0
13.655000 0.043548 0
13.660000 0.022852 0
13.665000 0.004256 0
13.670000 -0.012236 0
13.675000 -0.026672 0
13.680000 -0.039143 0
13.685000 -0.049771 0
13.690000 -0.058703 0
13.695000 -0.066099 0
13.700000 -0.072125 0
13.705000 -0.076949 0
13.710000 -0.080732 0
13.715000 -0.083624 0
13.720000 -0.085767 0
13.725000 -0.087285 0
13.730000 -0.088290 0
13.735000 -0.088879 0
13.740000 -0.089133 0
13.745000 -0.089124 0
13.750000 -0.088394 0
13.755000 -0.087546 0
13.760000 -0.086702 0
13.765000 -0.085863 0
13.770000 -0.085027 0
13.775000 -0.084196 0
13.780000 -0.083369 0
13.785000 -0.082546 0
13.790000 -0.081727 0
13.795000 -0.080912 0
13.800000 -0.080101 0
13.805000 -0.079294 0
13.810000 -0.078489 0
13.815000 -0.077687 0
13.820000 -0.076886 0
13.825000 -0.076082 0
13.830000 -0.075271 0
13.835000 -0.074444 0
13.840000 -0.073587 0
13.845000 -0.072677 0
13.850000 -0.071678 0
13.855000 -0.070536 0
13.860000 -0.069171 0
13.865000 -0.067470 0
13.870000 -0.065278 0
13.875000 -0.062390 0
13.880000 -0.058547 0
13.885000 -0.053434 0
13.890000 -0.046688 0
13.895000 -0.037915 0
13.900000 -0.026723 0
13.905000 -0.012759 0
13.910000 0.004230 0
13.915000 0.024344 0
13.920000 0.047464 0
13.925000 0.073204 0
13.930000 0.100882 0
13.935000 0.129520 0
13.940000 0.157880 0
13.945000 0.184543 0
13.950000 0.208020 0
13.955000 0.226886 0
13.960000 0.239921 0
13.965000 0.246242 1
13.970000 0.245401 0
13.975000 0.237433 0
13.980000 0.222861 0
13.985000 0.202631 0
13.990000 0.178016 0
13.995000 0.150477 0
14.000000 0.121524 0
14.005000 0.092562 0
14.010000 0.064740 0
14.015000 0.038746 0
14.020000 0.014484 0
14.025000 -0.009381 0
14.030000 -0.035777 0
14.035000 -0.068752 0
14.040000 -0.111342 0
14.045000 -0.161810 0
14.050000 -0.210158 0
14.055000 -0.237731 2
14.060000 -0.220873 0
14.065000 -0.136573 0
14.070000 0.031543 0
14.075000 0.284653 0
14.080000 0.595976 0
14.085000 0.902206 0
14.090000 1.115583 0
14.095000 1.161467 3
14.100000 1.020975 0
14.105000 0.739378 0
14.110000 0.399443 0
14.115000 0.081611 0
14.120000 -0.162140 0
14.125000 -0.311327 0
14.130000 -0.368688 4
14.135000 -0.352598 0
14.140000 -0.291054 0
14.145000 -0.213664 0
14.150000 -0.142770 0
14.155000 -0.088695 0
14.160000 -0.051333 0
14.165000 -0.025373 0
14.170000 -0.005030 0
14.175000 0.013737 0
14.180000 0.033069 0
14.185000 0.053851 0
14.190000 0.076333 0
14.195000 0.100476 0
14.200000 0.126107 0
14.205000 0.152961 0
14.210000 0.180700 0
14.215000 0.208917 0
14.220000 0.237148 0
14.225000 0.264878 0
14.230000 0.291557 0
14.235000 0.316619 0
14.240000 0.339499 0
14.245000 0.359655 0
14.250000 0.376586 0
14.255000 0.389857 0
14.260000 0.399112 0
14.265000 0.404094 0
14.270000 0.404653 5
14.275000 0.400754 0
14.280000 0.392480 0
14.285000 0.380025 0
14.290000 0.363693 0
14.295000 0.343877 0
14.300000 0.321050 0
14.305000 0.295740 0
14.310000 0.268516 0
14.315000 0.239958 0
14.320000 0.210646 0
14.325000 0.181135 0
14.330000 0.151938 0
14.335000 0.123515 0
14.340000 0.096263 0
14.345000 0.070507 0
14.350000 0.046499 0
14.355000 0.024419 0
14.360000 0.004374 0
14.365000 -0.013588 0
14.370000 -0.029479 0
14.375000 -0.043358 0
14.380000 -0.055322 0
14.385000 -0.065497 0
14.390000 -0.074030 0
14.395000 -0.081078 0
14.400000 -0.086805 0
14.405000 -0.091372 0
14.410000 -0.094937 0
14.415000 -0.097644 0
14.420000 -0.099629 0
14.425000 -0.101012 0
14.430000 -0.101900 0
14.435000 -0.102387 0
14.440000 -0.102550 0
14.445000 -0.102458 0
14.450000 -0.101659 0
14.455000 -0.100745 0
14.460000 -0.099835 0
14.465000 -0.098930 0
14.470000 -0.098030 0
14.475000 -0.097133 0
14.480000 -0.096242 0
14.485000 -0.095355 0
14.490000 -0.094472 0
14.495000 -0.093594 0
14.500000 -0.092719 0
14.505000 -0.091849 0
14.510000 -0.090982 0
14.515000 -0.090118 0
14.520000 -0.089255 0
14.525000 -0.088391 0
14.530000 -0.087520 0
14.535000 -0.086636 0
14.540000 -0.085725 0
14.545000 -0.084767 0
14.550000 -0.083729 0
14.555000 -0.082563 0
14.560000 -0.081196 0
14.565000 -0.079526 0
14.570000 -0.077412 0
14.575000 -0.074667 0
14.580000 -0.071050 0
14.585000 -0.066270 0
14.590000 -0.059984 0
14.595000 -0.051816 0
14.600000 -0.041376 0
14.605000 -0.028306 0
14.610000 -0.012318 0
14.615000 0.006742 0
14.620000 0.028840 0
14.625000 0.053699 0
14.630000 0.080766 0
14.635000 0.109197 0
14.640000 0.137880 0
14.645000 0.165493 0
14.650000 0.190598 0
14.655000 0.211759 0
14.660000 0.227681 0
14.665000 0.237333 0
14.670000 0.240068 1
14.675000 0.235685 0
14.680000 0.224459 0
14.685000 0.207111 0
14.690000 0.184728 0
14.695000 0.158655 0
14.700000 0.130356 0
14.705000 0.101277 0
14.710000 0.072704 0
14.715000 0.045602 0
14.720000 0.020387 0
14.725000 -0.003441 0
14.730000 -0.027747 0
14.735000 -0.055902 0
14.740000 -0.091854 0
14.745000 -0.137469 0
14.750000 -0.188743 0
14.755000 -0.233153 0
14.760000 -0.250524 2
14.765000 -0.217373 0
14.770000 -0.112392 0
14.775000 0.077548 0
14.780000 0.348122 0
14.785000 0.665126 0
14.790000 0.959466 0
14.795000 1.144469 0
14.800000 1.155008 3
14.805000 0.985886 0
14.810000 0.689951 0
14.815000 0.348710 0
14.820000 0.036751 0
14.825000 -0.199494 0
14.830000 -0.342657 0
14.835000 -0.396501 4
14.840000 -0.379132 0
14.845000 -0.317508 0
14.850000 -0.240033 0
14.855000 -0.168378 0
14.860000 -0.112962 0
14.865000 -0.074190 0
14.870000 -0.047182 0
14.875000 -0.026286 0
14.880000 -0.007369 0
14.885000 0.011860 0
14.890000 0.032409 0
14.895000 0.054598 0
14.900000 0.078434 0
14.905000 0.103776 0
14.910000 0.130389 0
14.915000 0.157970 0
14.920000 0.186148 0
14.925000 0.214495 0
14.930000 0.242535 0
14.935000 0.269751 0
14.940000 0.295605 0
14.945000 0.319555 0
14.950000 0.341068 0
14.955000 0.359646 0
14.960000 0.374839 0
14.965000 0.386268 0
14.970000 0.393635 0
14.975000 0.396741 5
14.980000 0.395490 0
14.985000 0.389896 0
14.990000 0.380081 0
14.995000 0.366273 0
15.000000 0.348792 0
15.005000 0.328045 0
15.010000 0.304500 0
15.015000 0.278679 0
15.020000 0.251130 0
15.025000 0.222412 0
15.030000 0.193075 0
15.035000 0.163644 0
15.040000 0.134602 0
15.045000 0.106381 0
15.050000 0.079352 0
15.055000 0.053818 0
15.060000 0.030014 0
15.065000 0.008106 0
15.070000 -0.011805 0
15.075000 -0.029676 0
15.080000 -0.045520 0
15.085000 -0.059391 0
15.090000 -0.071382 0
15.095000 -0.081613 0
15.100000 -0.090221 0
15.105000 -0.097359 0
15.110000 -0.103183 0
15.115000 -0.107847 0
15.120000 -0.111503 0
15.125000 -0.114293 0
15.130000 -0.116349 0
15.135000 -0.117788 0
15.140000 -0.118717 0
15.145000 -0.119229 0
15.150000 -0.119402 0
15.155000 -0.119306 0
15.160000 -0.118895 0
15.165000 -0.117895 0
15.170000 -0.116900 0
15.175000 -0.115910 0
15.180000 -0.114925 0
15.185000 -0.113945 0
15.190000 -0.112969 0
15.195000 -0.111999 0
15.200000 -0.111033 0
15.205000 -0.110072 0
15.210000 -0.109116 0
15.215000 -0.108164 0
15.220000 -0.107216 0
15.225000 -0.106272 0
15.230000 -0.105331 0
15.235000 -0.104391 0
15.240000 -0.103448 0
15.245000 -0.102499 0
15.250000 -0.101534 0
15.255000 -0.100539 0
15.260000 -0.099493 0
15.265000 -0.098361 0
15.270000 -0.097094 0
15.275000 -0.095617 0
15.280000 -0.093829 0
15.285000 -0.091590 0
15.290000 -0.088714 0
15.295000 -0.084970 0
15.300000 -0.080074 0
15.305000 -0.073697 0
15.310000 -0.065478 0
15.315000 -0.055046 0
15.320000 -0.042053 0
15.325000 -0.026222 0
15.330000 -0.007393 0
15.335000 0.014421 0
15.340000 0.038984 0
15.345000 0.065803 0
15.350000 0.094114 0
15.355000 0.122896 0
15.360000 0.150916 0
15.365000 0.176814 0
15.370000 0.199202 0
15.375000 0.216791 0
15.380000 0.228510 0
15.385000 0.233616 1
15.390000 0.231770 0
15.395000 0.223077 0
15.400000 0.208074 0
15.405000 0.187675 0
15.410000 0.163081 0
15.415000 0.135661 0
15.420000 0.106825 0
15.425000 0.077895 0
15.430000 0.049974 0
15.435000 0.023771 0
15.440000 -0.000659 0
15.445000 -0.024308 0
15.450000 -0.049574 0
15.455000 -0.080097 0
15.460000 -0.119324 0
15.465000 -0.167535 0
15.470000 -0.218414 0
15.475000 -0.257479 0
15.480000 -0.263992 2
15.485000 -0.215483 0
15.490000 -0.092807 0
15.495000 0.113955 0
15.500000 0.396086 0
15.505000 0.714986 0
15.510000 1.000152 0
15.515000 1.168695 3
15.520000 1.163976 0
15.525000 0.984470 0
15.530000 0.683730 0
15.535000 0.342266 0
15.540000 0.032295 0
15.545000 -0.201743 0
15.550000 -0.343471 0
15.555000 -0.396855 4
15.560000 -0.379723 0
15.565000 -0.318501 0
15.570000 -0.241099 0
15.575000 -0.169008 0
15.580000 -0.112823 0
15.585000 -0.073272 0
15.590000 -0.045713 0
15.595000 -0.024551 0
15.600000 -0.005598 0
15.605000 0.013526 0
15.610000 0.033897 0
15.615000 0.055877 0
15.620000 0.079497 0
15.625000 0.104629 0
15.630000 0.131055 0
15.635000 0.158487 0
15.640000 0.186571 0
15.645000 0.214897 0
15.650000 0.243002 0
15.655000 0.270389 0
15.660000 0.296532 0
15.665000 0.320899 0
15.670000 0.342965 0
15.675000 0.362231 0
15.680000 0.378244 0
15.685000 0.390615 0
15.690000 0.399031 0
15.695000 0.403271 5
15.700000 0.403211 0
15.705000 0.398836 0
15.710000 0.390236 0
15.715000 0.377602 0
15.720000 0.361224 0
15.725000 0.341473 0
15.730000 0.318792 0
15.735000 0.293677 0
15.740000 0.266657 0
15.745000 0.238279 0
15.750000 0.209089 0
15.755000 0.179611 0
15.760000 0.150337 0
15.765000 0.121713 0
15.770000 0.094126 0
15.775000 0.067901 0
15.780000 0.043298 0
15.785000 0.020510 0
15.790000 -0.000338 0
15.795000 -0.019177 0
15.800000 -0.035997 0
15.805000 -0.050831 0
15.810000 -0.063753 0
15.815000 -0.074869 0
15.820000 -0.084307 0
15.825000 -0.092209 0
15.830000 -0.098726 0
15.835000 -0.104012 0
15.840000 -0.108219 0
15.845000 -0.111489 0
15.850000 -0.113959 0
15.855000 -0.115752 0
15.860000 -0.116979 0
15.865000 -0.117740 0
15.870000 -0.118119 0
15.875000 -0.118190 0
15.880000 -0.118016 0
15.885000 -0.117139 0
15.890000 -0.116148 0
15.895000 -0.115162 0
15.900000 -0.114180 0
15.905000 -0.113204 0
15.910000 -0.112232 0
15.915000 -0.111265 0
15.920000 -0.110303 0
15.925000 -0.109346 0
15.930000 -0.108393 0
15.935000 -0.107445 0
15.940000 -0.106501 0
15.945000 -0.105562 0
15.950000 -0.104626 0
15.955000 -0.103692 0
15.960000 -0.102759 0
15.965000 -0.101823 0
15.970000 -0.100879 0
15.975000 -0.099917 0
15.980000 -0.098922 0
15.985000 -0.097873 0
15.990000 -0.096732 0
15.995000 -0.095448 0
16.000000 -0.093946 0
16.005000 -0.092120 0
16.010000 -0.089829 0
16.015000 -0.086888 0
16.020000 -0.083062 0
16.025000 -0.078070 0
16.030000 -0.071588 0
16.035000 -0.063258 0
16.040000 -0.052717 0
16.045000 -0.039629 0
16.050000 -0.023722 0
16.055000 -0.004846 0
16.060000 0.016983 0
16.065000 0.041532 0
16.070000 0.068317 0
16.075000 0.096593 0
16.080000 0.125362 0
16.085000 0.153421 0
16.090000 0.179440 0
16.095000 0.202056 0
16.100000 0.219997 0
16.105000 0.232194 0
16.110000 0.237889 1
16.115000 0.236713 0
16.120000 0.228726 0
16.125000 0.214411 0
16.130000 0.194623 0
16.135000 0.170511 0
16.140000 0.143403 0
16.145000 0.114682 0
16.150000 0.085667 0
16.155000 0.057486 0
16.160000 0.030919 0
16.165000 0.006168 0
16.170000 -0.017503 0
16.175000 -0.042144 0
16.180000 -0.071128 0
16.185000 -0.108090 0
16.190000 -0.154370 0
16.195000 -0.205634 0
16.200000 -0.249705 0
16.205000 -0.267512 2
16.210000 -0.236985 0
16.215000 -0.137902 0
16.220000 0.042927 0
16.225000 0.303796 0
16.230000 0.617084 0
16.235000 0.922905 0
16.240000 1.140444 0
16.245000 1.200000 3
16.250000 1.076577 0
16.255000 0.806973 0
16.260000 0.469402 0
16.265000 0.144194 0
16.270000 -0.113605 0
16.275000 -0.279734 0
16.280000 -0.353568 4
16.285000 -0.350509 0
16.290000 -0.296370 0
16.295000 -0.220337 0
16.300000 -0.146399 0
16.305000 -0.087573 0
16.310000 -0.046002 0
16.315000 -0.017389 0
16.320000 0.004091 0
16.325000 0.022976 0
16.330000 0.041888 0
16.335000 0.062020 0
16.340000 0.083782 0
16.345000 0.107213 0
16.350000 0.132188 0
16.355000 0.158483 0
16.360000 0.185798 0
16.365000 0.213768 0
16.370000 0.241965 0
16.375000 0.269911 0
16.380000 0.297087 0
16.385000 0.322951 0
16.390000 0.346952 0
16.395000 0.368548 0
16.400000 0.387232 0
16.405000 0.402543 0
16.410000 0.414090 0
16.415000 0.421568 0
16.420000 0.424766 5
16.425000 0.423582 0
16.430000 0.418025 0
16.435000 0.408213 0
16.440000 0.394374 0
16.445000 0.376830 0
16.450000 0.355990 0
16.455000 0.332330 0
16.460000 0.306375 0
16.465000 0.278681 0
16.470000 0.249815 0
16.475000 0.220333 0
16.480000 0.190766 0
16.485000 0.161604 0
16.490000 0.133281 0
16.495000 0.106170 0
16.500000 0.080577 0
16.505000 0.056735 0
16.510000 0.034809 0
16.515000 0.014898 0
16.520000 -0.002960 0
16.525000 -0.018779 0
16.530000 -0.032620 0
16.535000 -0.044579 0
16.540000 -0.054777 0
16.545000 -0.063359 0
16.550000 -0.070478 0
16.555000 -0.076291 0
16.560000 -0.080957 0
16.565000 -0.084626 0
16.570000 -0.087442 0
16.575000 -0.089535 0
16.580000 -0.091025 0
16.585000 -0.092016 0
16.590000 -0.092600 0
16.595000 -0.092856 0
16.600000 -0.092850 0
16.605000 -0.092105 0
16.610000 -0.091238 0
16.615000 -0.090376 0
16.620000 -0.089518 0
16.625000 -0.088665 0
16.630000 -0.087816 0
16.635000 -0.086970 0
16.640000 -0.086130 0
16.645000 -0.085293 0
16.650000 -0.084460 0
16.655000 -0.083632 0
16.660000 -0.082807 0
16.665000 -0.081985 0
16.670000 -0.081167 0
16.675000 -0.080350 0
16.680000 -0.079533 0
16.685000 -0.078712 0
16.690000 -0.077881 0
16.695000 -0.077030 0
16.700000 -0.076143 0
16.705000 -0.075194 0
16.710000 -0.074144 0
16.715000 -0.072937 0
16.720000 -0.071488 0
16.725000 -0.069681 0
16.730000 -0.067361 0
16.735000 -0.064324 0
16.740000 -0.060316 0
16.745000 -0.055032 0
16.750000 -0.048126 0
16.755000 -0.039223 0
16.760000 -0.027954 0
16.765000 -0.013987 0
16.770000 0.002918 0
16.775000 0.022860 0
16.780000 0.045740 0
16.785000 0.071214 0
16.790000 0.098670 0
16.795000 0.127219 0
16.800000 0.155725 0
16.805000 0.182874 0
16.810000 0.207260 0
16.815000 0.227507 0
16.820000 0.242394 0
16.825000 0.250980 0
16.830000 0.252695 1
16.835000 0.247409 0
16.840000 0.235443 0
16.845000 0.217537 0
16.850000 0.194774 0
16.855000 0.168471 0
16.860000 0.140053 0
16.865000 0.110918 0
16.870000 0.082307 0
16.875000 0.055152 0
16.880000 0.029860 0
16.885000 0.005966 0
16.890000 -0.018287 0
16.895000 -0.046110 0
16.900000 -0.081363 0
16.905000 -0.126157 0
16.910000 -0.177305 0
16.915000 -0.223595 0
16.920000 -0.246193 2
16.925000 -0.222438 0
16.930000 -0.130976 0
16.935000 0.042809 0
16.940000 0.298795 0
16.945000 0.610508 0
16.950000 0.917687 0
16.955000 1.137244 0
16.960000 1.196800 3
16.965000 1.069593 0
16.970000 0.794957 0
16.975000 0.455883 0
16.980000 0.135414 0
16.985000 -0.111846 0
16.990000 -0.263911 0
16.995000 -0.323016 4
17.000000 -0.307650 0
17.005000 -0.246294 0
17.010000 -0.169109 0
17.015000 -0.098738 0
17.020000 -0.045444 0
17.025000 -0.008877 0
17.030000 0.016465 0
17.035000 0.036418 0
17.040000 0.054976 0
17.045000 0.074206 0
17.050000 0.094943 0
17.055000 0.117402 0
17.060000 0.141528 0
17.065000 0.167131 0
17.070000 0.193933 0
17.075000 0.221579 0
17.080000 0.249646 0
17.085000 0.277652 0
17.090000 0.305064 0
17.095000 0.331318 0
17.100000 0.355836 0
17.105000 0.378044 0
17.110000 0.397395 0
17.115000 0.413392 0
17.120000 0.425605 0
17.125000 0.433696 0
17.130000 0.437425 5
17.135000 0.436669 0
17.140000 0.431422 0
17.145000 0.421800 0
17.150000 0.408033 0
17.155000 0.390457 0
17.160000 0.369501 0
17.165000 0.345665 0
17.170000 0.319503 0
17.175000 0.291601 0
17.180000 0.262554 0
17.185000 0.232945 0
17.190000 0.203327 0
17.195000 0.174205 0
17.200000 0.146025 0
17.205000 0.119164 0
17.210000 0.093924 0
17.215000 0.070532 0
17.220000 0.049141 0
17.225000 0.029833 0
17.230000 0.012629 0
17.235000 -0.002505 0
17.240000 -0.015647 0
17.245000 -0.026912 0
17.250000 -0.036440 0
17.255000 -0.044385 0
17.260000 -0.050913 0
17.265000 -0.056190 0
17.270000 -0.060379 0
17.275000 -0.063633 0
17.280000 -0.066095 0
17.285000 -0.067896 0
17.290000 -0.069151 0
17.295000 -0.069960 0
17.300000 -0.070410 0
17.305000 -0.070575 0
17.310000 -0.070414 0
17.315000 -0.069656 0
17.320000 -0.068901 0
17.325000 -0.068150 0
17.330000 -0.067403 0
17.335000 -0.066660 0
17.340000 -0.065920 0
17.345000 -0.065185 0
17.350000 -0.064452 0
17.355000 -0.063724 0
17.360000 -0.062998 0
17.365000 -0.062276 0
17.370000 -0.061557 0
17.375000 -0.060840 0
17.380000 -0.060124 0
17.385000 -0.059407 0
17.390000 -0.058684 0
17.395000 -0.057949 0
17.400000 -0.057190 0
17.405000 -0.056387 0
17.410000 -0.055511 0
17.415000 -0.054516 0
17.420000 -0.053332 0
17.425000 -0.051863 0
17.430000 -0.049971 0
17.435000 -0.047473 0
17.440000 -0.044134 0
17.445000 -0.039662 0
17.450000 -0.033714 0
17.455000 -0.025909 0
17.460000 -0.015852 0
17.465000 -0.003168 0
17.470000 0.012441 0
17.475000 0.031148 0
17.480000 0.052934 0
17.485000 0.077533 0
17.490000 0.104397 0
17.495000 0.132676 0
17.500000 0.161245 0
17.505000 0.188762 0
17.510000 0.213759 0
17.515000 0.234774 0
17.520000 0.250485 0
17.525000 0.259849 0
17.530000 0.262215 1
17.535000 0.257397 0
17.540000 0.245696 0
17.545000 0.227870 0
17.550000 0.205049 0
17.555000 0.178617 0
17.560000 0.150071 0
17.565000 0.120877 0
17.570000 0.092318 0
17.575000 0.065329 0
17.580000 0.040239 0
17.585000 0.016376 0
17.590000 -0.008391 0
17.595000 -0.037691 0
17.600000 -0.075426 0
17.605000 -0.122731 0
17.610000 -0.174040 0
17.615000 -0.214871 0
17.620000 -0.223541 2
17.625000 -0.176117 0
17.630000 -0.052153 0
17.635000 0.158597 0
17.640000 0.445431 0
17.645000 0.764271 0
17.650000 1.037168 0
17.655000 1.177381 3
17.660000 1.131222 0
17.665000 0.911049 0
17.670000 0.587992 0
17.675000 0.251492 0
17.680000 -0.029179 0
17.685000 -0.219053 0
17.690000 -0.311938 0
17.695000 -0.321141 4
17.700000 -0.272741 0
17.705000 -0.197978 0
17.710000 -0.123493 0
17.715000 -0.064157 0
17.720000 -0.022673 0
17.725000 0.005507 0
17.730000 0.026589 0
17.735000 0.045289 0
17.740000 0.064229 0
17.745000 0.084540 0
17.750000 0.106568 0
17.755000 0.130310 0
17.760000 0.155602 0
17.765000 0.182180 0
17.770000 0.209699 0
17.775000 0.237744 0
17.780000 0.265834 0
17.785000 0.293437 0
17.790000 0.319982 0
17.795000 0.344881 0
17.800000 0.367546 0
17.805000 0.387413 0
17.810000 0.403967 0
17.815000 0.416759 0
17.820000 0.425428 0
17.825000 0.429717 5
17.830000 0.429486 0
17.835000 0.424715 0
17.840000 0.415510 0
17.845000 0.402097 0
17.850000 0.384808 0
17.855000 0.364075 0
17.860000 0.340403 0
17.865000 0.314356 0
17.870000 0.286529 0
17.875000 0.257529 0
17.880000 0.227950 0
17.885000 0.198357 0
17.890000 0.169265 0
17.895000 0.141128 0
17.900000 0.114328 0
17.905000 0.089172 0
17.910000 0.065889 0
17.915000 0.044630 0
17.920000 0.025477 0
17.925000 0.008446 0
17.930000 -0.006501 0
17.935000 -0.019447 0
17.940000 -0.030511 0
17.945000 -0.039838 0
17.950000 -0.047587 0
17.955000 -0.053927 0
17.960000 -0.059028 0
17.965000 -0.063053 0
17.970000 -0.066159 0
17.975000 -0.068489 0
17.980000 -0.070172 0
17.985000 -0.071324 0
17.990000 -0.072045 0
17.995000 -0.072419 0
18.000000 -0.072520 0
18.005000 -0.071876 0
18.010000 -0.071111 0
18.015000 -0.070349 0
18.020000 -0.069591 0
18.025000 -0.068837 0
18.030000 -0.068086 0
18.035000 -0.067340 0
18.040000 -0.066597 0
18.045000 -0.065857 0
18.050000 -0.065122 0
18.055000 -0.064389 0
18.060000 -0.063660 0
18.065000 -0.062934 0
18.070000 -0.062209 0
18.075000 -0.061485 0
18.080000 -0.060758 0
18.085000 -0.060024 0
18.090000 -0.059273 0
18.095000 -0.058490 0
18.100000 -0.057654 0
18.105000 -0.056726 0
18.110000 -0.055651 0
18.115000 -0.054347 0
18.120000 -0.052697 0
18.125000 -0.050543 0
18.130000 -0.047672 0
18.135000 -0.043819 0
18.140000 -0.038659 0
18.145000 -0.031821 0
18.150000 -0.022906 0
18.155000 -0.011516 0
18.160000 0.002697 0
18.165000 0.019978 0
18.170000 0.040404 0
18.175000 0.063825 0
18.180000 0.089811 0
18.185000 0.117629 0
18.190000 0.146247 0
18.195000 0.174376 0
18.200000 0.200558 0
18.205000 0.223285 0
18.210000 0.241137 0
18.215000 0.252930 0
18.220000 0.257843 1
18.225000 0.255512 0
18.230000 0.246075 0
18.235000 0.230155 0
18.240000 0.208790 0
18.245000 0.183326 0
18.250000 0.155268 0
18.255000 0.126134 0
18.260000 0.097302 0
18.265000 0.069843 0
18.270000 0.044291 0
18.275000 0.020268 0
18.280000 -0.003997 0
18.285000 -0.031887 0
18.290000 -0.067517 0
18.295000 -0.112995 0
18.300000 -0.164362 0
18.305000 -0.208671 0
18.310000 -0.224901 2
18.315000 -0.188646 0
18.320000 -0.078048 0
18.325000 0.119595 0
18.330000 0.397452 0
18.335000 0.715905 0
18.340000 0.999254 0
18.345000 1.158053 3
18.350000 1.133506 0
18.355000 0.930844 0
18.360000 0.615500 0
18.365000 0.276246 0
18.370000 -0.014456 0
18.375000 -0.217578 0
18.380000 -0.323695 0
18.385000 -0.343697 4
18.390000 -0.301953 0
18.395000 -0.229232 0
18.400000 -0.153238 0
18.405000 -0.090802 0
18.410000 -0.046357 0
18.415000 -0.016197 0
18.420000 0.005849 0
18.425000 0.024822 0
18.430000 0.043676 0
18.435000 0.063755 0
18.440000 0.085510 0
18.445000 0.108988 0
18.450000 0.134050 0
18.455000 0.160454 0
18.460000 0.187876 0
18.465000 0.215919 0
18.470000 0.244120 0
18.475000 0.271965 0
18.480000 0.298895 0
18.485000 0.324331 0
18.490000 0.347688 0
18.495000 0.368401 0
18.500000 0.385944 0
18.505000 0.399854 0
18.510000 0.409749 0
18.515000 0.415345 0
18.520000 0.416469 5
18.525000 0.413070 0
18.530000 0.405216 0
18.535000 0.393096 0
18.540000 0.377010 0
18.545000 0.357356 0
18.550000 0.334615 0
18.555000 0.309329 0
18.560000 0.282080 0
18.565000 0.253468 0
18.570000 0.224086 0
18.575000 0.194507 0
18.580000 0.165257 0
18.585000 0.136810 0
18.590000 0.109567 0
18.595000 0.083862 0
18.600000 0.059946 0
18.605000 0.037998 0
18.610000 0.018123 0
18.615000 0.000360 0
18.620000 -0.015308 0
18.625000 -0.028949 0
18.630000 -0.040668 0
18.635000 -0.050599 0
18.640000 -0.058894 0
18.645000 -0.065720 0
18.650000 -0.071243 0
18.655000 -0.075629 0
18.660000 -0.079037 0
18.665000 -0.081613 0
18.670000 -0.083492 0
18.675000 -0.084795 0
18.680000 -0.085627 0
18.685000 -0.086078 0
18.690000 -0.086227 0
18.695000 -0.086028 0
18.700000 -0.085192 0
18.705000 -0.084360 0
18.710000 -0.083532 0
18.715000 -0.082709 0
18.720000 -0.081889 0
18.725000 -0.081073 0
18.730000 -0.080262 0
18.735000 -0.079454 0
18.740000 -0.078651 0
18.745000 -0.077851 0
18.750000 -0.077055 0
18.755000 -0.076263 0
18.760000 -0.075473 0
18.765000 -0.074685 0
18.770000 -0.073896 0
18.775000 -0.073102 0
18.780000 -0.072298 0
18.785000 -0.071473 0
18.790000 -0.070607 0
18.795000 -0.069674 0
18.800000 -0.068628 0
18.805000 -0.067406 0
18.810000 -0.065911 0
18.815000 -0.064011 0
18.820000 -0.061529 0
18.825000 -0.058232 0
18.830000 -0.053834 0
18.835000 -0.047993 0
18.840000 -0.040327 0
18.845000 -0.030438 0
18.850000 -0.017945 0
18.855000 -0.002536 0
18.860000 0.015977 0
18.865000 0.037593 0
18.870000 0.062066 0
18.875000 0.088862 0
18.880000 0.117148 0
18.885000 0.145805 0
18.890000 0.173488 0
18.895000 0.198721 0
18.900000 0.220024 0
18.905000 0.236054 0
18.910000 0.245744 0
18.915000 0.248419 1
18.920000 0.243876 0
18.925000 0.232404 0
18.930000 0.214757 0
18.935000 0.192069 0
18.940000 0.165734 0
18.945000 0.137263 0
18.950000 0.108133 0
18.955000 0.079641 0
18.960000 0.052729 0
18.965000 0.027722 0
18.970000 0.003925 0
18.975000 -0.020839 0
18.980000 -0.050255 0
18.985000 -0.088232 0
18.990000 -0.135762 0
18.995000 -0.186929 0
19.000000 -0.226773 0
19.005000 -0.233197 2
19.010000 -0.182092 0
19.015000 -0.053186 0
19.020000 0.162970 0
19.025000 0.453793 0
19.030000 0.772288 0
19.035000 1.038020 0
19.040000 1.164550 3
19.045000 1.104366 0
19.050000 0.875401 0
19.055000 0.549626 0
19.060000 0.214239 0
19.065000 -0.064275 0
19.070000 -0.252640 0
19.075000 -0.345168 0
19.080000 -0.354901 4
19.085000 -0.307233 0
19.090000 -0.232687 0
19.095000 -0.157592 0
19.100000 -0.097055 0
19.105000 -0.054285 0
19.110000 -0.025121 0
19.115000 -0.003472 0
19.120000 0.015460 0
19.125000 0.034428 0
19.130000 0.054666 0
19.135000 0.076581 0
19.140000 0.100201 0
19.145000 0.125384 0
19.150000 0.151885 0
19.155000 0.179382 0
19.160000 0.207482 0
19.165000 0.235727 0
19.170000 0.263607 0
19.175000 0.290573 0
19.180000 0.316051 0
19.185000 0.339466 0
19.190000 0.360260 0
19.195000 0.377914 0
19.200000 0.391970 0
19.205000 0.402048 0
19.210000 0.407866 0
19.215000 0.409247 5
19.220000 0.406136 0
19.225000 0.398593 0
19.230000 0.386797 0
19.235000 0.371038 0
19.240000 0.351701 0
19.245000 0.329255 0
19.250000 0.304229 0
19.255000 0.277195 0
19.260000 0.248744 0
19.265000 0.219463 0
19.270000 0.189920 0
19.275000 0.160641 0
19.280000 0.132099 0
19.285000 0.104702 0
19.290000 0.078788 0
19.295000 0.054619 0
19.300000 0.032380 0
19.305000 0.012187 0
19.310000 -0.005909 0
19.315000 -0.021919 0
19.320000 -0.035898 0
19.325000 -0.047945 0
19.330000 -0.058188 0
19.335000 -0.066773 0
19.340000 -0.073862 0
19.345000 -0.079620 0
19.350000 -0.084211 0
19.355000 -0.087794 0
19.360000 -0.090517 0
19.365000 -0.092515 0
19.370000 -0.093912 0
19.375000 -0.094814 0
19.380000 -0.095316 0
19.385000 -0.095496 0
19.390000 -0.095423 0
19.395000 -0.094657 0
19.400000 -0.093778 0
19.405000 -0.092903 0
19.410000 -0.092032 0
19.415000 -0.091166 0
19.420000 -0.090304 0
19.425000 -0.089447 0
19.430000 -0.088594 0
19.435000 -0.087745 0
19.440000 -0.086900 0
19.445000 -0.086059 0
19.450000 -0.085222 0
19.455000 -0.084388 0
19.460000 -0.083556 0
19.465000 -0.082725 0
19.470000 -0.081891 0
19.475000 -0.081051 0
19.480000 -0.080194 0
19.485000 -0.079306 0
19.490000 -0.078365 0
19.495000 -0.077333 0
19.500000 -0.076158 0
19.505000 -0.074758 0
19.510000 -0.073022 0
19.515000 -0.070795 0
19.520000 -0.067874 0
19.525000 -0.064002 0
19.530000 -0.058865 0
19.535000 -0.052107 0
19.540000 -0.043337 0
19.545000 -0.032165 0
19.550000 -0.018244 0
19.555000 -0.001317 0
19.560000 0.018717 0
19.565000 0.041751 0
19.570000 0.067413 0
19.575000 0.095040 0
19.580000 0.123677 0
19.585000 0.152113 0
19.590000 0.178950 0
19.595000 0.202714 0
19.600000 0.221986 0
19.605000 0.235539 0
19.610000 0.242468 1
19.615000 0.242290 0
19.620000 0.234999 0
19.625000 0.221066 0
19.630000 0.201391 0
19.635000 0.177205 0
19.640000 0.149944 0
19.645000 0.121102 0
19.650000 0.092091 0
19.655000 0.064090 0
19.660000 0.037854 0
19.665000 0.013419 0
19.670000 -0.010337 0
19.675000 -0.036082 0
19.680000 -0.067744 0
19.685000 -0.108705 0
19.690000 -0.158286 0
19.695000 -0.208087 0
19.700000 -0.240944 2
19.705000 -0.233920 0
19.710000 -0.163693 0
19.715000 -0.012311 0
19.720000 0.225167 0
19.725000 0.528706 0
19.730000 0.842835 0
19.735000 1.083284 0
19.740000 1.169560 3
19.745000 1.068508 0
19.750000 0.811931 0
19.755000 0.477408 0
19.760000 0.148834 0
19.765000 -0.114540 0
19.770000 -0.285732 0
19.775000 -0.362979 4
19.780000 -0.361560 0
19.785000 -0.307805 0
19.790000 -0.231716 0
19.795000 -0.157918 0
19.800000 -0.099590 0
19.805000 -0.058661 0
19.810000 -0.030560 0
19.815000 -0.009325 0
19.820000 0.009560 0
19.825000 0.028638 0
19.830000 0.049029 0
19.835000 0.071091 0
19.840000 0.094838 0
19.845000 0.120123 0
19.850000 0.146702 0
19.855000 0.174255 0
19.860000 0.202392 0
19.865000 0.230663 0
19.870000 0.258566 0
19.875000 0.285561 0
19.880000 0.311084 0
19.885000 0.334569 0
19.890000 0.355469 0
19.895000 0.373270 0
19.900000 0.387521 0
19.905000 0.397844 0
19.910000 0.403955 0
19.915000 0.405677 5
19.920000 0.402944 0
19.925000 0.395807 0
19.930000 0.384433 0
19.935000 0.369096 0
19.940000 0.350166 0
19.945000 0.328095 0
19.950000 0.303398 0
19.955000 0.276632 0
19.960000 0.248377 0
19.965000 0.219213 0
19.970000 0.189701 0
19.975000 0.160366 0
19.980000 0.131684 0
19.985000 0.104069 0
19.990000 0.077864 0
19.995000 0.053343 0
20.000000 0.030705 0
20.005000 0.010076 0
20.010000 -0.008480 0
20.015000 -0.024959 0
20.020000 -0.039407 0
20.025000 -0.051911 0
20.030000 -0.062589 0
20.035000 -0.071582 0
20.040000 -0.079046 0
20.045000 -0.085143 0
20.050000 -0.090035 0
20.055000 -0.093880 0
20.060000 -0.096827 0
20.065000 -0.099013 0
20.070000 -0.100564 0
20.075000 -0.101591 0
20.080000 -0.102189 0
20.085000 -0.102443 0
20.090000 -0.102422 0
20.095000 -0.101634 0
20.100000 -0.100720 0
20.105000 -0.099810 0
20.110000 -0.098905 0
20.115000 -0.098005 0
20.120000 -0.097109 0
20.125000 -0.096218 0
20.130000 -0.095331 0
20.135000 -0.094448 0
20.140000 -0.093570 0
20.145000 -0.092696 0
20.150000 -0.091826 0
20.155000 -0.090959 0
20.160000 -0.090096 0
20.165000 -0.089234 0
20.170000 -0.088372 0
20.175000 -0.087506 0
20.180000 -0.086629 0
20.185000 -0.085730 0
20.190000 -0.084792 0
20.195000 -0.083786 0
20.200000 -0.082670 0
20.205000 -0.081380 0
20.210000 -0.079826 0
20.215000 -0.077879 0
20.220000 -0.075369 0
20.225000 -0.072076 0
20.230000 -0.067724 0
20.235000 -0.061987 0
20.240000 -0.054500 0
20.245000 -0.044875 0
20.250000 -0.032738 0
20.255000 -0.017773 0
20.260000 0.000226 0
20.265000 0.021295 0
20.270000 0.045248 0
20.275000 0.071630 0
20.280000 0.099698 0
20.285000 0.128432 0
20.290000 0.156576 0
20.295000 0.182725 0
20.300000 0.205429 0
20.305000 0.223332 0
20.310000 0.235298 0
20.315000 0.240536 1
20.320000 0.238681 0
20.325000 0.229840 0
20.330000 0.214578 0
20.335000 0.193861 0
20.340000 0.168952 0
20.345000 0.141287 0
20.350000 0.112329 0
20.355000 0.083436 0
20.360000 0.055710 0
20.365000 0.029801 0
20.370000 0.005596 0
20.375000 -0.018217 0
20.380000 -0.044479 0
20.385000 -0.077126 0
20.390000 -0.119209 0
20.395000 -0.169352 0
20.400000 -0.218361 0
20.405000 -0.248612 2
20.410000 -0.237285 0
20.415000 -0.161659 0
20.420000 -0.004705 0
20.425000 0.237281 0
20.430000 0.542888 0
20.435000 0.855909 0
20.440000 1.092846 0
20.445000 1.175264 3
20.450000 1.072759 0
20.455000 0.817113 0
20.460000 0.483353 0
20.465000 0.153099 0
20.470000 -0.115007 0
20.475000 -0.293218 0
20.480000 -0.378380 0
20.485000 -0.384072 4
20.490000 -0.334965 0
20.495000 -0.260167 0
20.500000 -0.184731 0
20.505000 -0.123274 0
20.510000 -0.079250 0
20.515000 -0.048975 0
20.520000 -0.026631 0
20.525000 -0.007429 0
20.530000 0.011511 0
20.535000 0.031550 0
20.540000 0.053182 0
20.545000 0.076488 0
20.550000 0.101360 0
20.555000 0.127591 0
20.560000 0.154892 0
20.565000 0.182911 0
20.570000 0.211231 0
20.575000 0.239386 0
20.580000 0.266864 0
20.585000 0.293128 0
20.590000 0.317628 0
20.595000 0.339826 0
20.600000 0.359205 0
20.605000 0.375298 0
20.610000 0.387702 0
20.615000 0.396095 0
20.620000 0.400249 5
20.625000 0.400042 0
20.630000 0.395460 0
20.635000 0.386600 0
20.640000 0.373667 0
20.645000 0.356965 0
20.650000 0.336885 0
20.655000 0.313886 0
20.660000 0.288485 0
20.665000 0.261231 0
20.670000 0.232686 0
20.675000 0.203408 0
20.680000 0.173933 0
20.685000 0.144758 0
20.690000 0.116329 0
20.695000 0.089032 0
20.700000 0.063186 0
20.705000 0.039040 0
20.710000 0.016773 0
20.715000 -0.003501 0
20.720000 -0.021730 0
20.725000 -0.037918 0
20.730000 -0.052115 0
20.735000 -0.064407 0
20.740000 -0.074912 0
20.745000 -0.083768 0
20.750000 -0.091125 0
20.755000 -0.097141 0
20.760000 -0.101973 0
20.765000 -0.105773 0
20.770000 -0.108686 0
20.775000 -0.110847 0
20.780000 -0.112376 0
20.785000 -0.113382 0
20.790000 -0.113959 0
20.795000 -0.114189 0
20.800000 -0.114141 0
20.805000 -0.113771 0
20.810000 -0.112797 0
20.815000 -0.111827 0
20.820000 -0.110862 0
20.825000 -0.109902 0
20.830000 -0.108947 0
20.835000 -0.107996 0
20.840000 -0.107051 0
20.845000 -0.106110 0
20.850000 -0.105173 0
20.855000 -0.104241 0
20.860000 -0.103314 0
20.865000 -0.102390 0
20.870000 -0.101470 0
20.875000 -0.100553 0
20.880000 -0.099637 0
20.885000 -0.098719 0
20.890000 -0.097793 0
20.895000 -0.096852 0
20.900000 -0.095881 0
20.905000 -0.094858 0
20.910000 -0.093750 0
20.915000 -0.092505 0
20.920000 -0.091049 0
20.925000 -0.089280 0
20.930000 -0.087054 0
20.935000 -0.084186 0
20.940000 -0.080439 0
20.945000 -0.075527 0
20.950000 -0.069117 0
20.955000 -0.060844 0
20.960000 -0.050333 0
20.965000 -0.037238 0
20.970000 -0.021280 0
20.975000 -0.002307 0
20.980000 0.019657 0
20.985000 0.044359 0
20.990000 0.071286 0
20.995000 0.099649 0
21.000000 0.128401 0
21.005000 0.156287 0
21.010000 0.181927 0
21.015000 0.203927 0
21.020000 0.221000 0
21.025000 0.232092 0
21.030000 0.236491 1
21.035000 0.233900 0
21.040000 0.224470 0
21.045000 0.208788 0
21.050000 0.187814 0
21.055000 0.162786 0
21.060000 0.135095 0
21.065000 0.106160 0
21.070000 0.077292 0
21.075000 0.049562 0
21.080000 0.023613 0
21.085000 -0.000627 0
21.090000 -0.024349 0
21.095000 -0.050195 0
21.100000 -0.081942 0
21.105000 -0.122785 0
21.110000 -0.172128 0
21.115000 -0.222234 0
21.120000 -0.257171 2
21.125000 -0.255348 0
21.130000 -0.194341 0
21.135000 -0.056055 0
21.140000 0.166799 0
21.145000 0.460370 0
21.150000 0.778941 0
21.155000 1.046519 0
21.160000 1.181435 3
21.165000 1.137114 0
21.170000 0.925363 0
21.175000 0.608751 0
21.180000 0.268822 0
21.185000 -0.027249 0
21.190000 -0.241562 0
21.195000 -0.362884 0
21.200000 -0.398716 4
21.205000 -0.369310 0
21.210000 -0.302167 0
21.215000 -0.224440 0
21.220000 -0.155406 0
21.225000 -0.103186 0
21.230000 -0.066852 0
21.235000 -0.041208 0
21.240000 -0.020848 0
21.245000 -0.002005 0
21.250000 0.017350 0
21.255000 0.038081 0
21.260000 0.060450 0
21.265000 0.084441 0
21.270000 0.109903 0
21.275000 0.136598 0
21.280000 0.164222 0
21.285000 0.192406 0
21.290000 0.220727 0
21.295000 0.248712 0
21.300000 0.275854 0
21.305000 0.301625 0
21.310000 0.325489 0
21.315000 0.346927 0
21.320000 0.365448 0
21.325000 0.380612 0
21.330000 0.392047 0
21.335000 0.399460 0
21.340000 0.402653 5
21.345000 0.401529 0
21.350000 0.396099 0
21.355000 0.386478 0
21.360000 0.372884 0
21.365000 0.355627 0
21.370000 0.335100 0
21.375000 0.311761 0
21.380000 0.286116 0
21.385000 0.258703 0
21.390000 0.230071 0
21.395000 0.200762 0
21.400000 0.171296 0
21.405000 0.142153 0
21.410000 0.113765 0
21.415000 0.086506 0
21.420000 0.060685 0
21.425000 0.036543 0
21.430000 0.014256 0
21.435000 -0.006064 0
21.440000 -0.024367 0
21.445000 -0.040653 0
21.450000 -0.054968 0
21.455000 -0.067395 0
21.460000 -0.078047 0
21.465000 -0.087056 0
21.470000 -0.094567 0
21.475000 -0.100735 0
21.480000 -0.105712 0
21.485000 -0.109647 0
21.490000 -0.112684 0
21.495000 -0.114955 0
21.500000 -0.116580 0
21.505000 -0.117667 0
21.510000 -0.118312 0
21.515000 -0.118597 0
21.520000 -0.118592 0
21.525000 -0.118246 0
21.530000 -0.117249 0
21.535000 -0.116257 0
21.540000 -0.115270 0
21.545000 -0.114288 0
21.550000 -0.113311 0
21.555000 -0.112339 0
21.560000 -0.111371 0
21.565000 -0.110409 0
21.570000 -0.109451 0
21.575000 -0.108498 0
21.580000 -0.107549 0
21.585000 -0.106605 0
21.590000 -0.105664 0
21.595000 -0.104727 0
21.600000 -0.103792 0
21.605000 -0.102857 0
21.610000 -0.101917 0
21.615000 -0.100967 0
21.620000 -0.099995 0
21.625000 -0.098986 0
21.630000 -0.097911 0
21.635000 -0.096733 0
21.640000 -0.095391 0
21.645000 -0.093802 0
21.650000 -0.091852 0
21.655000 -0.089384 0
21.660000 -0.086200 0
21.665000 -0.082051 0
21.670000 -0.076639 0
21.675000 -0.069629 0
21.680000 -0.060659 0
21.685000 -0.049368 0
21.690000 -0.035434 0
21.695000 -0.018618 0
21.700000 0.001185 0
21.705000 0.023897 0
21.710000 0.049209 0
21.715000 0.076555 0
21.720000 0.105106 0
21.725000 0.133791 0
21.730000 0.161358 0
21.735000 0.186450 0
21.740000 0.207719 0
21.745000 0.223941 0
21.750000 0.234135 0
21.755000 0.237659 1
21.760000 0.234278 0
21.765000 0.224190 0
21.770000 0.208006 0
21.775000 0.186689 0
21.780000 0.161459 0
21.785000 0.133678 0
21.790000 0.104726 0
21.795000 0.075875 0
21.800000 0.048161 0
21.805000 0.022207 0
21.810000 -0.002048 0
21.815000 -0.025739 0
21.820000 -0.051394 0
21.825000 -0.082666 0
21.830000 -0.122788 0
21.835000 -0.171577 0
21.840000 -0.222185 0
21.845000 -0.259822 0
21.850000 -0.263852 2
21.855000 -0.212250 0
21.860000 -0.086484 0
21.865000 0.122707 0
21.870000 0.406079 0
21.875000 0.725062 0
21.880000 1.010088 0
21.885000 1.179679 3
21.890000 1.176034 0
21.895000 0.995794 0
21.900000 0.693793 0
21.905000 0.352304 0
21.910000 0.044467 0
21.915000 -0.185455 0
21.920000 -0.321882 0
21.925000 -0.369830 4
21.930000 -0.348286 0
21.935000 -0.284646 0
21.940000 -0.207117 0
21.945000 -0.136631 0
21.950000 -0.082735 0
21.955000 -0.045234 0
21.960000 -0.019040 0
21.965000 0.001439 0
21.970000 0.020187 0
21.975000 0.039370 0
21.980000 0.059919 0
21.985000 0.082121 0
21.990000 0.105964 0
21.995000 0.131297 0
22.000000 0.157881 0
22.005000 0.185404 0
22.010000 0.213490 0
22.015000 0.241706 0
22.020000 0.269570 0
22.025000 0.296563 0
22.030000 0.322145 0
22.035000 0.345772 0
22.040000 0.366913 0
22.045000 0.385073 0
22.050000 0.399808 0
22.055000 0.410743 0
22.060000 0.417592 0
22.065000 0.420162 5
22.070000 0.418369 0
22.075000 0.412237 0
22.080000 0.401899 0
22.085000 0.387593 0
22.090000 0.369649 0
22.095000 0.348481 0
22.100000 0.324566 0
22.105000 0.298428 0
22.110000 0.270619 0
22.115000 0.241699 0
22.120000 0.212216 0
22.125000 0.182693 0
22.130000 0.153609 0
22.135000 0.125390 0
22.140000 0.098401 0
22.145000 0.072937 0
22.150000 0.049226 0
22.155000 0.027428 0
22.160000 0.007637 0
22.165000 -0.010112 0
22.170000 -0.025835 0
22.175000 -0.039592 0
22.180000 -0.051480 0
22.185000 -0.061620 0
22.190000 -0.070154 0
22.195000 -0.077234 0
22.200000 -0.083016 0
22.205000 -0.087656 0
22.210000 -0.091304 0
22.215000 -0.094101 0
22.220000 -0.096178 0
22.225000 -0.097651 0
22.230000 -0.098625 0
22.235000 -0.099191 0
22.240000 -0.099428 0
22.245000 -0.099401 0
22.250000 -0.098625 0
22.255000 -0.097726 0
22.260000 -0.096832 0
22.265000 -0.095942 0
22.270000 -0.095056 0
22.275000 -0.094175 0
22.280000 -0.093298 0
22.285000 -0.092426 0
22.290000 -0.091557 0
22.295000 -0.090693 0
22.300000 -0.089834 0
22.305000 -0.088978 0
22.310000 -0.088126 0
22.315000 -0.087277 0
22.320000 -0.086430 0
22.325000 -0.085583 0
22.330000 -0.084734 0
22.335000 -0.083875 0
22.340000 -0.082999 0
22.345000 -0.082090 0
22.350000 -0.081126 0
22.355000 -0.080069 0
22.360000 -0.078867 0
22.365000 -0.077442 0
22.370000 -0.075688 0
22.375000 -0.073456 0
22.380000 -0.070557 0
22.385000 -0.066749 0
22.390000 -0.061741 0
22.395000 -0.055199 0
22.400000 -0.046756 0
22.405000 -0.036043 0
22.410000 -0.022719 0
22.415000 -0.006520 0
22.420000 0.012690 0
22.425000 0.034867 0
22.430000 0.059737 0
22.435000 0.086764 0
22.440000 0.115140 0
22.445000 0.143805 0
22.450000 0.171499 0
22.455000 0.196847 0
22.460000 0.218466 0
22.465000 0.235093 0
22.470000 0.245700 0
22.475000 0.249605 1
22.480000 0.246540 0
22.485000 0.236682 0
22.490000 0.220636 0
22.495000 0.199373 0
22.500000 0.174132 0
22.505000 0.146299 0
22.510000 0.117282 0
22.515000 0.088377 0
22.520000 0.060636 0
22.525000 0.034679 0
22.530000 0.010414 0
22.535000 -0.013377 0
22.540000 -0.039347 0
22.545000 -0.071258 0
22.550000 -0.112259 0
22.555000 -0.161701 0
22.560000 -0.211843 0
22.565000 -0.246832 2
22.570000 -0.245220 0
22.575000 -0.184727 0
22.580000 -0.047332 0
22.585000 0.174362 0
22.590000 0.466973 0
22.595000 0.785672 0
22.600000 1.055412 0
22.605000 1.194743 3
22.610000 1.152678 0
22.615000 0.937314 0
22.620000 0.616834 0
22.625000 0.278789 0
22.630000 -0.007399 0
22.635000 -0.205323 0
22.640000 -0.307037 0
22.645000 -0.324059 4
22.650000 -0.280841 0
22.655000 -0.207792 0
22.660000 -0.132033 0
22.665000 -0.069912 0
22.670000 -0.025661 0
22.675000 0.004414 0
22.680000 0.026401 0
22.685000 0.045288 0
22.690000 0.064021 0
22.695000 0.083948 0
22.700000 0.105533 0
22.705000 0.128832 0
22.710000 0.153712 0
22.715000 0.179940 0
22.720000 0.207200 0
22.725000 0.235106 0
22.730000 0.263207 0
22.735000 0.290997 0
22.740000 0.317931 0
22.745000 0.343437 0
22.750000 0.366939 0
22.755000 0.387877 0
22.760000 0.405726 0
22.765000 0.420023 0
22.770000 0.430378 0
22.775000 0.436497 0
22.780000 0.438196 5
22.785000 0.435403 0
22.790000 0.428168 0
22.795000 0.416659 0
22.800000 0.401153 0
22.805000 0.382026 0
22.810000 0.359740 0
22.815000 0.334817 0
22.820000 0.307827 0
22.825000 0.279358 0
22.830000 0.250000 0
22.835000 0.220322 0
22.840000 0.190855 0
22.845000 0.162079 0
22.850000 0.134410 0
22.855000 0.108191 0
22.860000 0.083693 0
22.865000 0.061109 0
22.870000 0.040564 0
22.875000 0.022111 0
22.880000 0.005750 0
22.885000 -0.008572 0
22.890000 -0.020951 0
22.895000 -0.031509 0
22.900000 -0.040393 0
22.905000 -0.047763 0
22.910000 -0.053783 0
22.915000 -0.058619 0
22.920000 -0.062429 0
22.925000 -0.065363 0
22.930000 -0.067559 0
22.935000 -0.069139 0
22.940000 -0.070213 0
22.945000 -0.070877 0
22.950000 -0.071211 0
22.955000 -0.071284 0
22.960000 -0.070642 0
22.965000 -0.069882 0
22.970000 -0.069127 0
22.975000 -0.068375 0
22.980000 -0.067627 0
22.985000 -0.066882 0
22.990000 -0.066142 0
22.995000 -0.065405 0
23.000000 -0.064671 0
23.005000 -0.063941 0
23.010000 -0.063215 0
23.015000 -0.062492 0
23.020000 -0.061771 0
23.025000 -0.061053 0
23.030000 -0.060334 0
23.035000 -0.059614 0
23.040000 -0.058886 0
23.045000 -0.058142 0
23.050000 -0.057369 0
23.055000 -0.056545 0
23.060000 -0.055636 0
23.065000 -0.054589 0
23.070000 -0.053329 0
23.075000 -0.051746 0
23.080000 -0.049692 0
23.085000 -0.046969 0
23.090000 -0.043327 0
23.095000 -0.038460 0
23.100000 -0.032013 0
23.105000 -0.023601 0
23.110000 -0.012831 0
23.115000 0.000652 0
23.120000 0.017118 0
23.125000 0.036689 0
23.130000 0.059284 0
23.135000 0.084565 0
23.140000 0.111905 0
23.145000 0.140382 0
23.150000 0.168811 0
23.155000 0.195812 0
23.160000 0.219916 0
23.165000 0.239688 0
23.170000 0.253873 0
23.175000 0.261523 0
23.180000 0.262101 1
23.185000 0.255542 0
23.190000 0.242264 0
23.195000 0.223118 0
23.200000 0.199303 0
23.205000 0.172236 0
23.210000 0.143412 0
23.215000 0.114259 0
23.220000 0.085993 0
23.225000 0.059431 0
23.230000 0.034719 0
23.235000 0.010898 0
23.240000 -0.014504 0
23.245000 -0.045321 0
23.250000 -0.085161 0
23.255000 -0.134054 0
23.260000 -0.184672 0
23.265000 -0.220844 2
23.270000 -0.220076 0
23.275000 -0.158799 0
23.280000 -0.018072 0
23.285000 0.209198 0
23.290000 0.506767 0
23.295000 0.823683 0
23.300000 1.077984 0
23.305000 1.186346 3
23.310000 1.106013 0
23.315000 0.860358 0
23.320000 0.528094 0
23.325000 0.198069 0
23.330000 -0.066203 0
23.335000 -0.235969 0
23.340000 -0.309680 4
23.345000 -0.304008 0
23.350000 -0.247170 0
23.355000 -0.170549 0
23.360000 -0.098786 0
23.365000 -0.043843 0
23.370000 -0.006175 0
23.375000 0.019664 0
23.380000 0.039748 0
23.385000 0.058293 0
23.390000 0.077485 0
23.395000 0.098201 0
23.400000 0.120667 0
23.405000 0.144823 0
23.410000 0.170473 0
23.415000 0.197324 0
23.420000 0.225008 0
23.425000 0.253084 0
23.430000 0.281050 0
23.435000 0.308355 0
23.440000 0.334414 0
23.445000 0.358630 0
23.450000 0.380416 0
23.455000 0.399214 0
23.460000 0.414524 0
23.465000 0.425919 0
23.470000 0.433069 0
23.475000 0.435754 5
23.480000 0.433874 0
23.485000 0.427456 0
23.490000 0.416649 0
23.495000 0.401723 0
23.500000 0.383053 0
23.505000 0.361105 0
23.510000 0.336416 0
23.515000 0.309568 0
23.520000 0.281172 0
23.525000 0.251838 0
23.530000 0.222157 0
23.535000 0.192679 0
23.540000 0.163903 0
23.545000 0.136256 0
23.550000 0.110095 0
23.555000 0.085694 0
23.560000 0.063250 0
23.565000 0.042886 0
23.570000 0.024653 0
23.575000 0.008541 0
23.580000 -0.005508 0
23.585000 -0.017599 0
23.590000 -0.027863 0
23.595000 -0.036455 0
23.600000 -0.043542 0
23.605000 -0.049295 0
23.610000 -0.053884 0
23.615000 -0.057470 0
23.620000 -0.060206 0
23.625000 -0.062229 0
23.630000 -0.063663 0
23.635000 -0.064616 0
23.640000 -0.065182 0
23.645000 -0.065439 0
23.650000 -0.065346 0
23.655000 -0.064613 0
23.660000 -0.063884 0
23.665000 -0.063158 0
23.670000 -0.062436 0
23.675000 -0.061717 0
23.680000 -0.061002 0
23.685000 -0.060291 0
23.690000 -0.059583 0
23.695000 -0.058879 0
23.700000 -0.058178 0
23.705000 -0.057480 0
23.710000 -0.056785 0
23.715000 -0.056092 0
23.720000 -0.055400 0
23.725000 -0.054706 0
23.730000 -0.054007 0
23.735000 -0.053294 0
23.740000 -0.052557 0
23.745000 -0.051775 0
23.750000 -0.050916 0
23.755000 -0.049933 0
23.760000 -0.048751 0
23.765000 -0.047268 0
23.770000 -0.045337 0
23.775000 -0.042765 0
23.780000 -0.039301 0
23.785000 -0.034636 0
23.790000 -0.028409 0
23.795000 -0.020224 0
23.800000 -0.009673 0
23.805000 0.003616 0
23.810000 0.019930 0
23.815000 0.039403 0
23.820000 0.061959 0
23.825000 0.087249 0
23.830000 0.114621 0
23.835000 0.143113 0
23.840000 0.171488 0
23.845000 0.198310 0
23.850000 0.222053 0
23.855000 0.241247 0
23.860000 0.254619 0
23.865000 0.261241 1
23.870000 0.260624 0
23.875000 0.252787 0
23.880000 0.238248 0
23.885000 0.217969 0
23.890000 0.193252 0
23.895000 0.165596 0
23.900000 0.136543 0
23.905000 0.107529 0
23.910000 0.079714 0
23.915000 0.053768 0
23.920000 0.029521 0
23.925000 0.005480 0
23.930000 -0.021497 0
23.935000 -0.055578 0
23.940000 -0.099512 0
23.945000 -0.150582 0
23.950000 -0.197222 0
23.955000 -0.219225 2
23.960000 -0.192071 0
23.965000 -0.092934 0
23.970000 0.092810 0
23.975000 0.361686 0
23.980000 0.678531 0
23.985000 0.970784 0
23.990000 1.147678 3
23.995000 1.143477 0
24.000000 0.956049 0
24.005000 0.647478 0
24.010000 0.307000 0
24.015000 0.010255 0
24.020000 -0.200501 0
24.025000 -0.313733 0
24.030000 -0.339154 4
24.035000 -0.300591 0
24.040000 -0.228929 0
24.045000 -0.152577 0
24.050000 -0.089248 0
24.055000 -0.044004 0
24.060000 -0.013369 0
24.065000 0.008868 0
24.070000 0.027869 0
24.075000 0.046684 0
24.080000 0.066706 0
24.085000 0.088408 0
24.090000 0.111842 0
24.095000 0.136871 0
24.100000 0.163251 0
24.105000 0.190655 0
24.110000 0.218685 0
24.115000 0.246873 0
24.120000 0.274698 0
24.125000 0.301599 0
24.130000 0.326988 0
24.135000 0.350278 0
24.140000 0.370897 0
24.145000 0.388318 0
24.150000 0.402075 0
24.155000 0.411786 0
24.160000 0.417169 0
24.165000 0.418055 5
24.170000 0.414398 0
24.175000 0.406273 0
24.180000 0.393879 0
24.185000 0.377525 0
24.190000 0.357618 0
24.195000 0.334650 0
24.200000 0.309170 0
24.205000 0.281768 0
24.210000 0.253050 0
24.215000 0.223613 0
24.220000 0.194032 0
24.225000 0.164833 0
24.230000 0.136485 0
24.235000 0.109388 0
24.240000 0.083868 0
24.245000 0.060170 0
24.250000 0.038466 0
24.255000 0.018852 0
24.260000 0.001361 0
24.265000 -0.014033 0
24.270000 -0.027405 0
24.275000 -0.038864 0
24.280000 -0.048549 0
24.285000 -0.056618 0
24.290000 -0.063237 0
24.295000 -0.068575 0
24.300000 -0.072800 0
24.305000 -0.076067 0
24.310000 -0.078525 0
24.315000 -0.080306 0
24.320000 -0.081529 0
24.325000 -0.082297 0
24.330000 -0.082700 0
24.335000 -0.082812 0
24.340000 -0.082595 0
24.345000 -0.081776 0
24.350000 -0.080961 0
24.355000 -0.080150 0
24.360000 -0.079343 0
24.365000 -0.078540 0
24.370000 -0.077741 0
24.375000 -0.076946 0
24.380000 -0.076155 0
24.385000 -0.075368 0
24.390000 -0.074585 0
24.395000 -0.073805 0
24.400000 -0.073029 0
24.405000 -0.072254 0
24.410000 -0.071481 0
24.415000 -0.070706 0
24.420000 -0.069926 0
24.425000 -0.069132 0
24.430000 -0.068311 0
24.435000 -0.067444 0
24.440000 -0.066497 0
24.445000 -0.065420 0
24.450000 -0.064140 0
24.455000 -0.062549 0
24.460000 -0.060501 0
24.465000 -0.057800 0
24.470000 -0.054193 0
24.475000 -0.049373 0
24.480000 -0.042980 0
24.485000 -0.034620 0
24.490000 -0.023892 0
24.495000 -0.010428 0
24.500000 0.006048 0
24.505000 0.025667 0
24.510000 0.048344 0
24.515000 0.073733 0
24.520000 0.101183 0
24.525000 0.129743 0
24.530000 0.158190 0
24.535000 0.185103 0
24.540000 0.208975 0
24.545000 0.228351 0
24.550000 0.241967 0
24.555000 0.248892 1
24.560000 0.248629 0
24.565000 0.241175 0
24.570000 0.227021 0
24.575000 0.207099 0
24.580000 0.182679 0
24.585000 0.155236 0
24.590000 0.126298 0
24.595000 0.097295 0
24.600000 0.069405 0
24.605000 0.043342 0
24.610000 0.019035 0
24.615000 -0.004844 0
24.620000 -0.031237 0
24.625000 -0.064237 0
24.630000 -0.106913 0
24.635000 -0.157457 0
24.640000 -0.205623 0
24.645000 -0.232384 2
24.650000 -0.213736 0
24.655000 -0.126499 0
24.660000 0.045501 0
24.665000 0.302471 0
24.670000 0.615506 0
24.675000 0.918509 0
24.680000 1.122173 0
24.685000 1.153633 3
24.690000 0.998320 0
24.695000 0.707749 0
24.700000 0.366810 0
24.705000 0.054632 0
24.710000 -0.179709 0
24.715000 -0.318429 0
24.720000 -0.366316 4
24.725000 -0.343320 0
24.730000 -0.278344 0
24.735000 -0.200795 0
24.740000 -0.131802 0
24.745000 -0.080190 0
24.750000 -0.044806 0
24.755000 -0.019996 0
24.760000 -0.000103 0
24.765000 0.018643 0
24.770000 0.038158 0
24.775000 0.059201 0
24.780000 0.081958 0
24.785000 0.106363 0
24.790000 0.132223 0
24.795000 0.159256 0
24.800000 0.187110 0
24.805000 0.215361 0
24.810000 0.243532 0
24.815000 0.271093 0
24.820000 0.297487 0
24.825000 0.322141 0
24.830000 0.344487 0
24.835000 0.363986 0
24.840000 0.380145 0
24.845000 0.392540 0
24.850000 0.400836 0
24.855000 0.404794 5
24.860000 0.404291 0
24.865000 0.399319 0
24.870000 0.389990 0
24.875000 0.376529 0
24.880000 0.359264 0
24.885000 0.338615 0
24.890000 0.315076 0
24.895000 0.289192 0
24.900000 0.261542 0
24.905000 0.232713 0
24.910000 0.203286 0
24.915000 0.173809 0
24.920000 0.144786 0
24.925000 0.116665 0
24.930000 0.089823 0
24.935000 0.064568 0
24.940000 0.041131 0
24.945000 0.019671 0
24.950000 0.000277 0
24.955000 -0.017024 0
24.960000 -0.032259 0
24.965000 -0.045502 0
24.970000 -0.056861 0
24.975000 -0.066472 0
24.980000 -0.074486 0
24.985000 -0.081065 0
24.990000 -0.086376 0
24.995000 -0.090578 0
25.000000 -0.093827 0
25.005000 -0.096265 0
25.010000 -0.098025 0
25.015000 -0.099221 0
25.020000 -0.099958 0
25.025000 -0.100322 0
25.030000 -0.100390 0
25.035000 -0.100116 0
25.040000 -0.099209 0
25.045000 -0.098307 0
25.050000 -0.097410 0
25.055000 -0.096517 0
25.060000 -0.095629 0
25.065000 -0.094744 0
25.070000 -0.093865 0
25.075000 -0.092989 0
25.080000 -0.092118 0
25.085000 -0.091252 0
25.090000 -0.090389 0
25.095000 -0.089530 0
25.100000 -0.088674 0
25.105000 -0.087820 0
25.110000 -0.086966 0
25.115000 -0.086109 0
25.120000 -0.085243 0
25.125000 -0.084358 0
25.130000 -0.083437 0
25.135000 -0.082454 0
25.140000 -0.081370 0
25.145000 -0.080125 0
25.150000 -0.078632 0
25.155000 -0.076770 0
25.160000 -0.074373 0
25.165000 -0.071226 0
25.170000 -0.067061 0
25.175000 -0.061556 0
25.180000 -0.054344 0
25.185000 -0.045036 0
25.190000 -0.033250 0
25.195000 -0.018654 0
25.200000 -0.001024 0
25.205000 0.019700 0
25.210000 0.043358 0
25.215000 0.069519 0
25.220000 0.097463 0
25.225000 0.126183 0
25.230000 0.154428 0
25.235000 0.180786 0
25.240000 0.203790 0
25.245000 0.222057 0
25.250000 0.234419 0
25.255000 0.240051 1
25.260000 0.238559 0
25.265000 0.230026 0
25.270000 0.215003 0
25.275000 0.194453 0
25.280000 0.169645 0
25.285000 0.142025 0
25.290000 0.113077 0
25.295000 0.084175 0
25.300000 0.056437 0
25.305000 0.030524 0
25.310000 0.006321 0
25.315000 -0.017507 0
25.320000 -0.043849 0
25.325000 -0.076690 0
25.330000 -0.119053 0
25.335000 -0.169361 0
25.340000 -0.218018 0
25.345000 -0.246916 2
25.350000 -0.232871 0
25.355000 -0.153063 0
25.360000 0.009207 0
25.365000 0.256483 0
25.370000 0.564940 0
25.375000 0.875181 0
25.380000 1.101750 0
25.385000 1.167813 3
25.390000 1.046911 0
25.395000 0.777915 0
25.400000 0.440390 0
25.405000 0.116080 0
25.410000 -0.139408 0
25.415000 -0.302047 0
25.420000 -0.371876 4
25.425000 -0.365187 0
25.430000 -0.308685 0
25.435000 -0.232024 0
25.440000 -0.158950 0
25.445000 -0.101712 0
25.450000 -0.061655 0
25.455000 -0.034041 0
25.460000 -0.012987 0
25.465000 0.005888 0
25.470000 0.025025 0
25.475000 0.045493 0
25.480000 0.067629 0
25.485000 0.091441 0
25.490000 0.116777 0
25.495000 0.143395 0
25.500000 0.170977 0
25.505000 0.199135 0
25.510000 0.227423 0
25.515000 0.255342 0
25.520000 0.282357 0
25.525000 0.307911 0
25.530000 0.331441 0
25.535000 0.352404 0
25.540000 0.370292 0
25.545000 0.384654 0
25.550000 0.395114 0
25.555000 0.401389 0
25.560000 0.403299 5
25.565000 0.400773 0
25.570000 0.393858 0
25.575000 0.382714 0
25.580000 0.367606 0
25.585000 0.348897 0
25.590000 0.327031 0
25.595000 0.302515 0
25.600000 0.275898 0
25.605000 0.247754 0
25.610000 0.218658 0
25.615000 0.189170 0
25.620000 0.159815 0
25.625000 0.131067 0
25.630000 0.103344 0
25.635000 0.076994 0
25.640000 0.052295 0
25.645000 0.029452 0
25.650000 0.008599 0
25.655000 -0.010194 0
25.660000 -0.026917 0
25.665000 -0.041609 0
25.670000 -0.054351 0
25.675000 -0.065258 0
25.680000 -0.074467 0
25.685000 -0.082129 0
25.690000 -0.088405 0
25.695000 -0.093457 0
25.700000 -0.097441 0
25.705000 -0.100507 0
25.710000 -0.102794 0
25.715000 -0.104429 0
25.720000 -0.105522 0
25.725000 -0.106172 0
25.730000 -0.106465 0
25.735000 -0.106472 0
25.740000 -0.106150 0
25.745000 -0.105213 0
25.750000 -0.104281 0
25.755000 -0.103354 0
25.760000 -0.102432 0
25.765000 -0.101514 0
25.770000 -0.100600 0
25.775000 -0.099691 0
25.780000 -0.098787 0
25.785000 -0.097887 0
25.790000 -0.096992 0
25.795000 -0.096100 0
25.800000 -0.095213 0
25.805000 -0.094328 0
25.810000 -0.093447 0
25.815000 -0.092565 0
25.820000 -0.091681 0
25.825000 -0.090788 0
25.830000 -0.089877 0
25.835000 -0.088933 0
25.840000 -0.087931 0
25.845000 -0.086833 0
25.850000 -0.085584 0
25.855000 -0.084101 0
25.860000 -0.082271 0
25.865000 -0.079937 0
25.870000 -0.076897 0
25.875000 -0.072896 0
25.880000 -0.067625 0
25.885000 -0.060733 0
25.890000 -0.051840 0
25.895000 -0.040566 0
25.900000 -0.026574 0
25.905000 -0.009615 0
25.910000 0.010411 0
25.915000 0.033400 0
25.920000 0.059001 0
25.925000 0.086578 0
25.930000 0.115217 0
25.935000 0.143751 0
25.940000 0.170829 0
25.945000 0.195019 0
25.950000 0.214923 0
25.955000 0.229317 0
25.960000 0.237273 0
25.965000 0.238255 1
25.970000 0.232182 0
25.975000 0.219437 0
25.980000 0.200827 0
25.985000 0.177498 0
25.990000 0.150818 0
25.995000 0.122243 0
26.000000 0.093182 0
26.005000 0.064853 0
26.010000 0.038125 0
26.015000 0.013263 0
26.020000 -0.010452 0
26.025000 -0.035150 0
26.030000 -0.064382 0
26.035000 -0.101934 0
26.040000 -0.148943 0
26.045000 -0.200183 0
26.050000 -0.241907 0
26.055000 -0.253326 2
26.060000 -0.211188 0
26.065000 -0.095160 0
26.070000 0.106053 0
26.075000 0.385035 0
26.080000 0.703606 0
26.085000 0.989919 0
26.090000 1.158444 3
26.095000 1.150147 0
26.100000 0.965183 0
26.105000 0.660374 0
26.110000 0.319126 0
26.115000 0.014377 0
26.120000 -0.210623 0
26.125000 -0.341438 0
26.130000 -0.384122 4
26.135000 -0.358601 0
26.140000 -0.292905 0
26.145000 -0.215247 0
26.150000 -0.145925 0
26.155000 -0.093599 0
26.160000 -0.057395 0
26.165000 -0.031959 0
26.170000 -0.011750 0
26.175000 0.007045 0
26.180000 0.026438 0
26.185000 0.047266 0
26.190000 0.069767 0
26.195000 0.093904 0
26.200000 0.119510 0
26.205000 0.146333 0
26.210000 0.174048 0
26.215000 0.202264 0
26.220000 0.230536 0
26.225000 0.258368 0
26.230000 0.285231 0
26.235000 0.310576 0
26.240000 0.333855 0
26.245000 0.354536 0
26.250000 0.372127 0
26.255000 0.386191 0
26.260000 0.396367 0
26.265000 0.402384 0
26.270000 0.404070 5
26.275000 0.401363 0
26.280000 0.394314 0
26.285000 0.383083 0
26.290000 0.367932 0
26.295000 0.349219 0
26.300000 0.327378 0
26.305000 0.302905 0
26.310000 0.276341 0
26.315000 0.248248 0
26.320000 0.219189 0
26.325000 0.189714 0
26.330000 0.160341 0
26.335000 0.131539 0
26.340000 0.103722 0
26.345000 0.077237 0
26.350000 0.052363 0
26.355000 0.029310 0
26.360000 0.008215 0
26.365000 -0.010844 0
26.370000 -0.027850 0
26.375000 -0.042836 0
26.380000 -0.055875 0
26.385000 -0.067075 0
26.390000 -0.076567 0
26.395000 -0.084498 0
26.400000 -0.091025 0
26.405000 -0.096305 0
26.410000 -0.100495 0
26.415000 -0.103743 0
26.420000 -0.106188 0
26.425000 -0.107957 0
26.430000 -0.109162 0
26.435000 -0.109905 0
26.440000 -0.110271 0
26.445000 -0.110336 0
26.450000 -0.110161 0
26.455000 -0.109317 0
26.460000 -0.108365 0
26.465000 -0.107417 0
26.470000 -0.106474 0
26.475000 -0.105536 0
26.480000 -0.104603 0
26.485000 -0.103674 0
26.490000 -0.102750 0
26.495000 -0.101830 0
26.500000 -0.100915 0
26.505000 -0.100004 0
26.510000 -0.099097 0
26.515000 -0.098194 0
26.520000 -0.097294 0
26.525000 -0.096396 0
26.530000 -0.095496 0
26.535000 -0.094591 0
26.540000 -0.093673 0
26.545000 -0.092731 0
26.550000 -0.091745 0
26.555000 -0.090685 0
26.560000 -0.089506 0
26.565000 -0.088142 0
26.570000 -0.086499 0
26.575000 -0.084446 0
26.580000 -0.081811 0
26.585000 -0.078372 0
26.590000 -0.073856 0
26.595000 -0.067941 0
26.600000 -0.060269 0
26.605000 -0.050463 0
26.610000 -0.038162 0
26.615000 -0.023062 0
26.620000 -0.004968 0
26.625000 0.016151 0
26.630000 0.040112 0
26.635000 0.066474 0
26.640000 0.094521 0
26.645000 0.123270 0
26.650000 0.151510 0
26.655000 0.177881 0
26.660000 0.200973 0
26.665000 0.219453 0
26.670000 0.232189 0
26.675000 0.238367 1
26.680000 0.237574 0
26.685000 0.229846 0
26.690000 0.215663 0
26.695000 0.195904 0
26.700000 0.171749 0
26.705000 0.144572 0
26.710000 0.115803 0
26.715000 0.086796 0
26.720000 0.058700 0
26.725000 0.032285 0
26.730000 0.007686 0
26.735000 -0.015990 0
26.740000 -0.041046 0
26.745000 -0.071102 0
26.750000 -0.109740 0
26.755000 -0.157557 0
26.760000 -0.208614 0
26.765000 -0.248655 0
26.770000 -0.256883 2
26.775000 -0.210516 0
26.780000 -0.089979 0
26.785000 0.115108 0
26.790000 0.396383 0
26.795000 0.715191 0
26.800000 1.000330 0
26.805000 1.167907 3
26.810000 1.160343 0
26.815000 0.977712 0
26.820000 0.674955 0
26.825000 0.333522 0
26.830000 0.025644 0
26.835000 -0.204876 0
26.840000 -0.342464 0
26.845000 -0.391862 4
26.850000 -0.371630 0
26.855000 -0.308731 0
26.860000 -0.231162 0
26.865000 -0.159989 0
26.870000 -0.105131 0
26.875000 -0.066751 0
26.880000 -0.039950 0
26.885000 -0.019144 0
26.890000 -0.000268 0
26.895000 0.018930 0
26.900000 0.039443 0
26.905000 0.061587 0
26.910000 0.085370 0
26.915000 0.110653 0
26.920000 0.137206 0
26.925000 0.164729 0
26.930000 0.192857 0
26.935000 0.221169 0
26.940000 0.249192 0
26.945000 0.276418 0
26.950000 0.302315 0
26.955000 0.326344 0
26.960000 0.347980 0
26.965000 0.366724 0
26.970000 0.382129 0
26.975000 0.393814 0
26.980000 0.401477 0
26.985000 0.404913 5
26.990000 0.404018 0
26.995000 0.398796 0
27.000000 0.389358 0
27.005000 0.375918 0
27.010000 0.358787 0
27.015000 0.338356 0
27.020000 0.315085 0
27.025000 0.289483 0
27.030000 0.262092 0
27.035000 0.233465 0
27.040000 0.204148 0
27.045000 0.174665 0
27.050000 0.145502 0
27.055000 0.117095 0
27.060000 0.089820 0
27.065000 0.063989 0
27.070000 0.039846 0
27.075000 0.017566 0
27.080000 -0.002740 0
27.085000 -0.021019 0
27.090000 -0.037275 0
27.095000 -0.051553 0
27.100000 -0.063940 0
27.105000 -0.074548 0
27.110000 -0.083512 0
27.115000 -0.090980 0
27.120000 -0.097106 0
27.125000 -0.102043 0
27.130000 -0.105944 0
27.135000 -0.108950 0
27.140000 -0.111195 0
27.145000 -0.112799 0
27.150000 -0.113870 0
27.155000 -0.114504 0
27.160000 -0.114782 0
27.165000 -0.114775 0
27.170000 -0.114432 0
27.175000 -0.113454 0
27.180000 -0.112481 0
27.185000 -0.111513 0
27.190000 -0.110550 0
27.195000 -0.109592 0
27.200000 -0.108638 0
27.205000 -0.107689 0
27.210000 -0.106745 0
27.215000 -0.105805 0
27.220000 -0.104870 0
27.225000 -0.103940 0
27.230000 -0.103013 0
27.235000 -0.102091 0
27.240000 -0.101171 0
27.245000 -0.100253 0
27.250000 -0.099334 0
27.255000 -0.098410 0
27.260000 -0.097474 0
27.265000 -0.096515 0
27.270000 -0.095513 0
27.275000 -0.094440 0
27.280000 -0.093253 0
27.285000 -0.091890 0
27.290000 -0.090260 0
27.295000 -0.088241 0
27.300000 -0.085668 0
27.305000 -0.082331 0
27.310000 -0.077968 0
27.315000 -0.072273 0
27.320000 -0.064899 0
27.325000 -0.055478 0
27.330000 -0.043653 0
27.335000 -0.029113 0
27.340000 -0.011642 0
27.345000 0.008830 0
27.350000 0.032171 0
27.355000 0.058014 0
27.360000 0.085724 0
27.365000 0.114403 0
27.370000 0.142922 0
27.375000 0.169982 0
27.380000 0.194207 0
27.385000 0.214258 0
27.390000 0.228956 0
27.395000 0.237393 0
27.400000 0.239028 1
27.405000 0.233741 0
27.410000 0.221852 0
27.415000 0.204084 0
27.420000 0.181493 0
27.425000 0.155362 0
27.430000 0.127082 0
27.435000 0.098025 0
27.440000 0.069416 0
27.445000 0.042194 0
27.450000 0.016809 0
27.455000 -0.007095 0
27.460000 -0.031087 0
27.465000 -0.058156 0
27.470000 -0.092095 0
27.475000 -0.135412 0
27.480000 -0.185992 0
27.485000 -0.234216 0
27.490000 -0.262762 2
27.495000 -0.249792 0
27.500000 -0.173778 0
27.505000 -0.018550 0
27.510000 0.219832 0
27.515000 0.522445 0
27.520000 0.838251 0
27.525000 1.089243 0
27.530000 1.197880 3
27.535000 1.124772 0
27.540000 0.890403 0
27.545000 0.563993 0
27.550000 0.227719 0
27.555000 -0.055149 0
27.560000 -0.251737 0
27.565000 -0.354919 0
27.570000 -0.375300 4
27.575000 -0.335459 0
27.580000 -0.263913 0
27.585000 -0.186983 0
27.590000 -0.121702 0
27.595000 -0.073784 0
27.600000 -0.040775 0
27.605000 -0.017052 0
27.610000 0.002527 0
27.615000 0.021280 0
27.620000 0.040877 0
27.625000 0.061980 0
27.630000 0.084748 0
27.635000 0.109116 0
27.640000 0.134901 0
27.645000 0.161842 0
27.650000 0.189608 0
27.655000 0.217806 0
27.660000 0.245990 0
27.665000 0.273665 0
27.670000 0.300310 0
27.675000 0.325382 0
27.680000 0.348344 0
27.685000 0.368677 0
27.690000 0.385899 0
27.695000 0.399588 0
27.700000 0.409397 0
27.705000 0.415064 0
27.710000 0.416430 5
27.715000 0.413439 0
27.720000 0.406148 0
27.725000 0.394717 0
27.730000 0.379409 0
27.735000 0.360577 0
27.740000 0.338651 0
27.745000 0.314119 0
27.750000 0.287513 0
27.755000 0.259384 0
27.760000 0.230289 0
27.765000 0.200769 0
27.770000 0.171332 0
27.775000 0.142445 0
27.780000 0.114515 0
27.785000 0.087889 0
27.790000 0.062846 0
27.795000 0.039596 0
27.800000 0.018280 0
27.805000 -0.001021 0
27.810000 -0.018284 0
27.815000 -0.033536 0
27.820000 -0.046847 0
27.825000 -0.058318 0
27.830000 -0.068075 0
27.835000 -0.076263 0
27.840000 -0.083033 0
27.845000 -0.088542 0
27.850000 -0.092943 0
27.855000 -0.096385 0
27.860000 -0.099005 0
27.865000 -0.100931 0
27.870000 -0.102277 0
27.875000 -0.103144 0
27.880000 -0.103620 0
27.885000 -0.103781 0
27.890000 -0.103691 0
27.895000 -0.102888 0
27.900000 -0.101967 0
27.905000 -0.101052 0
27.910000 -0.100141 0
27.915000 -0.099234 0
27.920000 -0.098332 0
27.925000 -0.097434 0
27.930000 -0.096541 0
27.935000 -0.095653 0
27.940000 -0.094768 0
27.945000 -0.093888 0
27.950000 -0.093012 0
27.955000 -0.092140 0
27.960000 -0.091271 0
27.965000 -0.090403 0
27.970000 -0.089536 0
27.975000 -0.088665 0
27.980000 -0.087785 0
27.985000 -0.086886 0
27.990000 -0.085951 0
27.995000 -0.084957 0
28.000000 -0.083866 0
28.005000 -0.082622 0
28.010000 -0.081144 0
28.015000 -0.079323 0
28.020000 -0.077007 0
28.025000 -0.074000 0
28.030000 -0.070058 0
28.035000 -0.064885 0
28.040000 -0.058145 0
28.045000 -0.049471 0
28.050000 -0.038498 0
28.055000 -0.024892 0
28.060000 -0.008400 0
28.065000 0.011099 0
28.070000 0.033543 0
28.075000 0.058636 0
28.080000 0.085823 0
28.085000 0.114280 0
28.090000 0.142933 0
28.095000 0.170517 0
28.100000 0.195660 0
28.105000 0.216990 0
28.110000 0.233264 0
28.115000 0.243478 0
28.120000 0.246980 1
28.125000 0.243528 0
28.130000 0.233323 0
28.135000 0.216991 0
28.140000 0.195513 0
28.145000 0.170133 0
28.150000 0.142232 0
28.155000 0.113209 0
28.160000 0.084346 0
28.165000 0.056677 0
28.170000 0.030799 0
28.175000 0.006588 0
28.180000 -0.017204 0
28.185000 -0.043259 0
28.190000 -0.075331 0
28.195000 -0.116508 0
28.200000 -0.166035 0
28.205000 -0.216075 0
28.210000 -0.250750 2
28.215000 -0.248687 0
28.220000 -0.187738 0
28.225000 -0.050019 0
28.230000 0.171776 0
28.235000 0.464317 0
28.240000 0.783072 0
28.245000 1.053478 0
28.250000 1.194414 3
28.255000 1.154791 0
28.260000 0.942008 0
28.265000 0.622904 0
28.270000 0.284259 0
28.275000 -0.004355 0
28.280000 -0.205841 0
28.285000 -0.311461 0
28.290000 -0.331963 4
28.295000 -0.291099 0
28.300000 -0.218902 0
28.305000 -0.142666 0
28.310000 -0.079351 0
28.315000 -0.033855 0
28.320000 -0.002883 0
28.325000 0.019573 0
28.330000 0.038608 0
28.335000 0.057305 0
28.340000 0.077111 0
28.345000 0.098546 0
28.350000 0.121690 0
28.355000 0.146427 0
28.360000 0.172535 0
28.365000 0.199711 0
28.370000 0.227580 0
