0.000000 1.109558 3
0.005000 1.045694 0
0.010000 0.881736 0
0.015000 0.650484 0
0.020000 0.393409 0
0.025000 0.148375 0
0.030000 -0.057834 0
0.035000 -0.210958 0
0.040000 -0.307046 0
0.045000 -0.349655 4
0.050000 -0.347856 0
0.055000 -0.314547 0
0.060000 -0.264202 0
0.065000 -0.210052 0
0.070000 -0.161658 0
0.075000 -0.123865 0
0.080000 -0.097356 0
0.085000 -0.080206 0
0.090000 -0.069540 0
0.095000 -0.062698 0
0.100000 -0.057728 0
0.105000 -0.053414 0
0.110000 -0.049082 0
0.115000 -0.044380 0
0.120000 -0.039122 0
0.125000 -0.033195 0
0.130000 -0.026514 0
0.135000 -0.019004 0
0.140000 -0.010598 0
0.145000 -0.001234 0
0.150000 0.009145 0
0.155000 0.020584 0
0.160000 0.033115 0
0.165000 0.046759 0
0.170000 0.061516 0
0.175000 0.077367 0
0.180000 0.094272 0
0.185000 0.112166 0
0.190000 0.130958 0
0.195000 0.150531 0
0.200000 0.170743 0
0.205000 0.191423 0
0.210000 0.212378 0
0.215000 0.233391 0
0.220000 0.254228 0
0.225000 0.274638 0
0.230000 0.294360 0
0.235000 0.313126 0
0.240000 0.330670 0
0.245000 0.346732 0
0.250000 0.361066 0
0.255000 0.373441 0
0.260000 0.383656 0
0.265000 0.391535 0
0.270000 0.396939 0
0.275000 0.399770 0
0.280000 0.399968 5
0.285000 0.397518 0
0.290000 0.392448 0
0.295000 0.384832 0
0.300000 0.374781 0
0.305000 0.362448 0
0.310000 0.348020 0
0.315000 0.331712 0
0.320000 0.313764 0
0.325000 0.294435 0
0.330000 0.273996 0
0.335000 0.252722 0
0.340000 0.230888 0
0.345000 0.208763 0
0.350000 0.186605 0
0.355000 0.164653 0
0.360000 0.143128 0
0.365000 0.122226 0
0.370000 0.102118 0
0.375000 0.082947 0
0.380000 0.064829 0
0.385000 0.047852 0
0.390000 0.032078 0
0.395000 0.017542 0
0.400000 0.004258 0
0.405000 -0.007781 0
0.410000 -0.018601 0
0.415000 -0.028243 0
0.420000 -0.036760 0
0.425000 -0.044215 0
0.430000 -0.050679 0
0.435000 -0.056226 0
0.440000 -0.060934 0
0.445000 -0.064881 0
0.450000 -0.068143 0
0.455000 -0.070796 0
0.460000 -0.072909 0
0.465000 -0.074550 0
0.470000 -0.075780 0
0.475000 -0.076655 0
0.480000 -0.077228 0
0.485000 -0.077542 0
0.490000 -0.077640 0
0.495000 -0.077556 0
0.500000 -0.077322 0
0.505000 -0.076964 0
0.510000 -0.076505 0
0.515000 -0.075965 0
0.520000 -0.075359 0
0.525000 -0.074702 0
0.530000 -0.074004 0
0.535000 -0.073274 0
0.540000 -0.072521 0
0.545000 -0.071750 0
0.550000 -0.070965 0
0.555000 -0.070172 0
0.560000 -0.069373 0
0.565000 -0.068551 0
0.570000 -0.067729 0
0.575000 -0.066912 0
0.580000 -0.066098 0
0.585000 -0.065288 0
0.590000 -0.064483 0
0.595000 -0.063681 0
0.600000 -0.062884 0
0.605000 -0.062090 0
0.610000 -0.061301 0
0.615000 -0.060515 0
0.620000 -0.059733 0
0.625000 -0.058955 0
0.630000 -0.058182 0
0.635000 -0.057411 0
0.640000 -0.056645 0
0.645000 -0.055883 0
0.650000 -0.055124 0
0.655000 -0.054369 0
0.660000 -0.053618 0
0.665000 -0.052871 0
0.670000 -0.052127 0
0.675000 -0.051387 0
0.680000 -0.050651 0
0.685000 -0.049919 0
0.690000 -0.049190 0
0.695000 -0.048465 0
0.700000 -0.047743 0
0.705000 -0.047025 0
0.710000 -0.046310 0
0.715000 -0.045599 0
0.720000 -0.044892 0
0.725000 -0.044188 0
0.730000 -0.043487 0
0.735000 -0.042790 0
0.740000 -0.042095 0
0.745000 -0.041403 0
0.750000 -0.040713 0
0.755000 -0.040023 0
0.760000 -0.039333 0
0.765000 -0.038640 0
0.770000 -0.037939 0
0.775000 -0.037226 0
0.780000 -0.036492 0
0.785000 -0.035726 0
0.790000 -0.034910 0
0.795000 -0.034021 0
0.800000 -0.033028 0
0.805000 -0.031889 0
0.810000 -0.030547 0
0.815000 -0.028934 0
0.820000 -0.026961 0
0.825000 -0.024520 0
0.830000 -0.021484 0
0.835000 -0.017706 0
0.840000 -0.013021 0
0.845000 -0.007253 0
0.850000 -0.000219 0
0.855000 0.008260 0
0.860000 0.018342 0
0.865000 0.030154 0
0.870000 0.043774 0
0.875000 0.059208 0
0.880000 0.076383 0
0.885000 0.095125 0
0.890000 0.115155 0
0.895000 0.136083 0
0.900000 0.157420 0
0.905000 0.178583 0
0.910000 0.198927 0
0.915000 0.217770 0
0.920000 0.234430 0
0.925000 0.248268 0
0.930000 0.258727 0
0.935000 0.265366 0
0.940000 0.267896 1
0.945000 0.266195 0
0.950000 0.260319 0
0.955000 0.250500 0
0.960000 0.237130 0
0.965000 0.220732 0
0.970000 0.201929 0
0.975000 0.181405 0
0.980000 0.159859 0
0.985000 0.137972 0
0.990000 0.116369 0
0.995000 0.095591 0
1.000000 0.076079 0
1.005000 0.058161 0
1.010000 0.042041 0
1.015000 0.027789 0
1.020000 0.015313 0
1.025000 0.004294 0
1.030000 -0.005918 0
1.035000 -0.016433 0
1.040000 -0.028885 0
1.045000 -0.045287 0
1.050000 -0.067508 0
1.055000 -0.096303 0
1.060000 -0.130146 0
1.065000 -0.164318 0
1.070000 -0.190808 0
1.075000 -0.199208 2
1.080000 -0.178256 0
1.085000 -0.117491 0
1.090000 -0.008917 0
1.095000 0.150736 0
1.100000 0.356561 0
1.105000 0.591595 0
1.110000 0.825220 0
1.115000 1.017050 0
1.120000 1.127207 0
1.125000 1.129573 3
1.130000 1.022199 0
1.135000 0.827503 0
1.140000 0.581789 0
1.145000 0.324908 0
1.150000 0.090097 0
1.155000 -0.100912 0
1.160000 -0.237765 0
1.165000 -0.318996 0
1.170000 -0.349609 4
1.175000 -0.339404 0
1.180000 -0.301355 0
1.185000 -0.249369 0
1.190000 -0.195658 0
1.195000 -0.148677 0
1.200000 -0.112414 0
1.205000 -0.087099 0
1.210000 -0.070699 0
1.215000 -0.060430 0
1.220000 -0.053770 0
1.225000 -0.048881 0
1.230000 -0.044615 0
1.235000 -0.040329 0
1.240000 -0.035685 0
1.245000 -0.030501 0
1.250000 -0.024667 0
1.255000 -0.018099 0
1.260000 -0.010727 0
1.265000 -0.002484 0
1.270000 0.006690 0
1.275000 0.016851 0
1.280000 0.028042 0
1.285000 0.040298 0
1.290000 0.053642 0
1.295000 0.068077 0
1.300000 0.083590 0
1.305000 0.100149 0
1.310000 0.117696 0
1.315000 0.136154 0
1.320000 0.155416 0
1.325000 0.175355 0
1.330000 0.195817 0
1.335000 0.216623 0
1.340000 0.237575 0
1.345000 0.258453 0
1.350000 0.279023 0
1.355000 0.299038 0
1.360000 0.318243 0
1.365000 0.336381 0
1.370000 0.353198 0
1.375000 0.368450 0
1.380000 0.381907 0
1.385000 0.393357 0
1.390000 0.402617 0
1.395000 0.409532 0
1.400000 0.413982 0
1.405000 0.415885 5
1.410000 0.415197 0
1.415000 0.411918 0
1.420000 0.406087 0
1.425000 0.397784 0
1.430000 0.387128 0
1.435000 0.374272 0
1.440000 0.359404 0
1.445000 0.342734 0
1.450000 0.324498 0
1.455000 0.304946 0
1.460000 0.284340 0
1.465000 0.262943 0
1.470000 0.241022 0
1.475000 0.218834 0
1.480000 0.196624 0
1.485000 0.174624 0
1.490000 0.153045 0
1.495000 0.132076 0
1.500000 0.111881 0
1.505000 0.092600 0
1.510000 0.074345 0
1.515000 0.057203 0
1.520000 0.041237 0
1.525000 0.026483 0
1.530000 0.012957 0
1.535000 0.000656 0
1.540000 -0.010442 0
1.545000 -0.020374 0
1.550000 -0.029190 0
1.555000 -0.036946 0
1.560000 -0.043711 0
1.565000 -0.049554 0
1.570000 -0.054550 0
1.575000 -0.058774 0
1.580000 -0.062300 0
1.585000 -0.065200 0
1.590000 -0.067545 0
1.595000 -0.069400 0
1.600000 -0.070826 0
1.605000 -0.071881 0
1.610000 -0.072615 0
1.615000 -0.073074 0
1.620000 -0.073302 0
1.625000 -0.073333 0
1.630000 -0.073201 0
1.635000 -0.072933 0
1.640000 -0.072553 0
1.645000 -0.072082 0
1.650000 -0.071538 0
1.655000 -0.070934 0
1.660000 -0.070283 0
1.665000 -0.069596 0
1.670000 -0.068880 0
1.675000 -0.068142 0
1.680000 -0.067388 0
1.685000 -0.066623 0
1.690000 -0.065849 0
1.695000 -0.065069 0
1.700000 -0.064269 0
1.705000 -0.063468 0
1.710000 -0.062672 0
1.715000 -0.061879 0
1.720000 -0.061091 0
1.725000 -0.060306 0
1.730000 -0.059526 0
1.735000 -0.058749 0
1.740000 -0.057976 0
1.745000 -0.057207 0
1.750000 -0.056442 0
1.755000 -0.055680 0
1.760000 -0.054923 0
1.765000 -0.054169 0
1.770000 -0.053419 0
1.775000 -0.052672 0
1.780000 -0.051930 0
1.785000 -0.051191 0
1.790000 -0.050456 0
1.795000 -0.049724 0
1.800000 -0.048996 0
1.805000 -0.048272 0
1.810000 -0.047551 0
1.815000 -0.046834 0
1.820000 -0.046121 0
1.825000 -0.045411 0
1.830000 -0.044704 0
1.835000 -0.044001 0
1.840000 -0.043302 0
1.845000 -0.042606 0
1.850000 -0.041914 0
1.855000 -0.041225 0
1.860000 -0.040539 0
1.865000 -0.039857 0
1.870000 -0.039177 0
1.875000 -0.038501 0
1.880000 -0.037827 0
1.885000 -0.037156 0
1.890000 -0.036486 0
1.895000 -0.035816 0
1.900000 -0.035145 0
1.905000 -0.034469 0
1.910000 -0.033785 0
1.915000 -0.033085 0
1.920000 -0.032363 0
1.925000 -0.031604 0
1.930000 -0.030791 0
1.935000 -0.029900 0
1.940000 -0.028898 0
1.945000 -0.027742 0
1.950000 -0.026376 0
1.955000 -0.024730 0
1.960000 -0.022716 0
1.965000 -0.020228 0
1.970000 -0.017142 0
1.975000 -0.013313 0
1.980000 -0.008583 0
1.985000 -0.002782 0
1.990000 0.004267 0
1.995000 0.012734 0
2.000000 0.022772 0
2.005000 0.034504 0
2.010000 0.048003 0
2.015000 0.063283 0
2.020000 0.080278 0
2.025000 0.098829 0
2.030000 0.118680 0
2.035000 0.139471 0
2.040000 0.160743 0
2.045000 0.181951 0
2.050000 0.202485 0
2.055000 0.221692 0
2.060000 0.238914 0
2.065000 0.253525 0
2.070000 0.264962 0
2.075000 0.272769 0
2.080000 0.276618 1
2.085000 0.276340 0
2.090000 0.271928 0
2.095000 0.263547 0
2.100000 0.251516 0
2.105000 0.236291 0
2.110000 0.218436 0
2.115000 0.198585 0
2.120000 0.177410 0
2.125000 0.155578 0
2.130000 0.133721 0
2.135000 0.112404 0
2.140000 0.092106 0
2.145000 0.073203 0
2.150000 0.055961 0
2.155000 0.040528 0
2.160000 0.026916 0
2.165000 0.014967 0
2.170000 0.004280 0
2.175000 -0.005896 0
2.180000 -0.016779 0
2.185000 -0.030070 0
2.190000 -0.047737 0
2.195000 -0.071419 0
2.200000 -0.101462 0
2.205000 -0.135830 0
2.210000 -0.169390 0
2.215000 -0.193983 0
2.220000 -0.199382 2
2.225000 -0.174770 0
2.230000 -0.110255 0
2.235000 0.001568 0
2.240000 0.163461 0
2.245000 0.370277 0
2.250000 0.605388 0
2.255000 0.839280 0
2.260000 1.033165 0
2.265000 1.148434 0
2.270000 1.158944 3
2.275000 1.059223 0
2.280000 0.867283 0
2.285000 0.621581 0
2.290000 0.364821 0
2.295000 0.132298 0
2.300000 -0.053540 0
2.305000 -0.182694 0
2.310000 -0.254692 0
2.315000 -0.275923 4
2.320000 -0.257794 0
2.325000 -0.214720 0
2.330000 -0.161370 0
2.335000 -0.109715 0
2.340000 -0.067100 0
2.345000 -0.036059 0
2.350000 -0.015583 0
2.355000 -0.002946 0
2.360000 0.004786 0
2.365000 0.009941 0
2.370000 0.014047 0
2.375000 0.017977 0
2.380000 0.022189 0
2.385000 0.026917 0
2.390000 0.032297 0
2.395000 0.038421 0
2.400000 0.045370 0
2.405000 0.053214 0
2.410000 0.062019 0
2.415000 0.071846 0
2.420000 0.082743 0
2.425000 0.094747 0
2.430000 0.107882 0
2.435000 0.122152 0
2.440000 0.137541 0
2.445000 0.154010 0
2.450000 0.171496 0
2.455000 0.189907 0
2.460000 0.209126 0
2.465000 0.229006 0
2.470000 0.249375 0
2.475000 0.270034 0
2.480000 0.290759 0
2.485000 0.311309 0
2.490000 0.331423 0
2.495000 0.350833 0
2.500000 0.369262 0
2.505000 0.386435 0
2.510000 0.402085 0
2.515000 0.415958 0
2.520000 0.427820 0
2.525000 0.437463 0
2.530000 0.444714 0
2.535000 0.449433 0
2.540000 0.451524 5
2.545000 0.450936 0
2.550000 0.447660 0
2.555000 0.441737 0
2.560000 0.433250 0
2.565000 0.422327 0
2.570000 0.409133 0
2.575000 0.393871 0
2.580000 0.376771 0
2.585000 0.358087 0
2.590000 0.338091 0
2.595000 0.317065 0
2.600000 0.295293 0
2.605000 0.273059 0
2.610000 0.250635 0
2.615000 0.228281 0
2.620000 0.206236 0
2.625000 0.184716 0
2.630000 0.163914 0
2.635000 0.143991 0
2.640000 0.125083 0
2.645000 0.107293 0
2.650000 0.090699 0
2.655000 0.075350 0
2.660000 0.061270 0
2.665000 0.048461 0
2.670000 0.036903 0
2.675000 0.026560 0
2.680000 0.017383 0
2.685000 0.009309 0
2.690000 0.002268 0
2.695000 -0.003816 0
2.700000 -0.009022 0
2.705000 -0.013430 0
2.710000 -0.017121 0
2.715000 -0.020171 0
2.720000 -0.022656 0
2.725000 -0.024644 0
2.730000 -0.026200 0
2.735000 -0.027385 0
2.740000 -0.028251 0
2.745000 -0.028847 0
2.750000 -0.029215 0
2.755000 -0.029394 0
2.760000 -0.029415 0
2.765000 -0.029306 0
2.770000 -0.029092 0
2.775000 -0.028793 0
2.780000 -0.028425 0
2.785000 -0.028003 0
2.790000 -0.027538 0
2.795000 -0.027041 0
2.800000 -0.026517 0
2.805000 -0.025975 0
2.810000 -0.025418 0
2.815000 -0.024851 0
2.820000 -0.024277 0
2.825000 -0.023680 0
2.830000 -0.023082 0
2.835000 -0.022487 0
2.840000 -0.021895 0
2.845000 -0.021306 0
2.850000 -0.020720 0
2.855000 -0.020137 0
2.860000 -0.019556 0
2.865000 -0.018979 0
2.870000 -0.018404 0
2.875000 -0.017833 0
2.880000 -0.017264 0
2.885000 -0.016698 0
2.890000 -0.016135 0
2.895000 -0.015574 0
2.900000 -0.015017 0
2.905000 -0.014462 0
2.910000 -0.013910 0
2.915000 -0.013360 0
2.920000 -0.012814 0
2.925000 -0.012270 0
2.930000 -0.011729 0
2.935000 -0.011191 0
2.940000 -0.010655 0
2.945000 -0.010122 0
2.950000 -0.009591 0
2.955000 -0.009064 0
2.960000 -0.008539 0
2.965000 -0.008016 0
2.970000 -0.007496 0
2.975000 -0.006979 0
2.980000 -0.006464 0
2.985000 -0.005951 0
2.990000 -0.005441 0
2.995000 -0.004933 0
3.000000 -0.004427 0
3.005000 -0.003921 0
3.010000 -0.003416 0
3.015000 -0.002910 0
3.020000 -0.002400 0
3.025000 -0.001884 0
3.030000 -0.001355 0
3.035000 -0.000806 0
3.040000 -0.000226 0
3.045000 0.000401 0
3.050000 0.001098 0
3.055000 0.001896 0
3.060000 0.002837 0
3.065000 0.003976 0
3.070000 0.005382 0
3.075000 0.007146 0
3.080000 0.009376 0
3.085000 0.012202 0
3.090000 0.015776 0
3.095000 0.020265 0
3.100000 0.025853 0
3.105000 0.032728 0
3.110000 0.041073 0
3.115000 0.051054 0
3.120000 0.062799 0
3.125000 0.076384 0
3.130000 0.091813 0
3.135000 0.109000 0
3.140000 0.127756 0
3.145000 0.147779 0
3.150000 0.168654 0
3.155000 0.189858 0
3.160000 0.210780 0
3.165000 0.230741 0
3.170000 0.249036 0
3.175000 0.264966 0
3.180000 0.277888 0
3.185000 0.287252 0
3.190000 0.292642 0
3.195000 0.293803 1
3.200000 0.290664 0
3.205000 0.283340 0
3.210000 0.272127 0
3.215000 0.257476 0
3.220000 0.239972 0
3.225000 0.220284 0
3.230000 0.199129 0
3.235000 0.177226 0
3.240000 0.155257 0
3.245000 0.133832 0
3.250000 0.113467 0
3.255000 0.094561 0
3.260000 0.077392 0
3.265000 0.062103 0
3.270000 0.048687 0
3.275000 0.036932 0
3.280000 0.026336 0
3.285000 0.015974 0
3.290000 0.004382 0
3.295000 -0.010400 0
3.300000 -0.030450 0
3.305000 -0.057106 0
3.310000 -0.089749 0
3.315000 -0.124674 0
3.320000 -0.154648 0
3.325000 -0.169530 2
3.330000 -0.157774 0
3.335000 -0.108196 0
3.340000 -0.011712 0
3.345000 0.136488 0
3.350000 0.333568 0
3.355000 0.564852 0
3.360000 0.801330 0
3.365000 1.002506 0
3.370000 1.126274 0
3.375000 1.142904 3
3.380000 1.047457 0
3.385000 0.860963 0
3.390000 0.618812 0
3.395000 0.361327 0
3.400000 0.123029 0
3.405000 -0.072943 0
3.410000 -0.215128 0
3.415000 -0.301320 0
3.420000 -0.336048 4
3.425000 -0.328824 0
3.430000 -0.292530 0
3.435000 -0.241195 0
3.440000 -0.187338 0
3.445000 -0.139788 0
3.450000 -0.102860 0
3.455000 -0.076988 0
3.460000 -0.060215 0
3.465000 -0.049748 0
3.470000 -0.043015 0
3.475000 -0.038130 0
3.480000 -0.033909 0
3.485000 -0.029685 0
3.490000 -0.025110 0
3.495000 -0.019998 0
3.500000 -0.014234 0
3.505000 -0.007737 0
3.510000 -0.000432 0
3.515000 0.007746 0
3.520000 0.016859 0
3.525000 0.026961 0
3.530000 0.038098 0
3.535000 0.050306 0
3.540000 0.063604 0
3.545000 0.077999 0
3.550000 0.093477 0
3.555000 0.110003 0
3.560000 0.127522 0
3.565000 0.145952 0
3.570000 0.165189 0
3.575000 0.185101 0
3.580000 0.205532 0
3.585000 0.226303 0
3.590000 0.247212 0
3.595000 0.268039 0
3.600000 0.288544 0
3.605000 0.308480 0
3.610000 0.327589 0
3.615000 0.345612 0
3.620000 0.362295 0
3.625000 0.377390 0
3.630000 0.390669 0
3.635000 0.401919 0
3.640000 0.410958 0
3.645000 0.417632 0
3.650000 0.421823 0
3.655000 0.423452 5
3.660000 0.422479 0
3.665000 0.418907 0
3.670000 0.412780 0
3.675000 0.404183 0
3.680000 0.393238 0
3.685000 0.380106 0
3.690000 0.364976 0
3.695000 0.348065 0
3.700000 0.329612 0
3.705000 0.309871 0
3.710000 0.289106 0
3.715000 0.267585 0
3.720000 0.245572 0
3.725000 0.223327 0
3.730000 0.201096 0
3.735000 0.179108 0
3.740000 0.157572 0
3.745000 0.136677 0
3.750000 0.116583 0
3.755000 0.097426 0
3.760000 0.079317 0
3.765000 0.062337 0
3.770000 0.046544 0
3.775000 0.031973 0
3.780000 0.018636 0
3.785000 0.006526 0
3.790000 -0.004384 0
3.795000 -0.014132 0
3.800000 -0.022770 0
3.805000 -0.030358 0
3.810000 -0.036964 0
3.815000 -0.042661 0
3.820000 -0.047524 0
3.825000 -0.051627 0
3.830000 -0.055047 0
3.835000 -0.057854 0
3.840000 -0.060120 0
3.845000 -0.061908 0
3.850000 -0.063279 0
3.855000 -0.064290 0
3.860000 -0.064992 0
3.865000 -0.065428 0
3.870000 -0.065641 0
3.875000 -0.065665 0
3.880000 -0.065533 0
3.885000 -0.065271 0
3.890000 -0.064903 0
3.895000 -0.064448 0
3.900000 -0.063923 0
3.905000 -0.063342 0
3.910000 -0.062717 0
3.915000 -0.062057 0
3.920000 -0.061371 0
3.925000 -0.060664 0
3.930000 -0.059942 0
3.935000 -0.059210 0
3.940000 -0.058470 0
3.945000 -0.057721 0
3.950000 -0.056953 0
3.955000 -0.056189 0
3.960000 -0.055429 0
3.965000 -0.054673 0
3.970000 -0.053920 0
3.975000 -0.053171 0
3.980000 -0.052426 0
3.985000 -0.051685 0
3.990000 -0.050947 0
3.995000 -0.050213 0
4.000000 -0.049483 0
4.005000 -0.048756 0
4.010000 -0.048033 0
4.015000 -0.047313 0
4.020000 -0.046598 0
4.025000 -0.045885 0
4.030000 -0.045176 0
4.035000 -0.044471 0
4.040000 -0.043770 0
4.045000 -0.043071 0
4.050000 -0.042377 0
4.055000 -0.041685 0
4.060000 -0.040998 0
4.065000 -0.040313 0
4.070000 -0.039632 0
4.075000 -0.038955 0
4.080000 -0.038280 0
4.085000 -0.037610 0
4.090000 -0.036942 0
4.095000 -0.036278 0
4.100000 -0.035617 0
4.105000 -0.034959 0
4.110000 -0.034305 0
4.115000 -0.033653 0
4.120000 -0.033005 0
4.125000 -0.032359 0
4.130000 -0.031716 0
4.135000 -0.031074 0
4.140000 -0.030433 0
4.145000 -0.029791 0
4.150000 -0.029147 0
4.155000 -0.028496 0
4.160000 -0.027834 0
4.165000 -0.027153 0
4.170000 -0.026442 0
4.175000 -0.025687 0
4.180000 -0.024867 0
4.185000 -0.023953 0
4.190000 -0.022908 0
4.195000 -0.021682 0
4.200000 -0.020212 0
4.205000 -0.018418 0
4.210000 -0.016202 0
4.215000 -0.013449 0
4.220000 -0.010022 0
4.225000 -0.005769 0
4.230000 -0.000522 0
4.235000 0.005895 0
4.240000 0.013656 0
4.245000 0.022926 0
4.250000 0.033845 0
4.255000 0.046512 0
4.260000 0.060969 0
4.265000 0.077189 0
4.270000 0.095053 0
4.275000 0.114349 0
4.280000 0.134759 0
4.285000 0.155864 0
4.290000 0.177149 0
4.295000 0.198026 0
4.300000 0.217850 0
4.305000 0.235958 0
4.310000 0.251699 0
4.315000 0.264476 0
4.320000 0.273781 0
4.325000 0.279229 0
4.330000 0.280582 1
4.335000 0.277768 0
4.340000 0.270887 0
4.345000 0.260199 0
4.350000 0.246115 0
4.355000 0.229165 0
4.360000 0.209965 0
4.365000 0.189183 0
4.370000 0.167498 0
4.375000 0.145561 0
4.380000 0.123970 0
4.385000 0.103241 0
4.390000 0.083790 0
4.395000 0.065926 0
4.400000 0.049840 0
4.405000 0.035595 0
4.410000 0.023095 0
4.415000 0.012030 0
4.420000 0.001774 0
4.425000 -0.008736 0
4.430000 -0.021065 0
4.435000 -0.037155 0
4.440000 -0.058851 0
4.445000 -0.087029 0
4.450000 -0.120489 0
4.455000 -0.155049 0
4.460000 -0.183346 0
4.465000 -0.195558 2
4.470000 -0.180797 0
4.475000 -0.128675 0
4.480000 -0.030826 0
4.485000 0.117141 0
4.490000 0.312650 0
4.495000 0.542434 0
4.500000 0.780184 0
4.505000 0.988624 0
4.510000 1.127637 0
4.515000 1.166472 3
4.520000 1.094917 0
4.525000 0.926941 0
4.530000 0.694477 0
4.535000 0.437141 0
4.540000 0.191082 0
4.545000 -0.017833 0
4.550000 -0.175443 0
4.555000 -0.277353 0
4.560000 -0.326346 0
4.565000 -0.330502 4
4.570000 -0.301698 0
4.575000 -0.253665 0
4.580000 -0.199467 0
4.585000 -0.149135 0
4.590000 -0.108389 0
4.595000 -0.078816 0
4.600000 -0.059124 0
4.605000 -0.046706 0
4.610000 -0.038869 0
4.615000 -0.033485 0
4.620000 -0.029140 0
4.625000 -0.025005 0
4.630000 -0.020634 0
4.635000 -0.015794 0
4.640000 -0.010350 0
4.645000 -0.004212 0
4.650000 0.002697 0
4.655000 0.010442 0
4.660000 0.019088 0
4.665000 0.028691 0
4.670000 0.039300 0
4.675000 0.050955 0
4.680000 0.063683 0
4.685000 0.077498 0
4.690000 0.092396 0
4.695000 0.108353 0
4.700000 0.125326 0
4.705000 0.143248 0
4.710000 0.162028 0
4.715000 0.181550 0
4.720000 0.201676 0
4.725000 0.222240 0
4.730000 0.243057 0
4.735000 0.263920 0
4.740000 0.284603 0
4.745000 0.304869 0
4.750000 0.324467 0
4.755000 0.343145 0
4.760000 0.360649 0
4.765000 0.376729 0
4.770000 0.391149 0
4.775000 0.403689 0
4.780000 0.414151 0
4.785000 0.422364 0
4.790000 0.428188 0
4.795000 0.431520 0
4.800000 0.432295 5
4.805000 0.430485 0
4.810000 0.426107 0
4.815000 0.419215 0
4.820000 0.409905 0
4.825000 0.398308 0
4.830000 0.384589 0
4.835000 0.368943 0
4.840000 0.351590 0
4.845000 0.332768 0
4.850000 0.312730 0
4.855000 0.291737 0
4.860000 0.270052 0
4.865000 0.247936 0
4.870000 0.225641 0
4.875000 0.203406 0
4.880000 0.181453 0
4.885000 0.159985 0
4.890000 0.139181 0
4.895000 0.119197 0
4.900000 0.100161 0
4.905000 0.082177 0
4.910000 0.065325 0
4.915000 0.049656 0
4.920000 0.035202 0
4.925000 0.021973 0
4.930000 0.009958 0
4.935000 -0.000867 0
4.940000 -0.010544 0
4.945000 -0.019124 0
4.950000 -0.026667 0
4.955000 -0.033240 0
4.960000 -0.038914 0
4.965000 -0.043764 0
4.970000 -0.047864 0
4.975000 -0.051287 0
4.980000 -0.054105 0
4.985000 -0.056385 0
4.990000 -0.058192 0
4.995000 -0.059586 0
5.000000 -0.060621 0
5.005000 -0.061347 0
5.010000 -0.061810 0
5.015000 -0.062050 0
5.020000 -0.062101 0
5.025000 -0.061995 0
5.030000 -0.061758 0
5.035000 -0.061415 0
5.040000 -0.060984 0
5.045000 -0.060482 0
5.050000 -0.059924 0
5.055000 -0.059320 0
5.060000 -0.058681 0
5.065000 -0.058015 0
5.070000 -0.057328 0
5.075000 -0.056625 0
5.080000 -0.055911 0
5.085000 -0.055189 0
5.090000 -0.054458 0
5.095000 -0.053706 0
5.100000 -0.052958 0
5.105000 -0.052214 0
5.110000 -0.051474 0
5.115000 -0.050737 0
5.120000 -0.050004 0
5.125000 -0.049275 0
5.130000 -0.048550 0
5.135000 -0.047827 0
5.140000 -0.047109 0
5.145000 -0.046394 0
5.150000 -0.045683 0
5.155000 -0.044975 0
5.160000 -0.044271 0
5.165000 -0.043570 0
5.170000 -0.042873 0
5.175000 -0.042179 0
5.180000 -0.041489 0
5.185000 -0.040802 0
5.190000 -0.040119 0
5.195000 -0.039439 0
5.200000 -0.038762 0
5.205000 -0.038089 0
5.210000 -0.037419 0
5.215000 -0.036752 0
5.220000 -0.036089 0
5.225000 -0.035429 0
5.230000 -0.034773 0
5.235000 -0.034119 0
5.240000 -0.033469 0
5.245000 -0.032822 0
5.250000 -0.032179 0
5.255000 -0.031538 0
5.260000 -0.030901 0
5.265000 -0.030266 0
5.270000 -0.029634 0
5.275000 -0.029005 0
5.280000 -0.028377 0
5.285000 -0.027751 0
5.290000 -0.027125 0
5.295000 -0.026497 0
5.300000 -0.025865 0
5.305000 -0.025224 0
5.310000 -0.024569 0
5.315000 -0.023891 0
5.320000 -0.023177 0
5.325000 -0.022410 0
5.330000 -0.021568 0
5.335000 -0.020617 0
5.340000 -0.019517 0
5.345000 -0.018213 0
5.350000 -0.016636 0
5.355000 -0.014702 0
5.360000 -0.012306 0
5.365000 -0.009328 0
5.370000 -0.005626 0
5.375000 -0.001045 0
5.380000 0.004584 0
5.385000 0.011434 0
5.390000 0.019676 0
5.395000 0.029464 0
5.400000 0.040923 0
5.405000 0.054137 0
5.410000 0.069126 0
5.415000 0.085836 0
5.420000 0.104125 0
5.425000 0.123754 0
5.430000 0.144381 0
5.435000 0.165568 0
5.440000 0.186787 0
5.445000 0.207441 0
5.450000 0.226890 0
5.455000 0.244481 0
5.460000 0.259581 0
5.465000 0.271622 0
5.470000 0.280127 0
5.475000 0.284744 0
5.480000 0.285274 1
5.485000 0.281677 0
5.490000 0.274080 0
5.495000 0.262769 0
5.500000 0.248168 0
5.505000 0.230815 0
5.510000 0.211328 0
5.515000 0.190365 0
5.520000 0.168593 0
5.525000 0.146648 0
5.530000 0.125110 0
5.535000 0.104476 0
5.540000 0.085146 0
5.545000 0.067413 0
5.550000 0.051453 0
5.555000 0.037319 0
5.560000 0.024904 0
5.565000 0.013888 0
5.570000 0.003636 0
5.575000 -0.006919 0
5.580000 -0.019333 0
5.585000 -0.035520 0
5.590000 -0.057292 0
5.595000 -0.085494 0
5.600000 -0.118941 0
5.605000 -0.153539 0
5.610000 -0.182088 0
5.615000 -0.194963 2
5.620000 -0.181463 0
5.625000 -0.131321 0
5.630000 -0.036176 0
5.635000 0.108577 0
5.640000 0.300956 0
5.645000 0.528779 0
5.650000 0.767194 0
5.655000 0.980236 0
5.660000 1.128201 0
5.665000 1.179281 3
5.670000 1.119384 0
5.675000 0.957774 0
5.680000 0.727276 0
5.685000 0.469947 0
5.690000 0.224372 0
5.695000 0.017851 0
5.700000 -0.135132 0
5.705000 -0.230638 0
5.710000 -0.272389 4
5.715000 -0.269713 0
5.720000 -0.235807 0
5.725000 -0.185376 0
5.730000 -0.131724 0
5.735000 -0.084304 0
5.740000 -0.047729 0
5.745000 -0.022442 0
5.750000 -0.006354 0
5.755000 0.003471 0
5.760000 0.009679 0
5.765000 0.014168 0
5.770000 0.018101 0
5.775000 0.022112 0
5.780000 0.026530 0
5.785000 0.031529 0
5.790000 0.037219 0
5.795000 0.043683 0
5.800000 0.050996 0
5.805000 0.059226 0
5.810000 0.068435 0
5.815000 0.078678 0
5.820000 0.090000 0
5.825000 0.102430 0
5.830000 0.115985 0
5.835000 0.130663 0
5.840000 0.146438 0
5.845000 0.163265 0
5.850000 0.181070 0
5.855000 0.199756 0
5.860000 0.219196 0
5.865000 0.239239 0
5.870000 0.259704 0
5.875000 0.280389 0
5.880000 0.301067 0
5.885000 0.321495 0
5.890000 0.341414 0
5.895000 0.360555 0
5.900000 0.378648 0
5.905000 0.395424 0
5.910000 0.410620 0
5.915000 0.423993 0
5.920000 0.435317 0
5.925000 0.444397 0
5.930000 0.451067 0
5.935000 0.455203 0
5.940000 0.456716 5
5.945000 0.455566 0
5.950000 0.451755 0
5.955000 0.445329 0
5.960000 0.436380 0
5.965000 0.425040 0
5.970000 0.411479 0
5.975000 0.395900 0
5.980000 0.378534 0
5.985000 0.359635 0
5.990000 0.339472 0
5.995000 0.318322 0
6.000000 0.296467 0
6.005000 0.274183 0
6.010000 0.251738 0
6.015000 0.229386 0
6.020000 0.207361 0
6.025000 0.185873 0
6.030000 0.165110 0
6.035000 0.145229 0
6.040000 0.126361 0
6.045000 0.108608 0
6.050000 0.092044 0
6.055000 0.076717 0
6.060000 0.062650 0
6.065000 0.049843 0
6.070000 0.038279 0
6.075000 0.027921 0
6.080000 0.018720 0
6.085000 0.010615 0
6.090000 0.003537 0
6.095000 -0.002588 0
6.100000 -0.007839 0
6.105000 -0.012294 0
6.110000 -0.016032 0
6.115000 -0.019130 0
6.120000 -0.021661 0
6.125000 -0.023693 0
6.130000 -0.025292 0
6.135000 -0.026516 0
6.140000 -0.027419 0
6.145000 -0.028048 0
6.150000 -0.028447 0
6.155000 -0.028653 0
6.160000 -0.028698 0
6.165000 -0.028611 0
6.170000 -0.028416 0
6.175000 -0.028133 0
6.180000 -0.027780 0
6.185000 -0.027370 0
6.190000 -0.026916 0
6.195000 -0.026428 0
6.200000 -0.025913 0
6.205000 -0.025378 0
6.210000 -0.024828 0
6.215000 -0.024266 0
6.220000 -0.023697 0
6.225000 -0.023104 0
6.230000 -0.022509 0
6.235000 -0.021916 0
6.240000 -0.021327 0
6.245000 -0.020741 0
6.250000 -0.020158 0
6.255000 -0.019577 0
6.260000 -0.019000 0
6.265000 -0.018425 0
6.270000 -0.017853 0
6.275000 -0.017284 0
6.280000 -0.016718 0
6.285000 -0.016155 0
6.290000 -0.015594 0
6.295000 -0.015037 0
6.300000 -0.014482 0
6.305000 -0.013930 0
6.310000 -0.013380 0
6.315000 -0.012833 0
6.320000 -0.012290 0
6.325000 -0.011748 0
6.330000 -0.011210 0
6.335000 -0.010674 0
6.340000 -0.010141 0
6.345000 -0.009610 0
6.350000 -0.009083 0
6.355000 -0.008557 0
6.360000 -0.008035 0
6.365000 -0.007515 0
6.370000 -0.006997 0
6.375000 -0.006482 0
6.380000 -0.005970 0
6.385000 -0.005460 0
6.390000 -0.004953 0
6.395000 -0.004447 0
6.400000 -0.003944 0
6.405000 -0.003442 0
6.410000 -0.002940 0
6.415000 -0.002439 0
6.420000 -0.001935 0
6.425000 -0.001427 0
6.430000 -0.000909 0
6.435000 -0.000377 0
6.440000 0.000179 0
6.445000 0.000772 0
6.450000 0.001420 0
6.455000 0.002148 0
6.460000 0.002991 0
6.465000 0.003995 0
6.470000 0.005218 0
6.475000 0.006736 0
6.480000 0.008645 0
6.485000 0.011058 0
6.490000 0.014110 0
6.495000 0.017956 0
6.500000 0.022768 0
6.505000 0.028727 0
6.510000 0.036020 0
6.515000 0.044822 0
6.520000 0.055287 0
6.525000 0.067530 0
6.530000 0.081606 0
6.535000 0.097498 0
6.540000 0.115096 0
6.545000 0.134186 0
6.550000 0.154443 0
6.555000 0.175433 0
6.560000 0.196620 0
6.565000 0.217385 0
6.570000 0.237052 0
6.575000 0.254923 0
6.580000 0.270320 0
6.585000 0.282623 0
6.590000 0.291312 0
6.595000 0.296004 0
6.600000 0.296477 1
6.605000 0.292689 0
6.610000 0.284781 0
6.615000 0.273067 0
6.620000 0.258013 0
6.625000 0.240205 0
6.630000 0.220310 0
6.635000 0.199036 0
6.640000 0.177089 0
6.645000 0.155134 0
6.650000 0.133766 0
6.655000 0.113483 0
6.660000 0.094671 0
6.665000 0.077594 0
6.670000 0.062388 0
6.675000 0.049034 0
6.680000 0.037319 0
6.685000 0.026737 0
6.690000 0.016368 0
6.695000 0.004763 0
6.700000 -0.010009 0
6.705000 -0.029996 0
6.710000 -0.056529 0
6.715000 -0.089048 0
6.720000 -0.123998 0
6.725000 -0.154371 0
6.730000 -0.170283 2
6.735000 -0.160394 0
6.740000 -0.113628 0
6.745000 -0.020850 0
6.750000 0.123086 0
6.755000 0.316168 0
6.760000 0.545153 0
6.765000 0.782853 0
6.770000 0.990248 0
6.775000 1.125383 0
6.780000 1.156780 3
6.785000 1.076015 0
6.790000 0.900480 0
6.795000 0.663758 0
6.800000 0.406084 0
6.805000 0.163193 0
6.810000 -0.040068 0
6.815000 -0.190674 0
6.820000 -0.285225 0
6.825000 -0.327348 4
6.830000 -0.325861 0
6.835000 -0.293212 0
6.840000 -0.243380 0
6.845000 -0.189251 0
6.850000 -0.140307 0
6.855000 -0.101567 0
6.860000 -0.074001 0
6.865000 -0.055938 0
6.870000 -0.044641 0
6.875000 -0.037462 0
6.880000 -0.032396 0
6.885000 -0.028152 0
6.890000 -0.023992 0
6.895000 -0.019528 0
6.900000 -0.014553 0
6.905000 -0.008945 0
6.910000 -0.002617 0
6.915000 0.004504 0
6.920000 0.012485 0
6.925000 0.021388 0
6.930000 0.031270 0
6.935000 0.042177 0
6.940000 0.054147 0
6.945000 0.067204 0
6.950000 0.081355 0
6.955000 0.096592 0
6.960000 0.112884 0
6.965000 0.130181 0
6.970000 0.148405 0
6.975000 0.167457 0
6.980000 0.187212 0
6.985000 0.207520 0
6.990000 0.228205 0
6.995000 0.249072 0
7.000000 0.269904 0
7.005000 0.290467 0
7.010000 0.310514 0
7.015000 0.329791 0
7.020000 0.348041 0
7.025000 0.365006 0
7.030000 0.380440 0
7.035000 0.394109 0
7.040000 0.405798 0
7.045000 0.415317 0
7.050000 0.422507 0
7.055000 0.427243 0
7.060000 0.429434 5
7.065000 0.429034 0
7.070000 0.426035 0
7.075000 0.420471 0
7.080000 0.412417 0
7.085000 0.401988 0
7.090000 0.389334 0
7.095000 0.374638 0
7.100000 0.358109 0
7.105000 0.339982 0
7.110000 0.320505 0
7.115000 0.299941 0
7.120000 0.278555 0
7.125000 0.256613 0
7.130000 0.234376 0
7.135000 0.212091 0
7.140000 0.189994 0
7.145000 0.168297 0
7.150000 0.147193 0
7.155000 0.126850 0
7.160000 0.107411 0
7.165000 0.088990 0
7.170000 0.071679 0
7.175000 0.055540 0
7.180000 0.040615 0
7.185000 0.026920 0
7.190000 0.014453 0
7.195000 0.003194 0
7.200000 -0.006892 0
7.205000 -0.015855 0
7.210000 -0.023752 0
7.215000 -0.030649 0
7.220000 -0.036618 0
7.225000 -0.041732 0
7.230000 -0.046067 0
7.235000 -0.049697 0
7.240000 -0.052696 0
7.245000 -0.055134 0
7.250000 -0.057076 0
7.255000 -0.058586 0
7.260000 -0.059720 0
7.265000 -0.060529 0
7.270000 -0.061061 0
7.275000 -0.061358 0
7.280000 -0.061457 0
7.285000 -0.061391 0
7.290000 -0.061187 0
7.295000 -0.060869 0
7.300000 -0.060460 0
7.305000 -0.059976 0
7.310000 -0.059431 0
7.315000 -0.058839 0
7.320000 -0.058210 0
7.325000 -0.057551 0
7.330000 -0.056871 0
7.335000 -0.056174 0
7.340000 -0.055464 0
7.345000 -0.054746 0
7.350000 -0.054022 0
7.355000 -0.053277 0
7.360000 -0.052531 0
7.365000 -0.051789 0
7.370000 -0.051051 0
7.375000 -0.050317 0
7.380000 -0.049586 0
7.385000 -0.048858 0
7.390000 -0.048135 0
7.395000 -0.047415 0
7.400000 -0.046698 0
7.405000 -0.045986 0
7.410000 -0.045276 0
7.415000 -0.044571 0
7.420000 -0.043868 0
7.425000 -0.043170 0
7.430000 -0.042475 0
7.435000 -0.041783 0
7.440000 -0.041095 0
7.445000 -0.040410 0
7.450000 -0.039728 0
7.455000 -0.039050 0
7.460000 -0.038375 0
7.465000 -0.037704 0
7.470000 -0.037036 0
7.475000 -0.036372 0
7.480000 -0.035710 0
7.485000 -0.035052 0
7.490000 -0.034398 0
7.495000 -0.033746 0
7.500000 -0.033098 0
7.505000 -0.032453 0
7.510000 -0.031811 0
7.515000 -0.031172 0
7.520000 -0.030536 0
7.525000 -0.029904 0
7.530000 -0.029274 0
7.535000 -0.028646 0
7.540000 -0.028020 0
7.545000 -0.027396 0
7.550000 -0.026771 0
7.555000 -0.026144 0
7.560000 -0.025512 0
7.565000 -0.024872 0
7.570000 -0.024215 0
7.575000 -0.023534 0
7.580000 -0.022815 0
7.585000 -0.022040 0
7.590000 -0.021183 0
7.595000 -0.020212 0
7.600000 -0.019082 0
7.605000 -0.017736 0
7.610000 -0.016101 0
7.615000 -0.014087 0
7.620000 -0.011586 0
7.625000 -0.008471 0
7.630000 -0.004597 0
7.635000 0.000199 0
7.640000 0.006089 0
7.645000 0.013248 0
7.650000 0.021847 0
7.655000 0.032037 0
7.660000 0.043935 0
7.665000 0.057611 0
7.670000 0.073069 0
7.675000 0.090230 0
7.680000 0.108924 0
7.685000 0.128881 0
7.690000 0.149726 0
7.695000 0.170986 0
7.700000 0.192103 0
7.705000 0.212456 0
7.710000 0.231388 0
7.715000 0.248241 0
7.720000 0.262391 0
7.725000 0.273287 0
7.730000 0.280487 0
7.735000 0.283687 1
7.740000 0.282738 0
7.745000 0.277662 0
7.750000 0.268648 0
7.755000 0.256040 0
7.760000 0.240316 0
7.765000 0.222055 0
7.770000 0.201904 0
7.775000 0.180539 0
7.780000 0.158626 0
7.785000 0.136790 0
7.790000 0.115585 0
7.795000 0.095475 0
7.800000 0.076818 0
7.805000 0.059862 0
7.810000 0.044731 0
7.815000 0.031411 0
7.820000 0.019704 0
7.825000 0.009150 0
7.830000 -0.001086 0
7.835000 -0.012323 0
7.840000 -0.026351 0
7.845000 -0.045139 0
7.850000 -0.070163 0
7.855000 -0.101372 0
7.860000 -0.136132 0
7.865000 -0.168628 0
7.870000 -0.190133 2
7.875000 -0.190125 0
7.880000 -0.157810 0
7.885000 -0.083650 0
7.890000 0.039010 0
7.895000 0.211525 0
7.900000 0.426475 0
7.905000 0.664275 0
7.910000 0.892666 0
7.915000 1.071732 0
7.920000 1.164478 3
7.925000 1.148105 0
7.930000 1.022499 0
7.935000 0.813552 0
7.940000 0.561492 0
7.945000 0.307575 0
7.950000 0.083940 0
7.955000 -0.090179 0
7.960000 -0.207210 0
7.965000 -0.268281 0
7.970000 -0.280827 4
7.975000 -0.256852 0
7.980000 -0.210853 0
7.985000 -0.157022 0
7.990000 -0.106469 0
7.995000 -0.065617 0
8.000000 -0.036293 0
8.005000 -0.017126 0
8.010000 -0.005317 0
8.015000 0.001978 0
8.020000 0.006952 0
8.025000 0.011019 0
8.030000 0.014980 0
8.035000 0.019254 0
8.040000 0.024057 0
8.045000 0.029516 0
8.050000 0.035722 0
8.055000 0.042752 0
8.060000 0.050675 0
8.065000 0.059558 0
8.070000 0.069457 0
8.075000 0.080420 0
8.080000 0.092485 0
8.085000 0.105672 0
8.090000 0.119985 0
8.095000 0.135409 0
8.100000 0.151903 0
8.105000 0.169406 0
8.110000 0.187827 0
8.115000 0.207050 0
8.120000 0.226931 0
8.125000 0.247300 0
8.130000 0.267960 0
8.135000 0.288694 0
8.140000 0.309262 0
8.145000 0.329410 0
8.150000 0.348871 0
8.155000 0.367374 0
8.160000 0.384648 0
8.165000 0.400428 0
8.170000 0.414462 0
8.175000 0.426518 0
8.180000 0.436388 0
8.185000 0.443898 0
8.190000 0.448906 0
8.195000 0.451315 5
8.200000 0.451065 0
8.205000 0.448146 0
8.210000 0.442589 0
8.215000 0.434472 0
8.220000 0.423915 0
8.225000 0.411075 0
8.230000 0.396145 0
8.235000 0.379351 0
8.240000 0.360937 0
8.245000 0.341171 0
8.250000 0.320328 0
8.255000 0.298690 0
8.260000 0.276535 0
8.265000 0.254137 0
8.270000 0.231753 0
8.275000 0.209624 0
8.280000 0.187971 0
8.285000 0.166987 0
8.290000 0.146840 0
8.295000 0.127669 0
8.300000 0.109586 0
8.305000 0.092673 0
8.310000 0.076986 0
8.315000 0.062556 0
8.320000 0.049389 0
8.325000 0.037473 0
8.330000 0.026777 0
8.335000 0.017255 0
8.340000 0.008849 0
8.345000 0.001493 0
8.350000 -0.004887 0
8.355000 -0.010368 0
8.360000 -0.015030 0
8.365000 -0.018951 0
8.370000 -0.022209 0
8.375000 -0.024879 0
8.380000 -0.027030 0
8.385000 -0.028729 0
8.390000 -0.030037 0
8.395000 -0.031008 0
8.400000 -0.031692 0
8.405000 -0.032134 0
8.410000 -0.032372 0
8.415000 -0.032441 0
8.420000 -0.032370 0
8.425000 -0.032185 0
8.430000 -0.031906 0
8.435000 -0.031553 0
8.440000 -0.031139 0
8.445000 -0.030679 0
8.450000 -0.030181 0
8.455000 -0.029655 0
8.460000 -0.029106 0
8.465000 -0.028542 0
8.470000 -0.027966 0
8.475000 -0.027381 0
8.480000 -0.026786 0
8.485000 -0.026173 0
8.490000 -0.025562 0
8.495000 -0.024955 0
8.500000 -0.024351 0
8.505000 -0.023749 0
8.510000 -0.023151 0
8.515000 -0.022555 0
8.520000 -0.021963 0
8.525000 -0.021374 0
8.530000 -0.020787 0
8.535000 -0.020203 0
8.540000 -0.019623 0
8.545000 -0.019045 0
8.550000 -0.018470 0
8.555000 -0.017898 0
8.560000 -0.017329 0
8.565000 -0.016763 0
8.570000 -0.016199 0
8.575000 -0.015638 0
8.580000 -0.015081 0
8.585000 -0.014525 0
8.590000 -0.013973 0
8.595000 -0.013423 0
8.600000 -0.012877 0
8.605000 -0.012332 0
8.610000 -0.011791 0
8.615000 -0.011252 0
8.620000 -0.010716 0
8.625000 -0.010183 0
8.630000 -0.009652 0
8.635000 -0.009124 0
8.640000 -0.008598 0
8.645000 -0.008075 0
8.650000 -0.007554 0
8.655000 -0.007035 0
8.660000 -0.006518 0
8.665000 -0.006002 0
8.670000 -0.005486 0
8.675000 -0.004969 0
8.680000 -0.004447 0
8.685000 -0.003918 0
8.690000 -0.003375 0
8.695000 -0.002811 0
8.700000 -0.002213 0
8.705000 -0.001565 0
8.710000 -0.000844 0
8.715000 -0.000016 0
8.720000 0.000961 0
8.725000 0.002144 0
8.730000 0.003604 0
8.735000 0.005432 0
8.740000 0.007738 0
8.745000 0.010652 0
8.750000 0.014326 0
8.755000 0.018929 0
8.760000 0.024641 0
8.765000 0.031647 0
8.770000 0.040129 0
8.775000 0.050246 0
8.780000 0.062122 0
8.785000 0.075827 0
8.790000 0.091361 0
8.795000 0.108633 0
8.800000 0.127452 0
8.805000 0.147515 0
8.810000 0.168410 0
8.815000 0.189618 0
8.820000 0.210535 0
8.825000 0.230491 0
8.830000 0.248791 0
8.835000 0.264746 0
8.840000 0.277719 0
8.845000 0.287169 0
8.850000 0.292679 0
8.855000 0.293997 1
8.860000 0.291043 0
8.865000 0.283923 0
8.870000 0.272921 0
8.875000 0.258475 0
8.880000 0.241153 0
8.885000 0.221611 0
8.890000 0.200555 0
8.895000 0.178694 0
8.900000 0.156706 0
8.905000 0.135201 0
8.910000 0.114698 0
8.915000 0.095606 0
8.920000 0.078212 0
8.925000 0.062676 0
8.930000 0.049010 0
8.935000 0.037041 0
8.940000 0.026322 0
8.945000 0.016016 0
8.950000 0.004768 0
8.955000 -0.009289 0
8.960000 -0.028231 0
8.965000 -0.053595 0
8.970000 -0.085236 0
8.975000 -0.120162 0
8.980000 -0.151931 0
8.985000 -0.171044 2
8.990000 -0.166264 0
8.995000 -0.126331 0
9.000000 -0.041646 0
9.005000 0.093790 0
9.010000 0.279412 0
9.015000 0.504052 0
9.020000 0.742757 0
9.025000 0.957919 0
9.030000 1.107124 0
9.035000 1.156242 3
9.040000 1.094021 0
9.045000 0.932996 0
9.050000 0.704200 0
9.055000 0.447419 0
9.060000 0.199668 0
9.065000 -0.012144 0
9.070000 -0.173007 0
9.075000 -0.277969 0
9.080000 -0.329490 0
9.085000 -0.335483 4
9.090000 -0.307784 0
9.095000 -0.260211 0
9.100000 -0.206016 0
9.105000 -0.155446 0
9.110000 -0.114403 0
9.115000 -0.084581 0
9.120000 -0.064723 0
9.125000 -0.052209 0
9.130000 -0.044319 0
9.135000 -0.038903 0
9.140000 -0.034532 0
9.145000 -0.030369 0
9.150000 -0.025968 0
9.155000 -0.021092 0
9.160000 -0.015609 0
9.165000 -0.009426 0
9.170000 -0.002468 0
9.175000 0.005333 0
9.180000 0.014040 0
9.185000 0.023710 0
9.190000 0.034393 0
9.195000 0.046128 0
9.200000 0.058943 0
9.205000 0.072850 0
9.210000 0.087843 0
9.215000 0.103898 0
9.220000 0.120970 0
9.225000 0.138989 0
9.230000 0.157862 0
9.235000 0.177471 0
9.240000 0.197672 0
9.245000 0.218298 0
9.250000 0.239159 0
9.255000 0.260044 0
9.260000 0.280724 0
9.265000 0.300958 0
9.270000 0.320494 0
9.275000 0.339075 0
9.280000 0.356446 0
9.285000 0.372357 0
9.290000 0.386570 0
9.295000 0.398867 0
9.300000 0.409050 0
9.305000 0.416953 0
9.310000 0.422438 0
9.315000 0.425408 0
9.320000 0.425802 5
9.325000 0.423600 0
9.330000 0.418825 0
9.335000 0.411538 0
9.340000 0.401842 0
9.345000 0.389877 0
9.350000 0.375814 0
9.355000 0.359854 0
9.360000 0.342224 0
9.365000 0.323168 0
9.370000 0.302942 0
9.375000 0.281811 0
9.380000 0.260040 0
9.385000 0.237890 0
9.390000 0.215614 0
9.395000 0.193448 0
9.400000 0.171615 0
9.405000 0.150311 0
9.410000 0.129713 0
9.415000 0.109971 0
9.420000 0.091209 0
9.425000 0.073526 0
9.430000 0.056994 0
9.435000 0.041661 0
9.440000 0.027552 0
9.445000 0.014672 0
9.450000 0.003006 0
9.455000 -0.007476 0
9.460000 -0.016818 0
9.465000 -0.025075 0
9.470000 -0.032309 0
9.475000 -0.038591 0
9.480000 -0.043992 0
9.485000 -0.048588 0
9.490000 -0.052454 0
9.495000 -0.055662 0
9.500000 -0.058284 0
9.505000 -0.060388 0
9.510000 -0.062037 0
9.515000 -0.063290 0
9.520000 -0.064199 0
9.525000 -0.064815 0
9.530000 -0.065180 0
9.535000 -0.065334 0
9.540000 -0.065310 0
9.545000 -0.065138 0
9.550000 -0.064844 0
9.555000 -0.064451 0
9.560000 -0.063976 0
9.565000 -0.063435 0
9.570000 -0.062843 0
9.575000 -0.062209 0
9.580000 -0.061543 0
9.585000 -0.060852 0
9.590000 -0.060143 0
9.595000 -0.059420 0
9.600000 -0.058687 0
9.605000 -0.057947 0
9.610000 -0.057199 0
9.615000 -0.056434 0
9.620000 -0.055673 0
9.625000 -0.054915 0
9.630000 -0.054161 0
9.635000 -0.053411 0
9.640000 -0.052665 0
9.645000 -0.051922 0
9.650000 -0.051183 0
9.655000 -0.050448 0
9.660000 -0.049717 0
9.665000 -0.048989 0
9.670000 -0.048265 0
9.675000 -0.047544 0
9.680000 -0.046827 0
9.685000 -0.046114 0
9.690000 -0.045404 0
9.695000 -0.044697 0
9.700000 -0.043994 0
9.705000 -0.043295 0
9.710000 -0.042599 0
9.715000 -0.041907 0
9.720000 -0.041218 0
9.725000 -0.040532 0
9.730000 -0.039850 0
9.735000 -0.039172 0
9.740000 -0.038496 0
9.745000 -0.037825 0
9.750000 -0.037156 0
9.755000 -0.036491 0
9.760000 -0.035829 0
9.765000 -0.035170 0
9.770000 -0.034515 0
9.775000 -0.033862 0
9.780000 -0.033213 0
9.785000 -0.032567 0
9.790000 -0.031923 0
9.795000 -0.031282 0
9.800000 -0.030642 0
9.805000 -0.030003 0
9.810000 -0.029363 0
9.815000 -0.028720 0
9.820000 -0.028070 0
9.825000 -0.027409 0
9.830000 -0.026728 0
9.835000 -0.026016 0
9.840000 -0.025260 0
9.845000 -0.024437 0
9.850000 -0.023518 0
9.855000 -0.022466 0
9.860000 -0.021231 0
9.865000 -0.019749 0
9.870000 -0.017941 0
9.875000 -0.015708 0
9.880000 -0.012935 0
9.885000 -0.009486 0
9.890000 -0.005208 0
9.895000 0.000064 0
9.900000 0.006504 0
9.905000 0.014287 0
9.910000 0.023576 0
9.915000 0.034507 0
9.920000 0.047181 0
9.925000 0.061638 0
9.930000 0.077849 0
9.935000 0.095700 0
9.940000 0.114979 0
9.945000 0.135372 0
9.950000 0.156463 0
9.955000 0.177746 0
9.960000 0.198636 0
9.965000 0.218495 0
9.970000 0.236664 0
9.975000 0.252498 0
9.980000 0.265401 0
9.985000 0.274865 0
9.990000 0.280501 0
9.995000 0.282066 1
10.000000 0.279481 0
10.005000 0.272833 0
10.010000 0.262372 0
10.015000 0.248498 0
10.020000 0.231728 0
10.025000 0.212670 0
10.030000 0.191985 0
10.035000 0.170344 0
10.040000 0.148399 0
10.045000 0.126750 0
10.050000 0.105914 0
10.055000 0.086318 0
10.060000 0.068276 0
10.065000 0.051992 0
10.070000 0.037541 0
10.075000 0.024850 0
10.080000 0.013639 0
10.085000 0.003329 0
10.090000 -0.007074 0
10.095000 -0.019061 0
10.100000 -0.034529 0
10.105000 -0.055365 0
10.110000 -0.082637 0
10.115000 -0.115509 0
10.120000 -0.150300 0
10.125000 -0.180152 0
10.130000 -0.195614 2
10.135000 -0.185943 0
10.140000 -0.140648 0
10.145000 -0.050985 0
10.150000 0.088249 0
10.155000 0.275959 0
10.160000 0.501106 0
10.165000 0.739938 0
10.170000 0.957040 0
10.175000 1.112262 0
10.180000 1.172324 3
10.185000 1.122100 0
10.190000 0.970469 0
10.195000 0.746938 0
10.200000 0.491130 0
10.205000 0.240965 0
10.210000 0.024675 0
10.215000 -0.141525 0
10.220000 -0.251807 0
10.225000 -0.308039 0
10.230000 -0.317734 4
10.235000 -0.292505 0
10.240000 -0.246159 0
10.245000 -0.192160 0
10.250000 -0.141121 0
10.255000 -0.099331 0
10.260000 -0.068783 0
10.265000 -0.048378 0
10.270000 -0.035534 0
10.275000 -0.027497 0
10.280000 -0.022059 0
10.285000 -0.017737 0
10.290000 -0.013662 0
10.295000 -0.009366 0
10.300000 -0.004605 0
10.305000 0.000761 0
10.310000 0.006824 0
10.315000 0.013661 0
10.320000 0.021341 0
10.325000 0.029927 0
10.330000 0.039477 0
10.335000 0.050040 0
10.340000 0.061658 0
10.345000 0.074358 0
10.350000 0.088153 0
10.355000 0.103038 0
10.360000 0.118990 0
10.365000 0.135962 0
10.370000 0.153886 0
10.375000 0.172669 0
10.380000 0.192192 0
10.385000 0.212311 0
10.390000 0.232860 0
10.395000 0.253646 0
10.400000 0.274459 0
10.405000 0.295068 0
10.410000 0.315231 0
10.415000 0.334694 0
10.420000 0.353200 0
10.425000 0.370492 0
10.430000 0.386319 0
10.435000 0.400443 0
10.440000 0.412643 0
10.445000 0.422723 0
10.450000 0.430514 0
10.455000 0.435880 0
10.460000 0.438723 0
10.465000 0.438983 5
10.470000 0.436641 0
10.475000 0.431721 0
10.480000 0.424286 0
10.485000 0.414441 0
10.490000 0.402327 0
10.495000 0.388118 0
10.500000 0.372017 0
10.505000 0.354252 0
10.510000 0.335069 0
10.515000 0.314727 0
10.520000 0.293491 0
10.525000 0.271628 0
10.530000 0.249400 0
10.535000 0.227060 0
10.540000 0.204845 0
10.545000 0.182976 0
10.550000 0.161651 0
10.555000 0.141044 0
10.560000 0.121306 0
10.565000 0.102558 0
10.570000 0.084898 0
10.575000 0.068397 0
10.580000 0.053100 0
10.585000 0.039033 0
10.590000 0.026196 0
10.595000 0.014575 0
10.600000 0.004137 0
10.605000 -0.005163 0
10.610000 -0.013380 0
10.615000 -0.020578 0
10.620000 -0.026829 0
10.625000 -0.032204 0
10.630000 -0.036780 0
10.635000 -0.040631 0
10.640000 -0.043832 0
10.645000 -0.046452 0
10.650000 -0.048561 0
10.655000 -0.050219 0
10.660000 -0.051487 0
10.665000 -0.052417 0
10.670000 -0.053058 0
10.675000 -0.053453 0
10.680000 -0.053640 0
10.685000 -0.053653 0
10.690000 -0.053522 0
10.695000 -0.053271 0
10.700000 -0.052922 0
10.705000 -0.052494 0
10.710000 -0.052002 0
10.715000 -0.051459 0
10.720000 -0.050876 0
10.725000 -0.050262 0
10.730000 -0.049624 0
10.735000 -0.048968 0
10.740000 -0.048298 0
10.745000 -0.047618 0
10.750000 -0.046932 0
10.755000 -0.046223 0
10.760000 -0.045512 0
10.765000 -0.044805 0
10.770000 -0.044102 0
10.775000 -0.043402 0
10.780000 -0.042706 0
10.785000 -0.042013 0
10.790000 -0.041323 0
10.795000 -0.040637 0
10.800000 -0.039955 0
10.805000 -0.039276 0
10.810000 -0.038600 0
10.815000 -0.037927 0
10.820000 -0.037258 0
10.825000 -0.036593 0
10.830000 -0.035930 0
10.835000 -0.035271 0
10.840000 -0.034615 0
10.845000 -0.033963 0
10.850000 -0.033313 0
10.855000 -0.032667 0
10.860000 -0.032025 0
10.865000 -0.031385 0
10.870000 -0.030749 0
10.875000 -0.030115 0
10.880000 -0.029485 0
10.885000 -0.028858 0
10.890000 -0.028234 0
10.895000 -0.027614 0
10.900000 -0.026996 0
10.905000 -0.026381 0
10.910000 -0.025770 0
10.915000 -0.025161 0
10.920000 -0.024556 0
10.925000 -0.023953 0
10.930000 -0.023352 0
10.935000 -0.022754 0
10.940000 -0.022158 0
10.945000 -0.021564 0
10.950000 -0.020969 0
10.955000 -0.020373 0
10.960000 -0.019772 0
10.965000 -0.019164 0
10.970000 -0.018541 0
10.975000 -0.017896 0
10.980000 -0.017217 0
10.985000 -0.016487 0
10.990000 -0.015683 0
10.995000 -0.014773 0
11.000000 -0.013717 0
11.005000 -0.012459 0
11.010000 -0.010933 0
11.015000 -0.009051 0
11.020000 -0.006712 0
11.025000 -0.003792 0
11.030000 -0.000150 0
11.035000 0.004371 0
11.040000 0.009943 0
11.045000 0.016741 0
11.050000 0.024937 0
11.055000 0.034690 0
11.060000 0.046126 0
11.065000 0.059328 0
11.070000 0.074319 0
11.075000 0.091041 0
11.080000 0.109349 0
11.085000 0.128997 0
11.090000 0.149635 0
11.095000 0.170815 0
11.100000 0.191998 0
11.105000 0.212576 0
11.110000 0.231897 0
11.115000 0.249300 0
11.120000 0.264149 0
11.125000 0.275871 0
11.130000 0.283995 0
11.135000 0.288178 0
11.140000 0.288233 1
11.145000 0.284140 0
11.150000 0.276046 0
11.155000 0.264260 0
11.160000 0.249228 0
11.165000 0.231509 0
11.170000 0.211737 0
11.175000 0.190583 0
11.180000 0.168721 0
11.185000 0.146789 0
11.190000 0.125359 0
11.195000 0.104920 0
11.200000 0.085858 0
11.205000 0.068447 0
11.210000 0.052843 0
11.215000 0.039068 0
11.220000 0.026975 0
11.225000 0.016178 0
11.230000 0.005944 0
11.235000 -0.004924 0
11.240000 -0.018112 0
11.245000 -0.035597 0
11.250000 -0.059057 0
11.255000 -0.088916 0
11.260000 -0.123248 0
11.265000 -0.157017 0
11.270000 -0.182125 0
11.275000 -0.188345 2
11.280000 -0.164804 0
11.285000 -0.101518 0
11.290000 0.009045 0
11.295000 0.169804 0
11.300000 0.375802 0
11.305000 0.610587 0
11.310000 0.844717 0
11.315000 1.039312 0
11.320000 1.155512 0
11.325000 1.166867 3
11.330000 1.067191 0
11.335000 0.875914 0
11.340000 0.630751 0
11.345000 0.373738 0
11.350000 0.139869 0
11.355000 -0.048329 0
11.360000 -0.180553 0
11.365000 -0.255922 0
11.370000 -0.280368 4
11.375000 -0.264812 0
11.380000 -0.223288 0
11.385000 -0.170316 0
11.390000 -0.118028 0
11.395000 -0.074161 0
11.400000 -0.041693 0
11.405000 -0.019961 0
11.410000 -0.006405 0
11.415000 0.001896 0
11.420000 0.007343 0
11.425000 0.011556 0
11.430000 0.015484 0
11.435000 0.019631 0
11.440000 0.024256 0
11.445000 0.029506 0
11.450000 0.035476 0
11.455000 0.042246 0
11.460000 0.049889 0
11.465000 0.058470 0
11.470000 0.068049 0
11.475000 0.078678 0
11.480000 0.090397 0
11.485000 0.103231 0
11.490000 0.117190 0
11.495000 0.132265 0
11.500000 0.148423 0
11.505000 0.165610 0
11.510000 0.183745 0
11.515000 0.202720 0
11.520000 0.222400 0
11.525000 0.242623 0
11.530000 0.263204 0
11.535000 0.283930 0
11.540000 0.304569 0
11.545000 0.324873 0
11.550000 0.344579 0
11.555000 0.363418 0
11.560000 0.381119 0
11.565000 0.397415 0
11.570000 0.412050 0
11.575000 0.424786 0
11.580000 0.435407 0
11.585000 0.443726 0
11.590000 0.449592 0
11.595000 0.452892 0
11.600000 0.453553 5
11.605000 0.451549 0
11.610000 0.446895 0
11.615000 0.439653 0
11.620000 0.429929 0
11.625000 0.417866 0
11.630000 0.403645 0
11.635000 0.387480 0
11.640000 0.369609 0
11.645000 0.350290 0
11.650000 0.329796 0
11.655000 0.308406 0
11.660000 0.286399 0
11.665000 0.264051 0
11.670000 0.241624 0
11.675000 0.219366 0
11.680000 0.197504 0
11.685000 0.176241 0
11.690000 0.155754 0
11.695000 0.136192 0
11.700000 0.117678 0
11.705000 0.100305 0
11.710000 0.084136 0
11.715000 0.069214 0
11.720000 0.055553 0
11.725000 0.043148 0
11.730000 0.031975 0
11.735000 0.021994 0
11.740000 0.013151 0
11.745000 0.005383 0
11.750000 -0.001381 0
11.755000 -0.007217 0
11.760000 -0.012202 0
11.765000 -0.016417 0
11.770000 -0.019939 0
11.775000 -0.022843 0
11.780000 -0.025203 0
11.785000 -0.027084 0
11.790000 -0.028550 0
11.795000 -0.029659 0
11.800000 -0.030461 0
11.805000 -0.031003 0
11.810000 -0.031327 0
11.815000 -0.031468 0
11.820000 -0.031458 0
11.825000 -0.031323 0
11.830000 -0.031086 0
11.835000 -0.030767 0
11.840000 -0.030382 0
11.845000 -0.029945 0
11.850000 -0.029467 0
11.855000 -0.028957 0
11.860000 -0.028422 0
11.865000 -0.027869 0
11.870000 -0.027302 0
11.875000 -0.026725 0
11.880000 -0.026141 0
11.885000 -0.025535 0
11.890000 -0.024927 0
11.895000 -0.024323 0
11.900000 -0.023722 0
11.905000 -0.023124 0
11.910000 -0.022528 0
11.915000 -0.021936 0
11.920000 -0.021347 0
11.925000 -0.020761 0
11.930000 -0.020177 0
11.935000 -0.019597 0
11.940000 -0.019019 0
11.945000 -0.018444 0
11.950000 -0.017872 0
11.955000 -0.017303 0
11.960000 -0.016737 0
11.965000 -0.016174 0
11.970000 -0.015613 0
11.975000 -0.015055 0
11.980000 -0.014500 0
11.985000 -0.013948 0
11.990000 -0.013399 0
11.995000 -0.012852 0
12.000000 -0.012308 0
12.005000 -0.011767 0
12.010000 -0.011228 0
12.015000 -0.010692 0
12.020000 -0.010159 0
12.025000 -0.009628 0
12.030000 -0.009100 0
12.035000 -0.008575 0
12.040000 -0.008052 0
12.045000 -0.007532 0
12.050000 -0.007014 0
12.055000 -0.006498 0
12.060000 -0.005984 0
12.065000 -0.005471 0
12.070000 -0.004959 0
12.075000 -0.004447 0
12.080000 -0.003931 0
12.085000 -0.003411 0
12.090000 -0.002880 0
12.095000 -0.002332 0
12.100000 -0.001757 0
12.105000 -0.001142 0
12.110000 -0.000466 0
12.115000 0.000299 0
12.120000 0.001187 0
12.125000 0.002250 0
12.130000 0.003550 0
12.135000 0.005167 0
12.140000 0.007200 0
12.145000 0.009769 0
12.150000 0.013013 0
12.155000 0.017092 0
12.160000 0.022180 0
12.165000 0.028461 0
12.170000 0.036118 0
12.175000 0.045324 0
12.180000 0.056225 0
12.185000 0.068921 0
12.190000 0.083453 0
12.195000 0.099781 0
12.200000 0.117772 0
12.205000 0.137186 0
12.210000 0.157672 0
12.215000 0.178770 0
12.220000 0.199924 0
12.225000 0.220499 0
12.230000 0.239811 0
12.235000 0.257165 0
12.240000 0.271893 0
12.245000 0.283397 0
12.250000 0.291185 0
12.255000 0.294912 1
12.260000 0.294397 0
12.265000 0.289640 0
12.270000 0.280825 0
12.275000 0.268301 0
12.280000 0.252565 0
12.285000 0.234225 0
12.290000 0.213959 0
12.295000 0.192478 0
12.300000 0.170481 0
12.305000 0.148618 0
12.310000 0.127464 0
12.315000 0.107490 0
12.320000 0.089057 0
12.325000 0.072401 0
12.330000 0.057623 0
12.335000 0.044670 0
12.340000 0.033270 0
12.345000 0.022840 0
12.350000 0.012350 0
12.355000 0.000237 0
12.360000 -0.015503 0
12.365000 -0.036842 0
12.370000 -0.064805 0
12.375000 -0.098263 0
12.380000 -0.132924 0
12.385000 -0.161087 0
12.390000 -0.172426 2
12.395000 -0.155532 0
12.400000 -0.099617 0
12.405000 0.003793 0
12.410000 0.158628 0
12.415000 0.360846 0
12.420000 0.594402 0
12.425000 0.829264 0
12.430000 1.024899 0
12.435000 1.140435 0
12.440000 1.148275 3
12.445000 1.046003 0
12.450000 0.854515 0
12.455000 0.610011 0
12.460000 0.352816 0
12.465000 0.116857 0
12.470000 -0.075538 0
12.475000 -0.213640 0
12.480000 -0.295809 0
12.485000 -0.327011 4
12.490000 -0.317100 0
12.495000 -0.279168 0
12.500000 -0.227259 0
12.505000 -0.173693 0
12.510000 -0.126963 0
12.515000 -0.091035 0
12.520000 -0.066080 0
12.525000 -0.050010 0
12.530000 -0.040009 0
12.535000 -0.033551 0
12.540000 -0.028810 0
12.545000 -0.024654 0
12.550000 -0.020453 0
12.555000 -0.015878 0
12.560000 -0.010751 0
12.565000 -0.004964 0
12.570000 0.001567 0
12.575000 0.008912 0
12.580000 0.017139 0
12.585000 0.026308 0
12.590000 0.036472 0
12.595000 0.047678 0
12.600000 0.059958 0
12.605000 0.073333 0
12.610000 0.087805 0
12.615000 0.103359 0
12.620000 0.119958 0
12.625000 0.137544 0
12.630000 0.156032 0
12.635000 0.175313 0
12.640000 0.195255 0
12.645000 0.215697 0
12.650000 0.236457 0
12.655000 0.257330 0
12.660000 0.278092 0
12.665000 0.298504 0
12.670000 0.318314 0
12.675000 0.337264 0
12.680000 0.355096 0
12.685000 0.371553 0
12.690000 0.386391 0
12.695000 0.399381 0
12.700000 0.410315 0
12.705000 0.419012 0
12.710000 0.425324 0
12.715000 0.429137 0
12.720000 0.430378 5
12.725000 0.429011 0
12.730000 0.425045 0
12.735000 0.418530 0
12.740000 0.409557 0
12.745000 0.398255 0
12.750000 0.384788 0
12.755000 0.369351 0
12.760000 0.352164 0
12.765000 0.333471 0
12.770000 0.313526 0
12.775000 0.292596 0
12.780000 0.270949 0
12.785000 0.248851 0
12.790000 0.226559 0
12.795000 0.204317 0
12.800000 0.182354 0
12.805000 0.160875 0
12.810000 0.140064 0
12.815000 0.120079 0
12.820000 0.101053 0
12.825000 0.083090 0
12.830000 0.066269 0
12.835000 0.050645 0
12.840000 0.036248 0
12.845000 0.023086 0
12.850000 0.011149 0
12.855000 0.000409 0
12.860000 -0.009176 0
12.865000 -0.017658 0
12.870000 -0.025102 0
12.875000 -0.031574 0
12.880000 -0.037150 0
12.885000 -0.041903 0
12.890000 -0.045909 0
12.895000 -0.049244 0
12.900000 -0.051979 0
12.905000 -0.054183 0
12.910000 -0.055921 0
12.915000 -0.057252 0
12.920000 -0.058232 0
12.925000 -0.058911 0
12.930000 -0.059333 0
12.935000 -0.059537 0
12.940000 -0.059560 0
12.945000 -0.059431 0
12.950000 -0.059176 0
12.955000 -0.058819 0
12.960000 -0.058379 0
12.965000 -0.057872 0
12.970000 -0.057311 0
12.975000 -0.056707 0
12.980000 -0.056071 0
12.985000 -0.055409 0
12.990000 -0.054728 0
12.995000 -0.054033 0
13.000000 -0.053327 0
13.005000 -0.052614 0
13.010000 -0.051893 0
13.015000 -0.051154 0
13.020000 -0.050419 0
13.025000 -0.049688 0
13.030000 -0.048960 0
13.035000 -0.048236 0
13.040000 -0.047516 0
13.045000 -0.046799 0
13.050000 -0.046085 0
13.055000 -0.045376 0
13.060000 -0.044669 0
13.065000 -0.043967 0
13.070000 -0.043267 0
13.075000 -0.042572 0
13.080000 -0.041880 0
13.085000 -0.041191 0
13.090000 -0.040505 0
13.095000 -0.039823 0
13.100000 -0.039145 0
13.105000 -0.038470 0
13.110000 -0.037798 0
13.115000 -0.037130 0
13.120000 -0.036465 0
13.125000 -0.035803 0
13.130000 -0.035144 0
13.135000 -0.034489 0
13.140000 -0.033837 0
13.145000 -0.033188 0
13.150000 -0.032543 0
13.155000 -0.031901 0
13.160000 -0.031262 0
13.165000 -0.030626 0
13.170000 -0.029993 0
13.175000 -0.029363 0
13.180000 -0.028736 0
13.185000 -0.028112 0
13.190000 -0.027491 0
13.195000 -0.026871 0
13.200000 -0.026253 0
13.205000 -0.025636 0
13.210000 -0.025016 0
13.215000 -0.024394 0
13.220000 -0.023763 0
13.225000 -0.023119 0
13.230000 -0.022454 0
13.235000 -0.021756 0
13.240000 -0.021008 0
13.245000 -0.020188 0
13.250000 -0.019265 0
13.255000 -0.018197 0
13.260000 -0.016933 0
13.265000 -0.015403 0
13.270000 -0.013524 0
13.275000 -0.011192 0
13.280000 -0.008285 0
13.285000 -0.004662 0
13.290000 -0.000165 0
13.295000 0.005376 0
13.300000 0.012140 0
13.305000 0.020298 0
13.310000 0.030012 0
13.315000 0.041409 0
13.320000 0.054577 0
13.325000 0.069537 0
13.330000 0.086236 0
13.335000 0.104531 0
13.340000 0.124176 0
13.345000 0.144822 0
13.350000 0.166020 0
13.355000 0.187229 0
13.360000 0.207839 0
13.365000 0.227194 0
13.370000 0.244630 0
13.375000 0.259507 0
13.380000 0.271249 0
13.385000 0.279381 0
13.390000 0.283561 0
13.395000 0.283601 1
13.400000 0.279482 0
13.405000 0.271354 0
13.410000 0.259529 0
13.415000 0.244460 0
13.420000 0.226708 0
13.425000 0.206914 0
13.430000 0.185752 0
13.435000 0.163899 0
13.440000 0.141995 0
13.445000 0.120614 0
13.450000 0.100242 0
13.455000 0.081264 0
13.460000 0.063950 0
13.465000 0.048453 0
13.470000 0.034786 0
13.475000 0.022792 0
13.480000 0.012067 0
13.485000 0.001851 0
13.490000 -0.009089 0
13.495000 -0.022476 0
13.500000 -0.040299 0
13.505000 -0.064195 0
13.510000 -0.094461 0
13.515000 -0.128949 0
13.520000 -0.162354 0
13.525000 -0.186322 0
13.530000 -0.190460 2
13.535000 -0.163854 0
13.540000 -0.096612 0
13.545000 0.018529 0
13.550000 0.183932 0
13.555000 0.393665 0
13.560000 0.629925 0
13.565000 0.861903 0
13.570000 1.049990 0
13.575000 1.155843 3
13.580000 1.154903 0
13.585000 1.044162 0
13.590000 0.845488 0
13.595000 0.597368 0
13.600000 0.341251 0
13.605000 0.110819 0
13.610000 -0.072749 0
13.615000 -0.200162 0
13.620000 -0.271194 0
13.625000 -0.292175 4
13.630000 -0.274248 0
13.635000 -0.231463 0
13.640000 -0.178157 0
13.645000 -0.126139 0
13.650000 -0.082800 0
13.655000 -0.050862 0
13.660000 -0.029523 0
13.665000 -0.016198 0
13.670000 -0.007997 0
13.675000 -0.002565 0
13.680000 0.001678 0
13.685000 0.005656 0
13.690000 0.009861 0
13.695000 0.014546 0
13.700000 0.019854 0
13.705000 0.025880 0
13.710000 0.032705 0
13.715000 0.040397 0
13.720000 0.049025 0
13.725000 0.058646 0
13.730000 0.069311 0
13.735000 0.081061 0
13.740000 0.093921 0
13.745000 0.107902 0
13.750000 0.122993 0
13.755000 0.139165 0
13.760000 0.156363 0
13.765000 0.174507 0
13.770000 0.193492 0
13.775000 0.213185 0
13.780000 0.233428 0
13.785000 0.254035 0
13.790000 0.274798 0
13.795000 0.295489 0
13.800000 0.315861 0
13.805000 0.335655 0
13.810000 0.354604 0
13.815000 0.372439 0
13.820000 0.388895 0
13.825000 0.403717 0
13.830000 0.416665 0
13.835000 0.427526 0
13.840000 0.436110 0
13.845000 0.442263 0
13.850000 0.445870 0
13.855000 0.446853 5
13.860000 0.445183 0
13.865000 0.440869 0
13.870000 0.433968 0
13.875000 0.424579 0
13.880000 0.412841 0
13.885000 0.398928 0
13.890000 0.383049 0
13.895000 0.365436 0
13.900000 0.346343 0
13.905000 0.326040 0
13.910000 0.304803 0
13.915000 0.282909 0
13.920000 0.260633 0
13.925000 0.238237 0
13.930000 0.215970 0
13.935000 0.194060 0
13.940000 0.172714 0
13.945000 0.152111 0
13.950000 0.132406 0
13.955000 0.113724 0
13.960000 0.096162 0
13.965000 0.079791 0
13.970000 0.064654 0
13.975000 0.050773 0
13.980000 0.038146 0
13.985000 0.026752 0
13.990000 0.016555 0
13.995000 0.007504 0
14.000000 -0.000461 0
14.005000 -0.007410 0
14.010000 -0.013416 0
14.015000 -0.018558 0
14.020000 -0.022913 0
14.025000 -0.026559 0
14.030000 -0.029573 0
14.035000 -0.032026 0
14.040000 -0.033987 0
14.045000 -0.035518 0
14.050000 -0.036679 0
14.055000 -0.037523 0
14.060000 -0.038095 0
14.065000 -0.038439 0
14.070000 -0.038592 0
14.075000 -0.038586 0
14.080000 -0.038449 0
14.085000 -0.038204 0
14.090000 -0.037873 0
14.095000 -0.037471 0
14.100000 -0.037014 0
14.105000 -0.036513 0
14.110000 -0.035978 0
14.115000 -0.035416 0
14.120000 -0.034834 0
14.125000 -0.034237 0
14.130000 -0.033629 0
14.135000 -0.033014 0
14.140000 -0.032374 0
14.145000 -0.031732 0
14.150000 -0.031094 0
14.155000 -0.030459 0
14.160000 -0.029827 0
14.165000 -0.029199 0
14.170000 -0.028573 0
14.175000 -0.027951 0
14.180000 -0.027331 0
14.185000 -0.026715 0
14.190000 -0.026102 0
14.195000 -0.025492 0
14.200000 -0.024885 0
14.205000 -0.024281 0
14.210000 -0.023680 0
14.215000 -0.023082 0
14.220000 -0.022487 0
14.225000 -0.021895 0
14.230000 -0.021306 0
14.235000 -0.020719 0
14.240000 -0.020136 0
14.245000 -0.019556 0
14.250000 -0.018978 0
14.255000 -0.018404 0
14.260000 -0.017832 0
14.265000 -0.017263 0
14.270000 -0.016697 0
14.275000 -0.016134 0
14.280000 -0.015574 0
14.285000 -0.015016 0
14.290000 -0.014461 0
14.295000 -0.013909 0
14.300000 -0.013360 0
14.305000 -0.012813 0
14.310000 -0.012268 0
14.315000 -0.011726 0
14.320000 -0.011185 0
14.325000 -0.010646 0
14.330000 -0.010107 0
14.335000 -0.009566 0
14.340000 -0.009021 0
14.345000 -0.008469 0
14.350000 -0.007905 0
14.355000 -0.007319 0
14.360000 -0.006700 0
14.365000 -0.006032 0
14.370000 -0.005291 0
14.375000 -0.004447 0
14.380000 -0.003457 0
14.385000 -0.002266 0
14.390000 -0.000805 0
14.395000 0.001016 0
14.400000 0.003303 0
14.405000 0.006185 0
14.410000 0.009809 0
14.415000 0.014340 0
14.420000 0.019956 0
14.425000 0.026841 0
14.430000 0.035175 0
14.435000 0.045117 0
14.440000 0.056797 0
14.445000 0.070289 0
14.450000 0.085605 0
14.455000 0.102665 0
14.460000 0.121297 0
14.465000 0.141215 0
14.470000 0.162029 0
14.475000 0.183241 0
14.480000 0.204266 0
14.485000 0.224450 0
14.490000 0.243106 0
14.495000 0.259551 0
14.500000 0.273143 0
14.505000 0.283323 0
14.510000 0.289657 0
14.515000 0.291858 1
14.520000 0.289813 0
14.525000 0.283589 0
14.530000 0.273428 0
14.535000 0.259733 0
14.540000 0.243038 0
14.545000 0.223976 0
14.550000 0.203237 0
14.555000 0.181525 0
14.560000 0.159522 0
14.565000 0.137851 0
14.570000 0.117050 0
14.575000 0.097554 0
14.580000 0.079680 0
14.585000 0.063622 0
14.590000 0.049439 0
14.595000 0.037017 0
14.600000 0.026006 0
14.605000 0.015709 0
14.610000 0.004954 0
14.615000 -0.007962 0
14.620000 -0.025083 0
14.625000 -0.048214 0
14.630000 -0.077899 0
14.635000 -0.112232 0
14.640000 -0.146023 0
14.645000 -0.170819 0
14.650000 -0.175927 2
14.655000 -0.150029 0
14.660000 -0.082839 0
14.665000 0.033165 0
14.670000 0.200299 0
14.675000 0.412009 0
14.680000 0.649088 0
14.685000 0.878724 0
14.690000 1.059511 0
14.695000 1.152693 3
14.700000 1.137399 0
14.705000 1.015792 0
14.710000 0.811501 0
14.715000 0.561878 0
14.720000 0.306178 0
14.725000 0.076091 0
14.730000 -0.108343 0
14.735000 -0.238127 0
14.740000 -0.312738 0
14.745000 -0.337831 4
14.750000 -0.323637 0
14.755000 -0.283310 0
14.760000 -0.230625 0
14.765000 -0.177390 0
14.770000 -0.131526 0
14.775000 -0.096540 0
14.780000 -0.072338 0
14.785000 -0.056755 0
14.790000 -0.047011 0
14.795000 -0.040654 0
14.800000 -0.035927 0
14.805000 -0.031742 0
14.810000 -0.027498 0
14.815000 -0.022875 0
14.820000 -0.017702 0
14.825000 -0.011872 0
14.830000 -0.005304 0
14.835000 0.002071 0
14.840000 0.010320 0
14.845000 0.019503 0
14.850000 0.029673 0
14.855000 0.040873 0
14.860000 0.053139 0
14.865000 0.066490 0
14.870000 0.080929 0
14.875000 0.096443 0
14.880000 0.112997 0
14.885000 0.130534 0
14.890000 0.148973 0
14.895000 0.168211 0
14.900000 0.188117 0
14.905000 0.208537 0
14.910000 0.229294 0
14.915000 0.250187 0
14.920000 0.271000 0
14.925000 0.291497 0
14.930000 0.311432 0
14.935000 0.330553 0
14.940000 0.348603 0
14.945000 0.365331 0
14.950000 0.380492 0
14.955000 0.393859 0
14.960000 0.405221 0
14.965000 0.414397 0
14.970000 0.421232 0
14.975000 0.425608 0
14.980000 0.427443 5
14.985000 0.426694 0
14.990000 0.423361 0
14.995000 0.417482 0
15.000000 0.409137 0
15.005000 0.398445 0
15.010000 0.385558 0
15.015000 0.370660 0
15.020000 0.353963 0
15.025000 0.335700 0
15.030000 0.316119 0
15.035000 0.295481 0
15.040000 0.274050 0
15.045000 0.252087 0
15.050000 0.229852 0
15.055000 0.207588 0
15.060000 0.185526 0
15.065000 0.163876 0
15.070000 0.142829 0
15.075000 0.122548 0
15.080000 0.103173 0
15.085000 0.084817 0
15.090000 0.067569 0
15.095000 0.051490 0
15.100000 0.036621 0
15.105000 0.022976 0
15.110000 0.010554 0
15.115000 -0.000666 0
15.120000 -0.010719 0
15.125000 -0.019655 0
15.130000 -0.027530 0
15.135000 -0.034410 0
15.140000 -0.040365 0
15.145000 -0.045469 0
15.150000 -0.049796 0
15.155000 -0.053421 0
15.160000 -0.056416 0
15.165000 -0.058850 0
15.170000 -0.060790 0
15.175000 -0.062296 0
15.180000 -0.063426 0
15.185000 -0.064231 0
15.190000 -0.064758 0
15.195000 -0.065049 0
15.200000 -0.065141 0
15.205000 -0.065066 0
15.210000 -0.064853 0
15.215000 -0.064525 0
15.220000 -0.064104 0
15.225000 -0.063608 0
15.230000 -0.063050 0
15.235000 -0.062445 0
15.240000 -0.061801 0
15.245000 -0.061128 0
15.250000 -0.060432 0
15.255000 -0.059719 0
15.260000 -0.058993 0
15.265000 -0.058259 0
15.270000 -0.057518 0
15.275000 -0.056756 0
15.280000 -0.055993 0
15.285000 -0.055234 0
15.290000 -0.054478 0
15.295000 -0.053727 0
15.300000 -0.052979 0
15.305000 -0.052235 0
15.310000 -0.051494 0
15.315000 -0.050757 0
15.320000 -0.050024 0
15.325000 -0.049295 0
15.330000 -0.048569 0
15.335000 -0.047847 0
15.340000 -0.047128 0
15.345000 -0.046414 0
15.350000 -0.045702 0
15.355000 -0.044994 0
15.360000 -0.044290 0
15.365000 -0.043589 0
15.370000 -0.042892 0
15.375000 -0.042198 0
15.380000 -0.041508 0
15.385000 -0.040821 0
15.390000 -0.040137 0
15.395000 -0.039457 0
15.400000 -0.038780 0
15.405000 -0.038107 0
15.410000 -0.037437 0
15.415000 -0.036770 0
15.420000 -0.036107 0
15.425000 -0.035447 0
15.430000 -0.034790 0
15.435000 -0.034137 0
15.440000 -0.033486 0
15.445000 -0.032839 0
15.450000 -0.032194 0
15.455000 -0.031552 0
15.460000 -0.030913 0
15.465000 -0.030274 0
15.470000 -0.029636 0
15.475000 -0.028997 0
15.480000 -0.028354 0
15.485000 -0.027704 0
15.490000 -0.027040 0
15.495000 -0.026356 0
15.500000 -0.025638 0
15.505000 -0.024872 0
15.510000 -0.024035 0
15.515000 -0.023097 0
15.520000 -0.022017 0
15.525000 -0.020745 0
15.530000 -0.019213 0
15.535000 -0.017340 0
15.540000 -0.015025 0
15.545000 -0.012150 0
15.550000 -0.008576 0
15.555000 -0.004150 0
15.560000 0.001296 0
15.565000 0.007936 0
15.570000 0.015942 0
15.575000 0.025472 0
15.580000 0.036660 0
15.585000 0.049595 0
15.590000 0.064310 0
15.595000 0.080764 0
15.600000 0.098830 0
15.605000 0.118282 0
15.610000 0.138794 0
15.615000 0.159939 0
15.620000 0.181202 0
15.625000 0.201992 0
15.630000 0.221669 0
15.635000 0.239579 0
15.640000 0.255081 0
15.645000 0.267593 0
15.650000 0.276621 0
15.655000 0.281795 0
15.660000 0.282890 1
15.665000 0.279846 0
15.670000 0.272768 0
15.675000 0.261923 0
15.680000 0.247721 0
15.685000 0.230688 0
15.690000 0.211438 0
15.695000 0.190628 0
15.700000 0.168929 0
15.705000 0.146985 0
15.710000 0.125384 0
15.715000 0.104638 0
15.720000 0.085159 0
15.725000 0.067252 0
15.730000 0.051109 0
15.735000 0.036796 0
15.740000 0.024226 0
15.745000 0.013102 0
15.750000 0.002823 0
15.755000 -0.007635 0
15.760000 -0.019786 0
15.765000 -0.035536 0
15.770000 -0.056739 0
15.775000 -0.084376 0
15.780000 -0.117478 0
15.785000 -0.152208 0
15.790000 -0.181583 0
15.795000 -0.196099 2
15.800000 -0.185041 0
15.805000 -0.138015 0
15.810000 -0.046426 0
15.815000 0.094714 0
15.820000 0.284009 0
15.825000 0.510060 0
15.830000 0.748799 0
15.835000 0.964698 0
15.840000 1.117817 0
15.845000 1.175370 3
15.850000 1.122399 0
15.855000 0.968231 0
15.860000 0.743027 0
15.865000 0.486799 0
15.870000 0.237483 0
15.875000 0.023046 0
15.880000 -0.140674 0
15.885000 -0.248218 0
15.890000 -0.301791 0
15.895000 -0.309212 4
15.900000 -0.282358 0
15.905000 -0.235184 0
15.910000 -0.181135 0
15.915000 -0.130635 0
15.920000 -0.089694 0
15.925000 -0.060036 0
15.930000 -0.040383 0
15.935000 -0.028081 0
15.940000 -0.020384 0
15.945000 -0.015131 0
15.950000 -0.010895 0
15.955000 -0.006846 0
15.960000 -0.002543 0
15.965000 0.002245 0
15.970000 0.007651 0
15.975000 0.013767 0
15.980000 0.020669 0
15.985000 0.028423 0
15.990000 0.037095 0
15.995000 0.046741 0
16.000000 0.057410 0
16.005000 0.069143 0
16.010000 0.081964 0
16.015000 0.095885 0
16.020000 0.110898 0
16.025000 0.126976 0
16.030000 0.144070 0
16.035000 0.162107 0
16.040000 0.180990 0
16.045000 0.200594 0
16.050000 0.220771 0
16.055000 0.241349 0
16.060000 0.262131 0
16.065000 0.282900 0
16.070000 0.303424 0
16.075000 0.323455 0
16.080000 0.342736 0
16.085000 0.361009 0
16.090000 0.378014 0
16.095000 0.393502 0
16.100000 0.407236 0
16.105000 0.418997 0
16.110000 0.428594 0
16.115000 0.435862 0
16.120000 0.440673 0
16.125000 0.442935 5
16.130000 0.442598 0
16.135000 0.439652 0
16.140000 0.434129 0
16.145000 0.426104 0
16.150000 0.415690 0
16.155000 0.403037 0
16.160000 0.388329 0
16.165000 0.371776 0
16.170000 0.353612 0
16.175000 0.334090 0
16.180000 0.313471 0
16.185000 0.292026 0
16.190000 0.270020 0
16.195000 0.247716 0
16.200000 0.225365 0
16.205000 0.203203 0
16.210000 0.181444 0
16.215000 0.160282 0
16.220000 0.139886 0
16.225000 0.120399 0
16.230000 0.101937 0
16.235000 0.084590 0
16.240000 0.068422 0
16.245000 0.053473 0
16.250000 0.039759 0
16.255000 0.027277 0
16.260000 0.016007 0
16.265000 0.005911 0
16.270000 -0.003060 0
16.275000 -0.010964 0
16.280000 -0.017868 0
16.285000 -0.023845 0
16.290000 -0.028969 0
16.295000 -0.033316 0
16.300000 -0.036961 0
16.305000 -0.039977 0
16.310000 -0.042436 0
16.315000 -0.044403 0
16.320000 -0.045940 0
16.325000 -0.047105 0
16.330000 -0.047948 0
16.335000 -0.048518 0
16.340000 -0.048855 0
16.345000 -0.048997 0
16.350000 -0.048976 0
16.355000 -0.048819 0
16.360000 -0.048551 0
16.365000 -0.048193 0
16.370000 -0.047761 0
16.375000 -0.047270 0
16.380000 -0.046733 0
16.385000 -0.046159 0
16.390000 -0.045557 0
16.395000 -0.044933 0
16.400000 -0.044292 0
16.405000 -0.043640 0
16.410000 -0.042979 0
16.415000 -0.042309 0
16.420000 -0.041618 0
16.425000 -0.040930 0
16.430000 -0.040246 0
16.435000 -0.039566 0
16.440000 -0.038888 0
16.445000 -0.038214 0
16.450000 -0.037544 0
16.455000 -0.036877 0
16.460000 -0.036213 0
16.465000 -0.035552 0
16.470000 -0.034895 0
16.475000 -0.034241 0
16.480000 -0.033591 0
16.485000 -0.032943 0
16.490000 -0.032299 0
16.495000 -0.031658 0
16.500000 -0.031020 0
16.505000 -0.030386 0
16.510000 -0.029754 0
16.515000 -0.029126 0
16.520000 -0.028501 0
16.525000 -0.027879 0
16.530000 -0.027260 0
16.535000 -0.026644 0
16.540000 -0.026031 0
16.545000 -0.025421 0
16.550000 -0.024815 0
16.555000 -0.024211 0
16.560000 -0.023610 0
16.565000 -0.023012 0
16.570000 -0.022418 0
16.575000 -0.021826 0
16.580000 -0.021237 0
16.585000 -0.020651 0
16.590000 -0.020067 0
16.595000 -0.019486 0
16.600000 -0.018907 0
16.605000 -0.018329 0
16.610000 -0.017752 0
16.615000 -0.017174 0
16.620000 -0.016593 0
16.625000 -0.016006 0
16.630000 -0.015407 0
16.635000 -0.014790 0
16.640000 -0.014144 0
16.645000 -0.013454 0
16.650000 -0.012700 0
16.655000 -0.011855 0
16.660000 -0.010880 0
16.665000 -0.009727 0
16.670000 -0.008332 0
16.675000 -0.006619 0
16.680000 -0.004488 0
16.685000 -0.001825 0
16.690000 0.001506 0
16.695000 0.005658 0
16.700000 0.010798 0
16.705000 0.017102 0
16.710000 0.024747 0
16.715000 0.033898 0
16.720000 0.044696 0
16.725000 0.057244 0
16.730000 0.071586 0
16.735000 0.087696 0
16.740000 0.105460 0
16.745000 0.124666 0
16.750000 0.144999 0
16.755000 0.166040 0
16.760000 0.187275 0
16.765000 0.208112 0
16.770000 0.227908 0
16.775000 0.245993 0
16.780000 0.261717 0
16.785000 0.274477 0
16.790000 0.283763 0
16.795000 0.289186 0
16.800000 0.290508 1
16.805000 0.287654 0
16.810000 0.280724 0
16.815000 0.269981 0
16.820000 0.255835 0
16.825000 0.238821 0
16.830000 0.219557 0
16.835000 0.198714 0
16.840000 0.176973 0
16.845000 0.154988 0
16.850000 0.133359 0
16.855000 0.112601 0
16.860000 0.093131 0
16.865000 0.075257 0
16.870000 0.059168 0
16.875000 0.044922 0
16.880000 0.032421 0
16.885000 0.021344 0
16.890000 0.011050 0
16.895000 0.000457 0
16.900000 -0.012023 0
16.905000 -0.028348 0
16.910000 -0.050352 0
16.915000 -0.078850 0
16.920000 -0.112522 0
16.925000 -0.147021 0
16.930000 -0.174816 0
16.935000 -0.185953 2
16.940000 -0.169489 0
16.945000 -0.115062 0
16.950000 -0.014436 0
16.955000 0.136488 0
16.960000 0.334584 0
16.965000 0.565758 0
16.970000 0.802766 0
16.975000 1.007678 0
16.980000 1.140447 0
16.985000 1.171323 3
16.990000 1.089665 0
16.995000 0.911096 0
17.000000 0.671646 0
17.005000 0.413913 0
17.010000 0.174826 0
17.015000 -0.020905 0
17.020000 -0.161242 0
17.025000 -0.244138 0
17.030000 -0.274761 4
17.035000 -0.263566 0
17.040000 -0.224444 0
17.045000 -0.172146 0
17.050000 -0.119327 0
17.055000 -0.074345 0
17.060000 -0.040697 0
17.065000 -0.018015 0
17.070000 -0.003832 0
17.075000 0.004816 0
17.080000 0.010416 0
17.085000 0.014669 0
17.090000 0.018580 0
17.095000 0.022683 0
17.100000 0.027255 0
17.105000 0.032445 0
17.110000 0.038355 0
17.115000 0.045065 0
17.120000 0.052648 0
17.125000 0.061171 0
17.130000 0.070695 0
17.135000 0.081271 0
17.140000 0.092941 0
17.145000 0.105732 0
17.150000 0.119654 0
17.155000 0.134697 0
17.160000 0.150829 0
17.165000 0.167996 0
17.170000 0.186116 0
17.175000 0.205081 0
17.180000 0.224753 0
17.185000 0.244971 0
17.190000 0.265545 0
17.195000 0.286262 0
17.200000 0.306887 0
17.205000 0.327168 0
17.210000 0.346842 0
17.215000 0.365634 0
17.220000 0.383273 0
17.225000 0.399489 0
17.230000 0.414025 0
17.235000 0.426640 0
17.240000 0.437119 0
17.245000 0.445275 0
17.250000 0.450959 0
17.255000 0.454057 0
17.260000 0.454502 5
17.265000 0.452268 0
17.270000 0.447376 0
17.275000 0.439892 0
17.280000 0.429926 0
17.285000 0.417627 0
17.290000 0.403182 0
17.295000 0.386808 0
17.300000 0.368748 0
17.305000 0.349266 0
17.310000 0.328637 0
17.315000 0.307143 0
17.320000 0.285066 0
17.325000 0.262683 0
17.330000 0.240257 0
17.335000 0.218034 0
17.340000 0.196241 0
17.345000 0.175078 0
17.350000 0.154721 0
17.355000 0.135315 0
17.360000 0.116978 0
17.365000 0.099800 0
17.370000 0.083842 0
17.375000 0.069140 0
17.380000 0.055705 0
17.385000 0.043529 0
17.390000 0.032583 0
17.395000 0.022824 0
17.400000 0.014196 0
17.405000 0.006634 0
17.410000 0.000064 0
17.415000 -0.005590 0
17.420000 -0.010409 0
17.425000 -0.014471 0
17.430000 -0.017855 0
17.435000 -0.020636 0
17.440000 -0.022887 0
17.445000 -0.024673 0
17.450000 -0.026058 0
17.455000 -0.027096 0
17.460000 -0.027840 0
17.465000 -0.028334 0
17.470000 -0.028618 0
17.475000 -0.028728 0
17.480000 -0.028694 0
17.485000 -0.028541 0
17.490000 -0.028293 0
17.495000 -0.027966 0
17.500000 -0.027578 0
17.505000 -0.027141 0
17.510000 -0.026665 0
17.515000 -0.026159 0
17.520000 -0.025631 0
17.525000 -0.025086 0
17.530000 -0.024528 0
17.535000 -0.023962 0
17.540000 -0.023385 0
17.545000 -0.022788 0
17.550000 -0.022195 0
17.555000 -0.021604 0
17.560000 -0.021017 0
17.565000 -0.020432 0
17.570000 -0.019850 0
17.575000 -0.019271 0
17.580000 -0.018695 0
17.585000 -0.018122 0
17.590000 -0.017552 0
17.595000 -0.016984 0
17.600000 -0.016420 0
17.605000 -0.015858 0
17.610000 -0.015299 0
17.615000 -0.014743 0
17.620000 -0.014189 0
17.625000 -0.013639 0
17.630000 -0.013091 0
17.635000 -0.012545 0
17.640000 -0.012003 0
17.645000 -0.011463 0
17.650000 -0.010926 0
17.655000 -0.010392 0
17.660000 -0.009860 0
17.665000 -0.009331 0
17.670000 -0.008804 0
17.675000 -0.008281 0
17.680000 -0.007759 0
17.685000 -0.007241 0
17.690000 -0.006725 0
17.695000 -0.006211 0
17.700000 -0.005700 0
17.705000 -0.005191 0
17.710000 -0.004685 0
17.715000 -0.004180 0
17.720000 -0.003677 0
17.725000 -0.003175 0
17.730000 -0.002673 0
17.735000 -0.002170 0
17.740000 -0.001662 0
17.745000 -0.001147 0
17.750000 -0.000618 0
17.755000 -0.000067 0
17.760000 0.000518 0
17.765000 0.001154 0
17.770000 0.001864 0
17.775000 0.002682 0
17.780000 0.003652 0
17.785000 0.004829 0
17.790000 0.006288 0
17.795000 0.008119 0
17.800000 0.010435 0
17.805000 0.013368 0
17.810000 0.017070 0
17.815000 0.021712 0
17.820000 0.027476 0
17.825000 0.034549 0
17.830000 0.043112 0
17.835000 0.053323 0
17.840000 0.065304 0
17.845000 0.079124 0
17.850000 0.094773 0
17.855000 0.112156 0
17.860000 0.131071 0
17.865000 0.151207 0
17.870000 0.172138 0
17.875000 0.193337 0
17.880000 0.214187 0
17.885000 0.234013 0
17.890000 0.252113 0
17.895000 0.267798 0
17.900000 0.280436 0
17.905000 0.289491 0
17.910000 0.294562 0
17.915000 0.295412 1
17.920000 0.291980 0
17.925000 0.284395 0
17.930000 0.272958 0
17.935000 0.258130 0
17.940000 0.240492 0
17.945000 0.220713 0
17.950000 0.199506 0
17.955000 0.177582 0
17.960000 0.155616 0
17.965000 0.134211 0
17.970000 0.113873 0
17.975000 0.094998 0
17.980000 0.077856 0
17.985000 0.062590 0
17.990000 0.049186 0
17.995000 0.037435 0
18.000000 0.026837 0
18.005000 0.016475 0
18.010000 0.004898 0
18.015000 -0.009835 0
18.020000 -0.029790 0
18.025000 -0.056312 0
18.030000 -0.088842 0
18.035000 -0.123788 0
18.040000 -0.154070 0
18.045000 -0.169703 2
18.050000 -0.159254 0
18.055000 -0.111582 0
18.060000 -0.017544 0
18.065000 0.127906 0
18.070000 0.322464 0
18.075000 0.552344 0
18.080000 0.789628 0
18.085000 0.994661 0
18.090000 1.125347 0
18.095000 1.150829 3
18.100000 1.064559 0
18.105000 0.884236 0
18.110000 0.644779 0
18.115000 0.387111 0
18.120000 0.146867 0
18.125000 -0.051748 0
18.130000 -0.196537 0
18.135000 -0.284891 0
18.140000 -0.321173 4
18.145000 -0.314894 0
18.150000 -0.279054 0
18.155000 -0.227879 0
18.160000 -0.174087 0
18.165000 -0.126644 0
18.170000 -0.089909 0
18.175000 -0.064288 0
18.180000 -0.047771 0
18.185000 -0.037521 0
18.190000 -0.030951 0
18.195000 -0.026177 0
18.200000 -0.022027 0
18.205000 -0.017847 0
18.210000 -0.013298 0
18.215000 -0.008197 0
18.220000 -0.002433 0
18.225000 0.004078 0
18.230000 0.011408 0
18.235000 0.019625 0
18.240000 0.028790 0
18.245000 0.038958 0
18.250000 0.050174 0
18.255000 0.062471 0
18.260000 0.075870 0
18.265000 0.090373 0
18.270000 0.105964 0
18.275000 0.122604 0
18.280000 0.140233 0
18.285000 0.158764 0
18.290000 0.178087 0
18.295000 0.198063 0
18.300000 0.218530 0
18.305000 0.239302 0
18.310000 0.260170 0
18.315000 0.280905 0
18.320000 0.301264 0
18.325000 0.320991 0
18.330000 0.339826 0
18.335000 0.357506 0
18.340000 0.373774 0
18.345000 0.388383 0
18.350000 0.401105 0
18.355000 0.411732 0
18.360000 0.420087 0
18.365000 0.426023 0
18.370000 0.429432 0
18.375000 0.430245 5
18.380000 0.428434 0
18.385000 0.424015 0
18.390000 0.417045 0
18.395000 0.407624 0
18.400000 0.395889 0
18.405000 0.382013 0
18.410000 0.366197 0
18.415000 0.348670 0
18.420000 0.329682 0
18.425000 0.309492 0
18.430000 0.288372 0
18.435000 0.266592 0
18.440000 0.244420 0
18.445000 0.222113 0
18.450000 0.199915 0
18.455000 0.178051 0
18.460000 0.156724 0
18.465000 0.136113 0
18.470000 0.116371 0
18.475000 0.097625 0
18.480000 0.079972 0
18.485000 0.063487 0
18.490000 0.048216 0
18.495000 0.034183 0
18.500000 0.021391 0
18.505000 0.009823 0
18.510000 -0.000553 0
18.515000 -0.009783 0
18.520000 -0.017925 0
18.525000 -0.025044 0
18.530000 -0.031212 0
18.535000 -0.036503 0
18.540000 -0.040995 0
18.545000 -0.044762 0
18.550000 -0.047881 0
18.555000 -0.050423 0
18.560000 -0.052455 0
18.565000 -0.054043 0
18.570000 -0.055243 0
18.575000 -0.056110 0
18.580000 -0.056693 0
18.585000 -0.057034 0
18.590000 -0.057171 0
18.595000 -0.057139 0
18.600000 -0.056965 0
18.605000 -0.056676 0
18.610000 -0.056292 0
18.615000 -0.055832 0
18.620000 -0.055311 0
18.625000 -0.054741 0
18.630000 -0.054133 0
18.635000 -0.053495 0
18.640000 -0.052835 0
18.645000 -0.052158 0
18.650000 -0.051468 0
18.655000 -0.050770 0
18.660000 -0.050065 0
18.665000 -0.049340 0
18.670000 -0.048614 0
18.675000 -0.047891 0
18.680000 -0.047173 0
18.685000 -0.046457 0
18.690000 -0.045746 0
18.695000 -0.045038 0
18.700000 -0.044333 0
18.705000 -0.043632 0
18.710000 -0.042935 0
18.715000 -0.042241 0
18.720000 -0.041550 0
18.725000 -0.040863 0
18.730000 -0.040179 0
18.735000 -0.039499 0
18.740000 -0.038822 0
18.745000 -0.038148 0
18.750000 -0.037478 0
18.755000 -0.036811 0
18.760000 -0.036148 0
18.765000 -0.035488 0
18.770000 -0.034831 0
18.775000 -0.034177 0
18.780000 -0.033527 0
18.785000 -0.032880 0
18.790000 -0.032236 0
18.795000 -0.031595 0
18.800000 -0.030958 0
18.805000 -0.030323 0
18.810000 -0.029692 0
18.815000 -0.029064 0
18.820000 -0.028439 0
18.825000 -0.027817 0
18.830000 -0.027198 0
18.835000 -0.026582 0
18.840000 -0.025968 0
18.845000 -0.025357 0
18.850000 -0.024747 0
18.855000 -0.024137 0
18.860000 -0.023527 0
18.865000 -0.022914 0
18.870000 -0.022294 0
18.875000 -0.021663 0
18.880000 -0.021012 0
18.885000 -0.020331 0
18.890000 -0.019605 0
18.895000 -0.018812 0
18.900000 -0.017923 0
18.905000 -0.016900 0
18.910000 -0.015691 0
18.915000 -0.014232 0
18.920000 -0.012440 0
18.925000 -0.010215 0
18.930000 -0.007437 0
18.935000 -0.003968 0
18.940000 0.000350 0
18.945000 0.005687 0
18.950000 0.012222 0
18.955000 0.020132 0
18.960000 0.029581 0
18.965000 0.040707 0
18.970000 0.053604 0
18.975000 0.068305 0
18.980000 0.084769 0
18.985000 0.102863 0
18.990000 0.122353 0
18.995000 0.142898 0
19.000000 0.164056 0
19.005000 0.185291 0
19.010000 0.205989 0
19.015000 0.225494 0
19.020000 0.243130 0
19.025000 0.258246 0
19.030000 0.270255 0
19.035000 0.278665 0
19.040000 0.283119 0
19.045000 0.283417 1
19.050000 0.279528 0
19.055000 0.271595 0
19.060000 0.259926 0
19.065000 0.244972 0
19.070000 0.227298 0
19.075000 0.207549 0
19.080000 0.186409 0
19.085000 0.164560 0
19.090000 0.142652 0
19.095000 0.121265 0
19.100000 0.100893 0
19.105000 0.081923 0
19.110000 0.064629 0
19.115000 0.049162 0
19.120000 0.035535 0
19.125000 0.023582 0
19.130000 0.012886 0
19.135000 0.002661 0
19.140000 -0.008361 0
19.145000 -0.021946 0
19.150000 -0.040102 0
19.155000 -0.064437 0
19.160000 -0.095118 0
19.165000 -0.129761 0
19.170000 -0.162743 0
19.175000 -0.185395 0
19.180000 -0.187095 2
19.185000 -0.156834 0
19.190000 -0.084796 0
19.195000 0.035966 0
19.200000 0.207087 0
19.205000 0.421322 0
19.210000 0.659011 0
19.215000 0.887471 0
19.220000 1.066118 0
19.225000 1.157393 3
19.230000 1.140178 0
19.235000 1.016563 0
19.240000 0.810714 0
19.245000 0.560409 0
19.250000 0.305053 0
19.255000 0.076221 0
19.260000 -0.106319 0
19.265000 -0.233872 0
19.270000 -0.306199 0
19.275000 -0.329224 4
19.280000 -0.313425 0
19.285000 -0.272135 0
19.290000 -0.219175 0
19.295000 -0.166248 0
19.300000 -0.121060 0
19.305000 -0.086872 0
19.310000 -0.063402 0
19.315000 -0.048383 0
19.320000 -0.039017 0
19.325000 -0.032883 0
19.330000 -0.028271 0
19.335000 -0.024136 0
19.340000 -0.019903 0
19.345000 -0.015270 0
19.350000 -0.010073 0
19.355000 -0.004207 0
19.360000 0.002406 0
19.365000 0.009838 0
19.370000 0.018153 0
19.375000 0.027412 0
19.380000 0.037666 0
19.385000 0.048961 0
19.390000 0.061327 0
19.395000 0.074784 0
19.400000 0.089333 0
19.405000 0.104957 0
19.410000 0.121618 0
19.415000 0.139257 0
19.420000 0.157788 0
19.425000 0.177103 0
19.430000 0.197067 0
19.435000 0.217522 0
19.440000 0.238285 0
19.445000 0.259153 0
19.450000 0.279902 0
19.455000 0.300296 0
19.460000 0.320083 0
19.465000 0.339010 0
19.470000 0.356817 0
19.475000 0.373254 0
19.480000 0.388076 0
19.485000 0.401057 0
19.490000 0.411991 0
19.495000 0.420699 0
19.500000 0.427033 0
19.505000 0.430880 0
19.510000 0.432166 5
19.515000 0.430856 0
19.520000 0.426958 0
19.525000 0.420519 0
19.530000 0.411629 0
19.535000 0.400414 0
19.540000 0.387035 0
19.545000 0.371685 0
19.550000 0.354581 0
19.555000 0.335963 0
19.560000 0.316083 0
19.565000 0.295206 0
19.570000 0.273596 0
19.575000 0.251518 0
19.580000 0.229227 0
19.585000 0.206969 0
19.590000 0.184968 0
19.595000 0.163433 0
19.600000 0.142547 0
19.605000 0.122470 0
19.610000 0.103335 0
19.615000 0.085250 0
19.620000 0.068295 0
19.625000 0.052526 0
19.630000 0.037977 0
19.635000 0.024659 0
19.640000 0.012563 0
19.645000 0.001664 0
19.650000 -0.008079 0
19.655000 -0.016715 0
19.660000 -0.024307 0
19.665000 -0.030922 0
19.670000 -0.036631 0
19.675000 -0.041510 0
19.680000 -0.045633 0
19.685000 -0.049074 0
19.690000 -0.051907 0
19.695000 -0.054198 0
19.700000 -0.056015 0
19.705000 -0.057416 0
19.710000 -0.058457 0
19.715000 -0.059188 0
19.720000 -0.059656 0
19.725000 -0.059900 0
19.730000 -0.059955 0
19.735000 -0.059854 0
19.740000 -0.059623 0
19.745000 -0.059285 0
19.750000 -0.058860 0
19.755000 -0.058365 0
19.760000 -0.057813 0
19.765000 -0.057217 0
19.770000 -0.056586 0
19.775000 -0.055928 0
19.780000 -0.055250 0
19.785000 -0.054556 0
19.790000 -0.053851 0
19.795000 -0.053138 0
19.800000 -0.052416 0
19.805000 -0.051675 0
19.810000 -0.050937 0
19.815000 -0.050203 0
19.820000 -0.049473 0
19.825000 -0.048746 0
19.830000 -0.048023 0
19.835000 -0.047304 0
19.840000 -0.046588 0
19.845000 -0.045875 0
19.850000 -0.045167 0
19.855000 -0.044462 0
19.860000 -0.043760 0
19.865000 -0.043062 0
19.870000 -0.042367 0
19.875000 -0.041676 0
19.880000 -0.040988 0
19.885000 -0.040304 0
19.890000 -0.039623 0
19.895000 -0.038945 0
19.900000 -0.038271 0
19.905000 -0.037600 0
19.910000 -0.036933 0
19.915000 -0.036269 0
19.920000 -0.035608 0
19.925000 -0.034951 0
19.930000 -0.034296 0
19.935000 -0.033645 0
19.940000 -0.032998 0
19.945000 -0.032353 0
19.950000 -0.031712 0
19.955000 -0.031074 0
19.960000 -0.030439 0
19.965000 -0.029807 0
19.970000 -0.029178 0
19.975000 -0.028552 0
19.980000 -0.027928 0
19.985000 -0.027307 0
19.990000 -0.026688 0
19.995000 -0.026069 0
20.000000 -0.025450 0
20.005000 -0.024828 0
20.010000 -0.024201 0
20.015000 -0.023563 0
20.020000 -0.022908 0
20.025000 -0.022226 0
20.030000 -0.021503 0
20.035000 -0.020719 0
20.040000 -0.019848 0
20.045000 -0.018855 0
20.050000 -0.017691 0
20.055000 -0.016299 0
20.060000 -0.014601 0
20.065000 -0.012505 0
20.070000 -0.009899 0
20.075000 -0.006653 0
20.080000 -0.002617 0
20.085000 0.002371 0
20.090000 0.008486 0
20.095000 0.015902 0
20.100000 0.024786 0
20.105000 0.035284 0
20.110000 0.047506 0
20.115000 0.061510 0
20.120000 0.077284 0
20.125000 0.094736 0
20.130000 0.113677 0
20.135000 0.133819 0
20.140000 0.154769 0
20.145000 0.176040 0
20.150000 0.197062 0
20.155000 0.217208 0
20.160000 0.235819 0
20.165000 0.252241 0
20.170000 0.265864 0
20.175000 0.276153 0
20.180000 0.282689 0
20.185000 0.285193 1
20.190000 0.283546 0
20.195000 0.277798 0
20.200000 0.268163 0
20.205000 0.255008 0
20.210000 0.238828 0
20.215000 0.220215 0
20.220000 0.199821 0
20.225000 0.178320 0
20.230000 0.156374 0
20.235000 0.134595 0
20.240000 0.113525 0
20.245000 0.093609 0
20.250000 0.075190 0
20.255000 0.058495 0
20.260000 0.043631 0
20.265000 0.030559 0
20.270000 0.019050 0
20.275000 0.008600 0
20.280000 -0.001691 0
20.285000 -0.013208 0
20.290000 -0.027787 0
20.295000 -0.047376 0
20.300000 -0.073302 0
20.305000 -0.105218 0
20.310000 -0.140087 0
20.315000 -0.171683 0
20.320000 -0.190985 2
20.325000 -0.187372 0
20.330000 -0.150159 0
20.335000 -0.070103 0
20.340000 0.058918 0
20.345000 0.237360 0
20.350000 0.456462 0
20.355000 0.695065 0
20.360000 0.919663 0
20.365000 1.090152 0
20.370000 1.170825 3
20.375000 1.142269 0
20.380000 1.008673 0
20.385000 0.796207 0
20.390000 0.543511 0
20.395000 0.289653 0
20.400000 0.065122 0
20.405000 -0.111565 0
20.410000 -0.232770 0
20.415000 -0.299056 0
20.420000 -0.316970 4
20.425000 -0.297463 0
20.430000 -0.254107 0
20.435000 -0.200650 0
20.440000 -0.148420 0
20.445000 -0.104585 0
20.450000 -0.071899 0
20.455000 -0.049734 0
20.460000 -0.035672 0
20.465000 -0.026918 0
20.470000 -0.021128 0
20.475000 -0.016686 0
20.480000 -0.012618 0
20.485000 -0.008398 0
20.490000 -0.003747 0
20.495000 0.001487 0
20.500000 0.007403 0
20.505000 0.014080 0
20.510000 0.021586 0
20.515000 0.029988 0
20.520000 0.039343 0
20.525000 0.049704 0
20.530000 0.061112 0
20.535000 0.073599 0
20.540000 0.087180 0
20.545000 0.101854 0
20.550000 0.117600 0
20.555000 0.134378 0
20.560000 0.152123 0
20.565000 0.170745 0
20.570000 0.190133 0
20.575000 0.210145 0
20.580000 0.230620 0
20.585000 0.251370 0
20.590000 0.272186 0
20.595000 0.292843 0
20.600000 0.313100 0
20.605000 0.332703 0
20.610000 0.351397 0
20.615000 0.368924 0
20.620000 0.385031 0
20.625000 0.399476 0
20.630000 0.412036 0
20.635000 0.422510 0
20.640000 0.430722 0
20.645000 0.436531 0
20.650000 0.439831 0
20.655000 0.440556 5
20.660000 0.438679 0
20.665000 0.434215 0
20.670000 0.427222 0
20.675000 0.417796 0
20.680000 0.406072 0
20.685000 0.392219 0
20.690000 0.376435 0
20.695000 0.358945 0
20.700000 0.339990 0
20.705000 0.319829 0
20.710000 0.298727 0
20.715000 0.276949 0
20.720000 0.254761 0
20.725000 0.232416 0
20.730000 0.210155 0
20.735000 0.188203 0
20.740000 0.166761 0
20.745000 0.146009 0
20.750000 0.126100 0
20.755000 0.107163 0
20.760000 0.089298 0
20.765000 0.072582 0
20.770000 0.057064 0
20.775000 0.042773 0
20.780000 0.029715 0
20.785000 0.017876 0
20.790000 0.007227 0
20.795000 -0.002274 0
20.800000 -0.010682 0
20.805000 -0.018060 0
20.810000 -0.024477 0
20.815000 -0.030005 0
20.820000 -0.034721 0
20.825000 -0.038699 0
20.830000 -0.042013 0
20.835000 -0.044735 0
20.840000 -0.046934 0
20.845000 -0.048672 0
20.850000 -0.050009 0
20.855000 -0.051000 0
20.860000 -0.051694 0
20.865000 -0.052134 0
20.870000 -0.052361 0
20.875000 -0.052408 0
20.880000 -0.052305 0
20.885000 -0.052079 0
20.890000 -0.051752 0
20.895000 -0.051342 0
20.900000 -0.050866 0
20.905000 -0.050337 0
20.910000 -0.049767 0
20.915000 -0.049163 0
20.920000 -0.048535 0
20.925000 -0.047887 0
20.930000 -0.047225 0
20.935000 -0.046553 0
20.940000 -0.045874 0
20.945000 -0.045186 0
20.950000 -0.044481 0
20.955000 -0.043779 0
20.960000 -0.043081 0
20.965000 -0.042386 0
20.970000 -0.041695 0
20.975000 -0.041007 0
20.980000 -0.040322 0
20.985000 -0.039641 0
20.990000 -0.038964 0
20.995000 -0.038289 0
21.000000 -0.037619 0
21.005000 -0.036951 0
21.010000 -0.036287 0
21.015000 -0.035626 0
21.020000 -0.034968 0
21.025000 -0.034314 0
21.030000 -0.033663 0
21.035000 -0.033015 0
21.040000 -0.032371 0
21.045000 -0.031729 0
21.050000 -0.031091 0
21.055000 -0.030456 0
21.060000 -0.029824 0
21.065000 -0.029196 0
21.070000 -0.028570 0
21.075000 -0.027948 0
21.080000 -0.027328 0
21.085000 -0.026712 0
21.090000 -0.026099 0
21.095000 -0.025489 0
21.100000 -0.024882 0
21.105000 -0.024278 0
21.110000 -0.023676 0
21.115000 -0.023078 0
21.120000 -0.022482 0
21.125000 -0.021889 0
21.130000 -0.021297 0
21.135000 -0.020707 0
21.140000 -0.020117 0
21.145000 -0.019526 0
21.150000 -0.018931 0
21.155000 -0.018329 0
21.160000 -0.017714 0
21.165000 -0.017078 0
21.170000 -0.016410 0
21.175000 -0.015693 0
21.180000 -0.014907 0
21.185000 -0.014020 0
21.190000 -0.012994 0
21.195000 -0.011776 0
21.200000 -0.010301 0
21.205000 -0.008485 0
21.210000 -0.006228 0
21.215000 -0.003410 0
21.220000 0.000107 0
21.225000 0.004479 0
21.230000 0.009875 0
21.235000 0.016471 0
21.240000 0.024440 0
21.245000 0.033943 0
21.250000 0.045113 0
21.255000 0.058041 0
21.260000 0.072759 0
21.265000 0.089223 0
21.270000 0.107301 0
21.275000 0.126764 0
21.280000 0.147276 0
21.285000 0.168403 0
21.290000 0.189619 0
21.295000 0.210324 0
21.300000 0.229871 0
21.305000 0.247597 0
21.310000 0.262859 0
21.315000 0.275074 0
21.320000 0.283751 0
21.325000 0.288529 0
21.330000 0.289195 1
21.335000 0.285703 0
21.340000 0.278178 0
21.345000 0.266905 0
21.350000 0.252313 0
21.355000 0.234945 0
21.360000 0.215427 0
21.365000 0.194429 0
21.370000 0.172626 0
21.375000 0.150663 0
21.380000 0.129124 0
21.385000 0.108512 0
21.390000 0.089227 0
21.395000 0.071562 0
21.400000 0.055690 0
21.405000 0.041653 0
21.410000 0.029332 0
21.415000 0.018382 0
21.420000 0.008125 0
21.425000 -0.002563 0
21.430000 -0.015306 0
21.435000 -0.032066 0
21.440000 -0.054614 0
21.445000 -0.083623 0
21.450000 -0.117556 0
21.455000 -0.151835 0
21.460000 -0.178751 0
21.465000 -0.188289 2
21.470000 -0.169567 0
21.475000 -0.112382 0
21.480000 -0.008745 0
21.485000 0.145080 0
21.490000 0.345462 0
21.495000 0.577716 0
21.500000 0.814120 0
21.505000 1.016641 0
21.510000 1.145667 0
21.515000 1.172320 3
21.520000 1.086878 0
21.525000 0.905688 0
21.530000 0.665055 0
21.535000 0.407380 0
21.540000 0.169147 0
21.545000 -0.025385 0
21.550000 -0.164499 0
21.555000 -0.246339 0
21.560000 -0.276165 4
21.565000 -0.264460 0
21.570000 -0.225084 0
21.575000 -0.172717 0
21.580000 -0.119926 0
21.585000 -0.074994 0
21.590000 -0.041377 0
21.595000 -0.018699 0
21.600000 -0.004502 0
21.605000 0.004164 0
21.610000 0.009779 0
21.615000 0.014041 0
21.620000 0.017955 0
21.625000 0.022057 0
21.630000 0.026623 0
21.635000 0.031805 0
21.640000 0.037702 0
21.645000 0.044396 0
21.650000 0.051960 0
21.655000 0.060459 0
21.660000 0.069956 0
21.665000 0.080502 0
21.670000 0.092137 0
21.675000 0.104890 0
21.680000 0.118771 0
21.685000 0.133771 0
21.690000 0.149860 0
21.695000 0.166983 0
21.700000 0.185062 0
21.705000 0.203989 0
21.710000 0.223629 0
21.715000 0.243823 0
21.720000 0.264383 0
21.725000 0.285097 0
21.730000 0.305734 0
21.735000 0.326044 0
21.740000 0.345764 0
21.745000 0.364623 0
21.750000 0.382350 0
21.755000 0.398675 0
21.760000 0.413341 0
21.765000 0.426109 0
21.770000 0.436760 0
21.775000 0.445108 0
21.780000 0.450999 0
21.785000 0.454319 0
21.790000 0.454994 5
21.795000 0.452998 0
21.800000 0.448346 0
21.805000 0.441100 0
21.810000 0.431366 0
21.815000 0.419288 0
21.820000 0.405048 0
21.825000 0.388860 0
21.830000 0.370965 0
21.835000 0.351622 0
21.840000 0.331104 0
21.845000 0.309692 0
21.850000 0.287668 0
21.855000 0.265307 0
21.860000 0.242872 0
21.865000 0.220613 0
21.870000 0.198756 0
21.875000 0.177505 0
21.880000 0.157037 0
21.885000 0.137501 0
21.890000 0.119019 0
21.895000 0.101682 0
21.900000 0.085556 0
21.905000 0.070680 0
21.910000 0.057068 0
21.915000 0.044715 0
21.920000 0.033594 0
21.925000 0.023665 0
21.930000 0.014874 0
21.935000 0.007156 0
21.940000 0.000440 0
21.945000 -0.005350 0
21.950000 -0.010294 0
21.955000 -0.014470 0
21.960000 -0.017957 0
21.965000 -0.020830 0
21.970000 -0.023162 0
21.975000 -0.025020 0
21.980000 -0.026467 0
21.985000 -0.027559 0
21.990000 -0.028349 0
21.995000 -0.028881 0
22.000000 -0.029198 0
22.005000 -0.029335 0
22.010000 -0.029322 0
22.015000 -0.029187 0
22.020000 -0.028952 0
22.025000 -0.028637 0
22.030000 -0.028256 0
22.035000 -0.027825 0
22.040000 -0.027353 0
22.045000 -0.026850 0
22.050000 -0.026323 0
22.055000 -0.025778 0
22.060000 -0.025220 0
22.065000 -0.024652 0
22.070000 -0.024077 0
22.075000 -0.023481 0
22.080000 -0.022884 0
22.085000 -0.022290 0
22.090000 -0.021699 0
22.095000 -0.021111 0
22.100000 -0.020526 0
22.105000 -0.019944 0
22.110000 -0.019364 0
22.115000 -0.018788 0
22.120000 -0.018214 0
22.125000 -0.017643 0
22.130000 -0.017075 0
22.135000 -0.016510 0
22.140000 -0.015948 0
22.145000 -0.015389 0
22.150000 -0.014832 0
22.155000 -0.014278 0
22.160000 -0.013727 0
22.165000 -0.013179 0
22.170000 -0.012633 0
22.175000 -0.012090 0
22.180000 -0.011550 0
22.185000 -0.011012 0
22.190000 -0.010478 0
22.195000 -0.009945 0
22.200000 -0.009416 0
22.205000 -0.008889 0
22.210000 -0.008365 0
22.215000 -0.007843 0
22.220000 -0.007324 0
22.225000 -0.006807 0
22.230000 -0.006293 0
22.235000 -0.005782 0
22.240000 -0.005272 0
22.245000 -0.004765 0
22.250000 -0.004260 0
22.255000 -0.003755 0
22.260000 -0.003251 0
22.265000 -0.002746 0
22.270000 -0.002238 0
22.275000 -0.001724 0
22.280000 -0.001197 0
22.285000 -0.000652 0
22.290000 -0.000078 0
22.295000 0.000542 0
22.300000 0.001228 0
22.305000 0.002009 0
22.310000 0.002926 0
22.315000 0.004031 0
22.320000 0.005390 0
22.325000 0.007090 0
22.330000 0.009233 0
22.335000 0.011946 0
22.340000 0.015373 0
22.345000 0.019679 0
22.350000 0.025042 0
22.355000 0.031648 0
22.360000 0.039679 0
22.365000 0.049303 0
22.370000 0.060657 0
22.375000 0.073828 0
22.380000 0.088837 0
22.385000 0.105621 0
22.390000 0.124018 0
22.395000 0.143757 0
22.400000 0.164456 0
22.405000 0.185624 0
22.410000 0.206678 0
22.415000 0.226963 0
22.420000 0.245787 0
22.425000 0.262452 0
22.430000 0.276305 0
22.435000 0.286771 0
22.440000 0.293395 0
22.445000 0.295878 1
22.450000 0.294090 0
22.455000 0.288087 0
22.460000 0.278104 0
22.465000 0.264541 0
22.470000 0.247934 0
22.475000 0.228920 0
22.480000 0.208196 0
22.485000 0.186475 0
22.490000 0.164449 0
22.495000 0.142750 0
22.500000 0.121922 0
22.505000 0.102407 0
22.510000 0.084527 0
22.515000 0.068476 0
22.520000 0.054309 0
22.525000 0.041908 0
22.530000 0.030910 0
22.535000 0.020595 0
22.540000 0.009750 0
22.545000 -0.003370 0
22.550000 -0.020842 0
22.555000 -0.044447 0
22.560000 -0.074603 0
22.565000 -0.109158 0
22.570000 -0.142572 0
22.575000 -0.166041 0
22.580000 -0.168606 2
22.585000 -0.138837 0
22.590000 -0.066527 0
22.595000 0.055497 0
22.600000 0.228727 0
22.605000 0.445116 0
22.610000 0.683364 0
22.615000 0.908605 0
22.620000 1.078498 0
22.625000 1.155411 3
22.630000 1.120052 0
22.635000 0.978870 0
22.640000 0.760543 0
22.645000 0.505814 0
22.650000 0.254590 0
22.655000 0.036892 0
22.660000 -0.129995 0
22.665000 -0.239869 0
22.670000 -0.294718 0
22.675000 -0.302495 4
22.680000 -0.275439 0
22.685000 -0.227973 0
22.690000 -0.173930 0
22.695000 -0.123905 0
22.700000 -0.083829 0
22.705000 -0.055199 0
22.710000 -0.036501 0
22.715000 -0.024931 0
22.720000 -0.017706 0
22.725000 -0.012700 0
22.730000 -0.008551 0
22.735000 -0.004486 0
22.740000 -0.000103 0
22.745000 0.004809 0
22.750000 0.010375 0
22.755000 0.016683 0
22.760000 0.023808 0
22.765000 0.031822 0
22.770000 0.040786 0
22.775000 0.050759 0
22.780000 0.061789 0
22.785000 0.073911 0
22.790000 0.087146 0
22.795000 0.101501 0
22.800000 0.116959 0
22.805000 0.133482 0
22.810000 0.151011 0
22.815000 0.169458 0
22.820000 0.188710 0
22.825000 0.208628 0
22.830000 0.229044 0
22.835000 0.249768 0
22.840000 0.270585 0
22.845000 0.291262 0
22.850000 0.311549 0
22.855000 0.331184 0
22.860000 0.349899 0
22.865000 0.367426 0
22.870000 0.383503 0
22.875000 0.397878 0
22.880000 0.410320 0
22.885000 0.420620 0
22.890000 0.428598 0
22.895000 0.434112 0
22.900000 0.437056 0
22.905000 0.437365 5
22.910000 0.435020 0
22.915000 0.430044 0
22.920000 0.422506 0
22.925000 0.412514 0
22.930000 0.400219 0
22.935000 0.385802 0
22.940000 0.369481 0
22.945000 0.351492 0
22.950000 0.332096 0
22.955000 0.311563 0
22.960000 0.290169 0
22.965000 0.268193 0
22.970000 0.245904 0
22.975000 0.223563 0
22.980000 0.201412 0
22.985000 0.179674 0
22.990000 0.158549 0
22.995000 0.138210 0
23.000000 0.118803 0
23.005000 0.100445 0
23.010000 0.083228 0
23.015000 0.067214 0
23.020000 0.052442 0
23.025000 0.038925 0
23.030000 0.026658 0
23.035000 0.015616 0
23.040000 0.005757 0
23.045000 -0.002971 0
23.050000 -0.010631 0
23.055000 -0.017293 0
23.060000 -0.023034 0
23.065000 -0.027929 0
23.070000 -0.032059 0
23.075000 -0.035500 0
23.080000 -0.038327 0
23.085000 -0.040612 0
23.090000 -0.042420 0
23.095000 -0.043815 0
23.100000 -0.044854 0
23.105000 -0.045587 0
23.110000 -0.046060 0
23.115000 -0.046315 0
23.120000 -0.046388 0
23.125000 -0.046308 0
23.130000 -0.046105 0
23.135000 -0.045799 0
23.140000 -0.045411 0
23.145000 -0.044957 0
23.150000 -0.044450 0
23.155000 -0.043902 0
23.160000 -0.043322 0
23.165000 -0.042718 0
23.170000 -0.042095 0
23.175000 -0.041458 0
23.180000 -0.040812 0
23.185000 -0.040158 0
23.190000 -0.039482 0
23.195000 -0.038806 0
23.200000 -0.038132 0
23.205000 -0.037462 0
23.210000 -0.036795 0
23.215000 -0.036132 0
23.220000 -0.035472 0
23.225000 -0.034815 0
23.230000 -0.034161 0
23.235000 -0.033511 0
23.240000 -0.032864 0
23.245000 -0.032220 0
23.250000 -0.031580 0
23.255000 -0.030942 0
23.260000 -0.030308 0
23.265000 -0.029677 0
23.270000 -0.029049 0
23.275000 -0.028424 0
23.280000 -0.027803 0
23.285000 -0.027184 0
23.290000 -0.026569 0
23.295000 -0.025956 0
23.300000 -0.025347 0
23.305000 -0.024740 0
23.310000 -0.024137 0
23.315000 -0.023537 0
23.320000 -0.022940 0
23.325000 -0.022345 0
23.330000 -0.021754 0
23.335000 -0.021165 0
23.340000 -0.020580 0
23.345000 -0.019997 0
23.350000 -0.019417 0
23.355000 -0.018840 0
23.360000 -0.018265 0
23.365000 -0.017693 0
23.370000 -0.017122 0
23.375000 -0.016553 0
23.380000 -0.015984 0
23.385000 -0.015412 0
23.390000 -0.014837 0
23.395000 -0.014253 0
23.400000 -0.013655 0
23.405000 -0.013035 0
23.410000 -0.012378 0
23.415000 -0.011668 0
23.420000 -0.010881 0
23.425000 -0.009982 0
23.430000 -0.008928 0
23.435000 -0.007661 0
23.440000 -0.006107 0
23.445000 -0.004174 0
23.450000 -0.001751 0
23.455000 0.001293 0
23.460000 0.005110 0
23.465000 0.009868 0
23.470000 0.015747 0
23.475000 0.022929 0
23.480000 0.031591 0
23.485000 0.041890 0
23.490000 0.053943 0
23.495000 0.067816 0
23.500000 0.083502 0
23.505000 0.100906 0
23.510000 0.119835 0
23.515000 0.139983 0
23.520000 0.160939 0
23.525000 0.182189 0
23.530000 0.203131 0
23.535000 0.223107 0
23.540000 0.241426 0
23.545000 0.257410 0
23.550000 0.270432 0
23.555000 0.279954 0
23.560000 0.285567 0
23.565000 0.287016 1
23.570000 0.284220 0
23.575000 0.277278 0
23.580000 0.266465 0
23.585000 0.252207 0
23.590000 0.235060 0
23.595000 0.215669 0
23.600000 0.194728 0
23.605000 0.172939 0
23.610000 0.150975 0
23.615000 0.129444 0
23.620000 0.108868 0
23.625000 0.089660 0
23.630000 0.072117 0
23.635000 0.056409 0
23.640000 0.042568 0
23.645000 0.030446 0
23.650000 0.019642 0
23.655000 0.009388 0
23.660000 -0.001580 0
23.665000 -0.015040 0
23.670000 -0.033051 0
23.675000 -0.057280 0
23.680000 -0.087940 0
23.685000 -0.122618 0
23.690000 -0.155551 0
23.695000 -0.177831 0
23.700000 -0.178560 2
23.705000 -0.146489 0
23.710000 -0.071677 0
23.715000 0.052737 0
23.720000 0.227892 0
23.725000 0.445414 0
23.730000 0.683856 0
23.735000 0.908542 0
23.740000 1.077661 0
23.745000 1.154205 3
23.750000 1.120065 0
23.755000 0.982677 0
23.760000 0.768431 0
23.765000 0.515412 0
23.770000 0.261828 0
23.775000 0.037445 0
23.780000 -0.139604 0
23.785000 -0.261754 0
23.790000 -0.329432 0
23.795000 -0.348911 4
23.800000 -0.330786 0
23.805000 -0.288291 0
23.810000 -0.234968 0
23.815000 -0.182159 0
23.820000 -0.137246 0
23.825000 -0.103286 0
23.830000 -0.079923 0
23.835000 -0.064901 0
23.840000 -0.055466 0
23.845000 -0.049238 0
23.850000 -0.044533 0
23.855000 -0.040316 0
23.860000 -0.036011 0
23.865000 -0.031318 0
23.870000 -0.026071 0
23.875000 -0.020166 0
23.880000 -0.013525 0
23.885000 -0.006078 0
23.890000 0.002240 0
23.895000 0.011488 0
23.900000 0.021719 0
23.905000 0.032976 0
23.910000 0.045293 0
23.915000 0.058688 0
23.920000 0.073166 0
23.925000 0.088713 0
23.930000 0.105295 0
23.935000 0.122855 0
23.940000 0.141314 0
23.945000 0.160569 0
23.950000 0.180492 0
23.955000 0.200932 0
23.960000 0.221713 0
23.965000 0.242638 0
23.970000 0.263492 0
23.975000 0.284045 0
23.980000 0.304053 0
23.985000 0.323265 0
23.990000 0.341428 0
23.995000 0.358293 0
24.000000 0.373617 0
24.005000 0.387172 0
24.010000 0.398751 0
24.015000 0.408169 0
24.020000 0.415272 0
24.025000 0.419937 0
24.030000 0.422081 5
24.035000 0.421657 0
24.040000 0.418658 0
24.045000 0.413120 0
24.050000 0.405117 0
24.055000 0.394760 0
24.060000 0.382196 0
24.065000 0.367604 0
24.070000 0.351189 0
24.075000 0.333180 0
24.080000 0.313821 0
24.085000 0.293367 0
24.090000 0.272080 0
24.095000 0.250221 0
24.100000 0.228045 0
24.105000 0.205798 0
24.110000 0.183710 0
24.115000 0.161995 0
24.120000 0.140844 0
24.125000 0.120424 0
24.130000 0.100880 0
24.135000 0.082329 0
24.140000 0.064863 0
24.145000 0.048549 0
24.150000 0.033431 0
24.155000 0.019531 0
24.160000 0.006850 0
24.165000 -0.004629 0
24.170000 -0.014937 0
24.175000 -0.024119 0
24.180000 -0.032231 0
24.185000 -0.039334 0
24.190000 -0.045499 0
24.195000 -0.050796 0
24.200000 -0.055300 0
24.205000 -0.059084 0
24.210000 -0.062221 0
24.215000 -0.064781 0
24.220000 -0.066830 0
24.225000 -0.068429 0
24.230000 -0.069637 0
24.235000 -0.070507 0
24.240000 -0.071086 0
24.245000 -0.071417 0
24.250000 -0.071539 0
24.255000 -0.071484 0
24.260000 -0.071283 0
24.265000 -0.070961 0
24.270000 -0.070539 0
24.275000 -0.070036 0
24.280000 -0.069468 0
24.285000 -0.068848 0
24.290000 -0.068186 0
24.295000 -0.067493 0
24.300000 -0.066774 0
24.305000 -0.066037 0
24.310000 -0.065285 0
24.315000 -0.064524 0
24.320000 -0.063756 0
24.325000 -0.062980 0
24.330000 -0.062186 0
24.335000 -0.061396 0
24.340000 -0.060610 0
24.345000 -0.059828 0
24.350000 -0.059049 0
24.355000 -0.058275 0
24.360000 -0.057504 0
24.365000 -0.056738 0
24.370000 -0.055975 0
24.375000 -0.055216 0
24.380000 -0.054460 0
24.385000 -0.053709 0
24.390000 -0.052961 0
24.395000 -0.052217 0
24.400000 -0.051477 0
24.405000 -0.050740 0
24.410000 -0.050007 0
24.415000 -0.049278 0
24.420000 -0.048552 0
24.425000 -0.047830 0
24.430000 -0.047111 0
24.435000 -0.046397 0
24.440000 -0.045685 0
24.445000 -0.044978 0
24.450000 -0.044273 0
24.455000 -0.043573 0
24.460000 -0.042875 0
24.465000 -0.042182 0
24.470000 -0.041491 0
24.475000 -0.040804 0
24.480000 -0.040121 0
24.485000 -0.039441 0
24.490000 -0.038764 0
24.495000 -0.038090 0
24.500000 -0.037420 0
24.505000 -0.036752 0
24.510000 -0.036087 0
24.515000 -0.035424 0
24.520000 -0.034762 0
24.525000 -0.034101 0
24.530000 -0.033437 0
24.535000 -0.032768 0
24.540000 -0.032090 0
24.545000 -0.031397 0
24.550000 -0.030679 0
24.555000 -0.029923 0
24.560000 -0.029112 0
24.565000 -0.028220 0
24.570000 -0.027215 0
24.575000 -0.026053 0
24.580000 -0.024679 0
24.585000 -0.023021 0
24.590000 -0.020992 0
24.595000 -0.018488 0
24.600000 -0.015384 0
24.605000 -0.011538 0
24.610000 -0.006793 0
24.615000 -0.000981 0
24.620000 0.006070 0
24.625000 0.014530 0
24.630000 0.024548 0
24.635000 0.036246 0
24.640000 0.049697 0
24.645000 0.064916 0
24.650000 0.081839 0
24.655000 0.100315 0
24.660000 0.120095 0
24.665000 0.140830 0
24.670000 0.162072 0
24.675000 0.183292 0
24.680000 0.203889 0
24.685000 0.223225 0
24.690000 0.240652 0
24.695000 0.255544 0
24.700000 0.267343 0
24.705000 0.275583 0
24.710000 0.279928 0
24.715000 0.280188 1
24.720000 0.276338 0
24.725000 0.268514 0
24.730000 0.257009 0
24.735000 0.242255 0
24.740000 0.224790 0
24.745000 0.205233 0
24.750000 0.184239 0
24.755000 0.162470 0
24.760000 0.140558 0
24.765000 0.119073 0
24.770000 0.098508 0
24.775000 0.079255 0
24.780000 0.061602 0
24.785000 0.045722 0
24.790000 0.031660 0
24.795000 0.019309 0
24.800000 0.008342 0
24.805000 -0.001879 0
24.810000 -0.012420 0
24.815000 -0.024836 0
24.820000 -0.041031 0
24.825000 -0.062803 0
24.830000 -0.090987 0
24.835000 -0.124401 0
24.840000 -0.158982 0
24.845000 -0.187586 0
24.850000 -0.200660 2
24.855000 -0.187571 0
24.860000 -0.138095 0
24.865000 -0.043879 0
24.870000 0.099755 0
24.875000 0.291026 0
24.880000 0.518134 0
24.885000 0.756746 0
24.890000 0.971378 0
24.895000 1.122507 0
24.900000 1.177989 3
24.905000 1.123880 0
24.910000 0.969562 0
24.915000 0.744716 0
24.920000 0.488653 0
24.925000 0.238773 0
24.930000 0.022848 0
24.935000 -0.143178 0
24.940000 -0.253572 0
24.945000 -0.310173 0
24.950000 -0.320383 4
24.955000 -0.295650 0
24.960000 -0.249623 0
24.965000 -0.195662 0
24.970000 -0.144381 0
24.975000 -0.102155 0
24.980000 -0.071104 0
24.985000 -0.050241 0
24.990000 -0.037049 0
24.995000 -0.028786 0
25.000000 -0.023225 0
25.005000 -0.018855 0
25.010000 -0.014778 0
25.015000 -0.010508 0
25.020000 -0.005790 0
25.025000 -0.000481 0
25.030000 0.005513 0
25.035000 0.012270 0
25.040000 0.019858 0
25.045000 0.028340 0
25.050000 0.037775 0
25.055000 0.048212 0
25.060000 0.059693 0
25.065000 0.072247 0
25.070000 0.085888 0
25.075000 0.100616 0
25.080000 0.116409 0
25.085000 0.133225 0
25.090000 0.151000 0
25.095000 0.169646 0
25.100000 0.189049 0
25.105000 0.209072 0
25.110000 0.229553 0
25.115000 0.250307 0
25.120000 0.271129 0
25.125000 0.291794 0
25.130000 0.312064 0
25.135000 0.331691 0
25.140000 0.350419 0
25.145000 0.367995 0
25.150000 0.384169 0
25.155000 0.398700 0
25.160000 0.411368 0
25.165000 0.421970 0
25.170000 0.430334 0
25.175000 0.436316 0
25.180000 0.439809 0
25.185000 0.440745 5
25.190000 0.439094 0
25.195000 0.434869 0
25.200000 0.428120 0
25.205000 0.418942 0
25.210000 0.407462 0
25.215000 0.393845 0
25.220000 0.378284 0
25.225000 0.360997 0
25.230000 0.342223 0
25.235000 0.322215 0
25.240000 0.301233 0
25.245000 0.279543 0
25.250000 0.257404 0
25.255000 0.235072 0
25.260000 0.212787 0
25.265000 0.190772 0
25.270000 0.169233 0
25.275000 0.148349 0
25.280000 0.128279 0
25.285000 0.109153 0
25.290000 0.091077 0
25.295000 0.074130 0
25.300000 0.058367 0
25.305000 0.043819 0
25.310000 0.030498 0
25.315000 0.018395 0
25.320000 0.007484 0
25.325000 -0.002275 0
25.330000 -0.010933 0
25.335000 -0.018550 0
25.340000 -0.025194 0
25.345000 -0.030935 0
25.350000 -0.035848 0
25.355000 -0.040007 0
25.360000 -0.043486 0
25.365000 -0.046357 0
25.370000 -0.048688 0
25.375000 -0.050543 0
25.380000 -0.051983 0
25.385000 -0.053063 0
25.390000 -0.053832 0
25.395000 -0.054336 0
25.400000 -0.054616 0
25.405000 -0.054707 0
25.410000 -0.054639 0
25.415000 -0.054441 0
25.420000 -0.054135 0
25.425000 -0.053741 0
25.430000 -0.053276 0
25.435000 -0.052753 0
25.440000 -0.052186 0
25.445000 -0.051583 0
25.450000 -0.050952 0
25.455000 -0.050300 0
25.460000 -0.049632 0
25.465000 -0.048953 0
25.470000 -0.048266 0
25.475000 -0.047569 0
25.480000 -0.046852 0
25.485000 -0.046138 0
25.490000 -0.045428 0
25.495000 -0.044722 0
25.500000 -0.044019 0
25.505000 -0.043319 0
25.510000 -0.042623 0
25.515000 -0.041931 0
25.520000 -0.041242 0
25.525000 -0.040556 0
25.530000 -0.039874 0
25.535000 -0.039195 0
25.540000 -0.038520 0
25.545000 -0.037848 0
25.550000 -0.037179 0
25.555000 -0.036514 0
25.560000 -0.035852 0
25.565000 -0.035193 0
25.570000 -0.034537 0
25.575000 -0.033885 0
25.580000 -0.033236 0
25.585000 -0.032591 0
25.590000 -0.031948 0
25.595000 -0.031309 0
25.600000 -0.030673 0
25.605000 -0.030040 0
25.610000 -0.029410 0
25.615000 -0.028784 0
25.620000 -0.028160 0
25.625000 -0.027540 0
25.630000 -0.026923 0
25.635000 -0.026308 0
25.640000 -0.025697 0
25.645000 -0.025089 0
25.650000 -0.024483 0
25.655000 -0.023880 0
25.660000 -0.023279 0
25.665000 -0.022680 0
25.670000 -0.022082 0
25.675000 -0.021484 0
25.680000 -0.020884 0
25.685000 -0.020279 0
25.690000 -0.019665 0
25.695000 -0.019036 0
25.700000 -0.018383 0
25.705000 -0.017693 0
25.710000 -0.016949 0
25.715000 -0.016126 0
25.720000 -0.015192 0
25.725000 -0.014104 0
25.730000 -0.012807 0
25.735000 -0.011230 0
25.740000 -0.009287 0
25.745000 -0.006872 0
25.750000 -0.003861 0
25.755000 -0.000113 0
25.760000 0.004531 0
25.765000 0.010240 0
25.770000 0.017189 0
25.775000 0.025548 0
25.780000 0.035468 0
25.785000 0.047074 0
25.790000 0.060441 0
25.795000 0.075584 0
25.800000 0.092441 0
25.805000 0.110860 0
25.810000 0.130589 0
25.815000 0.151276 0
25.820000 0.172470 0
25.825000 0.193634 0
25.830000 0.214164 0
25.835000 0.233412 0
25.840000 0.250725 0
25.845000 0.265476 0
25.850000 0.277101 0
25.855000 0.285135 0
25.860000 0.289245 0
25.865000 0.289248 1
25.870000 0.285124 0
25.875000 0.277022 0
25.880000 0.265247 0
25.885000 0.250240 0
25.890000 0.232553 0
25.895000 0.212813 0
25.900000 0.191683 0
25.905000 0.169831 0
25.910000 0.147889 0
25.915000 0.126426 0
25.920000 0.105931 0
25.925000 0.086788 0
25.930000 0.069277 0
25.935000 0.053557 0
25.940000 0.039661 0
25.945000 0.027456 0
25.950000 0.016580 0
25.955000 0.006341 0
25.960000 -0.004405 0
25.965000 -0.017285 0
25.970000 -0.034246 0
25.975000 -0.057018 0
25.980000 -0.086206 0
25.985000 -0.120210 0
25.990000 -0.154423 0
25.995000 -0.181166 0
26.000000 -0.190513 2
26.005000 -0.171699 0
26.010000 -0.114638 0
26.015000 -0.011420 0
26.020000 0.141701 0
26.025000 0.341269 0
26.030000 0.573008 0
26.035000 0.809822 0
26.040000 1.014302 0
26.045000 1.147114 0
26.050000 1.179000 3
26.055000 1.099576 0
26.060000 0.921967 0
26.065000 0.682633 0
26.070000 0.424875 0
26.075000 0.186192 0
26.080000 -0.008466 0
26.085000 -0.147105 0
26.090000 -0.227899 0
26.095000 -0.256343 4
26.100000 -0.243281 0
26.105000 -0.202963 0
26.110000 -0.150335 0
26.115000 -0.098005 0
26.120000 -0.054063 0
26.125000 -0.021651 0
26.130000 -0.000105 0
26.135000 0.013208 0
26.140000 0.021277 0
26.145000 0.026539 0
26.150000 0.030619 0
26.155000 0.034457 0
26.160000 0.038545 0
26.165000 0.043137 0
26.170000 0.048373 0
26.175000 0.054351 0
26.180000 0.061151 0
26.185000 0.068845 0
26.190000 0.077502 0
26.195000 0.087181 0
26.200000 0.097933 0
26.205000 0.109797 0
26.210000 0.122795 0
26.215000 0.136935 0
26.220000 0.152200 0
26.225000 0.168554 0
26.230000 0.185931 0
26.235000 0.204242 0
26.240000 0.223369 0
26.245000 0.243165 0
26.250000 0.263455 0
26.255000 0.284040 0
26.260000 0.304695 0
26.265000 0.325175 0
26.270000 0.345220 0
26.275000 0.364556 0
26.280000 0.382905 0
26.285000 0.399991 0
26.290000 0.415543 0
26.295000 0.429305 0
26.300000 0.441042 0
26.305000 0.450545 0
26.310000 0.457640 0
26.315000 0.462188 0
26.320000 0.464094 5
26.325000 0.463308 0
26.330000 0.459823 0
26.335000 0.453684 0
26.340000 0.444976 0
26.345000 0.433830 0
26.350000 0.420418 0
26.355000 0.404944 0
26.360000 0.387644 0
26.365000 0.368775 0
26.370000 0.348613 0
26.375000 0.327442 0
26.380000 0.305550 0
26.385000 0.283221 0
26.390000 0.260730 0
26.395000 0.238336 0
26.400000 0.216278 0
26.405000 0.194773 0
26.410000 0.174009 0
26.415000 0.154148 0
26.420000 0.135320 0
26.425000 0.117629 0
26.430000 0.101147 0
26.435000 0.085920 0
26.440000 0.071970 0
26.445000 0.059294 0
26.450000 0.047870 0
26.455000 0.037660 0
26.460000 0.028611 0
26.465000 0.020658 0
26.470000 0.013730 0
26.475000 0.007750 0
26.480000 0.002636 0
26.485000 -0.001691 0
26.490000 -0.005313 0
26.495000 -0.008306 0
26.500000 -0.010745 0
26.505000 -0.012700 0
26.510000 -0.014233 0
26.515000 -0.015405 0
26.520000 -0.016268 0
26.525000 -0.016869 0
26.530000 -0.017251 0
26.535000 -0.017449 0
26.540000 -0.017497 0
26.545000 -0.017420 0
26.550000 -0.017242 0
26.555000 -0.016982 0
26.560000 -0.016658 0
26.565000 -0.016282 0
26.570000 -0.015865 0
26.575000 -0.015417 0
26.580000 -0.014945 0
26.585000 -0.014456 0
26.590000 -0.013952 0
26.595000 -0.013439 0
26.600000 -0.012916 0
26.605000 -0.012371 0
26.610000 -0.011830 0
26.615000 -0.011291 0
26.620000 -0.010755 0
26.625000 -0.010221 0
26.630000 -0.009690 0
26.635000 -0.009162 0
26.640000 -0.008636 0
26.645000 -0.008113 0
26.650000 -0.007593 0
26.655000 -0.007075 0
26.660000 -0.006560 0
26.665000 -0.006047 0
26.670000 -0.005537 0
26.675000 -0.005030 0
26.680000 -0.004525 0
26.685000 -0.004022 0
26.690000 -0.003522 0
26.695000 -0.003025 0
26.700000 -0.002530 0
26.705000 -0.002037 0
26.710000 -0.001547 0
26.715000 -0.001060 0
26.720000 -0.000575 0
26.725000 -0.000092 0
26.730000 0.000389 0
26.735000 0.000867 0
26.740000 0.001342 0
26.745000 0.001815 0
26.750000 0.002286 0
26.755000 0.002755 0
26.760000 0.003221 0
26.765000 0.003686 0
26.770000 0.004148 0
26.775000 0.004609 0
26.780000 0.005068 0
26.785000 0.005527 0
26.790000 0.005986 0
26.795000 0.006448 0
26.800000 0.006915 0
26.805000 0.007391 0
26.810000 0.007883 0
26.815000 0.008401 0
26.820000 0.008957 0
26.825000 0.009571 0
26.830000 0.010270 0
26.835000 0.011089 0
26.840000 0.012079 0
26.845000 0.013301 0
26.850000 0.014835 0
26.855000 0.016783 0
26.860000 0.019264 0
26.865000 0.022422 0
26.870000 0.026417 0
26.875000 0.031430 0
26.880000 0.037648 0
26.885000 0.045261 0
26.890000 0.054445 0
26.895000 0.065349 0
26.900000 0.078075 0
26.905000 0.092663 0
26.910000 0.109066 0
26.915000 0.127141 0
26.920000 0.146632 0
26.925000 0.167170 0
26.930000 0.188270 0
26.935000 0.209351 0
26.940000 0.229752 0
26.945000 0.248769 0
26.950000 0.265688 0
26.955000 0.279833 0
26.960000 0.290607 0
26.965000 0.297533 0
26.970000 0.300290 1
26.975000 0.298733 0
26.980000 0.292908 0
26.985000 0.283046 0
26.990000 0.269550 0
26.995000 0.252963 0
27.000000 0.233935 0
27.005000 0.213178 0
27.010000 0.191421 0
27.015000 0.169369 0
27.020000 0.147665 0
27.025000 0.126863 0
27.030000 0.107408 0
27.035000 0.089621 0
27.040000 0.073692 0
27.045000 0.059664 0
27.050000 0.047396 0
27.055000 0.036486 0
27.060000 0.026146 0
27.065000 0.015070 0
27.070000 0.001406 0
27.075000 -0.016973 0
27.080000 -0.041746 0
27.085000 -0.072977 0
27.090000 -0.107883 0
27.095000 -0.140129 0
27.100000 -0.160157 2
27.105000 -0.156524 0
27.110000 -0.117683 0
27.115000 -0.033750 0
27.120000 0.101479 0
27.125000 0.287443 0
27.130000 0.512603 0
27.135000 0.751153 0
27.140000 0.964328 0
27.145000 1.108845 0
27.150000 1.150684 3
27.155000 1.078328 0
27.160000 0.907102 0
27.165000 0.671548 0
27.170000 0.413914 0
27.175000 0.171774 0
27.180000 -0.029049 0
27.185000 -0.175419 0
27.190000 -0.264396 0
27.195000 -0.300424 4
27.200000 -0.293364 0
27.205000 -0.256717 0
27.210000 -0.205178 0
27.215000 -0.151717 0
27.220000 -0.105252 0
27.225000 -0.069868 0
27.230000 -0.045630 0
27.235000 -0.030273 0
27.240000 -0.020852 0
27.245000 -0.014793 0
27.250000 -0.010289 0
27.255000 -0.006247 0
27.260000 -0.002079 0
27.265000 0.002521 0
27.270000 0.007716 0
27.275000 0.013611 0
27.280000 0.020289 0
27.285000 0.027823 0
27.290000 0.036281 0
27.295000 0.045723 0
27.300000 0.056205 0
27.305000 0.067768 0
27.310000 0.080443 0
27.315000 0.094243 0
27.320000 0.109162 0
27.325000 0.125175 0
27.330000 0.142232 0
27.335000 0.160257 0
27.340000 0.179148 0
27.345000 0.198779 0
27.350000 0.218991 0
27.355000 0.239604 0
27.360000 0.260412 0
27.365000 0.281186 0
27.370000 0.301680 0
27.375000 0.321635 0
27.380000 0.340781 0
27.385000 0.358848 0
27.390000 0.375567 0
27.395000 0.390678 0
27.400000 0.403937 0
27.405000 0.415125 0
27.410000 0.424047 0
27.415000 0.430543 0
27.420000 0.434491 0
27.425000 0.435811 5
27.430000 0.434464 0
27.435000 0.430459 0
27.440000 0.423847 0
27.445000 0.414724 0
27.450000 0.403226 0
27.455000 0.389529 0
27.460000 0.373838 0
27.465000 0.356387 0
27.470000 0.337432 0
27.475000 0.317243 0
27.480000 0.296099 0
27.485000 0.274281 0
27.490000 0.252064 0
27.495000 0.229715 0
27.500000 0.207486 0
27.505000 0.185608 0
27.510000 0.164289 0
27.515000 0.143714 0
27.520000 0.124036 0
27.525000 0.105384 0
27.530000 0.087856 0
27.535000 0.071523 0
27.540000 0.056430 0
27.545000 0.042598 0
27.550000 0.030025 0
27.555000 0.018690 0
27.560000 0.008556 0
27.565000 -0.000427 0
27.570000 -0.008323 0
27.575000 -0.015199 0
27.580000 -0.021133 0
27.585000 -0.026200 0
27.590000 -0.030482 0
27.595000 -0.034056 0
27.600000 -0.036999 0
27.605000 -0.039383 0
27.610000 -0.041276 0
27.615000 -0.042744 0
27.620000 -0.043843 0
27.625000 -0.044627 0
27.630000 -0.045143 0
27.635000 -0.045433 0
27.640000 -0.045535 0
27.645000 -0.045480 0
27.650000 -0.045296 0
27.655000 -0.045006 0
27.660000 -0.044632 0
27.665000 -0.044189 0
27.670000 -0.043692 0
27.675000 -0.043152 0
27.680000 -0.042579 0
27.685000 -0.041981 0
27.690000 -0.041364 0
27.695000 -0.040732 0
27.700000 -0.040090 0
27.705000 -0.039441 0
27.710000 -0.038769 0
27.715000 -0.038095 0
27.720000 -0.037425 0
27.725000 -0.036759 0
27.730000 -0.036096 0
27.735000 -0.035436 0
27.740000 -0.034779 0
27.745000 -0.034126 0
27.750000 -0.033476 0
27.755000 -0.032829 0
27.760000 -0.032185 0
27.765000 -0.031545 0
27.770000 -0.030907 0
27.775000 -0.030273 0
27.780000 -0.029642 0
27.785000 -0.029015 0
27.790000 -0.028390 0
27.795000 -0.027769 0
27.800000 -0.027150 0
27.805000 -0.026535 0
27.810000 -0.025923 0
27.815000 -0.025313 0
27.820000 -0.024707 0
27.825000 -0.024104 0
27.830000 -0.023504 0
27.835000 -0.022907 0
27.840000 -0.022313 0
27.845000 -0.021721 0
27.850000 -0.021133 0
27.855000 -0.020548 0
27.860000 -0.019965 0
27.865000 -0.019386 0
27.870000 -0.018809 0
27.875000 -0.018235 0
27.880000 -0.017663 0
27.885000 -0.017093 0
27.890000 -0.016526 0
27.895000 -0.015959 0
27.900000 -0.015392 0
27.905000 -0.014823 0
27.910000 -0.014249 0
27.915000 -0.013667 0
27.920000 -0.013068 0
27.925000 -0.012445 0
27.930000 -0.011784 0
27.935000 -0.011065 0
27.940000 -0.010263 0
27.945000 -0.009342 0
27.950000 -0.008256 0
27.955000 -0.006942 0
27.960000 -0.005324 0
27.965000 -0.003304 0
27.970000 -0.000766 0
27.975000 0.002427 0
27.980000 0.006432 0
27.985000 0.011422 0
27.990000 0.017581 0
27.995000 0.025092 0
28.000000 0.034132 0
28.005000 0.044849 0
28.010000 0.057352 0
28.015000 0.071691 0
28.020000 0.087838 0
28.025000 0.105672 0
28.030000 0.124967 0
28.035000 0.145386 0
28.040000 0.166483 0
28.045000 0.187712 0
28.050000 0.208444 0
28.055000 0.228002 0
28.060000 0.245687 0
28.065000 0.260824 0
28.070000 0.272804 0
28.075000 0.281120 0
28.080000 0.285404 0
28.085000 0.285457 1
28.090000 0.281255 0
28.095000 0.272959 0
28.100000 0.260902 0
28.105000 0.245565 0
28.110000 0.227543 0
28.115000 0.207512 0
28.120000 0.186181 0
28.125000 0.164254 0
28.130000 0.142389 0
28.135000 0.121170 0
28.140000 0.101084 0
28.145000 0.082505 0
28.150000 0.065682 0
28.155000 0.050736 0
28.160000 0.037630 0
28.165000 0.026121 0
28.170000 0.015667 0
28.175000 0.005292 0
28.180000 -0.006512 0
28.185000 -0.021717 0
28.190000 -0.042339 0
28.195000 -0.069561 0
28.200000 -0.102540 0
28.205000 -0.137340 0
28.210000 -0.166591 0
28.215000 -0.180165 2
28.220000 -0.166668 0
28.225000 -0.115155 0
28.230000 -0.016819 0
28.235000 0.132875 0
28.240000 0.330874 0
28.245000 0.562466 0
28.250000 0.798932 0
28.255000 1.000369 0
28.260000 1.125293 0
28.265000 1.144204 3
28.270000 1.052375 0
28.275000 0.870577 0
28.280000 0.631707 0
28.285000 0.374050 0
28.290000 0.131340 0
28.295000 -0.072864 0
28.300000 -0.225976 0
28.305000 -0.324407 0
28.310000 -0.371193 0
28.315000 -0.374293 4
28.320000 -0.345204 0
28.325000 -0.297154 0
28.330000 -0.242757 0
28.335000 -0.191808 0
28.340000 -0.150046 0
28.345000 -0.119257 0
28.350000 -0.098384 0
28.355000 -0.084986 0
28.360000 -0.076431 0
28.365000 -0.070569 0
28.370000 -0.065926 0
28.375000 -0.061616 0
28.380000 -0.057147 0
