0.000000 1.153073 3
0.005000 1.055174 0
0.010000 0.807181 0
0.015000 0.481576 0
0.020000 0.157867 0
0.025000 -0.106319 0
0.030000 -0.283325 0
0.035000 -0.369528 0
0.040000 -0.377701 4
0.045000 -0.331535 0
0.050000 -0.259299 0
0.055000 -0.185646 0
0.060000 -0.125283 0
0.065000 -0.082009 0
0.070000 -0.052461 0
0.075000 -0.030989 0
0.080000 -0.012834 0
0.085000 0.004924 0
0.090000 0.023698 0
0.095000 0.044027 0
0.100000 0.066032 0
0.105000 0.089645 0
0.110000 0.114697 0
0.115000 0.140943 0
0.120000 0.168073 0
0.125000 0.195711 0
0.130000 0.223428 0
0.135000 0.250750 0
0.140000 0.277164 0
0.145000 0.302143 0
0.150000 0.325154 0
0.155000 0.345682 0
0.160000 0.363245 0
0.165000 0.377417 0
0.170000 0.387840 0
0.175000 0.394242 0
0.180000 0.396447 5
0.185000 0.394382 0
0.190000 0.388083 0
0.195000 0.377692 0
0.200000 0.363452 0
0.205000 0.345694 0
0.210000 0.324832 0
0.215000 0.301336 0
0.220000 0.275725 0
0.225000 0.248540 0
0.230000 0.220327 0
0.235000 0.191621 0
0.240000 0.162930 0
0.245000 0.134716 0
0.250000 0.107389 0
0.255000 0.081300 0
0.260000 0.056729 0
0.265000 0.033893 0
0.270000 0.012940 0
0.275000 -0.006046 0
0.280000 -0.023034 0
0.285000 -0.038048 0
0.290000 -0.051149 0
0.295000 -0.062436 0
0.300000 -0.072030 0
0.305000 -0.080071 0
0.310000 -0.086709 0
0.315000 -0.092096 0
0.320000 -0.096384 0
0.325000 -0.099720 0
0.330000 -0.102240 0
0.335000 -0.104070 0
0.340000 -0.105324 0
0.345000 -0.106101 0
0.350000 -0.106490 0
0.355000 -0.106565 0
0.360000 -0.106391 0
0.365000 -0.105929 0
0.370000 -0.104928 0
0.375000 -0.103932 0
0.380000 -0.102941 0
0.385000 -0.101955 0
0.390000 -0.100974 0
0.395000 -0.099998 0
0.400000 -0.099027 0
0.405000 -0.098060 0
0.410000 -0.097099 0
0.415000 -0.096142 0
0.420000 -0.095189 0
0.425000 -0.094242 0
0.430000 -0.093298 0
0.435000 -0.092358 0
0.440000 -0.091420 0
0.445000 -0.090483 0
0.450000 -0.089544 0
0.455000 -0.088597 0
0.460000 -0.087634 0
0.465000 -0.086639 0
0.470000 -0.085590 0
0.475000 -0.084452 0
0.480000 -0.083173 0
0.485000 -0.081679 0
0.490000 -0.079862 0
0.495000 -0.077582 0
0.500000 -0.074651 0
0.505000 -0.070833 0
0.510000 -0.065846 0
0.515000 -0.059361 0
0.520000 -0.051020 0
0.525000 -0.040463 0
0.530000 -0.027356 0
0.535000 -0.011439 0
0.540000 0.007421 0
0.545000 0.029181 0
0.550000 0.053576 0
0.555000 0.080082 0
0.560000 0.107910 0
0.565000 0.136024 0
0.570000 0.163193 0
0.575000 0.188070 0
0.580000 0.209306 0
0.585000 0.225662 0
0.590000 0.236135 0
0.595000 0.240055 1
0.600000 0.237160 0
0.605000 0.227623 0
0.610000 0.212036 0
0.615000 0.191347 0
0.620000 0.166768 0
0.625000 0.139657 0
0.630000 0.111389 0
0.635000 0.083238 0
0.640000 0.056245 0
0.645000 0.031058 0
0.650000 0.007673 0
0.655000 -0.014944 0
0.660000 -0.039204 0
0.665000 -0.068716 0
0.670000 -0.106843 0
0.675000 -0.153758 0
0.680000 -0.203094 0
0.685000 -0.240476 0
0.690000 -0.245480 2
0.695000 -0.196113 0
0.700000 -0.073779 0
0.705000 0.130858 0
0.710000 0.408525 0
0.715000 0.720367 0
0.720000 0.996499 0
0.725000 1.155922 3
0.730000 1.142582 0
0.735000 0.957094 0
0.740000 0.656574 0
0.745000 0.323068 0
0.750000 0.027339 0
0.755000 -0.189309 0
0.760000 -0.313654 0
0.765000 -0.352319 4
0.770000 -0.325345 0
0.775000 -0.260447 0
0.780000 -0.185112 0
0.785000 -0.118722 0
0.790000 -0.069190 0
0.795000 -0.035277 0
0.800000 -0.011618 0
0.805000 0.007165 0
0.810000 0.024709 0
0.815000 0.042912 0
0.820000 0.062563 0
0.825000 0.083891 0
0.830000 0.106878 0
0.835000 0.131378 0
0.840000 0.157167 0
0.845000 0.183949 0
0.850000 0.211362 0
0.855000 0.238986 0
0.860000 0.266350 0
0.865000 0.292945 0
0.870000 0.318236 0
0.875000 0.341683 0
0.880000 0.362756 0
0.885000 0.380957 0
0.890000 0.395836 0
0.895000 0.407014 0
0.900000 0.414193 0
0.905000 0.417173 5
0.910000 0.415859 0
0.915000 0.410263 0
0.920000 0.400510 0
0.925000 0.386826 0
0.930000 0.369535 0
0.935000 0.349042 0
0.940000 0.325817 0
0.945000 0.300380 0
0.950000 0.273277 0
0.955000 0.245063 0
0.960000 0.216285 0
0.965000 0.187461 0
0.970000 0.159067 0
0.975000 0.131527 0
0.980000 0.105200 0
0.985000 0.080381 0
0.990000 0.057293 0
0.995000 0.036093 0
1.000000 0.016872 0
1.005000 -0.000339 0
1.010000 -0.015556 0
1.015000 -0.028844 0
1.020000 -0.040299 0
1.025000 -0.050045 0
1.030000 -0.058222 0
1.035000 -0.064983 0
1.040000 -0.070482 0
1.045000 -0.074874 0
1.050000 -0.078307 0
1.055000 -0.080920 0
1.060000 -0.082840 0
1.065000 -0.084181 0
1.070000 -0.085046 0
1.075000 -0.085523 0
1.080000 -0.085688 0
1.085000 -0.085604 0
1.090000 -0.085234 0
1.095000 -0.084336 0
1.100000 -0.083443 0
1.105000 -0.082555 0
1.110000 -0.081670 0
1.115000 -0.080790 0
1.120000 -0.079915 0
1.125000 -0.079044 0
1.130000 -0.078177 0
1.135000 -0.077315 0
1.140000 -0.076456 0
1.145000 -0.075602 0
1.150000 -0.074752 0
1.155000 -0.073905 0
1.160000 -0.073062 0
1.165000 -0.072220 0
1.170000 -0.071378 0
1.175000 -0.070532 0
1.180000 -0.069676 0
1.185000 -0.068801 0
1.190000 -0.067889 0
1.195000 -0.066915 0
1.200000 -0.065841 0
1.205000 -0.064609 0
1.210000 -0.063134 0
1.215000 -0.061302 0
1.220000 -0.058957 0
1.225000 -0.055896 0
1.230000 -0.051866 0
1.235000 -0.046565 0
1.240000 -0.039650 0
1.245000 -0.030755 0
1.250000 -0.019515 0
1.255000 -0.005612 0
1.260000 0.011182 0
1.265000 0.030952 0
1.270000 0.053580 0
1.275000 0.078710 0
1.280000 0.105716 0
1.285000 0.133704 0
1.290000 0.161539 0
1.295000 0.187919 0
1.300000 0.211460 0
1.305000 0.230822 0
1.310000 0.244829 0
1.315000 0.252588 0
1.320000 0.253583 1
1.325000 0.247733 0
1.330000 0.235399 0
1.335000 0.217349 0
1.340000 0.194678 0
1.345000 0.168698 0
1.350000 0.140810 0
1.355000 0.112379 0
1.360000 0.084601 0
1.365000 0.058368 0
1.370000 0.034054 0
1.375000 0.011191 0
1.380000 -0.011950 0
1.385000 -0.038522 0
1.390000 -0.072341 0
1.395000 -0.115557 0
1.400000 -0.165159 0
1.405000 -0.210261 0
1.410000 -0.232445 2
1.415000 -0.209475 0
1.420000 -0.120352 0
1.425000 0.049329 0
1.430000 0.299512 0
1.435000 0.604240 0
1.440000 0.904322 0
1.445000 1.118182 0
1.450000 1.174960 3
1.455000 1.051640 0
1.460000 0.786090 0
1.465000 0.455583 0
1.470000 0.138759 0
1.475000 -0.111030 0
1.480000 -0.270695 0
1.485000 -0.340213 4
1.490000 -0.335170 0
1.495000 -0.281214 0
1.500000 -0.207000 0
1.505000 -0.135726 0
1.510000 -0.079645 0
1.515000 -0.040426 0
1.520000 -0.013654 0
1.525000 0.006388 0
1.530000 0.024060 0
1.535000 0.041853 0
1.540000 0.060891 0
1.545000 0.081564 0
1.550000 0.103922 0
1.555000 0.127859 0
1.560000 0.153178 0
1.565000 0.179607 0
1.570000 0.206808 0
1.575000 0.234380 0
1.580000 0.261868 0
1.585000 0.288776 0
1.590000 0.314575 0
1.595000 0.338723 0
1.600000 0.360683 0
1.605000 0.379944 0
1.610000 0.396035 0
1.615000 0.408549 0
1.620000 0.417156 0
1.625000 0.421620 0
1.630000 0.421808 5
1.635000 0.417693 0
1.640000 0.409362 0
1.645000 0.397005 0
1.650000 0.380914 0
1.655000 0.361468 0
1.660000 0.339116 0
1.665000 0.314364 0
1.670000 0.287752 0
1.675000 0.259837 0
1.680000 0.231169 0
1.685000 0.202280 0
1.690000 0.173663 0
1.695000 0.145761 0
1.700000 0.118958 0
1.705000 0.093571 0
1.710000 0.069848 0
1.715000 0.047968 0
1.720000 0.028045 0
1.725000 0.010131 0
1.730000 -0.005778 0
1.735000 -0.019730 0
1.740000 -0.031811 0
1.745000 -0.042138 0
1.750000 -0.050846 0
1.755000 -0.058085 0
1.760000 -0.064010 0
1.765000 -0.068776 0
1.770000 -0.072533 0
1.775000 -0.075425 0
1.780000 -0.077582 0
1.785000 -0.079125 0
1.790000 -0.080159 0
1.795000 -0.080776 0
1.800000 -0.081058 0
1.805000 -0.081071 0
1.810000 -0.080774 0
1.815000 -0.079898 0
1.820000 -0.079027 0
1.825000 -0.078161 0
1.830000 -0.077298 0
1.835000 -0.076440 0
1.840000 -0.075586 0
1.845000 -0.074737 0
1.850000 -0.073892 0
1.855000 -0.073050 0
1.860000 -0.072213 0
1.865000 -0.071381 0
1.870000 -0.070552 0
1.875000 -0.069726 0
1.880000 -0.068904 0
1.885000 -0.068084 0
1.890000 -0.067264 0
1.895000 -0.066441 0
1.900000 -0.065611 0
1.905000 -0.064765 0
1.910000 -0.063888 0
1.915000 -0.062958 0
1.920000 -0.061941 0
1.925000 -0.060785 0
1.930000 -0.059415 0
1.935000 -0.057726 0
1.940000 -0.055575 0
1.945000 -0.052773 0
1.950000 -0.049082 0
1.955000 -0.044214 0
1.960000 -0.037837 0
1.965000 -0.029586 0
1.970000 -0.019094 0
1.975000 -0.006023 0
1.980000 0.009887 0
1.985000 0.028769 0
1.990000 0.050570 0
1.995000 0.075006 0
2.000000 0.101530 0
2.005000 0.129322 0
2.010000 0.157310 0
2.015000 0.184229 0
2.020000 0.208706 0
2.025000 0.229373 0
2.030000 0.244991 0
2.035000 0.254574 0
2.040000 0.257492 1
2.045000 0.253537 0
2.050000 0.242947 0
2.055000 0.226383 0
2.060000 0.204860 0
2.065000 0.179645 0
2.070000 0.152128 0
2.075000 0.123701 0
2.080000 0.095621 0
2.085000 0.068881 0
2.090000 0.044028 0
2.095000 0.020862 0
2.100000 -0.001966 0
2.105000 -0.027247 0
2.110000 -0.058784 0
2.115000 -0.099500 0
2.120000 -0.148120 0
2.125000 -0.195981 0
2.130000 -0.226408 2
2.135000 -0.217663 0
2.140000 -0.147886 0
2.145000 -0.000290 0
2.150000 0.229911 0
2.155000 0.524670 0
2.160000 0.833354 0
2.165000 1.077684 0
2.170000 1.179942 3
2.175000 1.101480 0
2.180000 0.864819 0
2.185000 0.542127 0
2.190000 0.216321 0
2.195000 -0.051208 0
2.200000 -0.230589 0
2.205000 -0.317549 0
2.210000 -0.325207 4
2.215000 -0.278160 0
2.220000 -0.205650 0
2.225000 -0.132802 0
2.230000 -0.074073 0
2.235000 -0.032620 0
2.240000 -0.004534 0
2.245000 0.016035 0
2.250000 0.033769 0
2.255000 0.051416 0
2.260000 0.070244 0
2.265000 0.090704 0
2.270000 0.112869 0
2.275000 0.136640 0
2.280000 0.161824 0
2.285000 0.188147 0
2.290000 0.215270 0
2.295000 0.242788 0
2.300000 0.270240 0
2.305000 0.297120 0
2.310000 0.322891 0
2.315000 0.347001 0
2.320000 0.368905 0
2.325000 0.388079 0
2.330000 0.404048 0
2.335000 0.416396 0
2.340000 0.424793 0
2.345000 0.429001 5
2.350000 0.428890 0
2.355000 0.424440 0
2.360000 0.415745 0
2.365000 0.403010 0
2.370000 0.386538 0
2.375000 0.366723 0
2.380000 0.344030 0
2.385000 0.318978 0
2.390000 0.292120 0
2.395000 0.264023 0
2.400000 0.235246 0
2.405000 0.206326 0
2.410000 0.177756 0
2.415000 0.149979 0
2.420000 0.123373 0
2.425000 0.098249 0
2.430000 0.074845 0
2.435000 0.053330 0
2.440000 0.033805 0
2.445000 0.016309 0
2.450000 0.000830 0
2.455000 -0.012694 0
2.460000 -0.024358 0
2.465000 -0.034287 0
2.470000 -0.042623 0
2.475000 -0.049520 0
2.480000 -0.055137 0
2.485000 -0.059631 0
2.490000 -0.063154 0
2.495000 -0.065846 0
2.500000 -0.067838 0
2.505000 -0.069247 0
2.510000 -0.070176 0
2.515000 -0.070715 0
2.520000 -0.070941 0
2.525000 -0.070918 0
2.530000 -0.070613 0
2.535000 -0.069788 0
2.540000 -0.068968 0
2.545000 -0.068151 0
2.550000 -0.067339 0
2.555000 -0.066530 0
2.560000 -0.065726 0
2.565000 -0.064926 0
2.570000 -0.064129 0
2.575000 -0.063337 0
2.580000 -0.062548 0
2.585000 -0.061763 0
2.590000 -0.060982 0
2.595000 -0.060204 0
2.600000 -0.059428 0
2.605000 -0.058654 0
2.610000 -0.057878 0
2.615000 -0.057097 0
2.620000 -0.056303 0
2.625000 -0.055486 0
2.630000 -0.054626 0
2.635000 -0.053695 0
2.640000 -0.052647 0
2.645000 -0.051417 0
2.650000 -0.049912 0
2.655000 -0.048001 0
2.660000 -0.045512 0
2.665000 -0.042221 0
2.670000 -0.037853 0
2.675000 -0.032085 0
2.680000 -0.024555 0
2.685000 -0.014886 0
2.690000 -0.002720 0
2.695000 0.012240 0
2.700000 0.030175 0
2.705000 0.051095 0
2.710000 0.074785 0
2.715000 0.100766 0
2.720000 0.128279 0
2.725000 0.156299 0
2.730000 0.183582 0
2.735000 0.208746 0
2.740000 0.230386 0
2.745000 0.247200 0
2.750000 0.258116 0
2.755000 0.262407 1
2.760000 0.259769 0
2.765000 0.250356 0
2.770000 0.234764 0
2.775000 0.213970 0
2.780000 0.189227 0
2.785000 0.161940 0
2.790000 0.133532 0
2.795000 0.105312 0
2.800000 0.078336 0
2.805000 0.053227 0
2.810000 0.029889 0
2.815000 0.007091 0
2.820000 -0.017870 0
2.825000 -0.048821 0
2.830000 -0.088913 0
2.835000 -0.137252 0
2.840000 -0.185523 0
2.845000 -0.217124 2
2.850000 -0.210051 0
2.855000 -0.141978 0
2.860000 0.004366 0
2.865000 0.234083 0
2.870000 0.528941 0
2.875000 0.837279 0
2.880000 1.079243 0
2.885000 1.176251 3
2.890000 1.091921 0
2.895000 0.852543 0
2.900000 0.529403 0
2.905000 0.203550 0
2.910000 -0.064940 0
2.915000 -0.246516 0
2.920000 -0.336528 0
2.925000 -0.347314 4
2.930000 -0.302538 0
2.935000 -0.230773 0
2.940000 -0.157138 0
2.945000 -0.096722 0
2.950000 -0.053493 0
2.955000 -0.024085 0
2.960000 -0.002784 0
2.965000 0.015216 0
2.970000 0.032845 0
2.975000 0.051516 0
2.980000 0.071758 0
2.985000 0.093689 0
2.990000 0.117233 0
2.995000 0.142217 0
3.000000 0.168389 0
3.005000 0.195430 0
3.010000 0.222960 0
3.015000 0.250539 0
3.020000 0.277684 0
3.025000 0.303875 0
3.030000 0.328576 0
3.035000 0.351251 0
3.040000 0.371378 0
3.045000 0.388477 0
3.050000 0.402121 0
3.055000 0.411959 0
3.060000 0.417724 0
3.065000 0.419253 5
3.070000 0.416486 0
3.075000 0.409474 0
3.080000 0.398375 0
3.085000 0.383449 0
3.090000 0.365047 0
3.095000 0.343595 0
3.100000 0.319581 0
3.105000 0.293533 0
3.110000 0.266002 0
3.115000 0.237541 0
3.120000 0.208685 0
3.125000 0.179941 0
3.130000 0.151766 0
3.135000 0.124565 0
3.140000 0.098675 0
3.145000 0.074369 0
3.150000 0.051846 0
3.155000 0.031244 0
3.160000 0.012633 0
3.165000 -0.003970 0
3.170000 -0.018598 0
3.175000 -0.031326 0
3.180000 -0.042258 0
3.185000 -0.051524 0
3.190000 -0.059268 0
3.195000 -0.065644 0
3.200000 -0.070807 0
3.205000 -0.074908 0
3.210000 -0.078093 0
3.215000 -0.080497 0
3.220000 -0.082244 0
3.225000 -0.083444 0
3.230000 -0.084195 0
3.235000 -0.084581 0
3.240000 -0.084675 0
3.245000 -0.084535 0
3.250000 -0.083751 0
3.255000 -0.082860 0
3.260000 -0.081975 0
3.265000 -0.081093 0
3.270000 -0.080216 0
3.275000 -0.079344 0
3.280000 -0.078475 0
3.285000 -0.077611 0
3.290000 -0.076752 0
3.295000 -0.075896 0
3.300000 -0.075045 0
3.305000 -0.074198 0
3.310000 -0.073355 0
3.315000 -0.072515 0
3.320000 -0.071677 0
3.325000 -0.070842 0
3.330000 -0.070005 0
3.335000 -0.069163 0
3.340000 -0.068309 0
3.345000 -0.067432 0
3.350000 -0.066514 0
3.355000 -0.065525 0
3.360000 -0.064424 0
3.365000 -0.063147 0
3.370000 -0.061604 0
3.375000 -0.059670 0
3.380000 -0.057179 0
3.385000 -0.053918 0
3.390000 -0.049623 0
3.395000 -0.043982 0
3.400000 -0.036645 0
3.405000 -0.027245 0
3.410000 -0.015425 0
3.415000 -0.000884 0
3.420000 0.016578 0
3.425000 0.037003 0
3.430000 0.060224 0
3.435000 0.085828 0
3.440000 0.113130 0
3.445000 0.141182 0
3.450000 0.168809 0
3.455000 0.194687 0
3.460000 0.217436 0
3.465000 0.235743 0
3.470000 0.248486 0
3.475000 0.254849 1
3.480000 0.254406 0
3.485000 0.247166 0
3.490000 0.233579 0
3.495000 0.214485 0
3.500000 0.191029 0
3.505000 0.164547 0
3.510000 0.136440 0
3.515000 0.108044 0
3.520000 0.080505 0
3.525000 0.054630 0
3.530000 0.030659 0
3.535000 0.007916 0
3.540000 -0.015598 0
3.545000 -0.043253 0
3.550000 -0.078768 0
3.555000 -0.123605 0
3.560000 -0.173452 0
3.565000 -0.215942 0
3.570000 -0.231677 2
3.575000 -0.198331 0
3.580000 -0.095725 0
3.585000 0.088648 0
3.590000 0.351076 0
3.595000 0.660121 0
3.600000 0.951477 0
3.605000 1.142832 0
3.610000 1.169337 3
3.615000 1.018882 0
3.620000 0.738242 0
3.625000 0.405308 0
3.630000 0.094431 0
3.635000 -0.146155 0
3.640000 -0.296863 0
3.645000 -0.359412 4
3.650000 -0.350001 0
3.655000 -0.294077 0
3.660000 -0.219482 0
3.665000 -0.148442 0
3.670000 -0.092557 0
3.675000 -0.053306 0
3.680000 -0.026368 0
3.685000 -0.006165 0
3.690000 0.011598 0
3.695000 0.029404 0
3.700000 0.048400 0
3.705000 0.068995 0
3.710000 0.091255 0
3.715000 0.115086 0
3.720000 0.140304 0
3.725000 0.166652 0
3.730000 0.193810 0
3.735000 0.221396 0
3.740000 0.248975 0
3.745000 0.276069 0
3.750000 0.302168 0
3.755000 0.326746 0
3.760000 0.349279 0
3.765000 0.369260 0
3.770000 0.386221 0
3.775000 0.399748 0
3.780000 0.409500 0
3.785000 0.415219 0
3.790000 0.416747 5
3.795000 0.414025 0
3.800000 0.407104 0
3.805000 0.396136 0
3.810000 0.381373 0
3.815000 0.363154 0
3.820000 0.341894 0
3.825000 0.318067 0
3.830000 0.292187 0
3.835000 0.264792 0
3.840000 0.236424 0
3.845000 0.207610 0
3.850000 0.178848 0
3.855000 0.150593 0
3.860000 0.123249 0
3.865000 0.097156 0
3.870000 0.072590 0
3.875000 0.049760 0
3.880000 0.028809 0
3.885000 0.009820 0
3.890000 -0.007182 0
3.895000 -0.022218 0
3.900000 -0.035354 0
3.905000 -0.046686 0
3.910000 -0.056335 0
3.915000 -0.064441 0
3.920000 -0.071150 0
3.925000 -0.076615 0
3.930000 -0.080986 0
3.935000 -0.084407 0
3.940000 -0.087015 0
3.945000 -0.088933 0
3.950000 -0.090275 0
3.955000 -0.091141 0
3.960000 -0.091616 0
3.965000 -0.091777 0
3.970000 -0.091687 0
3.975000 -0.091305 0
3.980000 -0.090377 0
3.985000 -0.089454 0
3.990000 -0.088536 0
3.995000 -0.087621 0
4.000000 -0.086712 0
4.005000 -0.085807 0
4.010000 -0.084906 0
4.015000 -0.084010 0
4.020000 -0.083119 0
4.025000 -0.082232 0
4.030000 -0.081349 0
4.035000 -0.080470 0
4.040000 -0.079595 0
4.045000 -0.078723 0
4.050000 -0.077854 0
4.055000 -0.076986 0
4.060000 -0.076115 0
4.065000 -0.075237 0
4.070000 -0.074344 0
4.075000 -0.073422 0
4.080000 -0.072451 0
4.085000 -0.071396 0
4.090000 -0.070212 0
4.095000 -0.068826 0
4.100000 -0.067141 0
4.105000 -0.065022 0
4.110000 -0.062293 0
4.115000 -0.058730 0
4.120000 -0.054061 0
4.125000 -0.047969 0
4.130000 -0.040105 0
4.135000 -0.030109 0
4.140000 -0.017641 0
4.145000 -0.002426 0
4.150000 0.015701 0
4.155000 0.036743 0
4.160000 0.060489 0
4.165000 0.086483 0
4.170000 0.114009 0
4.175000 0.142095 0
4.180000 0.169566 0
4.185000 0.195108 0
4.190000 0.217374 0
4.195000 0.235097 0
4.200000 0.247210 0
4.205000 0.252951 1
4.210000 0.251940 0
4.215000 0.244228 0
4.220000 0.230282 0
4.225000 0.210946 0
4.230000 0.187354 0
4.235000 0.160818 0
4.240000 0.132709 0
4.245000 0.104331 0
4.250000 0.076806 0
4.255000 0.050923 0
4.260000 0.026930 0
4.265000 0.004192 0
4.270000 -0.019191 0
4.275000 -0.046468 0
4.280000 -0.081317 0
4.285000 -0.125442 0
4.290000 -0.175198 0
4.295000 -0.219220 0
4.300000 -0.239074 2
4.305000 -0.212985 0
4.310000 -0.120673 0
4.315000 0.051518 0
4.320000 0.302985 0
4.325000 0.607907 0
4.330000 0.908383 0
4.335000 1.124823 0
4.340000 1.187405 3
4.345000 1.071283 0
4.350000 0.810723 0
4.355000 0.481410 0
4.360000 0.162105 0
4.365000 -0.092597 0
4.370000 -0.258191 0
4.375000 -0.333462 4
4.380000 -0.333007 0
4.385000 -0.281755 0
4.390000 -0.208203 0
4.395000 -0.136063 0
4.400000 -0.078469 0
4.405000 -0.037851 0
4.410000 -0.010162 0
4.415000 0.010298 0
4.420000 0.028043 0
4.425000 0.045719 0
4.430000 0.064557 0
4.435000 0.085000 0
4.440000 0.107127 0
4.445000 0.130844 0
4.450000 0.155966 0
4.455000 0.182233 0
4.460000 0.209318 0
4.465000 0.236832 0
4.470000 0.264331 0
4.475000 0.291327 0
4.480000 0.317300 0
4.485000 0.341714 0
4.490000 0.364035 0
4.495000 0.383749 0
4.500000 0.400382 0
4.505000 0.413517 0
4.510000 0.422815 0
4.515000 0.428023 0
4.520000 0.428989 5
4.525000 0.425666 0
4.530000 0.418120 0
4.535000 0.406520 0
4.540000 0.391134 0
4.545000 0.372323 0
4.550000 0.350520 0
4.555000 0.326214 0
4.560000 0.299937 0
4.565000 0.272238 0
4.570000 0.243666 0
4.575000 0.214754 0
4.580000 0.186002 0
4.585000 0.157861 0
4.590000 0.130728 0
4.595000 0.104932 0
4.600000 0.080739 0
4.605000 0.058343 0
4.610000 0.037872 0
4.615000 0.019393 0
4.620000 0.002918 0
4.625000 -0.011590 0
4.630000 -0.024208 0
4.635000 -0.035043 0
4.640000 -0.044226 0
4.645000 -0.051901 0
4.650000 -0.058221 0
4.655000 -0.063341 0
4.660000 -0.067411 0
4.665000 -0.070577 0
4.670000 -0.072972 0
4.675000 -0.074718 0
4.680000 -0.075925 0
4.685000 -0.076689 0
4.690000 -0.077093 0
4.695000 -0.077209 0
4.700000 -0.077095 0
4.705000 -0.076346 0
4.710000 -0.075492 0
4.715000 -0.074643 0
4.720000 -0.073799 0
4.725000 -0.072958 0
4.730000 -0.072122 0
4.735000 -0.071289 0
4.740000 -0.070461 0
4.745000 -0.069637 0
4.750000 -0.068817 0
4.755000 -0.068001 0
4.760000 -0.067189 0
4.765000 -0.066381 0
4.770000 -0.065576 0
4.775000 -0.064773 0
4.780000 -0.063972 0
4.785000 -0.063169 0
4.790000 -0.062361 0
4.795000 -0.061540 0
4.800000 -0.060696 0
4.805000 -0.059810 0
4.810000 -0.058854 0
4.815000 -0.057784 0
4.820000 -0.056536 0
4.825000 -0.055022 0
4.830000 -0.053116 0
4.835000 -0.050652 0
4.840000 -0.047417 0
4.845000 -0.043148 0
4.850000 -0.037533 0
4.855000 -0.030225 0
4.860000 -0.020856 0
4.865000 -0.009073 0
4.870000 0.005427 0
4.875000 0.022841 0
4.880000 0.043214 0
4.885000 0.066381 0
4.890000 0.091931 0
4.895000 0.119186 0
4.900000 0.147202 0
4.905000 0.174815 0
4.910000 0.200703 0
4.915000 0.223492 0
4.920000 0.241872 0
4.925000 0.254721 0
4.930000 0.261215 1
4.935000 0.260919 0
4.940000 0.253834 0
4.945000 0.240394 0
4.950000 0.221426 0
4.955000 0.198063 0
4.960000 0.171633 0
4.965000 0.143530 0
4.970000 0.115092 0
4.975000 0.087471 0
4.980000 0.061487 0
4.985000 0.037410 0
4.990000 0.014615 0
4.995000 -0.008824 0
5.000000 -0.036210 0
5.005000 -0.071283 0
5.010000 -0.115700 0
5.015000 -0.165545 0
5.020000 -0.208940 0
5.025000 -0.226859 2
5.030000 -0.197083 0
5.035000 -0.099232 0
5.040000 0.079828 0
5.045000 0.337760 0
5.050000 0.645335 0
5.055000 0.940465 0
5.060000 1.141373 0
5.065000 1.180891 3
5.070000 1.041888 0
5.075000 0.766939 0
5.080000 0.434668 0
5.085000 0.121905 0
5.090000 -0.120903 0
5.095000 -0.273033 0
5.100000 -0.335963 4
5.105000 -0.326202 0
5.110000 -0.269799 0
5.115000 -0.195161 0
5.120000 -0.124718 0
5.125000 -0.069852 0
5.130000 -0.031649 0
5.135000 -0.005498 0
5.140000 0.014261 0
5.145000 0.031854 0
5.150000 0.049661 0
5.155000 0.068748 0
5.160000 0.089474 0
5.165000 0.111879 0
5.170000 0.135852 0
5.175000 0.161192 0
5.180000 0.187627 0
5.185000 0.214816 0
5.190000 0.242358 0
5.195000 0.269801 0
5.200000 0.296645 0
5.205000 0.322366 0
5.210000 0.346423 0
5.215000 0.368284 0
5.220000 0.387439 0
5.225000 0.403421 0
5.230000 0.415826 0
5.235000 0.424329 0
5.240000 0.428696 0
5.245000 0.428794 5
5.250000 0.424601 0
5.255000 0.416201 0
5.260000 0.403788 0
5.265000 0.387651 0
5.270000 0.368167 0
5.275000 0.345785 0
5.280000 0.321008 0
5.285000 0.294373 0
5.290000 0.266433 0
5.295000 0.237739 0
5.300000 0.208819 0
5.305000 0.180164 0
5.310000 0.152216 0
5.315000 0.125359 0
5.320000 0.099909 0
5.325000 0.076115 0
5.330000 0.054156 0
5.335000 0.034148 0
5.340000 0.016144 0
5.345000 0.000142 0
5.350000 -0.013905 0
5.355000 -0.026082 0
5.360000 -0.036503 0
5.365000 -0.045303 0
5.370000 -0.052630 0
5.375000 -0.058638 0
5.380000 -0.063483 0
5.385000 -0.067314 0
5.390000 -0.070274 0
5.395000 -0.072495 0
5.400000 -0.074095 0
5.405000 -0.075181 0
5.410000 -0.075847 0
5.415000 -0.076173 0
5.420000 -0.076227 0
5.425000 -0.076065 0
5.430000 -0.075313 0
5.435000 -0.074465 0
5.440000 -0.073621 0
5.445000 -0.072781 0
5.450000 -0.071945 0
5.455000 -0.071114 0
5.460000 -0.070287 0
5.465000 -0.069464 0
5.470000 -0.068645 0
5.475000 -0.067830 0
5.480000 -0.067019 0
5.485000 -0.066211 0
5.490000 -0.065408 0
5.495000 -0.064607 0
5.500000 -0.063809 0
5.505000 -0.063011 0
5.510000 -0.062210 0
5.515000 -0.061403 0
5.520000 -0.060580 0
5.525000 -0.059729 0
5.530000 -0.058828 0
5.535000 -0.057845 0
5.540000 -0.056731 0
5.545000 -0.055414 0
5.550000 -0.053794 0
5.555000 -0.051732 0
5.560000 -0.049049 0
5.565000 -0.045514 0
5.570000 -0.040846 0
5.575000 -0.034719 0
5.580000 -0.026776 0
5.585000 -0.016647 0
5.590000 -0.003990 0
5.595000 0.011468 0
5.600000 0.029882 0
5.605000 0.051230 0
5.610000 0.075267 0
5.615000 0.101490 0
5.620000 0.129124 0
5.625000 0.157141 0
5.630000 0.184306 0
5.635000 0.209263 0
5.640000 0.230640 0
5.645000 0.247175 0
5.650000 0.257836 0
5.655000 0.261927 1
5.660000 0.259164 0
5.665000 0.249707 0
5.670000 0.234142 0
5.675000 0.213422 0
5.680000 0.188771 0
5.685000 0.161559 0
5.690000 0.133182 0
5.695000 0.104927 0
5.700000 0.077846 0
5.705000 0.052586 0
5.710000 0.029129 0
5.715000 0.006393 0
5.720000 -0.018109 0
5.725000 -0.048055 0
5.730000 -0.086775 0
5.735000 -0.134180 0
5.740000 -0.183375 0
5.745000 -0.219332 0
5.750000 -0.221112 2
5.755000 -0.166543 0
5.760000 -0.037315 0
5.765000 0.174807 0
5.770000 0.458052 0
5.775000 0.769742 0
5.780000 1.036604 0
5.785000 1.177641 3
5.790000 1.142261 0
5.795000 0.938420 0
5.800000 0.628934 0
5.805000 0.296876 0
5.810000 0.010197 0
5.815000 -0.193714 0
5.820000 -0.304849 0
5.825000 -0.332202 4
5.830000 -0.297555 0
5.835000 -0.229392 0
5.840000 -0.154590 0
5.845000 -0.090875 0
5.850000 -0.044391 0
5.855000 -0.012806 0
5.860000 0.009528 0
5.865000 0.027779 0
5.870000 0.045260 0
5.875000 0.063620 0
5.880000 0.083512 0
5.885000 0.105100 0
5.890000 0.128332 0
5.895000 0.153044 0
5.900000 0.178993 0
5.905000 0.205867 0
5.910000 0.233287 0
5.915000 0.260817 0
5.920000 0.287971 0
5.925000 0.314229 0
5.930000 0.339049 0
5.935000 0.361886 0
5.940000 0.382211 0
5.945000 0.399533 0
5.950000 0.413414 0
5.955000 0.423493 0
5.960000 0.429492 0
5.965000 0.431237 5
5.970000 0.428663 0
5.975000 0.421813 0
5.980000 0.410841 0
5.985000 0.396007 0
5.990000 0.377660 0
5.995000 0.356231 0
6.000000 0.332211 0
6.005000 0.306133 0
6.010000 0.278555 0
6.015000 0.250036 0
6.020000 0.221118 0
6.025000 0.192313 0
6.030000 0.164085 0
6.035000 0.136841 0
6.040000 0.110922 0
6.045000 0.086601 0
6.050000 0.064080 0
6.055000 0.043494 0
6.060000 0.024914 0
6.065000 0.008352 0
6.070000 -0.006227 0
6.075000 -0.018900 0
6.080000 -0.029775 0
6.085000 -0.038985 0
6.090000 -0.046676 0
6.095000 -0.053004 0
6.100000 -0.058125 0
6.105000 -0.062193 0
6.110000 -0.065354 0
6.115000 -0.067743 0
6.120000 -0.069484 0
6.125000 -0.070688 0
6.130000 -0.071451 0
6.135000 -0.071858 0
6.140000 -0.071978 0
6.145000 -0.071872 0
6.150000 -0.071146 0
6.155000 -0.070319 0
6.160000 -0.069495 0
6.165000 -0.068676 0
6.170000 -0.067861 0
6.175000 -0.067050 0
6.180000 -0.066243 0
6.185000 -0.065440 0
6.190000 -0.064641 0
6.195000 -0.063846 0
6.200000 -0.063055 0
6.205000 -0.062268 0
6.210000 -0.061484 0
6.215000 -0.060703 0
6.220000 -0.059924 0
6.225000 -0.059146 0
6.230000 -0.058365 0
6.235000 -0.057578 0
6.240000 -0.056777 0
6.245000 -0.055947 0
6.250000 -0.055069 0
6.255000 -0.054110 0
6.260000 -0.053022 0
6.265000 -0.051733 0
6.270000 -0.050144 0
6.275000 -0.048116 0
6.280000 -0.045467 0
6.285000 -0.041967 0
6.290000 -0.037331 0
6.295000 -0.031230 0
6.300000 -0.023303 0
6.305000 -0.013177 0
6.310000 -0.000505 0
6.315000 0.014989 0
6.320000 0.033458 0
6.325000 0.054874 0
6.330000 0.078983 0
6.335000 0.105266 0
6.340000 0.132930 0
6.345000 0.160922 0
6.350000 0.187985 0
6.355000 0.212743 0
6.360000 0.233813 0
6.365000 0.249928 0
6.370000 0.260067 0
6.375000 0.263559 1
6.380000 0.260154 0
6.385000 0.250055 0
6.390000 0.233894 0
6.395000 0.212670 0
6.400000 0.187641 0
6.405000 0.160205 0
6.410000 0.131765 0
6.415000 0.103601 0
6.420000 0.076734 0
6.425000 0.051743 0
6.430000 0.028480 0
6.435000 0.005654 0
6.440000 -0.019479 0
6.445000 -0.050729 0
6.450000 -0.091131 0
6.455000 -0.139615 0
6.460000 -0.187732 0
6.465000 -0.218903 2
6.470000 -0.211317 0
6.475000 -0.142911 0
6.480000 0.003364 0
6.485000 0.232582 0
6.490000 0.526912 0
6.495000 0.835667 0
6.500000 1.080138 0
6.505000 1.182067 3
6.510000 1.102960 0
6.515000 0.866058 0
6.520000 0.543349 0
6.525000 0.217472 0
6.530000 -0.050338 0
6.535000 -0.230213 0
6.540000 -0.317790 0
6.545000 -0.326044 4
6.550000 -0.279415 0
6.555000 -0.207042 0
6.560000 -0.134066 0
6.565000 -0.075063 0
6.570000 -0.033327 0
6.575000 -0.005039 0
6.580000 0.015632 0
6.585000 0.033394 0
6.590000 0.051023 0
6.595000 0.069811 0
6.600000 0.090222 0
6.605000 0.112336 0
6.610000 0.136058 0
6.615000 0.161197 0
6.620000 0.187485 0
6.625000 0.214584 0
6.630000 0.242093 0
6.635000 0.269555 0
6.640000 0.296467 0
6.645000 0.322296 0
6.650000 0.346491 0
6.655000 0.368509 0
6.660000 0.387826 0
6.665000 0.403965 0
6.670000 0.416510 0
6.675000 0.425125 0
6.680000 0.429570 0
6.685000 0.429707 5
6.690000 0.425511 0
6.695000 0.417069 0
6.700000 0.404577 0
6.705000 0.388334 0
6.710000 0.368725 0
6.715000 0.346209 0
6.720000 0.321303 0
6.725000 0.294553 0
6.730000 0.266526 0
6.735000 0.237780 0
6.740000 0.208851 0
6.745000 0.180236 0
6.750000 0.152379 0
6.755000 0.125663 0
6.760000 0.100403 0
6.765000 0.076843 0
6.770000 0.055157 0
6.775000 0.035451 0
6.780000 0.017771 0
6.785000 0.002106 0
6.790000 -0.011599 0
6.795000 -0.023437 0
6.800000 -0.033529 0
6.805000 -0.042017 0
6.810000 -0.049052 0
6.815000 -0.054793 0
6.820000 -0.059398 0
6.825000 -0.063016 0
6.830000 -0.065791 0
6.835000 -0.067853 0
6.840000 -0.069321 0
6.845000 -0.070299 0
6.850000 -0.070878 0
6.855000 -0.071137 0
6.860000 -0.071140 0
6.865000 -0.070851 0
6.870000 -0.070025 0
6.875000 -0.069203 0
6.880000 -0.068386 0
6.885000 -0.067572 0
6.890000 -0.066762 0
6.895000 -0.065957 0
6.900000 -0.065155 0
6.905000 -0.064358 0
6.910000 -0.063564 0
6.915000 -0.062775 0
6.920000 -0.061989 0
6.925000 -0.061206 0
6.930000 -0.060427 0
6.935000 -0.059651 0
6.940000 -0.058876 0
6.945000 -0.058100 0
6.950000 -0.057319 0
6.955000 -0.056528 0
6.960000 -0.055714 0
6.965000 -0.054862 0
6.970000 -0.053944 0
6.975000 -0.052918 0
6.980000 -0.051723 0
6.985000 -0.050270 0
6.990000 -0.048437 0
6.995000 -0.046057 0
7.000000 -0.042919 0
7.005000 -0.038756 0
7.010000 -0.033253 0
7.015000 -0.026055 0
7.020000 -0.016789 0
7.025000 -0.005089 0
7.030000 0.009353 0
7.035000 0.026744 0
7.040000 0.047128 0
7.045000 0.070335 0
7.050000 0.095938 0
7.055000 0.123233 0
7.060000 0.151246 0
7.065000 0.178773 0
7.070000 0.204455 0
7.075000 0.226887 0
7.080000 0.244741 0
7.085000 0.256894 0
7.090000 0.262546 1
7.095000 0.261306 0
7.100000 0.253235 0
7.105000 0.238841 0
7.110000 0.219026 0
7.115000 0.194993 0
7.120000 0.168120 0
7.125000 0.139833 0
7.130000 0.111472 0
7.135000 0.084156 0
7.140000 0.058618 0
7.145000 0.034950 0
7.150000 0.012212 0
7.155000 -0.011958 0
7.160000 -0.041221 0
7.165000 -0.079115 0
7.170000 -0.125998 0
7.175000 -0.175475 0
7.180000 -0.212773 0
7.185000 -0.216797 2
7.190000 -0.164897 0
7.195000 -0.038158 0
7.200000 0.172235 0
7.205000 0.454813 0
7.210000 0.766462 0
7.215000 1.032598 0
7.220000 1.170844 3
7.225000 1.131832 0
7.230000 0.926750 0
7.235000 0.617427 0
7.240000 0.285164 0
7.245000 -0.003212 0
7.250000 -0.210399 0
7.255000 -0.325807 0
7.260000 -0.357507 4
7.265000 -0.326212 0
7.270000 -0.259569 0
7.275000 -0.184324 0
7.280000 -0.118845 0
7.285000 -0.070251 0
7.290000 -0.036954 0
7.295000 -0.013580 0
7.300000 0.005123 0
7.305000 0.022678 0
7.310000 0.040916 0
7.315000 0.060598 0
7.320000 0.081947 0
7.325000 0.104940 0
7.330000 0.129438 0
7.335000 0.155216 0
7.340000 0.181986 0
7.345000 0.209392 0
7.350000 0.237022 0
7.355000 0.264412 0
7.360000 0.291062 0
7.365000 0.316446 0
7.370000 0.340030 0
7.375000 0.361293 0
7.380000 0.379738 0
7.385000 0.394920 0
7.390000 0.406456 0
7.395000 0.414047 0
7.400000 0.417483 5
7.405000 0.416660 0
7.410000 0.411580 0
7.415000 0.402349 0
7.420000 0.389182 0
7.425000 0.372383 0
7.430000 0.352341 0
7.435000 0.329513 0
7.440000 0.304403 0
7.445000 0.277548 0
7.450000 0.249495 0
7.455000 0.220785 0
7.460000 0.191937 0
7.465000 0.163427 0
7.470000 0.135686 0
7.475000 0.109081 0
7.480000 0.083916 0
7.485000 0.060427 0
7.490000 0.038783 0
7.495000 0.019088 0
7.500000 0.001389 0
7.505000 -0.014323 0
7.510000 -0.028097 0
7.515000 -0.040024 0
7.520000 -0.050216 0
7.525000 -0.058811 0
7.530000 -0.065955 0
7.535000 -0.071800 0
7.540000 -0.076500 0
7.545000 -0.080204 0
7.550000 -0.083050 0
7.555000 -0.085168 0
7.560000 -0.086677 0
7.565000 -0.087679 0
7.570000 -0.088268 0
7.575000 -0.088521 0
7.580000 -0.088506 0
7.585000 -0.088278 0
7.590000 -0.087465 0
7.595000 -0.086556 0
7.600000 -0.085652 0
7.605000 -0.084752 0
7.610000 -0.083857 0
7.615000 -0.082966 0
7.620000 -0.082080 0
7.625000 -0.081198 0
7.630000 -0.080320 0
7.635000 -0.079447 0
7.640000 -0.078578 0
7.645000 -0.077713 0
7.650000 -0.076852 0
7.655000 -0.075994 0
7.660000 -0.075139 0
7.665000 -0.074285 0
7.670000 -0.073429 0
7.675000 -0.072567 0
7.680000 -0.071691 0
7.685000 -0.070788 0
7.690000 -0.069838 0
7.695000 -0.068811 0
7.700000 -0.067659 0
7.705000 -0.066316 0
7.710000 -0.064684 0
7.715000 -0.062633 0
7.720000 -0.059990 0
7.725000 -0.056533 0
7.730000 -0.051991 0
7.735000 -0.046048 0
7.740000 -0.038354 0
7.745000 -0.028544 0
7.750000 -0.016272 0
7.755000 -0.001252 0
7.760000 0.016689 0
7.765000 0.037567 0
7.770000 0.061180 0
7.775000 0.087082 0
7.780000 0.114557 0
7.785000 0.142635 0
7.790000 0.170132 0
7.795000 0.195722 0
7.800000 0.218045 0
7.805000 0.235815 0
7.810000 0.247952 0
7.815000 0.253684 1
7.820000 0.252628 0
7.825000 0.244835 0
7.830000 0.230785 0
7.835000 0.211335 0
7.840000 0.187638 0
7.845000 0.161022 0
7.850000 0.132872 0
7.855000 0.104504 0
7.860000 0.077038 0
7.865000 0.051252 0
7.870000 0.027355 0
7.875000 0.004638 0
7.880000 -0.018915 0
7.885000 -0.046665 0
7.890000 -0.082281 0
7.895000 -0.127164 0
7.900000 -0.176999 0
7.905000 -0.219544 0
7.910000 -0.235628 2
7.915000 -0.203172 0
7.920000 -0.102141 0
7.925000 0.080064 0
7.930000 0.340352 0
7.935000 0.648655 0
7.940000 0.942453 0
7.945000 1.140436 0
7.950000 1.176676 3
7.955000 1.035497 0
7.960000 0.760033 0
7.965000 0.427800 0
7.970000 0.114491 0
7.975000 -0.129913 0
7.980000 -0.284535 0
7.985000 -0.350353 4
7.990000 -0.343187 0
7.995000 -0.288398 0
8.000000 -0.214039 0
8.005000 -0.142738 0
8.010000 -0.086471 0
8.015000 -0.046935 0
8.020000 -0.019857 0
8.025000 0.000379 0
8.030000 0.018120 0
8.035000 0.035886 0
8.040000 0.054840 0
8.045000 0.075397 0
8.050000 0.097624 0
8.055000 0.121428 0
8.060000 0.146622 0
8.065000 0.172948 0
8.070000 0.200083 0
8.075000 0.227643 0
8.080000 0.255189 0
8.085000 0.282239 0
8.090000 0.308280 0
8.095000 0.332784 0
8.100000 0.355222 0
8.105000 0.375085 0
8.110000 0.391905 0
8.115000 0.405267 0
8.120000 0.414830 0
8.125000 0.420341 0
8.130000 0.421642 5
8.135000 0.418682 0
8.140000 0.411514 0
8.145000 0.400300 0
8.150000 0.385296 0
8.155000 0.366850 0
8.160000 0.345382 0
8.165000 0.321372 0
8.170000 0.295341 0
8.175000 0.267830 0
8.180000 0.239383 0
8.185000 0.210528 0
8.190000 0.181766 0
8.195000 0.153548 0
8.200000 0.126276 0
8.205000 0.100286 0
8.210000 0.075850 0
8.215000 0.053171 0
8.220000 0.032389 0
8.225000 0.013578 0
8.230000 -0.003239 0
8.235000 -0.018090 0
8.240000 -0.031045 0
8.245000 -0.042203 0
8.250000 -0.051689 0
8.255000 -0.059644 0
8.260000 -0.066218 0
8.265000 -0.071563 0
8.270000 -0.075830 0
8.275000 -0.079162 0
8.280000 -0.081696 0
8.285000 -0.083556 0
8.290000 -0.084852 0
8.295000 -0.085683 0
8.300000 -0.086135 0
8.305000 -0.086281 0
8.310000 -0.086185 0
8.315000 -0.085807 0
8.320000 -0.084906 0
8.325000 -0.084010 0
8.330000 -0.083119 0
8.335000 -0.082232 0
8.340000 -0.081349 0
8.345000 -0.080471 0
8.350000 -0.079597 0
8.355000 -0.078728 0
8.360000 -0.077862 0
8.365000 -0.077001 0
8.370000 -0.076144 0
8.375000 -0.075292 0
8.380000 -0.074442 0
8.385000 -0.073596 0
8.390000 -0.072752 0
8.395000 -0.071908 0
8.400000 -0.071061 0
8.405000 -0.070205 0
8.410000 -0.069331 0
8.415000 -0.068424 0
8.420000 -0.067461 0
8.425000 -0.066407 0
8.430000 -0.065207 0
8.435000 -0.063786 0
8.440000 -0.062037 0
8.445000 -0.059815 0
8.450000 -0.056932 0
8.455000 -0.053151 0
8.460000 -0.048187 0
8.465000 -0.041712 0
8.470000 -0.033369 0
8.475000 -0.022797 0
8.480000 -0.009669 0
8.485000 0.006271 0
8.490000 0.025151 0
8.495000 0.046920 0
8.500000 0.071306 0
8.505000 0.097779 0
8.510000 0.125545 0
8.515000 0.153567 0
8.520000 0.180614 0
8.525000 0.205344 0
8.530000 0.226414 0
8.535000 0.242593 0
8.540000 0.252887 0
8.545000 0.256636 1
8.550000 0.253583 0
8.555000 0.243907 0
8.560000 0.228198 0
8.565000 0.207406 0
8.570000 0.182737 0
8.575000 0.155544 0
8.580000 0.127198 0
8.585000 0.098966 0
8.590000 0.071887 0
8.595000 0.046608 0
8.600000 0.023133 0
8.605000 0.000443 0
8.610000 -0.023848 0
8.615000 -0.053323 0
8.620000 -0.091356 0
8.625000 -0.138208 0
8.630000 -0.187691 0
8.635000 -0.225650 0
8.640000 -0.231840 2
8.645000 -0.184332 0
8.650000 -0.064444 0
8.655000 0.137517 0
8.660000 0.413089 0
8.665000 0.724692 0
8.670000 1.003626 0
8.675000 1.169000 3
8.680000 1.164141 0
8.685000 0.986785 0
8.690000 0.690518 0
8.695000 0.356663 0
8.700000 0.057039 0
8.705000 -0.165355 0
8.710000 -0.295830 0
8.715000 -0.339904 4
8.720000 -0.316778 0
8.725000 -0.253727 0
8.730000 -0.178424 0
8.735000 -0.110963 0
8.740000 -0.060088 0
8.745000 -0.025122 0
8.750000 -0.000878 0
8.755000 0.018095 0
8.760000 0.035588 0
8.765000 0.053622 0
8.770000 0.073057 0
8.775000 0.094158 0
8.780000 0.116921 0
8.785000 0.141213 0
8.790000 0.166817 0
8.795000 0.193446 0
8.800000 0.220747 0
8.805000 0.248308 0
8.810000 0.275666 0
8.815000 0.302315 0
8.820000 0.327729 0
8.825000 0.351367 0
8.830000 0.372702 0
8.835000 0.391231 0
8.840000 0.406501 0
8.845000 0.418123 0
8.850000 0.425791 0
8.855000 0.429292 5
8.860000 0.428515 0
8.865000 0.423459 0
8.870000 0.414232 0
8.875000 0.401046 0
8.880000 0.384208 0
8.885000 0.364111 0
8.890000 0.341215 0
8.895000 0.316029 0
8.900000 0.289096 0
8.905000 0.260967 0
8.910000 0.232189 0
8.915000 0.203282 0
8.920000 0.174730 0
8.925000 0.146962 0
8.930000 0.120349 0
8.935000 0.095194 0
8.940000 0.071732 0
8.945000 0.050131 0
8.950000 0.030492 0
8.955000 0.012858 0
8.960000 -0.002781 0
8.965000 -0.016479 0
8.970000 -0.028328 0
8.975000 -0.038445 0
8.980000 -0.046970 0
8.985000 -0.054050 0
8.990000 -0.059840 0
8.995000 -0.064494 0
9.000000 -0.068162 0
9.005000 -0.070983 0
9.010000 -0.073087 0
9.015000 -0.074590 0
9.020000 -0.075597 0
9.025000 -0.076199 0
9.030000 -0.076473 0
9.035000 -0.076485 0
9.040000 -0.076196 0
9.045000 -0.075343 0
9.050000 -0.074495 0
9.055000 -0.073651 0
9.060000 -0.072811 0
9.065000 -0.071975 0
9.070000 -0.071144 0
9.075000 -0.070316 0
9.080000 -0.069493 0
9.085000 -0.068674 0
9.090000 -0.067859 0
9.095000 -0.067048 0
9.100000 -0.066240 0
9.105000 -0.065436 0
9.110000 -0.064635 0
9.115000 -0.063836 0
9.120000 -0.063037 0
9.125000 -0.062236 0
9.130000 -0.061426 0
9.135000 -0.060599 0
9.140000 -0.059742 0
9.145000 -0.058831 0
9.150000 -0.057831 0
9.155000 -0.056692 0
9.160000 -0.055338 0
9.165000 -0.053665 0
9.170000 -0.051528 0
9.175000 -0.048741 0
9.180000 -0.045066 0
9.185000 -0.040218 0
9.190000 -0.033865 0
9.195000 -0.025648 0
9.200000 -0.015199 0
9.205000 -0.002184 0
9.210000 0.013659 0
9.215000 0.032463 0
9.220000 0.054179 0
9.225000 0.078531 0
9.230000 0.104983 0
9.235000 0.132727 0
9.240000 0.160708 0
9.245000 0.187673 0
9.250000 0.212260 0
9.255000 0.233107 0
9.260000 0.248977 0
9.265000 0.258873 0
9.270000 0.262150 1
9.275000 0.258576 0
9.280000 0.248362 0
9.285000 0.232140 0
9.290000 0.210899 0
9.295000 0.185883 0
9.300000 0.158470 0
9.305000 0.130045 0
9.310000 0.101873 0
9.315000 0.074971 0
9.320000 0.049925 0
9.325000 0.026621 0
9.330000 0.003841 0
9.335000 -0.021052 0
9.340000 -0.051793 0
9.345000 -0.091514 0
9.350000 -0.139561 0
9.355000 -0.188222 0
9.360000 -0.221735 2
9.365000 -0.218847 0
9.370000 -0.157587 0
9.375000 -0.020357 0
9.380000 0.199611 0
9.385000 0.487994 0
9.390000 0.798946 0
9.395000 1.057251 0
9.400000 1.183253 3
9.405000 1.131066 0
9.410000 0.914751 0
9.415000 0.600107 0
9.420000 0.269573 0
9.425000 -0.011571 0
9.430000 -0.208588 0
9.435000 -0.313236 0
9.440000 -0.335539 4
9.445000 -0.297806 0
9.450000 -0.228499 0
9.455000 -0.153946 0
9.460000 -0.091092 0
9.465000 -0.045461 0
9.470000 -0.014440 0
9.475000 0.007628 0
9.480000 0.025808 0
9.485000 0.043313 0
9.490000 0.061732 0
9.495000 0.081687 0
9.500000 0.103333 0
9.505000 0.126614 0
9.510000 0.151366 0
9.515000 0.177345 0
9.520000 0.204239 0
9.525000 0.231672 0
9.530000 0.259210 0
9.535000 0.286371 0
9.540000 0.312637 0
9.545000 0.337469 0
9.550000 0.360328 0
9.555000 0.380687 0
9.560000 0.398059 0
9.565000 0.412007 0
9.570000 0.422171 0
9.575000 0.428274 0
9.580000 0.430140 5
9.585000 0.427702 0
9.590000 0.420999 0
9.595000 0.410182 0
9.600000 0.395504 0
9.605000 0.377308 0
9.610000 0.356020 0
9.615000 0.332125 0
9.620000 0.306152 0
9.625000 0.278652 0
9.630000 0.250182 0
9.635000 0.221282 0
9.640000 0.192463 0
9.645000 0.164189 0
9.650000 0.136869 0
9.655000 0.110847 0
9.660000 0.086398 0
9.665000 0.063730 0
9.670000 0.042982 0
9.675000 0.024228 0
9.680000 0.007488 0
9.685000 -0.007271 0
9.690000 -0.020120 0
9.695000 -0.031166 0
9.700000 -0.040536 0
9.705000 -0.048377 0
9.710000 -0.054841 0
9.715000 -0.060084 0
9.720000 -0.064260 0
9.725000 -0.067514 0
9.730000 -0.069983 0
9.735000 -0.071790 0
9.740000 -0.073048 0
9.745000 -0.073855 0
9.750000 -0.074295 0
9.755000 -0.074440 0
9.760000 -0.074353 0
9.765000 -0.073618 0
9.770000 -0.072779 0
9.775000 -0.071943 0
9.780000 -0.071112 0
9.785000 -0.070285 0
9.790000 -0.069462 0
9.795000 -0.068643 0
9.800000 -0.067828 0
9.805000 -0.067017 0
9.810000 -0.066210 0
9.815000 -0.065407 0
9.820000 -0.064608 0
9.825000 -0.063812 0
9.830000 -0.063020 0
9.835000 -0.062230 0
9.840000 -0.061441 0
9.845000 -0.060651 0
9.850000 -0.059855 0
9.855000 -0.059047 0
9.860000 -0.058214 0
9.865000 -0.057339 0
9.870000 -0.056391 0
9.875000 -0.055327 0
9.880000 -0.054083 0
9.885000 -0.052564 0
9.890000 -0.050645 0
9.895000 -0.048155 0
9.900000 -0.044877 0
9.905000 -0.040541 0
9.910000 -0.034831 0
9.915000 -0.027394 0
9.920000 -0.017859 0
9.925000 -0.005872 0
9.930000 0.008864 0
9.935000 0.026539 0
9.940000 0.047180 0
9.945000 0.070598 0
9.950000 0.096353 0
9.955000 0.123732 0
9.960000 0.151757 0
9.965000 0.179232 0
9.970000 0.204812 0
9.975000 0.227112 0
9.980000 0.244829 0
9.985000 0.256862 0
9.990000 0.262431 1
9.995000 0.261156 0
10.000000 0.253098 0
10.005000 0.238758 0
10.010000 0.219024 0
10.015000 0.195075 0
10.020000 0.168270 0
10.025000 0.140015 0
10.030000 0.111636 0
10.035000 0.084249 0
10.040000 0.058602 0
10.045000 0.034835 0
10.050000 0.012100 0
10.055000 -0.011819 0
10.060000 -0.040460 0
10.065000 -0.077427 0
10.070000 -0.123536 0
10.075000 -0.173295 0
10.080000 -0.213013 0
10.085000 -0.222401 2
10.090000 -0.179032 0
10.095000 -0.063466 0
10.100000 0.134874 0
10.105000 0.408371 0
10.110000 0.719748 0
10.115000 0.999486 0
10.120000 1.165026 3
10.125000 1.158512 0
10.130000 0.977928 0
10.135000 0.679302 0
10.140000 0.345649 0
10.145000 0.049162 0
10.150000 -0.167910 0
10.155000 -0.292045 0
10.160000 -0.330002 4
10.165000 -0.302220 0
10.170000 -0.236869 0
10.175000 -0.161696 0
10.180000 -0.096004 0
10.185000 -0.047380 0
10.190000 -0.014265 0
10.195000 0.008863 0
10.200000 0.027374 0
10.205000 0.044826 0
10.210000 0.063037 0
10.215000 0.082743 0
10.220000 0.104145 0
10.225000 0.127208 0
10.230000 0.151777 0
10.235000 0.177614 0
10.240000 0.204410 0
10.245000 0.231793 0
10.250000 0.259327 0
10.255000 0.286529 0
10.260000 0.312877 0
10.265000 0.337828 0
10.270000 0.360832 0
10.275000 0.381357 0
10.280000 0.398905 0
10.285000 0.413031 0
10.290000 0.423365 0
10.295000 0.429624 0
10.300000 0.431624 5
10.305000 0.429293 0
10.310000 0.422669 0
10.315000 0.411901 0
10.320000 0.397244 0
10.325000 0.379046 0
10.330000 0.357736 0
10.335000 0.333806 0
10.340000 0.307791 0
10.345000 0.280251 0
10.350000 0.251749 0
10.355000 0.222831 0
10.360000 0.194012 0
10.365000 0.165761 0
10.370000 0.138488 0
10.375000 0.112539 0
10.380000 0.088187 0
10.385000 0.065639 0
10.390000 0.045029 0
10.395000 0.026429 0
10.400000 0.009854 0
10.405000 -0.004732 0
10.410000 -0.017408 0
10.415000 -0.028281 0
10.420000 -0.037485 0
10.425000 -0.045168 0
10.430000 -0.051486 0
10.435000 -0.056596 0
10.440000 -0.060652 0
10.445000 -0.063802 0
10.450000 -0.066182 0
10.455000 -0.067915 0
10.460000 -0.069111 0
10.465000 -0.069869 0
10.470000 -0.070272 0
10.475000 -0.070390 0
10.480000 -0.070284 0
10.485000 -0.069564 0
10.490000 -0.068745 0
10.495000 -0.067929 0
10.500000 -0.067118 0
10.505000 -0.066311 0
10.510000 -0.065508 0
10.515000 -0.064708 0
10.520000 -0.063913 0
10.525000 -0.063122 0
10.530000 -0.062334 0
10.535000 -0.061551 0
10.540000 -0.060771 0
10.545000 -0.059994 0
10.550000 -0.059220 0
10.555000 -0.058449 0
10.560000 -0.057678 0
10.565000 -0.056904 0
10.570000 -0.056123 0
10.575000 -0.055326 0
10.580000 -0.054499 0
10.585000 -0.053621 0
10.590000 -0.052658 0
10.595000 -0.051559 0
10.600000 -0.050249 0
10.605000 -0.048624 0
10.610000 -0.046541 0
10.615000 -0.043811 0
10.620000 -0.040194 0
10.625000 -0.035400 0
10.630000 -0.029093 0
10.635000 -0.020906 0
10.640000 -0.010465 0
10.645000 0.002571 0
10.650000 0.018468 0
10.655000 0.037355 0
10.660000 0.059177 0
10.665000 0.083642 0
10.670000 0.110186 0
10.675000 0.137970 0
10.680000 0.165901 0
10.685000 0.192688 0
10.690000 0.216939 0
10.695000 0.237273 0
10.700000 0.252448 0
10.705000 0.261491 0
10.710000 0.263793 1
10.715000 0.259182 0
10.720000 0.247940 0
10.725000 0.230775 0
10.730000 0.208746 0
10.735000 0.183156 0
10.740000 0.155421 0
10.745000 0.126938 0
10.750000 0.098954 0
10.755000 0.072427 0
10.760000 0.047823 0
10.765000 0.024794 0
10.770000 0.001758 0
10.775000 -0.024337 0
10.780000 -0.057368 0
10.785000 -0.099821 0
10.790000 -0.149246 0
10.795000 -0.195296 0
10.800000 -0.219772 2
10.805000 -0.200226 0
10.810000 -0.115142 0
10.815000 0.050606 0
10.820000 0.297862 0
10.825000 0.601518 0
10.830000 0.902581 0
10.835000 1.118590 0
10.840000 1.177184 3
10.845000 1.055074 0
10.850000 0.790206 0
10.855000 0.459825 0
10.860000 0.142763 0
10.865000 -0.107393 0
10.870000 -0.267407 0
10.875000 -0.337182 4
10.880000 -0.332290 0
10.885000 -0.278401 0
10.890000 -0.204207 0
10.895000 -0.132948 0
10.900000 -0.076892 0
10.905000 -0.037708 0
10.910000 -0.010969 0
10.915000 0.009048 0
10.920000 0.026705 0
10.925000 0.044488 0
10.930000 0.063521 0
10.935000 0.084191 0
10.940000 0.106547 0
10.945000 0.130483 0
10.950000 0.155800 0
10.955000 0.182225 0
10.960000 0.209419 0
10.965000 0.236981 0
10.970000 0.264454 0
10.975000 0.291341 0
10.980000 0.317112 0
10.985000 0.341224 0
10.990000 0.363140 0
10.995000 0.382348 0
11.000000 0.398378 0
11.005000 0.410822 0
11.010000 0.419353 0
11.015000 0.423735 0
11.020000 0.423836 5
11.025000 0.419632 0
11.030000 0.411210 0
11.035000 0.398766 0
11.040000 0.382591 0
11.045000 0.363068 0
11.050000 0.340647 0
11.055000 0.315836 0
11.060000 0.289177 0
11.065000 0.261227 0
11.070000 0.232537 0
11.075000 0.203639 0
11.080000 0.175024 0
11.085000 0.147137 0
11.090000 0.120358 0
11.095000 0.095005 0
11.100000 0.071323 0
11.105000 0.049489 0
11.110000 0.029617 0
11.115000 0.011754 0
11.120000 -0.004102 0
11.125000 -0.018002 0
11.130000 -0.030033 0
11.135000 -0.040313 0
11.140000 -0.048978 0
11.145000 -0.056178 0
11.150000 -0.062069 0
11.155000 -0.066806 0
11.160000 -0.070539 0
11.165000 -0.073410 0
11.170000 -0.075552 0
11.175000 -0.077083 0
11.180000 -0.078109 0
11.185000 -0.078721 0
11.190000 -0.079000 0
11.195000 -0.079014 0
11.200000 -0.078720 0
11.205000 -0.077855 0
11.210000 -0.076994 0
11.215000 -0.076137 0
11.220000 -0.075285 0
11.225000 -0.074437 0
11.230000 -0.073593 0
11.235000 -0.072754 0
11.240000 -0.071918 0
11.245000 -0.071087 0
11.250000 -0.070260 0
11.255000 -0.069437 0
11.260000 -0.068617 0
11.265000 -0.067801 0
11.270000 -0.066989 0
11.275000 -0.066178 0
11.280000 -0.065367 0
11.285000 -0.064554 0
11.290000 -0.063732 0
11.295000 -0.062894 0
11.300000 -0.062023 0
11.305000 -0.061098 0
11.310000 -0.060084 0
11.315000 -0.058926 0
11.320000 -0.057549 0
11.325000 -0.055846 0
11.330000 -0.053669 0
11.335000 -0.050827 0
11.340000 -0.047080 0
11.345000 -0.042134 0
11.350000 -0.035655 0
11.355000 -0.027277 0
11.360000 -0.016633 0
11.365000 -0.003388 0
11.370000 0.012713 0
11.375000 0.031790 0
11.380000 0.053777 0
11.385000 0.078372 0
11.390000 0.105007 0
11.395000 0.132843 0
11.400000 0.160791 0
11.405000 0.187573 0
11.410000 0.211809 0
11.415000 0.232134 0
11.420000 0.247325 0
11.425000 0.256415 0
11.430000 0.258805 1
11.435000 0.254319 0
11.440000 0.243230 0
11.445000 0.226230 0
11.450000 0.204361 0
11.455000 0.178903 0
11.460000 0.151256 0
11.465000 0.122805 0
11.470000 0.094795 0
11.475000 0.068191 0
11.480000 0.043492 0
11.485000 0.020417 0
11.490000 -0.002497 0
11.495000 -0.028166 0
11.500000 -0.060420 0
11.505000 -0.101969 0
11.510000 -0.150998 0
11.515000 -0.198102 0
11.520000 -0.225970 2
11.525000 -0.212614 0
11.530000 -0.136380 0
11.535000 0.018790 0
11.540000 0.256107 0
11.545000 0.554798 0
11.550000 0.861049 0
11.555000 1.094998 0
11.560000 1.180933 3
11.565000 1.087232 0
11.570000 0.842203 0
11.575000 0.517469 0
11.580000 0.192626 0
11.585000 -0.074005 0
11.590000 -0.253998 0
11.595000 -0.343128 0
11.600000 -0.353700 4
11.605000 -0.309072 0
11.610000 -0.237421 0
11.615000 -0.163607 0
11.620000 -0.102724 0
11.625000 -0.058928 0
11.630000 -0.029051 0
11.635000 -0.007469 0
11.640000 0.010635 0
11.645000 0.028251 0
11.650000 0.046841 0
11.655000 0.066972 0
11.660000 0.088777 0
11.665000 0.112194 0
11.670000 0.137060 0
11.675000 0.163133 0
11.680000 0.190106 0
11.685000 0.217610 0
11.690000 0.245218 0
11.695000 0.272459 0
11.700000 0.298825 0
11.705000 0.323789 0
11.710000 0.346819 0
11.715000 0.367400 0
11.720000 0.385050 0
11.725000 0.399339 0
11.730000 0.409904 0
11.735000 0.416469 0
11.740000 0.418850 5
11.745000 0.416970 0
11.750000 0.410856 0
11.755000 0.400642 0
11.760000 0.386562 0
11.765000 0.368944 0
11.770000 0.348192 0
11.775000 0.324773 0
11.780000 0.299200 0
11.785000 0.272013 0
11.790000 0.243757 0
11.795000 0.214967 0
11.800000 0.186151 0
11.805000 0.157776 0
11.810000 0.130256 0
11.815000 0.103945 0
11.820000 0.079129 0
11.825000 0.056030 0
11.830000 0.034801 0
11.835000 0.015534 0
11.840000 -0.001740 0
11.845000 -0.017036 0
11.850000 -0.030414 0
11.855000 -0.041969 0
11.860000 -0.051820 0
11.865000 -0.060104 0
11.870000 -0.066972 0
11.875000 -0.072574 0
11.880000 -0.077064 0
11.885000 -0.080587 0
11.890000 -0.083280 0
11.895000 -0.085272 0
11.900000 -0.086675 0
11.905000 -0.087592 0
11.910000 -0.088112 0
11.915000 -0.088311 0
11.920000 -0.088253 0
11.925000 -0.087898 0
11.930000 -0.086987 0
11.935000 -0.086081 0
11.940000 -0.085179 0
11.945000 -0.084282 0
11.950000 -0.083389 0
11.955000 -0.082500 0
11.960000 -0.081616 0
11.965000 -0.080737 0
11.970000 -0.079862 0
11.975000 -0.078991 0
11.980000 -0.078124 0
11.985000 -0.077261 0
11.990000 -0.076402 0
11.995000 -0.075547 0
12.000000 -0.074693 0
12.005000 -0.073841 0
12.010000 -0.072986 0
12.015000 -0.072123 0
12.020000 -0.071246 0
12.025000 -0.070339 0
12.030000 -0.069381 0
12.035000 -0.068340 0
12.040000 -0.067167 0
12.045000 -0.065789 0
12.050000 -0.064108 0
12.055000 -0.061986 0
12.060000 -0.059244 0
12.065000 -0.055655 0
12.070000 -0.050942 0
12.075000 -0.044784 0
12.080000 -0.036828 0
12.085000 -0.026712 0
12.090000 -0.014097 0
12.095000 0.001291 0
12.100000 0.019609 0
12.105000 0.040844 0
12.110000 0.064770 0
12.115000 0.090905 0
12.120000 0.118507 0
12.125000 0.146579 0
12.130000 0.173919 0
12.135000 0.199196 0
12.140000 0.221057 0
12.145000 0.238239 0
12.150000 0.249693 0
12.155000 0.254690 1
12.160000 0.252895 0
12.165000 0.244406 0
12.170000 0.229743 0
12.175000 0.209797 0
12.180000 0.185739 0
12.185000 0.158906 0
12.190000 0.130676 0
12.195000 0.102347 0
12.200000 0.075011 0
12.205000 0.049399 0
12.210000 0.025654 0
12.215000 0.002965 0
12.220000 -0.020807 0
12.225000 -0.049100 0
12.230000 -0.085500 0
12.235000 -0.131057 0
12.240000 -0.180870 0
12.245000 -0.222088 0
12.250000 -0.235203 2
12.255000 -0.198188 0
12.260000 -0.091432 0
12.265000 0.096803 0
12.270000 0.361869 0
12.275000 0.671533 0
12.280000 0.961465 0
12.285000 1.150418 0
12.290000 1.175056 3
12.295000 1.023500 0
12.300000 0.741857 0
12.305000 0.408740 0
12.310000 0.098790 0
12.315000 -0.139945 0
12.320000 -0.288288 0
12.325000 -0.348422 4
12.330000 -0.337031 0
12.335000 -0.279963 0
12.340000 -0.205196 0
12.345000 -0.134744 0
12.350000 -0.079775 0
12.355000 -0.041376 0
12.360000 -0.015022 0
12.365000 0.004878 0
12.370000 0.022537 0
12.375000 0.040352 0
12.380000 0.059410 0
12.385000 0.080087 0
12.390000 0.102432 0
12.395000 0.126344 0
12.400000 0.151628 0
12.405000 0.178022 0
12.410000 0.205195 0
12.415000 0.232758 0
12.420000 0.260267 0
12.425000 0.287236 0
12.430000 0.313149 0
12.435000 0.337476 0
12.440000 0.359688 0
12.445000 0.379279 0
12.450000 0.395782 0
12.455000 0.408790 0
12.460000 0.417968 0
12.465000 0.423070 0
12.470000 0.423950 5
12.475000 0.420565 0
12.480000 0.412980 0
12.485000 0.401366 0
12.490000 0.385989 0
12.495000 0.367205 0
12.500000 0.345444 0
12.505000 0.321190 0
12.510000 0.294968 0
12.515000 0.267322 0
12.520000 0.238795 0
12.525000 0.209915 0
12.530000 0.181177 0
12.535000 0.153032 0
12.540000 0.125872 0
12.545000 0.100028 0
12.550000 0.075766 0
12.555000 0.053281 0
12.560000 0.032706 0
12.565000 0.014110 0
12.570000 -0.002492 0
12.575000 -0.017133 0
12.580000 -0.029885 0
12.585000 -0.040852 0
12.590000 -0.050162 0
12.595000 -0.057957 0
12.600000 -0.064387 0
12.605000 -0.069606 0
12.610000 -0.073763 0
12.615000 -0.077003 0
12.620000 -0.079460 0
12.625000 -0.081255 0
12.630000 -0.082500 0
12.635000 -0.083291 0
12.640000 -0.083712 0
12.645000 -0.083836 0
12.650000 -0.083724 0
12.655000 -0.083340 0
12.660000 -0.082452 0
12.665000 -0.081568 0
12.670000 -0.080689 0
12.675000 -0.079814 0
12.680000 -0.078943 0
12.685000 -0.078077 0
12.690000 -0.077215 0
12.695000 -0.076357 0
12.700000 -0.075504 0
12.705000 -0.074655 0
12.710000 -0.073809 0
12.715000 -0.072968 0
12.720000 -0.072130 0
12.725000 -0.071296 0
12.730000 -0.070462 0
12.735000 -0.069629 0
12.740000 -0.068792 0
12.745000 -0.067944 0
12.750000 -0.067077 0
12.755000 -0.066175 0
12.760000 -0.065211 0
12.765000 -0.064149 0
12.770000 -0.062932 0
12.775000 -0.061478 0
12.780000 -0.059677 0
12.785000 -0.057377 0
12.790000 -0.054381 0
12.795000 -0.050445 0
12.800000 -0.045275 0
12.805000 -0.038538 0
12.810000 -0.029873 0
12.815000 -0.018922 0
12.820000 -0.005364 0
12.825000 0.011039 0
12.830000 0.030390 0
12.835000 0.052605 0
12.840000 0.077369 0
12.845000 0.104110 0
12.850000 0.131988 0
12.855000 0.159928 0
12.860000 0.186671 0
12.865000 0.210864 0
12.870000 0.231173 0
12.875000 0.246397 0
12.880000 0.255590 0
12.885000 0.258158 1
12.890000 0.253917 0
12.895000 0.243121 0
12.900000 0.226431 0
12.905000 0.204851 0
12.910000 0.179623 0
12.915000 0.152117 0
12.920000 0.123694 0
12.925000 0.095595 0
12.930000 0.068801 0
12.935000 0.043868 0
12.940000 0.020642 0
12.945000 -0.002129 0
12.950000 -0.027098 0
12.955000 -0.057968 0
12.960000 -0.097796 0
12.965000 -0.145864 0
12.970000 -0.194492 0
12.975000 -0.228095 2
12.980000 -0.225691 0
12.985000 -0.165555 0
12.990000 -0.030181 0
12.995000 0.187474 0
13.000000 0.474054 0
13.005000 0.785459 0
13.010000 1.048237 0
13.015000 1.183016 3
13.020000 1.141319 0
13.025000 0.933412 0
13.030000 0.622491 0
13.035000 0.290665 0
13.040000 0.004648 0
13.045000 -0.198934 0
13.050000 -0.310291 0
13.055000 -0.338274 4
13.060000 -0.304318 0
13.065000 -0.236526 0
13.070000 -0.161582 0
13.075000 -0.097305 0
13.080000 -0.050119 0
13.085000 -0.017947 0
13.090000 0.004744 0
13.095000 0.023141 0
13.100000 0.040623 0
13.105000 0.058909 0
13.110000 0.078689 0
13.115000 0.100151 0
13.120000 0.123256 0
13.125000 0.147850 0
13.130000 0.173700 0
13.135000 0.200503 0
13.140000 0.227894 0
13.145000 0.255446 0
13.150000 0.282686 0
13.155000 0.309102 0
13.160000 0.334162 0
13.165000 0.357327 0
13.170000 0.378072 0
13.175000 0.395903 0
13.180000 0.410380 0
13.185000 0.421131 0
13.190000 0.427868 0
13.195000 0.430401 5
13.200000 0.428644 0
13.205000 0.422622 0
13.210000 0.412464 0
13.215000 0.398408 0
13.220000 0.380782 0
13.225000 0.359994 0
13.230000 0.336519 0
13.235000 0.310876 0
13.240000 0.283611 0
13.245000 0.255279 0
13.250000 0.226421 0
13.255000 0.197551 0
13.260000 0.169141 0
13.265000 0.141608 0
13.270000 0.115308 0
13.275000 0.090528 0
13.280000 0.067487 0
13.285000 0.046338 0
13.290000 0.027168 0
13.295000 0.010006 0
13.300000 -0.005169 0
13.305000 -0.018421 0
13.310000 -0.029849 0
13.315000 -0.039576 0
13.320000 -0.047744 0
13.325000 -0.054504 0
13.330000 -0.060011 0
13.335000 -0.064418 0
13.340000 -0.067872 0
13.345000 -0.070512 0
13.350000 -0.072465 0
13.355000 -0.073843 0
13.360000 -0.074748 0
13.365000 -0.075267 0
13.370000 -0.075476 0
13.375000 -0.075438 0
13.380000 -0.075116 0
13.385000 -0.074269 0
13.390000 -0.073426 0
13.395000 -0.072587 0
13.400000 -0.071753 0
13.405000 -0.070922 0
13.410000 -0.070096 0
13.415000 -0.069274 0
13.420000 -0.068456 0
13.425000 -0.067642 0
13.430000 -0.066832 0
13.435000 -0.066026 0
13.440000 -0.065223 0
13.445000 -0.064424 0
13.450000 -0.063628 0
13.455000 -0.062833 0
13.460000 -0.062038 0
13.465000 -0.061239 0
13.470000 -0.060429 0
13.475000 -0.059600 0
13.480000 -0.058735 0
13.485000 -0.057809 0
13.490000 -0.056783 0
13.495000 -0.055600 0
13.500000 -0.054178 0
13.505000 -0.052402 0
13.510000 -0.050119 0
13.515000 -0.047127 0
13.520000 -0.043177 0
13.525000 -0.037969 0
13.530000 -0.031162 0
13.535000 -0.022391 0
13.540000 -0.011294 0
13.545000 0.002450 0
13.550000 0.019073 0
13.555000 0.038666 0
13.560000 0.061123 0
13.565000 0.086100 0
13.570000 0.112987 0
13.575000 0.140906 0
13.580000 0.168738 0
13.585000 0.195193 0
13.590000 0.218893 0
13.595000 0.238498 0
13.600000 0.252822 0
13.605000 0.260955 0
13.610000 0.262358 1
13.615000 0.256919 0
13.620000 0.244971 0
13.625000 0.227253 0
13.630000 0.204834 0
13.635000 0.179012 0
13.640000 0.151179 0
13.645000 0.122703 0
13.650000 0.094795 0
13.655000 0.068372 0
13.660000 0.043861 0
13.665000 0.020881 0
13.670000 -0.002166 0
13.675000 -0.028310 0
13.680000 -0.061364 0
13.685000 -0.103760 0
13.690000 -0.153127 0
13.695000 -0.199411 0
13.700000 -0.224874 2
13.705000 -0.207515 0
13.710000 -0.126057 0
13.715000 0.034820 0
13.720000 0.277073 0
13.725000 0.578127 0
13.730000 0.882505 0
13.735000 1.110089 0
13.740000 1.187041 3
13.745000 1.082593 0
13.750000 0.828398 0
13.755000 0.500423 0
13.760000 0.179756 0
13.765000 -0.076741 0
13.770000 -0.243355 0
13.775000 -0.318617 4
13.780000 -0.317454 0
13.785000 -0.265438 0
13.790000 -0.191674 0
13.795000 -0.120092 0
13.800000 -0.063569 0
13.805000 -0.024078 0
13.810000 0.002766 0
13.815000 0.022765 0
13.820000 0.040358 0
13.825000 0.058075 0
13.830000 0.077053 0
13.835000 0.097681 0
13.840000 0.120007 0
13.845000 0.143919 0
13.850000 0.169215 0
13.855000 0.195616 0
13.860000 0.222775 0
13.865000 0.250285 0
13.870000 0.277680 0
13.875000 0.304452 0
13.880000 0.330064 0
13.885000 0.353967 0
13.890000 0.375618 0
13.895000 0.394499 0
13.900000 0.410141 0
13.905000 0.422137 0
13.910000 0.430165 0
13.915000 0.433997 5
13.920000 0.433512 0
13.925000 0.428699 0
13.930000 0.419662 0
13.935000 0.406612 0
13.940000 0.389858 0
13.945000 0.369799 0
13.950000 0.346902 0
13.955000 0.321688 0
13.960000 0.294709 0
13.965000 0.266531 0
13.970000 0.237709 0
13.975000 0.208775 0
13.980000 0.180219 0
13.985000 0.152478 0
13.990000 0.125926 0
13.995000 0.100867 0
14.000000 0.077537 0
14.005000 0.056098 0
14.010000 0.036649 0
14.015000 0.019227 0
14.020000 0.003815 0
14.025000 -0.009647 0
14.030000 -0.021258 0
14.035000 -0.031141 0
14.040000 -0.039440 0
14.045000 -0.046308 0
14.050000 -0.051903 0
14.055000 -0.056383 0
14.060000 -0.059896 0
14.065000 -0.062585 0
14.070000 -0.064577 0
14.075000 -0.065991 0
14.080000 -0.066927 0
14.085000 -0.067476 0
14.090000 -0.067713 0
14.095000 -0.067703 0
14.100000 -0.067412 0
14.105000 -0.066603 0
14.110000 -0.065799 0
14.115000 -0.064998 0
14.120000 -0.064201 0
14.125000 -0.063408 0
14.130000 -0.062620 0
14.135000 -0.061835 0
14.140000 -0.061054 0
14.145000 -0.060277 0
14.150000 -0.059503 0
14.155000 -0.058734 0
14.160000 -0.057968 0
14.165000 -0.057205 0
14.170000 -0.056444 0
14.175000 -0.055684 0
14.180000 -0.054923 0
14.185000 -0.054157 0
14.190000 -0.053379 0
14.195000 -0.052577 0
14.200000 -0.051733 0
14.205000 -0.050818 0
14.210000 -0.049789 0
14.215000 -0.048580 0
14.220000 -0.047099 0
14.225000 -0.045219 0
14.230000 -0.042767 0
14.235000 -0.039524 0
14.240000 -0.035217 0
14.245000 -0.029526 0
14.250000 -0.022092 0
14.255000 -0.012540 0
14.260000 -0.000509 0
14.265000 0.014298 0
14.270000 0.032070 0
14.275000 0.052825 0
14.280000 0.076362 0
14.285000 0.102220 0
14.290000 0.129656 0
14.295000 0.157665 0
14.300000 0.185016 0
14.305000 0.210338 0
14.310000 0.232231 0
14.315000 0.249385 0
14.320000 0.260714 0
14.325000 0.265468 1
14.330000 0.263312 0
14.335000 0.254367 0
14.340000 0.239196 0
14.345000 0.218747 0
14.350000 0.194251 0
14.355000 0.167102 0
14.360000 0.138721 0
14.365000 0.110425 0
14.370000 0.083295 0
14.375000 0.057999 0
14.380000 0.034518 0
14.385000 0.011748 0
14.390000 -0.012867 0
14.395000 -0.043087 0
14.400000 -0.082241 0
14.405000 -0.130003 0
14.410000 -0.178923 0
14.415000 -0.213225 2
14.420000 -0.211323 0
14.425000 -0.150754 0
14.430000 -0.013491 0
14.435000 0.207344 0
14.440000 0.496781 0
14.445000 0.807260 0
14.450000 1.061372 0
14.455000 1.178555 3
14.460000 1.115524 0
14.465000 0.890482 0
14.470000 0.572144 0
14.475000 0.243448 0
14.480000 -0.031818 0
14.485000 -0.220992 0
14.490000 -0.317605 0
14.495000 -0.333109 4
14.500000 -0.290919 0
14.505000 -0.219954 0
14.510000 -0.146079 0
14.515000 -0.085122 0
14.520000 -0.041485 0
14.525000 -0.011900 0
14.530000 0.009417 0
14.535000 0.027366 0
14.540000 0.044937 0
14.545000 0.063560 0
14.550000 0.083771 0
14.555000 0.105684 0
14.560000 0.129220 0
14.565000 0.154199 0
14.570000 0.180365 0
14.575000 0.207390 0
14.580000 0.234884 0
14.585000 0.262399 0
14.590000 0.289441 0
14.595000 0.315480 0
14.600000 0.339972 0
14.605000 0.362372 0
14.610000 0.382155 0
14.615000 0.398838 0
14.620000 0.411994 0
14.625000 0.421278 0
14.630000 0.426432 0
14.635000 0.427303 5
14.640000 0.423846 0
14.645000 0.416131 0
14.650000 0.404334 0
14.655000 0.388735 0
14.660000 0.369704 0
14.665000 0.347687 0
14.670000 0.323189 0
14.675000 0.296750 0
14.680000 0.268932 0
14.685000 0.240294 0
14.690000 0.211375 0
14.695000 0.182678 0
14.700000 0.154656 0
14.705000 0.127704 0
14.710000 0.102148 0
14.715000 0.078246 0
14.720000 0.056183 0
14.725000 0.036080 0
14.730000 0.017994 0
14.735000 0.001925 0
14.740000 -0.012173 0
14.745000 -0.024386 0
14.750000 -0.034829 0
14.755000 -0.043638 0
14.760000 -0.050965 0
14.765000 -0.056965 0
14.770000 -0.061796 0
14.775000 -0.065609 0
14.780000 -0.068549 0
14.785000 -0.070750 0
14.790000 -0.072331 0
14.795000 -0.073400 0
14.800000 -0.074050 0
14.805000 -0.074363 0
14.810000 -0.074406 0
14.815000 -0.074140 0
14.820000 -0.073297 0
14.825000 -0.072459 0
14.830000 -0.071625 0
14.835000 -0.070796 0
14.840000 -0.069970 0
14.845000 -0.069149 0
14.850000 -0.068331 0
14.855000 -0.067518 0
14.860000 -0.066708 0
14.865000 -0.065903 0
14.870000 -0.065102 0
14.875000 -0.064304 0
14.880000 -0.063510 0
14.885000 -0.062718 0
14.890000 -0.061928 0
14.895000 -0.061139 0
14.900000 -0.060346 0
14.905000 -0.059545 0
14.910000 -0.058725 0
14.915000 -0.057873 0
14.920000 -0.056964 0
14.925000 -0.055961 0
14.930000 -0.054811 0
14.935000 -0.053433 0
14.940000 -0.051715 0
14.945000 -0.049509 0
14.950000 -0.046614 0
14.955000 -0.042785 0
14.960000 -0.037720 0
14.965000 -0.031079 0
14.970000 -0.022490 0
14.975000 -0.011585 0
14.980000 0.001967 0
14.985000 0.018411 0
14.990000 0.037847 0
14.995000 0.060180 0
15.000000 0.085074 0
15.005000 0.111917 0
15.010000 0.139827 0
15.015000 0.167671 0
15.020000 0.194141 0
15.025000 0.217838 0
15.030000 0.237401 0
15.035000 0.251627 0
15.040000 0.259599 0
15.045000 0.260779 1
15.050000 0.255069 0
15.055000 0.242824 0
15.060000 0.224813 0
15.065000 0.202139 0
15.070000 0.176129 0
15.075000 0.148199 0
15.080000 0.119731 0
15.085000 0.091934 0
15.090000 0.065701 0
15.095000 0.041398 0
15.100000 0.018519 0
15.105000 -0.004731 0
15.110000 -0.031594 0
15.115000 -0.065914 0
15.120000 -0.109684 0
15.125000 -0.159451 0
15.130000 -0.203668 0
15.135000 -0.223287 2
15.140000 -0.195727 0
15.145000 -0.100072 0
15.150000 0.077352 0
15.155000 0.334553 0
15.160000 0.642073 0
15.165000 0.936723 0
15.170000 1.135245 0
15.175000 1.169931 3
15.180000 1.026147 0
15.185000 0.748596 0
15.190000 0.415999 0
15.195000 0.104406 0
15.200000 -0.136654 0
15.205000 -0.287085 0
15.210000 -0.348678 4
15.215000 -0.338061 0
15.220000 -0.281248 0
15.225000 -0.206501 0
15.230000 -0.136069 0
15.235000 -0.081214 0
15.240000 -0.042978 0
15.245000 -0.016764 0
15.250000 0.003061 0
15.255000 0.020713 0
15.260000 0.038568 0
15.265000 0.057694 0
15.270000 0.078453 0
15.275000 0.100888 0
15.280000 0.124889 0
15.285000 0.150258 0
15.290000 0.176724 0
15.295000 0.203951 0
15.300000 0.231541 0
15.305000 0.259043 0
15.310000 0.285963 0
15.315000 0.311778 0
15.320000 0.335951 0
15.325000 0.357952 0
15.330000 0.377271 0
15.335000 0.393442 0
15.340000 0.406060 0
15.345000 0.414797 0
15.350000 0.419415 0
15.355000 0.419780 5
15.360000 0.415860 0
15.365000 0.407737 0
15.370000 0.395595 0
15.375000 0.379717 0
15.380000 0.360476 0
15.385000 0.338312 0
15.390000 0.313724 0
15.395000 0.287246 0
15.400000 0.259427 0
15.405000 0.230816 0
15.410000 0.201940 0
15.415000 0.173293 0
15.420000 0.145319 0
15.425000 0.118403 0
15.430000 0.092868 0
15.435000 0.068966 0
15.440000 0.046882 0
15.445000 0.026737 0
15.450000 0.008588 0
15.455000 -0.007561 0
15.460000 -0.021753 0
15.465000 -0.034070 0
15.470000 -0.044621 0
15.475000 -0.053541 0
15.480000 -0.060975 0
15.485000 -0.067077 0
15.490000 -0.072000 0
15.495000 -0.075896 0
15.500000 -0.078906 0
15.505000 -0.081164 0
15.510000 -0.082790 0
15.515000 -0.083891 0
15.520000 -0.084562 0
15.525000 -0.084883 0
15.530000 -0.084926 0
15.535000 -0.084746 0
15.540000 -0.083955 0
15.545000 -0.083064 0
15.550000 -0.082177 0
15.555000 -0.081294 0
15.560000 -0.080416 0
15.565000 -0.079543 0
15.570000 -0.078674 0
15.575000 -0.077809 0
15.580000 -0.076948 0
15.585000 -0.076092 0
15.590000 -0.075239 0
15.595000 -0.074391 0
15.600000 -0.073547 0
15.605000 -0.072706 0
15.610000 -0.071867 0
15.615000 -0.071030 0
15.620000 -0.070191 0
15.625000 -0.069346 0
15.630000 -0.068488 0
15.635000 -0.067605 0
15.640000 -0.066676 0
15.645000 -0.065673 0
15.650000 -0.064550 0
15.655000 -0.063240 0
15.660000 -0.061649 0
15.665000 -0.059649 0
15.670000 -0.057067 0
15.675000 -0.053684 0
15.680000 -0.049231 0
15.685000 -0.043391 0
15.690000 -0.035814 0
15.695000 -0.026131 0
15.700000 -0.013994 0
15.705000 0.000889 0
15.710000 0.018700 0
15.715000 0.039460 0
15.720000 0.062977 0
15.725000 0.088808 0
15.730000 0.116241 0
15.735000 0.144306 0
15.740000 0.171815 0
15.745000 0.197435 0
15.750000 0.219794 0
15.755000 0.237600 0
15.760000 0.249761 0
15.765000 0.255496 1
15.770000 0.254422 0
15.775000 0.246589 0
15.780000 0.232482 0
15.785000 0.212967 0
15.790000 0.189206 0
15.795000 0.162540 0
15.800000 0.134362 0
15.805000 0.105994 0
15.810000 0.078556 0
15.815000 0.052818 0
15.820000 0.028969 0
15.825000 0.006254 0
15.830000 -0.017414 0
15.835000 -0.045462 0
15.840000 -0.081546 0
15.845000 -0.126871 0
15.850000 -0.176709 0
15.855000 -0.218285 0
15.860000 -0.231996 2
15.865000 -0.195598 0
15.870000 -0.089237 0
15.875000 0.098993 0
15.880000 0.364382 0
15.885000 0.674195 0
15.890000 0.963174 0
15.895000 1.149270 0
15.900000 1.169324 3
15.905000 1.013480 0
15.910000 0.729442 0
15.915000 0.396088 0
15.920000 0.087488 0
15.925000 -0.149129 0
15.930000 -0.295236 0
15.935000 -0.353430 4
15.940000 -0.340655 0
15.945000 -0.282868 0
15.950000 -0.207973 0
15.955000 -0.137752 0
15.960000 -0.083123 0
15.965000 -0.045000 0
15.970000 -0.018804 0
15.975000 0.001041 0
15.980000 0.018707 0
15.985000 0.036558 0
15.990000 0.055663 0
15.995000 0.076388 0
16.000000 0.098781 0
16.005000 0.122736 0
16.010000 0.148059 0
16.015000 0.174487 0
16.020000 0.201688 0
16.025000 0.229272 0
16.030000 0.256796 0
16.035000 0.283775 0
16.040000 0.309691 0
16.045000 0.334015 0
16.050000 0.356220 0
16.055000 0.375800 0
16.060000 0.392289 0
16.065000 0.405281 0
16.070000 0.414443 0
16.075000 0.419529 0
16.080000 0.420395 5
16.085000 0.416997 0
16.090000 0.409404 0
16.095000 0.397783 0
16.100000 0.382405 0
16.105000 0.363623 0
16.110000 0.341868 0
16.115000 0.317623 0
16.120000 0.291413 0
16.125000 0.263781 0
16.130000 0.235270 0
16.135000 0.206407 0
16.140000 0.177687 0
16.145000 0.149559 0
16.150000 0.122416 0
16.155000 0.096589 0
16.160000 0.072342 0
16.165000 0.049872 0
16.170000 0.029309 0
16.175000 0.010724 0
16.180000 -0.005867 0
16.185000 -0.020498 0
16.190000 -0.033241 0
16.195000 -0.044200 0
16.200000 -0.053502 0
16.205000 -0.061289 0
16.210000 -0.067711 0
16.215000 -0.072921 0
16.220000 -0.077070 0
16.225000 -0.080300 0
16.230000 -0.082746 0
16.235000 -0.084531 0
16.240000 -0.085764 0
16.245000 -0.086543 0
16.250000 -0.086952 0
16.255000 -0.087063 0
16.260000 -0.086937 0
16.265000 -0.086539 0
16.270000 -0.085635 0
16.275000 -0.084735 0
16.280000 -0.083840 0
16.285000 -0.082950 0
16.290000 -0.082063 0
16.295000 -0.081181 0
16.300000 -0.080304 0
16.305000 -0.079431 0
16.310000 -0.078562 0
16.315000 -0.077698 0
16.320000 -0.076837 0
16.325000 -0.075981 0
16.330000 -0.075128 0
16.335000 -0.074278 0
16.340000 -0.073430 0
16.345000 -0.072582 0
16.350000 -0.071730 0
16.355000 -0.070869 0
16.360000 -0.069988 0
16.365000 -0.069072 0
16.370000 -0.068096 0
16.375000 -0.067023 0
16.380000 -0.065796 0
16.385000 -0.064336 0
16.390000 -0.062532 0
16.395000 -0.060233 0
16.400000 -0.057245 0
16.405000 -0.053326 0
16.410000 -0.048182 0
16.415000 -0.041482 0
16.420000 -0.032866 0
16.425000 -0.021976 0
16.430000 -0.008489 0
16.435000 0.007835 0
16.440000 0.027105 0
16.445000 0.049244 0
16.450000 0.073945 0
16.455000 0.100643 0
16.460000 0.128512 0
16.465000 0.156482 0
16.470000 0.183303 0
16.475000 0.207623 0
16.480000 0.228107 0
16.485000 0.243549 0
16.490000 0.252994 0
16.495000 0.255831 1
16.500000 0.251862 0
16.505000 0.241324 0
16.510000 0.224862 0
16.515000 0.203467 0
16.520000 0.178374 0
16.525000 0.150945 0
16.530000 0.122546 0
16.535000 0.094423 0
16.540000 0.067570 0
16.545000 0.042564 0
16.550000 0.019292 0
16.555000 -0.003442 0
16.560000 -0.028224 0
16.565000 -0.058732 0
16.570000 -0.098107 0
16.575000 -0.145887 0
16.580000 -0.194770 0
16.585000 -0.229533 2
16.590000 -0.229375 0
16.595000 -0.172515 0
16.600000 -0.041138 0
16.605000 0.172509 0
16.610000 0.456388 0
16.615000 0.768127 0
16.620000 1.035476 0
16.625000 1.178563 3
16.630000 1.147630 0
16.635000 0.949639 0
16.640000 0.643881 0
16.645000 0.310780 0
16.650000 0.018000 0
16.655000 -0.195586 0
16.660000 -0.317906 0
16.665000 -0.355788 4
16.670000 -0.328909 0
16.675000 -0.264321 0
16.680000 -0.188934 0
16.685000 -0.121954 0
16.690000 -0.071520 0
16.695000 -0.036757 0
16.700000 -0.012530 0
16.705000 0.006501 0
16.710000 0.024051 0
16.715000 0.042118 0
16.720000 0.061559 0
16.725000 0.082645 0
16.730000 0.105379 0
16.735000 0.129636 0
16.740000 0.155207 0
16.745000 0.181814 0
16.750000 0.209117 0
16.755000 0.236717 0
16.760000 0.264164 0
16.765000 0.290967 0
16.770000 0.316610 0
16.775000 0.340566 0
16.780000 0.362313 0
16.785000 0.381355 0
16.790000 0.397238 0
16.795000 0.409570 0
16.800000 0.418035 0
16.805000 0.422406 0
16.810000 0.422554 5
16.815000 0.418457 0
16.820000 0.410197 0
16.825000 0.397959 0
16.830000 0.382025 0
16.835000 0.362759 0
16.840000 0.340597 0
16.845000 0.316027 0
16.850000 0.289575 0
16.855000 0.261781 0
16.860000 0.233184 0
16.865000 0.204305 0
16.870000 0.175628 0
16.875000 0.147595 0
16.880000 0.120589 0
16.885000 0.094929 0
16.890000 0.070871 0
16.895000 0.048602 0
16.900000 0.028246 0
16.905000 0.009867 0
16.910000 -0.006527 0
16.915000 -0.020972 0
16.920000 -0.033543 0
16.925000 -0.044347 0
16.930000 -0.053511 0
16.935000 -0.061177 0
16.940000 -0.067496 0
16.945000 -0.072619 0
16.950000 -0.076695 0
16.955000 -0.079867 0
16.960000 -0.082266 0
16.965000 -0.084013 0
16.970000 -0.085217 0
16.975000 -0.085974 0
16.980000 -0.086367 0
16.985000 -0.086467 0
16.990000 -0.086333 0
16.995000 -0.085541 0
17.000000 -0.084642 0
17.005000 -0.083747 0
17.010000 -0.082857 0
17.015000 -0.081971 0
17.020000 -0.081090 0
17.025000 -0.080213 0
17.030000 -0.079341 0
17.035000 -0.078472 0
17.040000 -0.077608 0
17.045000 -0.076749 0
17.050000 -0.075893 0
17.055000 -0.075041 0
17.060000 -0.074193 0
17.065000 -0.073348 0
17.070000 -0.072505 0
17.075000 -0.071661 0
17.080000 -0.070814 0
17.085000 -0.069957 0
17.090000 -0.069081 0
17.095000 -0.068171 0
17.100000 -0.067201 0
17.105000 -0.066134 0
17.110000 -0.064917 0
17.115000 -0.063469 0
17.120000 -0.061682 0
17.125000 -0.059407 0
17.130000 -0.056454 0
17.135000 -0.052581 0
17.140000 -0.047502 0
17.145000 -0.040887 0
17.150000 -0.032379 0
17.155000 -0.021623 0
17.160000 -0.008293 0
17.165000 0.007854 0
17.170000 0.026936 0
17.175000 0.048888 0
17.180000 0.073422 0
17.185000 0.099996 0
17.190000 0.127805 0
17.195000 0.155803 0
17.200000 0.182759 0
17.205000 0.207335 0
17.210000 0.228197 0
17.215000 0.244131 0
17.220000 0.254160 0
17.225000 0.257644 1
17.230000 0.254344 0
17.235000 0.244451 0
17.240000 0.228569 0
17.245000 0.207648 0
17.250000 0.182897 0
17.255000 0.155660 0
17.260000 0.127301 0
17.265000 0.099077 0
17.270000 0.072017 0
17.275000 0.046757 0
17.280000 0.023292 0
17.285000 0.000601 0
17.290000 -0.023698 0
17.295000 -0.053171 0
17.300000 -0.091175 0
17.305000 -0.137986 0
17.310000 -0.187498 0
17.315000 -0.225699 0
17.320000 -0.232500 2
17.325000 -0.186081 0
17.330000 -0.067763 0
17.335000 0.132350 0
17.340000 0.406382 0
17.345000 0.717793 0
17.350000 0.998974 0
17.355000 1.169337 0
17.360000 1.171082 3
17.365000 0.998600 0
17.370000 0.704483 0
17.375000 0.370592 0
17.380000 0.069922 0
17.385000 -0.153576 0
17.390000 -0.284757 0
17.395000 -0.329067 4
17.400000 -0.305862 0
17.405000 -0.242684 0
17.410000 -0.167436 0
17.415000 -0.100273 0
17.420000 -0.049830 0
17.425000 -0.015275 0
17.430000 0.008680 0
17.435000 0.027502 0
17.440000 0.044945 0
17.445000 0.062989 0
17.450000 0.082464 0
17.455000 0.103619 0
17.460000 0.126440 0
17.465000 0.150787 0
17.470000 0.176435 0
17.475000 0.203090 0
17.480000 0.230391 0
17.485000 0.257917 0
17.490000 0.285196 0
17.495000 0.311716 0
17.500000 0.336941 0
17.505000 0.360329 0
17.510000 0.381346 0
17.515000 0.399490 0
17.520000 0.414311 0
17.525000 0.425425 0
17.530000 0.432532 0
17.535000 0.435432 5
17.540000 0.434026 0
17.545000 0.428330 0
17.550000 0.418467 0
17.555000 0.404666 0
17.560000 0.387253 0
17.565000 0.366634 0
17.570000 0.343285 0
17.575000 0.317725 0
17.580000 0.290506 0
17.585000 0.262186 0
17.590000 0.233312 0
17.595000 0.204405 0
17.600000 0.175942 0
17.605000 0.148346 0
17.610000 0.121978 0
17.615000 0.097130 0
17.620000 0.074025 0
17.625000 0.052817 0
17.630000 0.033595 0
17.635000 0.016390 0
17.640000 0.001180 0
17.645000 -0.012098 0
17.650000 -0.023545 0
17.655000 -0.033286 0
17.660000 -0.041463 0
17.665000 -0.048228 0
17.670000 -0.053739 0
17.675000 -0.058149 0
17.680000 -0.061606 0
17.685000 -0.064250 0
17.690000 -0.066208 0
17.695000 -0.067594 0
17.700000 -0.068509 0
17.705000 -0.069041 0
17.710000 -0.069265 0
17.715000 -0.069244 0
17.720000 -0.068943 0
17.725000 -0.068127 0
17.730000 -0.067315 0
17.735000 -0.066506 0
17.740000 -0.065702 0
17.745000 -0.064902 0
17.750000 -0.064106 0
17.755000 -0.063314 0
17.760000 -0.062525 0
17.765000 -0.061741 0
17.770000 -0.060960 0
17.775000 -0.060183 0
17.780000 -0.059410 0
17.785000 -0.058640 0
17.790000 -0.057872 0
17.795000 -0.057105 0
17.800000 -0.056338 0
17.805000 -0.055566 0
17.810000 -0.054782 0
17.815000 -0.053977 0
17.820000 -0.053131 0
17.825000 -0.052220 0
17.830000 -0.051200 0
17.835000 -0.050010 0
17.840000 -0.048564 0
17.845000 -0.046738 0
17.850000 -0.044370 0
17.855000 -0.041248 0
17.860000 -0.037112 0
17.865000 -0.031649 0
17.870000 -0.024511 0
17.875000 -0.015326 0
17.880000 -0.003735 0
17.885000 0.010573 0
17.890000 0.027806 0
17.895000 0.048016 0
17.900000 0.071050 0
17.905000 0.096501 0
17.910000 0.123692 0
17.915000 0.151677 0
17.920000 0.179282 0
17.925000 0.205172 0
17.930000 0.227957 0
17.935000 0.246312 0
17.940000 0.259100 0
17.945000 0.265493 1
17.950000 0.265054 0
17.955000 0.257791 0
17.960000 0.244154 0
17.965000 0.224990 0
17.970000 0.201453 0
17.975000 0.174892 0
17.980000 0.146717 0
17.985000 0.118273 0
17.990000 0.090712 0
17.995000 0.064835 0
18.000000 0.040864 0
18.005000 0.018081 0
18.010000 -0.005582 0
18.015000 -0.033562 0
18.020000 -0.069575 0
18.025000 -0.114893 0
18.030000 -0.164785 0
18.035000 -0.206331 0
18.040000 -0.219670 2
18.045000 -0.182288 0
18.050000 -0.074177 0
18.055000 0.116432 0
18.060000 0.384088 0
18.065000 0.694467 0
18.070000 0.980336 0
18.075000 1.158682 0
18.080000 1.167778 3
18.085000 0.999524 0
18.090000 0.706616 0
18.095000 0.372796 0
18.100000 0.072908 0
18.105000 -0.148343 0
18.110000 -0.276032 0
18.115000 -0.316377 4
18.120000 -0.289805 0
18.125000 -0.224841 0
18.130000 -0.149735 0
18.135000 -0.084156 0
18.140000 -0.035785 0
18.145000 -0.002975 0
18.150000 0.019909 0
18.155000 0.038283 0
18.160000 0.055692 0
18.165000 0.073920 0
18.170000 0.093678 0
18.175000 0.115150 0
18.180000 0.138290 0
18.185000 0.162931 0
18.190000 0.188828 0
18.195000 0.215659 0
18.200000 0.243039 0
18.205000 0.270520 0
18.210000 0.297605 0
18.215000 0.323759 0
18.220000 0.348429 0
18.225000 0.371058 0
18.230000 0.391107 0
18.235000 0.408079 0
18.240000 0.421532 0
18.245000 0.431105 0
18.250000 0.436526 0
18.255000 0.437632 5
18.260000 0.434369 0
18.265000 0.426801 0
18.270000 0.415103 0
18.275000 0.399556 0
18.280000 0.380535 0
18.285000 0.358492 0
18.290000 0.333940 0
18.295000 0.307431 0
18.300000 0.279538 0
18.305000 0.250828 0
18.310000 0.221851 0
18.315000 0.193117 0
18.320000 0.165086 0
18.325000 0.138156 0
18.330000 0.112655 0
18.335000 0.088840 0
18.340000 0.066895 0
18.345000 0.046936 0
18.350000 0.029014 0
18.355000 0.013125 0
18.360000 -0.000784 0
18.365000 -0.012805 0
18.370000 -0.023058 0
18.375000 -0.031685 0
18.380000 -0.038841 0
18.385000 -0.044687 0
18.390000 -0.049380 0
18.395000 -0.053075 0
18.400000 -0.055917 0
18.405000 -0.058039 0
18.410000 -0.059560 0
18.415000 -0.060588 0
18.420000 -0.061213 0
18.425000 -0.061516 0
18.430000 -0.061562 0
18.435000 -0.061317 0
18.440000 -0.060539 0
18.445000 -0.059765 0
18.450000 -0.058994 0
18.455000 -0.058227 0
18.460000 -0.057464 0
18.465000 -0.056705 0
18.470000 -0.055950 0
18.475000 -0.055198 0
18.480000 -0.054450 0
18.485000 -0.053706 0
18.490000 -0.052965 0
18.495000 -0.052228 0
18.500000 -0.051493 0
18.505000 -0.050761 0
18.510000 -0.050030 0
18.515000 -0.049297 0
18.520000 -0.048559 0
18.525000 -0.047808 0
18.530000 -0.047032 0
18.535000 -0.046214 0
18.540000 -0.045322 0
18.545000 -0.044312 0
18.550000 -0.043117 0
18.555000 -0.041640 0
18.560000 -0.039749 0
18.565000 -0.037267 0
18.570000 -0.033966 0
18.575000 -0.029564 0
18.580000 -0.023733 0
18.585000 -0.016104 0
18.590000 -0.006297 0
18.595000 0.006048 0
18.600000 0.021222 0
18.605000 0.039398 0
18.610000 0.060564 0
18.615000 0.084481 0
18.620000 0.110634 0
18.625000 0.138227 0
18.630000 0.166195 0
18.635000 0.193258 0
18.640000 0.218010 0
18.645000 0.239037 0
18.650000 0.255046 0
18.655000 0.264998 0
18.660000 0.268215 1
18.665000 0.264459 0
18.670000 0.253959 0
18.675000 0.237386 0
18.680000 0.215780 0
18.685000 0.190446 0
18.690000 0.162817 0
18.695000 0.134319 0
18.700000 0.106238 0
18.705000 0.079574 0
18.710000 0.054836 0
18.715000 0.031728 0
18.720000 0.008706 0
18.725000 -0.017277 0
18.730000 -0.050159 0
18.735000 -0.092522 0
18.740000 -0.141960 0
18.745000 -0.187996 0
18.750000 -0.212118 2
18.755000 -0.191497 0
18.760000 -0.104345 0
18.765000 0.064424 0
18.770000 0.314910 0
18.775000 0.620138 0
18.780000 0.918432 0
18.785000 1.125506 0
18.790000 1.170164 3
18.795000 1.034393 0
18.800000 0.761045 0
18.805000 0.429034 0
18.810000 0.115941 0
18.815000 -0.127164 0
18.820000 -0.279288 0
18.825000 -0.341905 4
18.830000 -0.331687 0
18.835000 -0.274914 0
18.840000 -0.200175 0
18.845000 -0.129923 0
18.850000 -0.075413 0
18.855000 -0.037559 0
18.860000 -0.011639 0
18.865000 0.008026 0
18.870000 0.025630 0
18.875000 0.043510 0
18.880000 0.062700 0
18.885000 0.083543 0
18.890000 0.106069 0
18.895000 0.130159 0
18.900000 0.155609 0
18.905000 0.182138 0
18.910000 0.209400 0
18.915000 0.236988 0
18.920000 0.264440 0
18.925000 0.291253 0
18.930000 0.316895 0
18.935000 0.340823 0
18.940000 0.362500 0
18.945000 0.381416 0
18.950000 0.397106 0
18.955000 0.409170 0
18.960000 0.417289 0
18.965000 0.421236 5
18.970000 0.420892 0
18.975000 0.416244 0
18.980000 0.407391 0
18.985000 0.394540 0
18.990000 0.377992 0
18.995000 0.358140 0
19.000000 0.335442 0
19.005000 0.310411 0
19.010000 0.283592 0
19.015000 0.255543 0
19.020000 0.226815 0
19.025000 0.197937 0
19.030000 0.169397 0
19.035000 0.141632 0
19.040000 0.115016 0
19.045000 0.089858 0
19.050000 0.066397 0
19.055000 0.044804 0
19.060000 0.025180 0
19.065000 0.007571 0
19.070000 -0.008034 0
19.075000 -0.021691 0
19.080000 -0.033490 0
19.085000 -0.043553 0
19.090000 -0.052018 0
19.095000 -0.059037 0
19.100000 -0.064764 0
19.105000 -0.069356 0
19.110000 -0.072962 0
19.115000 -0.075723 0
19.120000 -0.077771 0
19.125000 -0.079221 0
19.130000 -0.080178 0
19.135000 -0.080733 0
19.140000 -0.080964 0
19.145000 -0.080937 0
19.150000 -0.080613 0
19.155000 -0.079738 0
19.160000 -0.078868 0
19.165000 -0.078002 0
19.170000 -0.077141 0
19.175000 -0.076283 0
19.180000 -0.075430 0
19.185000 -0.074582 0
19.190000 -0.073737 0
19.195000 -0.072897 0
19.200000 -0.072060 0
19.205000 -0.071228 0
19.210000 -0.070400 0
19.215000 -0.069575 0
19.220000 -0.068753 0
19.225000 -0.067933 0
19.230000 -0.067113 0
19.235000 -0.066290 0
19.240000 -0.065457 0
19.245000 -0.064606 0
19.250000 -0.063720 0
19.255000 -0.062775 0
19.260000 -0.061734 0
19.265000 -0.060540 0
19.270000 -0.059113 0
19.275000 -0.057339 0
19.280000 -0.055066 0
19.285000 -0.052095 0
19.290000 -0.048175 0
19.295000 -0.043008 0
19.300000 -0.036251 0
19.305000 -0.027536 0
19.310000 -0.016498 0
19.315000 -0.002811 0
19.320000 0.013763 0
19.325000 0.033319 0
19.330000 0.055756 0
19.335000 0.080730 0
19.340000 0.107631 0
19.345000 0.135573 0
19.350000 0.163432 0
19.355000 0.189904 0
19.360000 0.213601 0
19.365000 0.233173 0
19.370000 0.247425 0
19.375000 0.255448 0
19.380000 0.256704 1
19.385000 0.251094 0
19.390000 0.238965 0
19.395000 0.221074 0
19.400000 0.198512 0
19.405000 0.172592 0
19.410000 0.144720 0
19.415000 0.116271 0
19.420000 0.088452 0
19.425000 0.062167 0
19.430000 0.037805 0
19.435000 0.014912 0
19.440000 -0.008227 0
19.445000 -0.034764 0
19.450000 -0.068532 0
19.455000 -0.111717 0
19.460000 -0.161328 0
19.465000 -0.206454 0
19.470000 -0.228600 2
19.475000 -0.205426 0
19.480000 -0.115853 0
19.485000 0.054525 0
19.490000 0.305477 0
19.495000 0.610577 0
19.500000 0.909946 0
19.505000 1.121517 0
19.510000 1.174685 3
19.515000 1.048296 0
19.520000 0.781327 0
19.525000 0.450613 0
19.530000 0.133938 0
19.535000 -0.115961 0
19.540000 -0.276194 0
19.545000 -0.346625 4
19.550000 -0.342556 0
19.555000 -0.289285 0
19.560000 -0.215222 0
19.565000 -0.143579 0
19.570000 -0.086847 0
19.575000 -0.046984 0
19.580000 -0.019752 0
19.585000 0.000531 0
19.590000 0.018276 0
19.595000 0.036043 0
19.600000 0.055006 0
19.605000 0.075583 0
19.610000 0.097840 0
19.615000 0.121679 0
19.620000 0.146912 0
19.625000 0.173275 0
19.630000 0.200438 0
19.635000 0.228011 0
19.640000 0.255549 0
19.645000 0.282561 0
19.650000 0.308529 0
19.655000 0.332916 0
19.660000 0.355190 0
19.665000 0.374838 0
19.670000 0.391389 0
19.675000 0.404430 0
19.680000 0.413625 0
19.685000 0.418724 0
19.690000 0.419580 5
19.695000 0.416152 0
19.700000 0.408506 0
19.705000 0.396816 0
19.710000 0.381355 0
19.715000 0.362484 0
19.720000 0.340637 0
19.725000 0.316306 0
19.730000 0.290022 0
19.735000 0.262333 0
19.740000 0.233789 0
19.745000 0.204921 0
19.750000 0.176224 0
19.755000 0.148151 0
19.760000 0.121094 0
19.765000 0.095383 0
19.770000 0.071277 0
19.775000 0.048972 0
19.780000 0.028593 0
19.785000 0.010205 0
19.790000 -0.006181 0
19.795000 -0.020603 0
19.800000 -0.033138 0
19.805000 -0.043894 0
19.810000 -0.053002 0
19.815000 -0.060606 0
19.820000 -0.066860 0
19.825000 -0.071917 0
19.830000 -0.075928 0
19.835000 -0.079038 0
19.840000 -0.081379 0
19.845000 -0.083075 0
19.850000 -0.084233 0
19.855000 -0.084950 0
19.860000 -0.085309 0
19.865000 -0.085380 0
19.870000 -0.085224 0
19.875000 -0.084433 0
19.880000 -0.083540 0
19.885000 -0.082650 0
19.890000 -0.081766 0
19.895000 -0.080885 0
19.900000 -0.080009 0
19.905000 -0.079138 0
19.910000 -0.078271 0
19.915000 -0.077408 0
19.920000 -0.076549 0
19.925000 -0.075694 0
19.930000 -0.074844 0
19.935000 -0.073997 0
19.940000 -0.073154 0
19.945000 -0.072314 0
19.950000 -0.071475 0
19.955000 -0.070635 0
19.960000 -0.069789 0
19.965000 -0.068932 0
19.970000 -0.068051 0
19.975000 -0.067128 0
19.980000 -0.066136 0
19.985000 -0.065030 0
19.990000 -0.063748 0
19.995000 -0.062199 0
20.000000 -0.060260 0
20.005000 -0.057765 0
20.010000 -0.054502 0
20.015000 -0.050207 0
20.020000 -0.044571 0
20.025000 -0.037245 0
20.030000 -0.027865 0
20.035000 -0.016075 0
20.040000 -0.001574 0
20.045000 0.015838 0
20.050000 0.036207 0
20.055000 0.059371 0
20.060000 0.084925 0
20.065000 0.112193 0
20.070000 0.140239 0
20.075000 0.167901 0
20.080000 0.193862 0
20.085000 0.216750 0
20.090000 0.235255 0
20.095000 0.248249 0
20.100000 0.254906 1
20.105000 0.254783 0
20.110000 0.247869 0
20.115000 0.234591 0
20.120000 0.215767 0
20.125000 0.192523 0
20.130000 0.166180 0
20.135000 0.138133 0
20.140000 0.109718 0
20.145000 0.082094 0
20.150000 0.056090 0
20.155000 0.031994 0
20.160000 0.009213 0
20.165000 -0.014136 0
20.170000 -0.041320 0
20.175000 -0.076089 0
20.180000 -0.120209 0
20.185000 -0.169991 0
20.190000 -0.213831 0
20.195000 -0.232907 2
20.200000 -0.205057 0
20.205000 -0.109785 0
20.210000 0.066386 0
20.215000 0.321849 0
20.220000 0.628549 0
20.225000 0.925589 0
20.230000 1.131512 0
20.235000 1.177957 3
20.240000 1.046566 0
20.245000 0.777393 0
20.250000 0.446376 0
20.255000 0.129787 0
20.260000 -0.120649 0
20.265000 -0.282294 0
20.270000 -0.354751 4
20.275000 -0.352753 0
20.280000 -0.300928 0
20.285000 -0.227235 0
20.290000 -0.154924 0
20.295000 -0.096952 0
20.300000 -0.055839 0
20.305000 -0.027707 0
20.310000 -0.006950 0
20.315000 0.010938 0
20.320000 0.028648 0
20.325000 0.047455 0
20.330000 0.067834 0
20.335000 0.089880 0
20.340000 0.113514 0
20.345000 0.138561 0
20.350000 0.164775 0
20.355000 0.191841 0
20.360000 0.219388 0
20.365000 0.246986 0
20.370000 0.274163 0
20.375000 0.300413 0
20.380000 0.325211 0
20.385000 0.348033 0
20.390000 0.368368 0
20.395000 0.385743 0
20.400000 0.399737 0
20.405000 0.409998 0
20.410000 0.416257 0
20.415000 0.418342 5
20.420000 0.416181 0
20.425000 0.409810 0
20.430000 0.399368 0
20.435000 0.385093 0
20.440000 0.367313 0
20.445000 0.346434 0
20.450000 0.322921 0
20.455000 0.297285 0
20.460000 0.270060 0
20.465000 0.241787 0
20.470000 0.212997 0
20.475000 0.184192 0
20.480000 0.155835 0
20.485000 0.128335 0
20.490000 0.102041 0
20.495000 0.077238 0
20.500000 0.054145 0
20.505000 0.032915 0
20.510000 0.013636 0
20.515000 -0.003656 0
20.520000 -0.018978 0
20.525000 -0.032388 0
20.530000 -0.043980 0
20.535000 -0.053871 0
20.540000 -0.062198 0
20.545000 -0.069108 0
20.550000 -0.074751 0
20.555000 -0.079280 0
20.560000 -0.082838 0
20.565000 -0.085564 0
20.570000 -0.087583 0
20.575000 -0.089009 0
20.580000 -0.089946 0
20.585000 -0.090480 0
20.590000 -0.090690 0
20.595000 -0.090639 0
20.600000 -0.090286 0
20.605000 -0.089363 0
20.610000 -0.088445 0
20.615000 -0.087531 0
20.620000 -0.086622 0
20.625000 -0.085718 0
20.630000 -0.084818 0
20.635000 -0.083922 0
20.640000 -0.083031 0
20.645000 -0.082144 0
20.650000 -0.081262 0
20.655000 -0.080384 0
20.660000 -0.079510 0
20.665000 -0.078640 0
20.670000 -0.077773 0
20.675000 -0.076909 0
20.680000 -0.076046 0
20.685000 -0.075182 0
20.690000 -0.074311 0
20.695000 -0.073426 0
20.700000 -0.072515 0
20.705000 -0.071559 0
20.710000 -0.070526 0
20.715000 -0.069372 0
20.720000 -0.068030 0
20.725000 -0.066408 0
20.730000 -0.064376 0
20.735000 -0.061767 0
20.740000 -0.058365 0
20.745000 -0.053905 0
20.750000 -0.048078 0
20.755000 -0.040539 0
20.760000 -0.030929 0
20.765000 -0.018903 0
20.770000 -0.004170 0
20.775000 0.013456 0
20.780000 0.034008 0
20.785000 0.057315 0
20.790000 0.082965 0
20.795000 0.110286 0
20.800000 0.138350 0
20.805000 0.166012 0
20.810000 0.191977 0
20.815000 0.214897 0
20.820000 0.233485 0
20.825000 0.246630 0
20.830000 0.253513 0
20.835000 0.253684 1
20.840000 0.247117 0
20.845000 0.234208 0
20.850000 0.215740 0
20.855000 0.192802 0
20.860000 0.166682 0
20.865000 0.138748 0
20.870000 0.110325 0
20.875000 0.082573 0
20.880000 0.056354 0
20.885000 0.032033 0
20.890000 0.009164 0
20.895000 -0.013902 0
20.900000 -0.040195 0
20.905000 -0.073448 0
20.910000 -0.115961 0
20.915000 -0.165303 0
20.920000 -0.211582 0
20.925000 -0.237467 2
20.930000 -0.221457 0
20.935000 -0.142656 0
20.940000 0.014256 0
20.945000 0.252076 0
20.950000 0.550490 0
20.955000 0.857495 0
20.960000 1.095756 0
20.965000 1.190742 3
20.970000 1.108157 0
20.975000 0.871937 0
20.980000 0.550497 0
20.985000 0.222767 0
20.990000 -0.051408 0
20.995000 -0.241333 0
21.000000 -0.340708 0
21.005000 -0.360038 4
21.010000 -0.321203 0
21.015000 -0.251706 0
21.020000 -0.176934 0
21.025000 -0.113401 0
21.030000 -0.066770 0
21.035000 -0.034791 0
21.040000 -0.012064 0
21.045000 0.006433 0
21.050000 0.023990 0
21.055000 0.042303 0
21.060000 0.062067 0
21.065000 0.083483 0
21.070000 0.106521 0
21.075000 0.131042 0
21.080000 0.156825 0
21.085000 0.183587 0
21.090000 0.210979 0
21.095000 0.238597 0
21.100000 0.265991 0
21.105000 0.292670 0
21.110000 0.318121 0
21.115000 0.341822 0
21.120000 0.363258 0
21.125000 0.381944 0
21.130000 0.397438 0
21.135000 0.409359 0
21.140000 0.417404 0
21.145000 0.421359 5
21.150000 0.421106 0
21.155000 0.416635 0
21.160000 0.408034 0
21.165000 0.395497 0
21.170000 0.379309 0
21.175000 0.359836 0
21.180000 0.337514 0
21.185000 0.312829 0
21.190000 0.286301 0
21.195000 0.258467 0
21.200000 0.229858 0
21.205000 0.200988 0
21.210000 0.172338 0
21.215000 0.144339 0
21.220000 0.117370 0
21.225000 0.091747 0
21.230000 0.067721 0
21.235000 0.045476 0
21.240000 0.025134 0
21.245000 0.006758 0
21.250000 -0.009642 0
21.255000 -0.024102 0
21.260000 -0.036697 0
21.265000 -0.047531 0
21.270000 -0.056729 0
21.275000 -0.064433 0
21.280000 -0.070789 0
21.285000 -0.075950 0
21.290000 -0.080061 0
21.295000 -0.083265 0
21.300000 -0.085692 0
21.305000 -0.087464 0
21.310000 -0.088688 0
21.315000 -0.089460 0
21.320000 -0.089864 0
21.325000 -0.089971 0
21.330000 -0.089840 0
21.335000 -0.089435 0
21.340000 -0.088516 0
21.345000 -0.087602 0
21.350000 -0.086693 0
21.355000 -0.085788 0
21.360000 -0.084887 0
21.365000 -0.083991 0
21.370000 -0.083100 0
21.375000 -0.082213 0
21.380000 -0.081330 0
21.385000 -0.080452 0
21.390000 -0.079578 0
21.395000 -0.078708 0
21.400000 -0.077842 0
21.405000 -0.076979 0
21.410000 -0.076118 0
21.415000 -0.075257 0
21.420000 -0.074394 0
21.425000 -0.073523 0
21.430000 -0.072635 0
21.435000 -0.071717 0
21.440000 -0.070745 0
21.445000 -0.069688 0
21.450000 -0.068494 0
21.455000 -0.067091 0
21.460000 -0.065380 0
21.465000 -0.063223 0
21.470000 -0.060443 0
21.475000 -0.056812 0
21.480000 -0.052059 0
21.485000 -0.045867 0
21.490000 -0.037889 0
21.495000 -0.027769 0
21.500000 -0.015174 0
21.505000 0.000166 0
21.510000 0.018406 0
21.515000 0.039542 0
21.520000 0.063356 0
21.525000 0.089390 0
21.530000 0.116927 0
21.535000 0.145001 0
21.540000 0.172446 0
21.545000 0.197961 0
21.550000 0.220212 0
21.555000 0.237946 0
21.560000 0.250104 0
21.565000 0.255930 1
21.570000 0.255043 0
21.575000 0.247481 0
21.580000 0.233700 0
21.585000 0.214525 0
21.590000 0.191068 0
21.595000 0.164625 0
21.600000 0.136551 0
21.605000 0.108145 0
21.610000 0.080529 0
21.615000 0.054512 0
21.620000 0.030382 0
21.625000 0.007590 0
21.630000 -0.015641 0
21.635000 -0.042429 0
21.640000 -0.076458 0
21.645000 -0.119732 0
21.650000 -0.169304 0
21.655000 -0.214741 0
21.660000 -0.238414 2
21.665000 -0.218904 0
21.670000 -0.135710 0
21.675000 0.025829 0
21.680000 0.267514 0
21.685000 0.567753 0
21.690000 0.873538 0
21.695000 1.107642 0
21.700000 1.197023 3
21.705000 1.107358 0
21.710000 0.862831 0
21.715000 0.537533 0
21.720000 0.213829 0
21.725000 -0.048776 0
21.730000 -0.222272 0
21.735000 -0.303707 0
21.740000 -0.307105 4
21.745000 -0.257613 0
21.750000 -0.184492 0
21.755000 -0.112338 0
21.760000 -0.054830 0
21.765000 -0.014502 0
21.770000 0.012829 0
21.775000 0.033007 0
21.780000 0.050591 0
21.785000 0.068212 0
21.790000 0.087064 0
21.795000 0.107563 0
21.800000 0.129764 0
21.805000 0.153563 0
21.810000 0.178759 0
21.815000 0.205074 0
21.820000 0.232163 0
21.825000 0.259617 0
21.830000 0.286971 0
21.835000 0.313717 0
21.840000 0.339315 0
21.845000 0.363213 0
21.850000 0.384867 0
21.855000 0.403755 0
21.860000 0.419403 0
21.865000 0.431405 0
21.870000 0.439433 0
21.875000 0.443259 5
21.880000 0.442758 0
21.885000 0.437922 0
21.890000 0.428851 0
21.895000 0.415757 0
21.900000 0.398952 0
21.905000 0.378836 0
21.910000 0.355878 0
21.915000 0.330602 0
21.920000 0.303562 0
21.925000 0.275327 0
21.930000 0.246453 0
21.935000 0.217476 0
21.940000 0.188886 0
21.945000 0.161121 0
21.950000 0.134554 0
21.955000 0.109490 0
21.960000 0.086164 0
21.965000 0.064737 0
21.970000 0.045306 0
21.975000 0.027908 0
21.980000 0.012522 0
21.985000 -0.000913 0
21.990000 -0.012497 0
21.995000 -0.022355 0
22.000000 -0.030631 0
22.005000 -0.037481 0
22.010000 -0.043064 0
22.015000 -0.047535 0
22.020000 -0.051045 0
22.025000 -0.053737 0
22.030000 -0.055737 0
22.035000 -0.057164 0
22.040000 -0.058118 0
22.045000 -0.058688 0
22.050000 -0.058951 0
22.055000 -0.058970 0
22.060000 -0.058712 0
22.065000 -0.057947 0
22.070000 -0.057185 0
22.075000 -0.056427 0
22.080000 -0.055673 0
22.085000 -0.054923 0
22.090000 -0.054177 0
22.095000 -0.053434 0
22.100000 -0.052695 0
22.105000 -0.051959 0
22.110000 -0.051228 0
22.115000 -0.050499 0
22.120000 -0.049774 0
22.125000 -0.049052 0
22.130000 -0.048331 0
22.135000 -0.047612 0
22.140000 -0.046890 0
22.145000 -0.046163 0
22.150000 -0.045422 0
22.155000 -0.044656 0
22.160000 -0.043844 0
22.165000 -0.042958 0
22.170000 -0.041949 0
22.175000 -0.040752 0
22.180000 -0.039267 0
22.185000 -0.037363 0
22.190000 -0.034861 0
22.195000 -0.031534 0
22.200000 -0.027100 0
22.205000 -0.021233 0
22.210000 -0.013568 0
22.215000 -0.003728 0
22.220000 0.008642 0
22.225000 0.023830 0
22.230000 0.042005 0
22.235000 0.063154 0
22.240000 0.087041 0
22.245000 0.113159 0
22.250000 0.140721 0
22.255000 0.168679 0
22.260000 0.195769 0
22.265000 0.220601 0
22.270000 0.241773 0
22.275000 0.258000 0
22.280000 0.268239 0
22.285000 0.271801 1
22.290000 0.268426 0
22.295000 0.258315 0
22.300000 0.242106 0
22.305000 0.220808 0
22.310000 0.195697 0
22.315000 0.168187 0
22.320000 0.139696 0
22.325000 0.111515 0
22.330000 0.084665 0
22.335000 0.059713 0
22.340000 0.036466 0
22.345000 0.013551 0
22.350000 -0.011887 0
22.355000 -0.043724 0
22.360000 -0.084865 0
22.365000 -0.133779 0
22.370000 -0.181253 0
22.375000 -0.209914 2
22.380000 -0.197460 0
22.385000 -0.121823 0
22.390000 0.033387 0
22.395000 0.271392 0
22.400000 0.570732 0
22.405000 0.876040 0
22.410000 1.105746 0
22.415000 1.183827 3
22.420000 1.079117 0
22.425000 0.823583 0
22.430000 0.494988 0
22.435000 0.175737 0
22.440000 -0.077182 0
22.445000 -0.238762 0
22.450000 -0.308561 4
22.455000 -0.302677 0
22.460000 -0.247759 0
22.465000 -0.173390 0
22.470000 -0.103075 0
22.475000 -0.048665 0
22.480000 -0.011144 0
22.485000 0.014385 0
22.490000 0.033756 0
22.495000 0.051206 0
22.500000 0.069046 0
22.505000 0.088268 0
22.510000 0.109185 0
22.515000 0.131806 0
22.520000 0.155996 0
22.525000 0.181530 0
22.530000 0.208109 0
22.535000 0.235364 0
22.540000 0.262862 0
22.545000 0.290116 0
22.550000 0.316599 0
22.555000 0.341756 0
22.560000 0.365027 0
22.565000 0.385863 0
22.570000 0.403748 0
22.575000 0.418220 0
22.580000 0.428891 0
22.585000 0.435462 0
22.590000 0.437739 5
22.595000 0.435636 0
22.600000 0.429186 0
22.605000 0.418537 0
22.610000 0.403944 0
22.615000 0.385762 0
22.620000 0.364428 0
22.625000 0.340444 0
22.630000 0.314359 0
22.635000 0.286744 0
22.640000 0.258175 0
22.645000 0.229211 0
22.650000 0.200375 0
22.655000 0.172142 0
22.660000 0.144929 0
22.665000 0.119082 0
22.670000 0.094875 0
22.675000 0.072510 0
22.680000 0.052117 0
22.685000 0.033762 0
22.690000 0.017450 0
22.695000 0.003139 0
22.700000 -0.009256 0
22.705000 -0.019853 0
22.710000 -0.028790 0
22.715000 -0.036221 0
22.720000 -0.042307 0
22.725000 -0.047207 0
22.730000 -0.051079 0
22.735000 -0.054070 0
22.740000 -0.056315 0
22.745000 -0.057939 0
22.750000 -0.059050 0
22.755000 -0.059743 0
22.760000 -0.060100 0
22.765000 -0.060190 0
22.770000 -0.059976 0
22.775000 -0.059205 0
22.780000 -0.058437 0
22.785000 -0.057673 0
22.790000 -0.056913 0
22.795000 -0.056156 0
22.800000 -0.055404 0
22.805000 -0.054655 0
22.810000 -0.053910 0
22.815000 -0.053168 0
22.820000 -0.052430 0
22.825000 -0.051696 0
22.830000 -0.050965 0
22.835000 -0.050237 0
22.840000 -0.049511 0
22.845000 -0.048787 0
22.850000 -0.048061 0
22.855000 -0.047330 0
22.860000 -0.046587 0
22.865000 -0.045821 0
22.870000 -0.045014 0
22.875000 -0.044137 0
22.880000 -0.043146 0
22.885000 -0.041975 0
22.890000 -0.040532 0
22.895000 -0.038685 0
22.900000 -0.036260 0
22.905000 -0.033031 0
22.910000 -0.028721 0
22.915000 -0.022998 0
22.920000 -0.015497 0
22.925000 -0.005834 0
22.930000 0.006356 0
22.935000 0.021372 0
22.940000 0.039394 0
22.945000 0.060421 0
22.950000 0.084224 0
22.955000 0.110297 0
22.960000 0.137852 0
22.965000 0.165823 0
22.970000 0.192931 0
22.975000 0.217763 0
22.980000 0.238894 0
22.985000 0.255019 0
22.990000 0.265084 0
22.995000 0.268402 1
23.000000 0.264726 0
23.005000 0.254280 0
23.010000 0.237735 0
23.015000 0.216138 0
23.020000 0.190799 0
23.025000 0.163161 0
23.030000 0.134659 0
23.035000 0.106586 0
23.040000 0.079942 0
23.045000 0.055233 0
23.050000 0.032142 0
23.055000 0.009086 0
23.060000 -0.017033 0
23.065000 -0.050176 0
23.070000 -0.092849 0
23.075000 -0.142401 0
23.080000 -0.187980 0
23.085000 -0.210702 2
23.090000 -0.187534 0
23.095000 -0.096726 0
23.100000 0.076396 0
23.105000 0.330844 0
23.110000 0.637653 0
23.115000 0.932880 0
23.120000 1.131337 0
23.125000 1.163718 3
23.130000 1.015658 0
23.135000 0.735130 0
23.140000 0.402116 0
23.145000 0.092751 0
23.150000 -0.144231 0
23.155000 -0.289758 0
23.160000 -0.346579 4
23.165000 -0.332199 0
23.170000 -0.273289 0
23.175000 -0.198239 0
23.180000 -0.128809 0
23.185000 -0.075454 0
23.190000 -0.038547 0
23.195000 -0.013184 0
23.200000 0.006257 0
23.205000 0.023841 0
23.210000 0.041798 0
23.215000 0.061100 0
23.220000 0.082062 0
23.225000 0.104701 0
23.230000 0.128895 0
23.235000 0.154431 0
23.240000 0.181027 0
23.245000 0.208333 0
23.250000 0.235939 0
23.255000 0.263381 0
23.260000 0.290156 0
23.265000 0.315730 0
23.270000 0.339561 0
23.275000 0.361113 0
23.280000 0.379880 0
23.285000 0.395401 0
23.290000 0.407278 0
23.295000 0.415199 0
23.300000 0.418943 5
23.305000 0.418394 0
23.310000 0.413547 0
23.315000 0.404506 0
23.320000 0.391481 0
23.325000 0.374779 0
23.330000 0.354795 0
23.335000 0.331990 0
23.340000 0.306878 0
23.345000 0.280003 0
23.350000 0.251925 0
23.355000 0.223192 0
23.360000 0.194331 0
23.365000 0.165827 0
23.370000 0.138114 0
23.375000 0.111563 0
23.380000 0.086481 0
23.385000 0.063103 0
23.390000 0.041596 0
23.395000 0.022060 0
23.400000 0.004538 0
23.405000 -0.010983 0
23.410000 -0.024559 0
23.415000 -0.036284 0
23.420000 -0.046278 0
23.425000 -0.054680 0
23.430000 -0.061641 0
23.435000 -0.067317 0
23.440000 -0.071864 0
23.445000 -0.075430 0
23.450000 -0.078156 0
23.455000 -0.080172 0
23.460000 -0.081595 0
23.465000 -0.082528 0
23.470000 -0.083062 0
23.475000 -0.083273 0
23.480000 -0.083228 0
23.485000 -0.082889 0
23.490000 -0.082003 0
23.495000 -0.081122 0
23.500000 -0.080245 0
23.505000 -0.079372 0
23.510000 -0.078503 0
23.515000 -0.077639 0
23.520000 -0.076780 0
23.525000 -0.075924 0
23.530000 -0.075073 0
23.535000 -0.074226 0
23.540000 -0.073383 0
23.545000 -0.072544 0
23.550000 -0.071708 0
23.555000 -0.070876 0
23.560000 -0.070045 0
23.565000 -0.069214 0
23.570000 -0.068380 0
23.575000 -0.067537 0
23.580000 -0.066675 0
23.585000 -0.065778 0
23.590000 -0.064822 0
23.595000 -0.063769 0
23.600000 -0.062564 0
23.605000 -0.061124 0
23.610000 -0.059336 0
23.615000 -0.057049 0
23.620000 -0.054062 0
23.625000 -0.050125 0
23.630000 -0.044940 0
23.635000 -0.038165 0
23.640000 -0.029432 0
23.645000 -0.018375 0
23.650000 -0.004670 0
23.655000 0.011920 0
23.660000 0.031489 0
23.665000 0.053937 0
23.670000 0.078921 0
23.675000 0.105830 0
23.680000 0.133780 0
23.685000 0.161649 0
23.690000 0.188135 0
23.695000 0.211853 0
23.700000 0.231451 0
23.705000 0.245740 0
23.710000 0.253805 0
23.715000 0.255112 1
23.720000 0.249555 0
23.725000 0.237480 0
23.730000 0.219640 0
23.735000 0.197121 0
23.740000 0.171234 0
23.745000 0.143384 0
23.750000 0.114942 0
23.755000 0.087118 0
23.760000 0.060819 0
23.765000 0.036441 0
23.770000 0.013544 0
23.775000 -0.009563 0
23.780000 -0.036012 0
23.785000 -0.069634 0
23.790000 -0.112661 0
23.795000 -0.162222 0
23.800000 -0.207562 0
23.805000 -0.230320 2
23.810000 -0.208211 0
23.815000 -0.120112 0
23.820000 0.048559 0
23.825000 0.297980 0
23.830000 0.602428 0
23.835000 0.902804 0
23.840000 1.117340 0
23.845000 1.174791 3
23.850000 1.052043 0
23.855000 0.787072 0
23.860000 0.456734 0
23.865000 0.139471 0
23.870000 -0.111289 0
23.875000 -0.272237 0
23.880000 -0.343090 4
23.885000 -0.339170 0
23.890000 -0.285895 0
23.895000 -0.211826 0
23.900000 -0.140268 0
23.905000 -0.083709 0
23.910000 -0.044039 0
23.915000 -0.016960 0
23.920000 0.003235 0
23.925000 0.020951 0
23.930000 0.038724 0
23.935000 0.057715 0
23.940000 0.078329 0
23.945000 0.100627 0
23.950000 0.124508 0
23.955000 0.149778 0
23.960000 0.176170 0
23.965000 0.203350 0
23.970000 0.230923 0
23.975000 0.258439 0
23.980000 0.285404 0
23.985000 0.311293 0
23.990000 0.335568 0
23.995000 0.357694 0
24.000000 0.377158 0
24.005000 0.393488 0
24.010000 0.406274 0
24.015000 0.415183 0
24.020000 0.419971 0
24.025000 0.420498 5
24.030000 0.416730 0
24.035000 0.408742 0
24.040000 0.396719 0
24.045000 0.380941 0
24.050000 0.361779 0
24.055000 0.339675 0
24.060000 0.315129 0
24.065000 0.288677 0
24.070000 0.260871 0
24.075000 0.232262 0
24.080000 0.203381 0
24.085000 0.174724 0
24.090000 0.146738 0
24.095000 0.119811 0
24.100000 0.094266 0
24.105000 0.070359 0
24.110000 0.048275 0
24.115000 0.028134 0
24.120000 0.009994 0
24.125000 -0.006142 0
24.130000 -0.020316 0
24.135000 -0.032611 0
24.140000 -0.043140 0
24.145000 -0.052035 0
24.150000 -0.059445 0
24.155000 -0.065523 0
24.160000 -0.070424 0
24.165000 -0.074299 0
24.170000 -0.077291 0
24.175000 -0.079532 0
24.180000 -0.081145 0
24.185000 -0.082235 0
24.190000 -0.082897 0
24.195000 -0.083213 0
24.200000 -0.083252 0
24.205000 -0.083071 0
24.210000 -0.082286 0
24.215000 -0.081403 0
24.220000 -0.080525 0
24.225000 -0.079651 0
24.230000 -0.078781 0
24.235000 -0.077916 0
24.240000 -0.077054 0
24.245000 -0.076198 0
24.250000 -0.075345 0
24.255000 -0.074497 0
24.260000 -0.073652 0
24.265000 -0.072812 0
24.270000 -0.071975 0
24.275000 -0.071142 0
24.280000 -0.070311 0
24.285000 -0.069481 0
24.290000 -0.068649 0
24.295000 -0.067811 0
24.300000 -0.066958 0
24.305000 -0.066079 0
24.310000 -0.065151 0
24.315000 -0.064145 0
24.320000 -0.063012 0
24.325000 -0.061684 0
24.330000 -0.060061 0
24.335000 -0.058010 0
24.340000 -0.055352 0
24.345000 -0.051863 0
24.350000 -0.047264 0
24.355000 -0.041233 0
24.360000 -0.033414 0
24.365000 -0.023437 0
24.370000 -0.010957 0
24.375000 0.004308 0
24.380000 0.022523 0
24.385000 0.043681 0
24.390000 0.067556 0
24.395000 0.093665 0
24.400000 0.121254 0
24.405000 0.149311 0
24.410000 0.176616 0
24.415000 0.201816 0
24.420000 0.223537 0
24.425000 0.240504 0
24.430000 0.251661 0
24.435000 0.256286 1
24.440000 0.254062 0
24.445000 0.245115 0
24.450000 0.230001 0
24.455000 0.209651 0
24.460000 0.185271 0
24.465000 0.158228 0
24.470000 0.129917 0
24.475000 0.101640 0
24.480000 0.074472 0
24.485000 0.049097 0
24.490000 0.025555 0
24.495000 0.002859 0
24.500000 -0.021376 0
24.505000 -0.050773 0
24.510000 -0.088777 0
24.515000 -0.135666 0
24.520000 -0.185115 0
24.525000 -0.222639 0
24.530000 -0.227576 2
24.535000 -0.177664 0
24.540000 -0.054136 0
24.545000 0.152236 0
24.550000 0.431488 0
24.555000 0.743310 0
24.560000 1.016093 0
24.565000 1.168160 3
24.570000 1.147135 0
24.575000 0.958524 0
24.580000 0.657993 0
24.585000 0.324253 0
24.590000 0.025660 0
24.595000 -0.196922 0
24.600000 -0.329332 0
24.605000 -0.376548 4
24.610000 -0.356607 0
24.615000 -0.295490 0
24.620000 -0.220129 0
24.625000 -0.150860 0
24.630000 -0.097390 0
24.635000 -0.060045 0
24.640000 -0.034183 0
24.645000 -0.014392 0
24.650000 0.003336 0
24.655000 0.021271 0
24.660000 0.040443 0
24.665000 0.061214 0
24.670000 0.083629 0
24.675000 0.107591 0
24.680000 0.132914 0
24.685000 0.159342 0
24.690000 0.186559 0
24.695000 0.214189 0
24.700000 0.241803 0
24.705000 0.268932 0
24.710000 0.295076 0
24.715000 0.319719 0
24.720000 0.342346 0
24.725000 0.362460 0
24.730000 0.379598 0
24.735000 0.393353 0
24.740000 0.403385 0
24.745000 0.409437 0
24.750000 0.411345 5
24.755000 0.409045 0
24.760000 0.402575 0
24.765000 0.392075 0
24.770000 0.377782 0
24.775000 0.360020 0
24.780000 0.339187 0
24.785000 0.315741 0
24.790000 0.290182 0
24.795000 0.263036 0
24.800000 0.234834 0
24.805000 0.206099 0
24.810000 0.177324 0
24.815000 0.148968 0
24.820000 0.121435 0
24.825000 0.095073 0
24.830000 0.070169 0
24.835000 0.046941 0
24.840000 0.025547 0
24.845000 0.006081 0
24.850000 -0.011416 0
24.855000 -0.026956 0
24.860000 -0.040591 0
24.865000 -0.052407 0
24.870000 -0.062518 0
24.875000 -0.071054 0
24.880000 -0.078159 0
24.885000 -0.083982 0
24.890000 -0.088670 0
24.895000 -0.092368 0
24.900000 -0.095213 0
24.905000 -0.097330 0
24.910000 -0.098836 0
24.915000 -0.099833 0
24.920000 -0.100412 0
24.925000 -0.100650 0
24.930000 -0.100614 0
24.935000 -0.100361 0
24.940000 -0.099492 0
24.945000 -0.098523 0
24.950000 -0.097559 0
24.955000 -0.096600 0
24.960000 -0.095646 0
24.965000 -0.094697 0
24.970000 -0.093752 0
24.975000 -0.092812 0
24.980000 -0.091876 0
24.985000 -0.090945 0
24.990000 -0.090019 0
24.995000 -0.089097 0
25.000000 -0.088180 0
25.005000 -0.087266 0
25.010000 -0.086355 0
25.015000 -0.085447 0
25.020000 -0.084538 0
25.025000 -0.083626 0
25.030000 -0.082704 0
25.035000 -0.081763 0
25.040000 -0.080787 0
25.045000 -0.079752 0
25.050000 -0.078620 0
25.055000 -0.077338 0
25.060000 -0.075827 0
25.065000 -0.073981 0
25.070000 -0.071655 0
25.075000 -0.068661 0
25.080000 -0.064766 0
25.085000 -0.059688 0
25.090000 -0.053107 0
25.095000 -0.044674 0
25.100000 -0.034037 0
25.105000 -0.020876 0
25.110000 -0.004942 0
25.115000 0.013892 0
25.120000 0.035586 0
25.125000 0.059882 0
25.130000 0.086279 0
25.135000 0.114022 0
25.140000 0.142116 0
25.145000 0.169374 0
25.150000 0.194496 0
25.155000 0.216163 0
25.160000 0.233156 0
25.165000 0.244464 0
25.170000 0.249387 1
25.175000 0.247605 0
25.180000 0.239214 0
25.185000 0.224718 0
25.190000 0.204978 0
25.195000 0.181125 0
25.200000 0.154457 0
25.205000 0.126319 0
25.210000 0.097983 0
25.215000 0.070538 0
25.220000 0.044742 0
25.225000 0.020816 0
25.230000 -0.001884 0
25.235000 -0.025242 0
25.240000 -0.052450 0
25.245000 -0.087127 0
25.250000 -0.131006 0
25.255000 -0.180683 0
25.260000 -0.225275 0
25.265000 -0.246927 2
25.270000 -0.224318 0
25.275000 -0.137310 0
25.280000 0.028181 0
25.285000 0.273102 0
25.290000 0.574807 0
25.295000 0.879522 0
25.300000 1.110211 0
25.305000 1.195133 3
25.310000 1.103140 0
25.315000 0.860648 0
25.320000 0.537132 0
25.325000 0.210720 0
25.330000 -0.060327 0
25.335000 -0.246673 0
25.340000 -0.342852 0
25.345000 -0.359812 4
25.350000 -0.319605 0
25.355000 -0.249639 0
25.360000 -0.174990 0
25.365000 -0.111808 0
25.370000 -0.065502 0
25.375000 -0.033725 0
25.380000 -0.011090 0
25.385000 0.007378 0
25.390000 0.024932 0
25.395000 0.043246 0
25.400000 0.063009 0
25.405000 0.084419 0
25.410000 0.107446 0
25.415000 0.131952 0
25.420000 0.157720 0
25.425000 0.184465 0
25.430000 0.211844 0
25.435000 0.239456 0
25.440000 0.266852 0
25.445000 0.293547 0
25.450000 0.319029 0
25.455000 0.342781 0
25.460000 0.364291 0
25.465000 0.383073 0
25.470000 0.398687 0
25.475000 0.410753 0
25.480000 0.418964 0
25.485000 0.423105 5
25.490000 0.423054 0
25.495000 0.418794 0
25.500000 0.410409 0
25.505000 0.398086 0
25.510000 0.382103 0
25.515000 0.362820 0
25.520000 0.340666 0
25.525000 0.316121 0
25.530000 0.289703 0
25.535000 0.261941 0
25.540000 0.233368 0
25.545000 0.204495 0
25.550000 0.175803 0
25.555000 0.147727 0
25.560000 0.120647 0
25.565000 0.094883 0
25.570000 0.070691 0
25.575000 0.048261 0
25.580000 0.027719 0
25.585000 0.009134 0
25.590000 -0.007479 0
25.595000 -0.022153 0
25.600000 -0.034956 0
25.605000 -0.045989 0
25.610000 -0.055376 0
25.615000 -0.063255 0
25.620000 -0.069773 0
25.625000 -0.075079 0
25.630000 -0.079320 0
25.635000 -0.082638 0
25.640000 -0.085165 0
25.645000 -0.087022 0
25.650000 -0.088319 0
25.655000 -0.089152 0
25.660000 -0.089606 0
25.665000 -0.089754 0
25.670000 -0.089657 0
25.675000 -0.089276 0
25.680000 -0.088358 0
25.685000 -0.087445 0
25.690000 -0.086536 0
25.695000 -0.085632 0
25.700000 -0.084732 0
25.705000 -0.083837 0
25.710000 -0.082947 0
25.715000 -0.082060 0
25.720000 -0.081178 0
25.725000 -0.080301 0
25.730000 -0.079428 0
25.735000 -0.078558 0
25.740000 -0.077693 0
25.745000 -0.076831 0
25.750000 -0.075971 0
25.755000 -0.075113 0
25.760000 -0.074252 0
25.765000 -0.073385 0
25.770000 -0.072503 0
25.775000 -0.071594 0
25.780000 -0.070638 0
25.785000 -0.069605 0
25.790000 -0.068448 0
25.795000 -0.067102 0
25.800000 -0.065474 0
25.805000 -0.063436 0
25.810000 -0.060821 0
25.815000 -0.057416 0
25.820000 -0.052962 0
25.825000 -0.047151 0
25.830000 -0.039646 0
25.835000 -0.030093 0
25.840000 -0.018149 0
25.845000 -0.003529 0
25.850000 0.013957 0
25.855000 0.034350 0
25.860000 0.057492 0
25.865000 0.082993 0
25.870000 0.110208 0
25.875000 0.138240 0
25.880000 0.165979 0
25.885000 0.192157 0
25.890000 0.215448 0
25.895000 0.234572 0
25.900000 0.248409 0
25.905000 0.256112 0
25.910000 0.257189 1
25.915000 0.251555 0
25.920000 0.239545 0
25.925000 0.221876 0
25.930000 0.199580 0
25.935000 0.173901 0
25.940000 0.146181 0
25.945000 0.117743 0
25.950000 0.089771 0
25.955000 0.063182 0
25.960000 0.038457 0
25.965000 0.015359 0
25.970000 -0.007448 0
25.975000 -0.032659 0
25.980000 -0.063921 0
25.985000 -0.104117 0
25.990000 -0.152332 0
25.995000 -0.200842 0
26.000000 -0.234303 2
26.005000 -0.232199 0
26.010000 -0.173296 0
26.015000 -0.040369 0
26.020000 0.173918 0
26.025000 0.457629 0
26.030000 0.769464 0
26.035000 1.039078 0
26.040000 1.188043 3
26.045000 1.163255 0
26.050000 0.965883 0
26.055000 0.658440 0
26.060000 0.326067 0
26.065000 0.038980 0
26.070000 -0.164263 0
26.075000 -0.273557 0
26.080000 -0.298464 4
26.085000 -0.261690 0
26.090000 -0.192584 0
26.095000 -0.118322 0
26.100000 -0.056205 0
26.105000 -0.011591 0
26.110000 0.018484 0
26.115000 0.039901 0
26.120000 0.057751 0
26.125000 0.075158 0
26.130000 0.093617 0
26.135000 0.113683 0
26.140000 0.135471 0
26.145000 0.158900 0
26.150000 0.183786 0
26.155000 0.209860 0
26.160000 0.236787 0
26.165000 0.264161 0
26.170000 0.291521 0
26.175000 0.318357 0
26.180000 0.344125 0
26.185000 0.368267 0
26.190000 0.390225 0
26.195000 0.409469 0
26.200000 0.425508 0
26.205000 0.437920 0
26.210000 0.446363 0
26.215000 0.450592 5
26.220000 0.450471 0
26.225000 0.445978 0
26.230000 0.437206 0
26.235000 0.424362 0
26.240000 0.407753 0
26.245000 0.387781 0
26.250000 0.364918 0
26.255000 0.339693 0
26.260000 0.312668 0
26.265000 0.284418 0
26.270000 0.255511 0
26.275000 0.226488 0
26.280000 0.197850 0
26.285000 0.170041 0
26.290000 0.143440 0
26.295000 0.118355 0
26.300000 0.095023 0
26.305000 0.073608 0
26.310000 0.054206 0
26.315000 0.036850 0
26.320000 0.021520 0
26.325000 0.008149 0
26.330000 -0.003363 0
26.335000 -0.013148 0
26.340000 -0.021351 0
26.345000 -0.028131 0
26.350000 -0.033648 0
26.355000 -0.038062 0
26.360000 -0.041524 0
26.365000 -0.044176 0
26.370000 -0.046147 0
26.375000 -0.047553 0
26.380000 -0.048497 0
26.385000 -0.049066 0
26.390000 -0.049335 0
26.395000 -0.049367 0
26.400000 -0.048757 0
26.405000 -0.048041 0
26.410000 -0.047329 0
26.415000 -0.046620 0
26.420000 -0.045915 0
26.425000 -0.045214 0
26.430000 -0.044516 0
26.435000 -0.043821 0
26.440000 -0.043130 0
26.445000 -0.042442 0
26.450000 -0.041758 0
26.455000 -0.041076 0
26.460000 -0.040398 0
26.465000 -0.039722 0
26.470000 -0.039048 0
26.475000 -0.038373 0
26.480000 -0.037696 0
26.485000 -0.037010 0
26.490000 -0.036308 0
26.495000 -0.035574 0
26.500000 -0.034786 0
26.505000 -0.033910 0
26.510000 -0.032890 0
26.515000 -0.031651 0
26.520000 -0.030080 0
26.525000 -0.028028 0
26.530000 -0.025297 0
26.535000 -0.021637 0
26.540000 -0.016743 0
26.545000 -0.010267 0
26.550000 -0.001831 0
26.555000 0.008943 0
26.560000 0.022395 0
26.565000 0.038774 0
26.570000 0.058183 0
26.575000 0.080518 0
26.580000 0.105424 0
26.585000 0.132264 0
26.590000 0.160115 0
26.595000 0.187807 0
26.600000 0.213986 0
26.605000 0.237219 0
26.610000 0.256124 0
26.615000 0.269499 0
26.620000 0.276450 0
26.625000 0.276487 1
26.630000 0.269581 0
26.635000 0.256170 0
26.640000 0.237106 0
26.645000 0.213571 0
26.650000 0.186953 0
26.655000 0.158704 0
26.660000 0.130209 0
26.665000 0.102645 0
26.670000 0.076817 0
26.675000 0.052906 0
26.680000 0.030077 0
26.685000 0.006062 0
26.690000 -0.022793 0
26.695000 -0.060180 0
26.700000 -0.106763 0
26.705000 -0.156446 0
26.710000 -0.194523 0
26.715000 -0.199649 2
26.720000 -0.148727 0
26.725000 -0.022403 0
26.730000 0.188348 0
26.735000 0.471664 0
26.740000 0.783083 0
26.745000 1.046070 0
26.750000 1.177192 3
26.755000 1.127554 0
26.760000 0.910941 0
26.765000 0.595307 0
26.770000 0.265656 0
26.775000 -0.011629 0
26.780000 -0.202266 0
26.785000 -0.299269 0
26.790000 -0.314288 4
26.795000 -0.271348 0
26.800000 -0.200044 0
26.805000 -0.126587 0
26.810000 -0.066649 0
26.815000 -0.024180 0
26.820000 0.004475 0
26.825000 0.025247 0
26.830000 0.042985 0
26.835000 0.060559 0
26.840000 0.079298 0
26.845000 0.099677 0
26.850000 0.121776 0
26.855000 0.145496 0
26.860000 0.170639 0
26.865000 0.196931 0
26.870000 0.224024 0
26.875000 0.251506 0
26.880000 0.278908 0
26.885000 0.305714 0
26.890000 0.331379 0
26.895000 0.355342 0
26.900000 0.377050 0
26.905000 0.395973 0
26.910000 0.411633 0
26.915000 0.423614 0
26.920000 0.431587 0
26.925000 0.435322 5
26.930000 0.434697 0
26.935000 0.429705 0
26.940000 0.420456 0
26.945000 0.407169 0
26.950000 0.390166 0
26.955000 0.369857 0
26.960000 0.346725 0
26.965000 0.321304 0
26.970000 0.294157 0
26.975000 0.265862 0
26.980000 0.236983 0
26.985000 0.208057 0
26.990000 0.179578 0
26.995000 0.151980 0
27.000000 0.125635 0
27.005000 0.100842 0
27.010000 0.077827 0
27.015000 0.056744 0
27.020000 0.037682 0
27.025000 0.020666 0
27.030000 0.005669 0
27.035000 -0.007380 0
27.040000 -0.018588 0
27.045000 -0.028087 0
27.050000 -0.036025 0
27.055000 -0.042561 0
27.060000 -0.047856 0
27.065000 -0.052069 0
27.070000 -0.055349 0
27.075000 -0.057837 0
27.080000 -0.059661 0
27.085000 -0.060935 0
27.090000 -0.061758 0
27.095000 -0.062218 0
27.100000 -0.062388 0
27.105000 -0.062328 0
27.110000 -0.061649 0
27.115000 -0.060869 0
27.120000 -0.060093 0
27.125000 -0.059320 0
27.130000 -0.058552 0
27.135000 -0.057787 0
27.140000 -0.057027 0
27.145000 -0.056270 0
27.150000 -0.055516 0
27.155000 -0.054767 0
27.160000 -0.054021 0
27.165000 -0.053279 0
27.170000 -0.052539 0
27.175000 -0.051803 0
27.180000 -0.051068 0
27.185000 -0.050333 0
27.190000 -0.049594 0
27.195000 -0.048847 0
27.200000 -0.048082 0
27.205000 -0.047284 0
27.210000 -0.046428 0
27.215000 -0.045478 0
27.220000 -0.044376 0
27.225000 -0.043042 0
27.230000 -0.041361 0
27.235000 -0.039176 0
27.240000 -0.036282 0
27.245000 -0.032422 0
27.250000 -0.027287 0
27.255000 -0.020522 0
27.260000 -0.011748 0
27.265000 -0.000588 0
27.270000 0.013288 0
27.275000 0.030114 0
27.280000 0.049967 0
27.285000 0.072716 0
27.290000 0.097969 0
27.295000 0.125052 0
27.300000 0.153007 0
27.305000 0.180636 0
27.310000 0.206567 0
27.315000 0.229369 0
27.320000 0.247674 0
27.325000 0.260313 0
27.330000 0.266440 1
27.335000 0.265624 0
27.340000 0.257896 0
27.345000 0.243750 0
27.350000 0.224088 0
27.355000 0.200126 0
27.360000 0.173266 0
27.365000 0.144961 0
27.370000 0.116576 0
27.375000 0.089251 0
27.380000 0.063726 0
27.385000 0.040078 0
27.390000 0.017306 0
27.395000 -0.007057 0
27.400000 -0.036781 0
27.405000 -0.075373 0
27.410000 -0.122825 0
27.415000 -0.171968 0
27.420000 -0.207050 2
27.425000 -0.206198 0
27.430000 -0.146490 0
27.435000 -0.009473 0
27.440000 0.211885 0
27.445000 0.502107 0
27.450000 0.812143 0
27.455000 1.062632 0
27.460000 1.172201 3
27.465000 1.099693 0
27.470000 0.867683 0
27.475000 0.546763 0
27.480000 0.219656 0
27.485000 -0.051362 0
27.490000 -0.235253 0
27.495000 -0.326751 0
27.500000 -0.338154 4
27.505000 -0.293433 0
27.510000 -0.221616 0
27.515000 -0.148161 0
27.520000 -0.088209 0
27.525000 -0.045554 0
27.530000 -0.016627 0
27.535000 0.004381 0
27.540000 0.022268 0
27.545000 0.039907 0
27.550000 0.058656 0
27.555000 0.079011 0
27.560000 0.101067 0
27.565000 0.124739 0
27.570000 0.149840 0
27.575000 0.176107 0
27.580000 0.203210 0
27.585000 0.230751 0
27.590000 0.258280 0
27.595000 0.285297 0
27.600000 0.311272 0
27.605000 0.335657 0
27.610000 0.357909 0
27.615000 0.377503 0
27.620000 0.393960 0
27.625000 0.406858 0
27.630000 0.415857 0
27.635000 0.420707 0
27.640000 0.421262 5
27.645000 0.417489 0
27.650000 0.409463 0
27.655000 0.397371 0
27.660000 0.381502 0
27.665000 0.362232 0
27.670000 0.340014 0
27.675000 0.315357 0
27.680000 0.288806 0
27.685000 0.260923 0
27.690000 0.232267 0
27.695000 0.203375 0
27.700000 0.174748 0
27.705000 0.146834 0
27.710000 0.120022 0
27.715000 0.094634 0
27.720000 0.070921 0
27.725000 0.049062 0
27.730000 0.029173 0
27.735000 0.011303 0
27.740000 -0.004550 0
27.745000 -0.018438 0
27.750000 -0.030449 0
27.755000 -0.040701 0
27.760000 -0.049334 0
27.765000 -0.056497 0
27.770000 -0.062349 0
27.775000 -0.067046 0
27.780000 -0.070741 0
27.785000 -0.073576 0
27.790000 -0.075683 0
27.795000 -0.077182 0
27.800000 -0.078180 0
27.805000 -0.078768 0
27.810000 -0.079026 0
27.815000 -0.079021 0
27.820000 -0.078714 0
27.825000 -0.077849 0
27.830000 -0.076988 0
27.835000 -0.076132 0
27.840000 -0.075279 0
27.845000 -0.074431 0
27.850000 -0.073588 0
27.855000 -0.072748 0
27.860000 -0.071913 0
27.865000 -0.071081 0
27.870000 -0.070254 0
27.875000 -0.069431 0
27.880000 -0.068612 0
27.885000 -0.067796 0
27.890000 -0.066983 0
27.895000 -0.066172 0
27.900000 -0.065360 0
27.905000 -0.064545 0
27.910000 -0.063721 0
27.915000 -0.062877 0
27.920000 -0.061998 0
27.925000 -0.061058 0
27.930000 -0.060020 0
27.935000 -0.058825 0
27.940000 -0.057390 0
27.945000 -0.055599 0
27.950000 -0.053296 0
27.955000 -0.050275 0
27.960000 -0.046283 0
27.965000 -0.041013 0
27.970000 -0.034118 0
27.975000 -0.025224 0
27.980000 -0.013966 0
27.985000 -0.000019 0
27.990000 0.016843 0
27.995000 0.036701 0
28.000000 0.059427 0
28.005000 0.084649 0
28.010000 0.111717 0
28.015000 0.139709 0
28.020000 0.167465 0
28.025000 0.193652 0
28.030000 0.216869 0
28.035000 0.235765 0
28.040000 0.249172 0
28.045000 0.256218 0
28.050000 0.256424 1
28.055000 0.249760 0
28.060000 0.236642 0
28.065000 0.217895 0
28.070000 0.194665 0
28.075000 0.168301 0
28.080000 0.140227 0
28.085000 0.111806 0
28.090000 0.084214 0
28.095000 0.058284 0
28.100000 0.034273 0
28.105000 0.011509 0
28.110000 -0.012034 0
28.115000 -0.039784 0
28.120000 -0.075509 0
28.125000 -0.120603 0
28.130000 -0.170465 0
28.135000 -0.212218 0
28.140000 -0.225908 2
28.145000 -0.188835 0
28.150000 -0.080795 0
28.155000 0.110091 0
28.160000 0.378246 0
28.165000 0.688803 0
28.170000 0.973642 0
28.175000 1.149095 0
28.180000 1.153785 3
28.185000 0.982734 0
28.190000 0.689605 0
28.195000 0.355793 0
28.200000 0.054259 0
28.205000 -0.170759 0
28.210000 -0.303746 0
28.215000 -0.349776 4
28.220000 -0.327859 0
28.225000 -0.265290 0
28.230000 -0.189951 0
28.235000 -0.122222 0
28.240000 -0.071066 0
28.245000 -0.035902 0
28.250000 -0.011541 0
28.255000 0.007504 0
28.260000 0.025050 0
28.265000 0.043136 0
28.270000 0.062626 0
28.275000 0.083786 0
28.280000 0.106613 0
28.285000 0.130970 0
28.290000 0.156641 0
28.295000 0.183334 0
28.300000 0.210696 0
28.305000 0.238310 0
28.310000 0.265710 0
28.315000 0.292390 0
28.320000 0.317816 0
28.325000 0.341448 0
28.330000 0.362755 0
28.335000 0.381234 0
28.340000 0.396431 0
28.345000 0.407958 0
28.350000 0.415511 0
28.355000 0.418878 5
28.360000 0.417955 0
28.365000 0.412745 0
28.370000 0.403362 0
28.375000 0.390023 0
28.380000 0.373043 0
28.385000 0.352819 0
28.390000 0.329818 0
28.395000 0.304555 0
28.400000 0.277574 0
