0.000000 1.162494 3
0.005000 1.032760 0
0.010000 0.710394 0
0.015000 0.316007 0
0.020000 -0.034869 0
0.025000 -0.276141 0
0.030000 -0.390884 0
0.035000 -0.395431 4
0.040000 -0.326911 0
0.045000 -0.229704 0
0.050000 -0.138729 0
0.055000 -0.069393 0
0.060000 -0.020416 0
0.065000 0.016393 0
0.070000 0.048425 0
0.075000 0.079766 0
0.080000 0.111871 0
0.085000 0.144833 0
0.090000 0.178178 0
0.095000 0.211211 0
0.100000 0.243139 0
0.105000 0.273123 0
0.110000 0.300315 0
0.115000 0.323904 0
0.120000 0.343150 0
0.125000 0.357425 0
0.130000 0.366246 0
0.135000 0.369301 5
0.140000 0.366466 0
0.145000 0.357816 0
0.150000 0.343617 0
0.155000 0.324316 0
0.160000 0.300515 0
0.165000 0.272937 0
0.170000 0.242396 0
0.175000 0.209752 0
0.180000 0.175869 0
0.185000 0.141586 0
0.190000 0.107674 0
0.195000 0.074817 0
0.200000 0.043591 0
0.205000 0.014449 0
0.210000 -0.012277 0
0.215000 -0.036377 0
0.220000 -0.057751 0
0.225000 -0.076399 0
0.230000 -0.092403 0
0.235000 -0.105909 0
0.240000 -0.117110 0
0.245000 -0.126229 0
0.250000 -0.133507 0
0.255000 -0.139184 0
0.260000 -0.143495 0
0.265000 -0.146660 0
0.270000 -0.148880 0
0.275000 -0.149963 0
0.280000 -0.148879 0
0.285000 -0.147800 0
0.290000 -0.146726 0
0.295000 -0.145657 0
0.300000 -0.144592 0
0.305000 -0.143529 0
0.310000 -0.142465 0
0.315000 -0.141395 0
0.320000 -0.140307 0
0.325000 -0.139184 0
0.330000 -0.137992 0
0.335000 -0.136680 0
0.340000 -0.135162 0
0.345000 -0.133312 0
0.350000 -0.130944 0
0.355000 -0.127798 0
0.360000 -0.123527 0
0.365000 -0.117697 0
0.370000 -0.109788 0
0.375000 -0.099231 0
0.380000 -0.085454 0
0.385000 -0.067967 0
0.390000 -0.046454 0
0.395000 -0.020892 0
0.400000 0.008354 0
0.405000 0.040451 0
0.410000 0.074081 0
0.415000 0.107494 0
0.420000 0.138631 0
0.425000 0.165331 0
0.430000 0.185568 0
0.435000 0.197712 0
0.440000 0.200743 1
0.445000 0.194394 0
0.450000 0.179193 0
0.455000 0.156391 0
0.460000 0.127787 0
0.465000 0.095489 0
0.470000 0.061591 0
0.475000 0.027747 0
0.480000 -0.005502 0
0.485000 -0.039647 0
0.490000 -0.078777 0
0.495000 -0.128135 0
0.500000 -0.189152 0
0.505000 -0.252496 0
0.510000 -0.294626 2
0.515000 -0.282173 0
0.520000 -0.181581 0
0.525000 0.029980 0
0.530000 0.348613 0
0.535000 0.721152 0
0.540000 1.038441 0
0.545000 1.175973 3
0.550000 1.068881 0
0.555000 0.759401 0
0.560000 0.366093 0
0.565000 0.008527 0
0.570000 -0.242086 0
0.575000 -0.365471 0
0.580000 -0.376239 4
0.585000 -0.310899 0
0.590000 -0.214312 0
0.595000 -0.122625 0
0.600000 -0.052395 0
0.605000 -0.002877 0
0.610000 0.034105 0
0.615000 0.066107 0
0.620000 0.097349 0
0.625000 0.129348 0
0.630000 0.162213 0
0.635000 0.195469 0
0.640000 0.228416 0
0.645000 0.260253 0
0.650000 0.290130 0
0.655000 0.317192 0
0.660000 0.340620 0
0.665000 0.359668 0
0.670000 0.373704 0
0.675000 0.382245 0
0.680000 0.384982 5
0.685000 0.381799 0
0.690000 0.372779 0
0.695000 0.358202 0
0.700000 0.338527 0
0.705000 0.314371 0
0.710000 0.286473 0
0.715000 0.255660 0
0.720000 0.222802 0
0.725000 0.188772 0
0.730000 0.154412 0
0.735000 0.120495 0
0.740000 0.087701 0
0.745000 0.056600 0
0.750000 0.027637 0
0.755000 0.001133 0
0.760000 -0.022713 0
0.765000 -0.043815 0
0.770000 -0.062183 0
0.775000 -0.077909 0
0.780000 -0.091150 0
0.785000 -0.102105 0
0.790000 -0.111005 0
0.795000 -0.118090 0
0.800000 -0.123606 0
0.805000 -0.127788 0
0.810000 -0.130854 0
0.815000 -0.133002 0
0.820000 -0.132459 0
0.825000 -0.131462 0
0.830000 -0.130470 0
0.835000 -0.129482 0
0.840000 -0.128499 0
0.845000 -0.127519 0
0.850000 -0.126540 0
0.855000 -0.125559 0
0.860000 -0.124569 0
0.865000 -0.123558 0
0.870000 -0.122504 0
0.875000 -0.121370 0
0.880000 -0.120097 0
0.885000 -0.118590 0
0.890000 -0.116706 0
0.895000 -0.114240 0
0.900000 -0.110906 0
0.905000 -0.106331 0
0.910000 -0.100049 0
0.915000 -0.091518 0
0.920000 -0.080155 0
0.925000 -0.065398 0
0.930000 -0.046791 0
0.935000 -0.024094 0
0.940000 0.002607 0
0.945000 0.032800 0
0.950000 0.065487 0
0.955000 0.099187 0
0.960000 0.132009 0
0.965000 0.161814 0
0.970000 0.186435 0
0.975000 0.203935 0
0.980000 0.212861 1
0.985000 0.212441 0
0.990000 0.202693 0
0.995000 0.184433 0
1.000000 0.159154 0
1.005000 0.128824 0
1.010000 0.095607 0
1.015000 0.061511 0
1.020000 0.027863 0
1.025000 -0.005490 0
1.030000 -0.041109 0
1.035000 -0.083956 0
1.040000 -0.138543 0
1.045000 -0.202570 0
1.050000 -0.260535 0
1.055000 -0.283428 2
1.060000 -0.236161 0
1.065000 -0.088108 0
1.070000 0.174347 0
1.075000 0.527599 0
1.080000 0.890715 0
1.085000 1.138018 0
1.090000 1.162712 3
1.095000 0.948635 0
1.100000 0.582398 0
1.105000 0.194036 0
1.110000 -0.115992 0
1.115000 -0.302653 0
1.120000 -0.365126 4
1.125000 -0.331049 0
1.130000 -0.243937 0
1.135000 -0.146721 0
1.140000 -0.066000 0
1.145000 -0.008051 0
1.150000 0.033311 0
1.155000 0.066685 0
1.160000 0.097872 0
1.165000 0.129418 0
1.170000 0.161897 0
1.175000 0.195006 0
1.180000 0.228104 0
1.185000 0.260407 0
1.190000 0.291066 0
1.195000 0.319212 0
1.200000 0.343992 0
1.205000 0.364618 0
1.210000 0.380403 0
1.215000 0.390798 0
1.220000 0.395428 5
1.225000 0.394109 0
1.230000 0.386858 0
1.235000 0.373897 0
1.240000 0.355640 0
1.245000 0.332668 0
1.250000 0.305699 0
1.255000 0.275551 0
1.260000 0.243100 0
1.265000 0.209235 0
1.270000 0.174824 0
1.275000 0.140672 0
1.280000 0.107495 0
1.285000 0.075901 0
1.290000 0.046370 0
1.295000 0.019257 0
1.300000 -0.005211 0
1.305000 -0.026922 0
1.310000 -0.045869 0
1.315000 -0.062133 0
1.320000 -0.075859 0
1.325000 -0.087245 0
1.330000 -0.096520 0
1.335000 -0.103930 0
1.340000 -0.109721 0
1.345000 -0.114136 0
1.350000 -0.117398 0
1.355000 -0.119711 0
1.360000 -0.119249 0
1.365000 -0.118317 0
1.370000 -0.117391 0
1.375000 -0.116469 0
1.380000 -0.115550 0
1.385000 -0.114635 0
1.390000 -0.113721 0
1.395000 -0.112804 0
1.400000 -0.111879 0
1.405000 -0.110932 0
1.410000 -0.109943 0
1.415000 -0.108875 0
1.420000 -0.107667 0
1.425000 -0.106224 0
1.430000 -0.104403 0
1.435000 -0.101992 0
1.440000 -0.098704 0
1.445000 -0.094156 0
1.450000 -0.087873 0
1.455000 -0.079304 0
1.460000 -0.067854 0
1.465000 -0.052957 0
1.470000 -0.034157 0
1.475000 -0.011229 0
1.480000 0.015712 0
1.485000 0.046111 0
1.490000 0.078910 0
1.495000 0.112561 0
1.500000 0.145111 0
1.505000 0.174371 0
1.510000 0.198154 0
1.515000 0.214541 0
1.520000 0.222137 1
1.525000 0.220267 0
1.530000 0.209073 0
1.535000 0.189499 0
1.540000 0.163157 0
1.545000 0.132102 0
1.550000 0.098534 0
1.555000 0.064407 0
1.560000 0.030848 0
1.565000 -0.002729 0
1.570000 -0.039507 0
1.575000 -0.084805 0
1.580000 -0.142279 0
1.585000 -0.206877 0
1.590000 -0.259220 0
1.595000 -0.267371 2
1.600000 -0.195836 0
1.605000 -0.016667 0
1.610000 0.275974 0
1.615000 0.643010 0
1.620000 0.985394 0
1.625000 1.172766 3
1.630000 1.118562 0
1.635000 0.841927 0
1.640000 0.454413 0
1.645000 0.083791 0
1.650000 -0.186807 0
1.655000 -0.329051 0
1.660000 -0.353515 4
1.665000 -0.295283 0
1.670000 -0.200227 0
1.675000 -0.107155 0
1.680000 -0.035108 0
1.685000 0.015518 0
1.690000 0.052883 0
1.695000 0.084891 0
1.700000 0.116027 0
1.705000 0.147915 0
1.710000 0.180684 0
1.715000 0.213850 0
1.720000 0.246692 0
1.725000 0.278386 0
1.730000 0.308059 0
1.735000 0.334835 0
1.740000 0.357875 0
1.745000 0.376420 0
1.750000 0.389836 0
1.755000 0.397642 0
1.760000 0.399543 5
1.765000 0.395445 0
1.770000 0.385464 0
1.775000 0.369914 0
1.780000 0.349299 0
1.785000 0.324275 0
1.790000 0.295623 0
1.795000 0.264202 0
1.800000 0.230911 0
1.805000 0.196641 0
1.810000 0.162242 0
1.815000 0.128486 0
1.820000 0.096040 0
1.825000 0.065453 0
1.830000 0.037145 0
1.835000 0.011405 0
1.840000 -0.011603 0
1.845000 -0.031824 0
1.850000 -0.049301 0
1.855000 -0.064155 0
1.860000 -0.076565 0
1.865000 -0.086750 0
1.870000 -0.094953 0
1.875000 -0.101425 0
1.880000 -0.106412 0
1.885000 -0.110150 0
1.890000 -0.112854 0
1.895000 -0.114314 0
1.900000 -0.113408 0
1.905000 -0.112506 0
1.910000 -0.111608 0
1.915000 -0.110714 0
1.920000 -0.109824 0
1.925000 -0.108935 0
1.930000 -0.108046 0
1.935000 -0.107150 0
1.940000 -0.106238 0
1.945000 -0.105292 0
1.950000 -0.104280 0
1.955000 -0.103153 0
1.960000 -0.101825 0
1.965000 -0.100170 0
1.970000 -0.097999 0
1.975000 -0.095046 0
1.980000 -0.090955 0
1.985000 -0.085276 0
1.990000 -0.077470 0
1.995000 -0.066945 0
2.000000 -0.053111 0
2.005000 -0.035465 0
2.010000 -0.013702 0
2.015000 0.012169 0
2.020000 0.041713 0
2.025000 0.073999 0
2.030000 0.107586 0
2.035000 0.140591 0
2.040000 0.170842 0
2.045000 0.196103 0
2.050000 0.214346 0
2.055000 0.224017 0
2.060000 0.224255 1
2.065000 0.215017 0
2.070000 0.197088 0
2.075000 0.171971 0
2.080000 0.141673 0
2.085000 0.108413 0
2.090000 0.074254 0
2.095000 0.040551 0
2.100000 0.007110 0
2.105000 -0.028784 0
2.110000 -0.072287 0
2.115000 -0.127809 0
2.120000 -0.192192 0
2.125000 -0.248255 0
2.130000 -0.265206 2
2.135000 -0.207020 0
2.140000 -0.043645 0
2.145000 0.235050 0
2.150000 0.596901 0
2.155000 0.949098 0
2.160000 1.160341 3
2.165000 1.134350 0
2.170000 0.878219 0
2.175000 0.496398 0
2.180000 0.118620 0
2.185000 -0.165644 0
2.190000 -0.322542 0
2.195000 -0.359044 4
2.200000 -0.308016 0
2.205000 -0.214919 0
2.210000 -0.120203 0
2.215000 -0.045395 0
2.220000 0.007393 0
2.225000 0.045864 0
2.230000 0.078217 0
2.235000 0.109344 0
2.240000 0.141132 0
2.245000 0.173828 0
2.250000 0.206996 0
2.255000 0.239934 0
2.260000 0.271826 0
2.265000 0.301806 0
2.270000 0.328994 0
2.275000 0.352546 0
2.280000 0.371694 0
2.285000 0.385784 0
2.290000 0.394317 0
2.295000 0.396973 5
2.300000 0.393634 0
2.305000 0.384388 0
2.310000 0.369527 0
2.315000 0.349530 0
2.320000 0.325036 0
2.325000 0.296812 0
2.330000 0.265707 0
2.335000 0.232618 0
2.340000 0.198438 0
2.345000 0.164024 0
2.350000 0.130157 0
2.355000 0.097521 0
2.360000 0.066678 0
2.365000 0.038066 0
2.370000 0.011990 0
2.375000 -0.011370 0
2.380000 -0.031946 0
2.385000 -0.049769 0
2.390000 -0.064950 0
2.395000 -0.077662 0
2.400000 -0.088119 0
2.405000 -0.096561 0
2.410000 -0.103239 0
2.415000 -0.108401 0
2.420000 -0.112283 0
2.425000 -0.115103 0
2.430000 -0.117058 0
2.435000 -0.116552 0
2.440000 -0.115635 0
2.445000 -0.114722 0
2.450000 -0.113812 0
2.455000 -0.112907 0
2.460000 -0.112003 0
2.465000 -0.111099 0
2.470000 -0.110190 0
2.475000 -0.109267 0
2.480000 -0.108312 0
2.485000 -0.107299 0
2.490000 -0.106177 0
2.495000 -0.104871 0
2.500000 -0.103259 0
2.505000 -0.101162 0
2.510000 -0.098328 0
2.515000 -0.094415 0
2.520000 -0.088985 0
2.525000 -0.081513 0
2.530000 -0.071412 0
2.535000 -0.058086 0
2.540000 -0.041015 0
2.545000 -0.019858 0
2.550000 0.005431 0
2.555000 0.034487 0
2.560000 0.066455 0
2.565000 0.099971 0
2.570000 0.133210 0
2.575000 0.164035 0
2.580000 0.190204 0
2.585000 0.209642 0
2.590000 0.220708 0
2.595000 0.222426 1
2.600000 0.214624 0
2.605000 0.197964 0
2.610000 0.173849 0
2.615000 0.144222 0
2.620000 0.111290 0
2.625000 0.077167 0
2.630000 0.043367 0
2.635000 0.010003 0
2.640000 -0.025197 0
2.645000 -0.067106 0
2.650000 -0.120634 0
2.655000 -0.184340 0
2.660000 -0.243496 0
2.665000 -0.269104 2
2.670000 -0.225270 0
2.675000 -0.080223 0
2.680000 0.180631 0
2.685000 0.533705 0
2.690000 0.896081 0
2.695000 1.138837 0
2.700000 1.154220 3
2.705000 0.930780 0
2.710000 0.560866 0
2.715000 0.174180 0
2.720000 -0.131264 0
2.725000 -0.312717 0
2.730000 -0.370765 4
2.735000 -0.333834 0
2.740000 -0.245638 0
2.745000 -0.148645 0
2.750000 -0.068664 0
2.755000 -0.011361 0
2.760000 0.029654 0
2.765000 0.062920 0
2.770000 0.094117 0
2.775000 0.125710 0
2.780000 0.158234 0
2.785000 0.191374 0
2.790000 0.224484 0
2.795000 0.256782 0
2.800000 0.287419 0
2.805000 0.315528 0
2.810000 0.340259 0
2.815000 0.360828 0
2.820000 0.376551 0
2.825000 0.386885 0
2.830000 0.391457 5
2.835000 0.390084 0
2.840000 0.382790 0
2.845000 0.369796 0
2.850000 0.351517 0
2.855000 0.328534 0
2.860000 0.301564 0
2.865000 0.271424 0
2.870000 0.238986 0
2.875000 0.205140 0
2.880000 0.170749 0
2.885000 0.136617 0
2.890000 0.103458 0
2.895000 0.071879 0
2.900000 0.042359 0
2.905000 0.015252 0
2.910000 -0.009213 0
2.915000 -0.030926 0
2.920000 -0.049879 0
2.925000 -0.066149 0
2.930000 -0.079884 0
2.935000 -0.091279 0
2.940000 -0.100562 0
2.945000 -0.107978 0
2.950000 -0.113774 0
2.955000 -0.118191 0
2.960000 -0.121453 0
2.965000 -0.123764 0
2.970000 -0.123284 0
2.975000 -0.122333 0
2.980000 -0.121386 0
2.985000 -0.120444 0
2.990000 -0.119506 0
2.995000 -0.118570 0
3.000000 -0.117637 0
3.005000 -0.116701 0
3.010000 -0.115757 0
3.015000 -0.114792 0
3.020000 -0.113786 0
3.025000 -0.112702 0
3.030000 -0.111482 0
3.035000 -0.110032 0
3.040000 -0.108210 0
3.045000 -0.105811 0
3.050000 -0.102549 0
3.055000 -0.098046 0
3.060000 -0.091835 0
3.065000 -0.083366 0
3.070000 -0.072049 0
3.075000 -0.057313 0
3.080000 -0.038699 0
3.085000 -0.015966 0
3.090000 0.010792 0
3.095000 0.041044 0
3.100000 0.073764 0
3.105000 0.107432 0
3.110000 0.140119 0
3.115000 0.169650 0
3.120000 0.193837 0
3.125000 0.210740 0
3.130000 0.218930 1
3.135000 0.217684 0
3.140000 0.207092 0
3.145000 0.188046 0
3.150000 0.162116 0
3.155000 0.131331 0
3.160000 0.097885 0
3.165000 0.063762 0
3.170000 0.030170 0
3.175000 -0.003315 0
3.180000 -0.039665 0
3.185000 -0.084106 0
3.190000 -0.140637 0
3.195000 -0.205163 0
3.200000 -0.259535 0
3.205000 -0.272636 2
3.210000 -0.208938 0
3.215000 -0.039480 0
3.220000 0.244202 0
3.225000 0.607897 0
3.230000 0.957690 0
3.235000 1.163667 3
3.240000 1.133308 0
3.245000 0.876418 0
3.250000 0.495082 0
3.255000 0.115866 0
3.260000 -0.172848 0
3.265000 -0.336344 0
3.270000 -0.379814 4
3.275000 -0.333982 0
3.280000 -0.242740 0
3.285000 -0.146667 0
3.290000 -0.068946 0
3.295000 -0.013480 0
3.300000 0.026598 0
3.305000 0.059576 0
3.310000 0.090777 0
3.315000 0.122451 0
3.320000 0.155045 0
3.325000 0.188223 0
3.330000 0.221340 0
3.335000 0.253621 0
3.340000 0.284231 0
3.345000 0.312314 0
3.350000 0.337036 0
3.355000 0.357624 0
3.360000 0.373406 0
3.365000 0.383845 0
3.370000 0.388571 5
3.375000 0.387401 0
3.380000 0.380351 0
3.385000 0.367632 0
3.390000 0.349643 0
3.395000 0.326950 0
3.400000 0.300251 0
3.405000 0.270344 0
3.410000 0.238086 0
3.415000 0.204353 0
3.420000 0.170000 0
3.425000 0.135826 0
3.430000 0.102544 0
3.435000 0.070763 0
3.440000 0.040973 0
3.445000 0.013539 0
3.450000 -0.011298 0
3.455000 -0.033413 0
3.460000 -0.052784 0
3.465000 -0.069474 0
3.470000 -0.083618 0
3.475000 -0.095401 0
3.480000 -0.105045 0
3.485000 -0.112786 0
3.490000 -0.118871 0
3.495000 -0.123536 0
3.500000 -0.127008 0
3.505000 -0.129492 0
3.510000 -0.130784 0
3.515000 -0.129796 0
3.520000 -0.128812 0
3.525000 -0.127833 0
3.530000 -0.126858 0
3.535000 -0.125887 0
3.540000 -0.124918 0
3.545000 -0.123949 0
3.550000 -0.122973 0
3.555000 -0.121982 0
3.560000 -0.120958 0
3.565000 -0.119870 0
3.570000 -0.118670 0
3.575000 -0.117278 0
3.580000 -0.115573 0
3.585000 -0.113375 0
3.590000 -0.110432 0
3.595000 -0.106409 0
3.600000 -0.100875 0
3.605000 -0.093318 0
3.610000 -0.083167 0
3.615000 -0.069842 0
3.620000 -0.052835 0
3.625000 -0.031807 0
3.630000 -0.006698 0
3.635000 0.022161 0
3.640000 0.053977 0
3.645000 0.087461 0
3.650000 0.120881 0
3.655000 0.152180 0
3.660000 0.179176 0
3.665000 0.199813 0
3.670000 0.212413 0
3.675000 0.215905 1
3.680000 0.209973 0
3.685000 0.195110 0
3.690000 0.172540 0
3.695000 0.144060 0
3.700000 0.111785 0
3.705000 0.077834 0
3.710000 0.043898 0
3.715000 0.010566 0
3.720000 -0.023605 0
3.725000 -0.062685 0
3.730000 -0.111964 0
3.735000 -0.172974 0
3.740000 -0.236423 0
3.745000 -0.278651 2
3.750000 -0.266033 0
3.755000 -0.164767 0
3.760000 0.048019 0
3.765000 0.367945 0
3.770000 0.740501 0
3.775000 1.054828 0
3.780000 1.186015 3
3.785000 1.072515 0
3.790000 0.759890 0
3.795000 0.366236 0
3.800000 0.009345 0
3.805000 -0.240890 0
3.810000 -0.364593 0
3.815000 -0.376158 4
3.820000 -0.311562 0
3.825000 -0.215177 0
3.830000 -0.123067 0
3.835000 -0.052118 0
3.840000 -0.001976 0
3.845000 0.035351 0
3.850000 0.067454 0
3.855000 0.098664 0
3.860000 0.130589 0
3.865000 0.163391 0
3.870000 0.196623 0
3.875000 0.229605 0
3.880000 0.261547 0
3.885000 0.291613 0
3.890000 0.318959 0
3.895000 0.342767 0
3.900000 0.362291 0
3.905000 0.376895 0
3.910000 0.386082 0
3.915000 0.389526 5
3.920000 0.387086 0
3.925000 0.378822 0
3.930000 0.364983 0
3.935000 0.346000 0
3.940000 0.322461 0
3.945000 0.295083 0
3.950000 0.264671 0
3.955000 0.232080 0
3.960000 0.198176 0
3.965000 0.163800 0
3.970000 0.129730 0
3.975000 0.096657 0
3.980000 0.065167 0
3.985000 0.035724 0
3.990000 0.008672 0
3.995000 -0.015771 0
4.000000 -0.037493 0
4.005000 -0.056487 0
4.010000 -0.072827 0
4.015000 -0.086653 0
4.020000 -0.098155 0
4.025000 -0.107555 0
4.030000 -0.115089 0
4.035000 -0.121000 0
4.040000 -0.125524 0
4.045000 -0.128880 0
4.050000 -0.131273 0
4.055000 -0.132502 0
4.060000 -0.131505 0
4.065000 -0.130513 0
4.070000 -0.129525 0
4.075000 -0.128542 0
4.080000 -0.127562 0
4.085000 -0.126584 0
4.090000 -0.125606 0
4.095000 -0.124621 0
4.100000 -0.123621 0
4.105000 -0.122586 0
4.110000 -0.121487 0
4.115000 -0.120274 0
4.120000 -0.118866 0
4.125000 -0.117142 0
4.130000 -0.114923 0
4.135000 -0.111958 0
4.140000 -0.107911 0
4.145000 -0.102357 0
4.150000 -0.094785 0
4.155000 -0.084631 0
4.160000 -0.071321 0
4.165000 -0.054349 0
4.170000 -0.033377 0
4.175000 -0.008342 0
4.180000 0.020438 0
4.185000 0.052188 0
4.190000 0.085647 0
4.195000 0.119109 0
4.200000 0.150545 0
4.205000 0.177796 0
4.210000 0.198810 0
4.215000 0.211900 0
4.220000 0.215966 1
4.225000 0.210647 0
4.230000 0.196379 0
4.235000 0.174329 0
4.240000 0.146244 0
4.245000 0.114206 0
4.250000 0.080327 0
4.255000 0.046344 0
4.260000 0.012981 0
4.265000 -0.020954 0
4.270000 -0.059242 0
4.275000 -0.107169 0
4.280000 -0.167025 0
4.285000 -0.231157 0
4.290000 -0.277768 2
4.295000 -0.274287 0
4.300000 -0.186639 0
4.305000 0.010058 0
4.310000 0.316559 0
4.315000 0.687184 0
4.320000 1.019017 0
4.325000 1.185625 3
4.330000 1.111038 0
4.335000 0.823196 0
4.340000 0.433643 0
4.345000 0.065011 0
4.350000 -0.204015 0
4.355000 -0.346735 0
4.360000 -0.373294 4
4.365000 -0.317265 0
4.370000 -0.222953 0
4.375000 -0.128719 0
4.380000 -0.054478 0
4.385000 -0.001838 0
4.390000 0.036733 0
4.395000 0.069193 0
4.400000 0.100354 0
4.405000 0.132124 0
4.410000 0.164797 0
4.415000 0.197980 0
4.420000 0.231008 0
4.425000 0.263101 0
4.430000 0.293424 0
4.435000 0.321126 0
4.440000 0.345382 0
4.445000 0.365435 0
4.450000 0.380629 0
4.455000 0.390446 0
4.460000 0.394540 5
4.465000 0.392746 0
4.470000 0.385101 0
4.475000 0.371835 0
4.480000 0.353361 0
4.485000 0.330253 0
4.490000 0.303217 0
4.495000 0.273055 0
4.500000 0.240620 0
4.505000 0.206784 0
4.510000 0.172392 0
4.515000 0.138235 0
4.520000 0.105014 0
4.525000 0.073328 0
4.530000 0.043655 0
4.535000 0.016350 0
4.540000 -0.008355 0
4.545000 -0.030341 0
4.550000 -0.049591 0
4.555000 -0.066174 0
4.560000 -0.080225 0
4.565000 -0.091931 0
4.570000 -0.101513 0
4.575000 -0.109207 0
4.580000 -0.115258 0
4.585000 -0.119901 0
4.590000 -0.123360 0
4.595000 -0.125840 0
4.600000 -0.127136 0
4.605000 -0.126166 0
4.610000 -0.125200 0
4.615000 -0.124239 0
4.620000 -0.123282 0
4.625000 -0.122329 0
4.630000 -0.121378 0
4.635000 -0.120426 0
4.640000 -0.119468 0
4.645000 -0.118494 0
4.650000 -0.117488 0
4.655000 -0.116419 0
4.660000 -0.115238 0
4.665000 -0.113866 0
4.670000 -0.112184 0
4.675000 -0.110015 0
4.680000 -0.107111 0
4.685000 -0.103137 0
4.690000 -0.097671 0
4.695000 -0.090203 0
4.700000 -0.080167 0
4.705000 -0.066988 0
4.710000 -0.050154 0
4.715000 -0.029319 0
4.720000 -0.004411 0
4.725000 0.024263 0
4.730000 0.055936 0
4.735000 0.089352 0
4.740000 0.122810 0
4.745000 0.154279 0
4.750000 0.181591 0
4.755000 0.202684 0
4.760000 0.215858 0
4.765000 0.220001 1
4.770000 0.214744 0
4.775000 0.200515 0
4.780000 0.178484 0
4.785000 0.150397 0
4.790000 0.118343 0
4.795000 0.084444 0
4.800000 0.050442 0
4.805000 0.017059 0
4.810000 -0.016908 0
4.815000 -0.055266 0
4.820000 -0.103316 0
4.825000 -0.163297 0
4.830000 -0.227396 0
4.835000 -0.273576 2
4.840000 -0.269067 0
4.845000 -0.179739 0
4.850000 0.019107 0
4.855000 0.327558 0
4.860000 0.698600 0
4.865000 1.027875 0
4.870000 1.188826 3
4.875000 1.107098 0
4.880000 0.813384 0
4.885000 0.422434 0
4.890000 0.057400 0
4.895000 -0.204731 0
4.900000 -0.339445 0
4.905000 -0.358884 4
4.910000 -0.298317 0
4.915000 -0.202803 0
4.920000 -0.109967 0
4.925000 -0.038084 0
4.930000 0.012594 0
4.935000 0.050077 0
4.940000 0.082151 0
4.945000 0.113286 0
4.950000 0.145138 0
4.955000 0.177875 0
4.960000 0.211039 0
4.965000 0.243935 0
4.970000 0.275760 0
4.975000 0.305660 0
4.980000 0.332777 0
4.985000 0.356282 0
4.990000 0.375422 0
4.995000 0.389557 0
5.000000 0.398194 0
5.005000 0.401017 5
5.010000 0.397903 0
5.015000 0.388932 0
5.020000 0.374380 0
5.025000 0.354705 0
5.030000 0.330527 0
5.035000 0.302586 0
5.040000 0.271714 0
5.045000 0.238784 0
5.050000 0.204676 0
5.055000 0.170237 0
5.060000 0.136243 0
5.065000 0.103380 0
5.070000 0.072218 0
5.075000 0.043205 0
5.080000 0.016662 0
5.085000 -0.007214 0
5.090000 -0.028336 0
5.095000 -0.046718 0
5.100000 -0.062453 0
5.105000 -0.075701 0
5.110000 -0.086664 0
5.115000 -0.095572 0
5.120000 -0.102670 0
5.125000 -0.108204 0
5.130000 -0.112409 0
5.135000 -0.115504 0
5.140000 -0.117688 0
5.145000 -0.117215 0
5.150000 -0.116294 0
5.155000 -0.115378 0
5.160000 -0.114465 0
5.165000 -0.113557 0
5.170000 -0.112651 0
5.175000 -0.111746 0
5.180000 -0.110838 0
5.185000 -0.109920 0
5.190000 -0.108979 0
5.195000 -0.107992 0
5.200000 -0.106921 0
5.205000 -0.105703 0
5.210000 -0.104240 0
5.215000 -0.102381 0
5.220000 -0.099915 0
5.225000 -0.096544 0
5.230000 -0.091885 0
5.235000 -0.085460 0
5.240000 -0.076717 0
5.245000 -0.065069 0
5.250000 -0.049956 0
5.255000 -0.030941 0
5.260000 -0.007813 0
5.265000 0.019292 0
5.270000 0.049801 0
5.275000 0.082649 0
5.280000 0.116284 0
5.285000 0.148763 0
5.290000 0.177914 0
5.295000 0.201575 0
5.300000 0.217853 0
5.305000 0.225372 1
5.310000 0.223469 0
5.315000 0.212288 0
5.320000 0.192760 0
5.325000 0.166478 0
5.330000 0.135474 0
5.335000 0.101925 0
5.340000 0.067780 0
5.345000 0.034189 0
5.350000 0.000644 0
5.355000 -0.035906 0
5.360000 -0.080688 0
5.365000 -0.137551 0
5.370000 -0.202133 0
5.375000 -0.256088 0
5.380000 -0.268346 2
5.385000 -0.203643 0
5.390000 -0.033357 0
5.395000 0.250710 0
5.400000 0.614408 0
5.405000 0.964475 0
5.410000 1.171892 3
5.415000 1.142931 0
5.420000 0.884946 0
5.425000 0.502630 0
5.430000 0.125106 0
5.435000 -0.158817 0
5.440000 -0.315600 0
5.445000 -0.352229 4
5.450000 -0.301425 0
5.455000 -0.208455 0
5.460000 -0.113680 0
5.465000 -0.038690 0
5.470000 0.014273 0
5.475000 0.052837 0
5.480000 0.085200 0
5.485000 0.116287 0
5.490000 0.148019 0
5.495000 0.180661 0
5.500000 0.213787 0
5.505000 0.246703 0
5.510000 0.278598 0
5.515000 0.308609 0
5.520000 0.335862 0
5.525000 0.359513 0
5.530000 0.378794 0
5.535000 0.393050 0
5.540000 0.401776 0
5.545000 0.404647 5
5.550000 0.401536 0
5.555000 0.392523 0
5.560000 0.377888 0
5.565000 0.358100 0
5.570000 0.333788 0
5.575000 0.305710 0
5.580000 0.274710 0
5.585000 0.241677 0
5.590000 0.207504 0
5.595000 0.173046 0
5.600000 0.139088 0
5.605000 0.106316 0
5.610000 0.075300 0
5.615000 0.046485 0
5.620000 0.020182 0
5.625000 -0.003418 0
5.630000 -0.024242 0
5.635000 -0.042312 0
5.640000 -0.057734 0
5.645000 -0.070676 0
5.650000 -0.081347 0
5.655000 -0.089987 0
5.660000 -0.096843 0
5.665000 -0.102164 0
5.670000 -0.106186 0
5.675000 -0.109128 0
5.680000 -0.111189 0
5.685000 -0.110724 0
5.690000 -0.109836 0
5.695000 -0.108951 0
5.700000 -0.108071 0
5.705000 -0.107194 0
5.710000 -0.106319 0
5.715000 -0.105445 0
5.720000 -0.104565 0
5.725000 -0.103673 0
5.730000 -0.102752 0
5.735000 -0.101776 0
5.740000 -0.100700 0
5.745000 -0.099450 0
5.750000 -0.097913 0
5.755000 -0.095920 0
5.760000 -0.093229 0
5.765000 -0.089511 0
5.770000 -0.084344 0
5.775000 -0.077215 0
5.780000 -0.067545 0
5.785000 -0.054740 0
5.790000 -0.038263 0
5.795000 -0.017742 0
5.800000 0.006919 0
5.805000 0.035422 0
5.810000 0.066995 0
5.815000 0.100352 0
5.820000 0.133742 0
5.825000 0.165072 0
5.830000 0.192109 0
5.835000 0.212741 0
5.840000 0.225248 0
5.845000 0.228533 1
5.850000 0.222288 0
5.855000 0.207035 0
5.860000 0.184056 0
5.865000 0.155211 0
5.870000 0.122676 0
5.875000 0.088603 0
5.880000 0.054655 0
5.885000 0.021274 0
5.890000 -0.013306 0
5.895000 -0.053540 0
5.900000 -0.104692 0
5.905000 -0.167135 0
5.910000 -0.229084 0
5.915000 -0.264063 2
5.920000 -0.236835 0
5.925000 -0.114038 0
5.930000 0.123650 0
5.935000 0.462511 0
5.940000 0.832682 0
5.945000 1.111288 0
5.950000 1.179472 3
5.955000 1.001401 0
5.960000 0.650827 0
5.965000 0.258052 0
5.970000 -0.067627 0
5.975000 -0.272576 0
5.980000 -0.350725 4
5.985000 -0.326886 0
5.990000 -0.243847 0
5.995000 -0.146106 0
6.000000 -0.062997 0
6.005000 -0.002903 0
6.010000 0.039631 0
6.015000 0.073392 0
6.020000 0.104582 0
6.025000 0.136017 0
6.030000 0.168387 0
6.035000 0.201429 0
6.040000 0.234506 0
6.045000 0.266832 0
6.050000 0.297550 0
6.055000 0.325778 0
6.060000 0.350654 0
6.065000 0.371375 0
6.070000 0.387241 0
6.075000 0.397696 0
6.080000 0.402354 5
6.085000 0.401026 0
6.090000 0.393731 0
6.095000 0.380692 0
6.100000 0.362329 0
6.105000 0.339233 0
6.110000 0.312133 0
6.115000 0.281859 0
6.120000 0.249299 0
6.125000 0.215353 0
6.130000 0.180898 0
6.135000 0.146743 0
6.140000 0.113610 0
6.145000 0.082104 0
6.150000 0.052704 0
6.155000 0.025759 0
6.160000 0.001489 0
6.165000 -0.020004 0
6.170000 -0.038721 0
6.175000 -0.054749 0
6.180000 -0.068245 0
6.185000 -0.079412 0
6.190000 -0.088485 0
6.195000 -0.095712 0
6.200000 -0.101346 0
6.205000 -0.105626 0
6.210000 -0.108778 0
6.215000 -0.111005 0
6.220000 -0.110566 0
6.225000 -0.109678 0
6.230000 -0.108795 0
6.235000 -0.107915 0
6.240000 -0.107039 0
6.245000 -0.106166 0
6.250000 -0.105293 0
6.255000 -0.104416 0
6.260000 -0.103529 0
6.265000 -0.102616 0
6.270000 -0.101653 0
6.275000 -0.100599 0
6.280000 -0.099386 0
6.285000 -0.097906 0
6.290000 -0.095999 0
6.295000 -0.093434 0
6.300000 -0.089895 0
6.305000 -0.084971 0
6.310000 -0.078156 0
6.315000 -0.068876 0
6.320000 -0.056530 0
6.325000 -0.040565 0
6.330000 -0.020577 0
6.335000 0.003572 0
6.340000 0.031639 0
6.345000 0.062905 0
6.350000 0.096139 0
6.355000 0.129627 0
6.360000 0.161289 0
6.365000 0.188882 0
6.370000 0.210254 0
6.375000 0.223621 0
6.380000 0.227808 1
6.385000 0.222427 0
6.390000 0.207928 0
6.395000 0.185539 0
6.400000 0.157094 0
6.405000 0.124768 0
6.410000 0.090745 0
6.415000 0.056756 0
6.420000 0.023362 0
6.425000 -0.011036 0
6.430000 -0.050769 0
6.435000 -0.101208 0
6.440000 -0.163211 0
6.445000 -0.225699 0
6.450000 -0.262688 2
6.455000 -0.238894 0
6.460000 -0.120419 0
6.465000 0.113038 0
6.470000 0.449301 0
6.475000 0.820110 0
6.480000 1.102820 0
6.485000 1.176645 3
6.490000 1.003445 0
6.495000 0.655600 0
6.500000 0.262294 0
6.505000 -0.066521 0
6.510000 -0.275838 0
6.515000 -0.358336 4
6.520000 -0.337783 0
6.525000 -0.256272 0
6.530000 -0.158355 0
6.535000 -0.074128 0
6.540000 -0.012855 0
6.545000 0.030451 0
6.550000 0.064552 0
6.555000 0.095823 0
6.560000 0.127239 0
6.565000 0.159581 0
6.570000 0.192625 0
6.575000 0.225757 0
6.580000 0.258202 0
6.585000 0.289112 0
6.590000 0.317612 0
6.595000 0.342840 0
6.600000 0.363992 0
6.605000 0.380363 0
6.610000 0.391383 0
6.615000 0.396653 5
6.620000 0.395966 0
6.625000 0.389318 0
6.630000 0.376910 0
6.635000 0.359141 0
6.640000 0.336578 0
6.645000 0.309935 0
6.650000 0.280025 0
6.655000 0.247727 0
6.660000 0.213936 0
6.665000 0.179528 0
6.670000 0.145320 0
6.675000 0.112039 0
6.680000 0.080305 0
6.685000 0.050612 0
6.690000 0.023325 0
6.695000 -0.001320 0
6.700000 -0.023204 0
6.705000 -0.042314 0
6.710000 -0.058726 0
6.715000 -0.072585 0
6.720000 -0.084086 0
6.725000 -0.093459 0
6.730000 -0.100951 0
6.735000 -0.106810 0
6.740000 -0.111280 0
6.745000 -0.114587 0
6.750000 -0.116937 0
6.755000 -0.116492 0
6.760000 -0.115574 0
6.765000 -0.114662 0
6.770000 -0.113753 0
6.775000 -0.112848 0
6.780000 -0.111946 0
6.785000 -0.111045 0
6.790000 -0.110142 0
6.795000 -0.109230 0
6.800000 -0.108297 0
6.805000 -0.107320 0
6.810000 -0.106264 0
6.815000 -0.105067 0
6.820000 -0.103632 0
6.825000 -0.101814 0
6.830000 -0.099400 0
6.835000 -0.096097 0
6.840000 -0.091519 0
6.845000 -0.085184 0
6.850000 -0.076537 0
6.855000 -0.064979 0
6.860000 -0.049941 0
6.865000 -0.030973 0
6.870000 -0.007862 0
6.875000 0.019260 0
6.880000 0.049808 0
6.885000 0.082691 0
6.890000 0.116325 0
6.895000 0.148725 0
6.900000 0.177683 0
6.905000 0.201007 0
6.910000 0.216794 0
6.915000 0.223689 1
6.920000 0.221069 0
6.925000 0.209144 0
6.930000 0.188924 0
6.935000 0.162079 0
6.940000 0.130700 0
6.945000 0.096997 0
6.950000 0.062887 0
6.955000 0.029380 0
6.960000 -0.004341 0
6.965000 -0.041764 0
6.970000 -0.088310 0
6.975000 -0.147075 0
6.980000 -0.211546 0
6.985000 -0.260508 0
6.990000 -0.260859 2
6.995000 -0.177204 0
7.000000 0.016756 0
7.005000 0.322532 0
7.010000 0.693211 0
7.015000 1.022002 0
7.020000 1.178850 3
7.025000 1.090198 0
7.030000 0.791915 0
7.035000 0.400178 0
7.040000 0.037422 0
7.045000 -0.220965 0
7.050000 -0.351799 0
7.055000 -0.368107 4
7.060000 -0.305710 0
7.065000 -0.209739 0
7.070000 -0.117355 0
7.075000 -0.046180 0
7.080000 0.003971 0
7.085000 0.041214 0
7.090000 0.073253 0
7.095000 0.104446 0
7.100000 0.136382 0
7.105000 0.169192 0
7.110000 0.202409 0
7.115000 0.235330 0
7.120000 0.267148 0
7.125000 0.297011 0
7.130000 0.324056 0
7.135000 0.347459 0
7.140000 0.366468 0
7.145000 0.380448 0
7.150000 0.388913 0
7.155000 0.391552 5
7.160000 0.388252 0
7.165000 0.379098 0
7.170000 0.364376 0
7.175000 0.344551 0
7.180000 0.320248 0
7.185000 0.292215 0
7.190000 0.261283 0
7.195000 0.228331 0
7.200000 0.194237 0
7.205000 0.159846 0
7.210000 0.125933 0
7.215000 0.093178 0
7.220000 0.062147 0
7.225000 0.033282 0
7.230000 0.006899 0
7.235000 -0.016808 0
7.240000 -0.037760 0
7.245000 -0.055974 0
7.250000 -0.071547 0
7.255000 -0.084639 0
7.260000 -0.095456 0
7.265000 -0.104230 0
7.270000 -0.111206 0
7.275000 -0.116628 0
7.280000 -0.120732 0
7.285000 -0.123737 0
7.290000 -0.125839 0
7.295000 -0.125320 0
7.300000 -0.124358 0
7.305000 -0.123402 0
7.310000 -0.122449 0
7.315000 -0.121501 0
7.320000 -0.120555 0
7.325000 -0.119611 0
7.330000 -0.118663 0
7.335000 -0.117705 0
7.340000 -0.116723 0
7.345000 -0.115694 0
7.350000 -0.114578 0
7.355000 -0.113311 0
7.360000 -0.111791 0
7.365000 -0.109867 0
7.370000 -0.107319 0
7.375000 -0.103849 0
7.380000 -0.099064 0
7.385000 -0.092482 0
7.390000 -0.083548 0
7.395000 -0.071673 0
7.400000 -0.056302 0
7.405000 -0.037007 0
7.410000 -0.013596 0
7.415000 0.013773 0
7.420000 0.044497 0
7.425000 0.077479 0
7.430000 0.111138 0
7.435000 0.143510 0
7.440000 0.172415 0
7.445000 0.195698 0
7.450000 0.211489 0
7.455000 0.218453 1
7.460000 0.215975 0
7.465000 0.204252 0
7.470000 0.184265 0
7.475000 0.157642 0
7.480000 0.126438 0
7.485000 0.092829 0
7.490000 0.058732 0
7.495000 0.025218 0
7.500000 -0.008370 0
7.505000 -0.045268 0
7.510000 -0.090773 0
7.515000 -0.148413 0
7.520000 -0.212991 0
7.525000 -0.265121 0
7.530000 -0.273081 2
7.535000 -0.201688 0
7.540000 -0.023210 0
7.545000 0.268360 0
7.550000 0.634912 0
7.555000 0.979090 0
7.560000 1.171595 3
7.565000 1.125586 0
7.570000 0.857694 0
7.575000 0.473186 0
7.580000 0.097107 0
7.585000 -0.185567 0
7.590000 -0.342799 0
7.595000 -0.381291 4
7.600000 -0.332510 0
7.605000 -0.240343 0
7.610000 -0.144667 0
7.615000 -0.067753 0
7.620000 -0.012923 0
7.625000 0.026835 0
7.630000 0.059713 0
7.635000 0.090912 0
7.640000 0.122607 0
7.645000 0.155219 0
7.650000 0.188404 0
7.655000 0.221516 0
7.660000 0.253785 0
7.665000 0.284379 0
7.670000 0.312446 0
7.675000 0.337159 0
7.680000 0.357748 0
7.685000 0.373543 0
7.690000 0.384013 0
7.695000 0.388787 5
7.700000 0.387682 0
7.705000 0.380711 0
7.710000 0.368082 0
7.715000 0.350190 0
7.720000 0.327592 0
7.725000 0.300983 0
7.730000 0.271153 0
7.735000 0.238954 0
7.740000 0.205257 0
7.745000 0.170913 0
7.750000 0.136720 0
7.755000 0.103390 0
7.760000 0.071536 0
7.765000 0.041647 0
7.770000 0.014094 0
7.775000 -0.010879 0
7.780000 -0.033140 0
7.785000 -0.052663 0
7.790000 -0.069507 0
7.795000 -0.083801 0
7.800000 -0.095728 0
7.805000 -0.105505 0
7.810000 -0.113369 0
7.815000 -0.119562 0
7.820000 -0.124323 0
7.825000 -0.127876 0
7.830000 -0.130429 0
7.835000 -0.131768 0
7.840000 -0.130774 0
7.845000 -0.129786 0
7.850000 -0.128802 0
7.855000 -0.127822 0
7.860000 -0.126846 0
7.865000 -0.125873 0
7.870000 -0.124899 0
7.875000 -0.123921 0
7.880000 -0.122928 0
7.885000 -0.121904 0
7.890000 -0.120822 0
7.895000 -0.119635 0
7.900000 -0.118267 0
7.905000 -0.116605 0
7.910000 -0.114477 0
7.915000 -0.111644 0
7.920000 -0.107781 0
7.925000 -0.102474 0
7.930000 -0.095223 0
7.935000 -0.085466 0
7.940000 -0.072623 0
7.945000 -0.056173 0
7.950000 -0.035748 0
7.955000 -0.011240 0
7.960000 0.017086 0
7.965000 0.048515 0
7.970000 0.081842 0
7.975000 0.115406 0
7.980000 0.147203 0
7.985000 0.175068 0
7.990000 0.196915 0
7.995000 0.210995 0
8.000000 0.216126 1
8.005000 0.211856 0
8.010000 0.198533 0
8.015000 0.177254 0
8.020000 0.149718 0
8.025000 0.117993 0
8.030000 0.084212 0
8.035000 0.050181 0
8.040000 0.016768 0
8.045000 -0.016990 0
8.050000 -0.054638 0
8.055000 -0.101470 0
8.060000 -0.160349 0
8.065000 -0.224779 0
8.070000 -0.274150 0
8.075000 -0.276402 2
8.080000 -0.197056 0
8.085000 -0.009888 0
8.090000 0.288644 0
8.095000 0.657245 0
8.100000 0.996672 0
8.105000 1.179476 3
8.110000 1.123328 0
8.115000 0.848563 0
8.120000 0.462245 0
8.125000 0.088244 0
8.130000 -0.190677 0
8.135000 -0.344132 0
8.140000 -0.379709 4
8.145000 -0.329262 0
8.150000 -0.236612 0
8.155000 -0.141178 0
8.160000 -0.064706 0
8.165000 -0.010207 0
8.170000 0.029387 0
8.175000 0.062208 0
8.180000 0.093394 0
8.185000 0.125085 0
8.190000 0.157691 0
8.195000 0.190865 0
8.200000 0.223965 0
8.205000 0.256223 0
8.210000 0.286810 0
8.215000 0.314881 0
8.220000 0.339610 0
8.225000 0.360229 0
8.230000 0.376073 0
8.235000 0.386607 0
8.240000 0.391463 5
8.245000 0.390455 0
8.250000 0.383591 0
8.255000 0.371076 0
8.260000 0.353297 0
8.265000 0.330807 0
8.270000 0.304293 0
8.275000 0.274540 0
8.280000 0.242396 0
8.285000 0.208727 0
8.290000 0.174382 0
8.295000 0.140157 0
8.300000 0.106768 0
8.305000 0.074825 0
8.310000 0.044826 0
8.315000 0.017141 0
8.320000 -0.007977 0
8.325000 -0.030395 0
8.330000 -0.050078 0
8.335000 -0.067082 0
8.340000 -0.081533 0
8.345000 -0.093610 0
8.350000 -0.103526 0
8.355000 -0.111517 0
8.360000 -0.117825 0
8.365000 -0.122687 0
8.370000 -0.126329 0
8.375000 -0.128957 0
8.380000 -0.130351 0
8.385000 -0.129365 0
8.390000 -0.128383 0
8.395000 -0.127406 0
8.400000 -0.126434 0
8.405000 -0.125465 0
8.410000 -0.124499 0
8.415000 -0.123533 0
8.420000 -0.122562 0
8.425000 -0.121578 0
8.430000 -0.120566 0
8.435000 -0.119499 0
8.440000 -0.118333 0
8.445000 -0.116997 0
8.450000 -0.115380 0
8.455000 -0.113322 0
8.460000 -0.110590 0
8.465000 -0.106873 0
8.470000 -0.101768 0
8.475000 -0.094786 0
8.480000 -0.085373 0
8.485000 -0.072951 0
8.490000 -0.056990 0
8.495000 -0.037096 0
8.500000 -0.013124 0
8.505000 0.014717 0
8.510000 0.045778 0
8.515000 0.078925 0
8.520000 0.112562 0
8.525000 0.144731 0
8.530000 0.173286 0
8.535000 0.196124 0
8.540000 0.211438 0
8.545000 0.217955 1
8.550000 0.215109 0
8.555000 0.203126 0
8.560000 0.182988 0
8.565000 0.156308 0
8.570000 0.125104 0
8.575000 0.091512 0
8.580000 0.057420 0
8.585000 0.023900 0
8.590000 -0.009630 0
8.595000 -0.046251 0
8.600000 -0.091126 0
8.605000 -0.147992 0
8.610000 -0.212528 0
8.615000 -0.266786 0
8.620000 -0.280357 2
8.625000 -0.218568 0
8.630000 -0.052905 0
8.635000 0.225917 0
8.640000 0.587029 0
8.645000 0.942119 0
8.650000 1.164846 3
8.655000 1.158078 0
8.660000 0.919890 0
8.665000 0.544909 0
8.670000 0.160592 0
8.675000 -0.139521 0
8.680000 -0.315852 0
8.685000 -0.370349 4
8.690000 -0.331672 0
8.695000 -0.243031 0
8.700000 -0.146083 0
8.705000 -0.066081 0
8.710000 -0.008603 0
8.715000 0.032599 0
8.720000 0.065955 0
8.725000 0.097145 0
8.730000 0.128679 0
8.735000 0.161137 0
8.740000 0.194233 0
8.745000 0.227344 0
8.750000 0.259705 0
8.755000 0.290487 0
8.760000 0.318835 0
8.765000 0.343910 0
8.770000 0.364934 0
8.775000 0.381219 0
8.780000 0.392216 0
8.785000 0.397534 5
8.790000 0.396970 0
8.795000 0.390517 0
8.800000 0.378365 0
8.805000 0.360894 0
8.810000 0.338649 0
8.815000 0.312317 0
8.820000 0.282685 0
8.825000 0.250606 0
8.830000 0.216954 0
8.835000 0.182586 0
8.840000 0.148310 0
8.845000 0.114849 0
8.850000 0.082825 0
8.855000 0.052741 0
8.860000 0.024976 0
8.865000 -0.000216 0
8.870000 -0.022695 0
8.875000 -0.042429 0
8.880000 -0.059471 0
8.885000 -0.073949 0
8.890000 -0.086044 0
8.895000 -0.095972 0
8.900000 -0.103969 0
8.905000 -0.110281 0
8.910000 -0.115145 0
8.915000 -0.118790 0
8.920000 -0.121424 0
8.925000 -0.122831 0
8.930000 -0.121882 0
8.935000 -0.120938 0
8.940000 -0.119998 0
8.945000 -0.119063 0
8.950000 -0.118131 0
8.955000 -0.117201 0
8.960000 -0.116271 0
8.965000 -0.115335 0
8.970000 -0.114385 0
8.975000 -0.113405 0
8.980000 -0.112367 0
8.985000 -0.111223 0
8.990000 -0.109899 0
8.995000 -0.108281 0
9.000000 -0.106196 0
9.005000 -0.103406 0
9.010000 -0.099583 0
9.015000 -0.094312 0
9.020000 -0.087089 0
9.025000 -0.077350 0
9.030000 -0.064514 0
9.035000 -0.048057 0
9.040000 -0.027611 0
9.045000 -0.003075 0
9.050000 0.025281 0
9.055000 0.056727 0
9.060000 0.090042 0
9.065000 0.123550 0
9.070000 0.155230 0
9.075000 0.182905 0
9.080000 0.204489 0
9.085000 0.218237 0
9.090000 0.222986 1
9.095000 0.218313 0
9.100000 0.204597 0
9.105000 0.182969 0
9.110000 0.155158 0
9.115000 0.123250 0
9.120000 0.089383 0
9.125000 0.055341 0
9.130000 0.021920 0
9.135000 -0.011976 0
9.140000 -0.050058 0
9.145000 -0.097652 0
9.150000 -0.157259 0
9.155000 -0.221519 0
9.160000 -0.268783 2
9.165000 -0.266352 0
9.170000 -0.179823 0
9.175000 0.016051 0
9.180000 0.322243 0
9.185000 0.692837 0
9.190000 1.024025 0
9.195000 1.188471 3
9.200000 1.109305 0
9.205000 0.816733 0
9.210000 0.425911 0
9.215000 0.060906 0
9.220000 -0.200764 0
9.225000 -0.334568 0
9.230000 -0.352939 4
9.235000 -0.291576 0
9.240000 -0.195860 0
9.245000 -0.103392 0
9.250000 -0.032122 0
9.255000 0.018031 0
9.260000 0.055213 0
9.265000 0.087179 0
9.270000 0.118305 0
9.275000 0.150181 0
9.280000 0.182932 0
9.285000 0.216084 0
9.290000 0.248927 0
9.295000 0.280648 0
9.300000 0.310389 0
9.305000 0.337282 0
9.310000 0.360498 0
9.315000 0.379286 0
9.320000 0.393008 0
9.325000 0.401184 0
9.330000 0.403507 5
9.335000 0.399872 0
9.340000 0.390374 0
9.345000 0.375310 0
9.350000 0.355159 0
9.355000 0.330554 0
9.360000 0.302256 0
9.365000 0.271107 0
9.370000 0.237989 0
9.375000 0.203786 0
9.380000 0.169345 0
9.385000 0.135438 0
9.390000 0.102743 0
9.395000 0.071818 0
9.400000 0.043098 0
9.405000 0.016890 0
9.410000 -0.006623 0
9.415000 -0.027369 0
9.420000 -0.045374 0
9.425000 -0.060745 0
9.430000 -0.073646 0
9.435000 -0.084290 0
9.440000 -0.092910 0
9.445000 -0.099754 0
9.450000 -0.105068 0
9.455000 -0.109088 0
9.460000 -0.112029 0
9.465000 -0.114089 0
9.470000 -0.113613 0
9.475000 -0.112710 0
9.480000 -0.111811 0
9.485000 -0.110916 0
9.490000 -0.110025 0
9.495000 -0.109137 0
9.500000 -0.108248 0
9.505000 -0.107355 0
9.510000 -0.106450 0
9.515000 -0.105518 0
9.520000 -0.104533 0
9.525000 -0.103452 0
9.530000 -0.102205 0
9.535000 -0.100682 0
9.540000 -0.098720 0
9.545000 -0.096086 0
9.550000 -0.092461 0
9.555000 -0.087435 0
9.560000 -0.080507 0
9.565000 -0.071108 0
9.570000 -0.058646 0
9.575000 -0.042578 0
9.580000 -0.022513 0
9.585000 0.001682 0
9.590000 0.029761 0
9.595000 0.061020 0
9.600000 0.094245 0
9.605000 0.127755 0
9.610000 0.159508 0
9.615000 0.187294 0
9.620000 0.208986 0
9.625000 0.222803 0
9.630000 0.227554 1
9.635000 0.222807 0
9.640000 0.208951 0
9.645000 0.187146 0
9.650000 0.159157 0
9.655000 0.127111 0
9.660000 0.093176 0
9.665000 0.059132 0
9.670000 0.025709 0
9.675000 -0.008365 0
9.680000 -0.047039 0
9.685000 -0.095709 0
9.690000 -0.156319 0
9.695000 -0.220089 0
9.700000 -0.263563 2
9.705000 -0.252799 0
9.710000 -0.153364 0
9.715000 0.058249 0
9.720000 0.377917 0
9.725000 0.750388 0
9.730000 1.062906 0
9.735000 1.189121 3
9.740000 1.067333 0
9.745000 0.747136 0
9.750000 0.352720 0
9.755000 0.003588 0
9.760000 -0.232901 0
9.765000 -0.340788 4
9.770000 -0.338533 0
9.775000 -0.265719 0
9.780000 -0.168089 0
9.785000 -0.079797 0
9.790000 -0.014130 0
9.795000 0.031951 0
9.800000 0.067180 0
9.805000 0.098627 0
9.810000 0.129865 0
9.815000 0.161990 0
9.820000 0.194902 0
9.825000 0.228031 0
9.830000 0.260620 0
9.835000 0.291827 0
9.840000 0.320775 0
9.845000 0.346592 0
9.850000 0.368459 0
9.855000 0.385647 0
9.860000 0.397558 0
9.865000 0.403761 0
9.870000 0.404014 5
9.875000 0.398280 0
9.880000 0.386729 0
9.885000 0.369729 0
9.890000 0.347827 0
9.895000 0.321717 0
9.900000 0.292206 0
9.905000 0.260167 0
9.910000 0.226501 0
9.915000 0.192091 0
9.920000 0.157770 0
9.925000 0.124282 0
9.930000 0.092265 0
9.935000 0.062234 0
9.940000 0.034571 0
9.945000 0.009532 0
9.950000 -0.012749 0
9.955000 -0.032246 0
9.960000 -0.049026 0
9.965000 -0.063226 0
9.970000 -0.075037 0
9.975000 -0.084687 0
9.980000 -0.092423 0
9.985000 -0.098494 0
9.990000 -0.103145 0
9.995000 -0.106607 0
10.000000 -0.109089 0
10.005000 -0.110404 0
10.010000 -0.109517 0
10.015000 -0.108634 0
10.020000 -0.107756 0
10.025000 -0.106881 0
10.030000 -0.106009 0
10.035000 -0.105138 0
10.040000 -0.104265 0
10.045000 -0.103384 0
10.050000 -0.102483 0
10.055000 -0.101540 0
10.060000 -0.100522 0
10.065000 -0.099368 0
10.070000 -0.097984 0
10.075000 -0.096230 0
10.080000 -0.093897 0
10.085000 -0.090696 0
10.090000 -0.086246 0
10.095000 -0.080072 0
10.100000 -0.071617 0
10.105000 -0.060283 0
10.110000 -0.045493 0
10.115000 -0.026786 0
10.120000 -0.003929 0
10.125000 0.022965 0
10.130000 0.053334 0
10.135000 0.086111 0
10.140000 0.119727 0
10.145000 0.152203 0
10.150000 0.181326 0
10.155000 0.204890 0
10.160000 0.220967 0
10.165000 0.228170 1
10.170000 0.225847 0
10.175000 0.214179 0
10.180000 0.194157 0
10.185000 0.167441 0
10.190000 0.136125 0
10.195000 0.102428 0
10.200000 0.068288 0
10.205000 0.034747 0
10.210000 0.001024 0
10.215000 -0.036337 0
10.220000 -0.082772 0
10.225000 -0.141454 0
10.230000 -0.205963 0
10.235000 -0.255107 0
10.240000 -0.255684 2
10.245000 -0.172143 0
10.250000 0.021937 0
10.255000 0.328017 0
10.260000 0.698771 0
10.265000 1.026677 0
10.270000 1.181272 3
10.275000 1.088929 0
10.280000 0.786685 0
10.285000 0.394119 0
10.290000 0.035011 0
10.295000 -0.216340 0
10.300000 -0.338786 0
10.305000 -0.347547 4
10.310000 -0.280466 0
10.315000 -0.183573 0
10.320000 -0.093131 0
10.325000 -0.024824 0
10.330000 0.023064 0
10.335000 0.059114 0
10.340000 0.090767 0
10.345000 0.121964 0
10.350000 0.154005 0
10.355000 0.186876 0
10.360000 0.220038 0
10.365000 0.252747 0
10.370000 0.284165 0
10.375000 0.313416 0
10.380000 0.339625 0
10.385000 0.361962 0
10.390000 0.379688 0
10.395000 0.392188 0
10.400000 0.399011 0
10.405000 0.399896 5
10.410000 0.394783 0
10.415000 0.383822 0
10.420000 0.367364 0
10.425000 0.345938 0
10.430000 0.320228 0
10.435000 0.291031 0
10.440000 0.259218 0
10.445000 0.225689 0
10.450000 0.191334 0
10.455000 0.156991 0
10.460000 0.123416 0
10.465000 0.091258 0
10.470000 0.061045 0
10.475000 0.033172 0
10.480000 0.007907 0
10.485000 -0.014607 0
10.490000 -0.034333 0
10.495000 -0.051330 0
10.500000 -0.065731 0
10.505000 -0.077724 0
10.510000 -0.087534 0
10.515000 -0.095405 0
10.520000 -0.101591 0
10.525000 -0.106335 0
10.530000 -0.109870 0
10.535000 -0.112409 0
10.540000 -0.113756 0
10.545000 -0.112853 0
10.550000 -0.111953 0
10.555000 -0.111058 0
10.560000 -0.110167 0
10.565000 -0.109279 0
10.570000 -0.108392 0
10.575000 -0.107504 0
10.580000 -0.106608 0
10.585000 -0.105693 0
10.590000 -0.104739 0
10.595000 -0.103712 0
10.600000 -0.102555 0
10.605000 -0.101177 0
10.610000 -0.099440 0
10.615000 -0.097141 0
10.620000 -0.093998 0
10.625000 -0.089635 0
10.630000 -0.083582 0
10.635000 -0.075287 0
10.640000 -0.064152 0
10.645000 -0.049595 0
10.650000 -0.031143 0
10.655000 -0.008545 0
10.660000 0.018114 0
10.665000 0.048302 0
10.670000 0.080982 0
10.675000 0.114615 0
10.680000 0.147239 0
10.685000 0.176648 0
10.690000 0.200623 0
10.695000 0.217210 0
10.700000 0.224979 1
10.705000 0.223231 0
10.710000 0.212097 0
10.715000 0.192527 0
10.720000 0.166150 0
10.725000 0.135046 0
10.730000 0.101439 0
10.735000 0.067299 0
10.740000 0.033739 0
10.745000 0.000100 0
10.750000 -0.036931 0
10.755000 -0.082764 0
10.760000 -0.140855 0
10.765000 -0.205435 0
10.770000 -0.256028 0
10.775000 -0.259784 2
10.780000 -0.180958 0
10.785000 0.007637 0
10.790000 0.309128 0
10.795000 0.678871 0
10.800000 1.011587 0
10.805000 1.176089 3
10.810000 1.095548 0
10.815000 0.801821 0
10.820000 0.410791 0
10.825000 0.046669 0
10.830000 -0.213382 0
10.835000 -0.345321 0
10.840000 -0.362036 4
10.845000 -0.299619 0
10.850000 -0.203616 0
10.855000 -0.111440 0
10.860000 -0.040658 0
10.865000 0.009116 0
10.870000 0.046126 0
10.875000 0.078074 0
10.880000 0.109261 0
10.885000 0.141217 0
10.890000 0.174041 0
10.895000 0.207245 0
10.900000 0.240111 0
10.905000 0.271823 0
10.910000 0.301516 0
10.915000 0.328322 0
10.920000 0.351410 0
10.925000 0.370031 0
10.930000 0.383553 0
10.935000 0.391499 0
10.940000 0.393572 5
10.945000 0.389677 0
10.950000 0.379920 0
10.955000 0.364608 0
10.960000 0.344232 0
10.965000 0.319436 0
10.970000 0.290988 0
10.975000 0.259736 0
10.980000 0.226569 0
10.985000 0.192371 0
10.990000 0.157988 0
10.995000 0.124190 0
11.000000 0.091647 0
11.005000 0.060913 0
11.010000 0.032415 0
11.015000 0.006449 0
11.020000 -0.016807 0
11.025000 -0.037291 0
11.030000 -0.055036 0
11.035000 -0.070153 0
11.040000 -0.082814 0
11.045000 -0.093233 0
11.050000 -0.101646 0
11.055000 -0.108303 0
11.060000 -0.113449 0
11.065000 -0.117319 0
11.070000 -0.120130 0
11.075000 -0.122075 0
11.080000 -0.121548 0
11.085000 -0.120605 0
11.090000 -0.119667 0
11.095000 -0.118733 0
11.100000 -0.117803 0
11.105000 -0.116875 0
11.110000 -0.115947 0
11.115000 -0.115015 0
11.120000 -0.114069 0
11.125000 -0.113093 0
11.130000 -0.112062 0
11.135000 -0.110927 0
11.140000 -0.109616 0
11.145000 -0.108012 0
11.150000 -0.105944 0
11.155000 -0.103169 0
11.160000 -0.099355 0
11.165000 -0.094080 0
11.170000 -0.086828 0
11.175000 -0.077025 0
11.180000 -0.064076 0
11.185000 -0.047453 0
11.190000 -0.026790 0
11.195000 -0.002000 0
11.200000 0.026614 0
11.205000 0.058271 0
11.210000 0.091687 0
11.215000 0.125112 0
11.220000 0.156461 0
11.225000 0.183511 0
11.230000 0.204162 0
11.235000 0.216702 0
11.240000 0.220043 1
11.245000 0.213877 0
11.250000 0.198718 0
11.255000 0.175841 0
11.260000 0.147091 0
11.265000 0.114633 0
11.270000 0.080611 0
11.275000 0.046695 0
11.280000 0.013354 0
11.285000 -0.021113 0
11.290000 -0.061088 0
11.295000 -0.111846 0
11.300000 -0.174002 0
11.305000 -0.236274 0
11.310000 -0.272735 2
11.315000 -0.248450 0
11.320000 -0.129939 0
11.325000 0.102890 0
11.330000 0.438292 0
11.335000 0.809523 0
11.340000 1.095893 0
11.345000 1.176898 3
11.350000 1.012653 0
11.355000 0.670578 0
11.360000 0.276342 0
11.365000 -0.059693 0
11.370000 -0.279779 0
11.375000 -0.373577 4
11.380000 -0.362038 0
11.385000 -0.285110 0
11.390000 -0.187071 0
11.395000 -0.099843 0
11.400000 -0.035144 0
11.405000 0.010524 0
11.410000 0.045718 0
11.415000 0.077258 0
11.420000 0.108597 0
11.425000 0.140807 0
11.430000 0.173802 0
11.435000 0.207035 0
11.440000 0.239774 0
11.445000 0.271203 0
11.450000 0.300468 0
11.455000 0.326720 0
11.460000 0.349152 0
11.465000 0.367043 0
11.470000 0.379795 0
11.475000 0.386964 0
11.480000 0.388284 5
11.485000 0.383687 0
11.490000 0.373303 0
11.495000 0.357457 0
11.500000 0.336647 0
11.505000 0.311522 0
11.510000 0.282845 0
11.515000 0.251455 0
11.520000 0.218226 0
11.525000 0.184029 0
11.530000 0.149689 0
11.535000 0.115962 0
11.540000 0.083501 0
11.545000 0.052849 0
11.550000 0.024420 0
11.555000 -0.001494 0
11.560000 -0.024720 0
11.565000 -0.045197 0
11.570000 -0.062956 0
11.575000 -0.078105 0
11.580000 -0.090811 0
11.585000 -0.101284 0
11.590000 -0.109757 0
11.595000 -0.116474 0
11.600000 -0.121676 0
11.605000 -0.125596 0
11.610000 -0.128449 0
11.615000 -0.130426 0
11.620000 -0.129869 0
11.625000 -0.128885 0
11.630000 -0.127905 0
11.635000 -0.126931 0
11.640000 -0.125960 0
11.645000 -0.124992 0
11.650000 -0.124024 0
11.655000 -0.123053 0
11.660000 -0.122071 0
11.665000 -0.121064 0
11.670000 -0.120007 0
11.675000 -0.118859 0
11.680000 -0.117554 0
11.685000 -0.115987 0
11.690000 -0.114002 0
11.695000 -0.111379 0
11.700000 -0.107811 0
11.705000 -0.102905 0
11.710000 -0.096176 0
11.715000 -0.087069 0
11.720000 -0.074999 0
11.725000 -0.059420 0
11.730000 -0.039916 0
11.735000 -0.016309 0
11.740000 0.011225 0
11.745000 0.042071 0
11.750000 0.075119 0
11.755000 0.108788 0
11.760000 0.141116 0
11.765000 0.169938 0
11.770000 0.193116 0
11.775000 0.208802 0
11.780000 0.215680 1
11.785000 0.213147 0
11.790000 0.201404 0
11.795000 0.181429 0
11.800000 0.154840 0
11.805000 0.123674 0
11.810000 0.090094 0
11.815000 0.056010 0
11.820000 0.022501 0
11.825000 -0.011043 0
11.830000 -0.047780 0
11.835000 -0.092949 0
11.840000 -0.150198 0
11.845000 -0.214758 0
11.850000 -0.267901 0
11.855000 -0.278467 2
11.860000 -0.211445 0
11.865000 -0.038688 0
11.870000 0.247332 0
11.875000 0.611719 0
11.880000 0.960951 0
11.885000 1.166705 3
11.890000 1.138030 0
11.895000 0.883263 0
11.900000 0.502854 0
11.905000 0.122438 0
11.910000 -0.169307 0
11.915000 -0.336761 0
11.920000 -0.384099 4
11.925000 -0.341053 0
11.930000 -0.250874 0
11.935000 -0.154286 0
11.940000 -0.075282 0
11.945000 -0.018606 0
11.950000 0.022208 0
11.955000 0.055475 0
11.960000 0.086708 0
11.965000 0.118319 0
11.970000 0.150850 0
11.975000 0.184006 0
11.980000 0.217165 0
11.985000 0.249571 0
11.990000 0.280398 0
11.995000 0.308801 0
12.000000 0.333948 0
12.005000 0.355066 0
12.010000 0.371474 0
12.015000 0.382623 0
12.020000 0.388125 5
12.025000 0.387773 0
12.030000 0.381554 0
12.035000 0.369652 0
12.040000 0.352436 0
12.045000 0.330441 0
12.050000 0.304341 0
12.055000 0.274914 0
12.060000 0.243002 0
12.065000 0.209471 0
12.070000 0.175174 0
12.075000 0.140915 0
12.080000 0.107418 0
12.085000 0.075308 0
12.090000 0.045093 0
12.095000 0.017160 0
12.100000 -0.008230 0
12.105000 -0.030927 0
12.110000 -0.050889 0
12.115000 -0.068162 0
12.120000 -0.082865 0
12.125000 -0.095173 0
12.130000 -0.105297 0
12.135000 -0.113469 0
12.140000 -0.119932 0
12.145000 -0.124924 0
12.150000 -0.128673 0
12.155000 -0.131386 0
12.160000 -0.133254 0
12.165000 -0.132668 0
12.170000 -0.131670 0
12.175000 -0.130677 0
12.180000 -0.129688 0
12.185000 -0.128703 0
12.190000 -0.127721 0
12.195000 -0.126740 0
12.200000 -0.125754 0
12.205000 -0.124757 0
12.210000 -0.123734 0
12.215000 -0.122659 0
12.220000 -0.121491 0
12.225000 -0.120162 0
12.230000 -0.118567 0
12.235000 -0.116550 0
12.240000 -0.113887 0
12.245000 -0.110277 0
12.250000 -0.105325 0
12.255000 -0.098552 0
12.260000 -0.089408 0
12.265000 -0.077315 0
12.270000 -0.061733 0
12.275000 -0.042251 0
12.280000 -0.018691 0
12.285000 0.008781 0
12.290000 0.039563 0
12.295000 0.072572 0
12.300000 0.106259 0
12.305000 0.138694 0
12.310000 0.167743 0
12.315000 0.191285 0
12.320000 0.207470 0
12.325000 0.214960 1
12.330000 0.213109 0
12.335000 0.202059 0
12.340000 0.182719 0
12.345000 0.156645 0
12.350000 0.125825 0
12.355000 0.092399 0
12.360000 0.058302 0
12.365000 0.024727 0
12.370000 -0.008693 0
12.375000 -0.044760 0
12.380000 -0.088521 0
12.385000 -0.144135 0
12.390000 -0.208445 0
12.395000 -0.265001 0
12.400000 -0.284386 2
12.405000 -0.231885 0
12.410000 -0.077835 0
12.415000 0.189866 0
12.420000 0.545585 0
12.425000 0.906918 0
12.430000 1.148938 0
12.435000 1.167795 3
12.440000 0.950467 0
12.445000 0.583928 0
12.450000 0.195046 0
12.455000 -0.117703 0
12.460000 -0.309240 0
12.465000 -0.377507 4
12.470000 -0.348328 0
12.475000 -0.263566 0
12.480000 -0.165765 0
12.485000 -0.082666 0
12.490000 -0.022190 0
12.495000 0.020853 0
12.500000 0.054962 0
12.505000 0.086283 0
12.510000 0.117721 0
12.515000 0.150066 0
12.520000 0.183122 0
12.525000 0.216309 0
12.530000 0.248885 0
12.535000 0.280032 0
12.540000 0.308906 0
12.545000 0.334667 0
12.550000 0.356529 0
12.555000 0.373792 0
12.560000 0.385878 0
12.565000 0.392370 0
12.570000 0.393027 5
12.575000 0.387802 0
12.580000 0.376845 0
12.585000 0.360494 0
12.590000 0.339257 0
12.595000 0.313789 0
12.600000 0.284852 0
12.605000 0.253280 0
12.610000 0.219941 0
12.615000 0.185693 0
12.620000 0.151350 0
12.625000 0.117655 0
12.630000 0.085249 0
12.635000 0.054663 0
12.640000 0.026303 0
12.645000 0.000453 0
12.650000 -0.022719 0
12.655000 -0.043156 0
12.660000 -0.060889 0
12.665000 -0.076027 0
12.670000 -0.088736 0
12.675000 -0.099223 0
12.680000 -0.107719 0
12.685000 -0.114465 0
12.690000 -0.119701 0
12.695000 -0.123657 0
12.700000 -0.126545 0
12.705000 -0.128558 0
12.710000 -0.128014 0
12.715000 -0.127039 0
12.720000 -0.126069 0
12.725000 -0.125104 0
12.730000 -0.124142 0
12.735000 -0.123183 0
12.740000 -0.122225 0
12.745000 -0.121264 0
12.750000 -0.120293 0
12.755000 -0.119298 0
12.760000 -0.118256 0
12.765000 -0.117128 0
12.770000 -0.115852 0
12.775000 -0.114328 0
12.780000 -0.112410 0
12.785000 -0.109884 0
12.790000 -0.106460 0
12.795000 -0.101759 0
12.800000 -0.095311 0
12.805000 -0.086576 0
12.810000 -0.074974 0
12.815000 -0.059955 0
12.820000 -0.041082 0
12.825000 -0.018135 0
12.830000 0.008776 0
12.835000 0.039114 0
12.840000 0.071868 0
12.845000 0.105548 0
12.850000 0.138269 0
12.855000 0.167911 0
12.860000 0.192332 0
12.865000 0.209628 0
12.870000 0.218373 1
12.875000 0.217815 0
12.880000 0.207986 0
12.885000 0.189695 0
12.890000 0.164419 0
12.895000 0.134103 0
12.900000 0.100891 0
12.905000 0.066773 0
12.910000 0.033084 0
12.915000 -0.000272 0
12.920000 -0.035744 0
12.925000 -0.078181 0
12.930000 -0.132184 0
12.935000 -0.195984 0
12.940000 -0.255038 0
12.945000 -0.281292 2
12.950000 -0.240107 0
12.955000 -0.100514 0
12.960000 0.152841 0
12.965000 0.500541 0
12.970000 0.867674 0
12.975000 1.131962 0
12.980000 1.182248 3
12.985000 0.990833 0
12.990000 0.635149 0
12.995000 0.243038 0
13.000000 -0.080449 0
13.005000 -0.284228 0
13.010000 -0.362767 4
13.015000 -0.340200 0
13.020000 -0.258120 0
13.025000 -0.160176 0
13.030000 -0.075823 0
13.035000 -0.014225 0
13.040000 0.029406 0
13.045000 0.063689 0
13.050000 0.094995 0
13.055000 0.126365 0
13.060000 0.158644 0
13.065000 0.191649 0
13.070000 0.224793 0
13.075000 0.257326 0
13.080000 0.288420 0
13.085000 0.317217 0
13.090000 0.342869 0
13.095000 0.364577 0
13.100000 0.381636 0
13.105000 0.393467 0
13.110000 0.399651 0
13.115000 0.399954 5
13.120000 0.394339 0
13.125000 0.382969 0
13.130000 0.366199 0
13.135000 0.344557 0
13.140000 0.318715 0
13.145000 0.289454 0
13.150000 0.257626 0
13.155000 0.224108 0
13.160000 0.189769 0
13.165000 0.155427 0
13.170000 0.121821 0
13.175000 0.089591 0
13.180000 0.059256 0
13.185000 0.031211 0
13.190000 0.005725 0
13.195000 -0.017050 0
13.200000 -0.037070 0
13.205000 -0.054383 0
13.210000 -0.069110 0
13.215000 -0.081428 0
13.220000 -0.091552 0
13.225000 -0.099720 0
13.230000 -0.106177 0
13.235000 -0.111164 0
13.240000 -0.114911 0
13.245000 -0.117629 0
13.250000 -0.119099 0
13.255000 -0.118168 0
13.260000 -0.117243 0
13.265000 -0.116321 0
13.270000 -0.115404 0
13.275000 -0.114490 0
13.280000 -0.113579 0
13.285000 -0.112667 0
13.290000 -0.111750 0
13.295000 -0.110819 0
13.300000 -0.109859 0
13.305000 -0.108841 0
13.310000 -0.107720 0
13.315000 -0.106421 0
13.320000 -0.104829 0
13.325000 -0.102777 0
13.330000 -0.100021 0
13.335000 -0.096238 0
13.340000 -0.091010 0
13.345000 -0.083833 0
13.350000 -0.074138 0
13.355000 -0.061341 0
13.360000 -0.044915 0
13.365000 -0.024489 0
13.370000 0.000040 0
13.375000 0.028398 0
13.380000 0.059850 0
13.385000 0.093163 0
13.390000 0.126646 0
13.395000 0.158263 0
13.400000 0.185826 0
13.405000 0.207236 0
13.410000 0.220754 0
13.415000 0.225224 1
13.420000 0.220244 0
13.425000 0.206221 0
13.430000 0.184317 0
13.435000 0.156287 0
13.440000 0.124238 0
13.445000 0.090317 0
13.450000 0.056285 0
13.455000 0.022874 0
13.460000 -0.011148 0
13.465000 -0.049651 0
13.470000 -0.097988 0
13.475000 -0.158269 0
13.480000 -0.222236 0
13.485000 -0.267176 2
13.490000 -0.259738 0
13.495000 -0.165614 0
13.500000 0.039365 0
13.505000 0.353322 0
13.510000 0.725291 0
13.515000 1.046739 0
13.520000 1.190937 3
13.525000 1.088878 0
13.530000 0.781075 0
13.535000 0.387784 0
13.540000 0.030866 0
13.545000 -0.217544 0
13.550000 -0.337531 0
13.555000 -0.344767 4
13.560000 -0.277067 0
13.565000 -0.180108 0
13.570000 -0.089747 0
13.575000 -0.021457 0
13.580000 0.026474 0
13.585000 0.062562 0
13.590000 0.094217 0
13.595000 0.125387 0
13.600000 0.157389 0
13.605000 0.190225 0
13.610000 0.223367 0
13.615000 0.256080 0
13.620000 0.287537 0
13.625000 0.316867 0
13.630000 0.343201 0
13.635000 0.365715 0
13.640000 0.383668 0
13.645000 0.396444 0
13.650000 0.403586 0
13.655000 0.404823 5
13.660000 0.400083 0
13.665000 0.389502 0
13.670000 0.373413 0
13.675000 0.352330 0
13.680000 0.326922 0
13.685000 0.297969 0
13.690000 0.266334 0
13.695000 0.232908 0
13.700000 0.198576 0
13.705000 0.164176 0
13.710000 0.130469 0
13.715000 0.098111 0
13.720000 0.067638 0
13.725000 0.039458 0
13.730000 0.013851 0
13.735000 -0.009026 0
13.740000 -0.029125 0
13.745000 -0.046494 0
13.750000 -0.061254 0
13.755000 -0.073586 0
13.760000 -0.083710 0
13.765000 -0.091867 0
13.770000 -0.098305 0
13.775000 -0.103272 0
13.780000 -0.106999 0
13.785000 -0.109699 0
13.790000 -0.111164 0
13.795000 -0.110273 0
13.800000 -0.109387 0
13.805000 -0.108505 0
13.810000 -0.107627 0
13.815000 -0.106751 0
13.820000 -0.105878 0
13.825000 -0.105004 0
13.830000 -0.104123 0
13.835000 -0.103227 0
13.840000 -0.102296 0
13.845000 -0.101302 0
13.850000 -0.100192 0
13.855000 -0.098886 0
13.860000 -0.097257 0
13.865000 -0.095121 0
13.870000 -0.092216 0
13.875000 -0.088192 0
13.880000 -0.082604 0
13.885000 -0.074921 0
13.890000 -0.064556 0
13.895000 -0.050921 0
13.900000 -0.033509 0
13.905000 -0.012004 0
13.910000 0.013606 0
13.915000 0.042919 0
13.920000 0.075043 0
13.925000 0.108579 0
13.930000 0.141683 0
13.935000 0.172212 0
13.940000 0.197940 0
13.945000 0.216826 0
13.950000 0.227276 0
13.955000 0.228368 1
13.960000 0.219983 0
13.965000 0.202828 0
13.970000 0.178333 0
13.975000 0.148454 0
13.980000 0.115390 0
13.985000 0.081228 0
13.990000 0.047429 0
13.995000 0.014029 0
14.000000 -0.021344 0
14.005000 -0.063608 0
14.010000 -0.117554 0
14.015000 -0.181436 0
14.020000 -0.240175 0
14.025000 -0.264634 2
14.030000 -0.219082 0
14.035000 -0.072118 0
14.040000 0.190336 0
14.045000 0.544105 0
14.050000 0.906019 0
14.055000 1.147656 0
14.060000 1.162195 3
14.065000 0.937601 0
14.070000 0.566598 0
14.075000 0.180855 0
14.080000 -0.121214 0
14.085000 -0.297724 0
14.090000 -0.350593 4
14.095000 -0.309725 0
14.100000 -0.219938 0
14.105000 -0.123676 0
14.110000 -0.045632 0
14.115000 0.009794 0
14.120000 0.049633 0
14.125000 0.082399 0
14.130000 0.113487 0
14.135000 0.145113 0
14.140000 0.177669 0
14.145000 0.210773 0
14.150000 0.243742 0
14.155000 0.275767 0
14.160000 0.305981 0
14.165000 0.333500 0
14.170000 0.357471 0
14.175000 0.377110 0
14.180000 0.391746 0
14.185000 0.400859 0
14.190000 0.404109 5
14.195000 0.401353 0
14.200000 0.392659 0
14.205000 0.378300 0
14.210000 0.358739 0
14.215000 0.334604 0
14.220000 0.306654 0
14.225000 0.275738 0
14.230000 0.242752 0
14.235000 0.208595 0
14.240000 0.174133 0
14.245000 0.140158 0
14.250000 0.107365 0
14.255000 0.076330 0
14.260000 0.047501 0
14.265000 0.021195 0
14.270000 -0.002398 0
14.275000 -0.023202 0
14.280000 -0.041243 0
14.285000 -0.056627 0
14.290000 -0.069523 0
14.295000 -0.080146 0
14.300000 -0.088736 0
14.305000 -0.095542 0
14.310000 -0.100816 0
14.315000 -0.104795 0
14.320000 -0.107699 0
14.325000 -0.109727 0
14.330000 -0.109264 0
14.335000 -0.108383 0
14.340000 -0.107505 0
14.345000 -0.106632 0
14.350000 -0.105762 0
14.355000 -0.104894 0
14.360000 -0.104026 0
14.365000 -0.103153 0
14.370000 -0.102265 0
14.375000 -0.101347 0
14.380000 -0.100370 0
14.385000 -0.099286 0
14.390000 -0.098019 0
14.395000 -0.096447 0
14.400000 -0.094394 0
14.405000 -0.091605 0
14.410000 -0.087739 0
14.415000 -0.082357 0
14.420000 -0.074931 0
14.425000 -0.064874 0
14.430000 -0.051587 0
14.435000 -0.034547 0
14.440000 -0.013410 0
14.445000 0.011866 0
14.450000 0.040914 0
14.455000 0.072873 0
14.460000 0.106365 0
14.465000 0.139557 0
14.470000 0.170297 0
14.475000 0.196334 0
14.480000 0.215591 0
14.485000 0.226431 0
14.490000 0.227889 1
14.495000 0.219814 0
14.500000 0.202891 0
14.505000 0.178548 0
14.510000 0.148749 0
14.515000 0.115714 0
14.520000 0.081554 0
14.525000 0.047752 0
14.530000 0.014348 0
14.535000 -0.021058 0
14.540000 -0.063443 0
14.545000 -0.117604 0
14.550000 -0.181591 0
14.555000 -0.239839 0
14.560000 -0.262624 2
14.565000 -0.213838 0
14.570000 -0.062159 0
14.575000 0.205485 0
14.580000 0.562225 0
14.585000 0.920902 0
14.590000 1.150927 3
14.595000 1.148657 0
14.600000 0.910526 0
14.605000 0.534648 0
14.610000 0.151876 0
14.615000 -0.143156 0
14.620000 -0.311914 0
14.625000 -0.358348 4
14.630000 -0.313482 0
14.635000 -0.222333 0
14.640000 -0.126557 0
14.645000 -0.049641 0
14.650000 0.004867 0
14.655000 0.044241 0
14.660000 0.076880 0
14.665000 0.107998 0
14.670000 0.139695 0
14.675000 0.172315 0
14.680000 0.205461 0
14.685000 0.238443 0
14.690000 0.270454 0
14.695000 0.300629 0
14.700000 0.328087 0
14.705000 0.351980 0
14.710000 0.371529 0
14.715000 0.386070 0
14.720000 0.395087 0
14.725000 0.398247 5
14.730000 0.395412 0
14.735000 0.386652 0
14.740000 0.372244 0
14.745000 0.352651 0
14.750000 0.328500 0
14.755000 0.300550 0
14.760000 0.269646 0
14.765000 0.236681 0
14.770000 0.202552 0
14.775000 0.168120 0
14.780000 0.134174 0
14.785000 0.101408 0
14.790000 0.070394 0
14.795000 0.041581 0
14.800000 0.015284 0
14.805000 -0.008305 0
14.810000 -0.029112 0
14.815000 -0.047159 0
14.820000 -0.062552 0
14.825000 -0.075460 0
14.830000 -0.086094 0
14.835000 -0.094693 0
14.840000 -0.101507 0
14.845000 -0.106786 0
14.850000 -0.110766 0
14.855000 -0.113668 0
14.860000 -0.115689 0
14.865000 -0.115200 0
14.870000 -0.114289 0
14.875000 -0.113383 0
14.880000 -0.112480 0
14.885000 -0.111581 0
14.890000 -0.110684 0
14.895000 -0.109788 0
14.900000 -0.108886 0
14.905000 -0.107971 0
14.910000 -0.107027 0
14.915000 -0.106026 0
14.920000 -0.104921 0
14.925000 -0.103639 0
14.930000 -0.102061 0
14.935000 -0.100014 0
14.940000 -0.097251 0
14.945000 -0.093437 0
14.950000 -0.088140 0
14.955000 -0.080841 0
14.960000 -0.070955 0
14.965000 -0.057886 0
14.970000 -0.041102 0
14.975000 -0.020247 0
14.980000 0.004750 0
14.985000 0.033556 0
14.990000 0.065352 0
14.995000 0.098808 0
15.000000 0.132128 0
15.005000 0.163186 0
15.010000 0.189741 0
15.015000 0.209695 0
15.020000 0.221368 0
15.025000 0.223733 1
15.030000 0.216560 0
15.035000 0.200457 0
15.040000 0.176781 0
15.045000 0.147450 0
15.050000 0.114664 0
15.055000 0.080558 0
15.060000 0.046707 0
15.065000 0.013348 0
15.070000 -0.021611 0
15.075000 -0.062913 0
15.080000 -0.115625 0
15.085000 -0.178956 0
15.090000 -0.239156 0
15.095000 -0.267980 2
15.100000 -0.229637 0
15.105000 -0.091732 0
15.110000 0.161952 0
15.115000 0.510989 0
15.120000 0.876325 0
15.125000 1.130359 0
15.130000 1.161432 3
15.135000 0.951593 0
15.140000 0.587348 0
15.145000 0.198098 0
15.150000 -0.114900 0
15.155000 -0.305394 0
15.160000 -0.371522 4
15.165000 -0.340073 0
15.170000 -0.254059 0
15.175000 -0.156561 0
15.180000 -0.074866 0
15.185000 -0.015959 0
15.190000 0.026005 0
15.195000 0.059632 0
15.200000 0.090872 0
15.205000 0.122399 0
15.210000 0.154855 0
15.215000 0.187968 0
15.220000 0.221113 0
15.225000 0.253516 0
15.230000 0.284335 0
15.235000 0.312705 0
15.240000 0.337775 0
15.245000 0.358753 0
15.250000 0.374949 0
15.255000 0.385805 0
15.260000 0.390932 5
15.265000 0.390131 0
15.270000 0.383403 0
15.275000 0.370953 0
15.280000 0.353175 0
15.285000 0.330634 0
15.290000 0.304034 0
15.295000 0.274181 0
15.300000 0.241942 0
15.305000 0.208204 0
15.310000 0.173834 0
15.315000 0.139641 0
15.320000 0.106349 0
15.325000 0.074575 0
15.330000 0.044811 0
15.335000 0.017425 0
15.340000 -0.007342 0
15.345000 -0.029367 0
15.350000 -0.048631 0
15.355000 -0.065203 0
15.360000 -0.079222 0
15.365000 -0.090878 0
15.370000 -0.100398 0
15.375000 -0.108022 0
15.380000 -0.113999 0
15.385000 -0.118569 0
15.390000 -0.121958 0
15.395000 -0.124374 0
15.400000 -0.125624 0
15.405000 -0.124661 0
15.410000 -0.123703 0
15.415000 -0.122749 0
15.420000 -0.121800 0
15.425000 -0.120853 0
15.430000 -0.119909 0
15.435000 -0.118963 0
15.440000 -0.118010 0
15.445000 -0.117038 0
15.450000 -0.116029 0
15.455000 -0.114949 0
15.460000 -0.113742 0
15.465000 -0.112322 0
15.470000 -0.110554 0
15.475000 -0.108243 0
15.480000 -0.105117 0
15.485000 -0.100813 0
15.490000 -0.094877 0
15.495000 -0.086771 0
15.500000 -0.075909 0
15.505000 -0.061713 0
15.510000 -0.043703 0
15.515000 -0.021595 0
15.520000 0.004572 0
15.525000 0.034344 0
15.530000 0.066774 0
15.535000 0.100420 0
15.540000 0.133414 0
15.545000 0.163610 0
15.550000 0.188808 0
15.555000 0.207018 0
15.560000 0.216714 0
15.565000 0.217048 1
15.570000 0.207976 0
15.575000 0.190258 0
15.580000 0.165363 0
15.585000 0.135254 0
15.590000 0.102118 0
15.595000 0.068003 0
15.600000 0.034299 0
15.605000 0.000938 0
15.610000 -0.034565 0
15.615000 -0.077166 0
15.620000 -0.131505 0
15.625000 -0.195481 0
15.630000 -0.253678 0
15.635000 -0.276904 2
15.640000 -0.229711 0
15.645000 -0.081145 0
15.650000 0.182407 0
15.655000 0.536544 0
15.660000 0.898527 0
15.665000 1.140991 0
15.670000 1.157718 3
15.675000 0.937572 0
15.680000 0.569721 0
15.685000 0.181563 0
15.690000 -0.128921 0
15.695000 -0.317504 0
15.700000 -0.382896 4
15.705000 -0.351584 0
15.710000 -0.265851 0
15.715000 -0.168175 0
15.720000 -0.085790 0
15.725000 -0.026052 0
15.730000 0.016527 0
15.735000 0.050456 0
15.740000 0.081773 0
15.745000 0.113275 0
15.750000 0.145691 0
15.755000 0.178800 0
15.760000 0.212004 0
15.765000 0.244554 0
15.770000 0.275627 0
15.775000 0.304372 0
15.780000 0.329950 0
15.785000 0.351574 0
15.790000 0.368547 0
15.795000 0.380300 0
15.800000 0.386423 0
15.805000 0.386689 5
15.810000 0.381064 0
15.815000 0.369713 0
15.820000 0.352989 0
15.825000 0.331416 0
15.830000 0.305660 0
15.835000 0.276495 0
15.840000 0.244764 0
15.845000 0.211337 0
15.850000 0.177074 0
15.855000 0.142790 0
15.860000 0.109218 0
15.865000 0.076996 0
15.870000 0.046642 0
15.875000 0.018554 0
15.880000 -0.006996 0
15.885000 -0.029853 0
15.890000 -0.049967 0
15.895000 -0.067381 0
15.900000 -0.082210 0
15.905000 -0.094628 0
15.910000 -0.104844 0
15.915000 -0.113094 0
15.920000 -0.119620 0
15.925000 -0.124663 0
15.930000 -0.128450 0
15.935000 -0.131193 0
15.940000 -0.133082 0
15.945000 -0.132501 0
15.950000 -0.131503 0
15.955000 -0.130511 0
15.960000 -0.129523 0
15.965000 -0.128539 0
15.970000 -0.127558 0
15.975000 -0.126577 0
15.980000 -0.125593 0
15.985000 -0.124597 0
15.990000 -0.123574 0
15.995000 -0.122500 0
16.000000 -0.121332 0
16.005000 -0.120002 0
16.010000 -0.118403 0
16.015000 -0.116380 0
16.020000 -0.113705 0
16.025000 -0.110072 0
16.030000 -0.105086 0
16.035000 -0.098260 0
16.040000 -0.089041 0
16.045000 -0.076848 0
16.050000 -0.061141 0
16.055000 -0.041511 0
16.060000 -0.017790 0
16.065000 0.009837 0
16.070000 0.040747 0
16.075000 0.073828 0
16.080000 0.107502 0
16.085000 0.139814 0
16.090000 0.168611 0
16.095000 0.191770 0
16.100000 0.207454 0
16.105000 0.214356 1
16.110000 0.211876 0
16.115000 0.200210 0
16.120000 0.180324 0
16.125000 0.153821 0
16.130000 0.122722 0
16.135000 0.089178 0
16.140000 0.055096 0
16.145000 0.021580 0
16.150000 -0.011922 0
16.155000 -0.048469 0
16.160000 -0.093242 0
16.165000 -0.150031 0
16.170000 -0.214550 0
16.175000 -0.268783 0
16.180000 -0.282151 2
16.185000 -0.219791 0
16.190000 -0.053104 0
16.195000 0.226979 0
16.200000 0.588781 0
16.205000 0.942663 0
16.210000 1.161438 3
16.215000 1.149618 0
16.220000 0.908016 0
16.225000 0.532201 0
16.230000 0.148145 0
16.235000 -0.151978 0
16.240000 -0.329059 0
16.245000 -0.384843 4
16.250000 -0.347410 0
16.255000 -0.259353 0
16.260000 -0.162103 0
16.265000 -0.081222 0
16.270000 -0.022819 0
16.275000 0.019014 0
16.280000 0.052671 0
16.285000 0.083950 0
16.290000 0.115485 0
16.295000 0.147934 0
16.300000 0.181054 0
16.305000 0.214243 0
16.310000 0.246756 0
16.315000 0.277775 0
16.320000 0.306457 0
16.325000 0.331971 0
16.330000 0.353536 0
16.335000 0.370465 0
16.340000 0.382193 0
16.345000 0.388316 0
16.350000 0.388607 5
16.355000 0.383032 0
16.360000 0.371753 0
16.365000 0.355117 0
16.370000 0.333641 0
16.375000 0.307983 0
16.380000 0.278906 0
16.385000 0.247246 0
16.390000 0.213865 0
16.395000 0.179617 0
16.400000 0.145311 0
16.405000 0.111680 0
16.410000 0.079361 0
16.415000 0.048876 0
16.420000 0.020625 0
16.425000 -0.005112 0
16.430000 -0.028175 0
16.435000 -0.048507 0
16.440000 -0.066144 0
16.445000 -0.081194 0
16.450000 -0.093825 0
16.455000 -0.104244 0
16.460000 -0.112681 0
16.465000 -0.119376 0
16.470000 -0.124568 0
16.475000 -0.128485 0
16.480000 -0.131340 0
16.485000 -0.133323 0
16.490000 -0.132754 0
16.495000 -0.131756 0
16.500000 -0.130762 0
16.505000 -0.129773 0
16.510000 -0.128788 0
16.515000 -0.127806 0
16.520000 -0.126825 0
16.525000 -0.125841 0
16.530000 -0.124847 0
16.535000 -0.123830 0
16.540000 -0.122767 0
16.545000 -0.121619 0
16.550000 -0.120324 0
16.555000 -0.118785 0
16.560000 -0.116856 0
16.565000 -0.114327 0
16.570000 -0.110912 0
16.575000 -0.106235 0
16.580000 -0.099831 0
16.585000 -0.091163 0
16.590000 -0.079656 0
16.595000 -0.064759 0
16.600000 -0.046030 0
16.605000 -0.023239 0
16.610000 0.003519 0
16.615000 0.033734 0
16.620000 0.066418 0
16.625000 0.100112 0
16.630000 0.132957 0
16.635000 0.162847 0
16.640000 0.187645 0
16.645000 0.205434 0
16.650000 0.214760 0
16.655000 0.214828 1
16.660000 0.205617 0
16.665000 0.187884 0
16.670000 0.163060 0
16.675000 0.133059 0
16.680000 0.100008 0
16.685000 0.065917 0
16.690000 0.032190 0
16.695000 -0.001120 0
16.700000 -0.036235 0
16.705000 -0.077836 0
16.710000 -0.130727 0
16.715000 -0.194001 0
16.720000 -0.254480 0
16.725000 -0.285274 2
16.730000 -0.252083 0
16.735000 -0.123251 0
16.740000 0.118750 0
16.745000 0.459176 0
16.750000 0.829545 0
16.755000 1.111107 0
16.760000 1.188120 3
16.765000 1.021943 0
16.770000 0.679340 0
16.775000 0.285011 0
16.780000 -0.051604 0
16.785000 -0.272994 0
16.790000 -0.368551 4
16.795000 -0.358693 0
16.800000 -0.282786 0
16.805000 -0.184827 0
16.810000 -0.096976 0
16.815000 -0.031468 0
16.820000 0.014793 0
16.825000 0.050262 0
16.830000 0.081846 0
16.835000 0.113121 0
16.840000 0.145242 0
16.845000 0.178168 0
16.850000 0.211374 0
16.855000 0.244143 0
16.860000 0.275671 0
16.865000 0.305112 0
16.870000 0.331624 0
16.875000 0.354402 0
16.880000 0.372722 0
16.885000 0.385979 0
16.890000 0.393714 0
16.895000 0.395646 5
16.900000 0.391687 0
16.905000 0.381942 0
16.910000 0.366710 0
16.915000 0.346466 0
16.920000 0.321837 0
16.925000 0.293564 0
16.930000 0.262472 0
16.935000 0.229426 0
16.940000 0.195289 0
16.945000 0.160890 0
16.950000 0.126990 0
16.955000 0.094253 0
16.960000 0.063236 0
16.965000 0.034371 0
16.970000 0.007969 0
16.975000 -0.015779 0
16.980000 -0.036794 0
16.985000 -0.055090 0
16.990000 -0.070761 0
16.995000 -0.083964 0
17.000000 -0.094898 0
17.005000 -0.103792 0
17.010000 -0.110885 0
17.015000 -0.116419 0
17.020000 -0.120627 0
17.025000 -0.123725 0
17.030000 -0.125911 0
17.035000 -0.125403 0
17.040000 -0.124442 0
17.045000 -0.123485 0
17.050000 -0.122532 0
17.055000 -0.121583 0
17.060000 -0.120638 0
17.065000 -0.119693 0
17.070000 -0.118747 0
17.075000 -0.117792 0
17.080000 -0.116816 0
17.085000 -0.115799 0
17.090000 -0.114705 0
17.095000 -0.113477 0
17.100000 -0.112023 0
17.105000 -0.110207 0
17.110000 -0.107828 0
17.115000 -0.104613 0
17.120000 -0.100197 0
17.125000 -0.094128 0
17.130000 -0.085874 0
17.135000 -0.074861 0
17.140000 -0.060524 0
17.145000 -0.042397 0
17.150000 -0.020212 0
17.155000 0.005988 0
17.160000 0.035752 0
17.165000 0.068153 0
17.170000 0.101783 0
17.175000 0.134818 0
17.180000 0.165160 0
17.185000 0.190653 0
17.190000 0.209326 0
17.195000 0.219652 0
17.200000 0.220747 1
17.205000 0.212500 0
17.210000 0.195590 0
17.215000 0.171392 0
17.220000 0.141790 0
17.225000 0.108917 0
17.230000 0.074822 0
17.235000 0.041004 0
17.240000 0.007678 0
17.245000 -0.027155 0
17.250000 -0.068031 0
17.255000 -0.119947 0
17.260000 -0.182725 0
17.265000 -0.244225 0
17.270000 -0.278316 2
17.275000 -0.250721 0
17.280000 -0.129085 0
17.285000 0.105620 0
17.290000 0.441335 0
17.295000 0.812837 0
17.300000 1.102699 0
17.305000 1.192346 3
17.310000 1.036636 0
17.315000 0.698580 0
17.320000 0.304038 0
17.325000 -0.034536 0
17.330000 -0.257506 0
17.335000 -0.353571 4
17.340000 -0.343379 0
17.345000 -0.266996 0
17.350000 -0.169074 0
17.355000 -0.081894 0
17.360000 -0.017317 0
17.365000 0.028185 0
17.370000 0.063234 0
17.375000 0.094672 0
17.380000 0.125938 0
17.385000 0.158084 0
17.390000 0.191011 0
17.395000 0.224159 0
17.400000 0.256789 0
17.405000 0.288074 0
17.410000 0.317155 0
17.415000 0.343175 0
17.420000 0.365327 0
17.425000 0.382887 0
17.430000 0.395260 0
17.435000 0.402007 0
17.440000 0.402874 5
17.445000 0.397804 0
17.450000 0.386941 0
17.455000 0.370626 0
17.460000 0.349373 0
17.465000 0.323847 0
17.470000 0.294825 0
17.475000 0.263157 0
17.480000 0.229725 0
17.485000 0.195404 0
17.490000 0.161020 0
17.495000 0.127324 0
17.500000 0.094966 0
17.505000 0.064474 0
17.510000 0.036256 0
17.515000 0.010590 0
17.520000 -0.012365 0
17.525000 -0.032559 0
17.530000 -0.050034 0
17.535000 -0.064910 0
17.540000 -0.077361 0
17.545000 -0.087602 0
17.550000 -0.095870 0
17.555000 -0.102413 0
17.560000 -0.107473 0
17.565000 -0.111280 0
17.570000 -0.114049 0
17.575000 -0.115558 0
17.580000 -0.114645 0
17.585000 -0.113737 0
17.590000 -0.112833 0
17.595000 -0.111934 0
17.600000 -0.111037 0
17.605000 -0.110143 0
17.610000 -0.109248 0
17.615000 -0.108349 0
17.620000 -0.107435 0
17.625000 -0.106492 0
17.630000 -0.105491 0
17.635000 -0.104387 0
17.640000 -0.103105 0
17.645000 -0.101531 0
17.650000 -0.099493 0
17.655000 -0.096750 0
17.660000 -0.092974 0
17.665000 -0.087746 0
17.670000 -0.080558 0
17.675000 -0.070839 0
17.680000 -0.058001 0
17.685000 -0.041517 0
17.690000 -0.021018 0
17.695000 0.003593 0
17.700000 0.032029 0
17.705000 0.063539 0
17.710000 0.096871 0
17.715000 0.130313 0
17.720000 0.161811 0
17.725000 0.189163 0
17.730000 0.210274 0
17.735000 0.223411 0
17.740000 0.227446 1
17.745000 0.222010 0
17.750000 0.207549 0
17.755000 0.185266 0
17.760000 0.156949 0
17.765000 0.124726 0
17.770000 0.090743 0
17.775000 0.056731 0
17.780000 0.023330 0
17.785000 -0.010854 0
17.790000 -0.049880 0
17.795000 -0.099094 0
17.800000 -0.160110 0
17.805000 -0.223618 0
17.810000 -0.265745 2
17.815000 -0.252526 0
17.820000 -0.149887 0
17.825000 0.065003 0
17.830000 0.386959 0
17.835000 0.759520 0
17.840000 1.069537 0
17.845000 1.191818 3
17.850000 1.066302 0
17.855000 0.743993 0
17.860000 0.349460 0
17.865000 0.001540 0
17.870000 -0.233273 0
17.875000 -0.339604 4
17.880000 -0.336237 0
17.885000 -0.262889 0
17.890000 -0.165219 0
17.895000 -0.077139 0
17.900000 -0.011709 0
17.905000 0.034220 0
17.910000 0.069380 0
17.915000 0.100806 0
17.920000 0.132039 0
17.925000 0.164160 0
17.930000 0.197066 0
17.935000 0.230184 0
17.940000 0.262759 0
17.945000 0.293947 0
17.950000 0.322873 0
17.955000 0.348667 0
17.960000 0.370510 0
17.965000 0.387674 0
17.970000 0.399564 0
17.975000 0.405747 0
17.980000 0.405984 5
17.985000 0.400237 0
17.990000 0.388676 0
17.995000 0.371669 0
18.000000 0.349763 0
18.005000 0.323650 0
18.010000 0.294136 0
18.015000 0.262094 0
18.020000 0.228422 0
18.025000 0.194005 0
18.030000 0.159673 0
18.035000 0.126170 0
18.040000 0.094135 0
18.045000 0.064082 0
18.050000 0.036394 0
18.055000 0.011328 0
18.060000 -0.010983 0
18.065000 -0.030511 0
18.070000 -0.047322 0
18.075000 -0.061553 0
18.080000 -0.073395 0
18.085000 -0.083074 0
18.090000 -0.090837 0
18.095000 -0.096933 0
18.100000 -0.101608 0
18.105000 -0.105091 0
18.110000 -0.107592 0
18.115000 -0.108922 0
18.120000 -0.108043 0
18.125000 -0.107168 0
18.130000 -0.106296 0
18.135000 -0.105429 0
18.140000 -0.104564 0
18.145000 -0.103701 0
18.150000 -0.102835 0
18.155000 -0.101961 0
18.160000 -0.101068 0
18.165000 -0.100134 0
18.170000 -0.099124 0
18.175000 -0.097980 0
18.180000 -0.096610 0
18.185000 -0.094873 0
18.190000 -0.092562 0
18.195000 -0.089392 0
18.200000 -0.084983 0
18.205000 -0.078863 0
18.210000 -0.070478 0
18.215000 -0.059229 0
18.220000 -0.044540 0
18.225000 -0.025945 0
18.230000 -0.003206 0
18.235000 0.023577 0
18.240000 0.053856 0
18.245000 0.086578 0
18.250000 0.120188 0
18.255000 0.152721 0
18.260000 0.181969 0
18.265000 0.205725 0
18.270000 0.222051 0
18.275000 0.229539 1
18.280000 0.227515 0
18.285000 0.216132 0
18.290000 0.196356 0
18.295000 0.169826 0
18.300000 0.138623 0
18.305000 0.104966 0
18.310000 0.070810 0
18.315000 0.037241 0
18.320000 0.003561 0
18.325000 -0.033579 0
18.330000 -0.079588 0
18.335000 -0.137843 0
18.340000 -0.202430 0
18.345000 -0.252754 0
18.350000 -0.255964 2
18.355000 -0.176427 0
18.360000 0.012868 0
18.365000 0.314833 0
18.370000 0.684654 0
18.375000 1.017117 0
18.380000 1.181364 3
18.385000 1.099303 0
18.390000 0.803296 0
18.395000 0.411655 0
18.400000 0.049871 0
18.405000 -0.205406 0
18.410000 -0.331488 0
18.415000 -0.342830 4
18.420000 -0.277033 0
18.425000 -0.180363 0
18.430000 -0.089626 0
18.435000 -0.020976 0
18.440000 0.027106 0
18.445000 0.063215 0
18.450000 0.094862 0
18.455000 0.126036 0
18.460000 0.158054 0
18.465000 0.190904 0
18.470000 0.224046 0
18.475000 0.256731 0
18.480000 0.288117 0
18.485000 0.317323 0
18.490000 0.343470 0
18.495000 0.365725 0
18.500000 0.383345 0
18.505000 0.395716 0
18.510000 0.402389 0
18.515000 0.403103 5
18.520000 0.397806 0
18.525000 0.386654 0
18.530000 0.370004 0
18.535000 0.348396 0
18.540000 0.322520 0
18.545000 0.293181 0
18.550000 0.261257 0
18.555000 0.227653 0
18.560000 0.193261 0
18.565000 0.158922 0
18.570000 0.125389 0
18.575000 0.093310 0
18.580000 0.063206 0
18.585000 0.035467 0
18.590000 0.010356 0
18.595000 -0.011991 0
18.600000 -0.031545 0
18.605000 -0.048371 0
18.610000 -0.062606 0
18.615000 -0.074443 0
18.620000 -0.084110 0
18.625000 -0.091854 0
18.630000 -0.097928 0
18.635000 -0.102578 0
18.640000 -0.106036 0
18.645000 -0.108513 0
18.650000 -0.109823 0
18.655000 -0.108939 0
18.660000 -0.108059 0
18.665000 -0.107183 0
18.670000 -0.106311 0
18.675000 -0.105442 0
18.680000 -0.104574 0
18.685000 -0.103704 0
18.690000 -0.102825 0
18.695000 -0.101925 0
18.700000 -0.100982 0
18.705000 -0.099961 0
18.710000 -0.098800 0
18.715000 -0.097403 0
18.720000 -0.095623 0
18.725000 -0.093247 0
18.730000 -0.089979 0
18.735000 -0.085429 0
18.740000 -0.079111 0
18.745000 -0.070461 0
18.750000 -0.058875 0
18.755000 -0.043779 0
18.760000 -0.024723 0
18.765000 -0.001498 0
18.770000 0.025747 0
18.775000 0.056400 0
18.780000 0.089338 0
18.785000 0.122933 0
18.790000 0.155163 0
18.795000 0.183788 0
18.800000 0.206603 0
18.805000 0.221718 0
18.810000 0.227812 1
18.815000 0.224325 0
18.820000 0.211545 0
18.825000 0.190561 0
18.830000 0.163115 0
18.835000 0.131351 0
18.840000 0.097492 0
18.845000 0.063405 0
18.850000 0.029942 0
18.855000 -0.004035 0
18.860000 -0.042412 0
18.865000 -0.090689 0
18.870000 -0.151070 0
18.875000 -0.214927 0
18.880000 -0.258548 2
18.885000 -0.247365 0
18.890000 -0.146310 0
18.895000 0.068272 0
18.900000 0.391084 0
18.905000 0.763547 0
18.910000 1.068731 0
18.915000 1.179531 3
18.920000 1.041483 0
18.925000 0.712012 0
18.930000 0.317389 0
18.935000 -0.025593 0
18.940000 -0.253472 0
18.945000 -0.353118 4
18.950000 -0.344760 0
18.955000 -0.268892 0
18.960000 -0.170991 0
18.965000 -0.083950 0
18.970000 -0.019720 0
18.975000 0.025433 0
18.980000 0.060288 0
18.985000 0.091693 0
18.990000 0.123018 0
18.995000 0.155247 0
19.000000 0.188236 0
19.005000 0.221398 0
19.010000 0.253969 0
19.015000 0.285105 0
19.020000 0.313926 0
19.025000 0.339566 0
19.030000 0.361208 0
19.035000 0.378132 0
19.040000 0.389749 0
19.045000 0.395639 5
19.050000 0.395572 0
19.055000 0.389525 0
19.060000 0.377678 0
19.065000 0.360411 0
19.070000 0.338282 0
19.075000 0.311990 0
19.080000 0.282348 0
19.085000 0.250230 0
19.090000 0.216537 0
19.095000 0.182151 0
19.100000 0.147897 0
19.105000 0.114517 0
19.110000 0.082639 0
19.115000 0.052771 0
19.120000 0.025288 0
19.125000 0.000439 0
19.130000 -0.021649 0
19.135000 -0.040956 0
19.140000 -0.057552 0
19.145000 -0.071578 0
19.150000 -0.083228 0
19.155000 -0.092731 0
19.160000 -0.100333 0
19.165000 -0.106285 0
19.170000 -0.110831 0
19.175000 -0.114199 0
19.180000 -0.116598 0
19.185000 -0.117845 0
19.190000 -0.116921 0
19.195000 -0.116001 0
19.200000 -0.115086 0
19.205000 -0.114174 0
19.210000 -0.113266 0
19.215000 -0.112359 0
19.220000 -0.111450 0
19.225000 -0.110532 0
19.230000 -0.109593 0
19.235000 -0.108612 0
19.240000 -0.107553 0
19.245000 -0.106355 0
19.250000 -0.104922 0
19.255000 -0.103111 0
19.260000 -0.100709 0
19.265000 -0.097424 0
19.270000 -0.092871 0
19.275000 -0.086569 0
19.280000 -0.077961 0
19.285000 -0.066446 0
19.290000 -0.051453 0
19.295000 -0.032528 0
19.300000 -0.009451 0
19.305000 0.017647 0
19.310000 0.048183 0
19.315000 0.081066 0
19.320000 0.114707 0
19.325000 0.147117 0
19.330000 0.176077 0
19.335000 0.199389 0
19.340000 0.215145 0
19.345000 0.221985 1
19.350000 0.219292 0
19.355000 0.207283 0
19.360000 0.186979 0
19.365000 0.160062 0
19.370000 0.128637 0
19.375000 0.094919 0
19.380000 0.060823 0
19.385000 0.027335 0
19.390000 -0.006416 0
19.395000 -0.043995 0
19.400000 -0.090854 0
19.405000 -0.149934 0
19.410000 -0.214314 0
19.415000 -0.262242 2
19.420000 -0.260248 0
19.425000 -0.172931 0
19.430000 0.025520 0
19.435000 0.335215 0
19.440000 0.706650 0
19.445000 1.030514 0
19.450000 1.176986 3
19.455000 1.077478 0
19.460000 0.772195 0
19.465000 0.379379 0
19.470000 0.020201 0
19.475000 -0.232465 0
19.480000 -0.357457 0
19.485000 -0.369133 4
19.490000 -0.304117 0
19.495000 -0.207591 0
19.500000 -0.115981 0
19.505000 -0.045923 0
19.510000 0.003401 0
19.515000 0.040245 0
19.520000 0.072180 0
19.525000 0.103403 0
19.530000 0.135400 0
19.535000 0.168258 0
19.540000 0.201491 0
19.545000 0.234389 0
19.550000 0.266140 0
19.555000 0.295889 0
19.560000 0.322775 0
19.565000 0.345975 0
19.570000 0.364742 0
19.575000 0.378448 0
19.580000 0.386615 0
19.585000 0.388943 5
19.590000 0.385327 0
19.595000 0.375867 0
19.600000 0.360857 0
19.605000 0.340775 0
19.610000 0.316251 0
19.615000 0.288041 0
19.620000 0.256981 0
19.625000 0.223951 0
19.630000 0.189829 0
19.635000 0.155458 0
19.640000 0.121607 0
19.645000 0.088951 0
19.650000 0.058051 0
19.655000 0.029340 0
19.660000 0.003127 0
19.665000 -0.020402 0
19.670000 -0.041173 0
19.675000 -0.059208 0
19.680000 -0.074609 0
19.685000 -0.087542 0
19.690000 -0.098212 0
19.695000 -0.106853 0
19.700000 -0.113711 0
19.705000 -0.119031 0
19.710000 -0.123047 0
19.715000 -0.125977 0
19.720000 -0.128016 0
19.725000 -0.127478 0
19.730000 -0.126505 0
19.735000 -0.125538 0
19.740000 -0.124575 0
19.745000 -0.123616 0
19.750000 -0.122660 0
19.755000 -0.121704 0
19.760000 -0.120745 0
19.765000 -0.119775 0
19.770000 -0.118780 0
19.775000 -0.117736 0
19.780000 -0.116601 0
19.785000 -0.115310 0
19.790000 -0.113756 0
19.795000 -0.111785 0
19.800000 -0.109172 0
19.805000 -0.105610 0
19.810000 -0.100701 0
19.815000 -0.093956 0
19.820000 -0.084816 0
19.825000 -0.072690 0
19.830000 -0.057029 0
19.835000 -0.037419 0
19.840000 -0.013689 0
19.845000 0.013971 0
19.850000 0.044922 0
19.855000 0.078027 0
19.860000 0.111671 0
19.865000 0.143864 0
19.870000 0.172418 0
19.875000 0.195188 0
19.880000 0.210337 0
19.885000 0.216578 1
19.890000 0.213360 0
19.895000 0.200943 0
19.900000 0.180367 0
19.905000 0.153306 0
19.910000 0.121836 0
19.915000 0.088133 0
19.920000 0.054070 0
19.925000 0.020615 0
19.930000 -0.013076 0
19.935000 -0.050466 0
19.940000 -0.096906 0
19.945000 -0.155492 0
19.950000 -0.219969 0
19.955000 -0.269705 0
19.960000 -0.272257 2
19.965000 -0.192617 0
19.970000 -0.004226 0
19.975000 0.296115 0
19.980000 0.665394 0
19.985000 1.001517 0
19.990000 1.175421 3
19.995000 1.108492 0
20.000000 0.826118 0
20.005000 0.437890 0
20.010000 0.066888 0
20.015000 -0.206504 0
20.020000 -0.353994 0
20.025000 -0.384583 4
20.030000 -0.331039 0
20.035000 -0.237418 0
20.040000 -0.142555 0
20.045000 -0.067210 0
20.050000 -0.013646 0
20.055000 0.025450 0
20.060000 0.058119 0
20.065000 0.089328 0
20.070000 0.121096 0
20.075000 0.153773 0
20.080000 0.186990 0
20.085000 0.220092 0
20.090000 0.252308 0
20.095000 0.282805 0
20.100000 0.310736 0
20.105000 0.335276 0
20.110000 0.355664 0
20.115000 0.371237 0
20.120000 0.381472 0
20.125000 0.386008 5
20.130000 0.384671 0
20.135000 0.377481 0
20.140000 0.364655 0
20.145000 0.346592 0
20.150000 0.323854 0
20.155000 0.297137 0
20.160000 0.267231 0
20.165000 0.234988 0
20.170000 0.201276 0
20.175000 0.166941 0
20.180000 0.132776 0
20.185000 0.099492 0
20.190000 0.067692 0
20.195000 0.037866 0
20.200000 0.010377 0
20.205000 -0.014532 0
20.210000 -0.036732 0
20.215000 -0.056198 0
20.220000 -0.072991 0
20.225000 -0.087240 0
20.230000 -0.099128 0
20.235000 -0.108871 0
20.240000 -0.116706 0
20.245000 -0.122875 0
20.250000 -0.127614 0
20.255000 -0.131148 0
20.260000 -0.133684 0
20.265000 -0.135007 0
20.270000 -0.133998 0
20.275000 -0.132993 0
20.280000 -0.131993 0
20.285000 -0.130998 0
20.290000 -0.130006 0
20.295000 -0.129017 0
20.300000 -0.128028 0
20.305000 -0.127034 0
20.310000 -0.126026 0
20.315000 -0.124987 0
20.320000 -0.123892 0
20.325000 -0.122692 0
20.330000 -0.121314 0
20.335000 -0.119645 0
20.340000 -0.117516 0
20.345000 -0.114691 0
20.350000 -0.110847 0
20.355000 -0.105576 0
20.360000 -0.098379 0
20.365000 -0.088699 0
20.370000 -0.075957 0
20.375000 -0.059630 0
20.380000 -0.039344 0
20.385000 -0.014980 0
20.390000 0.013215 0
20.395000 0.044547 0
20.400000 0.077836 0
20.405000 0.111443 0
20.410000 0.143383 0
20.415000 0.171501 0
20.420000 0.193707 0
20.425000 0.208236 0
20.430000 0.213873 1
20.435000 0.210129 0
20.440000 0.197306 0
20.445000 0.176458 0
20.450000 0.149252 0
20.455000 0.117731 0
20.460000 0.084032 0
20.465000 0.049989 0
20.470000 0.016552 0
20.475000 -0.017089 0
20.480000 -0.054290 0
20.485000 -0.100299 0
20.490000 -0.158359 0
20.495000 -0.222895 0
20.500000 -0.274415 0
20.505000 -0.281553 2
20.510000 -0.209747 0
20.515000 -0.031782 0
20.520000 0.258438 0
20.525000 0.624247 0
20.530000 0.971161 0
20.535000 1.172008 3
20.540000 1.138238 0
20.545000 0.880247 0
20.550000 0.498971 0
20.555000 0.119096 0
20.560000 -0.171829 0
20.565000 -0.338776 0
20.570000 -0.386031 4
20.575000 -0.343152 0
20.580000 -0.253104 0
20.585000 -0.156419 0
20.590000 -0.077123 0
20.595000 -0.020125 0
20.600000 0.020911 0
20.605000 0.054275 0
20.610000 0.085521 0
20.615000 0.117108 0
20.620000 0.149612 0
20.625000 0.182755 0
20.630000 0.215929 0
20.635000 0.248382 0
20.640000 0.279299 0
20.645000 0.307838 0
20.650000 0.333173 0
20.655000 0.354531 0
20.660000 0.371230 0
20.665000 0.382716 0
20.670000 0.388592 0
20.675000 0.388642 5
20.680000 0.382839 0
20.685000 0.371351 0
20.690000 0.354532 0
20.695000 0.332902 0
20.700000 0.307121 0
20.705000 0.277954 0
20.710000 0.246232 0
20.715000 0.212817 0
20.720000 0.178559 0
20.725000 0.144262 0
20.730000 0.110655 0
20.735000 0.078369 0
20.740000 0.047924 0
20.745000 0.019715 0
20.750000 -0.005982 0
20.755000 -0.029007 0
20.760000 -0.049306 0
20.765000 -0.066915 0
20.770000 -0.081943 0
20.775000 -0.094557 0
20.780000 -0.104964 0
20.785000 -0.113393 0
20.790000 -0.120083 0
20.795000 -0.125273 0
20.800000 -0.129190 0
20.805000 -0.132046 0
20.810000 -0.134030 0
20.815000 -0.133459 0
20.820000 -0.132457 0
20.825000 -0.131460 0
20.830000 -0.130467 0
20.835000 -0.129479 0
20.840000 -0.128493 0
20.845000 -0.127509 0
20.850000 -0.126522 0
20.855000 -0.125525 0
20.860000 -0.124505 0
20.865000 -0.123440 0
20.870000 -0.122292 0
20.875000 -0.121000 0
20.880000 -0.119467 0
20.885000 -0.117551 0
20.890000 -0.115044 0
20.895000 -0.111664 0
20.900000 -0.107039 0
20.905000 -0.100711 0
20.910000 -0.092146 0
20.915000 -0.080771 0
20.920000 -0.066034 0
20.925000 -0.047489 0
20.930000 -0.024893 0
20.935000 0.001676 0
20.940000 0.031733 0
20.945000 0.064320 0
20.950000 0.098004 0
20.955000 0.130954 0
20.960000 0.161079 0
20.965000 0.186246 0
20.970000 0.204522 0
20.975000 0.214424 0
20.980000 0.215112 1
20.985000 0.206515 0
20.990000 0.189335 0
20.995000 0.164958 0
21.000000 0.135263 0
21.005000 0.102367 0
21.010000 0.068296 0
21.015000 0.034517 0
21.020000 0.001222 0
21.025000 -0.033594 0
21.030000 -0.074438 0
21.035000 -0.126268 0
21.040000 -0.188952 0
21.045000 -0.250589 0
21.050000 -0.285443 2
21.055000 -0.259601 0
21.060000 -0.140835 0
21.065000 0.090276 0
21.070000 0.423142 0
21.075000 0.795287 0
21.080000 1.091770 0
21.085000 1.193377 3
21.090000 1.050876 0
21.095000 0.721118 0
21.100000 0.326316 0
21.105000 -0.019973 0
21.110000 -0.254612 0
21.115000 -0.362877 4
21.120000 -0.362521 0
21.125000 -0.291465 0
21.130000 -0.194006 0
21.135000 -0.104151 0
21.140000 -0.036219 0
21.145000 0.011714 0
21.150000 0.047949 0
21.155000 0.079718 0
21.160000 0.110933 0
21.165000 0.142945 0
21.170000 0.175797 0
21.175000 0.208998 0
21.180000 0.241847 0
21.185000 0.273547 0
21.190000 0.303254 0
21.195000 0.330125 0
21.200000 0.353350 0
21.205000 0.372194 0
21.210000 0.386037 0
21.215000 0.394404 0
21.220000 0.396993 5
21.225000 0.393691 0
21.230000 0.384585 0
21.235000 0.369950 0
21.240000 0.350244 0
21.245000 0.326074 0
21.250000 0.298173 0
21.255000 0.267357 0
21.260000 0.234486 0
21.265000 0.200427 0
21.270000 0.166012 0
21.275000 0.132011 0
21.280000 0.099102 0
21.285000 0.067852 0
21.290000 0.038710 0
21.295000 0.012000 0
21.300000 -0.012074 0
21.305000 -0.033420 0
21.310000 -0.052041 0
21.315000 -0.068024 0
21.320000 -0.081518 0
21.325000 -0.092719 0
21.330000 -0.101851 0
21.335000 -0.109154 0
21.340000 -0.114869 0
21.345000 -0.119231 0
21.350000 -0.122459 0
21.355000 -0.124751 0
21.360000 -0.124264 0
21.365000 -0.123308 0
21.370000 -0.122357 0
21.375000 -0.121410 0
21.380000 -0.120467 0
21.385000 -0.119527 0
21.390000 -0.118589 0
21.395000 -0.117649 0
21.400000 -0.116702 0
21.405000 -0.115736 0
21.410000 -0.114731 0
21.415000 -0.113656 0
21.420000 -0.112455 0
21.425000 -0.111043 0
21.430000 -0.109288 0
21.435000 -0.107001 0
21.440000 -0.103918 0
21.445000 -0.099686 0
21.450000 -0.093865 0
21.455000 -0.085932 0
21.460000 -0.075316 0
21.465000 -0.061448 0
21.470000 -0.043843 0
21.475000 -0.022201 0
21.480000 0.003481 0
21.485000 0.032812 0
21.490000 0.064929 0
21.495000 0.098488 0
21.500000 0.131712 0
21.505000 0.162534 0
21.510000 0.188789 0
21.515000 0.208471 0
21.520000 0.219980 0
21.525000 0.222336 1
21.530000 0.215323 0
21.535000 0.199514 0
21.540000 0.176198 0
21.545000 0.147203 0
21.550000 0.114643 0
21.555000 0.080603 0
21.560000 0.046691 0
21.565000 0.013351 0
21.570000 -0.021060 0
21.575000 -0.060774 0
21.580000 -0.110980 0
21.585000 -0.172651 0
21.590000 -0.235612 0
21.595000 -0.275515 2
21.600000 -0.258673 0
21.605000 -0.151853 0
21.610000 0.066687 0
21.615000 0.390682 0
21.620000 0.763346 0
21.625000 1.072827 0
21.630000 1.196064 3
21.635000 1.074170 0
21.640000 0.755000 0
21.645000 0.360634 0
21.650000 0.009322 0
21.655000 -0.231302 0
21.660000 -0.344206 0
21.665000 -0.346479 4
21.670000 -0.276374 0
21.675000 -0.179068 0
21.680000 -0.089354 0
21.685000 -0.021789 0
21.690000 0.025714 0
21.695000 0.061645 0
21.700000 0.093274 0
21.705000 0.124455 0
21.710000 0.156470 0
21.715000 0.189312 0
21.720000 0.222459 0
21.725000 0.255183 0
21.730000 0.286664 0
21.735000 0.316042 0
21.740000 0.342457 0
21.745000 0.365090 0
21.750000 0.383205 0
21.755000 0.396188 0
21.760000 0.403580 0
21.765000 0.405103 5
21.770000 0.400679 0
21.775000 0.390429 0
21.780000 0.374673 0
21.785000 0.353911 0
21.790000 0.328794 0
21.795000 0.300089 0
21.800000 0.268644 0
21.805000 0.235342 0
21.810000 0.201062 0
21.815000 0.166638 0
21.820000 0.132832 0
21.825000 0.100306 0
21.830000 0.069604 0
21.835000 0.041144 0
21.840000 0.015217 0
21.845000 -0.008005 0
21.850000 -0.028464 0
21.855000 -0.046193 0
21.860000 -0.061306 0
21.865000 -0.073974 0
21.870000 -0.084410 0
21.875000 -0.092850 0
21.880000 -0.099540 0
21.885000 -0.104726 0
21.890000 -0.108640 0
21.895000 -0.111497 0
21.900000 -0.113491 0
21.905000 -0.113007 0
21.910000 -0.112107 0
21.915000 -0.111211 0
21.920000 -0.110320 0
21.925000 -0.109432 0
21.930000 -0.108545 0
21.935000 -0.107659 0
21.940000 -0.106769 0
21.945000 -0.105865 0
21.950000 -0.104932 0
21.955000 -0.103945 0
21.960000 -0.102857 0
21.965000 -0.101598 0
21.970000 -0.100054 0
21.975000 -0.098058 0
21.980000 -0.095374 0
21.985000 -0.091678 0
21.990000 -0.086554 0
21.995000 -0.079500 0
22.000000 -0.069943 0
22.005000 -0.057296 0
22.010000 -0.041023 0
22.015000 -0.020744 0
22.020000 0.003655 0
22.025000 0.031909 0
22.030000 0.063290 0
22.035000 0.096565 0
22.040000 0.130039 0
22.045000 0.161663 0
22.050000 0.189234 0
22.055000 0.210639 0
22.060000 0.224123 0
22.065000 0.228525 1
22.070000 0.223444 0
22.075000 0.209296 0
22.080000 0.187261 0
22.085000 0.159113 0
22.090000 0.126980 0
22.095000 0.093018 0
22.100000 0.058983 0
22.105000 0.025566 0
22.110000 -0.008559 0
22.115000 -0.047386 0
22.120000 -0.096286 0
22.125000 -0.157068 0
22.130000 -0.220743 0
22.135000 -0.263713 2
22.140000 -0.252060 0
22.145000 -0.151519 0
22.150000 0.061156 0
22.155000 0.381507 0
22.160000 0.754010 0
22.165000 1.065988 0
22.170000 1.191572 3
22.175000 1.069793 0
22.180000 0.749364 0
22.185000 0.354922 0
22.190000 0.006228 0
22.195000 -0.229418 0
22.200000 -0.336286 4
22.205000 -0.333121 0
22.210000 -0.259782 0
22.215000 -0.162122 0
22.220000 -0.074152 0
22.225000 -0.008895 0
22.230000 0.036882 0
22.235000 0.071957 0
22.240000 0.103353 0
22.245000 0.134586 0
22.250000 0.166715 0
22.255000 0.199623 0
22.260000 0.232728 0
22.265000 0.265269 0
22.270000 0.296399 0
22.275000 0.325237 0
22.280000 0.350910 0
22.285000 0.372598 0
22.290000 0.389573 0
22.295000 0.401243 0
22.300000 0.407181 5
22.305000 0.407153 0
22.310000 0.401131 0
22.315000 0.389295 0
22.320000 0.372023 0
22.325000 0.349873 0
22.330000 0.323547 0
22.335000 0.293859 0
22.340000 0.261689 0
22.345000 0.227939 0
22.350000 0.193495 0
22.355000 0.159187 0
22.360000 0.125756 0
22.365000 0.093835 0
22.370000 0.063932 0
22.375000 0.036423 0
22.380000 0.011554 0
22.385000 -0.010547 0
22.390000 -0.029861 0
22.395000 -0.046462 0
22.400000 -0.060490 0
22.405000 -0.072143 0
22.410000 -0.081651 0
22.415000 -0.089260 0
22.420000 -0.095222 0
22.425000 -0.099783 0
22.430000 -0.103171 0
22.435000 -0.105594 0
22.440000 -0.106873 0
22.445000 -0.106004 0
22.450000 -0.105139 0
22.455000 -0.104278 0
22.460000 -0.103420 0
22.465000 -0.102565 0
22.470000 -0.101711 0
22.475000 -0.100854 0
22.480000 -0.099988 0
22.485000 -0.099100 0
22.490000 -0.098168 0
22.495000 -0.097154 0
22.500000 -0.095996 0
22.505000 -0.094596 0
22.510000 -0.092803 0
22.515000 -0.090402 0
22.520000 -0.087093 0
22.525000 -0.082481 0
22.530000 -0.076079 0
22.535000 -0.067320 0
22.540000 -0.055603 0
22.545000 -0.040358 0
22.550000 -0.021145 0
22.555000 0.002233 0
22.560000 0.029608 0
22.565000 0.060355 0
22.570000 0.093332 0
22.575000 0.126902 0
22.580000 0.159038 0
22.585000 0.187504 0
22.590000 0.210108 0
22.595000 0.224978 0
22.600000 0.230817 1
22.605000 0.227088 0
22.610000 0.214095 0
22.615000 0.192943 0
22.620000 0.165380 0
22.625000 0.133546 0
22.630000 0.099656 0
22.635000 0.065562 0
22.640000 0.032093 0
22.645000 -0.001919 0
22.650000 -0.040375 0
22.655000 -0.088759 0
22.660000 -0.149216 0
22.665000 -0.213060 0
22.670000 -0.256582 2
22.675000 -0.245305 0
22.680000 -0.144273 0
22.685000 0.070098 0
22.690000 0.392608 0
22.695000 0.765075 0
22.700000 1.071136 0
22.705000 1.183861 3
22.710000 1.047258 0
22.715000 0.717848 0
22.720000 0.323247 0
22.725000 -0.018681 0
22.730000 -0.244385 0
22.735000 -0.341272 4
22.740000 -0.330404 0
22.745000 -0.253115 0
22.750000 -0.155224 0
22.755000 -0.069199 0
22.760000 -0.006201 0
22.765000 0.038063 0
22.770000 0.072482 0
22.775000 0.103760 0
22.780000 0.135091 0
22.785000 0.167349 0
22.790000 0.200334 0
22.795000 0.233430 0
22.800000 0.265853 0
22.805000 0.296744 0
22.810000 0.325214 0
22.815000 0.350387 0
22.820000 0.371448 0
22.825000 0.387681 0
22.830000 0.398512 0
22.835000 0.403540 5
22.840000 0.402560 0
22.845000 0.395578 0
22.850000 0.382811 0
22.855000 0.364670 0
22.860000 0.341746 0
22.865000 0.314769 0
22.870000 0.284573 0
22.875000 0.252053 0
22.880000 0.218119 0
22.885000 0.183654 0
22.890000 0.149480 0
22.895000 0.116324 0
22.900000 0.084798 0
22.905000 0.055386 0
22.910000 0.028440 0
22.915000 0.004183 0
22.920000 -0.017285 0
22.925000 -0.035964 0
22.930000 -0.051947 0
22.935000 -0.065390 0
22.940000 -0.076501 0
22.945000 -0.085516 0
22.950000 -0.092688 0
22.955000 -0.098269 0
22.960000 -0.102503 0
22.965000 -0.105615 0
22.970000 -0.107809 0
22.975000 -0.107379 0
22.980000 -0.106507 0
22.985000 -0.105639 0
22.990000 -0.104775 0
22.995000 -0.103915 0
23.000000 -0.103057 0
23.005000 -0.102199 0
23.010000 -0.101336 0
23.015000 -0.100462 0
23.020000 -0.099560 0
23.025000 -0.098604 0
23.030000 -0.097550 0
23.035000 -0.096326 0
23.040000 -0.094817 0
23.045000 -0.092854 0
23.050000 -0.090194 0
23.055000 -0.086503 0
23.060000 -0.081355 0
23.065000 -0.074227 0
23.070000 -0.064532 0
23.075000 -0.051665 0
23.080000 -0.035085 0
23.085000 -0.014419 0
23.090000 0.010417 0
23.095000 0.039099 0
23.100000 0.070815 0
23.105000 0.104227 0
23.110000 0.137528 0
23.115000 0.168570 0
23.120000 0.195085 0
23.125000 0.214954 0
23.130000 0.226483 0
23.135000 0.228640 1
23.140000 0.221211 0
23.145000 0.204831 0
23.150000 0.180892 0
23.155000 0.151347 0
23.160000 0.118427 0
23.165000 0.084276 0
23.170000 0.050436 0
23.175000 0.017037 0
23.180000 -0.018218 0
23.185000 -0.060265 0
23.190000 -0.114033 0
23.195000 -0.177888 0
23.200000 -0.236581 0
23.205000 -0.260454 2
23.210000 -0.213156 0
23.215000 -0.062961 0
23.220000 0.203640 0
23.225000 0.560045 0
23.230000 0.918790 0
23.235000 1.148399 3
23.240000 1.144665 0
23.245000 0.904712 0
23.250000 0.528146 0
23.255000 0.145947 0
23.260000 -0.147694 0
23.265000 -0.314784 0
23.270000 -0.359708 4
23.275000 -0.313827 0
23.280000 -0.222319 0
23.285000 -0.126716 0
23.290000 -0.050195 0
23.295000 0.003969 0
23.300000 0.043154 0
23.305000 0.075733 0
23.310000 0.106860 0
23.315000 0.138586 0
23.320000 0.171234 0
23.325000 0.204392 0
23.330000 0.237371 0
23.335000 0.269356 0
23.340000 0.299480 0
23.345000 0.326863 0
23.350000 0.350655 0
23.355000 0.370078 0
23.360000 0.384472 0
23.365000 0.393326 0
23.370000 0.396308 5
23.375000 0.393289 0
23.380000 0.384347 0
23.385000 0.369764 0
23.390000 0.350010 0
23.395000 0.325719 0
23.400000 0.297655 0
23.405000 0.266666 0
23.410000 0.233649 0
23.415000 0.199501 0
23.420000 0.165082 0
23.425000 0.131180 0
23.430000 0.098484 0
23.435000 0.067564 0
23.440000 0.038863 0
23.445000 0.012691 0
23.450000 -0.010766 0
23.455000 -0.031436 0
23.460000 -0.049348 0
23.465000 -0.064611 0
23.470000 -0.077395 0
23.475000 -0.087915 0
23.480000 -0.096410 0
23.485000 -0.103133 0
23.490000 -0.108331 0
23.495000 -0.112242 0
23.500000 -0.115085 0
23.505000 -0.117057 0
23.510000 -0.116554 0
23.515000 -0.115636 0
23.520000 -0.114723 0
23.525000 -0.113814 0
23.530000 -0.112908 0
23.535000 -0.112005 0
23.540000 -0.111101 0
23.545000 -0.110192 0
23.550000 -0.109269 0
23.555000 -0.108315 0
23.560000 -0.107302 0
23.565000 -0.106182 0
23.570000 -0.104877 0
23.575000 -0.103267 0
23.580000 -0.101174 0
23.585000 -0.098343 0
23.590000 -0.094434 0
23.595000 -0.089006 0
23.600000 -0.081534 0
23.605000 -0.071430 0
23.610000 -0.058097 0
23.615000 -0.041013 0
23.620000 -0.019837 0
23.625000 0.005475 0
23.630000 0.034554 0
23.635000 0.066542 0
23.640000 0.100064 0
23.645000 0.133292 0
23.650000 0.164077 0
23.655000 0.190175 0
23.660000 0.209509 0
23.665000 0.220443 0
23.670000 0.222008 1
23.675000 0.214047 0
23.680000 0.197237 0
23.685000 0.172995 0
23.690000 0.143278 0
23.695000 0.110300 0
23.700000 0.076173 0
23.705000 0.042390 0
23.710000 0.009020 0
23.715000 -0.026286 0
23.720000 -0.068465 0
23.725000 -0.122357 0
23.730000 -0.186219 0
23.735000 -0.244824 0
23.740000 -0.268745 2
23.745000 -0.221965 0
23.750000 -0.072979 0
23.755000 0.191912 0
23.760000 0.547203 0
23.765000 0.907495 0
23.770000 1.142872 0
23.775000 1.147959 3
23.780000 0.916249 0
23.785000 0.543402 0
23.790000 0.158144 0
23.795000 -0.143934 0
23.800000 -0.321940 0
23.805000 -0.377376 4
23.810000 -0.338969 0
23.815000 -0.250287 0
23.820000 -0.153354 0
23.825000 -0.073542 0
23.830000 -0.016322 0
23.835000 0.024697 0
23.840000 0.057993 0
23.845000 0.089215 0
23.850000 0.120824 0
23.855000 0.153360 0
23.860000 0.186516 0
23.865000 0.219655 0
23.870000 0.252002 0
23.875000 0.282714 0
23.880000 0.310931 0
23.885000 0.335808 0
23.890000 0.356564 0
23.895000 0.372514 0
23.900000 0.383113 0
23.905000 0.387983 5
23.910000 0.386934 0
23.915000 0.379978 0
23.920000 0.367324 0
23.925000 0.349375 0
23.930000 0.326696 0
23.935000 0.299994 0
23.940000 0.270073 0
23.945000 0.237797 0
23.950000 0.204049 0
23.955000 0.169691 0
23.960000 0.135527 0
23.965000 0.102275 0
23.970000 0.070545 0
23.975000 0.040829 0
23.980000 0.013488 0
23.985000 -0.011238 0
23.990000 -0.033227 0
23.995000 -0.052462 0
24.000000 -0.069012 0
24.005000 -0.083014 0
24.010000 -0.094660 0
24.015000 -0.104171 0
24.020000 -0.111791 0
24.025000 -0.117765 0
24.030000 -0.122333 0
24.035000 -0.125719 0
24.040000 -0.128132 0
24.045000 -0.129375 0
24.050000 -0.128393 0
24.055000 -0.127416 0
24.060000 -0.126444 0
24.065000 -0.125476 0
24.070000 -0.124512 0
24.075000 -0.123549 0
24.080000 -0.122585 0
24.085000 -0.121615 0
24.090000 -0.120626 0
24.095000 -0.119602 0
24.100000 -0.118508 0
24.105000 -0.117292 0
24.110000 -0.115868 0
24.115000 -0.114106 0
24.120000 -0.111815 0
24.125000 -0.108728 0
24.130000 -0.104491 0
24.135000 -0.098656 0
24.140000 -0.090692 0
24.145000 -0.080019 0
24.150000 -0.066059 0
24.155000 -0.048321 0
24.160000 -0.026508 0
24.165000 -0.000628 0
24.170000 0.028899 0
24.175000 0.061174 0
24.180000 0.094799 0
24.185000 0.127946 0
24.190000 0.158494 0
24.195000 0.184251 0
24.200000 0.203203 0
24.205000 0.213779 0
24.210000 0.215064 1
24.215000 0.206932 0
24.220000 0.190062 0
24.225000 0.165851 0
24.230000 0.136214 0
24.235000 0.103319 0
24.240000 0.069239 0
24.245000 0.035468 0
24.250000 0.002155 0
24.255000 -0.032851 0
24.260000 -0.074264 0
24.265000 -0.127026 0
24.270000 -0.190301 0
24.275000 -0.250636 0
24.280000 -0.280466 2
24.285000 -0.244728 0
24.290000 -0.111365 0
24.295000 0.136543 0
24.300000 0.481474 0
24.305000 0.849655 0
24.310000 1.117697 0
24.315000 1.171537 3
24.320000 0.983136 0
24.325000 0.629785 0
24.330000 0.236963 0
24.335000 -0.090635 0
24.340000 -0.300710 0
24.345000 -0.386047 4
24.350000 -0.369002 0
24.355000 -0.289711 0
24.360000 -0.191549 0
24.365000 -0.105091 0
24.370000 -0.041094 0
24.375000 0.004230 0
24.380000 0.039339 0
24.385000 0.070896 0
24.390000 0.102269 0
24.395000 0.134505 0
24.400000 0.167523 0
24.405000 0.200787 0
24.410000 0.233577 0
24.415000 0.265092 0
24.420000 0.294490 0
24.425000 0.320933 0
24.430000 0.343626 0
24.435000 0.361851 0
24.440000 0.375011 0
24.445000 0.382655 0
24.450000 0.384510 5
24.455000 0.380489 0
24.460000 0.370704 0
24.465000 0.355454 0
24.470000 0.335215 0
24.475000 0.310608 0
24.480000 0.282375 0
24.485000 0.251334 0
24.490000 0.218344 0
24.495000 0.184266 0
24.500000 0.149922 0
24.505000 0.116069 0
24.510000 0.083370 0
24.515000 0.052378 0
24.520000 0.023527 0
24.525000 -0.002874 0
24.530000 -0.026633 0
24.535000 -0.047667 0
24.540000 -0.065989 0
24.545000 -0.081689 0
24.550000 -0.094922 0
24.555000 -0.105886 0
24.560000 -0.114804 0
24.565000 -0.121918 0
24.570000 -0.127466 0
24.575000 -0.131680 0
24.580000 -0.134778 0
24.585000 -0.136955 0
24.590000 -0.136400 0
24.595000 -0.135383 0
24.600000 -0.134372 0
24.605000 -0.133365 0
24.610000 -0.132362 0
24.615000 -0.131363 0
24.620000 -0.130366 0
24.625000 -0.129367 0
24.630000 -0.128360 0
24.635000 -0.127335 0
24.640000 -0.126270 0
24.645000 -0.125134 0
24.650000 -0.123871 0
24.655000 -0.122394 0
24.660000 -0.120571 0
24.665000 -0.118213 0
24.670000 -0.115054 0
24.675000 -0.110743 0
24.680000 -0.104838 0
24.685000 -0.096821 0
24.690000 -0.086121 0
24.695000 -0.072174 0
24.700000 -0.054497 0
24.705000 -0.032794 0
24.710000 -0.007062 0
24.715000 0.022310 0
24.720000 0.054466 0
24.725000 0.088070 0
24.730000 0.121361 0
24.735000 0.152280 0
24.740000 0.178677 0
24.745000 0.198549 0
24.750000 0.210295 0
24.755000 0.212928 1
24.760000 0.206210 0
24.765000 0.190692 0
24.770000 0.167638 0
24.775000 0.138852 0
24.780000 0.106435 0
24.785000 0.072465 0
24.790000 0.038574 0
24.795000 0.005274 0
24.800000 -0.028959 0
24.805000 -0.068224 0
24.810000 -0.117732 0
24.815000 -0.178854 0
24.820000 -0.242235 0
24.825000 -0.284414 2
24.830000 -0.272187 0
24.835000 -0.172148 0
24.840000 0.038506 0
24.845000 0.356191 0
24.850000 0.728596 0
24.855000 1.047654 0
24.860000 1.189134 3
24.865000 1.087967 0
24.870000 0.783922 0
24.875000 0.391505 0
24.880000 0.029069 0
24.885000 -0.230557 0
24.890000 -0.364521 0
24.895000 -0.384796 4
24.900000 -0.325497 0
24.905000 -0.230383 0
24.910000 -0.136601 0
24.915000 -0.062989 0
24.920000 -0.010699 0
24.925000 0.027784 0
24.930000 0.060270 0
24.935000 0.091474 0
24.940000 0.123276 0
24.945000 0.155977 0
24.950000 0.189194 0
24.955000 0.222279 0
24.960000 0.254465 0
24.965000 0.284933 0
24.970000 0.312844 0
24.975000 0.337387 0
24.980000 0.357807 0
24.985000 0.373451 0
24.990000 0.383800 0
24.995000 0.388494 5
25.000000 0.387355 0
25.005000 0.380397 0
25.010000 0.367826 0
25.015000 0.350028 0
25.020000 0.327549 0
25.025000 0.301069 0
25.030000 0.271364 0
25.035000 0.239271 0
25.040000 0.205645 0
25.045000 0.171328 0
25.050000 0.137108 0
25.055000 0.103694 0
25.060000 0.071695 0
25.065000 0.041608 0
25.070000 0.013806 0
25.075000 -0.011457 0
25.080000 -0.034039 0
25.085000 -0.053902 0
25.090000 -0.071094 0
25.095000 -0.085735 0
25.100000 -0.097997 0
25.105000 -0.108090 0
25.110000 -0.116245 0
25.115000 -0.122700 0
25.120000 -0.127692 0
25.125000 -0.131444 0
25.130000 -0.134164 0
25.135000 -0.136038 0
25.140000 -0.135442 0
25.145000 -0.134430 0
25.150000 -0.133423 0
25.155000 -0.132421 0
25.160000 -0.131422 0
25.165000 -0.130427 0
25.170000 -0.129432 0
25.175000 -0.128434 0
25.180000 -0.127426 0
25.185000 -0.126393 0
25.190000 -0.125311 0
25.195000 -0.124142 0
25.200000 -0.122822 0
25.205000 -0.121251 0
25.210000 -0.119281 0
25.215000 -0.116701 0
25.220000 -0.113221 0
25.225000 -0.108466 0
25.230000 -0.101970 0
25.235000 -0.093201 0
25.240000 -0.081586 0
25.245000 -0.066581 0
25.250000 -0.047753 0
25.255000 -0.024880 0
25.260000 0.001938 0
25.265000 0.032189 0
25.270000 0.064890 0
25.275000 0.098592 0
25.280000 0.131453 0
25.285000 0.161386 0
25.290000 0.186272 0
25.295000 0.204206 0
25.300000 0.213736 0
25.305000 0.214060 1
25.310000 0.205134 0
25.315000 0.187687 0
25.320000 0.163117 0
25.325000 0.133305 0
25.330000 0.100360 0
25.335000 0.066287 0
25.340000 0.032529 0
25.345000 -0.000760 0
25.350000 -0.035621 0
25.355000 -0.076567 0
25.360000 -0.128512 0
25.365000 -0.191242 0
25.370000 -0.252821 0
25.375000 -0.287589 2
25.380000 -0.261803 0
25.385000 -0.143397 0
25.390000 0.087025 0
25.395000 0.419197 0
25.400000 0.791494 0
25.405000 1.089982 0
25.410000 1.195563 3
25.415000 1.057822 0
25.420000 0.730954 0
25.425000 0.336204 0
25.430000 -0.012331 0
25.435000 -0.250338 0
25.440000 -0.362067 0
25.445000 -0.364483 4
25.450000 -0.294963 0
25.455000 -0.197731 0
25.460000 -0.107250 0
25.465000 -0.038484 0
25.470000 0.010067 0
25.475000 0.046606 0
25.480000 0.078459 0
25.485000 0.109656 0
25.490000 0.141625 0
25.495000 0.174446 0
25.500000 0.207644 0
25.505000 0.240528 0
25.510000 0.272304 0
25.515000 0.302135 0
25.520000 0.329178 0
25.525000 0.352623 0
25.530000 0.371732 0
25.535000 0.385880 0
25.540000 0.394585 0
25.545000 0.397533 5
25.550000 0.394602 0
25.555000 0.385863 0
25.560000 0.371582 0
25.565000 0.352201 0
25.570000 0.328318 0
25.575000 0.300655 0
25.580000 0.270020 0
25.585000 0.237271 0
25.590000 0.203271 0
25.595000 0.168854 0
25.600000 0.134794 0
25.605000 0.101773 0
25.610000 0.070368 0
25.615000 0.041035 0
25.620000 0.014107 0
25.625000 -0.010202 0
25.630000 -0.031790 0
25.635000 -0.050654 0
25.640000 -0.066873 0
25.645000 -0.080591 0
25.650000 -0.091999 0
25.655000 -0.101320 0
25.660000 -0.108790 0
25.665000 -0.114652 0
25.670000 -0.119140 0
25.675000 -0.122473 0
25.680000 -0.124853 0
25.685000 -0.126084 0
25.690000 -0.125119 0
25.695000 -0.124159 0
25.700000 -0.123203 0
25.705000 -0.122251 0
25.710000 -0.121302 0
25.715000 -0.120356 0
25.720000 -0.119408 0
25.725000 -0.118454 0
25.730000 -0.117483 0
25.735000 -0.116477 0
25.740000 -0.115404 0
25.745000 -0.114215 0
25.750000 -0.112828 0
25.755000 -0.111118 0
25.760000 -0.108906 0
25.765000 -0.105938 0
25.770000 -0.101875 0
25.775000 -0.096290 0
25.780000 -0.088671 0
25.785000 -0.078453 0
25.790000 -0.065063 0
25.795000 -0.048002 0
25.800000 -0.026939 0
25.805000 -0.001819 0
25.810000 0.027028 0
25.815000 0.058814 0
25.820000 0.092267 0
25.825000 0.125675 0
25.830000 0.157008 0
25.835000 0.184109 0
25.840000 0.204937 0
25.845000 0.217817 0
25.850000 0.221666 1
25.855000 0.216141 0
25.860000 0.201690 0
25.865000 0.179492 0
25.870000 0.151298 0
25.875000 0.119187 0
25.880000 0.085269 0
25.885000 0.051266 0
25.890000 0.017881 0
25.895000 -0.016104 0
25.900000 -0.054492 0
25.905000 -0.102560 0
25.910000 -0.162531 0
25.915000 -0.226656 0
25.920000 -0.273069 2
25.925000 -0.269214 0
25.930000 -0.181099 0
25.935000 0.016037 0
25.940000 0.322814 0
25.945000 0.693465 0
25.950000 1.025156 0
25.955000 1.191686 3
25.960000 1.116412 0
25.965000 0.826586 0
25.970000 0.436317 0
25.975000 0.069900 0
25.980000 -0.194236 0
25.985000 -0.330709 0
25.990000 -0.351311 4
25.995000 -0.291289 0
26.000000 -0.195903 0
26.005000 -0.103052 0
26.010000 -0.031180 0
26.015000 0.019439 0
26.020000 0.056855 0
26.025000 0.088880 0
26.030000 0.119985 0
26.035000 0.151817 0
26.040000 0.184532 0
26.045000 0.217668 0
26.050000 0.250521 0
26.055000 0.282283 0
26.060000 0.312098 0
26.065000 0.339100 0
26.070000 0.362460 0
26.075000 0.381423 0
26.080000 0.395349 0
26.085000 0.403750 0
26.090000 0.406315 5
26.095000 0.402927 0
26.100000 0.393675 0
26.105000 0.378845 0
26.110000 0.358906 0
26.115000 0.334487 0
26.120000 0.306338 0
26.125000 0.275298 0
26.130000 0.242247 0
26.135000 0.208067 0
26.140000 0.173606 0
26.145000 0.139640 0
26.150000 0.106849 0
26.155000 0.075800 0
26.160000 0.046933 0
26.165000 0.020560 0
26.170000 -0.003128 0
26.175000 -0.024053 0
26.180000 -0.042236 0
26.185000 -0.057778 0
26.190000 -0.070842 0
26.195000 -0.081635 0
26.200000 -0.090391 0
26.205000 -0.097356 0
26.210000 -0.102777 0
26.215000 -0.106888 0
26.220000 -0.109908 0
26.225000 -0.112035 0
26.230000 -0.111577 0
26.235000 -0.110684 0
26.240000 -0.109796 0
26.245000 -0.108911 0
26.250000 -0.108030 0
26.255000 -0.107152 0
26.260000 -0.106273 0
26.265000 -0.105391 0
26.270000 -0.104498 0
26.275000 -0.103579 0
26.280000 -0.102610 0
26.285000 -0.101549 0
26.290000 -0.100330 0
26.295000 -0.098846 0
26.300000 -0.096940 0
26.305000 -0.094386 0
26.310000 -0.090875 0
26.315000 -0.086004 0
26.320000 -0.079282 0
26.325000 -0.070145 0
26.330000 -0.058002 0
26.335000 -0.042304 0
26.340000 -0.022640 0
26.345000 0.001150 0
26.350000 0.028865 0
26.355000 0.059846 0
26.360000 0.092934 0
26.365000 0.126493 0
26.370000 0.158514 0
26.375000 0.186798 0
26.380000 0.209202 0
26.385000 0.223900 0
26.390000 0.229634 1
26.395000 0.225886 0
26.400000 0.212959 0
26.405000 0.191932 0
26.410000 0.164512 0
26.415000 0.132797 0
26.420000 0.098963 0
26.425000 0.064859 0
26.430000 0.031373 0
26.435000 -0.002484 0
26.440000 -0.040355 0
26.445000 -0.087630 0
26.450000 -0.147023 0
26.455000 -0.211375 0
26.460000 -0.258974 2
26.465000 -0.256737 0
26.470000 -0.169775 0
26.475000 0.027421 0
26.480000 0.335382 0
26.485000 0.706407 0
26.490000 1.033961 0
26.495000 1.189452 3
26.500000 1.099078 0
26.505000 0.797530 0
26.510000 0.404970 0
26.515000 0.046041 0
26.520000 -0.204580 0
26.525000 -0.325860 0
26.530000 -0.333397 4
26.535000 -0.265510 0
26.540000 -0.168523 0
26.545000 -0.078584 0
26.550000 -0.010984 0
26.555000 0.036338 0
26.560000 0.072072 0
26.565000 0.103599 0
26.570000 0.134761 0
26.575000 0.166790 0
26.580000 0.199634 0
26.585000 0.232737 0
26.590000 0.265341 0
26.595000 0.296601 0
26.600000 0.325632 0
26.605000 0.351555 0
26.610000 0.373539 0
26.615000 0.390846 0
26.620000 0.402868 0
26.625000 0.409166 0
26.630000 0.409492 5
26.635000 0.403804 0
26.640000 0.392271 0
26.645000 0.375264 0
26.650000 0.353332 0
26.655000 0.327176 0
26.660000 0.297609 0
26.665000 0.265514 0
26.670000 0.231798 0
26.675000 0.197352 0
26.680000 0.163012 0
26.685000 0.129530 0
26.690000 0.097543 0
26.695000 0.067565 0
26.700000 0.039979 0
26.705000 0.015037 0
26.710000 -0.007132 0
26.715000 -0.026508 0
26.720000 -0.043161 0
26.725000 -0.057233 0
26.730000 -0.068922 0
26.735000 -0.078457 0
26.740000 -0.086088 0
26.745000 -0.092068 0
26.750000 -0.096642 0
26.755000 -0.100041 0
26.760000 -0.102474 0
26.765000 -0.103764 0
26.770000 -0.102910 0
26.775000 -0.102061 0
26.780000 -0.101215 0
26.785000 -0.100372 0
26.790000 -0.099533 0
26.795000 -0.098694 0
26.800000 -0.097852 0
26.805000 -0.097000 0
26.810000 -0.096126 0
26.815000 -0.095206 0
26.820000 -0.094203 0
26.825000 -0.093052 0
26.830000 -0.091652 0
26.835000 -0.089851 0
26.840000 -0.087428 0
26.845000 -0.084077 0
26.850000 -0.079396 0
26.855000 -0.072891 0
26.860000 -0.063988 0
26.865000 -0.052084 0
26.870000 -0.036610 0
26.875000 -0.017135 0
26.880000 0.006516 0
26.885000 0.034148 0
26.890000 0.065094 0
26.895000 0.098168 0
26.900000 0.131692 0
26.905000 0.163601 0
26.910000 0.191642 0
26.915000 0.213630 0
26.920000 0.227722 0
26.925000 0.232677 1
26.930000 0.228031 0
26.935000 0.214172 0
26.940000 0.192282 0
26.945000 0.164167 0
26.950000 0.132006 0
26.955000 0.098006 0
26.960000 0.063957 0
26.965000 0.030521 0
26.970000 -0.003766 0
26.975000 -0.043128 0
26.980000 -0.093016 0
26.985000 -0.154666 0
26.990000 -0.217562 0
26.995000 -0.256091 2
27.000000 -0.234904 0
27.005000 -0.119658 0
27.010000 0.110704 0
27.015000 0.445084 0
27.020000 0.816220 0
27.025000 1.101403 0
27.030000 1.178394 3
27.035000 1.006860 0
27.040000 0.658676 0
27.045000 0.265702 0
27.050000 -0.060492 0
27.055000 -0.265115 0
27.060000 -0.342069 4
27.065000 -0.316792 0
27.070000 -0.232904 0
27.075000 -0.135357 0
27.080000 -0.053217 0
27.085000 0.005782 0
27.090000 0.047559 0
27.095000 0.080979 0
27.100000 0.112101 0
27.105000 0.143579 0
27.110000 0.176005 0
27.115000 0.209058 0
27.120000 0.242074 0
27.125000 0.274243 0
27.130000 0.304689 0
27.135000 0.332519 0
27.140000 0.356859 0
27.145000 0.376907 0
27.150000 0.391971 0
27.155000 0.401509 0
27.160000 0.405160 5
27.165000 0.402768 0
27.170000 0.394386 0
27.175000 0.380281 0
27.180000 0.360913 0
27.185000 0.336913 0
27.190000 0.309046 0
27.195000 0.278170 0
27.200000 0.245194 0
27.205000 0.211031 0
27.210000 0.176557 0
27.215000 0.142577 0
27.220000 0.109792 0
27.225000 0.078787 0
27.230000 0.050013 0
27.235000 0.023786 0
27.240000 0.000295 0
27.245000 -0.020387 0
27.250000 -0.038291 0
27.255000 -0.053529 0
27.260000 -0.066276 0
27.265000 -0.076751 0
27.270000 -0.085199 0
27.275000 -0.091875 0
27.280000 -0.097031 0
27.285000 -0.100907 0
27.290000 -0.103723 0
27.295000 -0.105270 0
27.300000 -0.104409 0
27.305000 -0.103552 0
27.310000 -0.102699 0
27.315000 -0.101850 0
27.320000 -0.101003 0
27.325000 -0.100159 0
27.330000 -0.099313 0
27.335000 -0.098460 0
27.340000 -0.097591 0
27.345000 -0.096687 0
27.350000 -0.095716 0
27.355000 -0.094624 0
27.360000 -0.093326 0
27.365000 -0.091688 0
27.370000 -0.089516 0
27.375000 -0.086532 0
27.380000 -0.082367 0
27.385000 -0.076554 0
27.390000 -0.068539 0
27.395000 -0.057717 0
27.400000 -0.043491 0
27.405000 -0.025369 0
27.410000 -0.003074 0
27.415000 0.023331 0
27.420000 0.053335 0
27.425000 0.085910 0
27.430000 0.119509 0
27.435000 0.152153 0
27.440000 0.181603 0
27.445000 0.205602 0
27.450000 0.222162 0
27.455000 0.229831 1
27.460000 0.227903 0
27.465000 0.216527 0
27.470000 0.196685 0
27.475000 0.170051 0
27.480000 0.138750 0
27.485000 0.105039 0
27.490000 0.070888 0
27.495000 0.037342 0
27.500000 0.003557 0
27.505000 -0.034060 0
27.510000 -0.081050 0
27.515000 -0.140352 0
27.520000 -0.204688 0
27.525000 -0.251545 2
27.530000 -0.246616 0
27.535000 -0.154048 0
27.540000 0.051530 0
27.545000 0.367817 0
27.550000 0.740039 0
27.555000 1.053072 0
27.560000 1.176839 3
27.565000 1.050476 0
27.570000 0.727263 0
27.575000 0.332770 0
27.580000 -0.013816 0
27.585000 -0.246355 0
27.590000 -0.350089 4
27.595000 -0.344476 0
27.600000 -0.269832 0
27.605000 -0.172011 0
27.610000 -0.084561 0
27.615000 -0.019935 0
27.620000 0.025432 0
27.625000 0.060359 0
27.630000 0.091773 0
27.635000 0.123093 0
27.640000 0.155320 0
27.645000 0.188309 0
27.650000 0.221471 0
27.655000 0.254035 0
27.660000 0.285152 0
27.665000 0.313938 0
27.670000 0.339519 0
27.675000 0.361077 0
27.680000 0.377887 0
27.685000 0.389362 0
27.690000 0.395084 5
27.695000 0.394826 0
27.700000 0.388572 0
27.705000 0.376511 0
27.710000 0.359032 0
27.715000 0.336703 0
27.720000 0.310234 0
27.725000 0.280445 0
27.730000 0.248220 0
27.735000 0.214465 0
27.740000 0.180065 0
27.745000 0.145845 0
27.750000 0.112546 0
27.755000 0.080792 0
27.760000 0.051084 0
27.765000 0.023793 0
27.770000 -0.000844 0
27.775000 -0.022706 0
27.780000 -0.041781 0
27.785000 -0.058147 0
27.790000 -0.071951 0
27.795000 -0.083392 0
27.800000 -0.092702 0
27.805000 -0.100131 0
27.810000 -0.105930 0
27.815000 -0.110343 0
27.820000 -0.113600 0
27.825000 -0.115905 0
27.830000 -0.115457 0
27.835000 -0.114545 0
27.840000 -0.113637 0
27.845000 -0.112733 0
27.850000 -0.111834 0
27.855000 -0.110937 0
27.860000 -0.110040 0
27.865000 -0.109141 0
27.870000 -0.108232 0
27.875000 -0.107300 0
27.880000 -0.106321 0
27.885000 -0.105256 0
27.890000 -0.104040 0
27.895000 -0.102569 0
27.900000 -0.100689 0
27.905000 -0.098176 0
27.910000 -0.094719 0
27.915000 -0.089916 0
27.920000 -0.083268 0
27.925000 -0.074202 0
27.930000 -0.062114 0
27.935000 -0.046443 0
27.940000 -0.026766 0
27.945000 -0.002918 0
27.950000 0.024890 0
27.955000 0.055976 0
27.960000 0.089141 0
27.965000 0.122699 0
27.970000 0.154582 0
27.975000 0.182542 0
27.980000 0.204404 0
27.985000 0.218345 0
27.990000 0.223142 1
27.995000 0.218352 0
28.000000 0.204377 0
28.005000 0.182410 0
28.010000 0.154262 0
28.015000 0.122106 0
28.020000 0.088142 0
28.025000 0.054147 0
28.030000 0.020761 0
28.035000 -0.013499 0
28.040000 -0.052867 0
28.045000 -0.102775 0
28.050000 -0.164414 0
28.055000 -0.227243 0
28.060000 -0.265688 2
28.065000 -0.244498 0
28.070000 -0.129421 0
28.075000 0.100582 0
28.080000 0.434613 0
28.085000 0.805918 0
28.090000 1.092367 0
28.095000 1.171712 3
28.100000 1.003917 0
28.105000 0.659710 0
28.110000 0.265766 0
28.115000 -0.067885 0
28.120000 -0.284491 0
28.125000 -0.374696 4
28.130000 -0.360307 0
28.135000 -0.281897 0
28.140000 -0.183811 0
28.145000 -0.097422 0
28.150000 -0.033708 0
28.155000 0.011276 0
28.160000 0.046161 0
28.165000 0.077638 0
28.170000 0.109020 0
28.175000 0.141292 0
28.180000 0.174328 0
28.185000 0.207560 0
28.190000 0.240246 0
28.195000 0.271560 0
28.200000 0.300643 0
28.205000 0.326641 0
28.210000 0.348751 0
28.215000 0.366254 0
28.220000 0.378560 0
28.225000 0.385236 0
28.230000 0.386034 5
28.235000 0.380901 0
28.240000 0.369987 0
28.245000 0.353636 0
28.250000 0.332366 0
28.255000 0.306842 0
28.260000 0.277842 0
28.265000 0.246215 0
28.270000 0.212842 0
28.275000 0.178595 0
28.280000 0.144297 0
28.285000 0.110697 0
28.290000 0.078440 0
28.295000 0.048055 0
28.300000 0.019945 0
28.305000 -0.005615 0
28.310000 -0.028465 0
28.315000 -0.048558 0
28.320000 -0.065935 0
28.325000 -0.080717 0
28.330000 -0.093078 0
28.335000 -0.103233 0
28.340000 -0.111419 0
28.345000 -0.117881 0
28.350000 -0.122862 0
28.355000 -0.126594 0
28.360000 -0.129288 0
28.365000 -0.130722 0
28.370000 -0.129734 0
28.375000 -0.128750 0
28.380000 -0.127771 0
28.385000 -0.126797 0
28.390000 -0.125827 0
28.395000 -0.124859 0
