0.000000 1.107936 3
0.005000 1.041479 0
0.010000 0.870868 0
0.015000 0.631048 0
0.020000 0.365891 0
0.025000 0.115012 0
0.030000 -0.094036 0
0.035000 -0.247023 0
0.040000 -0.340514 0
0.045000 -0.378896 4
0.050000 -0.372276 0
0.055000 -0.334628 0
0.060000 -0.281242 0
0.065000 -0.225665 0
0.070000 -0.177234 0
0.075000 -0.140234 0
0.080000 -0.114738 0
0.085000 -0.098384 0
0.090000 -0.088103 0
0.095000 -0.081220 0
0.100000 -0.075860 0
0.105000 -0.070896 0
0.110000 -0.065720 0
0.115000 -0.060018 0
0.120000 -0.053621 0
0.125000 -0.046420 0
0.130000 -0.038332 0
0.135000 -0.029284 0
0.140000 -0.019211 0
0.145000 -0.008060 0
0.150000 0.004215 0
0.155000 0.017641 0
0.160000 0.032233 0
0.165000 0.047981 0
0.170000 0.064858 0
0.175000 0.082807 0
0.180000 0.101748 0
0.185000 0.121571 0
0.190000 0.142141 0
0.195000 0.163289 0
0.200000 0.184825 0
0.205000 0.206530 0
0.210000 0.228164 0
0.215000 0.249468 0
0.220000 0.270171 0
0.225000 0.289991 0
0.230000 0.308647 0
0.235000 0.325859 0
0.240000 0.341360 0
0.245000 0.354901 0
0.250000 0.366256 0
0.255000 0.375229 0
0.260000 0.381662 0
0.265000 0.385434 0
0.270000 0.386470 5
0.275000 0.384742 0
0.280000 0.380265 0
0.285000 0.373104 0
0.290000 0.363368 0
0.295000 0.351209 0
0.300000 0.336815 0
0.305000 0.320408 0
0.310000 0.302238 0
0.315000 0.282575 0
0.320000 0.261702 0
0.325000 0.239912 0
0.330000 0.217495 0
0.335000 0.194738 0
0.340000 0.171913 0
0.345000 0.149277 0
0.350000 0.127065 0
0.355000 0.105487 0
0.360000 0.084726 0
0.365000 0.064934 0
0.370000 0.046237 0
0.375000 0.028727 0
0.380000 0.012471 0
0.385000 -0.002492 0
0.390000 -0.016150 0
0.395000 -0.028509 0
0.400000 -0.039597 0
0.405000 -0.049458 0
0.410000 -0.058149 0
0.415000 -0.065737 0
0.420000 -0.072297 0
0.425000 -0.077908 0
0.430000 -0.082653 0
0.435000 -0.086614 0
0.440000 -0.089871 0
0.445000 -0.092502 0
0.450000 -0.094583 0
0.455000 -0.096182 0
0.460000 -0.097364 0
0.465000 -0.098187 0
0.470000 -0.098704 0
0.475000 -0.098963 0
0.480000 -0.099004 0
0.485000 -0.098864 0
0.490000 -0.098575 0
0.495000 -0.098164 0
0.500000 -0.097654 0
0.505000 -0.097065 0
0.510000 -0.096412 0
0.515000 -0.095709 0
0.520000 -0.094967 0
0.525000 -0.094195 0
0.530000 -0.093401 0
0.535000 -0.092590 0
0.540000 -0.091767 0
0.545000 -0.090931 0
0.550000 -0.090067 0
0.555000 -0.089207 0
0.560000 -0.088352 0
0.565000 -0.087501 0
0.570000 -0.086654 0
0.575000 -0.085812 0
0.580000 -0.084973 0
0.585000 -0.084139 0
0.590000 -0.083309 0
0.595000 -0.082483 0
0.600000 -0.081661 0
0.605000 -0.080844 0
0.610000 -0.080030 0
0.615000 -0.079221 0
0.620000 -0.078415 0
0.625000 -0.077614 0
0.630000 -0.076816 0
0.635000 -0.076023 0
0.640000 -0.075233 0
0.645000 -0.074447 0
0.650000 -0.073666 0
0.655000 -0.072888 0
0.660000 -0.072114 0
0.665000 -0.071344 0
0.670000 -0.070578 0
0.675000 -0.069815 0
0.680000 -0.069057 0
0.685000 -0.068302 0
0.690000 -0.067551 0
0.695000 -0.066803 0
0.700000 -0.066059 0
0.705000 -0.065319 0
0.710000 -0.064582 0
0.715000 -0.063847 0
0.720000 -0.063115 0
0.725000 -0.062385 0
0.730000 -0.061654 0
0.735000 -0.060921 0
0.740000 -0.060182 0
0.745000 -0.059432 0
0.750000 -0.058664 0
0.755000 -0.057866 0
0.760000 -0.057022 0
0.765000 -0.056109 0
0.770000 -0.055098 0
0.775000 -0.053945 0
0.780000 -0.052598 0
0.785000 -0.050984 0
0.790000 -0.049015 0
0.795000 -0.046583 0
0.800000 -0.043555 0
0.805000 -0.039781 0
0.810000 -0.035089 0
0.815000 -0.029294 0
0.820000 -0.022202 0
0.825000 -0.013624 0
0.830000 -0.003389 0
0.835000 0.008642 0
0.840000 0.022557 0
0.845000 0.038370 0
0.850000 0.056008 0
0.855000 0.075295 0
0.860000 0.095939 0
0.865000 0.117534 0
0.870000 0.139561 0
0.875000 0.161407 0
0.880000 0.182387 0
0.885000 0.201780 0
0.890000 0.218868 0
0.895000 0.232975 0
0.900000 0.243520 0
0.905000 0.250048 0
0.910000 0.252266 1
0.915000 0.250063 0
0.920000 0.243519 0
0.925000 0.232903 0
0.930000 0.218647 0
0.935000 0.201325 0
0.940000 0.181608 0
0.945000 0.160223 0
0.950000 0.137911 0
0.955000 0.115381 0
0.960000 0.093277 0
0.965000 0.072151 0
0.970000 0.052438 0
0.975000 0.034451 0
0.980000 0.018360 0
0.985000 0.004173 0
0.990000 -0.008318 0
0.995000 -0.019638 0
1.000000 -0.030759 0
1.005000 -0.043217 0
1.010000 -0.059044 0
1.015000 -0.080350 0
1.020000 -0.108416 0
1.025000 -0.142445 0
1.030000 -0.178433 0
1.035000 -0.208780 0
1.040000 -0.222984 2
1.045000 -0.209200 0
1.050000 -0.156038 0
1.055000 -0.054338 0
1.060000 0.100584 0
1.065000 0.305448 0
1.070000 0.544741 0
1.075000 0.788307 0
1.080000 0.994447 0
1.085000 1.120154 0
1.090000 1.135378 3
1.095000 1.034769 0
1.100000 0.839486 0
1.105000 0.587854 0
1.110000 0.322915 0
1.115000 0.080783 0
1.120000 -0.115049 0
1.125000 -0.253614 0
1.130000 -0.333664 0
1.135000 -0.360978 4
1.140000 -0.346505 0
1.145000 -0.304475 0
1.150000 -0.249790 0
1.155000 -0.195085 0
1.160000 -0.148606 0
1.165000 -0.113720 0
1.170000 -0.089968 0
1.175000 -0.074817 0
1.180000 -0.065260 0
1.185000 -0.058771 0
1.190000 -0.053614 0
1.195000 -0.048758 0
1.200000 -0.043649 0
1.205000 -0.037997 0
1.210000 -0.031646 0
1.215000 -0.024492 0
1.220000 -0.016453 0
1.225000 -0.007460 0
1.230000 0.002550 0
1.235000 0.013631 0
1.240000 0.025825 0
1.245000 0.039161 0
1.250000 0.053650 0
1.255000 0.069285 0
1.260000 0.086038 0
1.265000 0.103854 0
1.270000 0.122654 0
1.275000 0.142334 0
1.280000 0.162758 0
1.285000 0.183767 0
1.290000 0.205172 0
1.295000 0.226761 0
1.300000 0.248301 0
1.305000 0.269540 0
1.310000 0.290212 0
1.315000 0.310041 0
1.320000 0.328752 0
1.325000 0.346069 0
1.330000 0.361730 0
1.335000 0.375484 0
1.340000 0.387109 0
1.345000 0.396405 0
1.350000 0.403212 0
1.355000 0.407403 0
1.360000 0.408896 5
1.365000 0.407654 0
1.370000 0.403683 0
1.375000 0.397035 0
1.380000 0.387808 0
1.385000 0.376141 0
1.390000 0.362210 0
1.395000 0.346224 0
1.400000 0.328422 0
1.405000 0.309064 0
1.410000 0.288425 0
1.415000 0.266789 0
1.420000 0.244444 0
1.425000 0.221671 0
1.430000 0.198743 0
1.435000 0.175919 0
1.440000 0.153436 0
1.445000 0.131510 0
1.450000 0.110330 0
1.455000 0.090057 0
1.460000 0.070824 0
1.465000 0.052735 0
1.470000 0.035865 0
1.475000 0.020264 0
1.480000 0.005954 0
1.485000 -0.007063 0
1.490000 -0.018805 0
1.495000 -0.029310 0
1.500000 -0.038626 0
1.505000 -0.046817 0
1.510000 -0.053952 0
1.515000 -0.060107 0
1.520000 -0.065361 0
1.525000 -0.069796 0
1.530000 -0.073491 0
1.535000 -0.076526 0
1.540000 -0.078974 0
1.545000 -0.080908 0
1.550000 -0.082392 0
1.555000 -0.083488 0
1.560000 -0.084251 0
1.565000 -0.084730 0
1.570000 -0.084969 0
1.575000 -0.085007 0
1.580000 -0.084878 0
1.585000 -0.084612 0
1.590000 -0.084232 0
1.595000 -0.083762 0
1.600000 -0.083217 0
1.605000 -0.082615 0
1.610000 -0.081966 0
1.615000 -0.081282 0
1.620000 -0.080570 0
1.625000 -0.079837 0
1.630000 -0.079089 0
1.635000 -0.078330 0
1.640000 -0.077558 0
1.645000 -0.076761 0
1.650000 -0.075968 0
1.655000 -0.075179 0
1.660000 -0.074393 0
1.665000 -0.073612 0
1.670000 -0.072835 0
1.675000 -0.072061 0
1.680000 -0.071291 0
1.685000 -0.070525 0
1.690000 -0.069763 0
1.695000 -0.069005 0
1.700000 -0.068250 0
1.705000 -0.067499 0
1.710000 -0.066752 0
1.715000 -0.066009 0
1.720000 -0.065269 0
1.725000 -0.064534 0
1.730000 -0.063801 0
1.735000 -0.063073 0
1.740000 -0.062348 0
1.745000 -0.061626 0
1.750000 -0.060909 0
1.755000 -0.060195 0
1.760000 -0.059484 0
1.765000 -0.058777 0
1.770000 -0.058073 0
1.775000 -0.057373 0
1.780000 -0.056677 0
1.785000 -0.055984 0
1.790000 -0.055294 0
1.795000 -0.054607 0
1.800000 -0.053924 0
1.805000 -0.053244 0
1.810000 -0.052566 0
1.815000 -0.051890 0
1.820000 -0.051216 0
1.825000 -0.050541 0
1.830000 -0.049864 0
1.835000 -0.049182 0
1.840000 -0.048489 0
1.845000 -0.047779 0
1.850000 -0.047041 0
1.855000 -0.046260 0
1.860000 -0.045415 0
1.865000 -0.044478 0
1.870000 -0.043409 0
1.875000 -0.042158 0
1.880000 -0.040659 0
1.885000 -0.038828 0
1.890000 -0.036562 0
1.895000 -0.033739 0
1.900000 -0.030213 0
1.905000 -0.025822 0
1.910000 -0.020386 0
1.915000 -0.013717 0
1.920000 -0.005627 0
1.925000 0.004059 0
1.930000 0.015487 0
1.935000 0.028761 0
1.940000 0.043918 0
1.945000 0.060918 0
1.950000 0.079619 0
1.955000 0.099777 0
1.960000 0.121030 0
1.965000 0.142909 0
1.970000 0.164842 0
1.975000 0.186182 0
1.980000 0.206231 0
1.985000 0.224277 0
1.990000 0.239636 0
1.995000 0.251694 0
2.000000 0.259949 0
2.005000 0.264040 1
2.010000 0.263778 0
2.015000 0.259158 0
2.020000 0.250359 0
2.025000 0.237732 0
2.030000 0.221779 0
2.035000 0.203114 0
2.040000 0.182431 0
2.045000 0.160454 0
2.050000 0.137901 0
2.055000 0.115440 0
2.060000 0.093665 0
2.065000 0.073067 0
2.070000 0.054022 0
2.075000 0.036777 0
2.080000 0.021436 0
2.085000 0.007929 0
2.090000 -0.004060 0
2.095000 -0.015202 0
2.100000 -0.026654 0
2.105000 -0.040129 0
2.110000 -0.057721 0
2.115000 -0.081338 0
2.120000 -0.111680 0
2.125000 -0.147008 0
2.130000 -0.182233 0
2.135000 -0.208870 0
2.140000 -0.216024 2
2.145000 -0.192024 0
2.150000 -0.126141 0
2.155000 -0.010349 0
2.160000 0.158243 0
2.165000 0.373699 0
2.170000 0.617280 0
2.175000 0.856122 0
2.180000 1.047878 0
2.185000 1.151918 3
2.190000 1.142354 0
2.195000 1.017932 0
2.200000 0.804976 0
2.205000 0.545735 0
2.210000 0.283953 0
2.215000 0.053741 0
2.220000 -0.124607 0
2.225000 -0.243261 0
2.230000 -0.303650 0
2.235000 -0.313891 4
2.240000 -0.286902 0
2.245000 -0.238095 0
2.250000 -0.182308 0
2.255000 -0.130850 0
2.260000 -0.089936 0
2.265000 -0.060981 0
2.270000 -0.042216 0
2.275000 -0.030593 0
2.280000 -0.023182 0
2.285000 -0.017805 0
2.290000 -0.013103 0
2.295000 -0.008324 0
2.300000 -0.003082 0
2.305000 0.002826 0
2.310000 0.009521 0
2.315000 0.017095 0
2.320000 0.025622 0
2.325000 0.035171 0
2.330000 0.045800 0
2.335000 0.057556 0
2.340000 0.070472 0
2.345000 0.084565 0
2.350000 0.099832 0
2.355000 0.116246 0
2.360000 0.133757 0
2.365000 0.152286 0
2.370000 0.171726 0
2.375000 0.191941 0
2.380000 0.212767 0
2.385000 0.234011 0
2.390000 0.255452 0
2.395000 0.276849 0
2.400000 0.297939 0
2.405000 0.318447 0
2.410000 0.338086 0
2.415000 0.356569 0
2.420000 0.373611 0
2.425000 0.388938 0
2.430000 0.402296 0
2.435000 0.413454 0
2.440000 0.422211 0
2.445000 0.428406 0
2.450000 0.431915 0
2.455000 0.432663 5
2.460000 0.430620 0
2.465000 0.425806 0
2.470000 0.418287 0
2.475000 0.408176 0
2.480000 0.395630 0
2.485000 0.380843 0
2.490000 0.364046 0
2.495000 0.345492 0
2.500000 0.325461 0
2.505000 0.304241 0
2.510000 0.282131 0
2.515000 0.259426 0
2.520000 0.236416 0
2.525000 0.213379 0
2.530000 0.190572 0
2.535000 0.168231 0
2.540000 0.146565 0
2.545000 0.125754 0
2.550000 0.105951 0
2.555000 0.087273 0
2.560000 0.069813 0
2.565000 0.053629 0
2.570000 0.038755 0
2.575000 0.025202 0
2.580000 0.012953 0
2.585000 0.001979 0
2.590000 -0.007771 0
2.595000 -0.016358 0
2.600000 -0.023851 0
2.605000 -0.030330 0
2.610000 -0.035877 0
2.615000 -0.040574 0
2.620000 -0.044506 0
2.625000 -0.047754 0
2.630000 -0.050396 0
2.635000 -0.052507 0
2.640000 -0.054156 0
2.645000 -0.055405 0
2.650000 -0.056313 0
2.655000 -0.056930 0
2.660000 -0.057303 0
2.665000 -0.057472 0
2.670000 -0.057471 0
2.675000 -0.057331 0
2.680000 -0.057078 0
2.685000 -0.056733 0
2.690000 -0.056314 0
2.695000 -0.055837 0
2.700000 -0.055315 0
2.705000 -0.054756 0
2.710000 -0.054171 0
2.715000 -0.053565 0
2.720000 -0.052944 0
2.725000 -0.052312 0
2.730000 -0.051647 0
2.735000 -0.050979 0
2.740000 -0.050314 0
2.745000 -0.049653 0
2.750000 -0.048995 0
2.755000 -0.048340 0
2.760000 -0.047689 0
2.765000 -0.047040 0
2.770000 -0.046395 0
2.775000 -0.045754 0
2.780000 -0.045115 0
2.785000 -0.044480 0
2.790000 -0.043847 0
2.795000 -0.043218 0
2.800000 -0.042592 0
2.805000 -0.041970 0
2.810000 -0.041350 0
2.815000 -0.040733 0
2.820000 -0.040120 0
2.825000 -0.039509 0
2.830000 -0.038902 0
2.835000 -0.038297 0
2.840000 -0.037696 0
2.845000 -0.037098 0
2.850000 -0.036502 0
2.855000 -0.035910 0
2.860000 -0.035320 0
2.865000 -0.034734 0
2.870000 -0.034150 0
2.875000 -0.033569 0
2.880000 -0.032991 0
2.885000 -0.032416 0
2.890000 -0.031843 0
2.895000 -0.031272 0
2.900000 -0.030702 0
2.905000 -0.030134 0
2.910000 -0.029564 0
2.915000 -0.028992 0
2.920000 -0.028413 0
2.925000 -0.027823 0
2.930000 -0.027215 0
2.935000 -0.026576 0
2.940000 -0.025891 0
2.945000 -0.025137 0
2.950000 -0.024284 0
2.955000 -0.023289 0
2.960000 -0.022097 0
2.965000 -0.020636 0
2.970000 -0.018816 0
2.975000 -0.016525 0
2.980000 -0.013630 0
2.985000 -0.009975 0
2.990000 -0.005384 0
2.995000 0.000330 0
3.000000 0.007367 0
3.005000 0.015916 0
3.010000 0.026153 0
3.015000 0.038215 0
3.020000 0.052184 0
3.025000 0.068067 0
3.030000 0.085780 0
3.035000 0.105127 0
3.040000 0.125798 0
3.045000 0.147360 0
3.050000 0.169269 0
3.055000 0.190888 0
3.060000 0.211509 0
3.065000 0.230395 0
3.070000 0.246817 0
3.075000 0.260105 0
3.080000 0.269688 0
3.085000 0.275135 0
3.090000 0.276189 1
3.095000 0.272783 0
3.100000 0.265046 0
3.105000 0.253297 0
3.110000 0.238017 0
3.115000 0.219823 0
3.120000 0.199419 0
3.125000 0.177555 0
3.130000 0.154980 0
3.135000 0.132401 0
3.140000 0.110444 0
3.145000 0.089636 0
3.150000 0.070379 0
3.155000 0.052942 0
3.160000 0.037442 0
3.165000 0.023816 0
3.170000 0.011741 0
3.175000 0.000523 0
3.180000 -0.011051 0
3.185000 -0.024776 0
3.190000 -0.042837 0
3.195000 -0.067160 0
3.200000 -0.098285 0
3.205000 -0.134046 0
3.210000 -0.168673 0
3.215000 -0.192889 0
3.220000 -0.195116 2
3.225000 -0.163282 0
3.230000 -0.086672 0
3.235000 0.042098 0
3.240000 0.224151 0
3.245000 0.450115 0
3.250000 0.696247 0
3.255000 0.924575 0
3.260000 1.090205 0
3.265000 1.154971 3
3.270000 1.100972 0
3.275000 0.937908 0
3.280000 0.700873 0
3.285000 0.435668 0
3.290000 0.184154 0
3.295000 -0.024586 0
3.300000 -0.175759 0
3.305000 -0.266086 0
3.310000 -0.300572 4
3.315000 -0.290235 0
3.320000 -0.250013 0
3.325000 -0.195872 0
3.330000 -0.141445 0
3.335000 -0.095566 0
3.340000 -0.061703 0
3.345000 -0.039177 0
3.350000 -0.025177 0
3.355000 -0.016523 0
3.360000 -0.010649 0
3.365000 -0.005866 0
3.370000 -0.001212 0
3.375000 0.003812 0
3.380000 0.009460 0
3.385000 0.015875 0
3.390000 0.023159 0
3.395000 0.031391 0
3.400000 0.040644 0
3.405000 0.050980 0
3.410000 0.062452 0
3.415000 0.075096 0
3.420000 0.088934 0
3.425000 0.103966 0
3.430000 0.120169 0
3.435000 0.137496 0
3.440000 0.155869 0
3.445000 0.175184 0
3.450000 0.195302 0
3.455000 0.216058 0
3.460000 0.237256 0
3.465000 0.258670 0
3.470000 0.280053 0
3.475000 0.301135 0
3.480000 0.321633 0
3.485000 0.341253 0
3.490000 0.359697 0
3.495000 0.376674 0
3.500000 0.391901 0
3.505000 0.405118 0
3.510000 0.416087 0
3.515000 0.424607 0
3.520000 0.430512 0
3.525000 0.433683 0
3.530000 0.434045 5
3.535000 0.431576 0
3.540000 0.426302 0
3.545000 0.418299 0
3.550000 0.407693 0
3.555000 0.394652 0
3.560000 0.379385 0
3.565000 0.362133 0
3.570000 0.343167 0
3.575000 0.322774 0
3.580000 0.301257 0
3.585000 0.278923 0
3.590000 0.256074 0
3.595000 0.233005 0
3.600000 0.209997 0
3.605000 0.187306 0
3.610000 0.165167 0
3.615000 0.143784 0
3.620000 0.123331 0
3.625000 0.103952 0
3.630000 0.085756 0
3.635000 0.068823 0
3.640000 0.053204 0
3.645000 0.038921 0
3.650000 0.025972 0
3.655000 0.014333 0
3.660000 0.003962 0
3.665000 -0.005198 0
3.670000 -0.013216 0
3.675000 -0.020169 0
3.680000 -0.026139 0
3.685000 -0.031212 0
3.690000 -0.035474 0
3.695000 -0.039011 0
3.700000 -0.041905 0
3.705000 -0.044233 0
3.710000 -0.046068 0
3.715000 -0.047478 0
3.720000 -0.048523 0
3.725000 -0.049258 0
3.730000 -0.049732 0
3.735000 -0.049988 0
3.740000 -0.050064 0
3.745000 -0.049991 0
3.750000 -0.049798 0
3.755000 -0.049507 0
3.760000 -0.049137 0
3.765000 -0.048706 0
3.770000 -0.048226 0
3.775000 -0.047708 0
3.780000 -0.047161 0
3.785000 -0.046593 0
3.790000 -0.046008 0
3.795000 -0.045412 0
3.800000 -0.044781 0
3.805000 -0.044147 0
3.810000 -0.043517 0
3.815000 -0.042889 0
3.820000 -0.042265 0
3.825000 -0.041644 0
3.830000 -0.041026 0
3.835000 -0.040411 0
3.840000 -0.039799 0
3.845000 -0.039190 0
3.850000 -0.038584 0
3.855000 -0.037981 0
3.860000 -0.037381 0
3.865000 -0.036785 0
3.870000 -0.036191 0
3.875000 -0.035600 0
3.880000 -0.035012 0
3.885000 -0.034427 0
3.890000 -0.033845 0
3.895000 -0.033266 0
3.900000 -0.032689 0
3.905000 -0.032116 0
3.910000 -0.031545 0
3.915000 -0.030978 0
3.920000 -0.030413 0
3.925000 -0.029851 0
3.930000 -0.029291 0
3.935000 -0.028735 0
3.940000 -0.028181 0
3.945000 -0.027630 0
3.950000 -0.027081 0
3.955000 -0.026535 0
3.960000 -0.025991 0
3.965000 -0.025449 0
3.970000 -0.024908 0
3.975000 -0.024367 0
3.980000 -0.023824 0
3.985000 -0.023277 0
3.990000 -0.022720 0
3.995000 -0.022149 0
4.000000 -0.021553 0
4.005000 -0.020919 0
4.010000 -0.020226 0
4.015000 -0.019448 0
4.020000 -0.018546 0
4.025000 -0.017469 0
4.030000 -0.016150 0
4.035000 -0.014506 0
4.040000 -0.012429 0
4.045000 -0.009789 0
4.050000 -0.006436 0
4.055000 -0.002195 0
4.060000 0.003125 0
4.065000 0.009726 0
4.070000 0.017807 0
4.075000 0.027556 0
4.080000 0.039126 0
4.085000 0.052617 0
4.090000 0.068057 0
4.095000 0.085382 0
4.100000 0.104416 0
4.105000 0.124863 0
4.110000 0.146299 0
4.115000 0.168183 0
4.120000 0.189871 0
4.125000 0.210644 0
4.130000 0.229742 0
4.135000 0.246414 0
4.140000 0.259961 0
4.145000 0.269785 0
4.150000 0.275435 0
4.155000 0.276635 1
4.160000 0.273309 0
4.165000 0.265586 0
4.170000 0.253793 0
4.175000 0.238428 0
4.180000 0.220126 0
4.185000 0.199617 0
4.190000 0.177673 0
4.195000 0.155062 0
4.200000 0.132507 0
4.205000 0.110644 0
4.210000 0.090000 0
4.215000 0.070974 0
4.220000 0.053820 0
4.225000 0.038635 0
4.230000 0.025312 0
4.235000 0.013459 0
4.240000 0.002265 0
4.245000 -0.009650 0
4.250000 -0.024257 0
4.255000 -0.043818 0
4.260000 -0.070070 0
4.265000 -0.102930 0
4.270000 -0.139152 0
4.275000 -0.171633 0
4.280000 -0.189893 2
4.285000 -0.181633 0
4.290000 -0.134705 0
4.295000 -0.039058 0
4.300000 0.110903 0
4.305000 0.312654 0
4.310000 0.550871 0
4.315000 0.794555 0
4.320000 1.000157 0
4.325000 1.122676 0
4.330000 1.131307 3
4.335000 1.022742 0
4.340000 0.821657 0
4.345000 0.567432 0
4.350000 0.303160 0
4.355000 0.064239 0
4.360000 -0.126844 0
4.365000 -0.260042 0
4.370000 -0.334834 0
4.375000 -0.357590 4
4.380000 -0.339729 0
4.385000 -0.295758 0
4.390000 -0.240560 0
4.395000 -0.186453 0
4.400000 -0.141190 0
4.405000 -0.107662 0
4.410000 -0.085077 0
4.415000 -0.070761 0
4.420000 -0.061711 0
4.425000 -0.055480 0
4.430000 -0.050420 0
4.435000 -0.045567 0
4.440000 -0.040411 0
4.445000 -0.034684 0
4.450000 -0.028239 0
4.455000 -0.020975 0
4.460000 -0.012815 0
4.465000 -0.003687 0
4.470000 0.006470 0
4.475000 0.017708 0
4.480000 0.030068 0
4.485000 0.043576 0
4.490000 0.058242 0
4.495000 0.074054 0
4.500000 0.090979 0
4.505000 0.108959 0
4.510000 0.127911 0
4.515000 0.147723 0
4.520000 0.168256 0
4.525000 0.189343 0
4.530000 0.210790 0
4.535000 0.232381 0
4.540000 0.253876 0
4.545000 0.275019 0
4.550000 0.295540 0
4.555000 0.315163 0
4.560000 0.333607 0
4.565000 0.350600 0
4.570000 0.365879 0
4.575000 0.379197 0
4.580000 0.390335 0
4.585000 0.399100 0
4.590000 0.405338 0
4.595000 0.408931 0
4.600000 0.409806 5
4.605000 0.407935 0
4.610000 0.403336 0
4.615000 0.396071 0
4.620000 0.386249 0
4.625000 0.374017 0
4.630000 0.359563 0
4.635000 0.343105 0
4.640000 0.324887 0
4.645000 0.305176 0
4.650000 0.284251 0
4.655000 0.262400 0
4.660000 0.239910 0
4.665000 0.217063 0
4.670000 0.194132 0
4.675000 0.171369 0
4.680000 0.149009 0
4.685000 0.127261 0
4.690000 0.106308 0
4.695000 0.086305 0
4.700000 0.067376 0
4.705000 0.049619 0
4.710000 0.033101 0
4.715000 0.017863 0
4.720000 0.003924 0
4.725000 -0.008722 0
4.730000 -0.020100 0
4.735000 -0.030250 0
4.740000 -0.039227 0
4.745000 -0.047095 0
4.750000 -0.053927 0
4.755000 -0.059801 0
4.760000 -0.064798 0
4.765000 -0.068999 0
4.770000 -0.072483 0
4.775000 -0.075330 0
4.780000 -0.077612 0
4.785000 -0.079401 0
4.790000 -0.080759 0
4.795000 -0.081748 0
4.800000 -0.082419 0
4.805000 -0.082821 0
4.810000 -0.082997 0
4.815000 -0.082984 0
4.820000 -0.082813 0
4.825000 -0.082514 0
4.830000 -0.082110 0
4.835000 -0.081621 0
4.840000 -0.081064 0
4.845000 -0.080453 0
4.850000 -0.079799 0
4.855000 -0.079113 0
4.860000 -0.078402 0
4.865000 -0.077673 0
4.870000 -0.076930 0
4.875000 -0.076177 0
4.880000 -0.075392 0
4.885000 -0.074606 0
4.890000 -0.073823 0
4.895000 -0.073045 0
4.900000 -0.072270 0
4.905000 -0.071499 0
4.910000 -0.070732 0
4.915000 -0.069969 0
4.920000 -0.069210 0
4.925000 -0.068454 0
4.930000 -0.067703 0
4.935000 -0.066954 0
4.940000 -0.066210 0
4.945000 -0.065470 0
4.950000 -0.064733 0
4.955000 -0.063999 0
4.960000 -0.063270 0
4.965000 -0.062544 0
4.970000 -0.061822 0
4.975000 -0.061103 0
4.980000 -0.060388 0
4.985000 -0.059676 0
4.990000 -0.058968 0
4.995000 -0.058264 0
5.000000 -0.057563 0
5.005000 -0.056865 0
5.010000 -0.056171 0
5.015000 -0.055481 0
5.020000 -0.054793 0
5.025000 -0.054110 0
5.030000 -0.053429 0
5.035000 -0.052752 0
5.040000 -0.052078 0
5.045000 -0.051406 0
5.050000 -0.050737 0
5.055000 -0.050070 0
5.060000 -0.049403 0
5.065000 -0.048735 0
5.070000 -0.048063 0
5.075000 -0.047384 0
5.080000 -0.046691 0
5.085000 -0.045975 0
5.090000 -0.045225 0
5.095000 -0.044422 0
5.100000 -0.043541 0
5.105000 -0.042549 0
5.110000 -0.041400 0
5.115000 -0.040036 0
5.120000 -0.038382 0
5.125000 -0.036344 0
5.130000 -0.033808 0
5.135000 -0.030638 0
5.140000 -0.026680 0
5.145000 -0.021758 0
5.150000 -0.015688 0
5.155000 -0.008278 0
5.160000 0.000654 0
5.165000 0.011272 0
5.170000 0.023701 0
5.175000 0.038010 0
5.180000 0.054197 0
5.185000 0.072166 0
5.190000 0.091718 0
5.195000 0.112541 0
5.200000 0.134210 0
5.205000 0.156191 0
5.210000 0.177864 0
5.215000 0.198545 0
5.220000 0.217517 0
5.225000 0.234078 0
5.230000 0.247574 0
5.235000 0.257449 0
5.240000 0.263278 0
5.245000 0.264798 1
5.250000 0.261927 0
5.255000 0.254771 0
5.260000 0.243615 0
5.265000 0.228908 0
5.270000 0.211226 0
5.275000 0.191243 0
5.280000 0.169677 0
5.285000 0.147260 0
5.290000 0.124685 0
5.295000 0.102583 0
5.300000 0.081488 0
5.305000 0.061824 0
5.310000 0.043888 0
5.315000 0.027841 0
5.320000 0.013682 0
5.325000 0.001195 0
5.330000 -0.010151 0
5.335000 -0.021332 0
5.340000 -0.033872 0
5.345000 -0.049785 0
5.350000 -0.071150 0
5.355000 -0.099230 0
5.360000 -0.133254 0
5.365000 -0.169311 0
5.370000 -0.199963 0
5.375000 -0.214904 2
5.380000 -0.202459 0
5.385000 -0.151342 0
5.390000 -0.052374 0
5.395000 0.099372 0
5.400000 0.301243 0
5.405000 0.538844 0
5.410000 0.783439 0
5.415000 0.994497 0
5.420000 1.129141 0
5.425000 1.155957 3
5.430000 1.065931 0
5.435000 0.876379 0
5.440000 0.626454 0
5.445000 0.361274 0
5.450000 0.118948 0
5.455000 -0.075871 0
5.460000 -0.211926 0
5.465000 -0.288279 0
5.470000 -0.311407 4
5.475000 -0.293186 0
5.480000 -0.248752 0
5.485000 -0.193551 0
5.490000 -0.140165 0
5.495000 -0.096252 0
5.500000 -0.064367 0
5.505000 -0.043350 0
5.510000 -0.030290 0
5.515000 -0.022114 0
5.520000 -0.016421 0
5.525000 -0.011660 0
5.530000 -0.006954 0
5.535000 -0.001849 0
5.540000 0.003890 0
5.545000 0.010398 0
5.550000 0.017770 0
5.555000 0.026086 0
5.560000 0.035415 0
5.565000 0.045818 0
5.570000 0.057345 0
5.575000 0.070033 0
5.580000 0.083902 0
5.585000 0.098952 0
5.590000 0.115161 0
5.595000 0.132483 0
5.600000 0.150842 0
5.605000 0.170137 0
5.610000 0.190235 0
5.615000 0.210973 0
5.620000 0.232162 0
5.625000 0.253583 0
5.630000 0.274996 0
5.635000 0.296138 0
5.640000 0.316732 0
5.645000 0.336491 0
5.650000 0.355124 0
5.655000 0.372344 0
5.660000 0.387873 0
5.665000 0.401451 0
5.670000 0.412841 0
5.675000 0.421840 0
5.680000 0.428279 0
5.685000 0.432030 0
5.690000 0.433013 5
5.695000 0.431193 0
5.700000 0.426586 0
5.705000 0.419255 0
5.710000 0.409313 0
5.715000 0.396912 0
5.720000 0.382248 0
5.725000 0.365550 0
5.730000 0.347075 0
5.735000 0.327100 0
5.740000 0.305919 0
5.745000 0.283832 0
5.750000 0.261136 0
5.755000 0.238126 0
5.760000 0.215081 0
5.765000 0.192261 0
5.770000 0.169905 0
5.775000 0.148224 0
5.780000 0.127401 0
5.785000 0.107588 0
5.790000 0.088906 0
5.795000 0.071446 0
5.800000 0.055269 0
5.805000 0.040408 0
5.810000 0.026872 0
5.815000 0.014647 0
5.820000 0.003699 0
5.825000 -0.006020 0
5.830000 -0.014573 0
5.835000 -0.022032 0
5.840000 -0.028476 0
5.845000 -0.033987 0
5.850000 -0.038650 0
5.855000 -0.042549 0
5.860000 -0.045766 0
5.865000 -0.048380 0
5.870000 -0.050466 0
5.875000 -0.052092 0
5.880000 -0.053322 0
5.885000 -0.054213 0
5.890000 -0.054817 0
5.895000 -0.055179 0
5.900000 -0.055340 0
5.905000 -0.055334 0
5.910000 -0.055191 0
5.915000 -0.054937 0
5.920000 -0.054593 0
5.925000 -0.054177 0
5.930000 -0.053704 0
5.935000 -0.053186 0
5.940000 -0.052634 0
5.945000 -0.052056 0
5.950000 -0.051457 0
5.955000 -0.050845 0
5.960000 -0.050221 0
5.965000 -0.049566 0
5.970000 -0.048908 0
5.975000 -0.048254 0
5.980000 -0.047603 0
5.985000 -0.046955 0
5.990000 -0.046311 0
5.995000 -0.045669 0
6.000000 -0.045031 0
6.005000 -0.044396 0
6.010000 -0.043764 0
6.015000 -0.043136 0
6.020000 -0.042510 0
6.025000 -0.041888 0
6.030000 -0.041269 0
6.035000 -0.040652 0
6.040000 -0.040039 0
6.045000 -0.039429 0
6.050000 -0.038822 0
6.055000 -0.038218 0
6.060000 -0.037617 0
6.065000 -0.037019 0
6.070000 -0.036424 0
6.075000 -0.035832 0
6.080000 -0.035243 0
6.085000 -0.034657 0
6.090000 -0.034074 0
6.095000 -0.033493 0
6.100000 -0.032916 0
6.105000 -0.032341 0
6.110000 -0.031769 0
6.115000 -0.031200 0
6.120000 -0.030633 0
6.125000 -0.030069 0
6.130000 -0.029507 0
6.135000 -0.028946 0
6.140000 -0.028385 0
6.145000 -0.027822 0
6.150000 -0.027256 0
6.155000 -0.026683 0
6.160000 -0.026095 0
6.165000 -0.025485 0
6.170000 -0.024840 0
6.175000 -0.024142 0
6.180000 -0.023365 0
6.185000 -0.022475 0
6.190000 -0.021424 0
6.195000 -0.020152 0
6.200000 -0.018579 0
6.205000 -0.016606 0
6.210000 -0.014113 0
6.215000 -0.010956 0
6.220000 -0.006972 0
6.225000 -0.001976 0
6.230000 0.004226 0
6.235000 0.011833 0
6.240000 0.021033 0
6.245000 0.031989 0
6.250000 0.044820 0
6.255000 0.059579 0
6.260000 0.076239 0
6.265000 0.094668 0
6.270000 0.114621 0
6.275000 0.135732 0
6.280000 0.157515 0
6.285000 0.179377 0
6.290000 0.200640 0
6.295000 0.220572 0
6.300000 0.238427 0
6.305000 0.253492 0
6.310000 0.265130 0
6.315000 0.272826 0
6.320000 0.276225 1
6.325000 0.275155 0
6.330000 0.269642 0
6.335000 0.259912 0
6.340000 0.246367 0
6.345000 0.229566 0
6.350000 0.210180 0
6.355000 0.188947 0
6.360000 0.166629 0
6.365000 0.143965 0
6.370000 0.121631 0
6.375000 0.100210 0
6.380000 0.080168 0
6.385000 0.061844 0
6.390000 0.045430 0
6.395000 0.030953 0
6.400000 0.018222 0
6.405000 0.006725 0
6.410000 -0.004508 0
6.415000 -0.017027 0
6.420000 -0.032911 0
6.425000 -0.054330 0
6.430000 -0.082602 0
6.435000 -0.116872 0
6.440000 -0.152931 0
6.445000 -0.182826 0
6.450000 -0.195648 2
6.455000 -0.179194 0
6.460000 -0.121875 0
6.465000 -0.014599 0
6.470000 0.146745 0
6.475000 0.357455 0
6.480000 0.599563 0
6.485000 0.839891 0
6.490000 1.034479 0
6.495000 1.140442 3
6.500000 1.133212 0
6.505000 1.016057 0
6.510000 0.811474 0
6.515000 0.556792 0
6.520000 0.292302 0
6.525000 0.051316 0
6.530000 -0.144489 0
6.535000 -0.284828 0
6.540000 -0.368303 0
6.545000 -0.400000 4
6.550000 -0.389822 0
6.555000 -0.350885 0
6.560000 -0.297292 0
6.565000 -0.241514 0
6.570000 -0.192299 0
6.575000 -0.153902 0
6.580000 -0.126735 0
6.585000 -0.108830 0
6.590000 -0.097373 0
6.595000 -0.089755 0
6.600000 -0.084042 0
6.605000 -0.078999 0
6.610000 -0.073927 0
6.615000 -0.068452 0
6.620000 -0.062373 0
6.625000 -0.055572 0
6.630000 -0.047961 0
6.635000 -0.039470 0
6.640000 -0.030035 0
6.645000 -0.019600 0
6.650000 -0.008118 0
6.655000 0.004448 0
6.660000 0.018122 0
6.665000 0.032910 0
6.670000 0.048804 0
6.675000 0.065772 0
6.680000 0.083763 0
6.685000 0.102699 0
6.690000 0.122482 0
6.695000 0.142985 0
6.700000 0.164057 0
6.705000 0.185524 0
6.710000 0.207189 0
6.715000 0.228835 0
6.720000 0.250226 0
6.725000 0.271116 0
6.730000 0.291249 0
6.735000 0.310364 0
6.740000 0.328202 0
6.745000 0.344513 0
6.750000 0.359058 0
6.755000 0.371616 0
6.760000 0.381993 0
6.765000 0.390022 0
6.770000 0.395568 0
6.775000 0.398534 0
6.780000 0.398863 5
6.785000 0.396539 0
6.790000 0.391586 0
6.795000 0.384070 0
6.800000 0.374096 0
6.805000 0.361807 0
6.810000 0.347379 0
6.815000 0.331016 0
6.820000 0.312947 0
6.825000 0.293420 0
6.830000 0.272695 0
6.835000 0.251041 0
6.840000 0.228725 0
6.845000 0.206014 0
6.850000 0.183163 0
6.855000 0.160413 0
6.860000 0.137990 0
6.865000 0.116095 0
6.870000 0.094909 0
6.875000 0.074586 0
6.880000 0.055255 0
6.885000 0.037017 0
6.890000 0.019949 0
6.895000 0.004103 0
6.900000 -0.010494 0
6.905000 -0.023835 0
6.910000 -0.035931 0
6.915000 -0.046811 0
6.920000 -0.056518 0
6.925000 -0.065105 0
6.930000 -0.072636 0
6.935000 -0.079178 0
6.940000 -0.084807 0
6.945000 -0.089596 0
6.950000 -0.093623 0
6.955000 -0.096962 0
6.960000 -0.099686 0
6.965000 -0.101864 0
6.970000 -0.103561 0
6.975000 -0.104839 0
6.980000 -0.105753 0
6.985000 -0.106353 0
6.990000 -0.106687 0
6.995000 -0.106793 0
7.000000 -0.106708 0
7.005000 -0.106464 0
7.010000 -0.106088 0
7.015000 -0.105603 0
7.020000 -0.105030 0
7.025000 -0.104385 0
7.030000 -0.103683 0
7.035000 -0.102935 0
7.040000 -0.102152 0
7.045000 -0.101342 0
7.050000 -0.100511 0
7.055000 -0.099664 0
7.060000 -0.098807 0
7.065000 -0.097936 0
7.070000 -0.097037 0
7.075000 -0.096143 0
7.080000 -0.095253 0
7.085000 -0.094367 0
7.090000 -0.093486 0
7.095000 -0.092610 0
7.100000 -0.091737 0
7.105000 -0.090869 0
7.110000 -0.090006 0
7.115000 -0.089147 0
7.120000 -0.088292 0
7.125000 -0.087441 0
7.130000 -0.086594 0
7.135000 -0.085752 0
7.140000 -0.084914 0
7.145000 -0.084080 0
7.150000 -0.083250 0
7.155000 -0.082425 0
7.160000 -0.081603 0
7.165000 -0.080786 0
7.170000 -0.079973 0
7.175000 -0.079163 0
7.180000 -0.078358 0
7.185000 -0.077557 0
7.190000 -0.076760 0
7.195000 -0.075967 0
7.200000 -0.075177 0
7.205000 -0.074392 0
7.210000 -0.073610 0
7.215000 -0.072833 0
7.220000 -0.072059 0
7.225000 -0.071289 0
7.230000 -0.070523 0
7.235000 -0.069760 0
7.240000 -0.069000 0
7.245000 -0.068243 0
7.250000 -0.067488 0
7.255000 -0.066734 0
7.260000 -0.065980 0
7.265000 -0.065223 0
7.270000 -0.064459 0
7.275000 -0.063684 0
7.280000 -0.062889 0
7.285000 -0.062063 0
7.290000 -0.061191 0
7.295000 -0.060251 0
7.300000 -0.059215 0
7.305000 -0.058043 0
7.310000 -0.056685 0
7.315000 -0.055078 0
7.320000 -0.053141 0
7.325000 -0.050776 0
7.330000 -0.047866 0
7.335000 -0.044275 0
7.340000 -0.039849 0
7.345000 -0.034422 0
7.350000 -0.027817 0
7.355000 -0.019857 0
7.360000 -0.010375 0
7.365000 0.000771 0
7.370000 0.013687 0
7.375000 0.028423 0
7.380000 0.044962 0
7.385000 0.063198 0
7.390000 0.082935 0
7.395000 0.103869 0
7.400000 0.125598 0
7.405000 0.147623 0
7.410000 0.169364 0
7.415000 0.190184 0
7.420000 0.209416 0
7.425000 0.226400 0
7.430000 0.240519 0
7.435000 0.251232 0
7.440000 0.258115 0
7.445000 0.260884 1
7.450000 0.259414 0
7.455000 0.253750 0
7.460000 0.244101 0
7.465000 0.230832 0
7.470000 0.214436 0
7.475000 0.195506 0
7.480000 0.174698 0
7.485000 0.152695 0
7.490000 0.130168 0
7.495000 0.107745 0
7.500000 0.085981 0
7.505000 0.065341 0
7.510000 0.046186 0
7.515000 0.028758 0
7.520000 0.013174 0
7.525000 -0.000605 0
7.530000 -0.012824 0
7.535000 -0.024028 0
7.540000 -0.035182 0
7.545000 -0.047748 0
7.550000 -0.063622 0
7.555000 -0.084749 0
7.560000 -0.112351 0
7.565000 -0.145860 0
7.570000 -0.181933 0
7.575000 -0.214029 0
7.580000 -0.232869 2
7.585000 -0.227664 0
7.590000 -0.187646 0
7.595000 -0.103558 0
7.600000 0.030654 0
7.605000 0.215295 0
7.610000 0.441368 0
7.615000 0.687426 0
7.620000 0.919631 0
7.625000 1.097417 0
7.630000 1.184363 3
7.635000 1.158760 0
7.640000 1.021722 0
7.645000 0.801486 0
7.650000 0.540085 0
7.655000 0.279653 0
7.660000 0.052398 0
7.665000 -0.122827 0
7.670000 -0.238987 0
7.675000 -0.297803 0
7.680000 -0.307353 4
7.685000 -0.280289 0
7.690000 -0.231642 0
7.695000 -0.175896 0
7.700000 -0.124178 0
7.705000 -0.082725 0
7.710000 -0.053106 0
7.715000 -0.033728 0
7.720000 -0.021656 0
7.725000 -0.013984 0
7.730000 -0.008509 0
7.735000 -0.003823 0
7.740000 0.000866 0
7.745000 0.005971 0
7.750000 0.011708 0
7.755000 0.018206 0
7.760000 0.025555 0
7.765000 0.033831 0
7.770000 0.043101 0
7.775000 0.053424 0
7.780000 0.064850 0
7.785000 0.077414 0
7.790000 0.091136 0
7.795000 0.106020 0
7.800000 0.122044 0
7.805000 0.139169 0
7.810000 0.157324 0
7.815000 0.176417 0
7.820000 0.196322 0
7.825000 0.216890 0
7.830000 0.237942 0
7.835000 0.259274 0
7.840000 0.280658 0
7.845000 0.301845 0
7.850000 0.322571 0
7.855000 0.342562 0
7.860000 0.361538 0
7.865000 0.379218 0
7.870000 0.395330 0
7.875000 0.409618 0
7.880000 0.421843 0
7.885000 0.431794 0
7.890000 0.439295 0
7.895000 0.444205 0
7.900000 0.446426 5
7.905000 0.445902 0
7.910000 0.442627 0
7.915000 0.436637 0
7.920000 0.428019 0
7.925000 0.416897 0
7.930000 0.403441 0
7.935000 0.387853 0
7.940000 0.370365 0
7.945000 0.351236 0
7.950000 0.330740 0
7.955000 0.309162 0
7.960000 0.286794 0
7.965000 0.263923 0
7.970000 0.240827 0
7.975000 0.217773 0
7.980000 0.195006 0
7.985000 0.172751 0
7.990000 0.151205 0
7.995000 0.130538 0
8.000000 0.110891 0
8.005000 0.092376 0
8.010000 0.075074 0
8.015000 0.059041 0
8.020000 0.044305 0
8.025000 0.030871 0
8.030000 0.018725 0
8.035000 0.007833 0
8.040000 -0.001855 0
8.045000 -0.010398 0
8.050000 -0.017866 0
8.055000 -0.024336 0
8.060000 -0.029888 0
8.065000 -0.034603 0
8.070000 -0.038563 0
8.075000 -0.041847 0
8.080000 -0.044532 0
8.085000 -0.046691 0
8.090000 -0.048389 0
8.095000 -0.049690 0
8.100000 -0.050650 0
8.105000 -0.051319 0
8.110000 -0.051742 0
8.115000 -0.051960 0
8.120000 -0.052007 0
8.125000 -0.051912 0
8.130000 -0.051702 0
8.135000 -0.051398 0
8.140000 -0.051018 0
8.145000 -0.050578 0
8.150000 -0.050090 0
8.155000 -0.049566 0
8.160000 -0.049013 0
8.165000 -0.048438 0
8.170000 -0.047846 0
8.175000 -0.047243 0
8.180000 -0.046627 0
8.185000 -0.045984 0
8.190000 -0.045344 0
8.195000 -0.044708 0
8.200000 -0.044074 0
8.205000 -0.043444 0
8.210000 -0.042817 0
8.215000 -0.042193 0
8.220000 -0.041572 0
8.225000 -0.040954 0
8.230000 -0.040340 0
8.235000 -0.039728 0
8.240000 -0.039120 0
8.245000 -0.038514 0
8.250000 -0.037912 0
8.255000 -0.037312 0
8.260000 -0.036716 0
8.265000 -0.036122 0
8.270000 -0.035532 0
8.275000 -0.034944 0
8.280000 -0.034360 0
8.285000 -0.033778 0
8.290000 -0.033199 0
8.295000 -0.032623 0
8.300000 -0.032050 0
8.305000 -0.031480 0
8.310000 -0.030912 0
8.315000 -0.030348 0
8.320000 -0.029786 0
8.325000 -0.029227 0
8.330000 -0.028670 0
8.335000 -0.028117 0
8.340000 -0.027565 0
8.345000 -0.027016 0
8.350000 -0.026469 0
8.355000 -0.025923 0
8.360000 -0.025378 0
8.365000 -0.024831 0
8.370000 -0.024281 0
8.375000 -0.023723 0
8.380000 -0.023153 0
8.385000 -0.022562 0
8.390000 -0.021940 0
8.395000 -0.021268 0
8.400000 -0.020525 0
8.405000 -0.019678 0
8.410000 -0.018685 0
8.415000 -0.017491 0
8.420000 -0.016024 0
8.425000 -0.014193 0
8.430000 -0.011889 0
8.435000 -0.008980 0
8.440000 -0.005313 0
8.445000 -0.000718 0
8.450000 0.004992 0
8.455000 0.012006 0
8.460000 0.020514 0
8.465000 0.030684 0
8.470000 0.042650 0
8.475000 0.056496 0
8.480000 0.072233 0
8.485000 0.089784 0
8.490000 0.108968 0
8.495000 0.129492 0
8.500000 0.150947 0
8.505000 0.172814 0
8.510000 0.194484 0
8.515000 0.215273 0
8.520000 0.234467 0
8.525000 0.251350 0
8.530000 0.265256 0
8.535000 0.275607 0
8.540000 0.281952 0
8.545000 0.284003 1
8.550000 0.281649 0
8.555000 0.274970 0
8.560000 0.264231 0
8.565000 0.249862 0
8.570000 0.232429 0
8.575000 0.212598 0
8.580000 0.191091 0
8.585000 0.168642 0
8.590000 0.145959 0
8.595000 0.123683 0
8.600000 0.102363 0
8.605000 0.082440 0
8.610000 0.064226 0
8.615000 0.047898 0
8.620000 0.033473 0
8.625000 0.020756 0
8.630000 0.009249 0
8.635000 -0.001987 0
8.640000 -0.014438 0
8.645000 -0.030099 0
8.650000 -0.051084 0
8.655000 -0.078766 0
8.660000 -0.112555 0
8.665000 -0.148759 0
8.670000 -0.180115 0
8.675000 -0.196394 2
8.680000 -0.185879 0
8.685000 -0.137143 0
8.690000 -0.040791 0
8.695000 0.108412 0
8.700000 0.308241 0
8.705000 0.544786 0
8.710000 0.789702 0
8.715000 1.002508 0
8.720000 1.139923 0
8.725000 1.169792 3
8.730000 1.083967 0
8.735000 0.900942 0
8.740000 0.655783 0
8.745000 0.390117 0
8.750000 0.140650 0
8.755000 -0.067295 0
8.760000 -0.220600 0
8.765000 -0.316027 0
8.770000 -0.357541 4
8.775000 -0.354429 0
8.780000 -0.319667 0
8.785000 -0.267720 0
8.790000 -0.211807 0
8.795000 -0.161546 0
8.800000 -0.121915 0
8.805000 -0.093753 0
8.810000 -0.075236 0
8.815000 -0.063511 0
8.820000 -0.055859 0
8.825000 -0.050242 0
8.830000 -0.045356 0
8.835000 -0.040461 0
8.840000 -0.035165 0
8.845000 -0.029259 0
8.850000 -0.022620 0
8.855000 -0.015160 0
8.860000 -0.006806 0
8.865000 0.002508 0
8.870000 0.012837 0
8.875000 0.024232 0
8.880000 0.036727 0
8.885000 0.050347 0
8.890000 0.065097 0
8.895000 0.080966 0
8.900000 0.097919 0
8.905000 0.115900 0
8.910000 0.134828 0
8.915000 0.154595 0
8.920000 0.175069 0
8.925000 0.196091 0
8.930000 0.217477 0
8.935000 0.239021 0
8.940000 0.260495 0
8.945000 0.281656 0
8.950000 0.302248 0
8.955000 0.322006 0
8.960000 0.340664 0
8.965000 0.357957 0
8.970000 0.373632 0
8.975000 0.387448 0
8.980000 0.399188 0
8.985000 0.408660 0
8.990000 0.415704 0
8.995000 0.420195 0
9.000000 0.422049 5
9.005000 0.421221 0
9.010000 0.417712 0
9.015000 0.411564 0
9.020000 0.402862 0
9.025000 0.391729 0
9.030000 0.378329 0
9.035000 0.362854 0
9.040000 0.345526 0
9.045000 0.326591 0
9.050000 0.306309 0
9.055000 0.284952 0
9.060000 0.262796 0
9.065000 0.240115 0
9.070000 0.217176 0
9.075000 0.194233 0
9.080000 0.171526 0
9.085000 0.149271 0
9.090000 0.127664 0
9.095000 0.106872 0
9.100000 0.087038 0
9.105000 0.068276 0
9.110000 0.050673 0
9.115000 0.034293 0
9.120000 0.019170 0
9.125000 0.005319 0
9.130000 -0.007267 0
9.135000 -0.018612 0
9.140000 -0.028755 0
9.145000 -0.037750 0
9.150000 -0.045657 0
9.155000 -0.052548 0
9.160000 -0.058495 0
9.165000 -0.063577 0
9.170000 -0.067870 0
9.175000 -0.071453 0
9.180000 -0.074400 0
9.185000 -0.076782 0
9.190000 -0.078668 0
9.195000 -0.080121 0
9.200000 -0.081197 0
9.205000 -0.081951 0
9.210000 -0.082428 0
9.215000 -0.082672 0
9.220000 -0.082720 0
9.225000 -0.082603 0
9.230000 -0.082351 0
9.235000 -0.081988 0
9.240000 -0.081534 0
9.245000 -0.081006 0
9.250000 -0.080420 0
9.255000 -0.079788 0
9.260000 -0.079119 0
9.265000 -0.078422 0
9.270000 -0.077704 0
9.275000 -0.076970 0
9.280000 -0.076225 0
9.285000 -0.075466 0
9.290000 -0.074679 0
9.295000 -0.073896 0
9.300000 -0.073117 0
9.305000 -0.072342 0
9.310000 -0.071571 0
9.315000 -0.070804 0
9.320000 -0.070040 0
9.325000 -0.069280 0
9.330000 -0.068524 0
9.335000 -0.067772 0
9.340000 -0.067024 0
9.345000 -0.066279 0
9.350000 -0.065538 0
9.355000 -0.064801 0
9.360000 -0.064068 0
9.365000 -0.063338 0
9.370000 -0.062611 0
9.375000 -0.061889 0
9.380000 -0.061170 0
9.385000 -0.060454 0
9.390000 -0.059742 0
9.395000 -0.059034 0
9.400000 -0.058329 0
9.405000 -0.057628 0
9.410000 -0.056930 0
9.415000 -0.056236 0
9.420000 -0.055545 0
9.425000 -0.054857 0
9.430000 -0.054173 0
9.435000 -0.053493 0
9.440000 -0.052815 0
9.445000 -0.052141 0
9.450000 -0.051470 0
9.455000 -0.050802 0
9.460000 -0.050136 0
9.465000 -0.049472 0
9.470000 -0.048810 0
9.475000 -0.048147 0
9.480000 -0.047482 0
9.485000 -0.046812 0
9.490000 -0.046131 0
9.495000 -0.045433 0
9.500000 -0.044709 0
9.505000 -0.043943 0
9.510000 -0.043116 0
9.515000 -0.042202 0
9.520000 -0.041164 0
9.525000 -0.039955 0
9.530000 -0.038512 0
9.535000 -0.036760 0
9.540000 -0.034602 0
9.545000 -0.031924 0
9.550000 -0.028591 0
9.555000 -0.024451 0
9.560000 -0.019333 0
9.565000 -0.013058 0
9.570000 -0.005446 0
9.575000 0.003679 0
9.580000 0.014468 0
9.585000 0.027037 0
9.590000 0.041447 0
9.595000 0.057690 0
9.600000 0.075671 0
9.605000 0.095198 0
9.610000 0.115972 0
9.615000 0.137589 0
9.620000 0.159544 0
9.625000 0.181248 0
9.630000 0.202050 0
9.635000 0.221266 0
9.640000 0.238220 0
9.645000 0.252275 0
9.650000 0.262881 0
9.655000 0.269603 0
9.660000 0.272153 1
9.665000 0.270410 0
9.670000 0.264427 0
9.675000 0.254432 0
9.680000 0.240807 0
9.685000 0.224068 0
9.690000 0.204833 0
9.695000 0.183778 0
9.700000 0.161603 0
9.705000 0.138992 0
9.710000 0.116579 0
9.715000 0.094920 0
9.720000 0.074473 0
9.725000 0.055585 0
9.730000 0.038482 0
9.735000 0.023251 0
9.740000 0.009810 0
9.745000 -0.002156 0
9.750000 -0.013303 0
9.755000 -0.024750 0
9.760000 -0.038139 0
9.765000 -0.055484 0
9.770000 -0.078653 0
9.775000 -0.108442 0
9.780000 -0.143427 0
9.785000 -0.179071 0
9.790000 -0.207578 0
9.795000 -0.218697 2
9.800000 -0.201195 0
9.805000 -0.144458 0
9.810000 -0.040080 0
9.815000 0.116079 0
9.820000 0.320711 0
9.825000 0.559238 0
9.830000 0.803605 0
9.835000 1.014826 0
9.840000 1.151783 0
9.845000 1.183921 3
9.850000 1.098428 0
9.855000 0.911523 0
9.860000 0.662460 0
9.865000 0.397051 0
9.870000 0.154189 0
9.875000 -0.040946 0
9.880000 -0.176878 0
9.885000 -0.252692 0
9.890000 -0.275040 4
9.895000 -0.256065 0
9.900000 -0.211181 0
9.905000 -0.156013 0
9.910000 -0.103147 0
9.915000 -0.060084 0
9.920000 -0.029150 0
9.925000 -0.008994 0
9.930000 0.003397 0
9.935000 0.011105 0
9.940000 0.016490 0
9.945000 0.021053 0
9.950000 0.025626 0
9.955000 0.030638 0
9.960000 0.036310 0
9.965000 0.042772 0
9.970000 0.050118 0
9.975000 0.058427 0
9.980000 0.067767 0
9.985000 0.078200 0
9.990000 0.089774 0
9.995000 0.102524 0
10.000000 0.116466 0
10.005000 0.131598 0
10.010000 0.147892 0
10.015000 0.165295 0
10.020000 0.183725 0
10.025000 0.203072 0
10.030000 0.223194 0
10.035000 0.243921 0
10.040000 0.265051 0
10.045000 0.286357 0
10.050000 0.307589 0
10.055000 0.328476 0
10.060000 0.348733 0
10.065000 0.368067 0
10.070000 0.386182 0
10.075000 0.402789 0
10.080000 0.417611 0
10.085000 0.430391 0
10.090000 0.440897 0
10.095000 0.448934 0
10.100000 0.454344 0
10.105000 0.457013 5
10.110000 0.456876 0
10.115000 0.453915 0
10.120000 0.448165 0
10.125000 0.439707 0
10.130000 0.428671 0
10.135000 0.415232 0
10.140000 0.399600 0
10.145000 0.382021 0
10.150000 0.362764 0
10.155000 0.342120 0
10.160000 0.320389 0
10.165000 0.297877 0
10.170000 0.274885 0
10.175000 0.251704 0
10.180000 0.228611 0
10.185000 0.205861 0
10.190000 0.183682 0
10.195000 0.162276 0
10.200000 0.141814 0
10.205000 0.122434 0
10.210000 0.104243 0
10.215000 0.087319 0
10.220000 0.071708 0
10.225000 0.057431 0
10.230000 0.044484 0
10.235000 0.032843 0
10.240000 0.022463 0
10.245000 0.013287 0
10.250000 0.005246 0
10.255000 -0.001736 0
10.260000 -0.007743 0
10.265000 -0.012861 0
10.270000 -0.017174 0
10.275000 -0.020767 0
10.280000 -0.023722 0
10.285000 -0.026116 0
10.290000 -0.028022 0
10.295000 -0.029505 0
10.300000 -0.030626 0
10.305000 -0.031440 0
10.310000 -0.031995 0
10.315000 -0.032333 0
10.320000 -0.032492 0
10.325000 -0.032503 0
10.330000 -0.032394 0
10.335000 -0.032188 0
10.340000 -0.031903 0
10.345000 -0.031557 0
10.350000 -0.031161 0
10.355000 -0.030728 0
10.360000 -0.030266 0
10.365000 -0.029782 0
10.370000 -0.029281 0
10.375000 -0.028768 0
10.380000 -0.028220 0
10.385000 -0.027669 0
10.390000 -0.027121 0
10.395000 -0.026575 0
10.400000 -0.026032 0
10.405000 -0.025492 0
10.410000 -0.024954 0
10.415000 -0.024419 0
10.420000 -0.023887 0
10.425000 -0.023358 0
10.430000 -0.022831 0
10.435000 -0.022307 0
10.440000 -0.021785 0
10.445000 -0.021266 0
10.450000 -0.020750 0
10.455000 -0.020236 0
10.460000 -0.019724 0
10.465000 -0.019216 0
10.470000 -0.018709 0
10.475000 -0.018206 0
10.480000 -0.017705 0
10.485000 -0.017206 0
10.490000 -0.016710 0
10.495000 -0.016216 0
10.500000 -0.015725 0
10.505000 -0.015236 0
10.510000 -0.014749 0
10.515000 -0.014265 0
10.520000 -0.013784 0
10.525000 -0.013305 0
10.530000 -0.012827 0
10.535000 -0.012352 0
10.540000 -0.011879 0
10.545000 -0.011408 0
10.550000 -0.010937 0
10.555000 -0.010465 0
10.560000 -0.009992 0
10.565000 -0.009515 0
10.570000 -0.009029 0
10.575000 -0.008528 0
10.580000 -0.008003 0
10.585000 -0.007442 0
10.590000 -0.006824 0
10.595000 -0.006123 0
10.600000 -0.005304 0
10.605000 -0.004316 0
10.610000 -0.003097 0
10.615000 -0.001562 0
10.620000 0.000391 0
10.625000 0.002888 0
10.630000 0.006077 0
10.635000 0.010129 0
10.640000 0.015232 0
10.645000 0.021586 0
10.650000 0.029391 0
10.655000 0.038835 0
10.660000 0.050076 0
10.665000 0.063224 0
10.670000 0.078319 0
10.675000 0.095309 0
10.680000 0.114038 0
10.685000 0.134228 0
10.690000 0.155480 0
10.695000 0.177271 0
10.700000 0.198975 0
10.705000 0.219886 0
10.710000 0.239253 0
10.715000 0.256322 0
10.720000 0.270387 0
10.725000 0.280833 0
10.730000 0.287181 0
10.735000 0.289126 1
10.740000 0.286555 0
10.745000 0.279560 0
10.750000 0.268431 0
10.755000 0.253634 0
10.760000 0.235780 0
10.765000 0.215580 0
10.770000 0.193797 0
10.775000 0.171200 0
10.780000 0.148522 0
10.785000 0.126414 0
10.790000 0.105425 0
10.795000 0.085978 0
10.800000 0.068359 0
10.805000 0.052699 0
10.810000 0.038940 0
10.815000 0.026764 0
10.820000 0.015467 0
10.825000 0.003813 0
10.830000 -0.010040 0
10.835000 -0.028328 0
10.840000 -0.053000 0
10.845000 -0.084521 0
10.850000 -0.120495 0
10.855000 -0.154768 0
10.860000 -0.177607 2
10.865000 -0.177033 0
10.870000 -0.140743 0
10.875000 -0.058034 0
10.880000 0.078046 0
10.885000 0.267448 0
10.890000 0.498578 0
10.895000 0.744606 0
10.900000 0.964679 0
10.905000 1.112956 0
10.910000 1.153565 3
10.915000 1.074718 0
10.920000 0.893054 0
10.925000 0.646695 0
10.930000 0.381192 0
10.935000 0.135927 0
10.940000 -0.063075 0
10.945000 -0.203518 0
10.950000 -0.283810 0
10.955000 -0.310041 4
10.960000 -0.293894 0
10.965000 -0.250509 0
10.970000 -0.195526 0
10.975000 -0.141847 0
10.980000 -0.097447 0
10.985000 -0.065102 0
10.990000 -0.043755 0
10.995000 -0.030501 0
11.000000 -0.022232 0
11.005000 -0.016504 0
11.010000 -0.011736 0
11.015000 -0.007033 0
11.020000 -0.001932 0
11.025000 0.003804 0
11.030000 0.010312 0
11.035000 0.017688 0
11.040000 0.026012 0
11.045000 0.035354 0
11.050000 0.045776 0
11.055000 0.057328 0
11.060000 0.070046 0
11.065000 0.083951 0
11.070000 0.099042 0
11.075000 0.115296 0
11.080000 0.132666 0
11.085000 0.151074 0
11.090000 0.170415 0
11.095000 0.190556 0
11.100000 0.211330 0
11.105000 0.232545 0
11.110000 0.253979 0
11.115000 0.275387 0
11.120000 0.296503 0
11.125000 0.317048 0
11.130000 0.336731 0
11.135000 0.355258 0
11.140000 0.372341 0
11.145000 0.387701 0
11.150000 0.401077 0
11.155000 0.412234 0
11.160000 0.420970 0
11.165000 0.427119 0
11.170000 0.430557 0
11.175000 0.431208 5
11.180000 0.429045 0
11.185000 0.424088 0
11.190000 0.416407 0
11.195000 0.406122 0
11.200000 0.393394 0
11.205000 0.378424 0
11.210000 0.361447 0
11.215000 0.342727 0
11.220000 0.322547 0
11.225000 0.301203 0
11.230000 0.278997 0
11.235000 0.256232 0
11.240000 0.233201 0
11.245000 0.210181 0
11.250000 0.187433 0
11.255000 0.165192 0
11.260000 0.143666 0
11.265000 0.123033 0
11.270000 0.103441 0
11.275000 0.085006 0
11.280000 0.067812 0
11.285000 0.051915 0
11.290000 0.037344 0
11.295000 0.024101 0
11.300000 0.012169 0
11.305000 0.001509 0
11.310000 -0.007930 0
11.315000 -0.016216 0
11.320000 -0.023421 0
11.325000 -0.029627 0
11.330000 -0.034918 0
11.335000 -0.039378 0
11.340000 -0.043094 0
11.345000 -0.046145 0
11.350000 -0.048612 0
11.355000 -0.050568 0
11.360000 -0.052080 0
11.365000 -0.053211 0
11.370000 -0.054017 0
11.375000 -0.054548 0
11.380000 -0.054849 0
11.385000 -0.054959 0
11.390000 -0.054911 0
11.395000 -0.054733 0
11.400000 -0.054450 0
11.405000 -0.054084 0
11.410000 -0.053650 0
11.415000 -0.053163 0
11.420000 -0.052635 0
11.425000 -0.052075 0
11.430000 -0.051491 0
11.435000 -0.050889 0
11.440000 -0.050274 0
11.445000 -0.049644 0
11.450000 -0.048986 0
11.455000 -0.048332 0
11.460000 -0.047680 0
11.465000 -0.047032 0
11.470000 -0.046387 0
11.475000 -0.045745 0
11.480000 -0.045107 0
11.485000 -0.044472 0
11.490000 -0.043839 0
11.495000 -0.043210 0
11.500000 -0.042584 0
11.505000 -0.041962 0
11.510000 -0.041342 0
11.515000 -0.040725 0
11.520000 -0.040112 0
11.525000 -0.039501 0
11.530000 -0.038894 0
11.535000 -0.038290 0
11.540000 -0.037688 0
11.545000 -0.037090 0
11.550000 -0.036495 0
11.555000 -0.035902 0
11.560000 -0.035313 0
11.565000 -0.034726 0
11.570000 -0.034143 0
11.575000 -0.033562 0
11.580000 -0.032984 0
11.585000 -0.032409 0
11.590000 -0.031837 0
11.595000 -0.031268 0
11.600000 -0.030701 0
11.605000 -0.030137 0
11.610000 -0.029574 0
11.615000 -0.029014 0
11.620000 -0.028454 0
11.625000 -0.027894 0
11.630000 -0.027331 0
11.635000 -0.026763 0
11.640000 -0.026184 0
11.645000 -0.025587 0
11.650000 -0.024962 0
11.655000 -0.024292 0
11.660000 -0.023557 0
11.665000 -0.022725 0
11.670000 -0.021756 0
11.675000 -0.020595 0
11.680000 -0.019169 0
11.685000 -0.017390 0
11.690000 -0.015145 0
11.695000 -0.012300 0
11.700000 -0.008699 0
11.705000 -0.004163 0
11.710000 0.001499 0
11.715000 0.008487 0
11.720000 0.016998 0
11.725000 0.027209 0
11.730000 0.039259 0
11.735000 0.053234 0
11.740000 0.069140 0
11.745000 0.086889 0
11.750000 0.106281 0
11.755000 0.126994 0
11.760000 0.148585 0
11.765000 0.170496 0
11.770000 0.192072 0
11.775000 0.212590 0
11.780000 0.231300 0
11.785000 0.247464 0
11.790000 0.260406 0
11.795000 0.269559 0
11.800000 0.274503 0
11.805000 0.274997 1
11.810000 0.270999 0
11.815000 0.262666 0
11.820000 0.250347 0
11.825000 0.234557 0
11.830000 0.215940 0
11.835000 0.195222 0
11.840000 0.173171 0
11.845000 0.150542 0
11.850000 0.128041 0
11.855000 0.106287 0
11.860000 0.085790 0
11.865000 0.066930 0
11.870000 0.049947 0
11.875000 0.034921 0
11.880000 0.021729 0
11.885000 0.009961 0
11.890000 -0.001217 0
11.895000 -0.013201 0
11.900000 -0.027966 0
11.905000 -0.047748 0
11.910000 -0.074219 0
11.915000 -0.107216 0
11.920000 -0.143431 0
11.925000 -0.175766 0
11.930000 -0.193820 2
11.935000 -0.185428 0
11.940000 -0.138588 0
11.945000 -0.043359 0
11.950000 0.105841 0
11.955000 0.306669 0
11.960000 0.544279 0
11.965000 0.788431 0
11.970000 0.996337 0
11.975000 1.123289 0
11.980000 1.137904 3
11.985000 1.034367 0
11.990000 0.834842 0
11.995000 0.580458 0
12.000000 0.316482 0
12.005000 0.079761 0
12.010000 -0.106832 0
12.015000 -0.233660 0
12.020000 -0.301068 0
12.025000 -0.316571 4
12.030000 -0.292860 0
12.035000 -0.245499 0
12.040000 -0.189801 0
12.045000 -0.137697 0
12.050000 -0.095942 0
12.055000 -0.066279 0
12.060000 -0.047047 0
12.065000 -0.035171 0
12.070000 -0.027642 0
12.075000 -0.022216 0
12.080000 -0.017488 0
12.085000 -0.012688 0
12.090000 -0.007420 0
12.095000 -0.001478 0
12.100000 0.005261 0
12.105000 0.012889 0
12.110000 0.021484 0
12.115000 0.031113 0
12.120000 0.041835 0
12.125000 0.053698 0
12.130000 0.066736 0
12.135000 0.080962 0
12.140000 0.096373 0
12.145000 0.112938 0
12.150000 0.130602 0
12.155000 0.149283 0
12.160000 0.168868 0
12.165000 0.189215 0
12.170000 0.210150 0
12.175000 0.231473 0
12.180000 0.252956 0
12.185000 0.274349 0
12.190000 0.295380 0
12.195000 0.315766 0
12.200000 0.335216 0
12.205000 0.353434 0
12.210000 0.370135 0
12.215000 0.385042 0
12.220000 0.397900 0
12.225000 0.408483 0
12.230000 0.416595 0
12.235000 0.422081 0
12.240000 0.424831 5
12.245000 0.424778 0
12.250000 0.421909 0
12.255000 0.416258 0
12.260000 0.407908 0
12.265000 0.396990 0
12.270000 0.383676 0
12.275000 0.368177 0
12.280000 0.350738 0
12.285000 0.331627 0
12.290000 0.311134 0
12.295000 0.289557 0
12.300000 0.267199 0
12.305000 0.244362 0
12.310000 0.221335 0
12.315000 0.198392 0
12.320000 0.175788 0
12.325000 0.153751 0
12.330000 0.132482 0
12.335000 0.112150 0
12.340000 0.092894 0
12.345000 0.074823 0
12.350000 0.058012 0
12.355000 0.042510 0
12.360000 0.028338 0
12.365000 0.015492 0
12.370000 0.003949 0
12.375000 -0.006335 0
12.380000 -0.015415 0
12.385000 -0.023361 0
12.390000 -0.030248 0
12.395000 -0.036158 0
12.400000 -0.041178 0
12.405000 -0.045391 0
12.410000 -0.048882 0
12.415000 -0.051733 0
12.420000 -0.054020 0
12.425000 -0.055815 0
12.430000 -0.057186 0
12.435000 -0.058193 0
12.440000 -0.058890 0
12.445000 -0.059326 0
12.450000 -0.059543 0
12.455000 -0.059580 0
12.460000 -0.059467 0
12.465000 -0.059233 0
12.470000 -0.058901 0
12.475000 -0.058489 0
12.480000 -0.058016 0
12.485000 -0.057493 0
12.490000 -0.056932 0
12.495000 -0.056342 0
12.500000 -0.055730 0
12.505000 -0.055101 0
12.510000 -0.054461 0
12.515000 -0.053785 0
12.520000 -0.053107 0
12.525000 -0.052431 0
12.530000 -0.051760 0
12.535000 -0.051091 0
12.540000 -0.050426 0
12.545000 -0.049764 0
12.550000 -0.049105 0
12.555000 -0.048450 0
12.560000 -0.047798 0
12.565000 -0.047149 0
12.570000 -0.046504 0
12.575000 -0.045861 0
12.580000 -0.045222 0
12.585000 -0.044586 0
12.590000 -0.043954 0
12.595000 -0.043324 0
12.600000 -0.042698 0
12.605000 -0.042074 0
12.610000 -0.041454 0
12.615000 -0.040837 0
12.620000 -0.040223 0
12.625000 -0.039612 0
12.630000 -0.039004 0
12.635000 -0.038399 0
12.640000 -0.037797 0
12.645000 -0.037198 0
12.650000 -0.036602 0
12.655000 -0.036009 0
12.660000 -0.035419 0
12.665000 -0.034832 0
12.670000 -0.034247 0
12.675000 -0.033665 0
12.680000 -0.033085 0
12.685000 -0.032506 0
12.690000 -0.031928 0
12.695000 -0.031349 0
12.700000 -0.030766 0
12.705000 -0.030177 0
12.710000 -0.029575 0
12.715000 -0.028952 0
12.720000 -0.028296 0
12.725000 -0.027589 0
12.730000 -0.026807 0
12.735000 -0.025916 0
12.740000 -0.024870 0
12.745000 -0.023610 0
12.750000 -0.022056 0
12.755000 -0.020112 0
12.760000 -0.017658 0
12.765000 -0.014552 0
12.770000 -0.010629 0
12.775000 -0.005706 0
12.780000 0.000415 0
12.785000 0.007932 0
12.790000 0.017039 0
12.795000 0.027902 0
12.800000 0.040643 0
12.805000 0.055322 0
12.810000 0.071915 0
12.815000 0.090294 0
12.820000 0.110217 0
12.825000 0.131318 0
12.830000 0.153110 0
12.835000 0.174997 0
12.840000 0.196294 0
12.845000 0.216264 0
12.850000 0.234152 0
12.855000 0.249238 0
12.860000 0.260879 0
12.865000 0.268555 0
12.870000 0.271908 1
12.875000 0.270769 0
12.880000 0.265169 0
12.885000 0.255337 0
12.890000 0.241689 0
12.895000 0.224790 0
12.900000 0.205323 0
12.905000 0.184037 0
12.910000 0.161700 0
12.915000 0.139056 0
12.920000 0.116782 0
12.925000 0.095461 0
12.930000 0.075555 0
12.935000 0.057395 0
12.940000 0.041164 0
12.945000 0.026872 0
12.950000 0.014301 0
12.955000 0.002897 0
12.960000 -0.008376 0
12.965000 -0.021147 0
12.970000 -0.037556 0
12.975000 -0.059754 0
12.980000 -0.088879 0
12.985000 -0.123693 0
12.990000 -0.159446 0
12.995000 -0.187627 0
13.000000 -0.196918 2
13.005000 -0.174967 0
13.010000 -0.110324 0
13.015000 0.005599 0
13.020000 0.175813 0
13.025000 0.393625 0
13.030000 0.638252 0
13.035000 0.873711 0
13.040000 1.054734 0
13.045000 1.139939 3
13.050000 1.107250 0
13.055000 0.962371 0
13.060000 0.736242 0
13.065000 0.473101 0
13.070000 0.215860 0
13.075000 -0.003896 0
13.080000 -0.168705 0
13.085000 -0.273083 0
13.090000 -0.320272 4
13.095000 -0.319840 0
13.100000 -0.285739 0
13.105000 -0.233729 0
13.110000 -0.178143 0
13.115000 -0.129125 0
13.120000 -0.091533 0
13.125000 -0.065704 0
13.130000 -0.049296 0
13.135000 -0.039151 0
13.140000 -0.032492 0
13.145000 -0.027380 0
13.150000 -0.022657 0
13.155000 -0.017704 0
13.160000 -0.012206 0
13.165000 -0.005990 0
13.170000 0.001050 0
13.175000 0.009001 0
13.180000 0.017937 0
13.185000 0.027922 0
13.190000 0.039012 0
13.195000 0.051250 0
13.200000 0.064665 0
13.205000 0.079265 0
13.210000 0.095039 0
13.215000 0.111950 0
13.220000 0.129936 0
13.225000 0.148907 0
13.230000 0.168743 0
13.235000 0.189293 0
13.240000 0.210379 0
13.245000 0.231794 0
13.250000 0.253305 0
13.255000 0.274657 0
13.260000 0.295578 0
13.265000 0.315784 0
13.270000 0.334983 0
13.275000 0.352884 0
13.280000 0.369205 0
13.285000 0.383675 0
13.290000 0.396048 0
13.295000 0.406105 0
13.300000 0.413660 0
13.305000 0.418570 0
13.310000 0.420733 5
13.315000 0.420097 0
13.320000 0.416656 0
13.325000 0.410456 0
13.330000 0.401590 0
13.335000 0.390195 0
13.340000 0.376451 0
13.345000 0.360576 0
13.350000 0.342817 0
13.355000 0.323446 0
13.360000 0.302752 0
13.365000 0.281034 0
13.370000 0.258592 0
13.375000 0.235724 0
13.380000 0.212715 0
13.385000 0.189836 0
13.390000 0.167335 0
13.395000 0.145433 0
13.400000 0.124325 0
13.405000 0.104176 0
13.410000 0.085118 0
13.415000 0.067254 0
13.420000 0.050656 0
13.425000 0.035366 0
13.430000 0.021403 0
13.435000 0.008759 0
13.440000 -0.002591 0
13.445000 -0.012691 0
13.450000 -0.021601 0
13.455000 -0.029388 0
13.460000 -0.036130 0
13.465000 -0.041909 0
13.470000 -0.046809 0
13.475000 -0.050915 0
13.480000 -0.054310 0
13.485000 -0.057074 0
13.490000 -0.059285 0
13.495000 -0.061013 0
13.500000 -0.062323 0
13.505000 -0.063275 0
13.510000 -0.063923 0
13.515000 -0.064315 0
13.520000 -0.064493 0
13.525000 -0.064493 0
13.530000 -0.064346 0
13.535000 -0.064080 0
13.540000 -0.063718 0
13.545000 -0.063278 0
13.550000 -0.062777 0
13.555000 -0.062228 0
13.560000 -0.061642 0
13.565000 -0.061027 0
13.570000 -0.060391 0
13.575000 -0.059738 0
13.580000 -0.059074 0
13.585000 -0.058376 0
13.590000 -0.057674 0
13.595000 -0.056976 0
13.600000 -0.056282 0
13.605000 -0.055590 0
13.610000 -0.054903 0
13.615000 -0.054219 0
13.620000 -0.053538 0
13.625000 -0.052860 0
13.630000 -0.052186 0
13.635000 -0.051516 0
13.640000 -0.050848 0
13.645000 -0.050184 0
13.650000 -0.049524 0
13.655000 -0.048866 0
13.660000 -0.048212 0
13.665000 -0.047561 0
13.670000 -0.046914 0
13.675000 -0.046269 0
13.680000 -0.045628 0
13.685000 -0.044990 0
13.690000 -0.044356 0
13.695000 -0.043724 0
13.700000 -0.043096 0
13.705000 -0.042470 0
13.710000 -0.041848 0
13.715000 -0.041229 0
13.720000 -0.040613 0
13.725000 -0.040000 0
13.730000 -0.039390 0
13.735000 -0.038783 0
13.740000 -0.038178 0
13.745000 -0.037576 0
13.750000 -0.036977 0
13.755000 -0.036379 0
13.760000 -0.035782 0
13.765000 -0.035184 0
13.770000 -0.034583 0
13.775000 -0.033976 0
13.780000 -0.033357 0
13.785000 -0.032718 0
13.790000 -0.032047 0
13.795000 -0.031329 0
13.800000 -0.030538 0
13.805000 -0.029644 0
13.810000 -0.028601 0
13.815000 -0.027352 0
13.820000 -0.025821 0
13.825000 -0.023916 0
13.830000 -0.021519 0
13.835000 -0.018492 0
13.840000 -0.014674 0
13.845000 -0.009886 0
13.850000 -0.003933 0
13.855000 0.003383 0
13.860000 0.012256 0
13.865000 0.022855 0
13.870000 0.035310 0
13.875000 0.049693 0
13.880000 0.065993 0
13.885000 0.084102 0
13.890000 0.103798 0
13.895000 0.124740 0
13.900000 0.146464 0
13.905000 0.168396 0
13.910000 0.189869 0
13.915000 0.210158 0
13.920000 0.228513 0
13.925000 0.244209 0
13.930000 0.256588 0
13.935000 0.265107 0
13.940000 0.269375 1
13.945000 0.269184 0
13.950000 0.264524 0
13.955000 0.255581 0
13.960000 0.242732 0
13.965000 0.226508 0
13.970000 0.207565 0
13.975000 0.186637 0
13.980000 0.164487 0
13.985000 0.141864 0
13.990000 0.119458 0
13.995000 0.097873 0
14.000000 0.077598 0
14.005000 0.058996 0
14.010000 0.042285 0
14.015000 0.027524 0
14.020000 0.014560 0
14.025000 0.002944 0
14.030000 -0.008216 0
14.035000 -0.020376 0
14.040000 -0.035556 0
14.045000 -0.055968 0
14.050000 -0.083148 0
14.055000 -0.116660 0
14.060000 -0.152842 0
14.065000 -0.184258 0
14.070000 -0.200310 2
14.075000 -0.188826 0
14.080000 -0.137973 0
14.085000 -0.038144 0
14.090000 0.115694 0
14.095000 0.320335 0
14.100000 0.559808 0
14.105000 0.802821 0
14.110000 1.006182 0
14.115000 1.125847 0
14.120000 1.132103 3
14.125000 1.024635 0
14.130000 0.826254 0
14.135000 0.574027 0
14.140000 0.309050 0
14.145000 0.065873 0
14.150000 -0.132717 0
14.155000 -0.275699 0
14.160000 -0.361292 0
14.165000 -0.394442 4
14.170000 -0.385081 0
14.175000 -0.346481 0
14.180000 -0.292967 0
14.185000 -0.237222 0
14.190000 -0.188123 0
14.195000 -0.149952 0
14.200000 -0.123070 0
14.205000 -0.105443 0
14.210000 -0.094208 0
14.215000 -0.086737 0
14.220000 -0.081102 0
14.225000 -0.076087 0
14.230000 -0.071008 0
14.235000 -0.065501 0
14.240000 -0.059374 0
14.245000 -0.052509 0
14.250000 -0.044820 0
14.255000 -0.036236 0
14.260000 -0.026693 0
14.265000 -0.016135 0
14.270000 -0.004516 0
14.275000 0.008201 0
14.280000 0.022037 0
14.285000 0.036997 0
14.290000 0.053068 0
14.295000 0.070215 0
14.300000 0.088381 0
14.305000 0.107485 0
14.310000 0.127419 0
14.315000 0.148050 0
14.320000 0.169221 0
14.325000 0.190749 0
14.330000 0.212428 0
14.335000 0.234034 0
14.340000 0.255325 0
14.345000 0.276047 0
14.350000 0.295938 0
14.355000 0.314733 0
14.360000 0.332171 0
14.365000 0.348000 0
14.370000 0.361982 0
14.375000 0.373902 0
14.380000 0.383567 0
14.385000 0.390818 0
14.390000 0.395532 0
14.395000 0.397622 5
14.400000 0.397044 0
14.405000 0.393794 0
14.410000 0.387914 0
14.415000 0.379485 0
14.420000 0.368627 0
14.425000 0.355499 0
14.430000 0.340290 0
14.435000 0.323220 0
14.440000 0.304528 0
14.445000 0.284473 0
14.450000 0.263323 0
14.455000 0.241351 0
14.460000 0.218829 0
14.465000 0.196023 0
14.470000 0.173187 0
14.475000 0.150559 0
14.480000 0.128357 0
14.485000 0.106777 0
14.490000 0.085989 0
14.495000 0.066137 0
14.500000 0.047339 0
14.505000 0.029684 0
14.510000 0.013237 0
14.515000 -0.001961 0
14.520000 -0.015895 0
14.525000 -0.028566 0
14.530000 -0.039998 0
14.535000 -0.050226 0
14.540000 -0.059302 0
14.545000 -0.067284 0
14.550000 -0.074241 0
14.555000 -0.080246 0
14.560000 -0.085375 0
14.565000 -0.089704 0
14.570000 -0.093311 0
14.575000 -0.096271 0
14.580000 -0.098655 0
14.585000 -0.100531 0
14.590000 -0.101963 0
14.595000 -0.103009 0
14.600000 -0.103722 0
14.605000 -0.104151 0
14.610000 -0.104338 0
14.615000 -0.104322 0
14.620000 -0.104135 0
14.625000 -0.103808 0
14.630000 -0.103364 0
14.635000 -0.102826 0
14.640000 -0.102211 0
14.645000 -0.101534 0
14.650000 -0.100809 0
14.655000 -0.100046 0
14.660000 -0.099253 0
14.665000 -0.098437 0
14.670000 -0.097605 0
14.675000 -0.096761 0
14.680000 -0.095908 0
14.685000 -0.095025 0
14.690000 -0.094141 0
14.695000 -0.093261 0
14.700000 -0.092385 0
14.705000 -0.091514 0
14.710000 -0.090647 0
14.715000 -0.089785 0
14.720000 -0.088927 0
14.725000 -0.088073 0
14.730000 -0.087223 0
14.735000 -0.086378 0
14.740000 -0.085537 0
14.745000 -0.084700 0
14.750000 -0.083867 0
14.755000 -0.083038 0
14.760000 -0.082214 0
14.765000 -0.081393 0
14.770000 -0.080577 0
14.775000 -0.079765 0
14.780000 -0.078956 0
14.785000 -0.078152 0
14.790000 -0.077352 0
14.795000 -0.076556 0
14.800000 -0.075764 0
14.805000 -0.074975 0
14.810000 -0.074191 0
14.815000 -0.073411 0
14.820000 -0.072634 0
14.825000 -0.071861 0
14.830000 -0.071093 0
14.835000 -0.070327 0
14.840000 -0.069566 0
14.845000 -0.068808 0
14.850000 -0.068054 0
14.855000 -0.067302 0
14.860000 -0.066554 0
14.865000 -0.065807 0
14.870000 -0.065062 0
14.875000 -0.064315 0
14.880000 -0.063565 0
14.885000 -0.062808 0
14.890000 -0.062039 0
14.895000 -0.061248 0
14.900000 -0.060424 0
14.905000 -0.059551 0
14.910000 -0.058606 0
14.915000 -0.057557 0
14.920000 -0.056365 0
14.925000 -0.054975 0
14.930000 -0.053319 0
14.935000 -0.051313 0
14.940000 -0.048854 0
14.945000 -0.045817 0
14.950000 -0.042063 0
14.955000 -0.037430 0
14.960000 -0.031746 0
14.965000 -0.024832 0
14.970000 -0.016509 0
14.975000 -0.006612 0
14.980000 0.004996 0
14.985000 0.018408 0
14.990000 0.033658 0
14.995000 0.050704 0
15.000000 0.069414 0
15.005000 0.089554 0
15.010000 0.110787 0
15.015000 0.132671 0
15.020000 0.154670 0
15.025000 0.176173 0
15.030000 0.196519 0
15.035000 0.215029 0
15.040000 0.231043 0
15.045000 0.243958 0
15.050000 0.253265 0
15.055000 0.258585 0
15.060000 0.259688 1
15.065000 0.256516 0
15.070000 0.249183 0
15.075000 0.237969 0
15.080000 0.223301 0
15.085000 0.205728 0
15.090000 0.185886 0
15.095000 0.164457 0
15.100000 0.142134 0
15.105000 0.119581 0
15.110000 0.097407 0
15.115000 0.076133 0
15.120000 0.056182 0
15.125000 0.037863 0
15.130000 0.021361 0
15.135000 0.006719 0
15.140000 -0.006202 0
15.145000 -0.017797 0
15.150000 -0.028830 0
15.155000 -0.040549 0
15.160000 -0.054708 0
15.165000 -0.073332 0
15.170000 -0.098102 0
15.175000 -0.129359 0
15.180000 -0.164990 0
15.185000 -0.199689 0
15.190000 -0.225044 0
15.195000 -0.230525 2
15.200000 -0.205000 0
15.205000 -0.138304 0
15.210000 -0.022829 0
15.215000 0.144241 0
15.220000 0.357579 0
15.225000 0.600043 0
15.230000 0.841231 0
15.235000 1.041209 0
15.240000 1.160224 0
15.245000 1.171338 3
15.250000 1.068791 0
15.255000 0.872463 0
15.260000 0.620436 0
15.265000 0.355324 0
15.270000 0.112874 0
15.275000 -0.083607 0
15.280000 -0.223162 0
15.285000 -0.304446 0
15.290000 -0.333069 4
15.295000 -0.319765 0
15.300000 -0.278565 0
15.305000 -0.224251 0
15.310000 -0.169471 0
15.315000 -0.122604 0
15.320000 -0.087210 0
15.325000 -0.062994 0
15.330000 -0.047520 0
15.335000 -0.037804 0
15.340000 -0.031295 0
15.345000 -0.026217 0
15.350000 -0.021502 0
15.355000 -0.016568 0
15.360000 -0.011114 0
15.365000 -0.004975 0
15.370000 0.001954 0
15.375000 0.009755 0
15.380000 0.018499 0
15.385000 0.028249 0
15.390000 0.039058 0
15.395000 0.050970 0
15.400000 0.064016 0
15.405000 0.078209 0
15.410000 0.093546 0
15.415000 0.109999 0
15.420000 0.127521 0
15.425000 0.146037 0
15.430000 0.165447 0
15.435000 0.185622 0
15.440000 0.206408 0
15.445000 0.227624 0
15.450000 0.249065 0
15.455000 0.270502 0
15.460000 0.291689 0
15.465000 0.312365 0
15.470000 0.332260 0
15.475000 0.351099 0
15.480000 0.368610 0
15.485000 0.384529 0
15.490000 0.398605 0
15.495000 0.410612 0
15.500000 0.420346 0
15.505000 0.427638 0
15.510000 0.432355 0
15.515000 0.434405 5
15.520000 0.433739 0
15.525000 0.430353 0
15.530000 0.424286 0
15.535000 0.415624 0
15.540000 0.404492 0
15.545000 0.391056 0
15.550000 0.375514 0
15.555000 0.358095 0
15.560000 0.339051 0
15.565000 0.318650 0
15.570000 0.297172 0
15.575000 0.274900 0
15.580000 0.252117 0
15.585000 0.229095 0
15.590000 0.206095 0
15.595000 0.183361 0
15.600000 0.161113 0
15.605000 0.139546 0
15.610000 0.118832 0
15.615000 0.099110 0
15.620000 0.080494 0
15.625000 0.063068 0
15.630000 0.046890 0
15.635000 0.031992 0
15.640000 0.018383 0
15.645000 0.006053 0
15.650000 -0.005029 0
15.655000 -0.014908 0
15.660000 -0.023640 0
15.665000 -0.031292 0
15.670000 -0.037937 0
15.675000 -0.043652 0
15.680000 -0.048518 0
15.685000 -0.052614 0
15.690000 -0.056020 0
15.695000 -0.058810 0
15.700000 -0.061056 0
15.705000 -0.062827 0
15.710000 -0.064185 0
15.715000 -0.065187 0
15.720000 -0.065884 0
15.725000 -0.066322 0
15.730000 -0.066542 0
15.735000 -0.066581 0
15.740000 -0.066469 0
15.745000 -0.066232 0
15.750000 -0.065895 0
15.755000 -0.065475 0
15.760000 -0.064990 0
15.765000 -0.064453 0
15.770000 -0.063874 0
15.775000 -0.063264 0
15.780000 -0.062630 0
15.785000 -0.061977 0
15.790000 -0.061311 0
15.795000 -0.060635 0
15.800000 -0.059928 0
15.805000 -0.059218 0
15.810000 -0.058513 0
15.815000 -0.057810 0
15.820000 -0.057112 0
15.825000 -0.056416 0
15.830000 -0.055725 0
15.835000 -0.055036 0
15.840000 -0.054351 0
15.845000 -0.053670 0
15.850000 -0.052992 0
15.855000 -0.052317 0
15.860000 -0.051646 0
15.865000 -0.050978 0
15.870000 -0.050313 0
15.875000 -0.049652 0
15.880000 -0.048994 0
15.885000 -0.048339 0
15.890000 -0.047688 0
15.895000 -0.047040 0
15.900000 -0.046395 0
15.905000 -0.045753 0
15.910000 -0.045114 0
15.915000 -0.044479 0
15.920000 -0.043847 0
15.925000 -0.043218 0
15.930000 -0.042592 0
15.935000 -0.041969 0
15.940000 -0.041349 0
15.945000 -0.040732 0
15.950000 -0.040119 0
15.955000 -0.039508 0
15.960000 -0.038900 0
15.965000 -0.038294 0
15.970000 -0.037690 0
15.975000 -0.037088 0
15.980000 -0.036487 0
15.985000 -0.035885 0
15.990000 -0.035279 0
15.995000 -0.034666 0
16.000000 -0.034042 0
16.005000 -0.033397 0
16.010000 -0.032720 0
16.015000 -0.031997 0
16.020000 -0.031203 0
16.025000 -0.030309 0
16.030000 -0.029273 0
16.035000 -0.028042 0
16.040000 -0.026548 0
16.045000 -0.024702 0
16.050000 -0.022401 0
16.055000 -0.019516 0
16.060000 -0.015901 0
16.065000 -0.011392 0
16.070000 -0.005807 0
16.075000 0.001039 0
16.080000 0.009331 0
16.085000 0.019240 0
16.090000 0.030903 0
16.095000 0.044413 0
16.100000 0.059797 0
16.105000 0.076998 0
16.110000 0.095864 0
16.115000 0.116134 0
16.120000 0.137435 0
16.125000 0.159288 0
16.130000 0.181116 0
16.135000 0.202270 0
16.140000 0.222055 0
16.145000 0.239767 0
16.150000 0.254736 0
16.155000 0.266364 0
16.160000 0.274165 0
16.165000 0.277799 1
16.170000 0.277094 0
16.175000 0.272061 0
16.180000 0.262891 0
16.185000 0.249946 0
16.190000 0.233729 0
16.195000 0.214858 0
16.200000 0.194020 0
16.205000 0.171934 0
16.210000 0.149308 0
16.215000 0.126802 0
16.220000 0.105000 0
16.225000 0.084384 0
16.230000 0.065322 0
16.235000 0.048056 0
16.240000 0.032686 0
16.245000 0.019139 0
16.250000 0.007100 0
16.255000 -0.004097 0
16.260000 -0.015599 0
16.265000 -0.029095 0
16.270000 -0.046660 0
16.275000 -0.070192 0
16.280000 -0.100423 0
16.285000 -0.135708 0
16.290000 -0.171118 0
16.295000 -0.198361 0
16.300000 -0.206719 2
16.305000 -0.184633 0
16.310000 -0.121395 0
16.315000 -0.008854 0
16.320000 0.156257 0
16.325000 0.368776 0
16.330000 0.611151 0
16.335000 0.851837 0
16.340000 1.049326 0
16.345000 1.162687 0
16.350000 1.165124 3
16.355000 1.055956 0
16.360000 0.857096 0
16.365000 0.604910 0
16.370000 0.339668 0
16.375000 0.095378 0
16.380000 -0.105312 0
16.385000 -0.251223 0
16.390000 -0.340239 0
16.395000 -0.376871 4
16.400000 -0.370555 0
16.405000 -0.334099 0
16.410000 -0.281551 0
16.415000 -0.225610 0
16.420000 -0.175457 0
16.425000 -0.135825 0
16.430000 -0.107498 0
16.435000 -0.088719 0
16.440000 -0.076720 0
16.445000 -0.068846 0
16.450000 -0.063077 0
16.455000 -0.058103 0
16.460000 -0.053170 0
16.465000 -0.047872 0
16.470000 -0.041994 0
16.475000 -0.035408 0
16.480000 -0.028026 0
16.485000 -0.019776 0
16.490000 -0.010593 0
16.495000 -0.000421 0
16.500000 0.010790 0
16.505000 0.023077 0
16.510000 0.036466 0
16.515000 0.050967 0
16.520000 0.066574 0
16.525000 0.083259 0
16.530000 0.100975 0
16.535000 0.119649 0
16.540000 0.139188 0
16.545000 0.159468 0
16.550000 0.180347 0
16.555000 0.201654 0
16.560000 0.223196 0
16.565000 0.244763 0
16.570000 0.266122 0
16.575000 0.287032 0
16.580000 0.307237 0
16.585000 0.326480 0
16.590000 0.344502 0
16.595000 0.361053 0
16.600000 0.375891 0
16.605000 0.388793 0
16.610000 0.399560 0
16.615000 0.408018 0
16.620000 0.414027 0
16.625000 0.417482 0
16.630000 0.418318 5
16.635000 0.416507 0
16.640000 0.412066 0
16.645000 0.405050 0
16.650000 0.395555 0
16.655000 0.383716 0
16.660000 0.369697 0
16.665000 0.353698 0
16.670000 0.335939 0
16.675000 0.316664 0
16.680000 0.296128 0
16.685000 0.274597 0
16.690000 0.252338 0
16.695000 0.229617 0
16.700000 0.206691 0
16.705000 0.183805 0
16.710000 0.161186 0
16.715000 0.139043 0
16.720000 0.117560 0
16.725000 0.096898 0
16.730000 0.077193 0
16.735000 0.058554 0
16.740000 0.041062 0
16.745000 0.024777 0
16.750000 0.009732 0
16.755000 -0.004059 0
16.760000 -0.016602 0
16.765000 -0.027923 0
16.770000 -0.038058 0
16.775000 -0.047059 0
16.780000 -0.054986 0
16.785000 -0.061905 0
16.790000 -0.067888 0
16.795000 -0.073011 0
16.800000 -0.077349 0
16.805000 -0.080976 0
16.810000 -0.083966 0
16.815000 -0.086390 0
16.820000 -0.088313 0
16.825000 -0.089797 0
16.830000 -0.090901 0
16.835000 -0.091674 0
16.840000 -0.092166 0
16.845000 -0.092418 0
16.850000 -0.092467 0
16.855000 -0.092347 0
16.860000 -0.092085 0
16.865000 -0.091707 0
16.870000 -0.091233 0
16.875000 -0.090682 0
16.880000 -0.090069 0
16.885000 -0.089406 0
16.890000 -0.088704 0
16.895000 -0.087971 0
16.900000 -0.087216 0
16.905000 -0.086442 0
16.910000 -0.085656 0
16.915000 -0.084860 0
16.920000 -0.084033 0
16.925000 -0.083203 0
16.930000 -0.082378 0
16.935000 -0.081557 0
16.940000 -0.080739 0
16.945000 -0.079926 0
16.950000 -0.079117 0
16.955000 -0.078312 0
16.960000 -0.077511 0
16.965000 -0.076714 0
16.970000 -0.075922 0
16.975000 -0.075132 0
16.980000 -0.074347 0
16.985000 -0.073566 0
16.990000 -0.072789 0
16.995000 -0.072015 0
17.000000 -0.071246 0
17.005000 -0.070480 0
17.010000 -0.069718 0
17.015000 -0.068960 0
17.020000 -0.068206 0
17.025000 -0.067455 0
17.030000 -0.066709 0
17.035000 -0.065965 0
17.040000 -0.065226 0
17.045000 -0.064490 0
17.050000 -0.063758 0
17.055000 -0.063030 0
17.060000 -0.062305 0
17.065000 -0.061584 0
17.070000 -0.060866 0
17.075000 -0.060152 0
17.080000 -0.059441 0
17.085000 -0.058734 0
17.090000 -0.058029 0
17.095000 -0.057328 0
17.100000 -0.056628 0
17.105000 -0.055930 0
17.110000 -0.055232 0
17.115000 -0.054532 0
17.120000 -0.053827 0
17.125000 -0.053114 0
17.130000 -0.052384 0
17.135000 -0.051630 0
17.140000 -0.050837 0
17.145000 -0.049989 0
17.150000 -0.049059 0
17.155000 -0.048015 0
17.160000 -0.046813 0
17.165000 -0.045397 0
17.170000 -0.043695 0
17.175000 -0.041619 0
17.180000 -0.039062 0
17.185000 -0.035900 0
17.190000 -0.031989 0
17.195000 -0.027168 0
17.200000 -0.021267 0
17.205000 -0.014108 0
17.210000 -0.005520 0
17.215000 0.004655 0
17.220000 0.016544 0
17.225000 0.030228 0
17.230000 0.045730 0
17.235000 0.062993 0
17.240000 0.081875 0
17.245000 0.102131 0
17.250000 0.123419 0
17.255000 0.145292 0
17.260000 0.167219 0
17.265000 0.188594 0
17.270000 0.208767 0
17.275000 0.227074 0
17.280000 0.242871 0
17.285000 0.255572 0
17.290000 0.264684 0
17.295000 0.269841 0
17.300000 0.270824 1
17.305000 0.267577 0
17.310000 0.260213 0
17.315000 0.249005 0
17.320000 0.234370 0
17.325000 0.216843 0
17.330000 0.197044 0
17.335000 0.175639 0
17.340000 0.153307 0
17.345000 0.130702 0
17.350000 0.108425 0
17.355000 0.086994 0
17.360000 0.066835 0
17.365000 0.048263 0
17.370000 0.031473 0
17.375000 0.016528 0
17.380000 0.003322 0
17.385000 -0.008486 0
17.390000 -0.019578 0
17.395000 -0.031086 0
17.400000 -0.044642 0
17.405000 -0.062212 0
17.410000 -0.085584 0
17.415000 -0.115475 0
17.420000 -0.150452 0
17.425000 -0.186094 0
17.430000 -0.214863 0
17.435000 -0.226854 2
17.440000 -0.211172 0
17.445000 -0.157447 0
17.450000 -0.057315 0
17.455000 0.093698 0
17.460000 0.293284 0
17.465000 0.528732 0
17.470000 0.774499 0
17.475000 0.993887 0
17.480000 1.146510 0
17.485000 1.200000 3
17.490000 1.136480 0
17.495000 0.966591 0
17.500000 0.726167 0
17.505000 0.460494 0
17.510000 0.210274 0
17.515000 0.003462 0
17.520000 -0.145901 0
17.525000 -0.234908 0
17.530000 -0.268663 4
17.535000 -0.258109 0
17.540000 -0.217991 0
17.545000 -0.164038 0
17.550000 -0.109702 0
17.555000 -0.063756 0
17.560000 -0.029711 0
17.565000 -0.006986 0
17.570000 0.007150 0
17.575000 0.015842 0
17.580000 0.021660 0
17.585000 0.026315 0
17.590000 0.030795 0
17.595000 0.035615 0
17.600000 0.041039 0
17.605000 0.047216 0
17.610000 0.054244 0
17.615000 0.062207 0
17.620000 0.071176 0
17.625000 0.081213 0
17.630000 0.092371 0
17.635000 0.104689 0
17.640000 0.118189 0
17.645000 0.132877 0
17.650000 0.148732 0
17.655000 0.165713 0
17.660000 0.183748 0
17.665000 0.202738 0
17.670000 0.222555 0
17.675000 0.243040 0
17.680000 0.264006 0
17.685000 0.285237 0
17.690000 0.306493 0
17.695000 0.327514 0
17.700000 0.348023 0
17.705000 0.367733 0
17.710000 0.386350 0
17.715000 0.403585 0
17.720000 0.419159 0
17.725000 0.432806 0
17.730000 0.444286 0
17.735000 0.453391 0
17.740000 0.459945 0
17.745000 0.463819 0
17.750000 0.464923 5
17.755000 0.463220 0
17.760000 0.458720 0
17.765000 0.451482 0
17.770000 0.441614 0
17.775000 0.429267 0
17.780000 0.414634 0
17.785000 0.397940 0
17.790000 0.379444 0
17.795000 0.359423 0
17.800000 0.338169 0
17.805000 0.315985 0
17.810000 0.293171 0
17.815000 0.270021 0
17.820000 0.246818 0
17.825000 0.223826 0
17.830000 0.201285 0
17.835000 0.179409 0
17.840000 0.158385 0
17.845000 0.138366 0
17.850000 0.119475 0
17.855000 0.101807 0
17.860000 0.085423 0
17.865000 0.070358 0
17.870000 0.056621 0
17.875000 0.044201 0
17.880000 0.033063 0
17.885000 0.023159 0
17.890000 0.014427 0
17.895000 0.006795 0
17.900000 0.000184 0
17.905000 -0.005490 0
17.910000 -0.010311 0
17.915000 -0.014364 0
17.920000 -0.017731 0
17.925000 -0.020493 0
17.930000 -0.022722 0
17.935000 -0.024490 0
17.940000 -0.025860 0
17.945000 -0.026889 0
17.950000 -0.027629 0
17.955000 -0.028127 0
17.960000 -0.028422 0
17.965000 -0.028549 0
17.970000 -0.028539 0
17.975000 -0.028416 0
17.980000 -0.028203 0
17.985000 -0.027917 0
17.990000 -0.027574 0
17.995000 -0.027186 0
18.000000 -0.026763 0
18.005000 -0.026313 0
18.010000 -0.025842 0
18.015000 -0.025357 0
18.020000 -0.024860 0
18.025000 -0.024331 0
18.030000 -0.023800 0
18.035000 -0.023271 0
18.040000 -0.022744 0
18.045000 -0.022220 0
18.050000 -0.021699 0
18.055000 -0.021181 0
18.060000 -0.020665 0
18.065000 -0.020151 0
18.070000 -0.019640 0
18.075000 -0.019132 0
18.080000 -0.018626 0
18.085000 -0.018123 0
18.090000 -0.017622 0
18.095000 -0.017124 0
18.100000 -0.016628 0
18.105000 -0.016135 0
18.110000 -0.015644 0
18.115000 -0.015155 0
18.120000 -0.014669 0
18.125000 -0.014186 0
18.130000 -0.013705 0
18.135000 -0.013226 0
18.140000 -0.012750 0
18.145000 -0.012276 0
18.150000 -0.011804 0
18.155000 -0.011335 0
18.160000 -0.010868 0
18.165000 -0.010403 0
18.170000 -0.009941 0
18.175000 -0.009480 0
18.180000 -0.009022 0
18.185000 -0.008565 0
18.190000 -0.008110 0
18.195000 -0.007655 0
18.200000 -0.007200 0
18.205000 -0.006743 0
18.210000 -0.006281 0
18.215000 -0.005810 0
18.220000 -0.005324 0
18.225000 -0.004813 0
18.230000 -0.004265 0
18.235000 -0.003659 0
18.240000 -0.002970 0
18.245000 -0.002160 0
18.250000 -0.001181 0
18.255000 0.000032 0
18.260000 0.001560 0
18.265000 0.003508 0
18.270000 0.005998 0
18.275000 0.009180 0
18.280000 0.013221 0
18.285000 0.018309 0
18.290000 0.024640 0
18.295000 0.032414 0
18.300000 0.041816 0
18.305000 0.053004 0
18.310000 0.066086 0
18.315000 0.081105 0
18.320000 0.098013 0
18.325000 0.116659 0
18.330000 0.136773 0
18.335000 0.157964 0
18.340000 0.179723 0
18.345000 0.201433 0
18.350000 0.222400 0
18.355000 0.241883 0
18.360000 0.259134 0
18.365000 0.273448 0
18.370000 0.284208 0
18.375000 0.290927 0
18.380000 0.293286 1
18.385000 0.291153 0
18.390000 0.284601 0
18.395000 0.273895 0
18.400000 0.259479 0
18.405000 0.241943 0
18.410000 0.221980 0
18.415000 0.200344 0
18.420000 0.177797 0
18.425000 0.155071 0
18.430000 0.132825 0
18.435000 0.111619 0
18.440000 0.091891 0
18.445000 0.073947 0
18.450000 0.057941 0
18.455000 0.043854 0
18.460000 0.031421 0
18.465000 0.020026 0
18.470000 0.008550 0
18.475000 -0.004719 0
18.480000 -0.021956 0
18.485000 -0.045230 0
18.490000 -0.075414 0
18.495000 -0.110831 0
18.500000 -0.146211 0
18.505000 -0.172618 0
18.510000 -0.178536 2
18.515000 -0.151684 0
18.520000 -0.080926 0
18.525000 0.041748 0
18.530000 0.218371 0
18.535000 0.440764 0
18.540000 0.686366 0
18.545000 0.917807 0
18.550000 1.089711 0
18.555000 1.162331 3
18.560000 1.117140 0
18.565000 0.962907 0
18.570000 0.731805 0
18.575000 0.467630 0
18.580000 0.211884 0
18.585000 -0.005345 0
18.590000 -0.167655 0
18.595000 -0.270113 0
18.600000 -0.316133 4
18.605000 -0.315215 0
18.610000 -0.281075 0
18.615000 -0.229165 0
18.620000 -0.173556 0
18.625000 -0.124283 0
18.630000 -0.086248 0
18.635000 -0.059919 0
18.640000 -0.043078 0
18.645000 -0.032633 0
18.650000 -0.025817 0
18.655000 -0.020661 0
18.660000 -0.015970 0
18.665000 -0.011098 0
18.670000 -0.005712 0
18.675000 0.000366 0
18.680000 0.007249 0
18.685000 0.015021 0
18.690000 0.023756 0
18.695000 0.033520 0
18.700000 0.044369 0
18.705000 0.056347 0
18.710000 0.069484 0
18.715000 0.083794 0
18.720000 0.099270 0
18.725000 0.115881 0
18.730000 0.133574 0
18.735000 0.152265 0
18.740000 0.171844 0
18.745000 0.192173 0
18.750000 0.213083 0
18.755000 0.234380 0
18.760000 0.255842 0
18.765000 0.277227 0
18.770000 0.298272 0
18.775000 0.318701 0
18.780000 0.338231 0
18.785000 0.356577 0
18.790000 0.373457 0
18.795000 0.388601 0
18.800000 0.401759 0
18.805000 0.412704 0
18.810000 0.421243 0
18.815000 0.427216 0
18.820000 0.430507 0
18.825000 0.431044 5
18.830000 0.428801 0
18.835000 0.423801 0
18.840000 0.416114 0
18.845000 0.405856 0
18.850000 0.393182 0
18.855000 0.378290 0
18.860000 0.361408 0
18.865000 0.342791 0
18.870000 0.322714 0
18.875000 0.301465 0
18.880000 0.279341 0
18.885000 0.256634 0
18.890000 0.233631 0
18.895000 0.210608 0
18.900000 0.187818 0
18.905000 0.165496 0
18.910000 0.143849 0
18.915000 0.123056 0
18.920000 0.103265 0
18.925000 0.084596 0
18.930000 0.067139 0
18.935000 0.050953 0
18.940000 0.036072 0
18.945000 0.022505 0
18.950000 0.010240 0
18.955000 -0.000757 0
18.960000 -0.010531 0
18.965000 -0.019145 0
18.970000 -0.026667 0
18.975000 -0.033175 0
18.980000 -0.038750 0
18.985000 -0.043476 0
18.990000 -0.047434 0
18.995000 -0.050707 0
19.000000 -0.053372 0
19.005000 -0.055503 0
19.010000 -0.057168 0
19.015000 -0.058431 0
19.020000 -0.059350 0
19.025000 -0.059975 0
19.030000 -0.060353 0
19.035000 -0.060524 0
19.040000 -0.060524 0
19.045000 -0.060382 0
19.050000 -0.060125 0
19.055000 -0.059774 0
19.060000 -0.059348 0
19.065000 -0.058863 0
19.070000 -0.058330 0
19.075000 -0.057761 0
19.080000 -0.057165 0
19.085000 -0.056547 0
19.090000 -0.055913 0
19.095000 -0.055268 0
19.100000 -0.054588 0
19.105000 -0.053906 0
19.110000 -0.053226 0
19.115000 -0.052551 0
19.120000 -0.051878 0
19.125000 -0.051209 0
19.130000 -0.050543 0
19.135000 -0.049881 0
19.140000 -0.049222 0
19.145000 -0.048566 0
19.150000 -0.047913 0
19.155000 -0.047264 0
19.160000 -0.046618 0
19.165000 -0.045975 0
19.170000 -0.045335 0
19.175000 -0.044699 0
19.180000 -0.044065 0
19.185000 -0.043435 0
19.190000 -0.042808 0
19.195000 -0.042184 0
19.200000 -0.041563 0
19.205000 -0.040946 0
19.210000 -0.040331 0
19.215000 -0.039720 0
19.220000 -0.039111 0
19.225000 -0.038506 0
19.230000 -0.037903 0
19.235000 -0.037304 0
19.240000 -0.036707 0
19.245000 -0.036114 0
19.250000 -0.035523 0
19.255000 -0.034935 0
19.260000 -0.034349 0
19.265000 -0.033766 0
19.270000 -0.033185 0
19.275000 -0.032605 0
19.280000 -0.032024 0
19.285000 -0.031442 0
19.290000 -0.030854 0
19.295000 -0.030257 0
19.300000 -0.029644 0
19.305000 -0.029005 0
19.310000 -0.028326 0
19.315000 -0.027587 0
19.320000 -0.026760 0
19.325000 -0.025807 0
19.330000 -0.024679 0
19.335000 -0.023310 0
19.340000 -0.021616 0
19.345000 -0.019495 0
19.350000 -0.016822 0
19.355000 -0.013451 0
19.360000 -0.009214 0
19.365000 -0.003928 0
19.370000 0.002601 0
19.375000 0.010566 0
19.380000 0.020149 0
19.385000 0.031501 0
19.390000 0.044728 0
19.395000 0.059869 0
19.400000 0.076877 0
19.405000 0.095604 0
19.410000 0.115788 0
19.415000 0.137050 0
19.420000 0.158894 0
19.425000 0.180724 0
19.430000 0.201863 0
19.435000 0.221588 0
19.440000 0.239166 0
19.445000 0.253903 0
19.450000 0.265184 0
19.455000 0.272517 0
19.460000 0.275566 1
19.465000 0.274179 0
19.470000 0.268397 0
19.475000 0.258452 0
19.480000 0.244750 0
19.485000 0.227845 0
19.490000 0.208400 0
19.495000 0.187144 0
19.500000 0.164825 0
19.505000 0.142170 0
19.510000 0.119841 0
19.515000 0.098414 0
19.520000 0.078348 0
19.525000 0.059978 0
19.530000 0.043500 0
19.535000 0.028946 0
19.540000 0.016140 0
19.545000 0.004601 0
19.550000 -0.006590 0
19.555000 -0.018914 0
19.560000 -0.034382 0
19.565000 -0.055151 0
19.570000 -0.082659 0
19.575000 -0.116361 0
19.580000 -0.152542 0
19.585000 -0.183826 0
19.590000 -0.199790 2
19.595000 -0.188502 0
19.600000 -0.138359 0
19.605000 -0.039896 0
19.610000 0.111977 0
19.615000 0.314499 0
19.620000 0.552689 0
19.625000 0.796711 0
19.630000 1.004737 0
19.635000 1.133129 0
19.640000 1.150968 3
19.645000 1.048868 0
19.650000 0.848220 0
19.655000 0.592522 0
19.660000 0.329339 0
19.665000 0.096616 0
19.670000 -0.082949 0
19.675000 -0.200668 0
19.680000 -0.258202 0
19.685000 -0.264607 4
19.690000 -0.234128 0
19.695000 -0.183435 0
19.700000 -0.128021 0
19.705000 -0.078987 0
19.710000 -0.041669 0
19.715000 -0.016437 0
19.720000 -0.000759 0
19.725000 0.008717 0
19.730000 0.014861 0
19.735000 0.019622 0
19.740000 0.024124 0
19.745000 0.028950 0
19.750000 0.034391 0
19.755000 0.040606 0
19.760000 0.047703 0
19.765000 0.055766 0
19.770000 0.064873 0
19.775000 0.075088 0
19.780000 0.086466 0
19.785000 0.099046 0
19.790000 0.112850 0
19.795000 0.127875 0
19.800000 0.144097 0
19.805000 0.161462 0
19.810000 0.179886 0
19.815000 0.199253 0
19.820000 0.219414 0
19.825000 0.240190 0
19.830000 0.261368 0
19.835000 0.282707 0
19.840000 0.303942 0
19.845000 0.324785 0
19.850000 0.344936 0
19.855000 0.364086 0
19.860000 0.381925 0
19.865000 0.398149 0
19.870000 0.412474 0
19.875000 0.424634 0
19.880000 0.434399 0
19.885000 0.441573 0
19.890000 0.446008 0
19.895000 0.447600 5
19.900000 0.446303 0
19.905000 0.442119 0
19.910000 0.435108 0
19.915000 0.425380 0
19.920000 0.413095 0
19.925000 0.398457 0
19.930000 0.381707 0
19.935000 0.363120 0
19.940000 0.342992 0
19.945000 0.321636 0
19.950000 0.299371 0
19.955000 0.276517 0
19.960000 0.253383 0
19.965000 0.230265 0
19.970000 0.207435 0
19.975000 0.185143 0
19.980000 0.163604 0
19.985000 0.143003 0
19.990000 0.123493 0
19.995000 0.105189 0
20.000000 0.088175 0
20.005000 0.072504 0
20.010000 0.058198 0
20.015000 0.045253 0
20.020000 0.033645 0
20.025000 0.023326 0
20.030000 0.014235 0
20.035000 0.006301 0
20.040000 -0.000560 0
20.045000 -0.006434 0
20.050000 -0.011411 0
20.055000 -0.015582 0
20.060000 -0.019033 0
20.065000 -0.021851 0
20.070000 -0.024113 0
20.075000 -0.025896 0
20.080000 -0.027266 0
20.085000 -0.028285 0
20.090000 -0.029009 0
20.095000 -0.029484 0
20.100000 -0.029754 0
20.105000 -0.029855 0
20.110000 -0.029819 0
20.115000 -0.029671 0
20.120000 -0.029434 0
20.125000 -0.029126 0
20.130000 -0.028763 0
20.135000 -0.028356 0
20.140000 -0.027916 0
20.145000 -0.027451 0
20.150000 -0.026967 0
20.155000 -0.026470 0
20.160000 -0.025958 0
20.165000 -0.025418 0
20.170000 -0.024881 0
20.175000 -0.024346 0
20.180000 -0.023814 0
20.185000 -0.023285 0
20.190000 -0.022759 0
20.195000 -0.022235 0
20.200000 -0.021713 0
20.205000 -0.021195 0
20.210000 -0.020679 0
20.215000 -0.020165 0
20.220000 -0.019654 0
20.225000 -0.019146 0
20.230000 -0.018640 0
20.235000 -0.018137 0
20.240000 -0.017636 0
20.245000 -0.017137 0
20.250000 -0.016642 0
20.255000 -0.016148 0
20.260000 -0.015657 0
20.265000 -0.015169 0
20.270000 -0.014683 0
20.275000 -0.014199 0
20.280000 -0.013718 0
20.285000 -0.013239 0
20.290000 -0.012763 0
20.295000 -0.012289 0
20.300000 -0.011817 0
20.305000 -0.011347 0
20.310000 -0.010880 0
20.315000 -0.010414 0
20.320000 -0.009950 0
20.325000 -0.009487 0
20.330000 -0.009025 0
20.335000 -0.008561 0
20.340000 -0.008093 0
20.345000 -0.007618 0
20.350000 -0.007131 0
20.355000 -0.006622 0
20.360000 -0.006079 0
20.365000 -0.005484 0
20.370000 -0.004812 0
20.375000 -0.004025 0
20.380000 -0.003076 0
20.385000 -0.001899 0
20.390000 -0.000411 0
20.395000 0.001494 0
20.400000 0.003947 0
20.405000 0.007102 0
20.410000 0.011137 0
20.415000 0.016250 0
20.420000 0.022651 0
20.425000 0.030551 0
20.430000 0.040146 0
20.435000 0.051598 0
20.440000 0.065015 0
20.445000 0.080427 0
20.450000 0.097765 0
20.455000 0.116839 0
20.460000 0.137333 0
20.465000 0.158792 0
20.470000 0.180640 0
20.475000 0.202190 0
20.480000 0.222681 0
20.485000 0.241318 0
20.490000 0.257322 0
20.495000 0.269981 0
20.500000 0.278703 0
20.505000 0.283061 1
20.510000 0.282824 0
20.515000 0.277981 0
20.520000 0.268735 0
20.525000 0.255494 0
20.530000 0.238837 0
20.535000 0.219474 0
20.540000 0.198190 0
20.545000 0.175799 0
20.550000 0.153085 0
20.555000 0.130765 0
20.560000 0.109446 0
20.565000 0.089612 0
20.570000 0.071596 0
20.575000 0.055572 0
20.580000 0.041520 0
20.585000 0.029157 0
20.590000 0.017806 0
20.595000 0.006233 0
20.600000 -0.007443 0
20.605000 -0.025559 0
20.610000 -0.050185 0
20.615000 -0.081819 0
20.620000 -0.117880 0
20.625000 -0.151732 0
20.630000 -0.172945 2
20.635000 -0.168825 0
20.640000 -0.126544 0
20.645000 -0.035272 0
20.650000 0.111334 0
20.655000 0.311259 0
20.660000 0.549049 0
20.665000 0.792555 0
20.670000 0.996247 0
20.675000 1.113371 3
20.680000 1.112981 0
20.685000 0.995100 0
20.690000 0.786205 0
20.695000 0.528394 0
20.700000 0.266033 0
20.705000 0.034138 0
20.710000 -0.146229 0
20.715000 -0.266748 0
20.720000 -0.328594 0
20.725000 -0.339788 4
20.730000 -0.313266 0
20.735000 -0.264553 0
20.740000 -0.208647 0
20.745000 -0.157009 0
20.750000 -0.115943 0
20.755000 -0.086887 0
20.760000 -0.068052 0
20.765000 -0.056362 0
20.770000 -0.048868 0
20.775000 -0.043387 0
20.780000 -0.038561 0
20.785000 -0.033645 0
20.790000 -0.028256 0
20.795000 -0.022194 0
20.800000 -0.015336 0
20.805000 -0.007593 0
20.810000 0.001110 0
20.815000 0.010843 0
20.820000 0.021663 0
20.825000 0.033618 0
20.830000 0.046739 0
20.835000 0.061043 0
20.840000 0.076524 0
20.845000 0.093154 0
20.850000 0.110880 0
20.855000 0.129620 0
20.860000 0.149263 0
20.865000 0.169670 0
20.870000 0.190671 0
20.875000 0.212069 0
20.880000 0.233639 0
20.885000 0.255135 0
20.890000 0.276290 0
20.895000 0.296824 0
20.900000 0.316448 0
20.905000 0.334872 0
20.910000 0.351809 0
20.915000 0.366986 0
20.920000 0.380149 0
20.925000 0.391068 0
20.930000 0.399548 0
20.935000 0.405430 0
20.940000 0.408599 0
20.945000 0.408985 5
20.950000 0.406567 0
20.955000 0.401374 0
20.960000 0.393480 0
20.965000 0.383008 0
20.970000 0.370124 0
20.975000 0.355032 0
20.980000 0.337969 0
20.985000 0.319197 0
20.990000 0.298999 0
20.995000 0.277670 0
21.000000 0.255512 0
21.005000 0.232821 0
21.010000 0.209888 0
21.015000 0.186987 0
21.020000 0.164375 0
21.025000 0.142284 0
21.030000 0.120916 0
21.035000 0.100449 0
21.040000 0.081024 0
21.045000 0.062757 0
21.050000 0.045729 0
21.055000 0.029995 0
21.060000 0.015581 0
21.065000 0.002490 0
21.070000 -0.009297 0
21.075000 -0.019819 0
21.080000 -0.029128 0
21.085000 -0.037289 0
21.090000 -0.044376 0
21.095000 -0.050469 0
21.100000 -0.055651 0
21.105000 -0.060007 0
21.110000 -0.063622 0
21.115000 -0.066576 0
21.120000 -0.068947 0
21.125000 -0.070808 0
21.130000 -0.072227 0
21.135000 -0.073266 0
21.140000 -0.073980 0
21.145000 -0.074420 0
21.150000 -0.074629 0
21.155000 -0.074647 0
21.160000 -0.074507 0
21.165000 -0.074238 0
21.170000 -0.073863 0
21.175000 -0.073404 0
21.180000 -0.072877 0
21.185000 -0.072298 0
21.190000 -0.071677 0
21.195000 -0.071025 0
21.200000 -0.070348 0
21.205000 -0.069653 0
21.210000 -0.068946 0
21.215000 -0.068224 0
21.220000 -0.067473 0
21.225000 -0.066726 0
21.230000 -0.065983 0
21.235000 -0.065244 0
21.240000 -0.064508 0
21.245000 -0.063776 0
21.250000 -0.063047 0
21.255000 -0.062323 0
21.260000 -0.061601 0
21.265000 -0.060884 0
21.270000 -0.060170 0
21.275000 -0.059459 0
21.280000 -0.058752 0
21.285000 -0.058049 0
21.290000 -0.057349 0
21.295000 -0.056653 0
21.300000 -0.055960 0
21.305000 -0.055270 0
21.310000 -0.054584 0
21.315000 -0.053902 0
21.320000 -0.053222 0
21.325000 -0.052547 0
21.330000 -0.051874 0
21.335000 -0.051205 0
21.340000 -0.050539 0
21.345000 -0.049877 0
21.350000 -0.049218 0
21.355000 -0.048562 0
21.360000 -0.047909 0
21.365000 -0.047259 0
21.370000 -0.046613 0
21.375000 -0.045969 0
21.380000 -0.045328 0
21.385000 -0.044689 0
21.390000 -0.044052 0
21.395000 -0.043415 0
21.400000 -0.042776 0
21.405000 -0.042133 0
21.410000 -0.041482 0
21.415000 -0.040815 0
21.420000 -0.040123 0
21.425000 -0.039392 0
21.430000 -0.038603 0
21.435000 -0.037727 0
21.440000 -0.036728 0
21.445000 -0.035553 0
21.450000 -0.034139 0
21.455000 -0.032400 0
21.460000 -0.030233 0
21.465000 -0.027510 0
21.470000 -0.024084 0
21.475000 -0.019783 0
21.480000 -0.014421 0
21.485000 -0.007802 0
21.490000 0.000273 0
21.495000 0.009987 0
21.500000 0.021492 0
21.505000 0.034893 0
21.510000 0.050223 0
21.515000 0.067430 0
21.520000 0.086353 0
21.525000 0.106717 0
21.530000 0.128121 0
21.535000 0.150053 0
21.540000 0.171892 0
21.545000 0.192944 0
21.550000 0.212469 0
21.555000 0.229725 0
21.560000 0.244014 0
21.565000 0.254727 0
21.570000 0.261389 0
21.575000 0.263688 1
21.580000 0.261506 0
21.585000 0.254921 0
21.590000 0.244207 0
21.595000 0.229812 0
21.600000 0.212326 0
21.605000 0.192443 0
21.610000 0.170914 0
21.615000 0.148497 0
21.620000 0.125918 0
21.625000 0.103832 0
21.630000 0.082793 0
21.635000 0.063235 0
21.640000 0.045459 0
21.645000 0.029619 0
21.650000 0.015690 0
21.655000 0.003407 0
21.660000 -0.007846 0
21.665000 -0.019184 0
21.670000 -0.032313 0
21.675000 -0.049399 0
21.680000 -0.072501 0
21.685000 -0.102498 0
21.690000 -0.137746 0
21.695000 -0.173040 0
21.700000 -0.199528 0
21.705000 -0.205775 2
21.710000 -0.179556 0
21.715000 -0.109750 0
21.720000 0.011712 0
21.725000 0.187048 0
21.730000 0.408460 0
21.735000 0.653957 0
21.740000 0.886761 0
21.745000 1.061789 0
21.750000 1.138991 3
21.755000 1.098770 0
21.760000 0.949595 0
21.765000 0.722077 0
21.770000 0.458893 0
21.775000 0.201279 0
21.780000 -0.020194 0
21.785000 -0.188286 0
21.790000 -0.297181 0
21.795000 -0.349453 0
21.800000 -0.353790 4
21.805000 -0.323219 0
21.810000 -0.272834 0
21.815000 -0.216833 0
21.820000 -0.165810 0
21.825000 -0.125428 0
21.830000 -0.096814 0
21.835000 -0.078147 0
21.840000 -0.066447 0
21.845000 -0.058870 0
21.850000 -0.053305 0
21.855000 -0.048421 0
21.860000 -0.043479 0
21.865000 -0.038094 0
21.870000 -0.032062 0
21.875000 -0.025262 0
21.880000 -0.017606 0
21.885000 -0.009017 0
21.890000 0.000569 0
21.895000 0.011212 0
21.900000 0.022959 0
21.905000 0.035844 0
21.910000 0.049886 0
21.915000 0.065085 0
21.920000 0.081421 0
21.925000 0.098849 0
21.930000 0.117299 0
21.935000 0.136674 0
21.940000 0.156848 0
21.945000 0.177669 0
21.950000 0.198957 0
21.955000 0.220505 0
21.960000 0.242084 0
21.965000 0.263445 0
21.970000 0.284324 0
21.975000 0.304446 0
21.980000 0.323530 0
21.985000 0.341299 0
21.990000 0.357482 0
21.995000 0.371823 0
22.000000 0.384086 0
22.005000 0.394064 0
22.010000 0.401581 0
22.015000 0.406502 0
22.020000 0.408730 5
22.025000 0.408215 0
22.030000 0.404951 0
22.035000 0.398979 0
22.040000 0.390386 0
22.045000 0.379302 0
22.050000 0.365896 0
22.055000 0.350373 0
22.060000 0.332966 0
22.065000 0.313933 0
22.070000 0.293550 0
22.075000 0.272103 0
22.080000 0.249879 0
22.085000 0.227168 0
22.090000 0.204246 0
22.095000 0.181377 0
22.100000 0.158806 0
22.105000 0.136755 0
22.110000 0.115421 0
22.115000 0.094971 0
22.120000 0.075545 0
22.125000 0.057252 0
22.130000 0.040173 0
22.135000 0.024363 0
22.140000 0.009848 0
22.145000 -0.003366 0
22.150000 -0.015296 0
22.155000 -0.025977 0
22.160000 -0.035456 0
22.165000 -0.043796 0
22.170000 -0.051065 0
22.175000 -0.057340 0
22.180000 -0.062702 0
22.185000 -0.067231 0
22.190000 -0.071008 0
22.195000 -0.074114 0
22.200000 -0.076624 0
22.205000 -0.078610 0
22.210000 -0.080140 0
22.215000 -0.081274 0
22.220000 -0.082070 0
22.225000 -0.082577 0
22.230000 -0.082840 0
22.235000 -0.082899 0
22.240000 -0.082789 0
22.245000 -0.082539 0
22.250000 -0.082174 0
22.255000 -0.081717 0
22.260000 -0.081185 0
22.265000 -0.080594 0
22.270000 -0.079957 0
22.275000 -0.079283 0
22.280000 -0.078581 0
22.285000 -0.077858 0
22.290000 -0.077120 0
22.295000 -0.076371 0
22.300000 -0.075609 0
22.305000 -0.074822 0
22.310000 -0.074038 0
22.315000 -0.073259 0
22.320000 -0.072483 0
22.325000 -0.071711 0
22.330000 -0.070943 0
22.335000 -0.070179 0
22.340000 -0.069418 0
22.345000 -0.068662 0
22.350000 -0.067909 0
22.355000 -0.067160 0
22.360000 -0.066414 0
22.365000 -0.065673 0
22.370000 -0.064935 0
22.375000 -0.064201 0
22.380000 -0.063470 0
22.385000 -0.062743 0
22.390000 -0.062020 0
22.395000 -0.061300 0
22.400000 -0.060584 0
22.405000 -0.059871 0
22.410000 -0.059163 0
22.415000 -0.058457 0
22.420000 -0.057755 0
22.425000 -0.057057 0
22.430000 -0.056362 0
22.435000 -0.055670 0
22.440000 -0.054982 0
22.445000 -0.054297 0
22.450000 -0.053616 0
22.455000 -0.052938 0
22.460000 -0.052263 0
22.465000 -0.051591 0
22.470000 -0.050921 0
22.475000 -0.050253 0
22.480000 -0.049586 0
22.485000 -0.048919 0
22.490000 -0.048249 0
22.495000 -0.047572 0
22.500000 -0.046884 0
22.505000 -0.046176 0
22.510000 -0.045438 0
22.515000 -0.044652 0
22.520000 -0.043796 0
22.525000 -0.042839 0
22.530000 -0.041739 0
22.535000 -0.040442 0
22.540000 -0.038876 0
22.545000 -0.036953 0
22.550000 -0.034565 0
22.555000 -0.031580 0
22.560000 -0.027847 0
22.565000 -0.023198 0
22.570000 -0.017447 0
22.575000 -0.010404 0
22.580000 -0.001881 0
22.585000 0.008292 0
22.590000 0.020252 0
22.595000 0.034086 0
22.600000 0.049810 0
22.605000 0.067353 0
22.610000 0.086542 0
22.615000 0.107091 0
22.620000 0.128602 0
22.625000 0.150564 0
22.630000 0.172372 0
22.635000 0.193352 0
22.640000 0.212789 0
22.645000 0.229969 0
22.650000 0.244223 0
22.655000 0.254964 0
22.660000 0.261734 0
22.665000 0.264229 1
22.670000 0.262326 0
22.675000 0.256089 0
22.680000 0.245769 0
22.685000 0.231779 0
22.690000 0.214678 0
22.695000 0.195121 0
22.700000 0.173826 0
22.705000 0.151527 0
22.710000 0.128933 0
22.715000 0.106691 0
22.720000 0.085359 0
22.725000 0.065385 0
22.730000 0.047096 0
22.735000 0.030679 0
22.740000 0.016170 0
22.745000 0.003396 0
22.750000 -0.008104 0
22.755000 -0.019218 0
22.760000 -0.031371 0
22.765000 -0.046516 0
22.770000 -0.066778 0
22.775000 -0.093657 0
22.780000 -0.126829 0
22.785000 -0.162970 0
22.790000 -0.195204 0
22.795000 -0.213582 2
22.800000 -0.206487 0
22.805000 -0.162404 0
22.810000 -0.071642 0
22.815000 0.071623 0
22.820000 0.266216 0
22.825000 0.499788 0
22.830000 0.745721 0
22.835000 0.964684 0
22.840000 1.113139 0
22.845000 1.156952 3
22.850000 1.084739 0
22.855000 0.911892 0
22.860000 0.671981 0
22.865000 0.406711 0
22.870000 0.153977 0
22.875000 -0.059349 0
22.880000 -0.218816 0
22.885000 -0.320233 0
22.890000 -0.366919 0
22.895000 -0.367720 4
22.900000 -0.335389 0
22.905000 -0.284427 0
22.910000 -0.228354 0
22.915000 -0.177241 0
22.920000 -0.136519 0
22.925000 -0.107349 0
22.930000 -0.088066 0
22.935000 -0.075834 0
22.940000 -0.067885 0
22.945000 -0.062108 0
22.950000 -0.057142 0
22.955000 -0.052206 0
22.960000 -0.046889 0
22.965000 -0.040973 0
22.970000 -0.034328 0
22.975000 -0.026866 0
22.980000 -0.018511 0
22.985000 -0.009199 0
22.990000 0.001128 0
22.995000 0.012520 0
23.000000 0.025014 0
23.005000 0.038634 0
23.010000 0.053388 0
23.015000 0.069263 0
23.020000 0.086227 0
23.025000 0.104225 0
23.030000 0.123175 0
23.035000 0.142970 0
23.040000 0.163479 0
23.045000 0.184542 0
23.050000 0.205975 0
23.055000 0.227572 0
23.060000 0.249105 0
23.065000 0.270330 0
23.070000 0.290988 0
23.075000 0.310816 0
23.080000 0.329544 0
23.085000 0.346907 0
23.090000 0.362649 0
23.095000 0.376531 0
23.100000 0.388332 0
23.105000 0.397859 0
23.110000 0.404953 0
23.115000 0.409487 0
23.120000 0.411377 5
23.125000 0.410579 0
23.130000 0.407093 0
23.135000 0.400962 0
23.140000 0.392272 0
23.145000 0.381148 0
23.150000 0.367754 0
23.155000 0.352284 0
23.160000 0.334963 0
23.165000 0.316037 0
23.170000 0.295768 0
23.175000 0.274430 0
23.180000 0.252299 0
23.185000 0.229652 0
23.190000 0.206755 0
23.195000 0.183865 0
23.200000 0.161221 0
23.205000 0.139039 0
23.210000 0.117513 0
23.215000 0.096813 0
23.220000 0.077079 0
23.225000 0.058425 0
23.230000 0.040937 0
23.235000 0.024676 0
23.240000 0.009677 0
23.245000 -0.004047 0
23.250000 -0.016505 0
23.255000 -0.027721 0
23.260000 -0.037736 0
23.265000 -0.046605 0
23.270000 -0.054390 0
23.275000 -0.061161 0
23.280000 -0.066993 0
23.285000 -0.071964 0
23.290000 -0.076153 0
23.295000 -0.079635 0
23.300000 -0.082488 0
23.305000 -0.084781 0
23.310000 -0.086584 0
23.315000 -0.087957 0
23.320000 -0.088960 0
23.325000 -0.089644 0
23.330000 -0.090057 0
23.335000 -0.090240 0
23.340000 -0.090230 0
23.345000 -0.090059 0
23.350000 -0.089756 0
23.355000 -0.089343 0
23.360000 -0.088843 0
23.365000 -0.088271 0
23.370000 -0.087642 0
23.375000 -0.086968 0
23.380000 -0.086259 0
23.385000 -0.085523 0
23.390000 -0.084766 0
23.395000 -0.083994 0
23.400000 -0.083212 0
23.405000 -0.082417 0
23.410000 -0.081595 0
23.415000 -0.080778 0
23.420000 -0.079965 0
23.425000 -0.079156 0
23.430000 -0.078351 0
23.435000 -0.077549 0
23.440000 -0.076752 0
23.445000 -0.075959 0
23.450000 -0.075170 0
23.455000 -0.074385 0
23.460000 -0.073603 0
23.465000 -0.072826 0
23.470000 -0.072052 0
23.475000 -0.071282 0
23.480000 -0.070516 0
23.485000 -0.069754 0
23.490000 -0.068996 0
23.495000 -0.068242 0
23.500000 -0.067491 0
23.505000 -0.066744 0
23.510000 -0.066001 0
23.515000 -0.065261 0
23.520000 -0.064525 0
23.525000 -0.063793 0
23.530000 -0.063064 0
23.535000 -0.062339 0
23.540000 -0.061618 0
23.545000 -0.060900 0
23.550000 -0.060186 0
23.555000 -0.059476 0
23.560000 -0.058768 0
23.565000 -0.058064 0
23.570000 -0.057364 0
23.575000 -0.056666 0
23.580000 -0.055971 0
23.585000 -0.055278 0
23.590000 -0.054585 0
23.595000 -0.053893 0
23.600000 -0.053197 0
23.605000 -0.052496 0
23.610000 -0.051782 0
23.615000 -0.051050 0
23.620000 -0.050288 0
23.625000 -0.049481 0
23.630000 -0.048606 0
23.635000 -0.047636 0
23.640000 -0.046531 0
23.645000 -0.045240 0
23.650000 -0.043697 0
23.655000 -0.041820 0
23.660000 -0.039509 0
23.665000 -0.036642 0
23.670000 -0.033080 0
23.675000 -0.028663 0
23.680000 -0.023219 0
23.685000 -0.016565 0
23.690000 -0.008520 0
23.695000 0.001086 0
23.700000 0.012398 0
23.705000 0.025517 0
23.710000 0.040488 0
23.715000 0.057278 0
23.720000 0.075764 0
23.725000 0.095723 0
23.730000 0.116823 0
23.735000 0.138627 0
23.740000 0.160599 0
23.745000 0.182127 0
23.750000 0.202542 0
23.755000 0.221157 0
23.760000 0.237298 0
23.765000 0.250351 0
23.770000 0.259793 0
23.775000 0.265234 0
23.780000 0.266435 1
23.785000 0.263330 0
23.790000 0.256031 0
23.795000 0.244819 0
23.800000 0.230127 0
23.805000 0.212509 0
23.810000 0.192611 0
23.815000 0.171124 0
23.820000 0.148752 0
23.825000 0.126166 0
23.830000 0.103981 0
23.835000 0.082722 0
23.840000 0.062813 0
23.845000 0.044560 0
23.850000 0.028143 0
23.855000 0.013596 0
23.860000 0.000761 0
23.865000 -0.010788 0
23.870000 -0.021865 0
23.875000 -0.033787 0
23.880000 -0.048374 0
23.885000 -0.067680 0
23.890000 -0.093308 0
23.895000 -0.125356 0
23.900000 -0.161287 0
23.905000 -0.195265 0
23.910000 -0.218374 0
23.915000 -0.219742 2
23.920000 -0.188137 0
23.925000 -0.113559 0
23.930000 0.011060 0
23.935000 0.187378 0
23.940000 0.408024 0
23.945000 0.653020 0
23.950000 0.889114 0
23.955000 1.074895 0
23.960000 1.171774 3
23.965000 1.157620 0
23.970000 1.034815 0
23.975000 0.826694 0
23.980000 0.570625 0
23.985000 0.306352 0
23.990000 0.066444 0
23.995000 -0.128047 0
24.000000 -0.267230 0
24.005000 -0.349890 0
24.010000 -0.381151 4
24.015000 -0.370857 0
24.020000 -0.332001 0
24.025000 -0.278538 0
24.030000 -0.222823 0
24.035000 -0.173554 0
24.040000 -0.135011 0
24.045000 -0.107662 0
24.050000 -0.089603 0
24.055000 -0.078055 0
24.060000 -0.070417 0
24.065000 -0.064744 0
24.070000 -0.059785 0
24.075000 -0.054825 0
24.080000 -0.049480 0
24.085000 -0.043544 0
24.090000 -0.036897 0
24.095000 -0.029450 0
24.100000 -0.021133 0
24.105000 -0.011882 0
24.110000 -0.001642 0
24.115000 0.009637 0
24.120000 0.021990 0
24.125000 0.035443 0
24.130000 0.050005 0
24.135000 0.065668 0
24.140000 0.082406 0
24.145000 0.100168 0
24.150000 0.118884 0
24.155000 0.138456 0
24.160000 0.158764 0
24.165000 0.179664 0
24.170000 0.200985 0
24.175000 0.222537 0
24.180000 0.244107 0
24.185000 0.265466 0
24.190000 0.286372 0
24.195000 0.306571 0
24.200000 0.325808 0
24.205000 0.343826 0
24.210000 0.360374 0
24.215000 0.375213 0
24.220000 0.388121 0
24.225000 0.398900 0
24.230000 0.407377 0
24.235000 0.413413 0
24.240000 0.416903 0
24.245000 0.417780 5
24.250000 0.416019 0
24.255000 0.411633 0
24.260000 0.404679 0
24.265000 0.395249 0
24.270000 0.383477 0
24.275000 0.369526 0
24.280000 0.353594 0
24.285000 0.335899 0
24.290000 0.316682 0
24.295000 0.296197 0
24.300000 0.274709 0
24.305000 0.252484 0
24.310000 0.229784 0
24.315000 0.206868 0
24.320000 0.183979 0
24.325000 0.161344 0
24.330000 0.139172 0
24.335000 0.117649 0
24.340000 0.096935 0
24.345000 0.077167 0
24.350000 0.058455 0
24.355000 0.040883 0
24.360000 0.024511 0
24.365000 0.009374 0
24.370000 -0.004512 0
24.375000 -0.017153 0
24.380000 -0.028572 0
24.385000 -0.038805 0
24.390000 -0.047901 0
24.395000 -0.055919 0
24.400000 -0.062926 0
24.405000 -0.068992 0
24.410000 -0.074193 0
24.415000 -0.078602 0
24.420000 -0.082295 0
24.425000 -0.085345 0
24.430000 -0.087821 0
24.435000 -0.089791 0
24.440000 -0.091317 0
24.445000 -0.092456 0
24.450000 -0.093260 0
24.455000 -0.093777 0
24.460000 -0.094050 0
24.465000 -0.094116 0
24.470000 -0.094009 0
24.475000 -0.093757 0
24.480000 -0.093386 0
24.485000 -0.092917 0
24.490000 -0.092368 0
24.495000 -0.091755 0
24.500000 -0.091091 0
24.505000 -0.090386 0
24.510000 -0.089650 0
24.515000 -0.088890 0
24.520000 -0.088111 0
24.525000 -0.087319 0
24.530000 -0.086517 0
24.535000 -0.085682 0
24.540000 -0.084844 0
24.545000 -0.084011 0
24.550000 -0.083181 0
24.555000 -0.082356 0
24.560000 -0.081535 0
24.565000 -0.080718 0
24.570000 -0.079905 0
24.575000 -0.079096 0
24.580000 -0.078291 0
24.585000 -0.077490 0
24.590000 -0.076693 0
24.595000 -0.075900 0
24.600000 -0.075112 0
24.605000 -0.074327 0
24.610000 -0.073545 0
24.615000 -0.072768 0
24.620000 -0.071995 0
24.625000 -0.071225 0
24.630000 -0.070460 0
24.635000 -0.069698 0
24.640000 -0.068940 0
24.645000 -0.068186 0
24.650000 -0.067435 0
24.655000 -0.066689 0
24.660000 -0.065946 0
24.665000 -0.065206 0
24.670000 -0.064471 0
24.675000 -0.063739 0
24.680000 -0.063011 0
24.685000 -0.062286 0
24.690000 -0.061565 0
24.695000 -0.060847 0
24.700000 -0.060132 0
24.705000 -0.059421 0
24.710000 -0.058713 0
24.715000 -0.058007 0
24.720000 -0.057302 0
24.725000 -0.056599 0
24.730000 -0.055894 0
24.735000 -0.055185 0
24.740000 -0.054468 0
24.745000 -0.053738 0
24.750000 -0.052986 0
24.755000 -0.052201 0
24.760000 -0.051365 0
24.765000 -0.050457 0
24.770000 -0.049446 0
24.775000 -0.048292 0
24.780000 -0.046942 0
24.785000 -0.045330 0
24.790000 -0.043375 0
24.795000 -0.040976 0
24.800000 -0.038013 0
24.805000 -0.034351 0
24.810000 -0.029834 0
24.815000 -0.024296 0
24.820000 -0.017561 0
24.825000 -0.009455 0
24.830000 0.000185 0
24.835000 0.011495 0
24.840000 0.024574 0
24.845000 0.039466 0
24.850000 0.056144 0
24.855000 0.074494 0
24.860000 0.094311 0
24.865000 0.115287 0
24.870000 0.137013 0
24.875000 0.158989 0
24.880000 0.180637 0
24.885000 0.201322 0
24.890000 0.220384 0
24.895000 0.237172 0
24.900000 0.251078 0
24.905000 0.261573 0
24.910000 0.268244 0
24.915000 0.270814 1
24.920000 0.269168 0
24.925000 0.263353 0
24.930000 0.253582 0
24.935000 0.240218 0
24.940000 0.223750 0
24.945000 0.204766 0
24.950000 0.183916 0
24.955000 0.161875 0
24.960000 0.139306 0
24.965000 0.116831 0
24.970000 0.095003 0
24.975000 0.074283 0
24.980000 0.055029 0
24.985000 0.037489 0
24.990000 0.021781 0
24.995000 0.007875 0
25.000000 -0.004459 0
25.005000 -0.015741 0
25.010000 -0.026895 0
25.015000 -0.039335 0
25.020000 -0.054915 0
25.025000 -0.075577 0
25.030000 -0.102629 0
25.035000 -0.135711 0
25.040000 -0.171807 0
25.045000 -0.204751 0
25.050000 -0.225602 2
25.055000 -0.223776 0
25.060000 -0.188541 0
25.065000 -0.110479 0
25.070000 0.016919 0
25.075000 0.194892 0
25.080000 0.416023 0
25.085000 0.660957 0
25.090000 0.897818 0
25.095000 1.086886 0
25.100000 1.190633 3
25.105000 1.185689 0
25.110000 1.069937 0
25.115000 0.864122 0
25.120000 0.607929 0
25.125000 0.343919 0
25.130000 0.106598 0
25.135000 -0.082369 0
25.140000 -0.213500 0
25.145000 -0.286591 0
25.150000 -0.308164 4
25.155000 -0.289668 0
25.160000 -0.245536 0
25.165000 -0.190504 0
25.170000 -0.136718 0
25.175000 -0.091801 0
25.180000 -0.058575 0
25.185000 -0.036241 0
25.190000 -0.022144 0
25.195000 -0.013308 0
25.200000 -0.007296 0
25.205000 -0.002466 0
25.210000 0.002144 0
25.215000 0.007050 0
25.220000 0.012520 0
25.225000 0.018703 0
25.230000 0.025698 0
25.235000 0.033585 0
25.240000 0.042434 0
25.245000 0.052304 0
25.250000 0.063250 0
25.255000 0.075312 0
25.260000 0.088517 0
25.265000 0.102875 0
25.270000 0.118377 0
25.275000 0.134992 0
25.280000 0.152663 0
25.285000 0.171311 0
25.290000 0.190826 0
25.295000 0.211074 0
25.300000 0.231891 0
25.305000 0.253089 0
25.310000 0.274453 0
25.315000 0.295749 0
25.320000 0.316725 0
25.325000 0.337114 0
25.330000 0.356643 0
25.335000 0.375035 0
25.340000 0.392016 0
25.345000 0.407326 0
25.350000 0.420717 0
25.355000 0.431967 0
25.360000 0.440881 0
25.365000 0.447301 0
25.370000 0.451103 0
25.375000 0.452209 5
25.380000 0.450583 0
25.385000 0.446236 0
25.390000 0.439221 0
25.395000 0.429639 0
25.400000 0.417630 0
25.405000 0.403371 0
25.410000 0.387075 0
25.415000 0.368979 0
25.420000 0.349344 0
25.425000 0.328445 0
25.430000 0.306565 0
25.435000 0.283990 0
25.440000 0.261003 0
25.445000 0.237873 0
25.450000 0.214859 0
25.455000 0.192195 0
25.460000 0.170097 0
25.465000 0.148751 0
25.470000 0.128317 0
25.475000 0.108927 0
25.480000 0.090684 0
25.485000 0.073661 0
25.490000 0.057906 0
25.495000 0.043443 0
25.500000 0.030272 0
25.505000 0.018374 0
25.510000 0.007711 0
25.515000 -0.001765 0
25.520000 -0.010118 0
25.525000 -0.017417 0
25.530000 -0.023737 0
25.535000 -0.029159 0
25.540000 -0.033763 0
25.545000 -0.037629 0
25.550000 -0.040835 0
25.555000 -0.043455 0
25.560000 -0.045562 0
25.565000 -0.047219 0
25.570000 -0.048488 0
25.575000 -0.049424 0
25.580000 -0.050075 0
25.585000 -0.050487 0
25.590000 -0.050697 0
25.595000 -0.050739 0
25.600000 -0.050643 0
25.605000 -0.050433 0
25.610000 -0.050132 0
25.615000 -0.049756 0
25.620000 -0.049320 0
25.625000 -0.048838 0
25.630000 -0.048319 0
25.635000 -0.047772 0
25.640000 -0.047203 0
25.645000 -0.046618 0
25.650000 -0.046021 0
25.655000 -0.045411 0
25.660000 -0.044774 0
25.665000 -0.044141 0
25.670000 -0.043510 0
25.675000 -0.042883 0
25.680000 -0.042258 0
25.685000 -0.041637 0
25.690000 -0.041019 0
25.695000 -0.040404 0
25.700000 -0.039792 0
25.705000 -0.039184 0
25.710000 -0.038578 0
25.715000 -0.037975 0
25.720000 -0.037375 0
25.725000 -0.036778 0
25.730000 -0.036185 0
25.735000 -0.035594 0
25.740000 -0.035006 0
25.745000 -0.034421 0
25.750000 -0.033839 0
25.755000 -0.033260 0
25.760000 -0.032683 0
25.765000 -0.032110 0
25.770000 -0.031540 0
25.775000 -0.030972 0
25.780000 -0.030407 0
25.785000 -0.029845 0
25.790000 -0.029286 0
25.795000 -0.028729 0
25.800000 -0.028175 0
25.805000 -0.027624 0
25.810000 -0.027076 0
25.815000 -0.026530 0
25.820000 -0.025986 0
25.825000 -0.025444 0
25.830000 -0.024904 0
25.835000 -0.024364 0
25.840000 -0.023824 0
25.845000 -0.023281 0
25.850000 -0.022732 0
25.855000 -0.022173 0
25.860000 -0.021596 0
25.865000 -0.020991 0
25.870000 -0.020344 0
25.875000 -0.019635 0
25.880000 -0.018836 0
25.885000 -0.017908 0
25.890000 -0.016803 0
25.895000 -0.015455 0
25.900000 -0.013783 0
25.905000 -0.011687 0
25.910000 -0.009045 0
25.915000 -0.005716 0
25.920000 -0.001537 0
25.925000 0.003668 0
25.930000 0.010087 0
25.935000 0.017907 0
25.940000 0.027305 0
25.945000 0.038431 0
25.950000 0.051392 0
25.955000 0.066234 0
25.960000 0.082925 0
25.965000 0.101335 0
25.970000 0.121232 0
25.975000 0.142268 0
25.980000 0.163986 0
25.985000 0.185827 0
25.990000 0.207153 0
25.995000 0.227270 0
26.000000 0.245469 0
26.005000 0.261064 0
26.010000 0.273431 0
26.015000 0.282053 0
26.020000 0.286554 0
26.025000 0.286722 1
26.030000 0.282529 0
26.035000 0.274131 0
26.040000 0.261857 0
26.045000 0.246191 0
26.050000 0.227733 0
26.055000 0.207166 0
26.060000 0.185211 0
26.065000 0.162586 0
26.070000 0.139968 0
26.075000 0.117960 0
26.080000 0.097066 0
26.085000 0.077678 0
26.090000 0.060061 0
26.095000 0.044342 0
26.100000 0.030478 0
26.105000 0.018195 0
26.110000 0.006885 0
26.115000 -0.004528 0
26.120000 -0.017669 0
26.125000 -0.034595 0
26.130000 -0.057295 0
26.135000 -0.086730 0
26.140000 -0.121620 0
26.145000 -0.157444 0
26.150000 -0.186238 0
26.155000 -0.197420 2
26.160000 -0.179357 0
26.165000 -0.121086 0
26.170000 -0.014024 0
26.175000 0.145781 0
26.180000 0.354176 0
26.185000 0.594835 0
26.190000 0.837245 0
26.195000 1.040162 0
26.200000 1.161777 0
26.205000 1.173448 3
26.210000 1.070232 0
26.215000 0.872836 0
26.220000 0.620073 0
26.225000 0.355160 0
26.230000 0.114069 0
26.235000 -0.080022 0
26.240000 -0.216491 0
26.245000 -0.294398 0
26.250000 -0.319803 4
26.255000 -0.303903 0
26.260000 -0.261104 0
26.265000 -0.206340 0
26.270000 -0.152125 0
26.275000 -0.106472 0
26.280000 -0.072506 0
26.285000 -0.049586 0
26.290000 -0.035093 0
26.295000 -0.026015 0
26.300000 -0.019862 0
26.305000 -0.014948 0
26.310000 -0.010279 0
26.315000 -0.005324 0
26.320000 0.000192 0
26.325000 0.006420 0
26.330000 0.013463 0
26.335000 0.021400 0
26.340000 0.030302 0
26.345000 0.040230 0
26.350000 0.051237 0
26.355000 0.063366 0
26.360000 0.076642 0
26.365000 0.091076 0
26.370000 0.106659 0
26.375000 0.123358 0
26.380000 0.141117 0
26.385000 0.159853 0
26.390000 0.179457 0
26.395000 0.199791 0
26.400000 0.220689 0
26.405000 0.241960 0
26.410000 0.263388 0
26.415000 0.284734 0
26.420000 0.305744 0
26.425000 0.326147 0
26.430000 0.345668 0
26.435000 0.364028 0
26.440000 0.380952 0
26.445000 0.396176 0
26.450000 0.409454 0
26.455000 0.420564 0
26.460000 0.429312 0
26.465000 0.435541 0
26.470000 0.439132 0
26.475000 0.440010 5
26.480000 0.438142 0
26.485000 0.433545 0
26.490000 0.426278 0
26.495000 0.416448 0
26.500000 0.404201 0
26.505000 0.389720 0
26.510000 0.373222 0
26.515000 0.354952 0
26.520000 0.335173 0
26.525000 0.314166 0
26.530000 0.292217 0
26.535000 0.269613 0
26.540000 0.246638 0
26.545000 0.223563 0
26.550000 0.200644 0
26.555000 0.178115 0
26.560000 0.156188 0
26.565000 0.135047 0
26.570000 0.114848 0
26.575000 0.095718 0
26.580000 0.077754 0
26.585000 0.061028 0
26.590000 0.045581 0
26.595000 0.031432 0
26.600000 0.018578 0
26.605000 0.006995 0
26.610000 -0.003358 0
26.615000 -0.012533 0
26.620000 -0.020594 0
26.625000 -0.027615 0
26.630000 -0.033673 0
26.635000 -0.038848 0
26.640000 -0.043221 0
26.645000 -0.046873 0
26.650000 -0.049882 0
26.655000 -0.052322 0
26.660000 -0.054263 0
26.665000 -0.055771 0
26.670000 -0.056904 0
26.675000 -0.057716 0
26.680000 -0.058256 0
26.685000 -0.058567 0
26.690000 -0.058686 0
26.695000 -0.058645 0
26.700000 -0.058474 0
26.705000 -0.058195 0
26.710000 -0.057830 0
26.715000 -0.057395 0
26.720000 -0.056905 0
26.725000 -0.056372 0
26.730000 -0.055805 0
26.735000 -0.055212 0
26.740000 -0.054599 0
26.745000 -0.053972 0
26.750000 -0.053334 0
26.755000 -0.052664 0
26.760000 -0.051991 0
26.765000 -0.051321 0
26.770000 -0.050655 0
26.775000 -0.049992 0
26.780000 -0.049332 0
26.785000 -0.048676 0
26.790000 -0.048022 0
26.795000 -0.047372 0
26.800000 -0.046726 0
26.805000 -0.046082 0
26.810000 -0.045442 0
26.815000 -0.044805 0
26.820000 -0.044171 0
26.825000 -0.043541 0
26.830000 -0.042913 0
26.835000 -0.042289 0
26.840000 -0.041667 0
26.845000 -0.041049 0
26.850000 -0.040434 0
26.855000 -0.039822 0
26.860000 -0.039213 0
26.865000 -0.038607 0
26.870000 -0.038004 0
26.875000 -0.037404 0
26.880000 -0.036807 0
26.885000 -0.036213 0
26.890000 -0.035622 0
26.895000 -0.035034 0
26.900000 -0.034449 0
26.905000 -0.033867 0
26.910000 -0.033287 0
26.915000 -0.032710 0
26.920000 -0.032135 0
26.925000 -0.031562 0
26.930000 -0.030990 0
26.935000 -0.030419 0
26.940000 -0.029846 0
26.945000 -0.029269 0
26.950000 -0.028684 0
26.955000 -0.028086 0
26.960000 -0.027465 0
26.965000 -0.026810 0
26.970000 -0.026103 0
26.975000 -0.025320 0
26.980000 -0.024427 0
26.985000 -0.023381 0
26.990000 -0.022124 0
26.995000 -0.020581 0
27.000000 -0.018661 0
27.005000 -0.016250 0
27.010000 -0.013215 0
27.015000 -0.009401 0
27.020000 -0.004635 0
27.025000 0.001266 0
27.030000 0.008495 0
27.035000 0.017236 0
27.040000 0.027652 0
27.045000 0.039873 0
27.050000 0.053972 0
27.055000 0.069952 0
27.060000 0.087724 0
27.065000 0.107095 0
27.070000 0.127763 0
27.075000 0.149307 0
27.080000 0.171203 0
27.085000 0.192836 0
27.090000 0.213523 0
27.095000 0.232551 0
27.100000 0.249213 0
27.105000 0.262853 0
27.110000 0.272906 0
27.115000 0.278938 0
27.120000 0.280673 1
27.125000 0.278018 0
27.130000 0.271066 0
27.135000 0.260090 0
27.140000 0.245528 0
27.145000 0.227951 0
27.150000 0.208024 0
27.155000 0.186466 0
27.160000 0.164008 0
27.165000 0.141347 0
27.170000 0.119119 0
27.175000 0.097865 0
27.180000 0.078017 0
27.185000 0.059882 0
27.190000 0.043629 0
27.195000 0.029272 0
27.200000 0.016609 0
27.205000 0.005137 0
27.210000 -0.006085 0
27.215000 -0.018543 0
27.220000 -0.034225 0
27.225000 -0.055227 0
27.230000 -0.082908 0
27.235000 -0.116675 0
27.240000 -0.152862 0
27.245000 -0.184267 0
27.250000 -0.200745 2
27.255000 -0.190660 0
27.260000 -0.142645 0
27.265000 -0.047316 0
27.270000 0.100642 0
27.275000 0.299242 0
27.280000 0.535037 0
27.285000 0.780297 0
27.290000 0.995097 0
27.295000 1.136300 0
27.300000 1.171240 3
27.305000 1.087676 0
27.310000 0.899780 0
27.315000 0.649215 0
27.320000 0.384340 0
27.325000 0.145400 0
27.330000 -0.042478 0
27.335000 -0.168771 0
27.340000 -0.233940 0
27.345000 -0.246259 4
27.350000 -0.219551 0
27.355000 -0.170503 0
27.360000 -0.115063 0
27.365000 -0.065046 0
27.370000 -0.026474 0
27.375000 -0.000170 0
27.380000 0.016216 0
27.385000 0.026056 0
27.390000 0.032320 0
27.395000 0.037058 0
27.400000 0.041465 0
27.405000 0.046164 0
27.410000 0.051464 0
27.415000 0.057534 0
27.420000 0.064481 0
27.425000 0.072396 0
27.430000 0.081353 0
27.435000 0.091421 0
27.440000 0.102655 0
27.445000 0.115094 0
27.450000 0.128762 0
27.455000 0.143659 0
27.460000 0.159758 0
27.465000 0.177008 0
27.470000 0.195325 0
27.475000 0.214592 0
27.480000 0.234662 0
27.485000 0.255353 0
27.490000 0.276451 0
27.495000 0.297714 0
27.500000 0.318874 0
27.505000 0.339642 0
27.510000 0.359715 0
27.515000 0.378781 0
27.520000 0.396527 0
27.525000 0.412650 0
27.530000 0.426860 0
27.535000 0.438892 0
27.540000 0.448513 0
27.545000 0.455529 0
27.550000 0.459789 0
27.555000 0.461194 5
27.560000 0.459697 0
27.565000 0.455303 0
27.570000 0.448076 0
27.575000 0.438129 0
27.580000 0.425625 0
27.585000 0.410773 0
27.590000 0.393819 0
27.595000 0.375041 0
27.600000 0.354739 0
27.605000 0.333230 0
27.610000 0.310835 0
27.615000 0.287876 0
27.620000 0.264664 0
27.625000 0.241495 0
27.630000 0.218642 0
27.635000 0.196351 0
27.640000 0.174839 0
27.645000 0.154288 0
27.650000 0.134847 0
27.655000 0.116628 0
27.660000 0.099714 0
27.665000 0.084151 0
27.670000 0.069961 0
27.675000 0.057135 0
27.680000 0.045645 0
27.685000 0.035442 0
27.690000 0.026462 0
27.695000 0.018631 0
27.700000 0.011865 0
27.705000 0.006076 0
27.710000 0.001172 0
27.715000 -0.002936 0
27.720000 -0.006337 0
27.725000 -0.009116 0
27.730000 -0.011351 0
27.735000 -0.013118 0
27.740000 -0.014482 0
27.745000 -0.015504 0
27.750000 -0.016239 0
27.755000 -0.016734 0
27.760000 -0.017031 0
27.765000 -0.017164 0
27.770000 -0.017165 0
27.775000 -0.017059 0
27.780000 -0.016867 0
27.785000 -0.016608 0
27.790000 -0.016295 0
27.795000 -0.015942 0
27.800000 -0.015557 0
27.805000 -0.015148 0
27.810000 -0.014721 0
27.815000 -0.014281 0
27.820000 -0.013806 0
27.825000 -0.013326 0
27.830000 -0.012850 0
27.835000 -0.012375 0
27.840000 -0.011903 0
27.845000 -0.011433 0
27.850000 -0.010966 0
27.855000 -0.010501 0
27.860000 -0.010038 0
27.865000 -0.009578 0
27.870000 -0.009119 0
27.875000 -0.008664 0
27.880000 -0.008210 0
27.885000 -0.007759 0
27.890000 -0.007310 0
27.895000 -0.006863 0
27.900000 -0.006418 0
27.905000 -0.005976 0
27.910000 -0.005536 0
27.915000 -0.005098 0
27.920000 -0.004662 0
27.925000 -0.004228 0
27.930000 -0.003797 0
27.935000 -0.003367 0
27.940000 -0.002940 0
27.945000 -0.002515 0
27.950000 -0.002092 0
27.955000 -0.001671 0
27.960000 -0.001252 0
27.965000 -0.000835 0
27.970000 -0.000420 0
27.975000 -0.000007 0
27.980000 0.000406 0
27.985000 0.000818 0
27.990000 0.001230 0
27.995000 0.001645 0
28.000000 0.002065 0
28.005000 0.002494 0
28.010000 0.002940 0
28.015000 0.003412 0
28.020000 0.003925 0
28.025000 0.004500 0
28.030000 0.005168 0
28.035000 0.005969 0
28.040000 0.006959 0
28.045000 0.008213 0
28.050000 0.009822 0
28.055000 0.011906 0
28.060000 0.014606 0
28.065000 0.018089 0
28.070000 0.022544 0
28.075000 0.028178 0
28.080000 0.035204 0
28.085000 0.043829 0
28.090000 0.054239 0
28.095000 0.066573 0
28.100000 0.080907 0
28.105000 0.097224 0
28.110000 0.115398 0
28.115000 0.135178 0
28.120000 0.156174 0
28.125000 0.177866 0
28.130000 0.199615 0
28.135000 0.220685 0
28.140000 0.240286 0
28.145000 0.257618 0
28.150000 0.271925 0
28.155000 0.282545 0
28.160000 0.288965 0
28.165000 0.290854 1
28.170000 0.288096 0
28.175000 0.280797 0
28.180000 0.269276 0
28.185000 0.254043 0
28.190000 0.235760 0
28.195000 0.215191 0
28.200000 0.193150 0
28.205000 0.170446 0
28.210000 0.147837 0
28.215000 0.125986 0
28.220000 0.105436 0
28.225000 0.086588 0
28.230000 0.069689 0
28.235000 0.054805 0
28.240000 0.041772 0
28.245000 0.030087 0
28.250000 0.018752 0
28.255000 0.006131 0
28.260000 -0.010005 0
28.265000 -0.031973 0
28.270000 -0.061070 0
28.275000 -0.096044 0
28.280000 -0.131801 0
28.285000 -0.159142 0
28.290000 -0.165879 2
28.295000 -0.138879 0
28.300000 -0.066245 0
28.305000 0.060395 0
28.310000 0.242549 0
28.315000 0.469952 0
28.320000 0.716083 0
28.325000 0.938732 0
28.330000 1.089365 0
28.335000 1.129609 3
