0.000000 1.106354 3
0.005000 1.043621 0
0.010000 0.882441 0
0.015000 0.653996 0
0.020000 0.398104 0
0.025000 0.151685 0
0.030000 -0.058526 0
0.035000 -0.217707 0
0.040000 -0.321065 0
0.045000 -0.371187 0
0.050000 -0.376090 4
0.055000 -0.347684 0
0.060000 -0.299811 0
0.065000 -0.245671 0
0.070000 -0.195403 0
0.075000 -0.154775 0
0.080000 -0.125364 0
0.085000 -0.105844 0
0.090000 -0.093577 0
0.095000 -0.085858 0
0.100000 -0.080565 0
0.105000 -0.076300 0
0.110000 -0.072250 0
0.115000 -0.067982 0
0.120000 -0.063268 0
0.125000 -0.057980 0
0.130000 -0.052026 0
0.135000 -0.045333 0
0.140000 -0.037830 0
0.145000 -0.029454 0
0.150000 -0.020144 0
0.155000 -0.009846 0
0.160000 0.001484 0
0.165000 0.013880 0
0.170000 0.027361 0
0.175000 0.041932 0
0.180000 0.057577 0
0.185000 0.074260 0
0.190000 0.091925 0
0.195000 0.110490 0
0.200000 0.129847 0
0.205000 0.149867 0
0.210000 0.170391 0
0.215000 0.191241 0
0.220000 0.212216 0
0.225000 0.233094 0
0.230000 0.253639 0
0.235000 0.273603 0
0.240000 0.292732 0
0.245000 0.310768 0
0.250000 0.327459 0
0.255000 0.342560 0
0.260000 0.355844 0
0.265000 0.367102 0
0.270000 0.376154 0
0.275000 0.382849 0
0.280000 0.387070 0
0.285000 0.388740 5
0.290000 0.387822 0
0.295000 0.384318 0
0.300000 0.378274 0
0.305000 0.369775 0
0.310000 0.358943 0
0.315000 0.345937 0
0.320000 0.330947 0
0.325000 0.314189 0
0.330000 0.295899 0
0.335000 0.276329 0
0.340000 0.255741 0
0.345000 0.234402 0
0.350000 0.212575 0
0.355000 0.190516 0
0.360000 0.168469 0
0.365000 0.146663 0
0.370000 0.125306 0
0.375000 0.104582 0
0.380000 0.084655 0
0.385000 0.065657 0
0.390000 0.047699 0
0.395000 0.030862 0
0.400000 0.015206 0
0.405000 0.000764 0
0.410000 -0.012451 0
0.415000 -0.024447 0
0.420000 -0.035248 0
0.425000 -0.044892 0
0.430000 -0.053430 0
0.435000 -0.060923 0
0.440000 -0.067437 0
0.445000 -0.073044 0
0.450000 -0.077818 0
0.455000 -0.081835 0
0.460000 -0.085168 0
0.465000 -0.087890 0
0.470000 -0.090069 0
0.475000 -0.091771 0
0.480000 -0.093057 0
0.485000 -0.093980 0
0.490000 -0.094594 0
0.495000 -0.094942 0
0.500000 -0.095065 0
0.505000 -0.095000 0
0.510000 -0.094777 0
0.515000 -0.094424 0
0.520000 -0.093964 0
0.525000 -0.093417 0
0.530000 -0.092800 0
0.535000 -0.092126 0
0.540000 -0.091408 0
0.545000 -0.090656 0
0.550000 -0.089877 0
0.555000 -0.089078 0
0.560000 -0.088264 0
0.565000 -0.087439 0
0.570000 -0.086607 0
0.575000 -0.085770 0
0.580000 -0.084914 0
0.585000 -0.084059 0
0.590000 -0.083208 0
0.595000 -0.082361 0
0.600000 -0.081518 0
0.605000 -0.080680 0
0.610000 -0.079845 0
0.615000 -0.079015 0
0.620000 -0.078189 0
0.625000 -0.077367 0
0.630000 -0.076550 0
0.635000 -0.075736 0
0.640000 -0.074926 0
0.645000 -0.074121 0
0.650000 -0.073319 0
0.655000 -0.072521 0
0.660000 -0.071728 0
0.665000 -0.070938 0
0.670000 -0.070152 0
0.675000 -0.069371 0
0.680000 -0.068593 0
0.685000 -0.067819 0
0.690000 -0.067049 0
0.695000 -0.066282 0
0.700000 -0.065520 0
0.705000 -0.064761 0
0.710000 -0.064006 0
0.715000 -0.063255 0
0.720000 -0.062508 0
0.725000 -0.061764 0
0.730000 -0.061024 0
0.735000 -0.060288 0
0.740000 -0.059555 0
0.745000 -0.058826 0
0.750000 -0.058100 0
0.755000 -0.057378 0
0.760000 -0.056659 0
0.765000 -0.055943 0
0.770000 -0.055229 0
0.775000 -0.054518 0
0.780000 -0.053807 0
0.785000 -0.053095 0
0.790000 -0.052379 0
0.795000 -0.051656 0
0.800000 -0.050920 0
0.805000 -0.050162 0
0.810000 -0.049371 0
0.815000 -0.048530 0
0.820000 -0.047615 0
0.825000 -0.046597 0
0.830000 -0.045434 0
0.835000 -0.044071 0
0.840000 -0.042443 0
0.845000 -0.040463 0
0.850000 -0.038029 0
0.855000 -0.035019 0
0.860000 -0.031293 0
0.865000 -0.026695 0
0.870000 -0.021054 0
0.875000 -0.014195 0
0.880000 -0.005948 0
0.885000 0.003846 0
0.890000 0.015315 0
0.895000 0.028541 0
0.900000 0.043547 0
0.905000 0.060280 0
0.910000 0.078597 0
0.915000 0.098255 0
0.920000 0.118909 0
0.925000 0.140115 0
0.930000 0.161339 0
0.935000 0.181977 0
0.940000 0.201382 0
0.945000 0.218894 0
0.950000 0.233879 0
0.955000 0.245766 0
0.960000 0.254081 0
0.965000 0.258478 0
0.970000 0.258767 1
0.975000 0.254922 0
0.980000 0.247083 0
0.985000 0.235552 0
0.990000 0.220771 0
0.995000 0.203291 0
1.000000 0.183740 0
1.005000 0.162788 0
1.010000 0.141105 0
1.015000 0.119327 0
1.020000 0.098028 0
1.025000 0.077698 0
1.030000 0.058726 0
1.035000 0.041390 0
1.040000 0.025856 0
1.045000 0.012159 0
1.050000 0.000181 0
1.055000 -0.010412 0
1.060000 -0.020271 0
1.065000 -0.030482 0
1.070000 -0.042625 0
1.075000 -0.058637 0
1.080000 -0.080328 0
1.085000 -0.108496 0
1.090000 -0.141834 0
1.095000 -0.176059 0
1.100000 -0.203748 0
1.105000 -0.215083 2
1.110000 -0.199247 0
1.115000 -0.145965 0
1.120000 -0.047020 0
1.125000 0.101808 0
1.130000 0.297739 0
1.135000 0.527324 0
1.140000 0.764184 0
1.145000 0.971172 0
1.150000 1.108518 0
1.155000 1.145923 3
1.160000 1.073197 0
1.165000 0.904047 0
1.170000 0.671077 0
1.175000 0.414417 0
1.180000 0.170355 0
1.185000 -0.035456 0
1.190000 -0.189261 0
1.195000 -0.287115 0
1.200000 -0.332249 0
1.205000 -0.333190 4
1.210000 -0.302204 0
1.215000 -0.253239 0
1.220000 -0.199306 0
1.225000 -0.150130 0
1.230000 -0.110982 0
1.235000 -0.083034 0
1.240000 -0.064721 0
1.245000 -0.053332 0
1.250000 -0.046203 0
1.255000 -0.041293 0
1.260000 -0.037283 0
1.265000 -0.033415 0
1.270000 -0.029291 0
1.275000 -0.024698 0
1.280000 -0.019515 0
1.285000 -0.013654 0
1.290000 -0.007042 0
1.295000 0.000391 0
1.300000 0.008709 0
1.305000 0.017972 0
1.310000 0.028231 0
1.315000 0.039532 0
1.320000 0.051904 0
1.325000 0.065367 0
1.330000 0.079921 0
1.335000 0.095548 0
1.340000 0.112210 0
1.345000 0.129844 0
1.350000 0.148366 0
1.355000 0.167664 0
1.360000 0.187602 0
1.365000 0.208020 0
1.370000 0.228734 0
1.375000 0.249539 0
1.380000 0.270209 0
1.385000 0.290506 0
1.390000 0.310180 0
1.395000 0.328973 0
1.400000 0.346628 0
1.405000 0.362893 0
1.410000 0.377525 0
1.415000 0.390298 0
1.420000 0.401009 0
1.425000 0.409480 0
1.430000 0.415567 0
1.435000 0.419160 0
1.440000 0.420188 5
1.445000 0.418622 0
1.450000 0.414471 0
1.455000 0.407790 0
1.460000 0.398670 0
1.465000 0.387244 0
1.470000 0.373676 0
1.475000 0.358162 0
1.480000 0.340923 0
1.485000 0.322200 0
1.490000 0.302249 0
1.495000 0.281334 0
1.500000 0.259722 0
1.505000 0.237676 0
1.510000 0.215451 0
1.515000 0.193289 0
1.520000 0.171416 0
1.525000 0.150035 0
1.530000 0.129327 0
1.535000 0.109448 0
1.540000 0.090528 0
1.545000 0.072670 0
1.550000 0.055952 0
1.555000 0.040427 0
1.560000 0.026123 0
1.565000 0.013048 0
1.570000 0.001192 0
1.575000 -0.009474 0
1.580000 -0.018992 0
1.585000 -0.027416 0
1.590000 -0.034807 0
1.595000 -0.041233 0
1.600000 -0.046769 0
1.605000 -0.051488 0
1.610000 -0.055466 0
1.615000 -0.058776 0
1.620000 -0.061492 0
1.625000 -0.063679 0
1.630000 -0.065404 0
1.635000 -0.066725 0
1.640000 -0.067697 0
1.645000 -0.068370 0
1.650000 -0.068787 0
1.655000 -0.068988 0
1.660000 -0.069009 0
1.665000 -0.068878 0
1.670000 -0.068623 0
1.675000 -0.068266 0
1.680000 -0.067826 0
1.685000 -0.067319 0
1.690000 -0.066758 0
1.695000 -0.066156 0
1.700000 -0.065520 0
1.705000 -0.064859 0
1.710000 -0.064179 0
1.715000 -0.063485 0
1.720000 -0.062780 0
1.725000 -0.062068 0
1.730000 -0.061351 0
1.735000 -0.060617 0
1.740000 -0.059883 0
1.745000 -0.059152 0
1.750000 -0.058425 0
1.755000 -0.057702 0
1.760000 -0.056982 0
1.765000 -0.056266 0
1.770000 -0.055554 0
1.775000 -0.054845 0
1.780000 -0.054139 0
1.785000 -0.053437 0
1.790000 -0.052739 0
1.795000 -0.052044 0
1.800000 -0.051352 0
1.805000 -0.050664 0
1.810000 -0.049980 0
1.815000 -0.049299 0
1.820000 -0.048621 0
1.825000 -0.047946 0
1.830000 -0.047275 0
1.835000 -0.046608 0
1.840000 -0.045943 0
1.845000 -0.045282 0
1.850000 -0.044624 0
1.855000 -0.043970 0
1.860000 -0.043319 0
1.865000 -0.042671 0
1.870000 -0.042026 0
1.875000 -0.041384 0
1.880000 -0.040746 0
1.885000 -0.040111 0
1.890000 -0.039479 0
1.895000 -0.038850 0
1.900000 -0.038224 0
1.905000 -0.037601 0
1.910000 -0.036981 0
1.915000 -0.036364 0
1.920000 -0.035749 0
1.925000 -0.035135 0
1.930000 -0.034523 0
1.935000 -0.033910 0
1.940000 -0.033295 0
1.945000 -0.032675 0
1.950000 -0.032045 0
1.955000 -0.031398 0
1.960000 -0.030726 0
1.965000 -0.030014 0
1.970000 -0.029244 0
1.975000 -0.028389 0
1.980000 -0.027416 0
1.985000 -0.026278 0
1.990000 -0.024917 0
1.995000 -0.023258 0
2.000000 -0.021210 0
2.005000 -0.018663 0
2.010000 -0.015486 0
2.015000 -0.011533 0
2.020000 -0.006640 0
2.025000 -0.000634 0
2.030000 0.006660 0
2.035000 0.015410 0
2.040000 0.025765 0
2.045000 0.037837 0
2.050000 0.051688 0
2.055000 0.067311 0
2.060000 0.084618 0
2.065000 0.103427 0
2.070000 0.123452 0
2.075000 0.144306 0
2.080000 0.165504 0
2.085000 0.186481 0
2.090000 0.206607 0
2.095000 0.225224 0
2.100000 0.241678 0
2.105000 0.255351 0
2.110000 0.265709 0
2.115000 0.272327 0
2.120000 0.274920 1
2.125000 0.273367 0
2.130000 0.267712 0
2.135000 0.258168 0
2.140000 0.245099 0
2.145000 0.229002 0
2.150000 0.210466 0
2.155000 0.190146 0
2.160000 0.168716 0
2.165000 0.146839 0
2.170000 0.125129 0
2.175000 0.104128 0
2.180000 0.084283 0
2.185000 0.065937 0
2.190000 0.049318 0
2.195000 0.034538 0
2.200000 0.021566 0
2.205000 0.010198 0
2.210000 -0.000032 0
2.215000 -0.009962 0
2.220000 -0.020907 0
2.225000 -0.034654 0
2.230000 -0.053172 0
2.235000 -0.077938 0
2.240000 -0.108910 0
2.245000 -0.143466 0
2.250000 -0.175800 0
2.255000 -0.197195 2
2.260000 -0.197134 0
2.265000 -0.164832 0
2.270000 -0.090759 0
2.275000 0.031724 0
2.280000 0.203946 0
2.285000 0.418433 0
2.290000 0.655533 0
2.295000 0.882929 0
2.300000 1.060718 0
2.305000 1.152031 3
2.310000 1.135380 0
2.315000 1.012524 0
2.320000 0.807509 0
2.325000 0.558022 0
2.330000 0.303414 0
2.335000 0.075225 0
2.340000 -0.106797 0
2.345000 -0.233969 0
2.350000 -0.306057 0
2.355000 -0.328984 4
2.360000 -0.313220 0
2.365000 -0.272082 0
2.370000 -0.219368 0
2.375000 -0.166748 0
2.380000 -0.121892 0
2.385000 -0.088033 0
2.390000 -0.064872 0
2.395000 -0.050140 0
2.400000 -0.041045 0
2.405000 -0.035180 0
2.410000 -0.030847 0
2.415000 -0.027012 0
2.420000 -0.023106 0
2.425000 -0.018833 0
2.430000 -0.014031 0
2.435000 -0.008597 0
2.440000 -0.002453 0
2.445000 0.004473 0
2.450000 0.012246 0
2.455000 0.020931 0
2.460000 0.030582 0
2.465000 0.041249 0
2.470000 0.052971 0
2.475000 0.065772 0
2.480000 0.079665 0
2.485000 0.094642 0
2.490000 0.110676 0
2.495000 0.127720 0
2.500000 0.145701 0
2.505000 0.164525 0
2.510000 0.184069 0
2.515000 0.204189 0
2.520000 0.224714 0
2.525000 0.245451 0
2.530000 0.266188 0
2.535000 0.286694 0
2.540000 0.306725 0
2.545000 0.326030 0
2.550000 0.344351 0
2.555000 0.361433 0
2.560000 0.377028 0
2.565000 0.390899 0
2.570000 0.402831 0
2.575000 0.412630 0
2.580000 0.420132 0
2.585000 0.425206 0
2.590000 0.427758 5
2.595000 0.427733 0
2.600000 0.425117 0
2.605000 0.419937 0
2.610000 0.412263 0
2.615000 0.402201 0
2.620000 0.389896 0
2.625000 0.375524 0
2.630000 0.359291 0
2.635000 0.341425 0
2.640000 0.322173 0
2.645000 0.301794 0
2.650000 0.280552 0
2.655000 0.258713 0
2.660000 0.236536 0
2.665000 0.214272 0
2.670000 0.192156 0
2.675000 0.170405 0
2.680000 0.149214 0
2.685000 0.128755 0
2.690000 0.109173 0
2.695000 0.090589 0
2.700000 0.073096 0
2.705000 0.056763 0
2.710000 0.041633 0
2.715000 0.027728 0
2.720000 0.015049 0
2.725000 0.003578 0
2.730000 -0.006717 0
2.735000 -0.015884 0
2.740000 -0.023978 0
2.745000 -0.031063 0
2.750000 -0.037210 0
2.755000 -0.042492 0
2.760000 -0.046984 0
2.765000 -0.050761 0
2.770000 -0.053896 0
2.775000 -0.056459 0
2.780000 -0.058517 0
2.785000 -0.060133 0
2.790000 -0.061364 0
2.795000 -0.062262 0
2.800000 -0.062877 0
2.805000 -0.063249 0
2.810000 -0.063417 0
2.815000 -0.063415 0
2.820000 -0.063270 0
2.825000 -0.063009 0
2.830000 -0.062651 0
2.835000 -0.062216 0
2.840000 -0.061719 0
2.845000 -0.061171 0
2.850000 -0.060585 0
2.855000 -0.059968 0
2.860000 -0.059327 0
2.865000 -0.058669 0
2.870000 -0.057997 0
2.875000 -0.057317 0
2.880000 -0.056629 0
2.885000 -0.055935 0
2.890000 -0.055224 0
2.895000 -0.054516 0
2.900000 -0.053813 0
2.905000 -0.053112 0
2.910000 -0.052415 0
2.915000 -0.051722 0
2.920000 -0.051032 0
2.925000 -0.050346 0
2.930000 -0.049663 0
2.935000 -0.048983 0
2.940000 -0.048307 0
2.945000 -0.047634 0
2.950000 -0.046965 0
2.955000 -0.046298 0
2.960000 -0.045636 0
2.965000 -0.044976 0
2.970000 -0.044320 0
2.975000 -0.043667 0
2.980000 -0.043017 0
2.985000 -0.042371 0
2.990000 -0.041727 0
2.995000 -0.041087 0
3.000000 -0.040451 0
3.005000 -0.039817 0
3.010000 -0.039186 0
3.015000 -0.038559 0
3.020000 -0.037935 0
3.025000 -0.037314 0
3.030000 -0.036696 0
3.035000 -0.036081 0
3.040000 -0.035469 0
3.045000 -0.034860 0
3.050000 -0.034254 0
3.055000 -0.033651 0
3.060000 -0.033051 0
3.065000 -0.032453 0
3.070000 -0.031858 0
3.075000 -0.031266 0
3.080000 -0.030674 0
3.085000 -0.030083 0
3.090000 -0.029492 0
3.095000 -0.028897 0
3.100000 -0.028297 0
3.105000 -0.027685 0
3.110000 -0.027055 0
3.115000 -0.026396 0
3.120000 -0.025695 0
3.125000 -0.024930 0
3.130000 -0.024074 0
3.135000 -0.023092 0
3.140000 -0.021934 0
3.145000 -0.020540 0
3.150000 -0.018831 0
3.155000 -0.016713 0
3.160000 -0.014072 0
3.165000 -0.010775 0
3.170000 -0.006672 0
3.175000 -0.001598 0
3.180000 0.004620 0
3.185000 0.012158 0
3.190000 0.021179 0
3.195000 0.031826 0
3.200000 0.044204 0
3.205000 0.058361 0
3.210000 0.074278 0
3.215000 0.091850 0
3.220000 0.110878 0
3.225000 0.131060 0
3.230000 0.151991 0
3.235000 0.173174 0
3.240000 0.194031 0
3.245000 0.213928 0
3.250000 0.232209 0
3.255000 0.248223 0
3.260000 0.261368 0
3.265000 0.271125 0
3.270000 0.277092 0
3.275000 0.279011 1
3.280000 0.276786 0
3.285000 0.270490 0
3.290000 0.260358 0
3.295000 0.246776 0
3.300000 0.230253 0
3.305000 0.211391 0
3.310000 0.190846 0
3.315000 0.169293 0
3.320000 0.147385 0
3.325000 0.125727 0
3.330000 0.104844 0
3.335000 0.085171 0
3.340000 0.067032 0
3.345000 0.050640 0
3.350000 0.036088 0
3.355000 0.023326 0
3.360000 0.012122 0
3.365000 0.001970 0
3.370000 -0.008021 0
3.375000 -0.019226 0
3.380000 -0.033469 0
3.385000 -0.052699 0
3.390000 -0.078264 0
3.395000 -0.109868 0
3.400000 -0.144540 0
3.405000 -0.176129 0
3.410000 -0.195671 2
3.415000 -0.192578 0
3.420000 -0.156165 0
3.425000 -0.077162 0
3.430000 0.050614 0
3.435000 0.227743 0
3.440000 0.445650 0
3.445000 0.683407 0
3.450000 0.907713 0
3.455000 1.078553 0
3.460000 1.160151 3
3.465000 1.133117 0
3.470000 1.001546 0
3.475000 0.791017 0
3.480000 0.539616 0
3.485000 0.286103 0
3.490000 0.060946 0
3.495000 -0.117152 0
3.500000 -0.240291 0
3.505000 -0.308747 0
3.510000 -0.328764 4
3.515000 -0.310998 0
3.520000 -0.268790 0
3.525000 -0.215800 0
3.530000 -0.163443 0
3.535000 -0.119103 0
3.540000 -0.085785 0
3.545000 -0.063060 0
3.550000 -0.048621 0
3.555000 -0.039696 0
3.560000 -0.033915 0
3.565000 -0.029617 0
3.570000 -0.025792 0
3.575000 -0.021885 0
3.580000 -0.017607 0
3.585000 -0.012799 0
3.590000 -0.007360 0
3.595000 -0.001211 0
3.600000 0.005717 0
3.605000 0.013492 0
3.610000 0.022175 0
3.615000 0.031821 0
3.620000 0.042481 0
3.625000 0.054191 0
3.630000 0.066978 0
3.635000 0.080852 0
3.640000 0.095807 0
3.645000 0.111816 0
3.650000 0.128833 0
3.655000 0.146787 0
3.660000 0.165582 0
3.665000 0.185100 0
3.670000 0.205195 0
3.675000 0.225700 0
3.680000 0.246424 0
3.685000 0.267156 0
3.690000 0.287668 0
3.695000 0.307719 0
3.700000 0.327056 0
3.705000 0.345427 0
3.710000 0.362575 0
3.715000 0.378255 0
3.720000 0.392230 0
3.725000 0.404285 0
3.730000 0.414225 0
3.735000 0.421886 0
3.740000 0.427135 0
3.745000 0.429875 0
3.750000 0.430049 5
3.755000 0.427639 0
3.760000 0.422670 0
3.765000 0.415206 0
3.770000 0.405351 0
3.775000 0.393244 0
3.780000 0.379059 0
3.785000 0.362996 0
3.790000 0.345282 0
3.795000 0.326159 0
3.800000 0.305884 0
3.805000 0.284719 0
3.810000 0.262928 0
3.815000 0.240771 0
3.820000 0.218497 0
3.825000 0.196343 0
3.830000 0.174526 0
3.835000 0.153244 0
3.840000 0.132670 0
3.845000 0.112953 0
3.850000 0.094215 0
3.855000 0.076554 0
3.860000 0.060041 0
3.865000 0.044722 0
3.870000 0.030624 0
3.875000 0.017748 0
3.880000 0.006081 0
3.885000 -0.004408 0
3.890000 -0.013762 0
3.895000 -0.022037 0
3.900000 -0.029295 0
3.905000 -0.035604 0
3.910000 -0.041039 0
3.915000 -0.045672 0
3.920000 -0.049578 0
3.925000 -0.052831 0
3.930000 -0.055501 0
3.935000 -0.057654 0
3.940000 -0.059355 0
3.945000 -0.060661 0
3.950000 -0.061626 0
3.955000 -0.062297 0
3.960000 -0.062719 0
3.965000 -0.062930 0
3.970000 -0.062965 0
3.975000 -0.062851 0
3.980000 -0.062616 0
3.985000 -0.062281 0
3.990000 -0.061864 0
3.995000 -0.061382 0
4.000000 -0.060848 0
4.005000 -0.060272 0
4.010000 -0.059664 0
4.015000 -0.059030 0
4.020000 -0.058378 0
4.025000 -0.057712 0
4.030000 -0.057036 0
4.035000 -0.056352 0
4.040000 -0.055664 0
4.045000 -0.054958 0
4.050000 -0.054252 0
4.055000 -0.053549 0
4.060000 -0.052850 0
4.065000 -0.052155 0
4.070000 -0.051463 0
4.075000 -0.050774 0
4.080000 -0.050089 0
4.085000 -0.049407 0
4.090000 -0.048729 0
4.095000 -0.048054 0
4.100000 -0.047382 0
4.105000 -0.046714 0
4.110000 -0.046049 0
4.115000 -0.045388 0
4.120000 -0.044729 0
4.125000 -0.044074 0
4.130000 -0.043422 0
4.135000 -0.042774 0
4.140000 -0.042129 0
4.145000 -0.041487 0
4.150000 -0.040848 0
4.155000 -0.040212 0
4.160000 -0.039580 0
4.165000 -0.038950 0
4.170000 -0.038324 0
4.175000 -0.037701 0
4.180000 -0.037081 0
4.185000 -0.036464 0
4.190000 -0.035851 0
4.195000 -0.035240 0
4.200000 -0.034632 0
4.205000 -0.034027 0
4.210000 -0.033426 0
4.215000 -0.032827 0
4.220000 -0.032230 0
4.225000 -0.031637 0
4.230000 -0.031045 0
4.235000 -0.030456 0
4.240000 -0.029867 0
4.245000 -0.029278 0
4.250000 -0.028687 0
4.255000 -0.028092 0
4.260000 -0.027487 0
4.265000 -0.026868 0
4.270000 -0.026224 0
4.275000 -0.025544 0
4.280000 -0.024810 0
4.285000 -0.023998 0
4.290000 -0.023075 0
4.295000 -0.021999 0
4.300000 -0.020714 0
4.305000 -0.019150 0
4.310000 -0.017220 0
4.315000 -0.014820 0
4.320000 -0.011824 0
4.325000 -0.008092 0
4.330000 -0.003465 0
4.335000 0.002227 0
4.340000 0.009157 0
4.345000 0.017496 0
4.350000 0.027397 0
4.355000 0.038980 0
4.360000 0.052324 0
4.365000 0.067440 0
4.370000 0.084266 0
4.375000 0.102647 0
4.380000 0.122330 0
4.385000 0.142962 0
4.390000 0.164089 0
4.395000 0.185172 0
4.400000 0.205605 0
4.405000 0.224742 0
4.410000 0.241929 0
4.415000 0.256538 0
4.420000 0.268011 0
4.425000 0.275886 0
4.430000 0.279834 1
4.435000 0.279677 0
4.440000 0.275404 0
4.445000 0.267168 0
4.450000 0.255281 0
4.455000 0.240189 0
4.460000 0.222448 0
4.465000 0.202687 0
4.470000 0.181571 0
4.475000 0.159765 0
4.480000 0.137900 0
4.485000 0.116541 0
4.490000 0.096172 0
4.495000 0.077172 0
4.500000 0.059814 0
4.505000 0.044257 0
4.510000 0.030531 0
4.515000 0.018513 0
4.520000 0.007861 0
4.525000 -0.002084 0
4.530000 -0.012412 0
4.535000 -0.024707 0
4.540000 -0.040898 0
4.545000 -0.062773 0
4.550000 -0.091105 0
4.555000 -0.124564 0
4.560000 -0.158864 0
4.565000 -0.186611 0
4.570000 -0.198039 2
4.575000 -0.182396 0
4.580000 -0.129466 0
4.585000 -0.031061 0
4.590000 0.117060 0
4.595000 0.312249 0
4.600000 0.541326 0
4.605000 0.778306 0
4.610000 0.986428 0
4.615000 1.126082 0
4.620000 1.166722 3
4.625000 1.097356 0
4.630000 0.930680 0
4.635000 0.698940 0
4.640000 0.442314 0
4.645000 0.197408 0
4.650000 -0.009734 0
4.655000 -0.165027 0
4.660000 -0.264304 0
4.665000 -0.310659 0
4.670000 -0.312534 4
4.675000 -0.282163 0
4.680000 -0.233515 0
4.685000 -0.179678 0
4.690000 -0.130470 0
4.695000 -0.091252 0
4.700000 -0.063252 0
4.705000 -0.044929 0
4.710000 -0.033575 0
4.715000 -0.026511 0
4.720000 -0.021687 0
4.725000 -0.017771 0
4.730000 -0.014001 0
4.735000 -0.009976 0
4.740000 -0.005482 0
4.745000 -0.000397 0
4.750000 0.005367 0
4.755000 0.011884 0
4.760000 0.019222 0
4.765000 0.027448 0
4.770000 0.036620 0
4.775000 0.046790 0
4.780000 0.058004 0
4.785000 0.070292 0
4.790000 0.083671 0
4.795000 0.098144 0
4.800000 0.113691 0
4.805000 0.130274 0
4.810000 0.147831 0
4.815000 0.166276 0
4.820000 0.185496 0
4.825000 0.205356 0
4.830000 0.225694 0
4.835000 0.246325 0
4.840000 0.267044 0
4.845000 0.287624 0
4.850000 0.307825 0
4.855000 0.327397 0
4.860000 0.346082 0
4.865000 0.363622 0
4.870000 0.379763 0
4.875000 0.394265 0
4.880000 0.406899 0
4.885000 0.417464 0
4.890000 0.425781 0
4.895000 0.431708 0
4.900000 0.435135 0
4.905000 0.435993 5
4.910000 0.434253 0
4.915000 0.429928 0
4.920000 0.423072 0
4.925000 0.413781 0
4.930000 0.402185 0
4.935000 0.388454 0
4.940000 0.372783 0
4.945000 0.355395 0
4.950000 0.336534 0
4.955000 0.316456 0
4.960000 0.295426 0
4.965000 0.273710 0
4.970000 0.251573 0
4.975000 0.229271 0
4.980000 0.207044 0
4.985000 0.185118 0
4.990000 0.163695 0
4.995000 0.142956 0
5.000000 0.123056 0
5.005000 0.104123 0
5.010000 0.086258 0
5.015000 0.069540 0
5.020000 0.054017 0
5.025000 0.039720 0
5.030000 0.026653 0
5.035000 0.014804 0
5.040000 0.004146 0
5.045000 -0.005367 0
5.050000 -0.013787 0
5.055000 -0.021178 0
5.060000 -0.027608 0
5.065000 -0.033151 0
5.070000 -0.037882 0
5.075000 -0.041876 0
5.080000 -0.045207 0
5.085000 -0.047947 0
5.090000 -0.050165 0
5.095000 -0.051923 0
5.100000 -0.053281 0
5.105000 -0.054294 0
5.110000 -0.055011 0
5.115000 -0.055475 0
5.120000 -0.055726 0
5.125000 -0.055798 0
5.130000 -0.055721 0
5.135000 -0.055521 0
5.140000 -0.055221 0
5.145000 -0.054839 0
5.150000 -0.054391 0
5.155000 -0.053890 0
5.160000 -0.053348 0
5.165000 -0.052773 0
5.170000 -0.052173 0
5.175000 -0.051554 0
5.180000 -0.050921 0
5.185000 -0.050278 0
5.190000 -0.049628 0
5.195000 -0.048972 0
5.200000 -0.048300 0
5.205000 -0.047627 0
5.210000 -0.046957 0
5.215000 -0.046291 0
5.220000 -0.045628 0
5.225000 -0.044969 0
5.230000 -0.044313 0
5.235000 -0.043660 0
5.240000 -0.043010 0
5.245000 -0.042364 0
5.250000 -0.041721 0
5.255000 -0.041081 0
5.260000 -0.040444 0
5.265000 -0.039810 0
5.270000 -0.039180 0
5.275000 -0.038552 0
5.280000 -0.037928 0
5.285000 -0.037307 0
5.290000 -0.036689 0
5.295000 -0.036074 0
5.300000 -0.035462 0
5.305000 -0.034854 0
5.310000 -0.034248 0
5.315000 -0.033645 0
5.320000 -0.033045 0
5.325000 -0.032449 0
5.330000 -0.031855 0
5.335000 -0.031264 0
5.340000 -0.030676 0
5.345000 -0.030091 0
5.350000 -0.029509 0
5.355000 -0.028930 0
5.360000 -0.028354 0
5.365000 -0.027780 0
5.370000 -0.027209 0
5.375000 -0.026641 0
5.380000 -0.026075 0
5.385000 -0.025511 0
5.390000 -0.024949 0
5.395000 -0.024387 0
5.400000 -0.023824 0
5.405000 -0.023258 0
5.410000 -0.022686 0
5.415000 -0.022103 0
5.420000 -0.021503 0
5.425000 -0.020874 0
5.430000 -0.020202 0
5.435000 -0.019469 0
5.440000 -0.018645 0
5.445000 -0.017696 0
5.450000 -0.016574 0
5.455000 -0.015216 0
5.460000 -0.013545 0
5.465000 -0.011468 0
5.470000 -0.008869 0
5.475000 -0.005616 0
5.480000 -0.001558 0
5.485000 0.003471 0
5.490000 0.009645 0
5.495000 0.017139 0
5.500000 0.026120 0
5.505000 0.036732 0
5.510000 0.049077 0
5.515000 0.063209 0
5.520000 0.079105 0
5.525000 0.096662 0
5.530000 0.115677 0
5.535000 0.135846 0
5.540000 0.156762 0
5.545000 0.177922 0
5.550000 0.198745 0
5.555000 0.218592 0
5.560000 0.236802 0
5.565000 0.252722 0
5.570000 0.265747 0
5.575000 0.275361 0
5.580000 0.281161 0
5.585000 0.282896 1
5.590000 0.280474 0
5.595000 0.273976 0
5.600000 0.263646 0
5.605000 0.249879 0
5.610000 0.233193 0
5.615000 0.214196 0
5.620000 0.193552 0
5.625000 0.171937 0
5.630000 0.150007 0
5.635000 0.128366 0
5.640000 0.107537 0
5.645000 0.087948 0
5.650000 0.069918 0
5.655000 0.053652 0
5.660000 0.039232 0
5.665000 0.026597 0
5.670000 0.015490 0
5.675000 0.005376 0
5.680000 -0.004686 0
5.685000 -0.016125 0
5.690000 -0.030810 0
5.695000 -0.050679 0
5.700000 -0.076967 0
5.705000 -0.109132 0
5.710000 -0.143844 0
5.715000 -0.174560 0
5.720000 -0.192005 2
5.725000 -0.185433 0
5.730000 -0.144193 0
5.735000 -0.059245 0
5.740000 0.075075 0
5.745000 0.258364 0
5.750000 0.480486 0
5.755000 0.718587 0
5.760000 0.937752 0
5.765000 1.097587 0
5.770000 1.163790 3
5.775000 1.119597 0
5.780000 0.972120 0
5.785000 0.750801 0
5.790000 0.495981 0
5.795000 0.246500 0
5.800000 0.031245 0
5.805000 -0.133313 0
5.810000 -0.241412 0
5.815000 -0.295185 0
5.820000 -0.302543 4
5.825000 -0.275546 0
5.830000 -0.228367 0
5.835000 -0.174605 0
5.840000 -0.124713 0
5.845000 -0.084606 0
5.850000 -0.055853 0
5.855000 -0.037036 0
5.860000 -0.025426 0
5.865000 -0.018269 0
5.870000 -0.013438 0
5.875000 -0.009552 0
5.880000 -0.005825 0
5.885000 -0.001840 0
5.890000 0.002619 0
5.895000 0.007677 0
5.900000 0.013423 0
5.905000 0.019934 0
5.910000 0.027279 0
5.915000 0.035524 0
5.920000 0.044730 0
5.925000 0.054949 0
5.930000 0.066226 0
5.935000 0.078592 0
5.940000 0.092064 0
5.945000 0.106639 0
5.950000 0.122297 0
5.955000 0.138996 0
5.960000 0.156667 0
5.965000 0.175221 0
5.970000 0.194537 0
5.975000 0.214473 0
5.980000 0.234859 0
5.985000 0.255501 0
5.990000 0.276186 0
5.995000 0.296679 0
6.000000 0.316731 0
6.005000 0.336085 0
6.010000 0.354477 0
6.015000 0.371645 0
6.020000 0.387331 0
6.025000 0.401293 0
6.030000 0.413306 0
6.035000 0.423170 0
6.040000 0.430714 0
6.045000 0.435803 0
6.050000 0.438337 5
6.055000 0.438261 0
6.060000 0.435559 0
6.065000 0.430261 0
6.070000 0.422437 0
6.075000 0.412200 0
6.080000 0.399698 0
6.085000 0.385116 0
6.090000 0.368666 0
6.095000 0.350585 0
6.100000 0.331128 0
6.105000 0.310560 0
6.110000 0.289156 0
6.115000 0.267185 0
6.120000 0.244915 0
6.125000 0.222599 0
6.130000 0.200475 0
6.135000 0.178764 0
6.140000 0.157659 0
6.145000 0.137332 0
6.150000 0.117925 0
6.155000 0.099556 0
6.160000 0.082313 0
6.165000 0.066260 0
6.170000 0.051435 0
6.175000 0.037852 0
6.180000 0.025507 0
6.185000 0.014377 0
6.190000 0.004422 0
6.195000 -0.004409 0
6.200000 -0.012177 0
6.205000 -0.018950 0
6.210000 -0.024803 0
6.215000 -0.029812 0
6.220000 -0.034053 0
6.225000 -0.037602 0
6.230000 -0.040534 0
6.235000 -0.042919 0
6.240000 -0.044823 0
6.245000 -0.046309 0
6.250000 -0.047432 0
6.255000 -0.048245 0
6.260000 -0.048794 0
6.265000 -0.049118 0
6.270000 -0.049256 0
6.275000 -0.049237 0
6.280000 -0.049090 0
6.285000 -0.048837 0
6.290000 -0.048498 0
6.295000 -0.048091 0
6.300000 -0.047628 0
6.305000 -0.047122 0
6.310000 -0.046582 0
6.315000 -0.046015 0
6.320000 -0.045429 0
6.325000 -0.044828 0
6.330000 -0.044216 0
6.335000 -0.043596 0
6.340000 -0.042971 0
6.345000 -0.042328 0
6.350000 -0.041685 0
6.355000 -0.041045 0
6.360000 -0.040409 0
6.365000 -0.039775 0
6.370000 -0.039145 0
6.375000 -0.038518 0
6.380000 -0.037894 0
6.385000 -0.037273 0
6.390000 -0.036655 0
6.395000 -0.036040 0
6.400000 -0.035429 0
6.405000 -0.034820 0
6.410000 -0.034215 0
6.415000 -0.033612 0
6.420000 -0.033012 0
6.425000 -0.032416 0
6.430000 -0.031822 0
6.435000 -0.031232 0
6.440000 -0.030644 0
6.445000 -0.030059 0
6.450000 -0.029477 0
6.455000 -0.028898 0
6.460000 -0.028322 0
6.465000 -0.027749 0
6.470000 -0.027179 0
6.475000 -0.026611 0
6.480000 -0.026047 0
6.485000 -0.025485 0
6.490000 -0.024926 0
6.495000 -0.024370 0
6.500000 -0.023816 0
6.505000 -0.023265 0
6.510000 -0.022717 0
6.515000 -0.022171 0
6.520000 -0.021628 0
6.525000 -0.021087 0
6.530000 -0.020547 0
6.535000 -0.020009 0
6.540000 -0.019470 0
6.545000 -0.018930 0
6.550000 -0.018386 0
6.555000 -0.017833 0
6.560000 -0.017267 0
6.565000 -0.016679 0
6.570000 -0.016056 0
6.575000 -0.015383 0
6.580000 -0.014635 0
6.585000 -0.013781 0
6.590000 -0.012778 0
6.595000 -0.011572 0
6.600000 -0.010092 0
6.605000 -0.008250 0
6.610000 -0.005941 0
6.615000 -0.003036 0
6.620000 0.000608 0
6.625000 0.005155 0
6.630000 0.010781 0
6.635000 0.017664 0
6.640000 0.025980 0
6.645000 0.035887 0
6.650000 0.047510 0
6.655000 0.060926 0
6.660000 0.076143 0
6.665000 0.093089 0
6.670000 0.111596 0
6.675000 0.131390 0
6.680000 0.152093 0
6.685000 0.173222 0
6.690000 0.194207 0
6.695000 0.214414 0
6.700000 0.233170 0
6.705000 0.249801 0
6.710000 0.263673 0
6.715000 0.274228 0
6.720000 0.281024 0
6.725000 0.283760 1
6.730000 0.282303 0
6.735000 0.276694 0
6.740000 0.267145 0
6.745000 0.254029 0
6.750000 0.237852 0
6.755000 0.219219 0
6.760000 0.198800 0
6.765000 0.177287 0
6.770000 0.155355 0
6.775000 0.133629 0
6.780000 0.112657 0
6.785000 0.092889 0
6.790000 0.074664 0
6.795000 0.058205 0
6.800000 0.043609 0
6.805000 0.030826 0
6.810000 0.019614 0
6.815000 0.009446 0
6.820000 -0.000610 0
6.825000 -0.011992 0
6.830000 -0.026595 0
6.835000 -0.046402 0
6.840000 -0.072688 0
6.845000 -0.104906 0
6.850000 -0.139632 0
6.855000 -0.170131 0
6.860000 -0.186873 2
6.865000 -0.178864 0
6.870000 -0.135277 0
6.875000 -0.047032 0
6.880000 0.091321 0
6.885000 0.278709 0
6.890000 0.503693 0
6.895000 0.741576 0
6.900000 0.955653 0
6.905000 1.104777 0
6.910000 1.155750 3
6.915000 1.095380 0
6.920000 0.935390 0
6.925000 0.707154 0
6.930000 0.451035 0
6.935000 0.204506 0
6.940000 -0.005373 0
6.945000 -0.163701 0
6.950000 -0.265788 0
6.955000 -0.314431 0
6.960000 -0.317930 4
6.965000 -0.288500 0
6.970000 -0.240215 0
6.975000 -0.186348 0
6.980000 -0.136923 0
6.985000 -0.097459 0
6.990000 -0.069268 0
6.995000 -0.050828 0
7.000000 -0.039410 0
7.005000 -0.032312 0
7.010000 -0.027462 0
7.015000 -0.023520 0
7.020000 -0.019720 0
7.025000 -0.015659 0
7.030000 -0.011126 0
7.035000 -0.005996 0
7.040000 -0.000182 0
7.045000 0.006391 0
7.050000 0.013792 0
7.055000 0.022086 0
7.060000 0.031334 0
7.065000 0.041587 0
7.070000 0.052890 0
7.075000 0.065274 0
7.080000 0.078755 0
7.085000 0.093334 0
7.090000 0.108990 0
7.095000 0.125683 0
7.100000 0.143348 0
7.105000 0.161897 0
7.110000 0.181213 0
7.115000 0.201158 0
7.120000 0.221566 0
7.125000 0.242248 0
7.130000 0.262994 0
7.135000 0.283575 0
7.140000 0.303747 0
7.145000 0.323255 0
7.150000 0.341839 0
7.155000 0.359240 0
7.160000 0.375203 0
7.165000 0.389485 0
7.170000 0.401861 0
7.175000 0.412129 0
7.180000 0.420116 0
7.185000 0.425682 0
7.190000 0.428723 0
7.195000 0.429175 5
7.200000 0.427016 0
7.205000 0.422267 0
7.210000 0.414990 0
7.215000 0.405288 0
7.220000 0.393300 0
7.225000 0.379203 0
7.230000 0.363200 0
7.235000 0.345520 0
7.240000 0.326412 0
7.245000 0.306136 0
7.250000 0.284962 0
7.255000 0.263158 0
7.260000 0.240989 0
7.265000 0.218710 0
7.270000 0.196562 0
7.275000 0.174765 0
7.280000 0.153520 0
7.285000 0.133002 0
7.290000 0.113361 0
7.295000 0.094720 0
7.300000 0.077175 0
7.305000 0.060795 0
7.310000 0.045628 0
7.315000 0.031693 0
7.320000 0.018993 0
7.325000 0.007510 0
7.330000 -0.002790 0
7.335000 -0.011954 0
7.340000 -0.020038 0
7.345000 -0.027110 0
7.350000 -0.033239 0
7.355000 -0.038500 0
7.360000 -0.042970 0
7.365000 -0.046723 0
7.370000 -0.049835 0
7.375000 -0.052377 0
7.380000 -0.054415 0
7.385000 -0.056012 0
7.390000 -0.057228 0
7.395000 -0.058114 0
7.400000 -0.058719 0
7.405000 -0.059085 0
7.410000 -0.059250 0
7.415000 -0.059246 0
7.420000 -0.059104 0
7.425000 -0.058847 0
7.430000 -0.058496 0
7.435000 -0.058070 0
7.440000 -0.057583 0
7.445000 -0.057048 0
7.450000 -0.056475 0
7.455000 -0.055872 0
7.460000 -0.055247 0
7.465000 -0.054605 0
7.470000 -0.053951 0
7.475000 -0.053288 0
7.480000 -0.052619 0
7.485000 -0.051943 0
7.490000 -0.051252 0
7.495000 -0.050564 0
7.500000 -0.049880 0
7.505000 -0.049199 0
7.510000 -0.048522 0
7.515000 -0.047848 0
7.520000 -0.047178 0
7.525000 -0.046510 0
7.530000 -0.045846 0
7.535000 -0.045186 0
7.540000 -0.044529 0
7.545000 -0.043875 0
7.550000 -0.043224 0
7.555000 -0.042576 0
7.560000 -0.041932 0
7.565000 -0.041291 0
7.570000 -0.040653 0
7.575000 -0.040019 0
7.580000 -0.039387 0
7.585000 -0.038759 0
7.590000 -0.038133 0
7.595000 -0.037511 0
7.600000 -0.036892 0
7.605000 -0.036276 0
7.610000 -0.035664 0
7.615000 -0.035054 0
7.620000 -0.034447 0
7.625000 -0.033843 0
7.630000 -0.033243 0
7.635000 -0.032645 0
7.640000 -0.032050 0
7.645000 -0.031458 0
7.650000 -0.030869 0
7.655000 -0.030283 0
7.660000 -0.029700 0
7.665000 -0.029119 0
7.670000 -0.028540 0
7.675000 -0.027963 0
7.680000 -0.027387 0
7.685000 -0.026811 0
7.690000 -0.026233 0
7.695000 -0.025650 0
7.700000 -0.025058 0
7.705000 -0.024451 0
7.710000 -0.023820 0
7.715000 -0.023153 0
7.720000 -0.022431 0
7.725000 -0.021629 0
7.730000 -0.020716 0
7.735000 -0.019645 0
7.740000 -0.018362 0
7.745000 -0.016793 0
7.750000 -0.014848 0
7.755000 -0.012420 0
7.760000 -0.009380 0
7.765000 -0.005581 0
7.770000 -0.000862 0
7.775000 0.004953 0
7.780000 0.012042 0
7.785000 0.020575 0
7.790000 0.030706 0
7.795000 0.042554 0
7.800000 0.056188 0
7.805000 0.071609 0
7.810000 0.088736 0
7.815000 0.107395 0
7.820000 0.127306 0
7.825000 0.148085 0
7.830000 0.169251 0
7.835000 0.190234 0
7.840000 0.210403 0
7.845000 0.229093 0
7.850000 0.245640 0
7.855000 0.259418 0
7.860000 0.269881 0
7.865000 0.276594 0
7.870000 0.279267 1
7.875000 0.277770 0
7.880000 0.272146 0
7.885000 0.262608 0
7.890000 0.249525 0
7.895000 0.233394 0
7.900000 0.214815 0
7.905000 0.194450 0
7.910000 0.172981 0
7.915000 0.151077 0
7.920000 0.129358 0
7.925000 0.108368 0
7.930000 0.088557 0
7.935000 0.070266 0
7.940000 0.053721 0
7.945000 0.039026 0
7.950000 0.026144 0
7.955000 0.014850 0
7.960000 0.004651 0
7.965000 -0.005334 0
7.970000 -0.016481 0
7.975000 -0.030627 0
7.980000 -0.049754 0
7.985000 -0.075250 0
7.990000 -0.106840 0
7.995000 -0.141525 0
8.000000 -0.173054 0
8.005000 -0.192312 2
8.010000 -0.188536 0
8.015000 -0.150904 0
8.020000 -0.070079 0
8.025000 0.060044 0
8.030000 0.239696 0
8.035000 0.459560 0
8.040000 0.697572 0
8.045000 0.919214 0
8.050000 1.083786 0
8.055000 1.155944 3
8.060000 1.118779 0
8.065000 0.979900 0
8.070000 0.765551 0
8.075000 0.513185 0
8.080000 0.260282 0
8.085000 0.036087 0
8.090000 -0.141479 0
8.095000 -0.264822 0
8.100000 -0.334183 0
8.105000 -0.355542 4
8.110000 -0.339145 0
8.115000 -0.297895 0
8.120000 -0.245141 0
8.125000 -0.192228 0
8.130000 -0.146723 0
8.135000 -0.111961 0
8.140000 -0.087838 0
8.145000 -0.072258 0
8.150000 -0.062522 0
8.155000 -0.056229 0
8.160000 -0.051642 0
8.165000 -0.047672 0
8.170000 -0.043709 0
8.175000 -0.039430 0
8.180000 -0.034658 0
8.185000 -0.029287 0
8.190000 -0.023237 0
8.195000 -0.016438 0
8.200000 -0.008824 0
8.205000 -0.000334 0
8.210000 0.009089 0
8.215000 0.019494 0
8.220000 0.030922 0
8.225000 0.043402 0
8.230000 0.056951 0
8.235000 0.071570 0
8.240000 0.087239 0
8.245000 0.103923 0
8.250000 0.121561 0
8.255000 0.140073 0
8.260000 0.159352 0
8.265000 0.179270 0
8.270000 0.199674 0
8.275000 0.220390 0
8.280000 0.241221 0
8.285000 0.261955 0
8.290000 0.282362 0
8.295000 0.302205 0
8.300000 0.321236 0
8.305000 0.339207 0
8.310000 0.355873 0
8.315000 0.370999 0
8.320000 0.384361 0
8.325000 0.395757 0
8.330000 0.405008 0
8.335000 0.411963 0
8.340000 0.416505 0
8.345000 0.418552 5
8.350000 0.418059 0
8.355000 0.415021 0
8.360000 0.409471 0
8.365000 0.401484 0
8.370000 0.391168 0
8.375000 0.378667 0
8.380000 0.364155 0
8.385000 0.347833 0
8.390000 0.329925 0
8.395000 0.310669 0
8.400000 0.290315 0
8.405000 0.269121 0
8.410000 0.247341 0
8.415000 0.225228 0
8.420000 0.203024 0
8.425000 0.180955 0
8.430000 0.159234 0
8.435000 0.138050 0
8.440000 0.117571 0
8.445000 0.097942 0
8.450000 0.079279 0
8.455000 0.061679 0
8.460000 0.045210 0
8.465000 0.029919 0
8.470000 0.015831 0
8.475000 0.002949 0
8.480000 -0.008738 0
8.485000 -0.019260 0
8.490000 -0.028658 0
8.495000 -0.036985 0
8.500000 -0.044300 0
8.505000 -0.050670 0
8.510000 -0.056166 0
8.515000 -0.060858 0
8.520000 -0.064821 0
8.525000 -0.068124 0
8.530000 -0.070838 0
8.535000 -0.073029 0
8.540000 -0.074758 0
8.545000 -0.076085 0
8.550000 -0.077061 0
8.555000 -0.077735 0
8.560000 -0.078152 0
8.565000 -0.078349 0
8.570000 -0.078362 0
8.575000 -0.078220 0
8.580000 -0.077950 0
8.585000 -0.077574 0
8.590000 -0.077112 0
8.595000 -0.076579 0
8.600000 -0.075990 0
8.605000 -0.075357 0
8.610000 -0.074688 0
8.615000 -0.073992 0
8.620000 -0.073275 0
8.625000 -0.072543 0
8.630000 -0.071799 0
8.635000 -0.071046 0
8.640000 -0.070289 0
8.645000 -0.069525 0
8.650000 -0.068746 0
8.655000 -0.067971 0
8.660000 -0.067201 0
8.665000 -0.066433 0
8.670000 -0.065670 0
8.675000 -0.064911 0
8.680000 -0.064155 0
8.685000 -0.063403 0
8.690000 -0.062655 0
8.695000 -0.061911 0
8.700000 -0.061170 0
8.705000 -0.060433 0
8.710000 -0.059700 0
8.715000 -0.058970 0
8.720000 -0.058244 0
8.725000 -0.057522 0
8.730000 -0.056803 0
8.735000 -0.056087 0
8.740000 -0.055376 0
8.745000 -0.054668 0
8.750000 -0.053963 0
8.755000 -0.053262 0
8.760000 -0.052565 0
8.765000 -0.051870 0
8.770000 -0.051180 0
8.775000 -0.050493 0
8.780000 -0.049809 0
8.785000 -0.049129 0
8.790000 -0.048452 0
8.795000 -0.047778 0
8.800000 -0.047108 0
8.805000 -0.046441 0
8.810000 -0.045777 0
8.815000 -0.045117 0
8.820000 -0.044460 0
8.825000 -0.043805 0
8.830000 -0.043154 0
8.835000 -0.042505 0
8.840000 -0.041859 0
8.845000 -0.041213 0
8.850000 -0.040568 0
8.855000 -0.039922 0
8.860000 -0.039272 0
8.865000 -0.038614 0
8.870000 -0.037942 0
8.875000 -0.037249 0
8.880000 -0.036524 0
8.885000 -0.035749 0
8.890000 -0.034904 0
8.895000 -0.033958 0
8.900000 -0.032873 0
8.905000 -0.031599 0
8.910000 -0.030071 0
8.915000 -0.028209 0
8.920000 -0.025918 0
8.925000 -0.023082 0
8.930000 -0.019568 0
8.935000 -0.015229 0
8.940000 -0.009902 0
8.945000 -0.003420 0
8.950000 0.004387 0
8.955000 0.013674 0
8.960000 0.024574 0
8.965000 0.037182 0
8.970000 0.051541 0
8.975000 0.067622 0
8.980000 0.085321 0
8.985000 0.104436 0
8.990000 0.124674 0
8.995000 0.145641 0
9.000000 0.166855 0
9.005000 0.187759 0
9.010000 0.207743 0
9.015000 0.226171 0
9.020000 0.242414 0
9.025000 0.255885 0
9.030000 0.266073 0
9.035000 0.272575 0
9.040000 0.275125 1
9.045000 0.273603 0
9.050000 0.268055 0
9.055000 0.258681 0
9.060000 0.245825 0
9.065000 0.229959 0
9.070000 0.211644 0
9.075000 0.191508 0
9.080000 0.170198 0
9.085000 0.148358 0
9.090000 0.126588 0
9.095000 0.105424 0
9.100000 0.085314 0
9.105000 0.066612 0
9.110000 0.049563 0
9.115000 0.034303 0
9.120000 0.020844 0
9.125000 0.009042 0
9.130000 -0.001463 0
9.135000 -0.011347 0
9.140000 -0.021712 0
9.145000 -0.034127 0
9.150000 -0.050479 0
9.155000 -0.072487 0
9.160000 -0.100862 0
9.165000 -0.134278 0
9.170000 -0.168568 0
9.175000 -0.196578 0
9.180000 -0.208860 2
9.185000 -0.194965 0
9.190000 -0.144892 0
9.195000 -0.050488 0
9.200000 0.092792 0
9.205000 0.283192 0
9.210000 0.509210 0
9.215000 0.747143 0
9.220000 0.962357 0
9.225000 1.116029 0
9.230000 1.176115 3
9.235000 1.128920 0
9.240000 0.982683 0
9.245000 0.764351 0
9.250000 0.510896 0
9.255000 0.258673 0
9.260000 0.035785 0
9.265000 -0.140641 0
9.270000 -0.263393 0
9.275000 -0.332788 0
9.280000 -0.354673 4
9.285000 -0.339020 0
9.290000 -0.298409 0
9.295000 -0.245915 0
9.300000 -0.192765 0
9.305000 -0.146598 0
9.310000 -0.110944 0
9.315000 -0.085921 0
9.320000 -0.069596 0
9.325000 -0.059338 0
9.330000 -0.052740 0
9.335000 -0.048015 0
9.340000 -0.044023 0
9.345000 -0.040108 0
9.350000 -0.035921 0
9.355000 -0.031271 0
9.360000 -0.026047 0
9.365000 -0.020167 0
9.370000 -0.013561 0
9.375000 -0.006164 0
9.380000 0.002085 0
9.385000 0.011242 0
9.390000 0.021357 0
9.395000 0.032473 0
9.400000 0.044621 0
9.405000 0.057823 0
9.410000 0.072082 0
9.415000 0.087387 0
9.420000 0.103709 0
9.425000 0.120995 0
9.430000 0.139175 0
9.435000 0.158154 0
9.440000 0.177814 0
9.445000 0.198015 0
9.450000 0.218593 0
9.455000 0.239367 0
9.460000 0.260135 0
9.465000 0.280679 0
9.470000 0.300769 0
9.475000 0.320169 0
9.480000 0.338634 0
9.485000 0.355925 0
9.490000 0.371805 0
9.495000 0.386050 0
9.500000 0.398452 0
9.505000 0.408822 0
9.510000 0.416999 0
9.515000 0.422851 0
9.520000 0.426276 0
9.525000 0.427212 5
9.530000 0.425630 0
9.535000 0.421542 0
9.540000 0.414997 0
9.545000 0.406078 0
9.550000 0.394908 0
9.555000 0.381637 0
9.560000 0.366446 0
9.565000 0.349539 0
9.570000 0.331139 0
9.575000 0.311485 0
9.580000 0.290823 0
9.585000 0.269404 0
9.590000 0.247479 0
9.595000 0.225290 0
9.600000 0.203070 0
9.605000 0.181039 0
9.610000 0.159398 0
9.615000 0.138328 0
9.620000 0.117988 0
9.625000 0.098513 0
9.630000 0.080015 0
9.635000 0.062581 0
9.640000 0.046276 0
9.645000 0.031141 0
9.650000 0.017198 0
9.655000 0.004447 0
9.660000 -0.007125 0
9.665000 -0.017548 0
9.670000 -0.026863 0
9.675000 -0.035124 0
9.680000 -0.042388 0
9.685000 -0.048722 0
9.690000 -0.054194 0
9.695000 -0.058875 0
9.700000 -0.062836 0
9.705000 -0.066145 0
9.710000 -0.068872 0
9.715000 -0.071081 0
9.720000 -0.072832 0
9.725000 -0.074183 0
9.730000 -0.075185 0
9.735000 -0.075886 0
9.740000 -0.076330 0
9.745000 -0.076553 0
9.750000 -0.076592 0
9.755000 -0.076474 0
9.760000 -0.076227 0
9.765000 -0.075873 0
9.770000 -0.075431 0
9.775000 -0.074917 0
9.780000 -0.074346 0
9.785000 -0.073728 0
9.790000 -0.073074 0
9.795000 -0.072392 0
9.800000 -0.071688 0
9.805000 -0.070967 0
9.810000 -0.070234 0
9.815000 -0.069492 0
9.820000 -0.068745 0
9.825000 -0.067990 0
9.830000 -0.067219 0
9.835000 -0.066452 0
9.840000 -0.065688 0
9.845000 -0.064929 0
9.850000 -0.064173 0
9.855000 -0.063421 0
9.860000 -0.062673 0
9.865000 -0.061928 0
9.870000 -0.061187 0
9.875000 -0.060450 0
9.880000 -0.059717 0
9.885000 -0.058987 0
9.890000 -0.058261 0
9.895000 -0.057539 0
9.900000 -0.056820 0
9.905000 -0.056104 0
9.910000 -0.055393 0
9.915000 -0.054684 0
9.920000 -0.053980 0
9.925000 -0.053279 0
9.930000 -0.052581 0
9.935000 -0.051887 0
9.940000 -0.051196 0
9.945000 -0.050509 0
9.950000 -0.049825 0
9.955000 -0.049145 0
9.960000 -0.048468 0
9.965000 -0.047794 0
9.970000 -0.047124 0
9.975000 -0.046457 0
9.980000 -0.045793 0
9.985000 -0.045133 0
9.990000 -0.044476 0
9.995000 -0.043822 0
10.000000 -0.043171 0
10.005000 -0.042524 0
10.010000 -0.041879 0
10.015000 -0.041237 0
10.020000 -0.040597 0
10.025000 -0.039960 0
10.030000 -0.039324 0
10.035000 -0.038687 0
10.040000 -0.038049 0
10.045000 -0.037406 0
10.050000 -0.036754 0
10.055000 -0.036088 0
10.060000 -0.035398 0
10.065000 -0.034674 0
10.070000 -0.033898 0
10.075000 -0.033049 0
10.080000 -0.032095 0
10.085000 -0.030997 0
10.090000 -0.029706 0
10.095000 -0.028155 0
10.100000 -0.026267 0
10.105000 -0.023944 0
10.110000 -0.021074 0
10.115000 -0.017526 0
10.120000 -0.013153 0
10.125000 -0.007797 0
10.130000 -0.001295 0
10.135000 0.006519 0
10.140000 0.015797 0
10.145000 0.026669 0
10.150000 0.039227 0
10.155000 0.053514 0
10.160000 0.069506 0
10.165000 0.087103 0
10.170000 0.106116 0
10.175000 0.126261 0
10.180000 0.147163 0
10.185000 0.168359 0
10.190000 0.189310 0
10.195000 0.209424 0
10.200000 0.228083 0
10.205000 0.244668 0
10.210000 0.258598 0
10.215000 0.269360 0
10.220000 0.276540 0
10.225000 0.279851 1
10.230000 0.279149 0
10.235000 0.274444 0
10.240000 0.265900 0
10.245000 0.253823 0
10.250000 0.238645 0
10.255000 0.220898 0
10.260000 0.201180 0
10.265000 0.180122 0
10.270000 0.158357 0
10.275000 0.136488 0
10.280000 0.115060 0
10.285000 0.094540 0
10.290000 0.075306 0
10.295000 0.057634 0
10.300000 0.041697 0
10.305000 0.027552 0
10.310000 0.015122 0
10.315000 0.004148 0
10.320000 -0.005893 0
10.325000 -0.015892 0
10.330000 -0.027193 0
10.335000 -0.041540 0
10.340000 -0.060771 0
10.345000 -0.086157 0
10.350000 -0.117468 0
10.355000 -0.152044 0
10.360000 -0.184307 0
10.365000 -0.206028 0
10.370000 -0.207325 2
10.375000 -0.178022 0
10.380000 -0.108996 0
10.385000 0.006404 0
10.390000 0.170334 0
10.395000 0.377461 0
10.400000 0.611784 0
10.405000 0.845425 0
10.410000 1.041852 0
10.415000 1.164237 0
10.420000 1.186481 3
10.425000 1.100086 0
10.430000 0.920644 0
10.435000 0.682307 0
10.440000 0.425199 0
10.445000 0.184467 0
10.450000 -0.015773 0
10.455000 -0.163124 0
10.460000 -0.254637 0
10.465000 -0.294248 4
10.470000 -0.290988 0
10.475000 -0.257410 0
10.480000 -0.207461 0
10.485000 -0.153854 0
10.490000 -0.105818 0
10.495000 -0.068114 0
10.500000 -0.041527 0
10.505000 -0.024298 0
10.510000 -0.013680 0
10.515000 -0.007064 0
10.520000 -0.002492 0
10.525000 0.001285 0
10.530000 0.004974 0
10.535000 0.008949 0
10.540000 0.013408 0
10.545000 0.018467 0
10.550000 0.024212 0
10.555000 0.030715 0
10.560000 0.038045 0
10.565000 0.046266 0
10.570000 0.055437 0
10.575000 0.065609 0
10.580000 0.076825 0
10.585000 0.089115 0
10.590000 0.102495 0
10.595000 0.116966 0
10.600000 0.132506 0
10.605000 0.149077 0
10.610000 0.166614 0
10.615000 0.185029 0
10.620000 0.204210 0
10.625000 0.224019 0
10.630000 0.244295 0
10.635000 0.264851 0
10.640000 0.285481 0
10.645000 0.305960 0
10.650000 0.326048 0
10.655000 0.345495 0
10.660000 0.364045 0
10.665000 0.381440 0
10.670000 0.397429 0
10.675000 0.411771 0
10.680000 0.424243 0
10.685000 0.434642 0
10.690000 0.442794 0
10.695000 0.448557 0
10.700000 0.451824 0
10.705000 0.452527 5
10.710000 0.450638 0
10.715000 0.446171 0
10.720000 0.439181 0
10.725000 0.429764 0
10.730000 0.418052 0
10.735000 0.404212 0
10.740000 0.388440 0
10.745000 0.370959 0
10.750000 0.352011 0
10.755000 0.331850 0
10.760000 0.310740 0
10.765000 0.288948 0
10.770000 0.266737 0
10.775000 0.244359 0
10.780000 0.222057 0
10.785000 0.200053 0
10.790000 0.178550 0
10.795000 0.157727 0
10.800000 0.137740 0
10.805000 0.118716 0
10.810000 0.100758 0
10.815000 0.083941 0
10.820000 0.068318 0
10.825000 0.053917 0
10.830000 0.040744 0
10.835000 0.028788 0
10.840000 0.018020 0
10.845000 0.008398 0
10.850000 -0.000131 0
10.855000 -0.007630 0
10.860000 -0.014167 0
10.865000 -0.019816 0
10.870000 -0.024650 0
10.875000 -0.028745 0
10.880000 -0.032175 0
10.885000 -0.035010 0
10.890000 -0.037320 0
10.895000 -0.039168 0
10.900000 -0.040613 0
10.905000 -0.041710 0
10.910000 -0.042507 0
10.915000 -0.043050 0
10.920000 -0.043377 0
10.925000 -0.043523 0
10.930000 -0.043518 0
10.935000 -0.043388 0
10.940000 -0.043156 0
10.945000 -0.042840 0
10.950000 -0.042457 0
10.955000 -0.042020 0
10.960000 -0.041541 0
10.965000 -0.041028 0
10.970000 -0.040489 0
10.975000 -0.039931 0
10.980000 -0.039357 0
10.985000 -0.038773 0
10.990000 -0.038180 0
10.995000 -0.037583 0
11.000000 -0.036967 0
11.005000 -0.036351 0
11.010000 -0.035738 0
11.015000 -0.035128 0
11.020000 -0.034521 0
11.025000 -0.033916 0
11.030000 -0.033315 0
11.035000 -0.032717 0
11.040000 -0.032122 0
11.045000 -0.031530 0
11.050000 -0.030941 0
11.055000 -0.030355 0
11.060000 -0.029771 0
11.065000 -0.029191 0
11.070000 -0.028613 0
11.075000 -0.028039 0
11.080000 -0.027467 0
11.085000 -0.026898 0
11.090000 -0.026332 0
11.095000 -0.025769 0
11.100000 -0.025208 0
11.105000 -0.024651 0
11.110000 -0.024096 0
11.115000 -0.023544 0
11.120000 -0.022994 0
11.125000 -0.022448 0
11.130000 -0.021904 0
11.135000 -0.021363 0
11.140000 -0.020824 0
11.145000 -0.020289 0
11.150000 -0.019755 0
11.155000 -0.019225 0
11.160000 -0.018697 0
11.165000 -0.018172 0
11.170000 -0.017649 0
11.175000 -0.017128 0
11.180000 -0.016610 0
11.185000 -0.016093 0
11.190000 -0.015578 0
11.195000 -0.015063 0
11.200000 -0.014548 0
11.205000 -0.014030 0
11.210000 -0.013506 0
11.215000 -0.012972 0
11.220000 -0.012422 0
11.225000 -0.011846 0
11.230000 -0.011232 0
11.235000 -0.010559 0
11.240000 -0.009804 0
11.245000 -0.008932 0
11.250000 -0.007898 0
11.255000 -0.006645 0
11.260000 -0.005099 0
11.265000 -0.003170 0
11.270000 -0.000749 0
11.275000 0.002291 0
11.280000 0.006097 0
11.285000 0.010831 0
11.290000 0.016664 0
11.295000 0.023773 0
11.300000 0.032325 0
11.305000 0.042471 0
11.310000 0.054325 0
11.315000 0.067954 0
11.320000 0.083357 0
11.325000 0.100452 0
11.330000 0.119065 0
11.335000 0.138920 0
11.340000 0.159639 0
11.345000 0.180744 0
11.350000 0.201677 0
11.355000 0.221816 0
11.360000 0.240505 0
11.365000 0.257087 0
11.370000 0.270944 0
11.375000 0.281533 0
11.380000 0.288418 0
11.385000 0.291304 1
11.390000 0.290052 0
11.395000 0.284692 0
11.400000 0.275421 0
11.405000 0.262590 0
11.410000 0.246681 0
11.415000 0.228277 0
11.420000 0.208024 0
11.425000 0.186596 0
11.430000 0.164657 0
11.435000 0.142827 0
11.440000 0.121652 0
11.445000 0.101591 0
11.450000 0.082997 0
11.455000 0.066111 0
11.460000 0.051054 0
11.465000 0.037817 0
11.470000 0.026214 0
11.475000 0.015817 0
11.480000 0.005837 0
11.485000 -0.004984 0
11.490000 -0.018380 0
11.495000 -0.036321 0
11.500000 -0.060389 0
11.505000 -0.090776 0
11.510000 -0.125216 0
11.515000 -0.158301 0
11.520000 -0.181640 0
11.525000 -0.184879 2
11.530000 -0.157206 0
11.535000 -0.088875 0
11.540000 0.027207 0
11.545000 0.193211 0
11.550000 0.403013 0
11.555000 0.638690 0
11.560000 0.869483 0
11.565000 1.056060 0
11.570000 1.160509 3
11.575000 1.158680 0
11.580000 1.046175 0
11.585000 0.845236 0
11.590000 0.596179 0
11.595000 0.341786 0
11.600000 0.116051 0
11.605000 -0.060395 0
11.610000 -0.179229 0
11.615000 -0.241335 0
11.620000 -0.254236 4
11.625000 -0.230241 0
11.630000 -0.184247 0
11.635000 -0.130774 0
11.640000 -0.081054 0
11.645000 -0.041400 0
11.650000 -0.013405 0
11.655000 0.004532 0
11.660000 0.015336 0
11.665000 0.021867 0
11.670000 0.026268 0
11.675000 0.029882 0
11.680000 0.033450 0
11.685000 0.037350 0
11.690000 0.041781 0
11.695000 0.046860 0
11.700000 0.052677 0
11.705000 0.059309 0
11.710000 0.066828 0
11.715000 0.075303 0
11.720000 0.084795 0
11.725000 0.095356 0
11.730000 0.107026 0
11.735000 0.119831 0
11.740000 0.133778 0
11.745000 0.148854 0
11.750000 0.165024 0
11.755000 0.182225 0
11.760000 0.200369 0
11.765000 0.219341 0
11.770000 0.238994 0
11.775000 0.259155 0
11.780000 0.279626 0
11.785000 0.300182 0
11.790000 0.320579 0
11.795000 0.340554 0
11.800000 0.359836 0
11.805000 0.378144 0
11.810000 0.395200 0
11.815000 0.410732 0
11.820000 0.424483 0
11.825000 0.436215 0
11.830000 0.445718 0
11.835000 0.452815 0
11.840000 0.457367 0
11.845000 0.459278 5
11.850000 0.458494 0
11.855000 0.455011 0
11.860000 0.448871 0
11.865000 0.440160 0
11.870000 0.429012 0
11.875000 0.415596 0
11.880000 0.400119 0
11.885000 0.382818 0
11.890000 0.363953 0
11.895000 0.343798 0
11.900000 0.322642 0
11.905000 0.300772 0
11.910000 0.278473 0
11.915000 0.256022 0
11.920000 0.233677 0
11.925000 0.211679 0
11.930000 0.190243 0
11.935000 0.169557 0
11.940000 0.149782 0
11.945000 0.131048 0
11.950000 0.113456 0
11.955000 0.097078 0
11.960000 0.081958 0
11.965000 0.068116 0
11.970000 0.055547 0
11.975000 0.044229 0
11.980000 0.034122 0
11.985000 0.025170 0
11.990000 0.017309 0
11.995000 0.010466 0
12.000000 0.004564 0
12.005000 -0.000480 0
12.010000 -0.004746 0
12.015000 -0.008314 0
12.020000 -0.011263 0
12.025000 -0.013665 0
12.030000 -0.015590 0
12.035000 -0.017102 0
12.040000 -0.018259 0
12.045000 -0.019114 0
12.050000 -0.019713 0
12.055000 -0.020097 0
12.060000 -0.020303 0
12.065000 -0.020361 0
12.070000 -0.020300 0
12.075000 -0.020140 0
12.080000 -0.019901 0
12.085000 -0.019599 0
12.090000 -0.019248 0
12.095000 -0.018858 0
12.100000 -0.018438 0
12.105000 -0.017995 0
12.110000 -0.017534 0
12.115000 -0.017061 0
12.120000 -0.016578 0
12.125000 -0.016089 0
12.130000 -0.015581 0
12.135000 -0.015071 0
12.140000 -0.014564 0
12.145000 -0.014059 0
12.150000 -0.013557 0
12.155000 -0.013058 0
12.160000 -0.012561 0
12.165000 -0.012066 0
12.170000 -0.011574 0
12.175000 -0.011084 0
12.180000 -0.010597 0
12.185000 -0.010112 0
12.190000 -0.009630 0
12.195000 -0.009150 0
12.200000 -0.008673 0
12.205000 -0.008197 0
12.210000 -0.007725 0
12.215000 -0.007254 0
12.220000 -0.006786 0
12.225000 -0.006320 0
12.230000 -0.005857 0
12.235000 -0.005396 0
12.240000 -0.004937 0
12.245000 -0.004480 0
12.250000 -0.004026 0
12.255000 -0.003574 0
12.260000 -0.003124 0
12.265000 -0.002677 0
12.270000 -0.002232 0
12.275000 -0.001788 0
12.280000 -0.001348 0
12.285000 -0.000909 0
12.290000 -0.000472 0
12.295000 -0.000037 0
12.300000 0.000395 0
12.305000 0.000827 0
12.310000 0.001257 0
12.315000 0.001686 0
12.320000 0.002117 0
12.325000 0.002549 0
12.330000 0.002987 0
12.335000 0.003434 0
12.340000 0.003897 0
12.345000 0.004384 0
12.350000 0.004910 0
12.355000 0.005493 0
12.360000 0.006160 0
12.365000 0.006946 0
12.370000 0.007901 0
12.375000 0.009087 0
12.380000 0.010584 0
12.385000 0.012493 0
12.390000 0.014934 0
12.395000 0.018050 0
12.400000 0.022004 0
12.405000 0.026975 0
12.410000 0.033154 0
12.415000 0.040728 0
12.420000 0.049877 0
12.425000 0.060748 0
12.430000 0.073445 0
12.435000 0.088004 0
12.440000 0.104377 0
12.445000 0.122419 0
12.450000 0.141868 0
12.455000 0.162348 0
12.460000 0.183371 0
12.465000 0.204348 0
12.470000 0.224613 0
12.475000 0.243457 0
12.480000 0.260164 0
12.485000 0.274058 0
12.490000 0.284546 0
12.495000 0.291158 0
12.500000 0.293583 1
12.505000 0.291689 0
12.510000 0.285536 0
12.515000 0.275370 0
12.520000 0.261609 0
12.525000 0.244809 0
12.530000 0.225631 0
12.535000 0.204792 0
12.540000 0.183024 0
12.545000 0.161031 0
12.550000 0.139451 0
12.555000 0.118829 0
12.560000 0.099597 0
12.565000 0.082066 0
12.570000 0.066413 0
12.575000 0.052670 0
12.580000 0.040692 0
12.585000 0.030074 0
12.590000 0.020030 0
12.595000 0.009261 0
12.600000 -0.004081 0
12.605000 -0.022133 0
12.610000 -0.046595 0
12.615000 -0.077563 0
12.620000 -0.112273 0
12.625000 -0.144383 0
12.630000 -0.164304 2
12.635000 -0.160537 0
12.640000 -0.121487 0
12.645000 -0.037247 0
12.650000 0.098356 0
12.655000 0.284620 0
12.660000 0.509701 0
12.665000 0.747339 0
12.670000 0.958346 0
12.675000 1.099328 0
12.680000 1.136705 3
12.685000 1.059575 0
12.690000 0.883895 0
12.695000 0.645964 0
12.700000 0.389151 0
12.705000 0.151116 0
12.710000 -0.043046 0
12.715000 -0.181263 0
12.720000 -0.261684 0
12.725000 -0.289815 4
12.730000 -0.276531 0
12.735000 -0.236117 0
12.740000 -0.183541 0
12.745000 -0.131393 0
12.750000 -0.087717 0
12.755000 -0.055592 0
12.760000 -0.034307 0
12.765000 -0.021208 0
12.770000 -0.013306 0
12.775000 -0.008185 0
12.780000 -0.004240 0
12.785000 -0.000550 0
12.790000 0.003367 0
12.795000 0.007756 0
12.800000 0.012754 0
12.805000 0.018459 0
12.810000 0.024949 0
12.815000 0.032300 0
12.820000 0.040580 0
12.825000 0.049854 0
12.830000 0.060176 0
12.835000 0.071593 0
12.840000 0.084135 0
12.845000 0.097816 0
12.850000 0.112631 0
12.855000 0.128553 0
12.860000 0.145531 0
12.865000 0.163486 0
12.870000 0.182313 0
12.875000 0.201878 0
12.880000 0.222017 0
12.885000 0.242543 0
12.890000 0.263241 0
12.895000 0.283874 0
12.900000 0.304186 0
12.905000 0.323910 0
12.910000 0.342769 0
12.915000 0.360483 0
12.920000 0.376778 0
12.925000 0.391390 0
12.930000 0.404075 0
12.935000 0.414612 0
12.940000 0.422810 0
12.945000 0.428515 0
12.950000 0.431614 0
12.955000 0.432037 5
12.960000 0.429759 0
12.965000 0.424805 0
12.970000 0.417244 0
12.975000 0.407189 0
12.980000 0.394796 0
12.985000 0.380257 0
12.990000 0.363797 0
12.995000 0.345665 0
13.000000 0.326133 0
13.005000 0.305481 0
13.010000 0.283999 0
13.015000 0.261971 0
13.020000 0.239679 0
13.025000 0.217388 0
13.030000 0.195345 0
13.035000 0.173777 0
13.040000 0.152883 0
13.045000 0.132834 0
13.050000 0.113773 0
13.055000 0.095814 0
13.060000 0.079040 0
13.065000 0.063505 0
13.070000 0.049242 0
13.075000 0.036254 0
13.080000 0.024526 0
13.085000 0.014026 0
13.090000 0.004705 0
13.095000 -0.003498 0
13.100000 -0.010653 0
13.105000 -0.016835 0
13.110000 -0.022125 0
13.115000 -0.026602 0
13.120000 -0.030349 0
13.125000 -0.033444 0
13.130000 -0.035961 0
13.135000 -0.037973 0
13.140000 -0.039546 0
13.145000 -0.040739 0
13.150000 -0.041608 0
13.155000 -0.042202 0
13.160000 -0.042564 0
13.165000 -0.042734 0
13.170000 -0.042743 0
13.175000 -0.042621 0
13.180000 -0.042392 0
13.185000 -0.042076 0
13.190000 -0.041692 0
13.195000 -0.041252 0
13.200000 -0.040770 0
13.205000 -0.040254 0
13.210000 -0.039713 0
13.215000 -0.039152 0
13.220000 -0.038578 0
13.225000 -0.037993 0
13.230000 -0.037401 0
13.235000 -0.036801 0
13.240000 -0.036186 0
13.245000 -0.035573 0
13.250000 -0.034964 0
13.255000 -0.034358 0
13.260000 -0.033754 0
13.265000 -0.033154 0
13.270000 -0.032557 0
13.275000 -0.031962 0
13.280000 -0.031371 0
13.285000 -0.030783 0
13.290000 -0.030197 0
13.295000 -0.029615 0
13.300000 -0.029035 0
13.305000 -0.028458 0
13.310000 -0.027885 0
13.315000 -0.027314 0
13.320000 -0.026745 0
13.325000 -0.026180 0
13.330000 -0.025618 0
13.335000 -0.025058 0
13.340000 -0.024501 0
13.345000 -0.023947 0
13.350000 -0.023396 0
13.355000 -0.022847 0
13.360000 -0.022301 0
13.365000 -0.021758 0
13.370000 -0.021218 0
13.375000 -0.020680 0
13.380000 -0.020145 0
13.385000 -0.019612 0
13.390000 -0.019082 0
13.395000 -0.018555 0
13.400000 -0.018030 0
13.405000 -0.017508 0
13.410000 -0.016988 0
13.415000 -0.016469 0
13.420000 -0.015952 0
13.425000 -0.015436 0
13.430000 -0.014918 0
13.435000 -0.014397 0
13.440000 -0.013870 0
13.445000 -0.013331 0
13.450000 -0.012774 0
13.455000 -0.012186 0
13.460000 -0.011552 0
13.465000 -0.010850 0
13.470000 -0.010049 0
13.475000 -0.009107 0
13.480000 -0.007971 0
13.485000 -0.006569 0
13.490000 -0.004813 0
13.495000 -0.002592 0
13.500000 0.000223 0
13.505000 0.003785 0
13.510000 0.008264 0
13.515000 0.013846 0
13.520000 0.020719 0
13.525000 0.029071 0
13.530000 0.039066 0
13.535000 0.050835 0
13.540000 0.064452 0
13.545000 0.079919 0
13.550000 0.097144 0
13.555000 0.115932 0
13.560000 0.135972 0
13.565000 0.156836 0
13.570000 0.177990 0
13.575000 0.198810 0
13.580000 0.218608 0
13.585000 0.236668 0
13.590000 0.252289 0
13.595000 0.264826 0
13.600000 0.273739 0
13.605000 0.278624 0
13.610000 0.279245 1
13.615000 0.275556 0
13.620000 0.267696 0
13.625000 0.255990 0
13.630000 0.240917 0
13.635000 0.223081 0
13.640000 0.203173 0
13.645000 0.181918 0
13.650000 0.160040 0
13.655000 0.138217 0
13.660000 0.117049 0
13.665000 0.097033 0
13.670000 0.078552 0
13.675000 0.061860 0
13.680000 0.047075 0
13.685000 0.034164 0
13.690000 0.022883 0
13.695000 0.012690 0
13.700000 0.002604 0
13.705000 -0.008905 0
13.710000 -0.023853 0
13.715000 -0.044309 0
13.720000 -0.071476 0
13.725000 -0.104425 0
13.730000 -0.138987 0
13.735000 -0.167424 0
13.740000 -0.179200 2
13.745000 -0.162587 0
13.750000 -0.106482 0
13.755000 -0.002200 0
13.760000 0.154147 0
13.765000 0.357982 0
13.770000 0.592026 0
13.775000 0.824451 0
13.780000 1.013088 0
13.785000 1.116706 3
13.790000 1.109407 0
13.795000 0.993984 0
13.800000 0.794554 0
13.805000 0.547557 0
13.810000 0.292032 0
13.815000 0.060039 0
13.820000 -0.127730 0
13.825000 -0.261611 0
13.830000 -0.340498 0
13.835000 -0.369526 4
13.840000 -0.358465 0
13.845000 -0.320139 0
13.850000 -0.268228 0
13.855000 -0.214717 0
13.860000 -0.167904 0
13.865000 -0.131718 0
13.870000 -0.106408 0
13.875000 -0.089993 0
13.880000 -0.079737 0
13.885000 -0.073147 0
13.890000 -0.068393 0
13.895000 -0.064323 0
13.900000 -0.060288 0
13.905000 -0.055947 0
13.910000 -0.051115 0
13.915000 -0.045682 0
13.920000 -0.039566 0
13.925000 -0.032695 0
13.930000 -0.025003 0
13.935000 -0.016427 0
13.940000 -0.006909 0
13.945000 0.003601 0
13.950000 0.015144 0
13.955000 0.027750 0
13.960000 0.041435 0
13.965000 0.056198 0
13.970000 0.072021 0
13.975000 0.088864 0
13.980000 0.106664 0
13.985000 0.125337 0
13.990000 0.144773 0
13.995000 0.164838 0
14.000000 0.185375 0
14.005000 0.206202 0
14.010000 0.227118 0
14.015000 0.247903 0
14.020000 0.268324 0
14.025000 0.288134 0
14.030000 0.307082 0
14.035000 0.324917 0
14.040000 0.341389 0
14.045000 0.356260 0
14.050000 0.369309 0
14.055000 0.380331 0
14.060000 0.389153 0
14.065000 0.395627 0
14.070000 0.399642 0
14.075000 0.401124 5
14.080000 0.400037 0
14.085000 0.396388 0
14.090000 0.390221 0
14.095000 0.381622 0
14.100000 0.370712 0
14.105000 0.357647 0
14.110000 0.342614 0
14.115000 0.325825 0
14.120000 0.307512 0
14.125000 0.287925 0
14.130000 0.267319 0
14.135000 0.245958 0
14.140000 0.224099 0
14.145000 0.201997 0
14.150000 0.179892 0
14.155000 0.158010 0
14.160000 0.136558 0
14.165000 0.115720 0
14.170000 0.095656 0
14.175000 0.076503 0
14.180000 0.058370 0
14.185000 0.041342 0
14.190000 0.025480 0
14.195000 0.010819 0
14.200000 -0.002625 0
14.205000 -0.014857 0
14.210000 -0.025897 0
14.215000 -0.035782 0
14.220000 -0.044559 0
14.225000 -0.052287 0
14.230000 -0.059030 0
14.235000 -0.064858 0
14.240000 -0.069843 0
14.245000 -0.074061 0
14.250000 -0.077583 0
14.255000 -0.080481 0
14.260000 -0.082825 0
14.265000 -0.084678 0
14.270000 -0.086103 0
14.275000 -0.087155 0
14.280000 -0.087884 0
14.285000 -0.088338 0
14.290000 -0.088558 0
14.295000 -0.088580 0
14.300000 -0.088436 0
14.305000 -0.088154 0
14.310000 -0.087760 0
14.315000 -0.087272 0
14.320000 -0.086709 0
14.325000 -0.086086 0
14.330000 -0.085414 0
14.335000 -0.084705 0
14.340000 -0.083967 0
14.345000 -0.083206 0
14.350000 -0.082428 0
14.355000 -0.081638 0
14.360000 -0.080839 0
14.365000 -0.080034 0
14.370000 -0.079223 0
14.375000 -0.078396 0
14.380000 -0.077573 0
14.385000 -0.076754 0
14.390000 -0.075939 0
14.395000 -0.075129 0
14.400000 -0.074322 0
14.405000 -0.073520 0
14.410000 -0.072721 0
14.415000 -0.071926 0
14.420000 -0.071136 0
14.425000 -0.070349 0
14.430000 -0.069566 0
14.435000 -0.068787 0
14.440000 -0.068012 0
14.445000 -0.067241 0
14.450000 -0.066474 0
14.455000 -0.065711 0
14.460000 -0.064951 0
14.465000 -0.064195 0
14.470000 -0.063443 0
14.475000 -0.062695 0
14.480000 -0.061950 0
14.485000 -0.061209 0
14.490000 -0.060472 0
14.495000 -0.059738 0
14.500000 -0.059008 0
14.505000 -0.058282 0
14.510000 -0.057560 0
14.515000 -0.056841 0
14.520000 -0.056125 0
14.525000 -0.055413 0
14.530000 -0.054705 0
14.535000 -0.054000 0
14.540000 -0.053299 0
14.545000 -0.052601 0
14.550000 -0.051906 0
14.555000 -0.051214 0
14.560000 -0.050525 0
14.565000 -0.049838 0
14.570000 -0.049153 0
14.575000 -0.048467 0
14.580000 -0.047781 0
14.585000 -0.047090 0
14.590000 -0.046390 0
14.595000 -0.045676 0
14.600000 -0.044938 0
14.605000 -0.044164 0
14.610000 -0.043337 0
14.615000 -0.042433 0
14.620000 -0.041419 0
14.625000 -0.040254 0
14.630000 -0.038882 0
14.635000 -0.037235 0
14.640000 -0.035227 0
14.645000 -0.032755 0
14.650000 -0.029696 0
14.655000 -0.025911 0
14.660000 -0.021244 0
14.665000 -0.015527 0
14.670000 -0.008587 0
14.675000 -0.000257 0
14.680000 0.009616 0
14.685000 0.021156 0
14.690000 0.034442 0
14.695000 0.049493 0
14.700000 0.066253 0
14.705000 0.084577 0
14.710000 0.104226 0
14.715000 0.124858 0
14.720000 0.146034 0
14.725000 0.167230 0
14.730000 0.187853 0
14.735000 0.207265 0
14.740000 0.224818 0
14.745000 0.239886 0
14.750000 0.251904 0
14.755000 0.260401 0
14.760000 0.265030 0
14.765000 0.265591 1
14.770000 0.262046 0
14.775000 0.254523 0
14.780000 0.243305 0
14.785000 0.228812 0
14.790000 0.211578 0
14.795000 0.192215 0
14.800000 0.171379 0
14.805000 0.149729 0
14.810000 0.127900 0
14.815000 0.106466 0
14.820000 0.085923 0
14.825000 0.066671 0
14.830000 0.049003 0
14.835000 0.033102 0
14.840000 0.019027 0
14.845000 0.006697 0
14.850000 -0.004167 0
14.855000 -0.014131 0
14.860000 -0.024159 0
14.865000 -0.035696 0
14.870000 -0.050596 0
14.875000 -0.070735 0
14.880000 -0.097253 0
14.885000 -0.129505 0
14.890000 -0.164118 0
14.895000 -0.194609 0
14.900000 -0.211865 2
14.905000 -0.205373 0
14.910000 -0.164706 0
14.915000 -0.080983 0
14.920000 0.051465 0
14.925000 0.232541 0
14.930000 0.452902 0
14.935000 0.690983 0
14.940000 0.913326 0
14.945000 1.080454 0
14.950000 1.157694 3
14.955000 1.129819 0
14.960000 1.001946 0
14.965000 0.796769 0
14.970000 0.548462 0
14.975000 0.292818 0
14.980000 0.059291 0
14.985000 -0.132685 0
14.990000 -0.273499 0
14.995000 -0.361310 0
15.000000 -0.400000 4
15.005000 -0.397768 0
15.010000 -0.365860 0
15.015000 -0.316866 0
15.020000 -0.262580 0
15.025000 -0.212061 0
15.030000 -0.170591 0
15.035000 -0.139810 0
15.040000 -0.118739 0
15.045000 -0.105086 0
15.050000 -0.096345 0
15.055000 -0.090427 0
15.060000 -0.085867 0
15.065000 -0.081760 0
15.070000 -0.077595 0
15.075000 -0.073097 0
15.080000 -0.068114 0
15.085000 -0.062549 0
15.090000 -0.056326 0
15.095000 -0.049383 0
15.100000 -0.041656 0
15.105000 -0.033090 0
15.110000 -0.023630 0
15.115000 -0.013229 0
15.120000 -0.001848 0
15.125000 0.010542 0
15.130000 0.023960 0
15.135000 0.038409 0
15.140000 0.053879 0
15.145000 0.070340 0
15.150000 0.087745 0
15.155000 0.106026 0
15.160000 0.125092 0
15.165000 0.144835 0
15.170000 0.165122 0
15.175000 0.185801 0
15.180000 0.206699 0
15.185000 0.227627 0
15.190000 0.248380 0
15.195000 0.268742 0
15.200000 0.288485 0
15.205000 0.307379 0
15.210000 0.325194 0
15.215000 0.341700 0
15.220000 0.356681 0
15.225000 0.369930 0
15.230000 0.381260 0
15.235000 0.390506 0
15.240000 0.397530 0
15.245000 0.402221 0
15.250000 0.404503 5
15.255000 0.404331 0
15.260000 0.401699 0
15.265000 0.396632 0
15.270000 0.389193 0
15.275000 0.379480 0
15.280000 0.367618 0
15.285000 0.353764 0
15.290000 0.338099 0
15.295000 0.320825 0
15.300000 0.302161 0
15.305000 0.282337 0
15.310000 0.261591 0
15.315000 0.240164 0
15.320000 0.218292 0
15.325000 0.196207 0
15.330000 0.174130 0
15.335000 0.152269 0
15.340000 0.130812 0
15.345000 0.109930 0
15.350000 0.089775 0
15.355000 0.070473 0
15.360000 0.052131 0
15.365000 0.034832 0
15.370000 0.018636 0
15.375000 0.003585 0
15.380000 -0.010302 0
15.385000 -0.023020 0
15.390000 -0.034583 0
15.395000 -0.045018 0
15.400000 -0.054363 0
15.405000 -0.062667 0
15.410000 -0.069985 0
15.415000 -0.076379 0
15.420000 -0.081915 0
15.425000 -0.086658 0
15.430000 -0.090678 0
15.435000 -0.094041 0
15.440000 -0.096814 0
15.445000 -0.099058 0
15.450000 -0.100834 0
15.455000 -0.102198 0
15.460000 -0.103200 0
15.465000 -0.103889 0
15.470000 -0.104308 0
15.475000 -0.104496 0
15.480000 -0.104486 0
15.485000 -0.104310 0
15.490000 -0.103994 0
15.495000 -0.103562 0
15.500000 -0.103034 0
15.505000 -0.102427 0
15.510000 -0.101756 0
15.515000 -0.101034 0
15.520000 -0.100270 0
15.525000 -0.099474 0
15.530000 -0.098653 0
15.535000 -0.097813 0
15.540000 -0.096958 0
15.545000 -0.096092 0
15.550000 -0.095220 0
15.555000 -0.094343 0
15.560000 -0.093460 0
15.565000 -0.092562 0
15.570000 -0.091668 0
15.575000 -0.090779 0
15.580000 -0.089894 0
15.585000 -0.089014 0
15.590000 -0.088138 0
15.595000 -0.087267 0
15.600000 -0.086399 0
15.605000 -0.085537 0
15.610000 -0.084678 0
15.615000 -0.083824 0
15.620000 -0.082974 0
15.625000 -0.082128 0
15.630000 -0.081287 0
15.635000 -0.080449 0
15.640000 -0.079616 0
15.645000 -0.078787 0
15.650000 -0.077962 0
15.655000 -0.077141 0
15.660000 -0.076325 0
15.665000 -0.075512 0
15.670000 -0.074704 0
15.675000 -0.073899 0
15.680000 -0.073099 0
15.685000 -0.072302 0
15.690000 -0.071510 0
15.695000 -0.070721 0
15.700000 -0.069936 0
15.705000 -0.069156 0
15.710000 -0.068379 0
15.715000 -0.067606 0
15.720000 -0.066837 0
15.725000 -0.066071 0
15.730000 -0.065310 0
15.735000 -0.064552 0
15.740000 -0.063798 0
15.745000 -0.063047 0
15.750000 -0.062300 0
15.755000 -0.061556 0
15.760000 -0.060815 0
15.765000 -0.060077 0
15.770000 -0.059339 0
15.775000 -0.058602 0
15.780000 -0.057864 0
15.785000 -0.057121 0
15.790000 -0.056369 0
15.795000 -0.055603 0
15.800000 -0.054815 0
15.805000 -0.053992 0
15.810000 -0.053119 0
15.815000 -0.052174 0
15.820000 -0.051129 0
15.825000 -0.049946 0
15.830000 -0.048576 0
15.835000 -0.046961 0
15.840000 -0.045025 0
15.845000 -0.042679 0
15.850000 -0.039816 0
15.855000 -0.036314 0
15.860000 -0.032036 0
15.865000 -0.026834 0
15.870000 -0.020549 0
15.875000 -0.013026 0
15.880000 -0.004114 0
15.885000 0.006320 0
15.890000 0.018375 0
15.895000 0.032111 0
15.900000 0.047530 0
15.905000 0.064565 0
15.910000 0.083071 0
15.915000 0.102815 0
15.920000 0.123480 0
15.925000 0.144659 0
15.930000 0.165872 0
15.935000 0.186578 0
15.940000 0.206195 0
15.945000 0.224127 0
15.950000 0.239795 0
15.955000 0.252665 0
15.960000 0.262278 0
15.965000 0.268278 0
15.970000 0.270435 1
15.975000 0.268654 0
15.980000 0.262987 0
15.985000 0.253628 0
15.990000 0.240901 0
15.995000 0.225241 0
16.000000 0.207170 0
16.005000 0.187270 0
16.010000 0.166146 0
16.015000 0.144402 0
16.020000 0.122609 0
16.025000 0.101283 0
16.030000 0.080866 0
16.035000 0.061716 0
16.040000 0.044097 0
16.045000 0.028172 0
16.050000 0.014002 0
16.055000 0.001520 0
16.060000 -0.009505 0
16.065000 -0.019544 0
16.070000 -0.029400 0
16.075000 -0.040295 0
16.080000 -0.053845 0
16.085000 -0.071831 0
16.090000 -0.095655 0
16.095000 -0.125520 0
16.100000 -0.159547 0
16.105000 -0.193183 0
16.110000 -0.219242 0
16.115000 -0.228646 2
16.120000 -0.211609 0
16.125000 -0.158891 0
16.130000 -0.063029 0
16.135000 0.080106 0
16.140000 0.268924 0
16.145000 0.493095 0
16.150000 0.731301 0
16.155000 0.952012 0
16.160000 1.118873 0
16.165000 1.200000 3
16.170000 1.176443 0
16.175000 1.050545 0
16.180000 0.845445 0
16.185000 0.596566 0
16.190000 0.341010 0
16.195000 0.109045 0
16.200000 -0.079712 0
16.205000 -0.215933 0
16.210000 -0.298315 0
16.215000 -0.331449 4
16.220000 -0.324339 0
16.225000 -0.288998 0
16.230000 -0.238517 0
16.235000 -0.184736 0
16.240000 -0.136293 0
16.245000 -0.097763 0
16.250000 -0.070062 0
16.255000 -0.051685 0
16.260000 -0.040095 0
16.265000 -0.032775 0
16.270000 -0.027763 0
16.275000 -0.023750 0
16.280000 -0.019967 0
16.285000 -0.015992 0
16.290000 -0.011602 0
16.295000 -0.006668 0
16.300000 -0.001102 0
16.305000 0.005167 0
16.310000 0.012204 0
16.315000 0.020072 0
16.320000 0.028828 0
16.325000 0.038524 0
16.330000 0.049205 0
16.335000 0.060907 0
16.340000 0.073653 0
16.345000 0.087453 0
16.350000 0.102303 0
16.355000 0.118177 0
16.360000 0.135035 0
16.365000 0.152810 0
16.370000 0.171417 0
16.375000 0.190748 0
16.380000 0.210671 0
16.385000 0.231032 0
16.390000 0.251657 0
16.395000 0.272352 0
16.400000 0.292906 0
16.405000 0.313096 0
16.410000 0.332688 0
16.415000 0.351442 0
16.420000 0.369117 0
16.425000 0.385478 0
16.430000 0.400295 0
16.435000 0.413355 0
16.440000 0.424462 0
16.445000 0.433446 0
16.450000 0.440162 0
16.455000 0.444497 0
16.460000 0.446372 5
16.465000 0.445746 0
16.470000 0.442614 0
16.475000 0.437007 0
16.480000 0.428996 0
16.485000 0.418685 0
16.490000 0.406212 0
16.495000 0.391744 0
16.500000 0.375475 0
16.505000 0.357618 0
16.510000 0.338405 0
16.515000 0.318077 0
16.520000 0.296882 0
16.525000 0.275070 0
16.530000 0.252885 0
16.535000 0.230565 0
16.540000 0.208334 0
16.545000 0.186401 0
16.550000 0.164956 0
16.555000 0.144165 0
16.560000 0.124177 0
16.565000 0.105112 0
16.570000 0.087070 0
16.575000 0.070124 0
16.580000 0.054328 0
16.585000 0.039712 0
16.590000 0.026287 0
16.595000 0.014047 0
16.600000 0.002969 0
16.605000 -0.006982 0
16.610000 -0.015854 0
16.615000 -0.023701 0
16.620000 -0.030586 0
16.625000 -0.036575 0
16.630000 -0.041738 0
16.635000 -0.046145 0
16.640000 -0.049867 0
16.645000 -0.052971 0
16.650000 -0.055524 0
16.655000 -0.057589 0
16.660000 -0.059223 0
16.665000 -0.060482 0
16.670000 -0.061415 0
16.675000 -0.062067 0
16.680000 -0.062480 0
16.685000 -0.062688 0
16.690000 -0.062725 0
16.695000 -0.062618 0
16.700000 -0.062391 0
16.705000 -0.062066 0
16.710000 -0.061660 0
16.715000 -0.061188 0
16.720000 -0.060664 0
16.725000 -0.060097 0
16.730000 -0.059498 0
16.735000 -0.058872 0
16.740000 -0.058227 0
16.745000 -0.057566 0
16.750000 -0.056895 0
16.755000 -0.056216 0
16.760000 -0.055531 0
16.765000 -0.054840 0
16.770000 -0.054135 0
16.775000 -0.053433 0
16.780000 -0.052735 0
16.785000 -0.052040 0
16.790000 -0.051348 0
16.795000 -0.050660 0
16.800000 -0.049976 0
16.805000 -0.049294 0
16.810000 -0.048617 0
16.815000 -0.047942 0
16.820000 -0.047271 0
16.825000 -0.046604 0
16.830000 -0.045939 0
16.835000 -0.045278 0
16.840000 -0.044620 0
16.845000 -0.043966 0
16.850000 -0.043315 0
16.855000 -0.042667 0
16.860000 -0.042022 0
16.865000 -0.041381 0
16.870000 -0.040742 0
16.875000 -0.040107 0
16.880000 -0.039475 0
16.885000 -0.038846 0
16.890000 -0.038221 0
16.895000 -0.037598 0
16.900000 -0.036979 0
16.905000 -0.036362 0
16.910000 -0.035749 0
16.915000 -0.035139 0
16.920000 -0.034532 0
16.925000 -0.033928 0
16.930000 -0.033326 0
16.935000 -0.032728 0
16.940000 -0.032133 0
16.945000 -0.031540 0
16.950000 -0.030950 0
16.955000 -0.030362 0
16.960000 -0.029777 0
16.965000 -0.029193 0
16.970000 -0.028610 0
16.975000 -0.028026 0
16.980000 -0.027439 0
16.985000 -0.026846 0
16.990000 -0.026244 0
16.995000 -0.025625 0
17.000000 -0.024980 0
17.005000 -0.024297 0
17.010000 -0.023558 0
17.015000 -0.022739 0
17.020000 -0.021809 0
17.025000 -0.020725 0
17.030000 -0.019436 0
17.035000 -0.017873 0
17.040000 -0.015955 0
17.045000 -0.013584 0
17.050000 -0.010642 0
17.055000 -0.006997 0
17.060000 -0.002501 0
17.065000 0.003004 0
17.070000 0.009684 0
17.075000 0.017698 0
17.080000 0.027197 0
17.085000 0.038303 0
17.090000 0.051101 0
17.095000 0.065623 0
17.100000 0.081834 0
17.105000 0.099621 0
17.110000 0.118781 0
17.115000 0.139018 0
17.120000 0.159947 0
17.125000 0.181093 0
17.130000 0.201914 0
17.135000 0.221817 0
17.140000 0.240185 0
17.145000 0.256406 0
17.150000 0.269909 0
17.155000 0.280197 0
17.160000 0.286874 0
17.165000 0.289669 1
17.170000 0.288457 0
17.175000 0.283267 0
17.180000 0.274278 0
17.185000 0.261808 0
17.190000 0.246299 0
17.195000 0.228285 0
17.200000 0.208367 0
17.205000 0.187174 0
17.210000 0.165332 0
17.215000 0.143436 0
17.220000 0.122021 0
17.225000 0.101546 0
17.230000 0.082377 0
17.235000 0.064783 0
17.240000 0.048925 0
17.245000 0.034854 0
17.250000 0.022482 0
17.255000 0.011540 0
17.260000 0.001489 0
17.265000 -0.008580 0
17.270000 -0.020023 0
17.275000 -0.034588 0
17.280000 -0.054092 0
17.285000 -0.079757 0
17.290000 -0.111279 0
17.295000 -0.145920 0
17.300000 -0.178049 0
17.305000 -0.199427 0
17.310000 -0.200214 2
17.315000 -0.170310 0
17.320000 -0.100681 0
17.325000 0.015230 0
17.330000 0.179502 0
17.335000 0.386767 0
17.340000 0.621073 0
17.345000 0.854711 0
17.350000 1.051394 0
17.355000 1.174503 0
17.360000 1.197970 3
17.365000 1.110936 0
17.370000 0.928889 0
17.375000 0.688231 0
17.380000 0.431232 0
17.385000 0.194109 0
17.390000 0.000840 0
17.395000 -0.137080 0
17.400000 -0.217938 0
17.405000 -0.247081 4
17.410000 -0.235039 0
17.415000 -0.195673 0
17.420000 -0.143612 0
17.425000 -0.091326 0
17.430000 -0.046993 0
17.435000 -0.013979 0
17.440000 0.008143 0
17.445000 0.021843 0
17.450000 0.030058 0
17.455000 0.035246 0
17.460000 0.039081 0
17.465000 0.042552 0
17.470000 0.046184 0
17.475000 0.050248 0
17.480000 0.054892 0
17.485000 0.060214 0
17.490000 0.066295 0
17.495000 0.073208 0
17.500000 0.081023 0
17.505000 0.089802 0
17.510000 0.099602 0
17.515000 0.110471 0
17.520000 0.122442 0
17.525000 0.135536 0
17.530000 0.149753 0
17.535000 0.165076 0
17.540000 0.181461 0
17.545000 0.198843 0
17.550000 0.217129 0
17.555000 0.236199 0
17.560000 0.255907 0
17.565000 0.276078 0
17.570000 0.296514 0
17.575000 0.316994 0
17.580000 0.337277 0
17.585000 0.357107 0
17.590000 0.376217 0
17.595000 0.394337 0
17.600000 0.411194 0
17.605000 0.426528 0
17.610000 0.440087 0
17.615000 0.451644 0
17.620000 0.460996 0
17.625000 0.467972 0
17.630000 0.472438 0
17.635000 0.474300 5
17.640000 0.473507 0
17.645000 0.470053 0
17.650000 0.463978 0
17.655000 0.455364 0
17.660000 0.444336 0
17.665000 0.431057 0
17.670000 0.415727 0
17.675000 0.398571 0
17.680000 0.379839 0
17.685000 0.359798 0
17.690000 0.338726 0
17.695000 0.316903 0
17.700000 0.294607 0
17.705000 0.272108 0
17.710000 0.249662 0
17.715000 0.227507 0
17.720000 0.205859 0
17.725000 0.184906 0
17.730000 0.164812 0
17.735000 0.145712 0
17.740000 0.127713 0
17.745000 0.110892 0
17.750000 0.095301 0
17.755000 0.080967 0
17.760000 0.067894 0
17.765000 0.056066 0
17.770000 0.045448 0
17.775000 0.035994 0
17.780000 0.027644 0
17.785000 0.020329 0
17.790000 0.013977 0
17.795000 0.008509 0
17.800000 0.003846 0
17.805000 -0.000090 0
17.810000 -0.003377 0
17.815000 -0.006088 0
17.820000 -0.008294 0
17.825000 -0.010057 0
17.830000 -0.011440 0
17.835000 -0.012495 0
17.840000 -0.013271 0
17.845000 -0.013812 0
17.850000 -0.014155 0
17.855000 -0.014334 0
17.860000 -0.014378 0
17.865000 -0.014311 0
17.870000 -0.014153 0
17.875000 -0.013924 0
17.880000 -0.013636 0
17.885000 -0.013302 0
17.890000 -0.012932 0
17.895000 -0.012535 0
17.900000 -0.012116 0
17.905000 -0.011681 0
17.910000 -0.011234 0
17.915000 -0.010779 0
17.920000 -0.010317 0
17.925000 -0.009837 0
17.930000 -0.009356 0
17.935000 -0.008878 0
17.940000 -0.008402 0
17.945000 -0.007928 0
17.950000 -0.007456 0
17.955000 -0.006987 0
17.960000 -0.006521 0
17.965000 -0.006056 0
17.970000 -0.005594 0
17.975000 -0.005134 0
17.980000 -0.004677 0
17.985000 -0.004221 0
17.990000 -0.003768 0
17.995000 -0.003318 0
18.000000 -0.002869 0
18.005000 -0.002423 0
18.010000 -0.001979 0
18.015000 -0.001537 0
18.020000 -0.001098 0
18.025000 -0.000660 0
18.030000 -0.000225 0
18.035000 0.000208 0
18.040000 0.000639 0
18.045000 0.001068 0
18.050000 0.001494 0
18.055000 0.001919 0
18.060000 0.002341 0
18.065000 0.002761 0
18.070000 0.003179 0
18.075000 0.003596 0
18.080000 0.004010 0
18.085000 0.004422 0
18.090000 0.004832 0
18.095000 0.005240 0
18.100000 0.005647 0
18.105000 0.006053 0
18.110000 0.006458 0
18.115000 0.006863 0
18.120000 0.007270 0
18.125000 0.007681 0
18.130000 0.008099 0
18.135000 0.008530 0
18.140000 0.008981 0
18.145000 0.009462 0
18.150000 0.009991 0
18.155000 0.010589 0
18.160000 0.011285 0
18.165000 0.012122 0
18.170000 0.013151 0
18.175000 0.014442 0
18.180000 0.016081 0
18.185000 0.018174 0
18.190000 0.020847 0
18.195000 0.024247 0
18.200000 0.028540 0
18.205000 0.033904 0
18.210000 0.040524 0
18.215000 0.048583 0
18.220000 0.058245 0
18.225000 0.069642 0
18.230000 0.082856 0
18.235000 0.097901 0
18.240000 0.114705 0
18.245000 0.133098 0
18.250000 0.152797 0
18.255000 0.173412 0
18.260000 0.194444 0
18.265000 0.215303 0
18.270000 0.235332 0
18.275000 0.253836 0
18.280000 0.270126 0
18.285000 0.283552 0
18.290000 0.293552 0
18.295000 0.299688 0
18.300000 0.301673 1
18.305000 0.299399 0
18.310000 0.292938 0
18.315000 0.282542 0
18.320000 0.268623 0
18.325000 0.251727 0
18.330000 0.232498 0
18.335000 0.211634 0
18.340000 0.189846 0
18.345000 0.167819 0
18.350000 0.146175 0
18.355000 0.125450 0
18.360000 0.106072 0
18.365000 0.088349 0
18.370000 0.072468 0
18.375000 0.058477 0
18.380000 0.046257 0
18.385000 0.035456 0
18.390000 0.025375 0
18.395000 0.014840 0
18.400000 0.002143 0
18.405000 -0.014780 0
18.410000 -0.037754 0
18.415000 -0.067331 0
18.420000 -0.101574 0
18.425000 -0.135204 0
18.430000 -0.159636 0
18.435000 -0.164039 2
18.440000 -0.136987 0
18.445000 -0.068161 0
18.450000 0.049873 0
18.455000 0.219107 0
18.460000 0.432308 0
18.465000 0.669210 0
18.470000 0.895856 0
18.475000 1.070200 0
18.480000 1.153949 3
18.485000 1.124288 0
18.490000 0.985368 0
18.495000 0.767078 0
18.500000 0.512508 0
18.505000 0.263551 0
18.510000 0.051022 0
18.515000 -0.108093 0
18.520000 -0.208535 0
18.525000 -0.253562 4
18.530000 -0.252606 0
18.535000 -0.219353 0
18.540000 -0.169187 0
18.545000 -0.115998 0
18.550000 -0.069507 0
18.555000 -0.034254 0
18.560000 -0.010416 0
18.565000 0.004364 0
18.570000 0.013161 0
18.575000 0.018630 0
18.580000 0.022604 0
18.585000 0.026160 0
18.590000 0.029867 0
18.595000 0.034013 0
18.600000 0.038754 0
18.605000 0.044192 0
18.610000 0.050412 0
18.615000 0.057490 0
18.620000 0.065497 0
18.625000 0.074501 0
18.630000 0.084558 0
18.635000 0.095716 0
18.640000 0.108009 0
18.645000 0.121454 0
18.650000 0.136047 0
18.655000 0.151763 0
18.660000 0.168550 0
18.665000 0.186332 0
18.670000 0.205003 0
18.675000 0.224426 0
18.680000 0.244437 0
18.685000 0.264844 0
18.690000 0.285430 0
18.695000 0.305951 0
18.700000 0.326149 0
18.705000 0.345748 0
18.710000 0.364467 0
18.715000 0.382020 0
18.720000 0.398129 0
18.725000 0.412524 0
18.730000 0.424957 0
18.735000 0.435205 0
18.740000 0.443077 0
18.745000 0.448419 0
18.750000 0.451119 5
18.755000 0.451111 0
18.760000 0.448377 0
18.765000 0.442946 0
18.770000 0.434896 0
18.775000 0.424351 0
18.780000 0.411473 0
18.785000 0.396467 0
18.790000 0.379566 0
18.795000 0.361030 0
18.800000 0.341136 0
18.805000 0.320176 0
18.810000 0.298442 0
18.815000 0.276226 0
18.820000 0.253810 0
18.825000 0.231462 0
18.830000 0.209428 0
18.835000 0.187931 0
18.840000 0.167168 0
18.845000 0.147305 0
18.850000 0.128478 0
18.855000 0.110793 0
18.860000 0.094326 0
18.865000 0.079125 0
18.870000 0.065211 0
18.875000 0.052582 0
18.880000 0.041216 0
18.885000 0.031073 0
18.890000 0.022097 0
18.895000 0.014224 0
18.900000 0.007379 0
18.905000 0.001483 0
18.910000 -0.003546 0
18.915000 -0.007791 0
18.920000 -0.011334 0
18.925000 -0.014253 0
18.930000 -0.016624 0
18.935000 -0.018516 0
18.940000 -0.019994 0
18.945000 -0.021117 0
18.950000 -0.021939 0
18.955000 -0.022506 0
18.960000 -0.022860 0
18.965000 -0.023036 0
18.970000 -0.023068 0
18.975000 -0.022980 0
18.980000 -0.022796 0
18.985000 -0.022535 0
18.990000 -0.022213 0
18.995000 -0.021842 0
19.000000 -0.021433 0
19.005000 -0.020996 0
19.010000 -0.020536 0
19.015000 -0.020060 0
19.020000 -0.019571 0
19.025000 -0.019074 0
19.030000 -0.018571 0
19.035000 -0.018050 0
19.040000 -0.017528 0
19.045000 -0.017009 0
19.050000 -0.016492 0
19.055000 -0.015978 0
19.060000 -0.015466 0
19.065000 -0.014957 0
19.070000 -0.014451 0
19.075000 -0.013947 0
19.080000 -0.013445 0
19.085000 -0.012946 0
19.090000 -0.012450 0
19.095000 -0.011956 0
19.100000 -0.011464 0
19.105000 -0.010975 0
19.110000 -0.010488 0
19.115000 -0.010004 0
19.120000 -0.009522 0
19.125000 -0.009043 0
19.130000 -0.008566 0
19.135000 -0.008091 0
19.140000 -0.007619 0
19.145000 -0.007149 0
19.150000 -0.006682 0
19.155000 -0.006216 0
19.160000 -0.005753 0
19.165000 -0.005293 0
19.170000 -0.004834 0
19.175000 -0.004378 0
19.180000 -0.003925 0
19.185000 -0.003473 0
19.190000 -0.003024 0
19.195000 -0.002576 0
19.200000 -0.002131 0
19.205000 -0.001687 0
19.210000 -0.001245 0
19.215000 -0.000804 0
19.220000 -0.000363 0
19.225000 0.000080 0
19.230000 0.000526 0
19.235000 0.000980 0
19.240000 0.001447 0
19.245000 0.001934 0
19.250000 0.002453 0
19.255000 0.003022 0
19.260000 0.003664 0
19.265000 0.004411 0
19.270000 0.005308 0
19.275000 0.006413 0
19.280000 0.007801 0
19.285000 0.009567 0
19.290000 0.011826 0
19.295000 0.014715 0
19.300000 0.018396 0
19.305000 0.023044 0
19.310000 0.028851 0
19.315000 0.036011 0
19.320000 0.044710 0
19.325000 0.055109 0
19.330000 0.067328 0
19.335000 0.081423 0
19.340000 0.097370 0
19.345000 0.115046 0
19.350000 0.134215 0
19.355000 0.154521 0
19.360000 0.175491 0
19.365000 0.196547 0
19.370000 0.217024 0
19.375000 0.236206 0
19.380000 0.253364 0
19.385000 0.267799 0
19.390000 0.278889 0
19.395000 0.286135 0
19.400000 0.289192 1
19.405000 0.287899 0
19.410000 0.282291 0
19.415000 0.272596 0
19.420000 0.259218 0
19.425000 0.242711 0
19.430000 0.223738 0
19.435000 0.203025 0
19.440000 0.181318 0
19.445000 0.159335 0
19.450000 0.137732 0
19.455000 0.117069 0
19.460000 0.097791 0
19.465000 0.080219 0
19.470000 0.064538 0
19.475000 0.050784 0
19.480000 0.038810 0
19.485000 0.028207 0
19.490000 0.018171 0
19.495000 0.007371 0
19.500000 -0.006083 0
19.505000 -0.024366 0
19.510000 -0.049163 0
19.515000 -0.080452 0
19.520000 -0.115219 0
19.525000 -0.146765 0
19.530000 -0.165127 2
19.535000 -0.158528 0
19.540000 -0.115256 0
19.545000 -0.025513 0
19.550000 0.116385 0
19.555000 0.308595 0
19.560000 0.537297 0
19.565000 0.773726 0
19.570000 0.976669 0
19.575000 1.102551 0
19.580000 1.120248 3
19.585000 1.025658 0
19.590000 0.839044 0
19.595000 0.596838 0
19.600000 0.340389 0
19.605000 0.104734 0
19.610000 -0.087061 0
19.615000 -0.223983 0
19.620000 -0.304445 0
19.625000 -0.333685 4
19.630000 -0.321966 0
19.635000 -0.282818 0
19.640000 -0.230588 0
19.645000 -0.177635 0
19.650000 -0.132218 0
19.655000 -0.097918 0
19.660000 -0.074534 0
19.665000 -0.059749 0
19.670000 -0.050676 0
19.675000 -0.044837 0
19.680000 -0.040500 0
19.685000 -0.036624 0
19.690000 -0.032645 0
19.695000 -0.028272 0
19.700000 -0.023348 0
19.705000 -0.017770 0
19.710000 -0.011457 0
19.715000 -0.004338 0
19.720000 0.003657 0
19.725000 0.012591 0
19.730000 0.022520 0
19.735000 0.033494 0
19.740000 0.045550 0
19.745000 0.058710 0
19.750000 0.072980 0
19.755000 0.088349 0
19.760000 0.104781 0
19.765000 0.122219 0
19.770000 0.140581 0
19.775000 0.159758 0
19.780000 0.179614 0
19.785000 0.199989 0
19.790000 0.220696 0
19.795000 0.241527 0
19.800000 0.262253 0
19.805000 0.282628 0
19.810000 0.302395 0
19.815000 0.321289 0
19.820000 0.339045 0
19.825000 0.355402 0
19.830000 0.370108 0
19.835000 0.382931 0
19.840000 0.393660 0
19.845000 0.402112 0
19.850000 0.408138 0
19.855000 0.411627 0
19.860000 0.412508 5
19.865000 0.410752 0
19.870000 0.406376 0
19.875000 0.399436 0
19.880000 0.390035 0
19.885000 0.378311 0
19.890000 0.364440 0
19.895000 0.348628 0
19.900000 0.331108 0
19.905000 0.312132 0
19.910000 0.291966 0
19.915000 0.270882 0
19.920000 0.249157 0
19.925000 0.227059 0
19.930000 0.204849 0
19.935000 0.182772 0
19.940000 0.161054 0
19.945000 0.139897 0
19.950000 0.119480 0
19.955000 0.099954 0
19.960000 0.081444 0
19.965000 0.064045 0
19.970000 0.047827 0
19.975000 0.032834 0
19.980000 0.019087 0
19.985000 0.006584 0
19.990000 -0.004694 0
19.995000 -0.014783 0
20.000000 -0.023732 0
20.005000 -0.031603 0
20.010000 -0.038461 0
20.015000 -0.044382 0
20.020000 -0.049440 0
20.025000 -0.053714 0
20.030000 -0.057281 0
20.035000 -0.060215 0
20.040000 -0.062588 0
20.045000 -0.064469 0
20.050000 -0.065920 0
20.055000 -0.066999 0
20.060000 -0.067759 0
20.065000 -0.068247 0
20.070000 -0.068505 0
20.075000 -0.068570 0
20.080000 -0.068475 0
20.085000 -0.068248 0
20.090000 -0.067913 0
20.095000 -0.067489 0
20.100000 -0.066995 0
20.105000 -0.066444 0
20.110000 -0.065849 0
20.115000 -0.065219 0
20.120000 -0.064562 0
20.125000 -0.063886 0
20.130000 -0.063194 0
20.135000 -0.062492 0
20.140000 -0.061782 0
20.145000 -0.061067 0
20.150000 -0.060334 0
20.155000 -0.059601 0
20.160000 -0.058872 0
20.165000 -0.058146 0
20.170000 -0.057424 0
20.175000 -0.056706 0
20.180000 -0.055991 0
20.185000 -0.055280 0
20.190000 -0.054572 0
20.195000 -0.053868 0
20.200000 -0.053168 0
20.205000 -0.052471 0
20.210000 -0.051777 0
20.215000 -0.051087 0
20.220000 -0.050400 0
20.225000 -0.049717 0
20.230000 -0.049037 0
20.235000 -0.048361 0
20.240000 -0.047687 0
20.245000 -0.047018 0
20.250000 -0.046351 0
20.255000 -0.045688 0
20.260000 -0.045028 0
20.265000 -0.044372 0
20.270000 -0.043719 0
20.275000 -0.043069 0
20.280000 -0.042422 0
20.285000 -0.041778 0
20.290000 -0.041138 0
20.295000 -0.040501 0
20.300000 -0.039867 0
20.305000 -0.039236 0
20.310000 -0.038608 0
20.315000 -0.037984 0
20.320000 -0.037362 0
20.325000 -0.036743 0
20.330000 -0.036126 0
20.335000 -0.035512 0
20.340000 -0.034898 0
20.345000 -0.034285 0
20.350000 -0.033671 0
20.355000 -0.033052 0
20.360000 -0.032426 0
20.365000 -0.031785 0
20.370000 -0.031121 0
20.375000 -0.030422 0
20.380000 -0.029671 0
20.385000 -0.028842 0
20.390000 -0.027903 0
20.395000 -0.026810 0
20.400000 -0.025505 0
20.405000 -0.023917 0
20.410000 -0.021954 0
20.415000 -0.019507 0
20.420000 -0.016445 0
20.425000 -0.012619 0
20.430000 -0.007864 0
20.435000 -0.002002 0
20.440000 0.005149 0
20.445000 0.013763 0
20.450000 0.023997 0
20.455000 0.035969 0
20.460000 0.049746 0
20.465000 0.065326 0
20.470000 0.082621 0
20.475000 0.101443 0
20.480000 0.121498 0
20.485000 0.142384 0
20.490000 0.163600 0
20.495000 0.184556 0
20.500000 0.204602 0
20.505000 0.223057 0
20.510000 0.239247 0
20.515000 0.252545 0
20.520000 0.262410 0
20.525000 0.268423 0
20.530000 0.270317 1
20.535000 0.267995 0
20.540000 0.261536 0
20.545000 0.251195 0
20.550000 0.237378 0
20.555000 0.220623 0
20.560000 0.201559 0
20.565000 0.180871 0
20.570000 0.159254 0
20.575000 0.137380 0
20.580000 0.115862 0
20.585000 0.095227 0
20.590000 0.075901 0
20.595000 0.058196 0
20.600000 0.042302 0
20.605000 0.028280 0
20.610000 0.016033 0
20.615000 0.005245 0
20.620000 -0.004717 0
20.625000 -0.014935 0
20.630000 -0.027008 0
20.635000 -0.042932 0
20.640000 -0.064592 0
20.645000 -0.092838 0
20.650000 -0.126313 0
20.655000 -0.160524 0
20.660000 -0.187684 0
20.665000 -0.197541 2
20.670000 -0.178890 0
20.675000 -0.121222 0
20.680000 -0.016359 0
20.685000 0.139360 0
20.690000 0.341727 0
20.695000 0.574781 0
20.700000 0.808947 0
20.705000 1.004455 0
20.710000 1.121156 0
20.715000 1.131675 3
20.720000 1.034428 0
20.725000 0.849000 0
20.730000 0.608798 0
20.735000 0.351969 0
20.740000 0.111670 0
20.745000 -0.089251 0
20.750000 -0.238822 0
20.755000 -0.333902 0
20.760000 -0.377837 0
20.765000 -0.378804 4
20.770000 -0.348419 0
20.775000 -0.299903 0
20.780000 -0.245725 0
20.785000 -0.195441 0
20.790000 -0.154532 0
20.795000 -0.124581 0
20.800000 -0.104417 0
20.805000 -0.091569 0
20.810000 -0.083431 0
20.815000 -0.077899 0
20.820000 -0.073546 0
20.825000 -0.069515 0
20.830000 -0.065340 0
20.835000 -0.060772 0
20.840000 -0.055671 0
20.845000 -0.049946 0
20.850000 -0.043521 0
20.855000 -0.036331 0
20.860000 -0.028312 0
20.865000 -0.019406 0
20.870000 -0.009558 0
20.875000 0.001277 0
20.880000 0.013136 0
20.885000 0.026044 0
20.890000 0.040014 0
20.895000 0.055040 0
20.900000 0.071098 0
20.905000 0.088148 0
20.910000 0.106124 0
20.915000 0.124941 0
20.920000 0.144488 0
20.925000 0.164633 0
20.930000 0.185221 0
20.935000 0.206074 0
20.940000 0.226996 0
20.945000 0.247775 0
20.950000 0.268182 0
20.955000 0.287981 0
20.960000 0.306928 0
20.965000 0.324780 0
20.970000 0.341297 0
20.975000 0.356248 0
20.980000 0.369418 0
20.985000 0.380609 0
20.990000 0.389650 0
20.995000 0.396396 0
21.000000 0.400737 0
21.005000 0.402595 5
21.010000 0.401932 0
21.015000 0.398745 0
21.020000 0.393072 0
21.025000 0.384988 0
21.030000 0.374602 0
21.035000 0.362060 0
21.040000 0.347533 0
21.045000 0.331221 0
21.050000 0.313344 0
21.055000 0.294137 0
21.060000 0.273848 0
21.065000 0.252728 0
21.070000 0.231030 0
21.075000 0.209001 0
21.080000 0.186878 0
21.085000 0.164887 0
21.090000 0.143235 0
21.095000 0.122111 0
21.100000 0.101679 0
21.105000 0.082082 0
21.110000 0.063440 0
21.115000 0.045846 0
21.120000 0.029369 0
21.125000 0.014058 0
21.130000 -0.000061 0
21.135000 -0.012983 0
21.140000 -0.024718 0
21.145000 -0.035293 0
21.150000 -0.044747 0
21.155000 -0.053132 0
21.160000 -0.060504 0
21.165000 -0.066929 0
21.170000 -0.072475 0
21.175000 -0.077213 0
21.180000 -0.081215 0
21.185000 -0.084551 0
21.190000 -0.087290 0
21.195000 -0.089497 0
21.200000 -0.091234 0
21.205000 -0.092560 0
21.210000 -0.093528 0
21.215000 -0.094186 0
21.220000 -0.094579 0
21.225000 -0.094745 0
21.230000 -0.094721 0
21.235000 -0.094536 0
21.240000 -0.094218 0
21.245000 -0.093789 0
21.250000 -0.093270 0
21.255000 -0.092677 0
21.260000 -0.092025 0
21.265000 -0.091326 0
21.270000 -0.090589 0
21.275000 -0.089823 0
21.280000 -0.089035 0
21.285000 -0.088230 0
21.290000 -0.087412 0
21.295000 -0.086586 0
21.300000 -0.085755 0
21.305000 -0.084919 0
21.310000 -0.084067 0
21.315000 -0.083216 0
21.320000 -0.082369 0
21.325000 -0.081526 0
21.330000 -0.080688 0
21.335000 -0.079853 0
21.340000 -0.079023 0
21.345000 -0.078197 0
21.350000 -0.077375 0
21.355000 -0.076557 0
21.360000 -0.075744 0
21.365000 -0.074934 0
21.370000 -0.074128 0
21.375000 -0.073327 0
21.380000 -0.072529 0
21.385000 -0.071735 0
21.390000 -0.070946 0
21.395000 -0.070160 0
21.400000 -0.069378 0
21.405000 -0.068600 0
21.410000 -0.067826 0
21.415000 -0.067056 0
21.420000 -0.066289 0
21.425000 -0.065527 0
21.430000 -0.064768 0
21.435000 -0.064013 0
21.440000 -0.063262 0
21.445000 -0.062515 0
21.450000 -0.061771 0
21.455000 -0.061031 0
21.460000 -0.060295 0
21.465000 -0.059562 0
21.470000 -0.058833 0
21.475000 -0.058107 0
21.480000 -0.057385 0
21.485000 -0.056667 0
21.490000 -0.055952 0
21.495000 -0.055240 0
21.500000 -0.054530 0
21.505000 -0.053823 0
21.510000 -0.053118 0
21.515000 -0.052412 0
21.520000 -0.051705 0
21.525000 -0.050994 0
21.530000 -0.050274 0
21.535000 -0.049539 0
21.540000 -0.048781 0
21.545000 -0.047987 0
21.550000 -0.047141 0
21.555000 -0.046220 0
21.560000 -0.045192 0
21.565000 -0.044017 0
21.570000 -0.042644 0
21.575000 -0.041006 0
21.580000 -0.039023 0
21.585000 -0.036595 0
21.590000 -0.033608 0
21.595000 -0.029929 0
21.600000 -0.025408 0
21.605000 -0.019887 0
21.610000 -0.013198 0
21.615000 -0.005177 0
21.620000 0.004327 0
21.625000 0.015442 0
21.630000 0.028257 0
21.635000 0.042808 0
21.640000 0.059063 0
21.645000 0.076909 0
21.650000 0.096145 0
21.655000 0.116475 0
21.660000 0.137507 0
21.665000 0.158764 0
21.670000 0.179697 0
21.675000 0.199703 0
21.680000 0.218157 0
21.685000 0.234440 0
21.690000 0.247974 0
21.695000 0.258257 0
21.700000 0.264891 0
21.705000 0.267608 1
21.710000 0.266289 0
21.715000 0.260971 0
21.720000 0.251842 0
21.725000 0.239237 0
21.730000 0.223610 0
21.735000 0.205510 0
21.740000 0.185548 0
21.745000 0.164364 0
21.750000 0.142591 0
21.755000 0.120825 0
21.760000 0.099602 0
21.765000 0.079376 0
21.770000 0.060505 0
21.775000 0.043247 0
21.780000 0.027751 0
21.785000 0.014049 0
21.790000 0.002027 0
21.795000 -0.008625 0
21.800000 -0.018510 0
21.805000 -0.028626 0
21.810000 -0.040430 0
21.815000 -0.055744 0
21.820000 -0.076352 0
21.825000 -0.103259 0
21.830000 -0.135702 0
21.835000 -0.170286 0
21.840000 -0.200654 0
21.845000 -0.217972 2
21.850000 -0.212079 0
21.855000 -0.172881 0
21.860000 -0.091706 0
21.865000 0.037153 0
21.870000 0.214123 0
21.875000 0.431122 0
21.880000 0.668629 0
21.885000 0.895519 0
21.890000 1.073869 0
21.895000 1.168613 3
21.900000 1.158585 0
21.905000 1.043897 0
21.910000 0.845958 0
21.915000 0.599892 0
21.920000 0.343657 0
21.925000 0.108881 0
21.930000 -0.083558 0
21.935000 -0.223443 0
21.940000 -0.308961 0
21.945000 -0.344455 4
21.950000 -0.338860 0
21.955000 -0.304277 0
21.960000 -0.253997 0
21.965000 -0.200117 0
21.970000 -0.151492 0
21.975000 -0.112828 0
21.980000 -0.085075 0
21.985000 -0.066704 0
21.990000 -0.055135 0
21.995000 -0.047820 0
22.000000 -0.042783 0
22.005000 -0.038716 0
22.010000 -0.034855 0
22.015000 -0.030785 0
22.020000 -0.026287 0
22.025000 -0.021235 0
22.030000 -0.015539 0
22.035000 -0.009130 0
22.040000 -0.001939 0
22.045000 0.006094 0
22.050000 0.015028 0
22.055000 0.024916 0
22.060000 0.035802 0
22.065000 0.047720 0
22.070000 0.060693 0
22.075000 0.074730 0
22.080000 0.089821 0
22.085000 0.105941 0
22.090000 0.123041 0
22.095000 0.141053 0
22.100000 0.159885 0
22.105000 0.179422 0
22.110000 0.199526 0
22.115000 0.220037 0
22.120000 0.240773 0
22.125000 0.261533 0
22.130000 0.282099 0
22.135000 0.302242 0
22.140000 0.321721 0
22.145000 0.340294 0
22.150000 0.357715 0
22.155000 0.373746 0
22.160000 0.388159 0
22.165000 0.400742 0
22.170000 0.411303 0
22.175000 0.419675 0
22.180000 0.425722 0
22.185000 0.429339 0
22.190000 0.430459 5
22.195000 0.429051 0
22.200000 0.425124 0
22.205000 0.418723 0
22.210000 0.409932 0
22.215000 0.398870 0
22.220000 0.385689 0
22.225000 0.370568 0
22.230000 0.353714 0
22.235000 0.335351 0
22.240000 0.315718 0
22.245000 0.295064 0
22.250000 0.273643 0
22.255000 0.251707 0
22.260000 0.229501 0
22.265000 0.207261 0
22.270000 0.185208 0
22.275000 0.163545 0
22.280000 0.142455 0
22.285000 0.122099 0
22.290000 0.102614 0
22.295000 0.084110 0
22.300000 0.066677 0
22.305000 0.050378 0
22.310000 0.035256 0
22.315000 0.021331 0
22.320000 0.008603 0
22.325000 -0.002941 0
22.330000 -0.013333 0
22.335000 -0.022615 0
22.340000 -0.030841 0
22.345000 -0.038070 0
22.350000 -0.044368 0
22.355000 -0.049806 0
22.360000 -0.054453 0
22.365000 -0.058383 0
22.370000 -0.061664 0
22.375000 -0.064366 0
22.380000 -0.066553 0
22.385000 -0.068286 0
22.390000 -0.069622 0
22.395000 -0.070613 0
22.400000 -0.071306 0
22.405000 -0.071745 0
22.410000 -0.071968 0
22.415000 -0.072008 0
22.420000 -0.071895 0
22.425000 -0.071655 0
22.430000 -0.071310 0
22.435000 -0.070879 0
22.440000 -0.070378 0
22.445000 -0.069821 0
22.450000 -0.069219 0
22.455000 -0.068582 0
22.460000 -0.067918 0
22.465000 -0.067232 0
22.470000 -0.066530 0
22.475000 -0.065817 0
22.480000 -0.065096 0
22.485000 -0.064368 0
22.490000 -0.063634 0
22.495000 -0.062885 0
22.500000 -0.062139 0
22.505000 -0.061398 0
22.510000 -0.060659 0
22.515000 -0.059925 0
22.520000 -0.059194 0
22.525000 -0.058467 0
22.530000 -0.057744 0
22.535000 -0.057024 0
22.540000 -0.056307 0
22.545000 -0.055595 0
22.550000 -0.054885 0
22.555000 -0.054180 0
22.560000 -0.053478 0
22.565000 -0.052779 0
22.570000 -0.052084 0
22.575000 -0.051392 0
22.580000 -0.050704 0
22.585000 -0.050019 0
22.590000 -0.049338 0
22.595000 -0.048660 0
22.600000 -0.047985 0
22.605000 -0.047314 0
22.610000 -0.046646 0
22.615000 -0.045981 0
22.620000 -0.045320 0
22.625000 -0.044662 0
22.630000 -0.044007 0
22.635000 -0.043356 0
22.640000 -0.042708 0
22.645000 -0.042063 0
22.650000 -0.041421 0
22.655000 -0.040783 0
22.660000 -0.040147 0
22.665000 -0.039515 0
22.670000 -0.038885 0
22.675000 -0.038259 0
22.680000 -0.037635 0
22.685000 -0.037013 0
22.690000 -0.036392 0
22.695000 -0.035773 0
22.700000 -0.035152 0
22.705000 -0.034529 0
22.710000 -0.033899 0
22.715000 -0.033259 0
22.720000 -0.032600 0
22.725000 -0.031914 0
22.730000 -0.031187 0
22.735000 -0.030399 0
22.740000 -0.029525 0
22.745000 -0.028531 0
22.750000 -0.027372 0
22.755000 -0.025991 0
22.760000 -0.024318 0
22.765000 -0.022264 0
22.770000 -0.019724 0
22.775000 -0.016577 0
22.780000 -0.012683 0
22.785000 -0.007889 0
22.790000 -0.002030 0
22.795000 0.005060 0
22.800000 0.013542 0
22.805000 0.023562 0
22.810000 0.035234 0
22.815000 0.048628 0
22.820000 0.063757 0
22.825000 0.080559 0
22.830000 0.098890 0
22.835000 0.118510 0
22.840000 0.139087 0
22.845000 0.160194 0
22.850000 0.181323 0
22.855000 0.201899 0
22.860000 0.221306 0
22.865000 0.238916 0
22.870000 0.254122 0
22.875000 0.266369 0
22.880000 0.275192 0
22.885000 0.280240 0
22.890000 0.281302 1
22.895000 0.278320 0
22.900000 0.271390 0
22.905000 0.260764 0
22.910000 0.246825 0
22.915000 0.230071 0
22.920000 0.211082 0
22.925000 0.190484 0
22.930000 0.168921 0
22.935000 0.147015 0
22.940000 0.125343 0
22.945000 0.104410 0
22.950000 0.084633 0
22.955000 0.066331 0
22.960000 0.049718 0
22.965000 0.034898 0
22.970000 0.021848 0
22.975000 0.010380 0
22.980000 0.000074 0
22.985000 -0.009823 0
22.990000 -0.020504 0
22.995000 -0.033607 0
23.000000 -0.051009 0
23.005000 -0.074283 0
23.010000 -0.103814 0
23.015000 -0.137810 0
23.020000 -0.171610 0
23.025000 -0.197687 0
23.030000 -0.206456 2
23.035000 -0.187591 0
23.040000 -0.131419 0
23.045000 -0.030302 0
23.050000 0.119557 0
23.055000 0.315341 0
23.060000 0.544268 0
23.065000 0.781508 0
23.070000 0.991997 0
23.075000 1.137590 0
23.080000 1.187967 3
23.085000 1.129613 0
23.090000 0.971064 0
23.095000 0.743504 0
23.100000 0.487354 0
23.105000 0.240309 0
23.110000 0.029678 0
23.115000 -0.129448 0
23.120000 -0.232263 0
23.125000 -0.281506 0
23.130000 -0.285458 4
23.135000 -0.256346 0
23.140000 -0.208277 0
23.145000 -0.154571 0
23.150000 -0.105291 0
23.155000 -0.065982 0
23.160000 -0.037959 0
23.165000 -0.019695 0
23.170000 -0.008453 0
23.175000 -0.001526 0
23.180000 0.003161 0
23.185000 0.006947 0
23.190000 0.010596 0
23.195000 0.014510 0
23.200000 0.018900 0
23.205000 0.023890 0
23.210000 0.029566 0
23.215000 0.036004 0
23.220000 0.043273 0
23.225000 0.051439 0
23.230000 0.060561 0
23.235000 0.070692 0
23.240000 0.081876 0
23.245000 0.094144 0
23.250000 0.107511 0
23.255000 0.121978 0
23.260000 0.137525 0
23.265000 0.154108 0
23.270000 0.171664 0
23.275000 0.190101 0
23.280000 0.209304 0
23.285000 0.229132 0
23.290000 0.249418 0
23.295000 0.269972 0
23.300000 0.290582 0
23.305000 0.311017 0
23.310000 0.331033 0
23.315000 0.350374 0
23.320000 0.368779 0
23.325000 0.385988 0
23.330000 0.401746 0
23.335000 0.415809 0
23.340000 0.427954 0
23.345000 0.437980 0
23.350000 0.445713 0
23.355000 0.451016 0
23.360000 0.453786 0
23.365000 0.453962 5
23.370000 0.451524 0
23.375000 0.446496 0
23.380000 0.438942 0
23.385000 0.428968 0
23.390000 0.416716 0
23.395000 0.402364 0
23.400000 0.386119 0
23.405000 0.368212 0
23.410000 0.348893 0
23.415000 0.328424 0
23.420000 0.307076 0
23.425000 0.285117 0
23.430000 0.262814 0
23.435000 0.240419 0
23.440000 0.218173 0
23.445000 0.196297 0
23.450000 0.174989 0
23.455000 0.154423 0
23.460000 0.134747 0
23.465000 0.116082 0
23.470000 0.098522 0
23.475000 0.082134 0
23.480000 0.066964 0
23.485000 0.053029 0
23.490000 0.040331 0
23.495000 0.028848 0
23.500000 0.018548 0
23.505000 0.009380 0
23.510000 0.001288 0
23.515000 -0.005796 0
23.520000 -0.011944 0
23.525000 -0.017229 0
23.530000 -0.021730 0
23.535000 -0.025520 0
23.540000 -0.028676 0
23.545000 -0.031266 0
23.550000 -0.033360 0
23.555000 -0.035018 0
23.560000 -0.036300 0
23.565000 -0.037257 0
23.570000 -0.037936 0
23.575000 -0.038381 0
23.580000 -0.038628 0
23.585000 -0.038709 0
23.590000 -0.038654 0
23.595000 -0.038486 0
23.600000 -0.038227 0
23.605000 -0.037893 0
23.610000 -0.037499 0
23.615000 -0.037059 0
23.620000 -0.036581 0
23.625000 -0.036074 0
23.630000 -0.035545 0
23.635000 -0.034999 0
23.640000 -0.034441 0
23.645000 -0.033873 0
23.650000 -0.033300 0
23.655000 -0.032706 0
23.660000 -0.032111 0
23.665000 -0.031519 0
23.670000 -0.030930 0
23.675000 -0.030343 0
23.680000 -0.029760 0
23.685000 -0.029180 0
23.690000 -0.028602 0
23.695000 -0.028028 0
23.700000 -0.027456 0
23.705000 -0.026887 0
23.710000 -0.026321 0
23.715000 -0.025758 0
23.720000 -0.025198 0
23.725000 -0.024640 0
23.730000 -0.024085 0
23.735000 -0.023533 0
23.740000 -0.022984 0
23.745000 -0.022437 0
23.750000 -0.021894 0
23.755000 -0.021353 0
23.760000 -0.020814 0
23.765000 -0.020278 0
23.770000 -0.019745 0
23.775000 -0.019215 0
23.780000 -0.018687 0
23.785000 -0.018162 0
23.790000 -0.017640 0
23.795000 -0.017120 0
23.800000 -0.016602 0
23.805000 -0.016088 0
23.810000 -0.015575 0
23.815000 -0.015066 0
23.820000 -0.014558 0
23.825000 -0.014054 0
23.830000 -0.013551 0
23.835000 -0.013050 0
23.840000 -0.012552 0
23.845000 -0.012054 0
23.850000 -0.011557 0
23.855000 -0.011059 0
23.860000 -0.010558 0
23.865000 -0.010052 0
23.870000 -0.009535 0
23.875000 -0.009001 0
23.880000 -0.008440 0
23.885000 -0.007839 0
23.890000 -0.007179 0
23.895000 -0.006433 0
23.900000 -0.005565 0
23.905000 -0.004531 0
23.910000 -0.003268 0
23.915000 -0.001701 0
23.920000 0.000263 0
23.925000 0.002738 0
23.930000 0.005855 0
23.935000 0.009767 0
23.940000 0.014639 0
23.945000 0.020646 0
23.950000 0.027968 0
23.955000 0.036774 0
23.960000 0.047210 0
23.965000 0.059386 0
23.970000 0.073357 0
23.975000 0.089108 0
23.980000 0.106537 0
23.985000 0.125445 0
23.990000 0.145528 0
23.995000 0.166377 0
24.000000 0.187487 0
24.005000 0.208271 0
24.010000 0.228084 0
24.015000 0.246256 0
24.020000 0.262127 0
24.025000 0.275086 0
24.030000 0.284609 0
24.035000 0.290292 0
24.040000 0.291882 1
24.045000 0.289291 0
24.050000 0.282606 0
24.055000 0.272079 0
24.060000 0.258116 0
24.065000 0.241245 0
24.070000 0.222086 0
24.075000 0.201312 0
24.080000 0.179608 0
24.085000 0.157633 0
24.090000 0.135994 0
24.095000 0.115212 0
24.100000 0.095711 0
24.105000 0.077803 0
24.110000 0.061684 0
24.115000 0.047423 0
24.120000 0.034938 0
24.125000 0.023941 0
24.130000 0.013847 0
24.135000 0.003644 0
24.140000 -0.008185 0
24.145000 -0.023571 0
24.150000 -0.044427 0
24.155000 -0.071802 0
24.160000 -0.104753 0
24.165000 -0.139380 0
24.170000 -0.168528 0
24.175000 -0.182440 2
24.180000 -0.170145 0
24.185000 -0.121059 0
24.190000 -0.026541 0
24.195000 0.118160 0
24.200000 0.310913 0
24.205000 0.538902 0
24.210000 0.776088 0
24.215000 0.985109 0
24.220000 1.125384 0
24.225000 1.165547 3
24.230000 1.094406 0
24.235000 0.925264 0
24.240000 0.691625 0
24.245000 0.434768 0
24.250000 0.191785 0
24.255000 -0.011455 0
24.260000 -0.161434 0
24.265000 -0.254694 0
24.270000 -0.295090 4
24.275000 -0.291856 0
24.280000 -0.257933 0
24.285000 -0.207699 0
24.290000 -0.154179 0
24.295000 -0.106685 0
24.300000 -0.069847 0
24.305000 -0.044218 0
24.310000 -0.027827 0
24.315000 -0.017815 0
24.320000 -0.011561 0
24.325000 -0.007153 0
24.330000 -0.003402 0
24.335000 0.000347 0
24.340000 0.004436 0
24.345000 0.009045 0
24.350000 0.014287 0
24.355000 0.020244 0
24.360000 0.026990 0
24.365000 0.034595 0
24.370000 0.043124 0
24.375000 0.052634 0
24.380000 0.063177 0
24.385000 0.074793 0
24.390000 0.087509 0
24.395000 0.101335 0
24.400000 0.116264 0
24.405000 0.132267 0
24.410000 0.149293 0
24.415000 0.167266 0
24.420000 0.186085 0
24.425000 0.205621 0
24.430000 0.225720 0
24.435000 0.246204 0
24.440000 0.266869 0
24.445000 0.287492 0
24.450000 0.307832 0
24.455000 0.327635 0
24.460000 0.346639 0
24.465000 0.364578 0
24.470000 0.381189 0
24.475000 0.396220 0
24.480000 0.409431 0
24.485000 0.420606 0
24.490000 0.429554 0
24.495000 0.436118 0
24.500000 0.440175 0
24.505000 0.441642 5
24.510000 0.440481 0
24.515000 0.436692 0
24.520000 0.430324 0
24.525000 0.421465 0
24.530000 0.410243 0
24.535000 0.396824 0
24.540000 0.381405 0
24.545000 0.364212 0
24.550000 0.345490 0
24.555000 0.325502 0
24.560000 0.304520 0
24.565000 0.282817 0
24.570000 0.260665 0
24.575000 0.238327 0
24.580000 0.216052 0
24.585000 0.194071 0
24.590000 0.172595 0
24.595000 0.151808 0
24.600000 0.131870 0
24.605000 0.112913 0
24.610000 0.095040 0
24.615000 0.078330 0
24.620000 0.062834 0
24.625000 0.048579 0
24.630000 0.035570 0
24.635000 0.023793 0
24.640000 0.013218 0
24.645000 0.003797 0
24.650000 -0.004525 0
24.655000 -0.011814 0
24.660000 -0.018142 0
24.665000 -0.023584 0
24.670000 -0.028218 0
24.675000 -0.032120 0
24.680000 -0.035367 0
24.685000 -0.038031 0
24.690000 -0.040180 0
24.695000 -0.041881 0
24.700000 -0.043191 0
24.705000 -0.044165 0
24.710000 -0.044852 0
24.715000 -0.045297 0
24.720000 -0.045536 0
24.725000 -0.045605 0
24.730000 -0.045533 0
24.735000 -0.045344 0
24.740000 -0.045061 0
24.745000 -0.044701 0
24.750000 -0.044279 0
24.755000 -0.043809 0
24.760000 -0.043301 0
24.765000 -0.042763 0
24.770000 -0.042202 0
24.775000 -0.041624 0
24.780000 -0.041034 0
24.785000 -0.040434 0
24.790000 -0.039828 0
24.795000 -0.039215 0
24.800000 -0.038588 0
24.805000 -0.037964 0
24.810000 -0.037342 0
24.815000 -0.036724 0
24.820000 -0.036109 0
24.825000 -0.035497 0
24.830000 -0.034888 0
24.835000 -0.034282 0
24.840000 -0.033679 0
24.845000 -0.033079 0
24.850000 -0.032482 0
24.855000 -0.031889 0
24.860000 -0.031298 0
24.865000 -0.030710 0
24.870000 -0.030124 0
24.875000 -0.029542 0
24.880000 -0.028963 0
24.885000 -0.028387 0
24.890000 -0.027813 0
24.895000 -0.027243 0
24.900000 -0.026675 0
24.905000 -0.026110 0
24.910000 -0.025548 0
24.915000 -0.024988 0
24.920000 -0.024432 0
24.925000 -0.023878 0
24.930000 -0.023327 0
24.935000 -0.022779 0
24.940000 -0.022233 0
24.945000 -0.021690 0
24.950000 -0.021150 0
24.955000 -0.020613 0
24.960000 -0.020078 0
24.965000 -0.019545 0
24.970000 -0.019015 0
24.975000 -0.018487 0
24.980000 -0.017961 0
24.985000 -0.017436 0
24.990000 -0.016912 0
24.995000 -0.016386 0
25.000000 -0.015857 0
25.005000 -0.015321 0
25.010000 -0.014773 0
25.015000 -0.014205 0
25.020000 -0.013608 0
25.025000 -0.012964 0
25.030000 -0.012254 0
25.035000 -0.011447 0
25.040000 -0.010504 0
25.045000 -0.009375 0
25.050000 -0.007992 0
25.055000 -0.006272 0
25.060000 -0.004114 0
25.065000 -0.001396 0
25.070000 0.002023 0
25.075000 0.006304 0
25.080000 0.011618 0
25.085000 0.018148 0
25.090000 0.026071 0
25.095000 0.035552 0
25.100000 0.046727 0
25.105000 0.059686 0
25.110000 0.074456 0
25.115000 0.090987 0
25.120000 0.109134 0
25.125000 0.128646 0
25.130000 0.149167 0
25.135000 0.170237 0
25.140000 0.191299 0
25.145000 0.211729 0
25.150000 0.230854 0
25.155000 0.247994 0
25.160000 0.262500 0
25.165000 0.273790 0
25.170000 0.281392 0
25.175000 0.284973 1
25.180000 0.284361 0
25.185000 0.279563 0
25.190000 0.270758 0
25.195000 0.258291 0
25.200000 0.242647 0
25.205000 0.224419 0
25.210000 0.204271 0
25.215000 0.182898 0
25.220000 0.160984 0
25.225000 0.139171 0
25.230000 0.118024 0
25.235000 0.098014 0
25.240000 0.079502 0
25.245000 0.062732 0
25.250000 0.047824 0
25.255000 0.034753 0
25.260000 0.023311 0
25.265000 0.013022 0
25.270000 0.003017 0
25.275000 -0.008070 0
25.280000 -0.022092 0
25.285000 -0.041067 0
25.290000 -0.066445 0
25.295000 -0.097997 0
25.300000 -0.132717 0
25.305000 -0.164265 0
25.310000 -0.183360 2
25.315000 -0.179043 0
25.320000 -0.140314 0
25.325000 -0.057740 0
25.330000 0.074716 0
25.335000 0.256920 0
25.340000 0.478729 0
25.345000 0.716804 0
25.350000 0.935273 0
25.355000 1.092692 0
25.360000 1.154268 3
25.365000 1.105168 0
25.370000 0.955827 0
25.375000 0.734696 0
25.380000 0.480280 0
25.385000 0.229805 0
25.390000 0.011396 0
25.395000 -0.158408 0
25.400000 -0.273250 0
25.405000 -0.334387 0
25.410000 -0.348660 4
25.415000 -0.327017 0
25.420000 -0.282778 0
25.425000 -0.229266 0
25.430000 -0.177354 0
25.435000 -0.133873 0
25.440000 -0.101413 0
25.445000 -0.079332 0
25.450000 -0.065275 0
25.455000 -0.056519 0
25.460000 -0.050768 0
25.465000 -0.046424 0
25.470000 -0.042520 0
25.475000 -0.038521 0
25.480000 -0.034149 0
25.485000 -0.029250 0
25.490000 -0.023724 0
25.495000 -0.017495 0
25.500000 -0.010492 0
25.505000 -0.002652 0
25.510000 0.006087 0
25.515000 0.015781 0
25.520000 0.026477 0
25.525000 0.038213 0
25.530000 0.051016 0
25.535000 0.064897 0
25.540000 0.079850 0
25.545000 0.095852 0
25.550000 0.112857 0
25.555000 0.130797 0
25.560000 0.149582 0
25.565000 0.169096 0
25.570000 0.189200 0
25.575000 0.209731 0
25.580000 0.230504 0
25.585000 0.251313 0
25.590000 0.271937 0
25.595000 0.292138 0
25.600000 0.311672 0
25.605000 0.330288 0
25.610000 0.347734 0
25.615000 0.363766 0
25.620000 0.378150 0
25.625000 0.390669 0
25.630000 0.401126 0
25.635000 0.409353 0
25.640000 0.415213 0
25.645000 0.418602 0
25.650000 0.419454 5
25.655000 0.417743 0
25.660000 0.413482 0
25.665000 0.406725 0
25.670000 0.397564 0
25.675000 0.386127 0
25.680000 0.372576 0
25.685000 0.357102 0
25.690000 0.339920 0
25.695000 0.321264 0
25.700000 0.301384 0
25.705000 0.280538 0
25.710000 0.258984 0
25.715000 0.236981 0
25.720000 0.214778 0
25.725000 0.192613 0
25.730000 0.170707 0
25.735000 0.149263 0
25.740000 0.128459 0
25.745000 0.108453 0
25.750000 0.089373 0
25.755000 0.071327 0
25.760000 0.054395 0
25.765000 0.038631 0
25.770000 0.024071 0
25.775000 0.010725 0
25.780000 -0.001413 0
25.785000 -0.012367 0
25.790000 -0.022173 0
25.795000 -0.030882 0
25.800000 -0.038552 0
25.805000 -0.045247 0
25.810000 -0.051039 0
25.815000 -0.055999 0
25.820000 -0.060202 0
25.825000 -0.063719 0
25.830000 -0.066622 0
25.835000 -0.068978 0
25.840000 -0.070853 0
25.845000 -0.072305 0
25.850000 -0.073391 0
25.855000 -0.074160 0
25.860000 -0.074658 0
25.865000 -0.074926 0
25.870000 -0.074999 0
25.875000 -0.074909 0
25.880000 -0.074685 0
25.885000 -0.074348 0
25.890000 -0.073920 0
25.895000 -0.073419 0
25.900000 -0.072857 0
25.905000 -0.072249 0
25.910000 -0.071603 0
25.915000 -0.070927 0
25.920000 -0.070230 0
25.925000 -0.069516 0
25.930000 -0.068789 0
25.935000 -0.068054 0
25.940000 -0.067313 0
25.945000 -0.066564 0
25.950000 -0.065800 0
25.955000 -0.065040 0
25.960000 -0.064284 0
25.965000 -0.063531 0
25.970000 -0.062783 0
25.975000 -0.062038 0
25.980000 -0.061296 0
25.985000 -0.060559 0
25.990000 -0.059825 0
25.995000 -0.059094 0
26.000000 -0.058368 0
26.005000 -0.057645 0
26.010000 -0.056925 0
26.015000 -0.056209 0
26.020000 -0.055497 0
26.025000 -0.054788 0
26.030000 -0.054083 0
26.035000 -0.053382 0
26.040000 -0.052684 0
26.045000 -0.051989 0
26.050000 -0.051298 0
26.055000 -0.050610 0
26.060000 -0.049926 0
26.065000 -0.049245 0
26.070000 -0.048567 0
26.075000 -0.047893 0
26.080000 -0.047222 0
26.085000 -0.046555 0
26.090000 -0.045891 0
26.095000 -0.045230 0
26.100000 -0.044572 0
26.105000 -0.043918 0
26.110000 -0.043267 0
26.115000 -0.042619 0
26.120000 -0.041974 0
26.125000 -0.041332 0
26.130000 -0.040693 0
26.135000 -0.040057 0
26.140000 -0.039422 0
26.145000 -0.038789 0
26.150000 -0.038156 0
26.155000 -0.037521 0
26.160000 -0.036881 0
26.165000 -0.036234 0
26.170000 -0.035571 0
26.175000 -0.034886 0
26.180000 -0.034166 0
26.185000 -0.033394 0
26.190000 -0.032547 0
26.195000 -0.031593 0
26.200000 -0.030492 0
26.205000 -0.029190 0
26.210000 -0.027620 0
26.215000 -0.025699 0
26.220000 -0.023324 0
26.225000 -0.020377 0
26.230000 -0.016720 0
26.235000 -0.012199 0
26.240000 -0.006649 0
26.245000 0.000102 0
26.250000 0.008222 0
26.255000 0.017865 0
26.260000 0.029158 0
26.265000 0.042187 0
26.270000 0.056977 0
26.275000 0.073483 0
26.280000 0.091572 0
26.285000 0.111019 0
26.290000 0.131497 0
26.295000 0.152581 0
26.300000 0.173761 0
26.305000 0.194455 0
26.310000 0.214033 0
26.315000 0.231850 0
26.320000 0.247278 0
26.325000 0.259744 0
26.330000 0.268762 0
26.335000 0.273966 0
26.340000 0.275136 1
26.345000 0.272205 0
26.350000 0.265276 0
26.355000 0.254604 0
26.360000 0.240587 0
26.365000 0.223739 0
26.370000 0.204659 0
26.375000 0.183991 0
26.380000 0.162397 0
26.385000 0.140512 0
26.390000 0.118922 0
26.395000 0.098135 0
26.400000 0.078568 0
26.405000 0.060533 0
26.410000 0.044234 0
26.415000 0.029756 0
26.420000 0.017049 0
26.425000 0.005879 0
26.430000 -0.004246 0
26.435000 -0.014196 0
26.440000 -0.025305 0
26.445000 -0.039351 0
26.450000 -0.058247 0
26.455000 -0.083368 0
26.460000 -0.114560 0
26.465000 -0.149135 0
26.470000 -0.181332 0
26.475000 -0.202599 0
26.480000 -0.202671 2
26.485000 -0.171025 0
26.490000 -0.098329 0
26.495000 0.022010 0
26.500000 0.191581 0
26.505000 0.403680 0
26.510000 0.640017 0
26.515000 0.869956 0
26.520000 1.054871 0
26.525000 1.157879 3
26.530000 1.155644 0
26.535000 1.047118 0
26.540000 0.853533 0
26.545000 0.609416 0
26.550000 0.352815 0
26.555000 0.115915 0
26.560000 -0.079693 0
26.565000 -0.223166 0
26.570000 -0.312213 0
26.575000 -0.350814 4
26.580000 -0.347628 0
26.585000 -0.314577 0
26.590000 -0.264933 0
26.595000 -0.210934 0
26.600000 -0.161699 0
26.605000 -0.122220 0
26.610000 -0.093678 0
26.615000 -0.074674 0
26.620000 -0.062664 0
26.625000 -0.055078 0
26.630000 -0.049890 0
26.635000 -0.045749 0
26.640000 -0.041857 0
26.645000 -0.037779 0
26.650000 -0.033286 0
26.655000 -0.028246 0
26.660000 -0.022571 0
26.665000 -0.016187 0
26.670000 -0.009028 0
26.675000 -0.001032 0
26.680000 0.007860 0
26.685000 0.017700 0
26.690000 0.028535 0
26.695000 0.040399 0
26.700000 0.053315 0
26.705000 0.067294 0
26.710000 0.082329 0
26.715000 0.098394 0
26.720000 0.115443 0
26.725000 0.133410 0
26.730000 0.152206 0
26.735000 0.171717 0
26.740000 0.191807 0
26.745000 0.212319 0
26.750000 0.233072 0
26.755000 0.253867 0
26.760000 0.274489 0
26.765000 0.294709 0
26.770000 0.314287 0
26.775000 0.332982 0
26.780000 0.350548 0
26.785000 0.366747 0
26.790000 0.381349 0
26.795000 0.394141 0
26.800000 0.404929 0
26.805000 0.413544 0
26.810000 0.419846 0
26.815000 0.423730 0
26.820000 0.425122 5
26.825000 0.423990 0
26.830000 0.420336 0
26.835000 0.414204 0
26.840000 0.405673 0
26.845000 0.394860 0
26.850000 0.381911 0
26.855000 0.367005 0
26.860000 0.350344 0
26.865000 0.332151 0
26.870000 0.312664 0
26.875000 0.292131 0
26.880000 0.270804 0
26.885000 0.248936 0
26.890000 0.226773 0
26.895000 0.204551 0
26.900000 0.182493 0
26.905000 0.160804 0
26.910000 0.139670 0
26.915000 0.119252 0
26.920000 0.099690 0
26.925000 0.081098 0
26.930000 0.063568 0
26.935000 0.047165 0
26.940000 0.031934 0
26.945000 0.017898 0
26.950000 0.005060 0
26.955000 -0.006593 0
26.960000 -0.017091 0
26.965000 -0.026474 0
26.970000 -0.034795 0
26.975000 -0.042112 0
26.980000 -0.048492 0
26.985000 -0.054003 0
26.990000 -0.058716 0
26.995000 -0.062704 0
27.000000 -0.066035 0
27.005000 -0.068780 0
27.010000 -0.071002 0
27.015000 -0.072763 0
27.020000 -0.074121 0
27.025000 -0.075129 0
27.030000 -0.075834 0
27.035000 -0.076279 0
27.040000 -0.076504 0
27.045000 -0.076542 0
27.050000 -0.076424 0
27.055000 -0.076177 0
27.060000 -0.075821 0
27.065000 -0.075378 0
27.070000 -0.074863 0
27.075000 -0.074291 0
27.080000 -0.073672 0
27.085000 -0.073018 0
27.090000 -0.072335 0
27.095000 -0.071630 0
27.100000 -0.070909 0
27.105000 -0.070175 0
27.110000 -0.069433 0
27.115000 -0.068685 0
27.120000 -0.067931 0
27.125000 -0.067160 0
27.130000 -0.066393 0
27.135000 -0.065630 0
27.140000 -0.064871 0
27.145000 -0.064115 0
27.150000 -0.063364 0
27.155000 -0.062616 0
27.160000 -0.061871 0
27.165000 -0.061131 0
27.170000 -0.060394 0
27.175000 -0.059661 0
27.180000 -0.058931 0
27.185000 -0.058206 0
27.190000 -0.057483 0
27.195000 -0.056765 0
27.200000 -0.056050 0
27.205000 -0.055338 0
27.210000 -0.054630 0
27.215000 -0.053926 0
27.220000 -0.053225 0
27.225000 -0.052528 0
27.230000 -0.051834 0
27.235000 -0.051143 0
27.240000 -0.050456 0
27.245000 -0.049773 0
27.250000 -0.049093 0
27.255000 -0.048416 0
27.260000 -0.047743 0
27.265000 -0.047073 0
27.270000 -0.046406 0
27.275000 -0.045742 0
27.280000 -0.045082 0
27.285000 -0.044425 0
27.290000 -0.043772 0
27.295000 -0.043121 0
27.300000 -0.042474 0
27.305000 -0.041830 0
27.310000 -0.041188 0
27.315000 -0.040548 0
27.320000 -0.039911 0
27.325000 -0.039274 0
27.330000 -0.038637 0
27.335000 -0.037997 0
27.340000 -0.037352 0
27.345000 -0.036697 0
27.350000 -0.036025 0
27.355000 -0.035328 0
27.360000 -0.034592 0
27.365000 -0.033800 0
27.370000 -0.032926 0
27.375000 -0.031938 0
27.380000 -0.030794 0
27.385000 -0.029438 0
27.390000 -0.027803 0
27.395000 -0.025804 0
27.400000 -0.023339 0
27.405000 -0.020288 0
27.410000 -0.016516 0
27.415000 -0.011870 0
27.420000 -0.006190 0
27.425000 0.000693 0
27.430000 0.008940 0
27.435000 0.018700 0
27.440000 0.030094 0
27.445000 0.043201 0
27.450000 0.058044 0
27.455000 0.074577 0
27.460000 0.092668 0
27.465000 0.112097 0
27.470000 0.132547 0
27.475000 0.153609 0
27.480000 0.174788 0
27.485000 0.195521 0
27.490000 0.215198 0
27.495000 0.233191 0
27.500000 0.248888 0
27.505000 0.261722 0
27.510000 0.271211 0
27.515000 0.276980 0
27.520000 0.278794 1
27.525000 0.276564 0
27.530000 0.270361 0
27.535000 0.260406 0
27.540000 0.247059 0
27.545000 0.230800 0
27.550000 0.212194 0
27.555000 0.191862 0
27.560000 0.170444 0
27.565000 0.148570 0
27.570000 0.126826 0
27.575000 0.105730 0
27.580000 0.085718 0
27.585000 0.067128 0
27.590000 0.050193 0
27.595000 0.035039 0
27.600000 0.021669 0
27.605000 0.009932 0
27.610000 -0.000539 0
27.615000 -0.010425 0
27.620000 -0.020824 0
27.625000 -0.033294 0
27.630000 -0.049694 0
27.635000 -0.071716 0
27.640000 -0.100058 0
27.645000 -0.133431 0
27.650000 -0.167772 0
27.655000 -0.196094 0
27.660000 -0.209137 2
27.665000 -0.196623 0
27.670000 -0.148651 0
27.675000 -0.057062 0
27.680000 0.082902 0
27.685000 0.270032 0
27.690000 0.493834 0
27.695000 0.731974 0
27.700000 0.951111 0
27.705000 1.112960 0
27.710000 1.184698 3
27.715000 1.148512 0
27.720000 1.008180 0
27.725000 0.791468 0
27.730000 0.537860 0
27.735000 0.286323 0
27.740000 0.066552 0
27.745000 -0.103963 0
27.750000 -0.218531 0
27.755000 -0.278506 0
27.760000 -0.291116 4
27.765000 -0.267872 0
27.770000 -0.222657 0
27.775000 -0.169157 0
27.780000 -0.118270 0
27.785000 -0.076529 0
27.790000 -0.046075 0
27.795000 -0.025861 0
27.800000 -0.013296 0
27.805000 -0.005598 0
27.810000 -0.000536 0
27.815000 0.003383 0
27.820000 0.007031 0
27.825000 0.010875 0
27.830000 0.015157 0
27.835000 0.020013 0
27.840000 0.025536 0
27.845000 0.031803 0
27.850000 0.038884 0
27.855000 0.046846 0
27.860000 0.055749 0
27.865000 0.065648 0
27.870000 0.076589 0
27.875000 0.088606 0
27.880000 0.101719 0
27.885000 0.115932 0
27.890000 0.131229 0
27.895000 0.147575 0
27.900000 0.164909 0
27.905000 0.183149 0
27.910000 0.202184 0
27.915000 0.221881 0
27.920000 0.242080 0
27.925000 0.262595 0
27.930000 0.283223 0
27.935000 0.303736 0
27.940000 0.323894 0
27.945000 0.343445 0
27.950000 0.362128 0
27.955000 0.379684 0
27.960000 0.395856 0
27.965000 0.410398 0
27.970000 0.423082 0
27.975000 0.433698 0
27.980000 0.442069 0
27.985000 0.448045 0
27.990000 0.451516 0
27.995000 0.452408 5
28.000000 0.450691 0
28.005000 0.446376 0
28.010000 0.439516 0
28.015000 0.430206 0
28.020000 0.418579 0
28.025000 0.404802 0
28.030000 0.389074 0
28.035000 0.371619 0
28.040000 0.352681 0
28.045000 0.332521 0
28.050000 0.311405 0
28.055000 0.289603 0
28.060000 0.267381 0
28.065000 0.244997 0
28.070000 0.222694 0
28.075000 0.200699 0
28.080000 0.179215 0
28.085000 0.158424 0
28.090000 0.138481 0
28.095000 0.119515 0
28.100000 0.101627 0
28.105000 0.084894 0
28.110000 0.069365 0
28.115000 0.055067 0
28.120000 0.042005 0
28.125000 0.030167 0
28.130000 0.019520 0
28.135000 0.010021 0
28.140000 0.001615 0
28.145000 -0.005763 0
28.150000 -0.012183 0
28.155000 -0.017719 0
28.160000 -0.022447 0
28.165000 -0.026442 0
28.170000 -0.029780 0
28.175000 -0.032532 0
28.180000 -0.034766 0
28.185000 -0.036547 0
28.190000 -0.037933 0
28.195000 -0.038979 0
28.200000 -0.039734 0
28.205000 -0.040240 0
28.210000 -0.040538 0
28.215000 -0.040660 0
28.220000 -0.040637 0
28.225000 -0.040494 0
28.230000 -0.040253 0
28.235000 -0.039933 0
28.240000 -0.039548 0
28.245000 -0.039113 0
28.250000 -0.038637 0
28.255000 -0.038129 0
28.260000 -0.037598 0
28.265000 -0.037048 0
28.270000 -0.036484 0
28.275000 -0.035910 0
28.280000 -0.035329 0
28.285000 -0.034741 0
28.290000 -0.034135 0
28.295000 -0.033533 0
28.300000 -0.032934 0
28.305000 -0.032338 0
28.310000 -0.031745 0
28.315000 -0.031154 0
28.320000 -0.030567 0
28.325000 -0.029983 0
28.330000 -0.029401 0
28.335000 -0.028823 0
28.340000 -0.028247 0
28.345000 -0.027674 0
28.350000 -0.027104 0
