0.000000 1.143418 3
0.005000 1.049345 0
0.010000 0.810822 0
0.015000 0.495481 0
0.020000 0.178527 0
0.025000 -0.084286 0
0.030000 -0.265018 0
0.035000 -0.358587 0
0.040000 -0.375638 4
0.045000 -0.337471 0
0.050000 -0.270534 0
0.055000 -0.199061 0
0.060000 -0.138736 0
0.065000 -0.094893 0
0.070000 -0.065349 0
0.075000 -0.044911 0
0.080000 -0.028729 0
0.085000 -0.013588 0
0.090000 0.002200 0
0.095000 0.019368 0
0.100000 0.038172 0
0.105000 0.058651 0
0.110000 0.080739 0
0.115000 0.104299 0
0.120000 0.129132 0
0.125000 0.154977 0
0.130000 0.181515 0
0.135000 0.208371 0
0.140000 0.235122 0
0.145000 0.261308 0
0.150000 0.286439 0
0.155000 0.310016 0
0.160000 0.331543 0
0.165000 0.350544 0
0.170000 0.366581 0
0.175000 0.379271 0
0.180000 0.388300 0
0.185000 0.393434 0
0.190000 0.394532 5
0.195000 0.391550 0
0.200000 0.384543 0
0.205000 0.373663 0
0.210000 0.359155 0
0.215000 0.341345 0
0.220000 0.320630 0
0.225000 0.297459 0
0.230000 0.272322 0
0.235000 0.245730 0
0.240000 0.218197 0
0.245000 0.190223 0
0.250000 0.162282 0
0.255000 0.134811 0
0.260000 0.108192 0
0.265000 0.082754 0
0.270000 0.058763 0
0.275000 0.036424 0
0.280000 0.015879 0
0.285000 -0.002788 0
0.290000 -0.019546 0
0.295000 -0.034411 0
0.300000 -0.047437 0
0.305000 -0.058713 0
0.310000 -0.068351 0
0.315000 -0.076480 0
0.320000 -0.083238 0
0.325000 -0.088770 0
0.330000 -0.093220 0
0.335000 -0.096725 0
0.340000 -0.099417 0
0.345000 -0.101417 0
0.350000 -0.102836 0
0.355000 -0.103771 0
0.360000 -0.104309 0
0.365000 -0.104523 0
0.370000 -0.104479 0
0.375000 -0.104228 0
0.380000 -0.103815 0
0.385000 -0.102959 0
0.390000 -0.102033 0
0.395000 -0.101112 0
0.400000 -0.100195 0
0.405000 -0.099283 0
0.410000 -0.098375 0
0.415000 -0.097472 0
0.420000 -0.096573 0
0.425000 -0.095679 0
0.430000 -0.094789 0
0.435000 -0.093904 0
0.440000 -0.093023 0
0.445000 -0.092146 0
0.450000 -0.091274 0
0.455000 -0.090405 0
0.460000 -0.089540 0
0.465000 -0.088679 0
0.470000 -0.087819 0
0.475000 -0.086959 0
0.480000 -0.086095 0
0.485000 -0.085223 0
0.490000 -0.084331 0
0.495000 -0.083407 0
0.500000 -0.082426 0
0.505000 -0.081352 0
0.510000 -0.080136 0
0.515000 -0.078702 0
0.520000 -0.076947 0
0.525000 -0.074734 0
0.530000 -0.071884 0
0.535000 -0.068172 0
0.540000 -0.063330 0
0.545000 -0.057048 0
0.550000 -0.048990 0
0.555000 -0.038816 0
0.560000 -0.026212 0
0.565000 -0.010933 0
0.570000 0.007154 0
0.575000 0.028022 0
0.580000 0.051437 0
0.585000 0.076934 0
0.590000 0.103798 0
0.595000 0.131083 0
0.600000 0.157656 0
0.605000 0.182263 0
0.610000 0.203627 0
0.615000 0.220555 0
0.620000 0.232048 0
0.625000 0.237399 1
0.630000 0.236261 0
0.635000 0.228692 0
0.640000 0.215140 0
0.645000 0.196407 0
0.650000 0.173567 0
0.655000 0.147862 0
0.660000 0.120596 0
0.665000 0.093017 0
0.670000 0.066220 0
0.675000 0.041032 0
0.680000 0.017874 0
0.685000 -0.003490 0
0.690000 -0.024294 0
0.695000 -0.047053 0
0.700000 -0.075290 0
0.705000 -0.112071 0
0.710000 -0.157228 0
0.715000 -0.204353 0
0.720000 -0.239621 0
0.725000 -0.243712 2
0.730000 -0.195938 0
0.735000 -0.078755 0
0.740000 0.116951 0
0.745000 0.383438 0
0.750000 0.685991 0
0.755000 0.960663 0
0.760000 1.130843 0
0.765000 1.140316 3
0.770000 0.983633 0
0.775000 0.706703 0
0.780000 0.382543 0
0.785000 0.079923 0
0.790000 -0.156330 0
0.795000 -0.307506 0
0.800000 -0.374483 4
0.805000 -0.371555 0
0.810000 -0.321828 0
0.815000 -0.251332 0
0.820000 -0.181837 0
0.825000 -0.125801 0
0.830000 -0.086051 0
0.835000 -0.059268 0
0.840000 -0.040222 0
0.845000 -0.024498 0
0.850000 -0.009326 0
0.855000 0.006697 0
0.860000 0.024160 0
0.865000 0.043259 0
0.870000 0.064008 0
0.875000 0.086329 0
0.880000 0.110079 0
0.885000 0.135053 0
0.890000 0.160990 0
0.895000 0.187569 0
0.900000 0.214419 0
0.905000 0.241121 0
0.910000 0.267221 0
0.915000 0.292240 0
0.920000 0.315691 0
0.925000 0.337087 0
0.930000 0.355965 0
0.935000 0.371899 0
0.940000 0.384515 0
0.945000 0.393507 0
0.950000 0.398648 0
0.955000 0.399800 5
0.960000 0.396916 0
0.965000 0.390048 0
0.970000 0.379342 0
0.975000 0.365032 0
0.980000 0.347432 0
0.985000 0.326927 0
0.990000 0.303952 0
0.995000 0.278984 0
1.000000 0.252520 0
1.005000 0.225063 0
1.010000 0.197107 0
1.015000 0.169119 0
1.020000 0.141531 0
1.025000 0.114728 0
1.030000 0.089040 0
1.035000 0.064739 0
1.040000 0.042037 0
1.045000 0.021086 0
1.050000 0.001979 0
1.055000 -0.015241 0
1.060000 -0.030580 0
1.065000 -0.044084 0
1.070000 -0.055830 0
1.075000 -0.065922 0
1.080000 -0.074482 0
1.085000 -0.081645 0
1.090000 -0.087550 0
1.095000 -0.092338 0
1.100000 -0.096147 0
1.105000 -0.099108 0
1.110000 -0.101343 0
1.115000 -0.102964 0
1.120000 -0.104071 0
1.125000 -0.104753 0
1.130000 -0.105088 0
1.135000 -0.105142 0
1.140000 -0.104970 0
1.145000 -0.104621 0
1.150000 -0.104068 0
1.155000 -0.103136 0
1.160000 -0.102209 0
1.165000 -0.101287 0
1.170000 -0.100369 0
1.175000 -0.099456 0
1.180000 -0.098547 0
1.185000 -0.097643 0
1.190000 -0.096744 0
1.195000 -0.095849 0
1.200000 -0.094958 0
1.205000 -0.094072 0
1.210000 -0.093190 0
1.215000 -0.092312 0
1.220000 -0.091439 0
1.225000 -0.090569 0
1.230000 -0.089703 0
1.235000 -0.088840 0
1.240000 -0.087978 0
1.245000 -0.087115 0
1.250000 -0.086247 0
1.255000 -0.085368 0
1.260000 -0.084466 0
1.265000 -0.083526 0
1.270000 -0.082521 0
1.275000 -0.081413 0
1.280000 -0.080146 0
1.285000 -0.078642 0
1.290000 -0.076790 0
1.295000 -0.074449 0
1.300000 -0.071432 0
1.305000 -0.067511 0
1.310000 -0.062414 0
1.315000 -0.055832 0
1.320000 -0.047435 0
1.325000 -0.036891 0
1.330000 -0.023902 0
1.335000 -0.008241 0
1.340000 0.010203 0
1.345000 0.031380 0
1.350000 0.055036 0
1.355000 0.080690 0
1.360000 0.107621 0
1.365000 0.134887 0
1.370000 0.161367 0
1.375000 0.185832 0
1.380000 0.207033 0
1.385000 0.223809 0
1.390000 0.235191 0
1.395000 0.240490 1
1.400000 0.239374 0
1.405000 0.231893 0
1.410000 0.218482 0
1.415000 0.199917 0
1.420000 0.177239 0
1.425000 0.151660 0
1.430000 0.124453 0
1.435000 0.096847 0
1.440000 0.069928 0
1.445000 0.044538 0
1.450000 0.021137 0
1.455000 -0.000413 0
1.460000 -0.021173 0
1.465000 -0.043428 0
1.470000 -0.070533 0
1.475000 -0.105723 0
1.480000 -0.149611 0
1.485000 -0.197215 0
1.490000 -0.236367 0
1.495000 -0.248976 2
1.500000 -0.214713 0
1.505000 -0.115318 0
1.510000 0.060703 0
1.515000 0.310874 0
1.520000 0.608880 0
1.525000 0.899200 0
1.530000 1.107504 0
1.535000 1.169239 3
1.540000 1.061919 0
1.545000 0.816672 0
1.550000 0.499800 0
1.555000 0.183172 0
1.560000 -0.080153 0
1.565000 -0.263289 0
1.570000 -0.360915 0
1.575000 -0.382652 4
1.580000 -0.348373 0
1.585000 -0.283285 0
1.590000 -0.211236 0
1.595000 -0.148571 0
1.600000 -0.101830 0
1.605000 -0.069854 0
1.610000 -0.047899 0
1.615000 -0.031069 0
1.620000 -0.015884 0
1.625000 -0.000395 0
1.630000 0.016300 0
1.635000 0.034548 0
1.640000 0.054436 0
1.645000 0.075928 0
1.650000 0.098917 0
1.655000 0.123235 0
1.660000 0.148656 0
1.665000 0.174897 0
1.670000 0.201624 0
1.675000 0.228450 0
1.680000 0.254953 0
1.685000 0.280675 0
1.690000 0.305142 0
1.695000 0.327874 0
1.700000 0.348404 0
1.705000 0.366287 0
1.710000 0.381123 0
1.715000 0.392566 0
1.720000 0.400341 0
1.725000 0.404252 5
1.730000 0.404191 0
1.735000 0.400140 0
1.740000 0.392178 0
1.745000 0.380472 0
1.750000 0.365272 0
1.755000 0.346907 0
1.760000 0.325764 0
1.765000 0.302284 0
1.770000 0.276938 0
1.775000 0.250216 0
1.780000 0.222611 0
1.785000 0.194602 0
1.790000 0.166641 0
1.795000 0.139145 0
1.800000 0.112481 0
1.805000 0.086966 0
1.810000 0.062857 0
1.815000 0.040354 0
1.820000 0.019598 0
1.825000 0.000676 0
1.830000 -0.016377 0
1.835000 -0.031570 0
1.840000 -0.044949 0
1.845000 -0.056594 0
1.850000 -0.066608 0
1.855000 -0.075111 0
1.860000 -0.082234 0
1.865000 -0.088116 0
1.870000 -0.092894 0
1.875000 -0.096703 0
1.880000 -0.099671 0
1.885000 -0.101919 0
1.890000 -0.103555 0
1.895000 -0.104680 0
1.900000 -0.105380 0
1.905000 -0.105732 0
1.910000 -0.105801 0
1.915000 -0.105644 0
1.920000 -0.105306 0
1.925000 -0.104761 0
1.930000 -0.103826 0
1.935000 -0.102895 0
1.940000 -0.101969 0
1.945000 -0.101048 0
1.950000 -0.100132 0
1.955000 -0.099220 0
1.960000 -0.098312 0
1.965000 -0.097409 0
1.970000 -0.096511 0
1.975000 -0.095617 0
1.980000 -0.094728 0
1.985000 -0.093842 0
1.990000 -0.092962 0
1.995000 -0.092085 0
2.000000 -0.091212 0
2.005000 -0.090344 0
2.010000 -0.089478 0
2.015000 -0.088614 0
2.020000 -0.087749 0
2.025000 -0.086882 0
2.030000 -0.086005 0
2.035000 -0.085111 0
2.040000 -0.084185 0
2.045000 -0.083204 0
2.050000 -0.082138 0
2.055000 -0.080937 0
2.060000 -0.079532 0
2.065000 -0.077831 0
2.070000 -0.075706 0
2.075000 -0.072993 0
2.080000 -0.069485 0
2.085000 -0.064934 0
2.090000 -0.059052 0
2.095000 -0.051522 0
2.100000 -0.042017 0
2.105000 -0.030225 0
2.110000 -0.015884 0
2.115000 0.001173 0
2.120000 0.020983 0
2.125000 0.043400 0
2.130000 0.068072 0
2.135000 0.094415 0
2.140000 0.121619 0
2.145000 0.148675 0
2.150000 0.174428 0
2.155000 0.197654 0
2.160000 0.217152 0
2.165000 0.231851 0
2.170000 0.240901 0
2.175000 0.243760 1
2.180000 0.240241 0
2.185000 0.230538 0
2.190000 0.215204 0
2.195000 0.195100 0
2.200000 0.171314 0
2.205000 0.145065 0
2.210000 0.117598 0
2.215000 0.090085 0
2.220000 0.063529 0
2.225000 0.038662 0
2.230000 0.015800 0
2.235000 -0.005400 0
2.240000 -0.026266 0
2.245000 -0.049340 0
2.250000 -0.078040 0
2.255000 -0.115211 0
2.260000 -0.160504 0
2.265000 -0.207637 0
2.270000 -0.243351 0
2.275000 -0.249194 2
2.280000 -0.205296 0
2.285000 -0.094508 0
2.290000 0.092876 0
2.295000 0.351677 0
2.300000 0.652343 0
2.305000 0.937199 0
2.310000 1.132784 0
2.315000 1.178726 3
2.320000 1.057537 0
2.325000 0.803533 0
2.330000 0.484151 0
2.335000 0.169905 0
2.340000 -0.088456 0
2.345000 -0.265990 0
2.350000 -0.358581 0
2.355000 -0.376520 4
2.360000 -0.339973 0
2.365000 -0.274051 0
2.370000 -0.202169 0
2.375000 -0.140115 0
2.380000 -0.094000 0
2.385000 -0.062462 0
2.390000 -0.040749 0
2.395000 -0.024026 0
2.400000 -0.008884 0
2.405000 0.006585 0
2.410000 0.023263 0
2.415000 0.041488 0
2.420000 0.061346 0
2.425000 0.082802 0
2.430000 0.105749 0
2.435000 0.130021 0
2.440000 0.155393 0
2.445000 0.181586 0
2.450000 0.208270 0
2.455000 0.235063 0
2.460000 0.261545 0
2.465000 0.287264 0
2.470000 0.311751 0
2.475000 0.334530 0
2.480000 0.355134 0
2.485000 0.373125 0
2.490000 0.388100 0
2.495000 0.399715 0
2.500000 0.407692 0
2.505000 0.411830 0
2.510000 0.412018 5
2.515000 0.408231 0
2.520000 0.400540 0
2.525000 0.389103 0
2.530000 0.374164 0
2.535000 0.356040 0
2.540000 0.335112 0
2.545000 0.311812 0
2.550000 0.286604 0
2.555000 0.259975 0
2.560000 0.232412 0
2.565000 0.204394 0
2.570000 0.176372 0
2.575000 0.148765 0
2.580000 0.121943 0
2.585000 0.096227 0
2.590000 0.071881 0
2.595000 0.049111 0
2.600000 0.028063 0
2.605000 0.008833 0
2.610000 -0.008537 0
2.615000 -0.024050 0
2.620000 -0.037747 0
2.625000 -0.049702 0
2.630000 -0.060013 0
2.635000 -0.068797 0
2.640000 -0.076184 0
2.645000 -0.082308 0
2.650000 -0.087308 0
2.655000 -0.091317 0
2.660000 -0.094464 0
2.665000 -0.096871 0
2.670000 -0.098648 0
2.675000 -0.099895 0
2.680000 -0.100702 0
2.685000 -0.101146 0
2.690000 -0.101295 0
2.695000 -0.101207 0
2.700000 -0.100930 0
2.705000 -0.100503 0
2.710000 -0.099660 0
2.715000 -0.098751 0
2.720000 -0.097846 0
2.725000 -0.096945 0
2.730000 -0.096049 0
2.735000 -0.095157 0
2.740000 -0.094270 0
2.745000 -0.093387 0
2.750000 -0.092509 0
2.755000 -0.091635 0
2.760000 -0.090765 0
2.765000 -0.089900 0
2.770000 -0.089039 0
2.775000 -0.088182 0
2.780000 -0.087329 0
2.785000 -0.086480 0
2.790000 -0.085634 0
2.795000 -0.084790 0
2.800000 -0.083946 0
2.805000 -0.083100 0
2.810000 -0.082248 0
2.815000 -0.081381 0
2.820000 -0.080487 0
2.825000 -0.079548 0
2.830000 -0.078535 0
2.835000 -0.077406 0
2.840000 -0.076102 0
2.845000 -0.074537 0
2.850000 -0.072599 0
2.855000 -0.070139 0
2.860000 -0.066966 0
2.865000 -0.062850 0
2.870000 -0.057518 0
2.875000 -0.050666 0
2.880000 -0.041970 0
2.885000 -0.031111 0
2.890000 -0.017808 0
2.895000 -0.001850 0
2.900000 0.016853 0
2.905000 0.038234 0
2.910000 0.062029 0
2.915000 0.087751 0
2.920000 0.114690 0
2.925000 0.141920 0
2.930000 0.168347 0
2.935000 0.192777 0
2.940000 0.213997 0
2.945000 0.230877 0
2.950000 0.242468 0
2.955000 0.248090 1
2.960000 0.247396 0
2.965000 0.240411 0
2.970000 0.227527 0
2.975000 0.209467 0
2.980000 0.187219 0
2.985000 0.161944 0
2.990000 0.134878 0
2.995000 0.107229 0
3.000000 0.080082 0
3.005000 0.054307 0
3.010000 0.030442 0
3.015000 0.008502 0
3.020000 -0.012306 0
3.025000 -0.033899 0
3.030000 -0.059330 0
3.035000 -0.091972 0
3.040000 -0.133467 0
3.045000 -0.180886 0
3.050000 -0.224626 0
3.055000 -0.248689 2
3.060000 -0.233591 0
3.065000 -0.160382 0
3.070000 -0.014792 0
3.075000 0.207133 0
3.080000 0.490296 0
3.085000 0.792448 0
3.090000 1.046672 0
3.095000 1.181763 3
3.100000 1.153374 0
3.105000 0.966647 0
3.110000 0.674189 0
3.115000 0.349208 0
3.120000 0.055728 0
3.125000 -0.167065 0
3.130000 -0.304570 0
3.135000 -0.360081 4
3.140000 -0.349205 0
3.145000 -0.295416 0
3.150000 -0.224122 0
3.155000 -0.155776 0
3.160000 -0.101483 0
3.165000 -0.063210 0
3.170000 -0.037359 0
3.175000 -0.018786 0
3.180000 -0.003264 0
3.185000 0.011825 0
3.190000 0.027799 0
3.195000 0.045213 0
3.200000 0.064248 0
3.205000 0.084917 0
3.210000 0.107142 0
3.215000 0.130782 0
3.220000 0.155636 0
3.225000 0.181448 0
3.230000 0.207905 0
3.235000 0.234644 0
3.240000 0.261257 0
3.245000 0.287301 0
3.250000 0.312305 0
3.255000 0.335791 0
3.260000 0.357283 0
3.265000 0.376323 0
3.270000 0.392489 0
3.275000 0.405409 0
3.280000 0.414772 0
3.285000 0.420347 0
3.290000 0.421984 5
3.295000 0.419625 0
3.300000 0.413307 0
3.305000 0.403157 0
3.310000 0.389390 0
3.315000 0.372300 0
3.320000 0.352253 0
3.325000 0.329667 0
3.330000 0.305002 0
3.335000 0.278743 0
3.340000 0.251384 0
3.345000 0.223413 0
3.350000 0.195295 0
3.355000 0.167465 0
3.360000 0.140313 0
3.365000 0.114179 0
3.370000 0.089348 0
3.375000 0.066044 0
3.380000 0.044434 0
3.385000 0.024629 0
3.390000 0.006684 0
3.395000 -0.009389 0
3.400000 -0.023623 0
3.405000 -0.036083 0
3.410000 -0.046864 0
3.415000 -0.056078 0
3.420000 -0.063855 0
3.425000 -0.070329 0
3.430000 -0.075639 0
3.435000 -0.079922 0
3.440000 -0.083310 0
3.445000 -0.085926 0
3.450000 -0.087885 0
3.455000 -0.089291 0
3.460000 -0.090235 0
3.465000 -0.090800 0
3.470000 -0.091055 0
3.475000 -0.091060 0
3.480000 -0.090867 0
3.485000 -0.090516 0
3.490000 -0.089726 0
3.495000 -0.088866 0
3.500000 -0.088010 0
3.505000 -0.087159 0
3.510000 -0.086312 0
3.515000 -0.085468 0
3.520000 -0.084630 0
3.525000 -0.083795 0
3.530000 -0.082964 0
3.535000 -0.082138 0
3.540000 -0.081316 0
3.545000 -0.080498 0
3.550000 -0.079683 0
3.555000 -0.078873 0
3.560000 -0.078067 0
3.565000 -0.077264 0
3.570000 -0.076464 0
3.575000 -0.075666 0
3.580000 -0.074868 0
3.585000 -0.074068 0
3.590000 -0.073262 0
3.595000 -0.072442 0
3.600000 -0.071595 0
3.605000 -0.070705 0
3.610000 -0.069742 0
3.615000 -0.068666 0
3.620000 -0.067417 0
3.625000 -0.065911 0
3.630000 -0.064036 0
3.635000 -0.061642 0
3.640000 -0.058541 0
3.645000 -0.054499 0
3.650000 -0.049244 0
3.655000 -0.042467 0
3.660000 -0.033843 0
3.665000 -0.023049 0
3.670000 -0.009799 0
3.675000 0.006117 0
3.680000 0.024793 0
3.685000 0.046159 0
3.690000 0.069946 0
3.695000 0.095662 0
3.700000 0.122582 0
3.705000 0.149769 0
3.710000 0.176114 0
3.715000 0.200408 0
3.720000 0.221429 0
3.725000 0.238040 0
3.730000 0.249295 0
3.735000 0.254523 1
3.740000 0.253397 0
3.745000 0.245964 0
3.750000 0.232644 0
3.755000 0.214189 0
3.760000 0.191614 0
3.765000 0.166101 0
3.770000 0.138899 0
3.775000 0.111220 0
3.780000 0.084144 0
3.785000 0.058522 0
3.790000 0.034849 0
3.795000 0.013065 0
3.800000 -0.007748 0
3.805000 -0.029675 0
3.810000 -0.055911 0
3.815000 -0.089773 0
3.820000 -0.132459 0
3.825000 -0.180143 0
3.830000 -0.222097 0
3.835000 -0.241402 2
3.840000 -0.218196 0
3.845000 -0.133818 0
3.850000 0.024885 0
3.855000 0.259307 0
3.860000 0.549822 0
3.865000 0.848609 0
3.870000 1.085235 0
3.875000 1.190563 3
3.880000 1.128075 0
3.885000 0.913142 0
3.890000 0.606868 0
3.895000 0.284420 0
3.900000 0.006058 0
3.905000 -0.194847 0
3.910000 -0.308838 0
3.915000 -0.343231 4
3.920000 -0.316840 0
3.925000 -0.255040 0
3.930000 -0.182973 0
3.935000 -0.118747 0
3.940000 -0.070322 0
3.945000 -0.037219 0
3.950000 -0.014766 0
3.955000 0.002136 0
3.960000 0.017184 0
3.965000 0.032464 0
3.970000 0.048943 0
3.975000 0.066992 0
3.980000 0.086704 0
3.985000 0.108044 0
3.990000 0.130901 0
3.995000 0.155101 0
4.000000 0.180411 0
4.005000 0.206539 0
4.010000 0.233137 0
4.015000 0.259807 0
4.020000 0.286110 0
4.025000 0.311575 0
4.030000 0.335713 0
4.035000 0.358034 0
4.040000 0.378058 0
4.045000 0.395335 0
4.050000 0.409463 0
4.055000 0.420098 0
4.060000 0.426972 0
4.065000 0.429901 5
4.070000 0.428794 0
4.075000 0.423657 0
4.080000 0.414590 0
4.085000 0.401789 0
4.090000 0.385532 0
4.095000 0.366175 0
4.100000 0.344135 0
4.105000 0.319872 0
4.110000 0.293881 0
4.115000 0.266666 0
4.120000 0.238729 0
4.125000 0.210554 0
4.130000 0.182593 0
4.135000 0.155256 0
4.140000 0.128898 0
4.145000 0.103820 0
4.150000 0.080261 0
4.155000 0.058399 0
4.160000 0.038354 0
4.165000 0.020189 0
4.170000 0.003919 0
4.175000 -0.010486 0
4.180000 -0.023092 0
4.185000 -0.033993 0
4.190000 -0.043306 0
4.195000 -0.051160 0
4.200000 -0.057695 0
4.205000 -0.063053 0
4.210000 -0.067373 0
4.215000 -0.070791 0
4.220000 -0.073434 0
4.225000 -0.075417 0
4.230000 -0.076847 0
4.235000 -0.077817 0
4.240000 -0.078409 0
4.245000 -0.078695 0
4.250000 -0.078734 0
4.255000 -0.078578 0
4.260000 -0.078267 0
4.265000 -0.077535 0
4.270000 -0.076736 0
4.275000 -0.075941 0
4.280000 -0.075150 0
4.285000 -0.074362 0
4.290000 -0.073579 0
4.295000 -0.072799 0
4.300000 -0.072024 0
4.305000 -0.071252 0
4.310000 -0.070484 0
4.315000 -0.069720 0
4.320000 -0.068959 0
4.325000 -0.068203 0
4.330000 -0.067450 0
4.335000 -0.066700 0
4.340000 -0.065953 0
4.345000 -0.065209 0
4.350000 -0.064466 0
4.355000 -0.063722 0
4.360000 -0.062975 0
4.365000 -0.062217 0
4.370000 -0.061441 0
4.375000 -0.060631 0
4.380000 -0.059765 0
4.385000 -0.058808 0
4.390000 -0.057709 0
4.395000 -0.056398 0
4.400000 -0.054774 0
4.405000 -0.052704 0
4.410000 -0.050014 0
4.415000 -0.046486 0
4.420000 -0.041860 0
4.425000 -0.035833 0
4.430000 -0.028077 0
4.435000 -0.018257 0
4.440000 -0.006061 0
4.445000 0.008765 0
4.450000 0.026367 0
4.455000 0.046742 0
4.460000 0.069690 0
4.465000 0.094789 0
4.470000 0.121375 0
4.475000 0.148554 0
4.480000 0.175237 0
4.485000 0.200208 0
4.490000 0.222206 0
4.495000 0.240033 0
4.500000 0.252659 0
4.505000 0.259318 0
4.510000 0.259586 1
4.515000 0.253427 0
4.520000 0.241192 0
4.525000 0.223589 0
4.530000 0.201614 0
4.535000 0.176458 0
4.540000 0.149395 0
4.545000 0.121682 0
4.550000 0.094447 0
4.555000 0.068596 0
4.560000 0.044687 0
4.565000 0.022725 0
4.570000 0.001853 0
4.575000 -0.019972 0
4.580000 -0.045970 0
4.585000 -0.079574 0
4.590000 -0.122124 0
4.595000 -0.169838 0
4.600000 -0.211788 0
4.605000 -0.230626 2
4.610000 -0.205988 0
4.615000 -0.118847 0
4.620000 0.043924 0
4.625000 0.282845 0
4.630000 0.576030 0
4.635000 0.872225 0
4.640000 1.098167 0
4.645000 1.185125 3
4.650000 1.101288 0
4.655000 0.869171 0
4.660000 0.555656 0
4.665000 0.237177 0
4.670000 -0.028674 0
4.675000 -0.212568 0
4.680000 -0.308707 0
4.685000 -0.327486 4
4.690000 -0.290257 0
4.695000 -0.223733 0
4.700000 -0.152481 0
4.705000 -0.092407 0
4.710000 -0.048905 0
4.715000 -0.019736 0
4.720000 0.000361 0
4.725000 0.016266 0
4.730000 0.031186 0
4.735000 0.046794 0
4.740000 0.063808 0
4.745000 0.082474 0
4.750000 0.102825 0
4.755000 0.124789 0
4.760000 0.148226 0
4.765000 0.172928 0
4.770000 0.198629 0
4.775000 0.225000 0
4.780000 0.251660 0
4.785000 0.278175 0
4.790000 0.304076 0
4.795000 0.328868 0
4.800000 0.352044 0
4.805000 0.373104 0
4.810000 0.391571 0
4.815000 0.407007 0
4.820000 0.419032 0
4.825000 0.427339 0
4.830000 0.431705 0
4.835000 0.432000 5
4.840000 0.428194 0
4.845000 0.420358 0
4.850000 0.408663 0
4.855000 0.393370 0
4.860000 0.374822 0
4.865000 0.353432 0
4.870000 0.329662 0
4.875000 0.304014 0
4.880000 0.277006 0
4.885000 0.249156 0
4.890000 0.220966 0
4.895000 0.192910 0
4.900000 0.165415 0
4.905000 0.138858 0
4.910000 0.113558 0
4.915000 0.089769 0
4.920000 0.067681 0
4.925000 0.047425 0
4.930000 0.029071 0
4.935000 0.012638 0
4.940000 -0.001902 0
4.945000 -0.014614 0
4.950000 -0.025595 0
4.955000 -0.034963 0
4.960000 -0.042852 0
4.965000 -0.049405 0
4.970000 -0.054769 0
4.975000 -0.059086 0
4.980000 -0.062496 0
4.985000 -0.065127 0
4.990000 -0.067099 0
4.995000 -0.068519 0
5.000000 -0.069483 0
5.005000 -0.070073 0
5.010000 -0.070361 0
5.015000 -0.070407 0
5.020000 -0.070262 0
5.025000 -0.069900 0
5.030000 -0.069139 0
5.035000 -0.068382 0
5.040000 -0.067628 0
5.045000 -0.066878 0
5.050000 -0.066132 0
5.055000 -0.065390 0
5.060000 -0.064651 0
5.065000 -0.063916 0
5.070000 -0.063185 0
5.075000 -0.062457 0
5.080000 -0.061733 0
5.085000 -0.061012 0
5.090000 -0.060295 0
5.095000 -0.059582 0
5.100000 -0.058871 0
5.105000 -0.058163 0
5.110000 -0.057457 0
5.115000 -0.056751 0
5.120000 -0.056042 0
5.125000 -0.055328 0
5.130000 -0.054599 0
5.135000 -0.053844 0
5.140000 -0.053044 0
5.145000 -0.052170 0
5.150000 -0.051180 0
5.155000 -0.050008 0
5.160000 -0.048567 0
5.165000 -0.046735 0
5.170000 -0.044351 0
5.175000 -0.041209 0
5.180000 -0.037057 0
5.185000 -0.031600 0
5.190000 -0.024509 0
5.195000 -0.015437 0
5.200000 -0.004051 0
5.205000 0.009933 0
5.210000 0.026702 0
5.215000 0.046304 0
5.220000 0.068592 0
5.225000 0.093193 0
5.230000 0.119485 0
5.235000 0.146601 0
5.240000 0.173461 0
5.245000 0.198832 0
5.250000 0.221420 0
5.255000 0.239974 0
5.260000 0.253398 0
5.265000 0.260861 0
5.270000 0.261878 1
5.275000 0.256360 0
5.280000 0.244631 0
5.285000 0.227386 0
5.290000 0.205632 0
5.295000 0.180582 0
5.300000 0.153546 0
5.305000 0.125816 0
5.310000 0.098558 0
5.315000 0.072705 0
5.320000 0.048823 0
5.325000 0.026899 0
5.330000 0.006011 0
5.335000 -0.016014 0
5.340000 -0.042545 0
5.345000 -0.077034 0
5.350000 -0.120483 0
5.355000 -0.168250 0
5.360000 -0.208175 0
5.365000 -0.221751 2
5.370000 -0.187967 0
5.375000 -0.087924 0
5.380000 0.090136 0
5.385000 0.343073 0
5.390000 0.642338 0
5.395000 0.928835 0
5.400000 1.125354 0
5.405000 1.168104 3
5.410000 1.039081 0
5.415000 0.776263 0
5.420000 0.453965 0
5.425000 0.146491 0
5.430000 -0.096069 0
5.435000 -0.252053 0
5.440000 -0.321439 4
5.445000 -0.318905 0
5.450000 -0.268689 0
5.455000 -0.198089 0
5.460000 -0.129565 0
5.465000 -0.075406 0
5.470000 -0.037761 0
5.475000 -0.012690 0
5.480000 0.005288 0
5.485000 0.020524 0
5.490000 0.035599 0
5.495000 0.051748 0
5.500000 0.069457 0
5.505000 0.088862 0
5.510000 0.109947 0
5.515000 0.132603 0
5.520000 0.156659 0
5.525000 0.181876 0
5.530000 0.207953 0
5.535000 0.234530 0
5.540000 0.261192 0
5.545000 0.287481 0
5.550000 0.312904 0
5.555000 0.336949 0
5.560000 0.359103 0
5.565000 0.378868 0
5.570000 0.395776 0
5.575000 0.409413 0
5.580000 0.419431 0
5.585000 0.425564 0
5.590000 0.427636 5
5.595000 0.425574 0
5.600000 0.419407 0
5.605000 0.409267 0
5.610000 0.395382 0
5.615000 0.378071 0
5.620000 0.357726 0
5.625000 0.334801 0
5.630000 0.309794 0
5.635000 0.283225 0
5.640000 0.255625 0
5.645000 0.227510 0
5.650000 0.199374 0
5.655000 0.171668 0
5.660000 0.144793 0
5.665000 0.119091 0
5.670000 0.094840 0
5.675000 0.072255 0
5.680000 0.051485 0
5.685000 0.032617 0
5.690000 0.015685 0
5.695000 0.000672 0
5.700000 -0.012479 0
5.705000 -0.023858 0
5.710000 -0.033583 0
5.715000 -0.041785 0
5.720000 -0.048609 0
5.725000 -0.054203 0
5.730000 -0.058713 0
5.735000 -0.062282 0
5.740000 -0.065042 0
5.745000 -0.067118 0
5.750000 -0.068621 0
5.755000 -0.069648 0
5.760000 -0.070287 0
5.765000 -0.070612 0
5.770000 -0.070685 0
5.775000 -0.070560 0
5.780000 -0.070280 0
5.785000 -0.069586 0
5.790000 -0.068827 0
5.795000 -0.068071 0
5.800000 -0.067319 0
5.805000 -0.066571 0
5.810000 -0.065826 0
5.815000 -0.065085 0
5.820000 -0.064348 0
5.825000 -0.063614 0
5.830000 -0.062884 0
5.835000 -0.062158 0
5.840000 -0.061436 0
5.845000 -0.060716 0
5.850000 -0.060001 0
5.855000 -0.059288 0
5.860000 -0.058578 0
5.865000 -0.057869 0
5.870000 -0.057161 0
5.875000 -0.056451 0
5.880000 -0.055733 0
5.885000 -0.055001 0
5.890000 -0.054241 0
5.895000 -0.053435 0
5.900000 -0.052551 0
5.905000 -0.051544 0
5.910000 -0.050347 0
5.915000 -0.048868 0
5.920000 -0.046977 0
5.925000 -0.044507 0
5.930000 -0.041243 0
5.935000 -0.036921 0
5.940000 -0.031237 0
5.945000 -0.023850 0
5.950000 -0.014410 0
5.955000 -0.002583 0
5.960000 0.011906 0
5.965000 0.029227 0
5.970000 0.049390 0
5.975000 0.072206 0
5.980000 0.097242 0
5.985000 0.123812 0
5.990000 0.150980 0
5.995000 0.177607 0
6.000000 0.202416 0
6.005000 0.224090 0
6.010000 0.241388 0
6.015000 0.253258 0
6.020000 0.258943 1
6.025000 0.258062 0
6.030000 0.250647 0
6.035000 0.237144 0
6.040000 0.218367 0
6.045000 0.195417 0
6.050000 0.169571 0
6.055000 0.142168 0
6.060000 0.114490 0
6.065000 0.087651 0
6.070000 0.062484 0
6.075000 0.039381 0
6.080000 0.018027 0
6.085000 -0.002969 0
6.090000 -0.026343 0
6.095000 -0.055765 0
6.100000 -0.094107 0
6.105000 -0.140370 0
6.110000 -0.186671 0
6.115000 -0.217525 2
6.120000 -0.212433 0
6.125000 -0.150431 0
6.130000 -0.014896 0
6.135000 0.200297 0
6.140000 0.481007 0
6.145000 0.783060 0
6.150000 1.034426 0
6.155000 1.158775 3
6.160000 1.112063 0
6.165000 0.906630 0
6.170000 0.603449 0
6.175000 0.280628 0
6.180000 0.001578 0
6.185000 -0.198626 0
6.190000 -0.310263 0
6.195000 -0.341304 4
6.200000 -0.311738 0
6.205000 -0.248144 0
6.210000 -0.176249 0
6.215000 -0.113800 0
6.220000 -0.067789 0
6.225000 -0.036809 0
6.230000 -0.015720 0
6.235000 0.000582 0
6.240000 0.015577 0
6.245000 0.031121 0
6.250000 0.048027 0
6.255000 0.066578 0
6.260000 0.086827 0
6.265000 0.108710 0
6.270000 0.132089 0
6.275000 0.156762 0
6.280000 0.182465 0
6.285000 0.208870 0
6.290000 0.235593 0
6.295000 0.262203 0
6.300000 0.288224 0
6.305000 0.313159 0
6.310000 0.336494 0
6.315000 0.357722 0
6.320000 0.376361 0
6.325000 0.391965 0
6.330000 0.404149 0
6.335000 0.412599 0
6.340000 0.417088 0
6.345000 0.417484 5
6.350000 0.413755 0
6.355000 0.405975 0
6.360000 0.394314 0
6.365000 0.379038 0
6.370000 0.360495 0
6.375000 0.339103 0
6.380000 0.315332 0
6.385000 0.289690 0
6.390000 0.262700 0
6.395000 0.234886 0
6.400000 0.206756 0
6.405000 0.178784 0
6.410000 0.151402 0
6.415000 0.124986 0
6.420000 0.099854 0
6.425000 0.076258 0
6.430000 0.054387 0
6.435000 0.034364 0
6.440000 0.016258 0
6.445000 0.000082 0
6.450000 -0.014196 0
6.455000 -0.026647 0
6.460000 -0.037370 0
6.465000 -0.046488 0
6.470000 -0.054139 0
6.475000 -0.060466 0
6.480000 -0.065618 0
6.485000 -0.069739 0
6.490000 -0.072968 0
6.495000 -0.075435 0
6.500000 -0.077258 0
6.505000 -0.078543 0
6.510000 -0.079385 0
6.515000 -0.079866 0
6.520000 -0.080055 0
6.525000 -0.080012 0
6.530000 -0.079786 0
6.535000 -0.079354 0
6.540000 -0.078546 0
6.545000 -0.077741 0
6.550000 -0.076941 0
6.555000 -0.076145 0
6.560000 -0.075352 0
6.565000 -0.074564 0
6.570000 -0.073779 0
6.575000 -0.072999 0
6.580000 -0.072222 0
6.585000 -0.071449 0
6.590000 -0.070680 0
6.595000 -0.069915 0
6.600000 -0.069154 0
6.605000 -0.068396 0
6.610000 -0.067641 0
6.615000 -0.066889 0
6.620000 -0.066138 0
6.625000 -0.065387 0
6.630000 -0.064633 0
6.635000 -0.063871 0
6.640000 -0.063092 0
6.645000 -0.062281 0
6.650000 -0.061417 0
6.655000 -0.060465 0
6.660000 -0.059377 0
6.665000 -0.058079 0
6.670000 -0.056471 0
6.675000 -0.054416 0
6.680000 -0.051734 0
6.685000 -0.048202 0
6.690000 -0.043547 0
6.695000 -0.037455 0
6.700000 -0.029584 0
6.705000 -0.019585 0
6.710000 -0.007136 0
6.715000 0.008017 0
6.720000 0.026011 0
6.725000 0.046817 0
6.730000 0.070196 0
6.735000 0.095663 0
6.740000 0.122480 0
6.745000 0.149671 0
6.750000 0.176065 0
6.755000 0.200375 0
6.760000 0.221299 0
6.765000 0.237629 0
6.770000 0.248370 0
6.775000 0.252837 1
6.780000 0.250728 0
6.785000 0.242154 0
6.790000 0.227635 0
6.795000 0.208039 0
6.800000 0.184502 0
6.805000 0.158314 0
6.810000 0.130807 0
6.815000 0.103232 0
6.820000 0.076660 0
6.825000 0.051859 0
6.830000 0.029123 0
6.835000 0.007989 0
6.840000 -0.013135 0
6.845000 -0.037170 0
6.850000 -0.067800 0
6.855000 -0.107512 0
6.860000 -0.154438 0
6.865000 -0.199581 0
6.870000 -0.226572 2
6.875000 -0.214657 0
6.880000 -0.143295 0
6.885000 0.003043 0
6.890000 0.228370 0
6.895000 0.515102 0
6.900000 0.815145 0
6.905000 1.054533 0
6.910000 1.159304 3
6.915000 1.092318 0
6.920000 0.873304 0
6.925000 0.565133 0
6.930000 0.243760 0
6.935000 -0.030947 0
6.940000 -0.226626 0
6.945000 -0.334889 0
6.950000 -0.364046 4
6.955000 -0.333808 0
6.960000 -0.270119 0
6.965000 -0.198066 0
6.970000 -0.135095 0
6.975000 -0.088291 0
6.980000 -0.056519 0
6.985000 -0.034850 0
6.990000 -0.018229 0
6.995000 -0.003126 0
7.000000 0.012391 0
7.005000 0.029193 0
7.010000 0.047599 0
7.015000 0.067681 0
7.020000 0.089388 0
7.025000 0.112597 0
7.030000 0.137122 0
7.035000 0.162716 0
7.040000 0.189073 0
7.045000 0.215830 0
7.050000 0.242575 0
7.055000 0.268857 0
7.060000 0.294193 0
7.065000 0.318087 0
7.070000 0.340043 0
7.075000 0.359579 0
7.080000 0.376252 0
7.085000 0.389664 0
7.090000 0.399487 0
7.095000 0.405468 0
7.100000 0.407446 5
7.105000 0.405353 0
7.110000 0.399222 0
7.115000 0.389181 0
7.120000 0.375453 0
7.125000 0.358344 0
7.130000 0.338235 0
7.135000 0.315561 0
7.140000 0.290803 0
7.145000 0.264465 0
7.150000 0.237061 0
7.155000 0.209093 0
7.160000 0.181043 0
7.165000 0.153354 0
7.170000 0.126423 0
7.175000 0.100591 0
7.180000 0.076142 0
7.185000 0.053293 0
7.190000 0.032204 0
7.195000 0.012973 0
7.200000 -0.004356 0
7.205000 -0.019786 0
7.210000 -0.033363 0
7.215000 -0.045165 0
7.220000 -0.055299 0
7.225000 -0.063889 0
7.230000 -0.071071 0
7.235000 -0.076989 0
7.240000 -0.081784 0
7.245000 -0.085599 0
7.250000 -0.088564 0
7.255000 -0.090805 0
7.260000 -0.092434 0
7.265000 -0.093552 0
7.270000 -0.094250 0
7.275000 -0.094603 0
7.280000 -0.094680 0
7.285000 -0.094536 0
7.290000 -0.094217 0
7.295000 -0.093700 0
7.300000 -0.092820 0
7.305000 -0.091945 0
7.310000 -0.091074 0
7.315000 -0.090207 0
7.320000 -0.089345 0
7.325000 -0.088486 0
7.330000 -0.087632 0
7.335000 -0.086783 0
7.340000 -0.085937 0
7.345000 -0.085096 0
7.350000 -0.084259 0
7.355000 -0.083426 0
7.360000 -0.082597 0
7.365000 -0.081772 0
7.370000 -0.080951 0
7.375000 -0.080132 0
7.380000 -0.079316 0
7.385000 -0.078500 0
7.390000 -0.077682 0
7.395000 -0.076857 0
7.400000 -0.076017 0
7.405000 -0.075149 0
7.410000 -0.074234 0
7.415000 -0.073241 0
7.420000 -0.072125 0
7.425000 -0.070821 0
7.430000 -0.069237 0
7.435000 -0.067250 0
7.440000 -0.064696 0
7.445000 -0.061369 0
7.450000 -0.057016 0
7.455000 -0.051344 0
7.460000 -0.044025 0
7.465000 -0.034718 0
7.470000 -0.023099 0
7.475000 -0.008890 0
7.480000 0.008089 0
7.485000 0.027875 0
7.490000 0.050318 0
7.495000 0.075046 0
7.500000 0.101442 0
7.505000 0.128649 0
7.510000 0.155604 0
7.515000 0.181093 0
7.520000 0.203842 0
7.525000 0.222616 0
7.530000 0.236331 0
7.535000 0.244156 0
7.540000 0.245597 1
7.545000 0.240548 0
7.550000 0.229301 0
7.555000 0.212521 0
7.560000 0.191177 0
7.565000 0.166454 0
7.570000 0.139636 0
7.575000 0.112005 0
7.580000 0.084726 0
7.585000 0.058748 0
7.590000 0.034684 0
7.595000 0.012610 0
7.600000 -0.008237 0
7.605000 -0.029808 0
7.610000 -0.055281 0
7.615000 -0.088178 0
7.620000 -0.130115 0
7.625000 -0.177693 0
7.630000 -0.220296 0
7.635000 -0.240641 2
7.640000 -0.218158 0
7.645000 -0.133433 0
7.650000 0.027125 0
7.655000 0.264528 0
7.660000 0.557212 0
7.665000 0.853744 0
7.670000 1.080076 0
7.675000 1.166574 3
7.680000 1.082938 0
7.685000 0.853962 0
7.690000 0.542701 0
7.695000 0.222272 0
7.700000 -0.050617 0
7.705000 -0.245472 0
7.710000 -0.354408 0
7.715000 -0.385351 4
7.720000 -0.357102 0
7.725000 -0.294587 0
7.730000 -0.222308 0
7.735000 -0.157865 0
7.740000 -0.109041 0
7.745000 -0.075432 0
7.750000 -0.052513 0
7.755000 -0.035266 0
7.760000 -0.020001 0
7.765000 -0.004599 0
7.770000 0.011941 0
7.775000 0.030014 0
7.780000 0.049726 0
7.785000 0.071053 0
7.790000 0.093895 0
7.795000 0.118090 0
7.800000 0.143416 0
7.805000 0.169597 0
7.810000 0.196302 0
7.815000 0.223150 0
7.820000 0.249719 0
7.825000 0.275554 0
7.830000 0.300179 0
7.835000 0.323115 0
7.840000 0.343888 0
7.845000 0.362052 0
7.850000 0.377200 0
7.855000 0.388979 0
7.860000 0.397106 0
7.865000 0.401377 0
7.870000 0.401675 5
7.875000 0.397976 0
7.880000 0.390349 0
7.885000 0.378954 0
7.890000 0.364038 0
7.895000 0.345922 0
7.900000 0.324992 0
7.905000 0.301685 0
7.910000 0.276473 0
7.915000 0.249847 0
7.920000 0.222301 0
7.925000 0.194316 0
7.930000 0.166349 0
7.935000 0.138820 0
7.940000 0.112103 0
7.945000 0.086516 0
7.950000 0.062324 0
7.955000 0.039728 0
7.960000 0.018876 0
7.965000 -0.000144 0
7.970000 -0.017293 0
7.975000 -0.032577 0
7.980000 -0.046042 0
7.985000 -0.057765 0
7.990000 -0.067849 0
7.995000 -0.076413 0
8.000000 -0.083590 0
8.005000 -0.089517 0
8.010000 -0.094332 0
8.015000 -0.098171 0
8.020000 -0.101163 0
8.025000 -0.103428 0
8.030000 -0.105078 0
8.035000 -0.106212 0
8.040000 -0.106918 0
8.045000 -0.107272 0
8.050000 -0.107342 0
8.055000 -0.107182 0
8.060000 -0.106842 0
8.065000 -0.106292 0
8.070000 -0.105349 0
8.075000 -0.104411 0
8.080000 -0.103478 0
8.085000 -0.102549 0
8.090000 -0.101625 0
8.095000 -0.100706 0
8.100000 -0.099791 0
8.105000 -0.098880 0
8.110000 -0.097975 0
8.115000 -0.097073 0
8.120000 -0.096177 0
8.125000 -0.095284 0
8.130000 -0.094396 0
8.135000 -0.093513 0
8.140000 -0.092633 0
8.145000 -0.091757 0
8.150000 -0.090884 0
8.155000 -0.090013 0
8.160000 -0.089142 0
8.165000 -0.088267 0
8.170000 -0.087384 0
8.175000 -0.086482 0
8.180000 -0.085549 0
8.185000 -0.084561 0
8.190000 -0.083486 0
8.195000 -0.082276 0
8.200000 -0.080862 0
8.205000 -0.079148 0
8.210000 -0.077007 0
8.215000 -0.074274 0
8.220000 -0.070741 0
8.225000 -0.066157 0
8.230000 -0.060232 0
8.235000 -0.052650 0
8.240000 -0.043080 0
8.245000 -0.031212 0
8.250000 -0.016786 0
8.255000 0.000366 0
8.260000 0.020271 0
8.265000 0.042781 0
8.270000 0.067532 0
8.275000 0.093931 0
8.280000 0.121157 0
8.285000 0.148191 0
8.290000 0.173870 0
8.295000 0.196965 0
8.300000 0.216276 0
8.305000 0.230736 0
8.310000 0.239506 0
8.315000 0.242056 1
8.320000 0.238220 0
8.325000 0.228211 0
8.330000 0.212601 0
8.335000 0.192268 0
8.340000 0.168314 0
8.345000 0.141967 0
8.350000 0.114473 0
8.355000 0.086999 0
8.360000 0.060539 0
8.365000 0.035806 0
8.370000 0.013081 0
8.375000 -0.008035 0
8.380000 -0.028953 0
8.385000 -0.052305 0
8.390000 -0.081542 0
8.395000 -0.119383 0
8.400000 -0.165119 0
8.405000 -0.211919 0
8.410000 -0.245983 0
8.415000 -0.248541 2
8.420000 -0.199729 0
8.425000 -0.082759 0
8.430000 0.111190 0
8.435000 0.375202 0
8.440000 0.677169 0
8.445000 0.957063 0
8.450000 1.141039 0
8.455000 1.171397 3
8.460000 1.035902 0
8.465000 0.773521 0
8.470000 0.452178 0
8.475000 0.140481 0
8.480000 -0.113319 0
8.485000 -0.286132 0
8.490000 -0.374833 0
8.495000 -0.390117 4
8.500000 -0.352154 0
8.505000 -0.285748 0
8.510000 -0.213853 0
8.515000 -0.151869 0
8.520000 -0.105726 0
8.525000 -0.074064 0
8.530000 -0.052202 0
8.535000 -0.035364 0
8.540000 -0.020156 0
8.545000 -0.004666 0
8.550000 0.012003 0
8.555000 0.030199 0
8.560000 0.050013 0
8.565000 0.071417 0
8.570000 0.094309 0
8.575000 0.118529 0
8.580000 0.143861 0
8.585000 0.170035 0
8.590000 0.196729 0
8.595000 0.223573 0
8.600000 0.250157 0
8.605000 0.276038 0
8.610000 0.300755 0
8.615000 0.323841 0
8.620000 0.344833 0
8.625000 0.363294 0
8.630000 0.378821 0
8.635000 0.391065 0
8.640000 0.399739 0
8.645000 0.404634 0
8.650000 0.405621 5
8.655000 0.402661 0
8.660000 0.395804 0
8.665000 0.385189 0
8.670000 0.371039 0
8.675000 0.353650 0
8.680000 0.333386 0
8.685000 0.310660 0
8.690000 0.285925 0
8.695000 0.259655 0
8.700000 0.232332 0
8.705000 0.204431 0
8.710000 0.176405 0
8.715000 0.148677 0
8.720000 0.121627 0
8.725000 0.095585 0
8.730000 0.070828 0
8.735000 0.047578 0
8.740000 0.025997 0
8.745000 0.006195 0
8.750000 -0.011769 0
8.755000 -0.027884 0
8.760000 -0.042177 0
8.765000 -0.054712 0
8.770000 -0.065576 0
8.775000 -0.074879 0
8.780000 -0.082745 0
8.785000 -0.089304 0
8.790000 -0.094694 0
8.795000 -0.099046 0
8.800000 -0.102491 0
8.805000 -0.105152 0
8.810000 -0.107142 0
8.815000 -0.108565 0
8.820000 -0.109513 0
8.825000 -0.110067 0
8.830000 -0.110300 0
8.835000 -0.110272 0
8.840000 -0.110034 0
8.845000 -0.109631 0
8.850000 -0.109036 0
8.855000 -0.108079 0
8.860000 -0.107128 0
8.865000 -0.106181 0
8.870000 -0.105239 0
8.875000 -0.104301 0
8.880000 -0.103368 0
8.885000 -0.102440 0
8.890000 -0.101517 0
8.895000 -0.100598 0
8.900000 -0.099684 0
8.905000 -0.098774 0
8.910000 -0.097868 0
8.915000 -0.096968 0
8.920000 -0.096071 0
8.925000 -0.095178 0
8.930000 -0.094290 0
8.935000 -0.093404 0
8.940000 -0.092520 0
8.945000 -0.091636 0
8.950000 -0.090749 0
8.955000 -0.089852 0
8.960000 -0.088938 0
8.965000 -0.087993 0
8.970000 -0.086994 0
8.975000 -0.085911 0
8.980000 -0.084696 0
8.985000 -0.083284 0
8.990000 -0.081584 0
8.995000 -0.079473 0
9.000000 -0.076795 0
9.005000 -0.073350 0
9.010000 -0.068899 0
9.015000 -0.063166 0
9.020000 -0.055841 0
9.025000 -0.046607 0
9.030000 -0.035155 0
9.035000 -0.021219 0
9.040000 -0.004618 0
9.045000 0.014708 0
9.050000 0.036653 0
9.055000 0.060912 0
9.060000 0.086963 0
9.065000 0.114060 0
9.070000 0.141259 0
9.075000 0.167459 0
9.080000 0.191472 0
9.085000 0.212111 0
9.090000 0.228284 0
9.095000 0.239091 0
9.100000 0.243904 1
9.105000 0.242431 0
9.110000 0.234742 0
9.115000 0.221264 0
9.120000 0.202743 0
9.125000 0.180175 0
9.130000 0.154715 0
9.135000 0.127582 0
9.140000 0.099960 0
9.145000 0.072907 0
9.150000 0.047261 0
9.155000 0.023529 0
9.160000 0.001692 0
9.165000 -0.019073 0
9.170000 -0.040696 0
9.175000 -0.066212 0
9.180000 -0.098938 0
9.185000 -0.140453 0
9.190000 -0.187841 0
9.195000 -0.231647 0
9.200000 -0.256157 2
9.205000 -0.242191 0
9.210000 -0.171021 0
9.215000 -0.028367 0
9.220000 0.190214 0
9.225000 0.470944 0
9.230000 0.773714 0
9.235000 1.033662 0
9.240000 1.179919 3
9.245000 1.165981 0
9.250000 0.992894 0
9.255000 0.708481 0
9.260000 0.383588 0
9.265000 0.082985 0
9.270000 -0.151596 0
9.275000 -0.302792 0
9.280000 -0.371482 4
9.285000 -0.371140 0
9.290000 -0.323643 0
9.295000 -0.253964 0
9.300000 -0.183567 0
9.305000 -0.125447 0
9.310000 -0.083363 0
9.315000 -0.054734 0
9.320000 -0.034616 0
9.325000 -0.018511 0
9.330000 -0.003428 0
9.335000 0.012240 0
9.340000 0.029211 0
9.345000 0.047748 0
9.350000 0.067906 0
9.355000 0.089634 0
9.360000 0.112815 0
9.365000 0.137275 0
9.370000 0.162784 0
9.375000 0.189060 0
9.380000 0.215766 0
9.385000 0.242524 0
9.390000 0.268912 0
9.395000 0.294484 0
9.400000 0.318776 0
9.405000 0.341319 0
9.410000 0.361656 0
9.415000 0.379358 0
9.420000 0.394033 0
9.425000 0.405348 0
9.430000 0.413035 0
9.435000 0.416902 5
9.440000 0.416844 0
9.445000 0.412843 0
9.450000 0.404974 0
9.455000 0.393394 0
9.460000 0.378348 0
9.465000 0.360149 0
9.470000 0.339173 0
9.475000 0.315847 0
9.480000 0.290629 0
9.485000 0.263996 0
9.490000 0.236430 0
9.495000 0.208401 0
9.500000 0.180357 0
9.505000 0.152710 0
9.510000 0.125827 0
9.515000 0.100027 0
9.520000 0.075573 0
9.525000 0.052670 0
9.530000 0.031470 0
9.535000 0.012068 0
9.540000 -0.005489 0
9.545000 -0.021201 0
9.550000 -0.035104 0
9.555000 -0.047267 0
9.560000 -0.057785 0
9.565000 -0.066772 0
9.570000 -0.074353 0
9.575000 -0.080662 0
9.580000 -0.085833 0
9.585000 -0.089999 0
9.590000 -0.093290 0
9.595000 -0.095825 0
9.600000 -0.097715 0
9.605000 -0.099061 0
9.610000 -0.099954 0
9.615000 -0.100471 0
9.620000 -0.100683 0
9.625000 -0.100647 0
9.630000 -0.100412 0
9.635000 -0.100022 0
9.640000 -0.099186 0
9.645000 -0.098279 0
9.650000 -0.097376 0
9.655000 -0.096478 0
9.660000 -0.095584 0
9.665000 -0.094695 0
9.670000 -0.093810 0
9.675000 -0.092929 0
9.680000 -0.092053 0
9.685000 -0.091181 0
9.690000 -0.090314 0
9.695000 -0.089451 0
9.700000 -0.088592 0
9.705000 -0.087738 0
9.710000 -0.086887 0
9.715000 -0.086040 0
9.720000 -0.085197 0
9.725000 -0.084356 0
9.730000 -0.083516 0
9.735000 -0.082676 0
9.740000 -0.081830 0
9.745000 -0.080974 0
9.750000 -0.080097 0
9.755000 -0.079184 0
9.760000 -0.078211 0
9.765000 -0.077143 0
9.770000 -0.075930 0
9.775000 -0.074499 0
9.780000 -0.072754 0
9.785000 -0.070563 0
9.790000 -0.067760 0
9.795000 -0.064137 0
9.800000 -0.059443 0
9.805000 -0.053394 0
9.810000 -0.045678 0
9.815000 -0.035975 0
9.820000 -0.023984 0
9.825000 -0.009458 0
9.830000 0.007762 0
9.835000 0.027697 0
9.840000 0.050196 0
9.845000 0.074904 0
9.850000 0.101245 0
9.855000 0.128421 0
9.860000 0.155445 0
9.865000 0.181190 0
9.870000 0.204460 0
9.875000 0.224081 0
9.880000 0.238999 0
9.885000 0.248373 0
9.890000 0.251652 1
9.895000 0.248629 0
9.900000 0.239462 0
9.905000 0.224659 0
9.910000 0.205033 0
9.915000 0.181625 0
9.920000 0.155617 0
9.925000 0.128226 0
9.930000 0.100614 0
9.935000 0.073796 0
9.940000 0.048542 0
9.945000 0.025253 0
9.950000 0.003749 0
9.955000 -0.017035 0
9.960000 -0.039314 0
9.965000 -0.066307 0
9.970000 -0.101141 0
9.975000 -0.144578 0
9.980000 -0.192265 0
9.985000 -0.233127 0
9.990000 -0.250304 2
9.995000 -0.224366 0
10.000000 -0.137272 0
10.005000 0.023509 0
10.010000 0.258948 0
10.015000 0.549572 0
10.020000 0.848682 0
10.025000 1.087658 0
10.030000 1.198579 3
10.035000 1.143213 0
10.040000 0.934952 0
10.045000 0.632089 0
10.050000 0.308422 0
10.055000 0.024702 0
10.060000 -0.184175 0
10.065000 -0.307078 0
10.070000 -0.349759 4
10.075000 -0.329588 0
10.080000 -0.270965 0
10.085000 -0.198996 0
10.090000 -0.132734 0
10.095000 -0.081515 0
10.100000 -0.045971 0
10.105000 -0.021928 0
10.110000 -0.004266 0
10.115000 0.010961 0
10.120000 0.026092 0
10.125000 0.042265 0
10.130000 0.059937 0
10.135000 0.079246 0
10.140000 0.100183 0
10.145000 0.122656 0
10.150000 0.146511 0
10.155000 0.171534 0
10.160000 0.197456 0
10.165000 0.223953 0
10.170000 0.250650 0
10.175000 0.277127 0
10.180000 0.302933 0
10.185000 0.327595 0
10.190000 0.350628 0
10.195000 0.371560 0
10.200000 0.389936 0
10.205000 0.405342 0
10.210000 0.417418 0
10.215000 0.425870 0
10.220000 0.430483 0
10.225000 0.431129 5
10.230000 0.427771 0
10.235000 0.420468 0
10.240000 0.409370 0
10.245000 0.394712 0
10.250000 0.376810 0
10.255000 0.356043 0
10.260000 0.332844 0
10.265000 0.307683 0
10.270000 0.281050 0
10.275000 0.253442 0
10.280000 0.225342 0
10.285000 0.197213 0
10.290000 0.169479 0
10.295000 0.142521 0
10.300000 0.116664 0
10.305000 0.092178 0
10.310000 0.069274 0
10.315000 0.048103 0
10.320000 0.028761 0
10.325000 0.011291 0
10.330000 -0.004309 0
10.335000 -0.018081 0
10.340000 -0.030100 0
10.345000 -0.040466 0
10.350000 -0.049299 0
10.355000 -0.056729 0
10.360000 -0.062894 0
10.365000 -0.067934 0
10.370000 -0.071983 0
10.375000 -0.075173 0
10.380000 -0.077625 0
10.385000 -0.079451 0
10.390000 -0.080752 0
10.395000 -0.081616 0
10.400000 -0.082122 0
10.405000 -0.082338 0
10.410000 -0.082319 0
10.415000 -0.082115 0
10.420000 -0.081697 0
10.425000 -0.080877 0
10.430000 -0.080061 0
10.435000 -0.079249 0
10.440000 -0.078441 0
10.445000 -0.077637 0
10.450000 -0.076837 0
10.455000 -0.076042 0
10.460000 -0.075250 0
10.465000 -0.074462 0
10.470000 -0.073678 0
10.475000 -0.072898 0
10.480000 -0.072122 0
10.485000 -0.071349 0
10.490000 -0.070581 0
10.495000 -0.069815 0
10.500000 -0.069053 0
10.505000 -0.068293 0
10.510000 -0.067535 0
10.515000 -0.066776 0
10.520000 -0.066014 0
10.525000 -0.065242 0
10.530000 -0.064453 0
10.535000 -0.063631 0
10.540000 -0.062756 0
10.545000 -0.061795 0
10.550000 -0.060701 0
10.555000 -0.059405 0
10.560000 -0.057813 0
10.565000 -0.055800 0
10.570000 -0.053200 0
10.575000 -0.049807 0
10.580000 -0.045372 0
10.585000 -0.039605 0
10.590000 -0.032189 0
10.595000 -0.022794 0
10.600000 -0.011107 0
10.605000 0.003136 0
10.610000 0.020104 0
10.615000 0.039831 0
10.620000 0.062174 0
10.625000 0.086773 0
10.630000 0.113041 0
10.635000 0.140160 0
10.640000 0.167113 0
10.645000 0.192736 0
10.650000 0.215797 0
10.655000 0.235093 0
10.660000 0.249549 0
10.665000 0.258321 0
10.670000 0.260872 1
10.675000 0.257029 0
10.680000 0.247001 0
10.685000 0.231356 0
10.690000 0.210973 0
10.695000 0.186954 0
10.700000 0.160528 0
10.705000 0.132946 0
10.710000 0.105378 0
10.715000 0.078821 0
10.720000 0.053992 0
10.725000 0.031173 0
10.730000 0.009967 0
10.735000 -0.011042 0
10.740000 -0.034493 0
10.745000 -0.063845 0
10.750000 -0.101817 0
10.755000 -0.147674 0
10.760000 -0.194528 0
10.765000 -0.228499 0
10.770000 -0.230746 2
10.775000 -0.181367 0
10.780000 -0.063592 0
10.785000 0.131286 0
10.790000 0.396056 0
10.795000 0.698116 0
10.800000 0.976921 0
10.805000 1.158449 0
10.810000 1.185465 3
10.815000 1.043903 0
10.820000 0.774467 0
10.825000 0.451050 0
10.830000 0.145541 0
10.835000 -0.094330 0
10.840000 -0.248251 0
10.845000 -0.316624 4
10.850000 -0.313979 0
10.855000 -0.264069 0
10.860000 -0.193635 0
10.865000 -0.124831 0
10.870000 -0.070011 0
10.875000 -0.031614 0
10.880000 -0.005963 0
10.885000 0.012323 0
10.890000 0.027623 0
10.895000 0.042600 0
10.900000 0.058560 0
10.905000 0.076031 0
10.910000 0.095175 0
10.915000 0.115986 0
10.920000 0.138372 0
10.925000 0.162171 0
10.930000 0.187161 0
10.935000 0.213058 0
10.940000 0.239519 0
10.945000 0.266148 0
10.950000 0.292504 0
10.955000 0.318112 0
10.960000 0.342473 0
10.965000 0.365084 0
10.970000 0.385452 0
10.975000 0.403111 0
10.980000 0.417639 0
10.985000 0.428677 0
10.990000 0.435939 0
10.995000 0.439227 5
11.000000 0.438438 0
11.005000 0.433568 0
11.010000 0.424712 0
11.015000 0.412064 0
11.020000 0.395905 0
11.025000 0.376594 0
11.030000 0.354556 0
11.035000 0.330261 0
11.040000 0.304215 0
11.045000 0.276934 0
11.050000 0.248931 0
11.055000 0.220701 0
11.060000 0.192704 0
11.065000 0.165357 0
11.070000 0.139022 0
11.075000 0.114000 0
11.080000 0.090533 0
11.085000 0.068795 0
11.090000 0.048905 0
11.095000 0.030920 0
11.100000 0.014849 0
11.105000 0.000656 0
11.110000 -0.011731 0
11.115000 -0.022412 0
11.120000 -0.031509 0
11.125000 -0.039158 0
11.130000 -0.045502 0
11.135000 -0.050686 0
11.140000 -0.054852 0
11.145000 -0.058137 0
11.150000 -0.060667 0
11.155000 -0.062559 0
11.160000 -0.063918 0
11.165000 -0.064837 0
11.170000 -0.065396 0
11.175000 -0.065664 0
11.180000 -0.065700 0
11.185000 -0.065552 0
11.190000 -0.065196 0
11.195000 -0.064458 0
11.200000 -0.063724 0
11.205000 -0.062994 0
11.210000 -0.062267 0
11.215000 -0.061544 0
11.220000 -0.060824 0
11.225000 -0.060108 0
11.230000 -0.059396 0
11.235000 -0.058687 0
11.240000 -0.057982 0
11.245000 -0.057280 0
11.250000 -0.056582 0
11.255000 -0.055887 0
11.260000 -0.055195 0
11.265000 -0.054506 0
11.270000 -0.053820 0
11.275000 -0.053135 0
11.280000 -0.052450 0
11.285000 -0.051762 0
11.290000 -0.051067 0
11.295000 -0.050357 0
11.300000 -0.049620 0
11.305000 -0.048835 0
11.310000 -0.047973 0
11.315000 -0.046989 0
11.320000 -0.045818 0
11.325000 -0.044369 0
11.330000 -0.042518 0
11.335000 -0.040101 0
11.340000 -0.036909 0
11.345000 -0.032689 0
11.350000 -0.027144 0
11.355000 -0.019944 0
11.360000 -0.010744 0
11.365000 0.000784 0
11.370000 0.014919 0
11.375000 0.031840 0
11.380000 0.051582 0
11.385000 0.073990 0
11.390000 0.098677 0
11.395000 0.125012 0
11.400000 0.152121 0
11.405000 0.178919 0
11.410000 0.204178 0
11.415000 0.226608 0
11.420000 0.244968 0
11.425000 0.258178 0
11.430000 0.265419 0
11.435000 0.266221 1
11.440000 0.260511 0
11.445000 0.248617 0
11.450000 0.231243 0
11.455000 0.209394 0
11.460000 0.184280 0
11.465000 0.157205 0
11.470000 0.129455 0
11.475000 0.102186 0
11.480000 0.076324 0
11.485000 0.052430 0
11.490000 0.030489 0
11.495000 0.009584 0
11.500000 -0.012446 0
11.505000 -0.038948 0
11.510000 -0.073364 0
11.515000 -0.116732 0
11.520000 -0.164522 0
11.525000 -0.204750 0
11.530000 -0.219083 2
11.535000 -0.186623 0
11.540000 -0.088468 0
11.545000 0.087343 0
11.550000 0.338245 0
11.555000 0.636752 0
11.560000 0.924995 0
11.565000 1.126334 0
11.570000 1.176095 3
11.575000 1.052725 0
11.580000 0.792830 0
11.585000 0.470998 0
11.590000 0.162721 0
11.595000 -0.080815 0
11.600000 -0.237380 0
11.605000 -0.306836 4
11.610000 -0.304023 0
11.615000 -0.253495 0
11.620000 -0.182844 0
11.625000 -0.114633 0
11.630000 -0.061035 0
11.635000 -0.023981 0
11.640000 0.000633 0
11.645000 0.018340 0
11.650000 0.033458 0
11.655000 0.048512 0
11.660000 0.064693 0
11.665000 0.082460 0
11.670000 0.101937 0
11.675000 0.123098 0
11.680000 0.145829 0
11.685000 0.169950 0
11.690000 0.195212 0
11.695000 0.221307 0
11.700000 0.247862 0
11.705000 0.274454 0
11.710000 0.300613 0
11.715000 0.325839 0
11.720000 0.349612 0
11.725000 0.371413 0
11.730000 0.390742 0
11.735000 0.407133 0
11.740000 0.420176 0
11.745000 0.429530 0
11.750000 0.434941 0
11.755000 0.436248 5
11.760000 0.433394 0
11.765000 0.426429 0
11.770000 0.415503 0
11.775000 0.400867 0
11.780000 0.382858 0
11.785000 0.361888 0
11.790000 0.338426 0
11.795000 0.312981 0
11.800000 0.286086 0
11.805000 0.258274 0
11.810000 0.230065 0
11.815000 0.201947 0
11.820000 0.174367 0
11.825000 0.147714 0
11.830000 0.122320 0
11.835000 0.098450 0
11.840000 0.076300 0
11.845000 0.056007 0
11.850000 0.037641 0
11.855000 0.021222 0
11.860000 0.006721 0
11.865000 -0.005933 0
11.870000 -0.016838 0
11.875000 -0.026119 0
11.880000 -0.033914 0
11.885000 -0.040370 0
11.890000 -0.045639 0
11.895000 -0.049865 0
11.900000 -0.053192 0
11.905000 -0.055750 0
11.910000 -0.057660 0
11.915000 -0.059030 0
11.920000 -0.059956 0
11.925000 -0.060519 0
11.930000 -0.060791 0
11.935000 -0.060832 0
11.940000 -0.060690 0
11.945000 -0.060345 0
11.950000 -0.059631 0
11.955000 -0.058921 0
11.960000 -0.058215 0
11.965000 -0.057512 0
11.970000 -0.056812 0
11.975000 -0.056117 0
11.980000 -0.055424 0
11.985000 -0.054735 0
11.990000 -0.054050 0
11.995000 -0.053367 0
12.000000 -0.052689 0
12.005000 -0.052013 0
12.010000 -0.051341 0
12.015000 -0.050672 0
12.020000 -0.050005 0
12.025000 -0.049340 0
12.030000 -0.048677 0
12.035000 -0.048012 0
12.040000 -0.047342 0
12.045000 -0.046662 0
12.050000 -0.045961 0
12.055000 -0.045223 0
12.060000 -0.044423 0
12.065000 -0.043522 0
12.070000 -0.042464 0
12.075000 -0.041168 0
12.080000 -0.039521 0
12.085000 -0.037371 0
12.090000 -0.034522 0
12.095000 -0.030729 0
12.100000 -0.025700 0
12.105000 -0.019105 0
12.110000 -0.010590 0
12.115000 0.000195 0
12.120000 0.013556 0
12.125000 0.029714 0
12.130000 0.048750 0
12.135000 0.070555 0
12.140000 0.094787 0
12.145000 0.120851 0
12.150000 0.147889 0
12.155000 0.174818 0
12.160000 0.200384 0
12.165000 0.223259 0
12.170000 0.242146 0
12.175000 0.255903 0
12.180000 0.263654 0
12.185000 0.264881 1
12.190000 0.259480 0
12.195000 0.247772 0
12.200000 0.230472 0
12.205000 0.208615 0
12.210000 0.183452 0
12.215000 0.156331 0
12.220000 0.128577 0
12.225000 0.101377 0
12.230000 0.075664 0
12.235000 0.051977 0
12.240000 0.030220 0
12.245000 0.009302 0
12.250000 -0.013199 0
12.255000 -0.040862 0
12.260000 -0.077029 0
12.265000 -0.121920 0
12.270000 -0.169339 0
12.275000 -0.205227 0
12.280000 -0.209598 2
12.285000 -0.160943 0
12.290000 -0.041122 0
12.295000 0.158844 0
12.300000 0.429531 0
12.305000 0.732377 0
12.310000 0.998570 0
12.315000 1.149120 3
12.320000 1.131101 0
12.325000 0.946960 0
12.330000 0.652971 0
12.335000 0.328591 0
12.340000 0.041784 0
12.345000 -0.168042 0
12.350000 -0.288468 0
12.355000 -0.326112 4
12.360000 -0.300482 0
12.365000 -0.238424 0
12.370000 -0.166511 0
12.375000 -0.103458 0
12.380000 -0.056906 0
12.385000 -0.025658 0
12.390000 -0.004518 0
12.395000 0.011742 0
12.400000 0.026682 0
12.405000 0.042192 0
12.410000 0.059088 0
12.415000 0.077654 0
12.420000 0.097935 0
12.425000 0.119863 0
12.430000 0.143293 0
12.435000 0.168014 0
12.440000 0.193751 0
12.445000 0.220164 0
12.450000 0.246855 0
12.455000 0.273378 0
12.460000 0.299245 0
12.465000 0.323942 0
12.470000 0.346946 0
12.475000 0.367742 0
12.480000 0.385841 0
12.485000 0.400799 0
12.490000 0.412234 0
12.495000 0.419842 0
12.500000 0.423410 5
12.505000 0.422826 0
12.510000 0.418082 0
12.515000 0.409276 0
12.520000 0.396608 0
12.525000 0.380373 0
12.530000 0.360947 0
12.535000 0.338772 0
12.540000 0.314343 0
12.545000 0.288185 0
12.550000 0.260834 0
12.555000 0.232822 0
12.560000 0.204657 0
12.565000 0.176810 0
12.570000 0.149702 0
12.575000 0.123698 0
12.580000 0.099095 0
12.585000 0.076127 0
12.590000 0.054959 0
12.595000 0.035694 0
12.600000 0.018377 0
12.605000 0.003001 0
12.610000 -0.010486 0
12.615000 -0.022169 0
12.620000 -0.032162 0
12.625000 -0.040599 0
12.630000 -0.047623 0
12.635000 -0.053386 0
12.640000 -0.058036 0
12.645000 -0.061718 0
12.650000 -0.064571 0
12.655000 -0.066719 0
12.660000 -0.068277 0
12.665000 -0.069348 0
12.670000 -0.070019 0
12.675000 -0.070368 0
12.680000 -0.070458 0
12.685000 -0.070346 0
12.690000 -0.070074 0
12.695000 -0.069383 0
12.700000 -0.068624 0
12.705000 -0.067869 0
12.710000 -0.067118 0
12.715000 -0.066371 0
12.720000 -0.065627 0
12.725000 -0.064888 0
12.730000 -0.064151 0
12.735000 -0.063419 0
12.740000 -0.062690 0
12.745000 -0.061965 0
12.750000 -0.061243 0
12.755000 -0.060525 0
12.760000 -0.059810 0
12.765000 -0.059098 0
12.770000 -0.058389 0
12.775000 -0.057681 0
12.780000 -0.056973 0
12.785000 -0.056263 0
12.790000 -0.055545 0
12.795000 -0.054811 0
12.800000 -0.054047 0
12.805000 -0.053233 0
12.810000 -0.052336 0
12.815000 -0.051307 0
12.820000 -0.050075 0
12.825000 -0.048539 0
12.830000 -0.046565 0
12.835000 -0.043972 0
12.840000 -0.040534 0
12.845000 -0.035976 0
12.850000 -0.029979 0
12.855000 -0.022193 0
12.860000 -0.012264 0
12.865000 0.000139 0
12.870000 0.015277 0
12.875000 0.033287 0
12.880000 0.054138 0
12.885000 0.077576 0
12.890000 0.103099 0
12.895000 0.129939 0
12.900000 0.157084 0
12.905000 0.183330 0
12.910000 0.207356 0
12.915000 0.227835 0
12.920000 0.243552 0
12.925000 0.253521 0
12.930000 0.257088 1
12.935000 0.254000 0
12.940000 0.244434 0
12.945000 0.228978 0
12.950000 0.208572 0
12.955000 0.184412 0
12.960000 0.157834 0
12.965000 0.130188 0
12.970000 0.102724 0
12.975000 0.076479 0
12.980000 0.052142 0
12.985000 0.029859 0
12.990000 0.008903 0
12.995000 -0.012710 0
13.000000 -0.038283 0
13.005000 -0.071496 0
13.010000 -0.113932 0
13.015000 -0.161673 0
13.020000 -0.203013 0
13.025000 -0.219316 2
13.030000 -0.188927 0
13.035000 -0.092076 0
13.040000 0.083815 0
13.045000 0.336022 0
13.050000 0.635366 0
13.055000 0.920698 0
13.060000 1.112308 0
13.065000 1.145723 3
13.070000 1.007411 0
13.075000 0.739548 0
13.080000 0.416495 0
13.085000 0.110981 0
13.090000 -0.128666 0
13.095000 -0.281934 0
13.100000 -0.349313 4
13.105000 -0.345593 0
13.110000 -0.294851 0
13.115000 -0.224067 0
13.120000 -0.155402 0
13.125000 -0.101006 0
13.130000 -0.063051 0
13.135000 -0.037681 0
13.140000 -0.019470 0
13.145000 -0.004077 0
13.150000 0.011095 0
13.155000 0.027305 0
13.160000 0.045052 0
13.165000 0.064484 0
13.170000 0.085586 0
13.175000 0.108259 0
13.180000 0.132336 0
13.185000 0.157585 0
13.190000 0.183714 0
13.195000 0.210372 0
13.200000 0.237153 0
13.205000 0.263608 0
13.210000 0.289253 0
13.215000 0.313583 0
13.220000 0.336091 0
13.225000 0.356280 0
13.230000 0.373685 0
13.235000 0.387889 0
13.240000 0.398537 0
13.245000 0.405355 0
13.250000 0.408155 5
13.255000 0.406850 0
13.260000 0.401452 0
13.265000 0.392074 0
13.270000 0.378928 0
13.275000 0.362312 0
13.280000 0.342603 0
13.285000 0.320239 0
13.290000 0.295704 0
13.295000 0.269511 0
13.300000 0.242183 0
13.305000 0.214235 0
13.310000 0.186160 0
13.315000 0.158415 0
13.320000 0.131409 0
13.325000 0.105494 0
13.330000 0.080960 0
13.335000 0.058035 0
13.340000 0.036882 0
13.345000 0.017604 0
13.350000 0.000246 0
13.355000 -0.015195 0
13.360000 -0.028766 0
13.365000 -0.040547 0
13.370000 -0.050647 0
13.375000 -0.059193 0
13.380000 -0.066325 0
13.385000 -0.072189 0
13.390000 -0.076930 0
13.395000 -0.080692 0
13.400000 -0.083608 0
13.405000 -0.085804 0
13.410000 -0.087394 0
13.415000 -0.088480 0
13.420000 -0.089152 0
13.425000 -0.089487 0
13.430000 -0.089551 0
13.435000 -0.089400 0
13.440000 -0.089080 0
13.445000 -0.088301 0
13.450000 -0.087448 0
13.455000 -0.086599 0
13.460000 -0.085754 0
13.465000 -0.084914 0
13.470000 -0.084078 0
13.475000 -0.083246 0
13.480000 -0.082418 0
13.485000 -0.081595 0
13.490000 -0.080775 0
13.495000 -0.079960 0
13.500000 -0.079148 0
13.505000 -0.078341 0
13.510000 -0.077537 0
13.515000 -0.076737 0
13.520000 -0.075941 0
13.525000 -0.075147 0
13.530000 -0.074354 0
13.535000 -0.073561 0
13.540000 -0.072764 0
13.545000 -0.071957 0
13.550000 -0.071131 0
13.555000 -0.070269 0
13.560000 -0.069348 0
13.565000 -0.068331 0
13.570000 -0.067164 0
13.575000 -0.065769 0
13.580000 -0.064040 0
13.585000 -0.061831 0
13.590000 -0.058957 0
13.595000 -0.055183 0
13.600000 -0.050232 0
13.605000 -0.043783 0
13.610000 -0.035494 0
13.615000 -0.025021 0
13.620000 -0.012052 0
13.625000 0.003646 0
13.630000 0.022184 0
13.635000 0.043500 0
13.640000 0.067313 0
13.645000 0.093101 0
13.650000 0.120088 0
13.655000 0.147267 0
13.660000 0.173453 0
13.665000 0.197356 0
13.670000 0.217689 0
13.675000 0.233279 0
13.680000 0.243175 0
13.685000 0.246750 1
13.690000 0.243760 0
13.695000 0.234375 0
13.700000 0.219160 0
13.705000 0.199019 0
13.710000 0.175108 0
13.715000 0.148719 0
13.720000 0.121172 0
13.725000 0.093695 0
13.730000 0.067323 0
13.735000 0.042776 0
13.740000 0.020280 0
13.745000 -0.000724 0
13.750000 -0.021951 0
13.755000 -0.046424 0
13.760000 -0.077797 0
13.765000 -0.118287 0
13.770000 -0.165495 0
13.775000 -0.209813 0
13.780000 -0.234467 2
13.785000 -0.218679 0
13.790000 -0.142247 0
13.795000 0.009682 0
13.800000 0.239971 0
13.805000 0.529342 0
13.810000 0.828041 0
13.815000 1.061645 0
13.820000 1.157733 3
13.825000 1.083913 0
13.830000 0.861398 0
13.835000 0.552426 0
13.840000 0.231108 0
13.845000 -0.044210 0
13.850000 -0.241726 0
13.855000 -0.352851 0
13.860000 -0.385242 4
13.865000 -0.357717 0
13.870000 -0.295418 0
13.875000 -0.223142 0
13.880000 -0.158717 0
13.885000 -0.109999 0
13.890000 -0.076544 0
13.895000 -0.053757 0
13.900000 -0.036581 0
13.905000 -0.021325 0
13.910000 -0.005887 0
13.915000 0.010719 0
13.920000 0.028875 0
13.925000 0.048680 0
13.930000 0.070107 0
13.935000 0.093049 0
13.940000 0.117339 0
13.945000 0.142749 0
13.950000 0.168997 0
13.955000 0.195743 0
13.960000 0.222599 0
13.965000 0.249133 0
13.970000 0.274884 0
13.975000 0.299371 0
13.980000 0.322107 0
13.985000 0.342617 0
13.990000 0.360453 0
13.995000 0.375209 0
14.000000 0.386537 0
14.005000 0.394161 0
14.010000 0.397885 5
14.015000 0.397606 0
14.020000 0.393312 0
14.025000 0.385087 0
14.030000 0.373110 0
14.035000 0.357640 0
14.040000 0.339015 0
14.045000 0.317636 0
14.050000 0.293952 0
14.055000 0.268444 0
14.060000 0.241611 0
14.065000 0.213950 0
14.070000 0.185945 0
14.075000 0.158050 0
14.080000 0.130681 0
14.085000 0.104203 0
14.090000 0.078927 0
14.095000 0.055104 0
14.100000 0.032927 0
14.105000 0.012529 0
14.110000 -0.006012 0
14.115000 -0.022671 0
14.120000 -0.037463 0
14.125000 -0.050445 0
14.130000 -0.061702 0
14.135000 -0.071342 0
14.140000 -0.079492 0
14.145000 -0.086286 0
14.150000 -0.091865 0
14.155000 -0.096367 0
14.160000 -0.099929 0
14.165000 -0.102677 0
14.170000 -0.104732 0
14.175000 -0.106201 0
14.180000 -0.107181 0
14.185000 -0.107757 0
14.190000 -0.108004 0
14.195000 -0.107986 0
14.200000 -0.107754 0
14.205000 -0.107355 0
14.210000 -0.106765 0
14.215000 -0.105820 0
14.220000 -0.104880 0
14.225000 -0.103944 0
14.230000 -0.103013 0
14.235000 -0.102087 0
14.240000 -0.101165 0
14.245000 -0.100248 0
14.250000 -0.099335 0
14.255000 -0.098427 0
14.260000 -0.097524 0
14.265000 -0.096625 0
14.270000 -0.095730 0
14.275000 -0.094840 0
14.280000 -0.093954 0
14.285000 -0.093072 0
14.290000 -0.092193 0
14.295000 -0.091317 0
14.300000 -0.090442 0
14.305000 -0.089565 0
14.310000 -0.088683 0
14.315000 -0.087789 0
14.320000 -0.086870 0
14.325000 -0.085909 0
14.330000 -0.084879 0
14.335000 -0.083740 0
14.340000 -0.082432 0
14.345000 -0.080875 0
14.350000 -0.078955 0
14.355000 -0.076525 0
14.360000 -0.073395 0
14.365000 -0.069332 0
14.370000 -0.064061 0
14.375000 -0.057273 0
14.380000 -0.048637 0
14.385000 -0.037826 0
14.390000 -0.024549 0
14.395000 -0.008591 0
14.400000 0.010144 0
14.405000 0.031586 0
14.410000 0.055463 0
14.415000 0.081275 0
14.420000 0.108284 0
14.425000 0.135538 0
14.430000 0.161910 0
14.435000 0.186174 0
14.440000 0.207094 0
14.445000 0.223526 0
14.450000 0.234523 0
14.455000 0.239425 1
14.460000 0.237924 0
14.465000 0.230095 0
14.470000 0.216390 0
14.475000 0.197597 0
14.480000 0.174761 0
14.485000 0.149090 0
14.490000 0.121851 0
14.495000 0.094259 0
14.500000 0.067388 0
14.505000 0.042063 0
14.510000 0.018726 0
14.515000 -0.002778 0
14.520000 -0.023531 0
14.525000 -0.045828 0
14.530000 -0.073015 0
14.535000 -0.108290 0
14.540000 -0.152221 0
14.545000 -0.199812 0
14.550000 -0.238946 0
14.555000 -0.251648 2
14.560000 -0.217721 0
14.565000 -0.118998 0
14.570000 0.056034 0
14.575000 0.305159 0
14.580000 0.602692 0
14.585000 0.893999 0
14.590000 1.105386 0
14.595000 1.172010 3
14.600000 1.071490 0
14.605000 0.832157 0
14.610000 0.517649 0
14.615000 0.198739 0
14.620000 -0.070846 0
14.625000 -0.262663 0
14.630000 -0.369713 0
14.635000 -0.400000 4
14.640000 -0.371909 0
14.645000 -0.309708 0
14.650000 -0.237334 0
14.655000 -0.172217 0
14.660000 -0.122358 0
14.665000 -0.087720 0
14.670000 -0.064042 0
14.675000 -0.046378 0
14.680000 -0.030977 0
14.685000 -0.015622 0
14.690000 0.000769 0
14.695000 0.018636 0
14.700000 0.038113 0
14.705000 0.059193 0
14.710000 0.081790 0
14.715000 0.105755 0
14.720000 0.130887 0
14.725000 0.156928 0
14.730000 0.183568 0
14.735000 0.210446 0
14.740000 0.237163 0
14.745000 0.263283 0
14.750000 0.288349 0
14.755000 0.311892 0
14.760000 0.333449 0
14.765000 0.352575 0
14.770000 0.368859 0
14.775000 0.381937 0
14.780000 0.391509 0
14.785000 0.397344 0
14.790000 0.399296 5
14.795000 0.397302 0
14.800000 0.391394 0
14.805000 0.381687 0
14.810000 0.368386 0
14.815000 0.351771 0
14.820000 0.332190 0
14.825000 0.310044 0
14.830000 0.285780 0
14.835000 0.259865 0
14.840000 0.232783 0
14.845000 0.205009 0
14.850000 0.177004 0
14.855000 0.149199 0
14.860000 0.121982 0
14.865000 0.095699 0
14.870000 0.070639 0
14.875000 0.047035 0
14.880000 0.025066 0
14.885000 0.004853 0
14.890000 -0.013532 0
14.895000 -0.030069 0
14.900000 -0.044774 0
14.905000 -0.057703 0
14.910000 -0.068939 0
14.915000 -0.078586 0
14.920000 -0.086764 0
14.925000 -0.093605 0
14.930000 -0.099242 0
14.935000 -0.103810 0
14.940000 -0.107440 0
14.945000 -0.110256 0
14.950000 -0.112374 0
14.955000 -0.113901 0
14.960000 -0.114931 0
14.965000 -0.115549 0
14.970000 -0.115828 0
14.975000 -0.115832 0
14.980000 -0.115615 0
14.985000 -0.115222 0
14.990000 -0.114625 0
14.995000 -0.113641 0
15.000000 -0.112661 0
15.005000 -0.111687 0
15.010000 -0.110717 0
15.015000 -0.109752 0
15.020000 -0.108792 0
15.025000 -0.107837 0
15.030000 -0.106887 0
15.035000 -0.105941 0
15.040000 -0.105000 0
15.045000 -0.104064 0
15.050000 -0.103132 0
15.055000 -0.102205 0
15.060000 -0.101282 0
15.065000 -0.100364 0
15.070000 -0.099450 0
15.075000 -0.098539 0
15.080000 -0.097630 0
15.085000 -0.096722 0
15.090000 -0.095812 0
15.095000 -0.094894 0
15.100000 -0.093962 0
15.105000 -0.093003 0
15.110000 -0.091997 0
15.115000 -0.090916 0
15.120000 -0.089717 0
15.125000 -0.088341 0
15.130000 -0.086703 0
15.135000 -0.084691 0
15.140000 -0.082157 0
15.145000 -0.078912 0
15.150000 -0.074730 0
15.155000 -0.069341 0
15.160000 -0.062445 0
15.165000 -0.053725 0
15.170000 -0.042867 0
15.175000 -0.029591 0
15.180000 -0.013688 0
15.185000 0.004938 0
15.190000 0.026227 0
15.195000 0.049931 0
15.200000 0.075588 0
15.205000 0.102512 0
15.210000 0.129807 0
15.215000 0.156411 0
15.220000 0.181151 0
15.225000 0.202832 0
15.230000 0.220329 0
15.235000 0.232679 0
15.240000 0.239177 0
15.245000 0.239434 1
15.250000 0.233423 0
15.255000 0.221475 0
15.260000 0.204256 0
15.265000 0.182700 0
15.270000 0.157928 0
15.275000 0.131151 0
15.280000 0.103570 0
15.285000 0.076286 0
15.290000 0.050207 0
15.295000 0.025945 0
15.300000 0.003648 0
15.305000 -0.017251 0
15.310000 -0.038356 0
15.315000 -0.062432 0
15.320000 -0.092866 0
15.325000 -0.131980 0
15.330000 -0.178370 0
15.335000 -0.224493 0
15.340000 -0.256192 2
15.345000 -0.254885 0
15.350000 -0.201338 0
15.355000 -0.079605 0
15.360000 0.118209 0
15.365000 0.384386 0
15.370000 0.686670 0
15.375000 0.966060 0
15.380000 1.150587 0
15.385000 1.183879 3
15.390000 1.052915 0
15.395000 0.793802 0
15.400000 0.473327 0
15.405000 0.159954 0
15.410000 -0.097415 0
15.415000 -0.274782 0
15.420000 -0.368179 0
15.425000 -0.387545 4
15.430000 -0.352405 0
15.435000 -0.287224 0
15.440000 -0.215101 0
15.445000 -0.151990 0
15.450000 -0.104488 0
15.455000 -0.071714 0
15.460000 -0.049168 0
15.465000 -0.032034 0
15.470000 -0.016793 0
15.475000 -0.001416 0
15.480000 0.015069 0
15.485000 0.033050 0
15.490000 0.052640 0
15.495000 0.073819 0
15.500000 0.096496 0
15.505000 0.120519 0
15.510000 0.145681 0
15.515000 0.171724 0
15.520000 0.198334 0
15.525000 0.225152 0
15.530000 0.251777 0
15.535000 0.277776 0
15.540000 0.302693 0
15.545000 0.326066 0
15.550000 0.347434 0
15.555000 0.366359 0
15.560000 0.382434 0
15.565000 0.395303 0
15.570000 0.404669 0
15.575000 0.410309 0
15.580000 0.412077 5
15.585000 0.409918 0
15.590000 0.403862 0
15.595000 0.394028 0
15.600000 0.380619 0
15.605000 0.363914 0
15.610000 0.344259 0
15.615000 0.322053 0
15.620000 0.297736 0
15.625000 0.271775 0
15.630000 0.244646 0
15.635000 0.216823 0
15.640000 0.188762 0
15.645000 0.160891 0
15.650000 0.133598 0
15.655000 0.107224 0
15.660000 0.082060 0
15.665000 0.058339 0
15.670000 0.036239 0
15.675000 0.015884 0
15.680000 -0.002653 0
15.685000 -0.019348 0
15.690000 -0.034218 0
15.695000 -0.047313 0
15.700000 -0.058716 0
15.705000 -0.068527 0
15.710000 -0.076866 0
15.715000 -0.083862 0
15.720000 -0.089647 0
15.725000 -0.094355 0
15.730000 -0.098116 0
15.735000 -0.101055 0
15.740000 -0.103287 0
15.745000 -0.104919 0
15.750000 -0.106045 0
15.755000 -0.106752 0
15.760000 -0.107113 0
15.765000 -0.107192 0
15.770000 -0.107045 0
15.775000 -0.106717 0
15.780000 -0.106177 0
15.785000 -0.105235 0
15.790000 -0.104297 0
15.795000 -0.103365 0
15.800000 -0.102437 0
15.805000 -0.101513 0
15.810000 -0.100594 0
15.815000 -0.099680 0
15.820000 -0.098770 0
15.825000 -0.097865 0
15.830000 -0.096964 0
15.835000 -0.096068 0
15.840000 -0.095176 0
15.845000 -0.094289 0
15.850000 -0.093406 0
15.855000 -0.092527 0
15.860000 -0.091652 0
15.865000 -0.090780 0
15.870000 -0.089910 0
15.875000 -0.089042 0
15.880000 -0.088172 0
15.885000 -0.087296 0
15.890000 -0.086407 0
15.895000 -0.085494 0
15.900000 -0.084541 0
15.905000 -0.083520 0
15.910000 -0.082394 0
15.915000 -0.081109 0
15.920000 -0.079587 0
15.925000 -0.077725 0
15.930000 -0.075385 0
15.935000 -0.072393 0
15.940000 -0.068534 0
15.945000 -0.063551 0
15.950000 -0.057156 0
15.955000 -0.049037 0
15.960000 -0.038877 0
15.965000 -0.026387 0
15.970000 -0.011334 0
15.975000 0.006415 0
15.980000 0.026853 0
15.985000 0.049796 0
15.990000 0.074853 0
15.995000 0.101416 0
16.000000 0.128660 0
16.005000 0.155581 0
16.010000 0.181045 0
16.015000 0.203864 0
16.020000 0.222888 0
16.025000 0.237095 0
16.030000 0.245689 0
16.035000 0.248167 1
16.040000 0.244372 0
16.045000 0.234504 0
16.050000 0.219107 0
16.055000 0.199019 0
16.060000 0.175291 0
16.065000 0.149101 0
16.070000 0.121658 0
16.075000 0.094100 0
16.080000 0.067414 0
16.085000 0.042339 0
16.090000 0.019231 0
16.095000 -0.002145 0
16.100000 -0.022925 0
16.105000 -0.045388 0
16.110000 -0.072765 0
16.115000 -0.108090 0
16.120000 -0.151898 0
16.125000 -0.199543 0
16.130000 -0.239727 0
16.135000 -0.255546 2
16.140000 -0.227724 0
16.145000 -0.138497 0
16.150000 0.024310 0
16.155000 0.261259 0
16.160000 0.552528 0
16.165000 0.851369 0
16.170000 1.089597 0
16.175000 1.200000 3
16.180000 1.144972 0
16.185000 0.937717 0
16.190000 0.635632 0
16.195000 0.311694 0
16.200000 0.026392 0
16.205000 -0.185118 0
16.210000 -0.311210 0
16.215000 -0.357055 4
16.220000 -0.339413 0
16.225000 -0.282192 0
16.230000 -0.210360 0
16.235000 -0.143268 0
16.240000 -0.090807 0
16.245000 -0.054109 0
16.250000 -0.029266 0
16.255000 -0.011185 0
16.260000 0.004177 0
16.265000 0.019276 0
16.270000 0.035329 0
16.275000 0.052843 0
16.280000 0.071977 0
16.285000 0.092735 0
16.290000 0.115034 0
16.295000 0.138730 0
16.300000 0.163621 0
16.305000 0.189448 0
16.310000 0.215899 0
16.315000 0.242609 0
16.320000 0.269172 0
16.325000 0.295146 0
16.330000 0.320065 0
16.335000 0.343454 0
16.340000 0.364841 0
16.345000 0.383771 0
16.350000 0.399828 0
16.355000 0.412644 0
16.360000 0.421912 0
16.365000 0.427404 0
16.370000 0.428972 5
16.375000 0.426561 0
16.380000 0.420205 0
16.385000 0.410033 0
16.390000 0.396257 0
16.395000 0.379169 0
16.400000 0.359130 0
16.405000 0.336555 0
16.410000 0.311901 0
16.415000 0.285647 0
16.420000 0.258284 0
16.425000 0.230295 0
16.430000 0.202145 0
16.435000 0.174267 0
16.440000 0.147048 0
16.445000 0.120829 0
16.450000 0.095895 0
16.455000 0.072472 0
16.460000 0.050728 0
16.465000 0.030777 0
16.470000 0.012678 0
16.475000 -0.003555 0
16.480000 -0.017953 0
16.485000 -0.030577 0
16.490000 -0.041519 0
16.495000 -0.050890 0
16.500000 -0.058817 0
16.505000 -0.065433 0
16.510000 -0.070876 0
16.515000 -0.075281 0
16.520000 -0.078781 0
16.525000 -0.081499 0
16.530000 -0.083550 0
16.535000 -0.085037 0
16.540000 -0.086055 0
16.545000 -0.086685 0
16.550000 -0.086997 0
16.555000 -0.087053 0
16.560000 -0.086905 0
16.565000 -0.086594 0
16.570000 -0.085827 0
16.575000 -0.084987 0
16.580000 -0.084150 0
16.585000 -0.083318 0
16.590000 -0.082490 0
16.595000 -0.081666 0
16.600000 -0.080846 0
16.605000 -0.080030 0
16.610000 -0.079218 0
16.615000 -0.078411 0
16.620000 -0.077607 0
16.625000 -0.076807 0
16.630000 -0.076012 0
16.635000 -0.075220 0
16.640000 -0.074431 0
16.645000 -0.073647 0
16.650000 -0.072865 0
16.655000 -0.072085 0
16.660000 -0.071307 0
16.665000 -0.070526 0
16.670000 -0.069741 0
16.675000 -0.068943 0
16.680000 -0.068122 0
16.685000 -0.067263 0
16.690000 -0.066339 0
16.695000 -0.065314 0
16.700000 -0.064132 0
16.705000 -0.062719 0
16.710000 -0.060970 0
16.715000 -0.058746 0
16.720000 -0.055871 0
16.725000 -0.052125 0
16.730000 -0.047247 0
16.735000 -0.040941 0
16.740000 -0.032886 0
16.745000 -0.022759 0
16.750000 -0.010261 0
16.755000 0.004843 0
16.760000 0.022682 0
16.765000 0.043241 0
16.770000 0.066315 0
16.775000 0.091485 0
16.780000 0.118102 0
16.785000 0.145297 0
16.790000 0.172019 0
16.795000 0.197090 0
16.800000 0.219292 0
16.805000 0.237458 0
16.810000 0.250575 0
16.815000 0.257879 0
16.820000 0.258923 1
16.825000 0.253625 0
16.830000 0.242277 0
16.835000 0.225517 0
16.840000 0.204268 0
16.845000 0.179656 0
16.850000 0.152907 0
16.855000 0.125251 0
16.860000 0.097817 0
16.865000 0.071546 0
16.870000 0.047083 0
16.875000 0.024608 0
16.880000 0.003580 0
16.885000 -0.017595 0
16.890000 -0.041706 0
16.895000 -0.072194 0
16.900000 -0.111432 0
16.905000 -0.157975 0
16.910000 -0.204062 0
16.915000 -0.235166 2
16.920000 -0.232306 0
16.925000 -0.175963 0
16.930000 -0.050178 0
16.935000 0.152420 0
16.940000 0.422595 0
16.945000 0.725426 0
16.950000 0.999015 0
16.955000 1.170282 0
16.960000 1.185250 3
16.965000 1.033736 0
16.970000 0.758934 0
16.975000 0.434778 0
16.980000 0.131527 0
16.985000 -0.104947 0
16.990000 -0.255586 0
16.995000 -0.321413 4
17.000000 -0.317173 0
17.005000 -0.266536 0
17.010000 -0.195954 0
17.015000 -0.127225 0
17.020000 -0.072468 0
17.025000 -0.034049 0
17.030000 -0.008327 0
17.035000 0.010023 0
17.040000 0.025356 0
17.045000 0.040331 0
17.050000 0.056263 0
17.055000 0.073689 0
17.060000 0.092776 0
17.065000 0.113524 0
17.070000 0.135842 0
17.075000 0.159576 0
17.080000 0.184508 0
17.085000 0.210360 0
17.090000 0.236798 0
17.095000 0.263433 0
17.100000 0.289832 0
17.105000 0.315527 0
17.110000 0.340026 0
17.115000 0.362830 0
17.120000 0.383452 0
17.125000 0.401425 0
17.130000 0.416328 0
17.135000 0.427797 0
17.140000 0.435540 0
17.145000 0.439350 5
17.150000 0.439113 0
17.155000 0.434812 0
17.160000 0.426527 0
17.165000 0.414435 0
17.170000 0.398803 0
17.175000 0.379976 0
17.180000 0.358362 0
17.185000 0.334423 0
17.190000 0.308653 0
17.195000 0.281561 0
17.200000 0.253659 0
17.205000 0.225439 0
17.210000 0.197365 0
17.215000 0.169859 0
17.220000 0.143289 0
17.225000 0.117968 0
17.230000 0.094146 0
17.235000 0.072012 0
17.240000 0.051694 0
17.245000 0.033263 0
17.250000 0.016738 0
17.255000 0.002094 0
17.260000 -0.010732 0
17.265000 -0.021833 0
17.270000 -0.031326 0
17.275000 -0.039341 0
17.280000 -0.046018 0
17.285000 -0.051502 0
17.290000 -0.055934 0
17.295000 -0.059450 0
17.300000 -0.062181 0
17.305000 -0.064243 0
17.310000 -0.065744 0
17.315000 -0.066781 0
17.320000 -0.067435 0
17.325000 -0.067779 0
17.330000 -0.067874 0
17.335000 -0.067772 0
17.340000 -0.067515 0
17.345000 -0.066837 0
17.350000 -0.066091 0
17.355000 -0.065349 0
17.360000 -0.064610 0
17.365000 -0.063875 0
17.370000 -0.063144 0
17.375000 -0.062417 0
17.380000 -0.061693 0
17.385000 -0.060973 0
17.390000 -0.060256 0
17.395000 -0.059543 0
17.400000 -0.058833 0
17.405000 -0.058127 0
17.410000 -0.057424 0
17.415000 -0.056724 0
17.420000 -0.056027 0
17.425000 -0.055332 0
17.430000 -0.054638 0
17.435000 -0.053943 0
17.440000 -0.053243 0
17.445000 -0.052531 0
17.450000 -0.051799 0
17.455000 -0.051030 0
17.460000 -0.050200 0
17.465000 -0.049272 0
17.470000 -0.048191 0
17.475000 -0.046882 0
17.480000 -0.045237 0
17.485000 -0.043114 0
17.490000 -0.040331 0
17.495000 -0.036658 0
17.500000 -0.031822 0
17.505000 -0.025512 0
17.510000 -0.017392 0
17.515000 -0.007124 0
17.520000 0.005599 0
17.525000 0.021011 0
17.530000 0.039232 0
17.535000 0.060214 0
17.540000 0.083704 0
17.545000 0.109213 0
17.550000 0.136010 0
17.555000 0.163132 0
17.560000 0.189437 0
17.565000 0.213670 0
17.570000 0.234564 0
17.575000 0.250943 0
17.580000 0.261832 0
17.585000 0.266552 1
17.590000 0.264790 0
17.595000 0.256631 0
17.600000 0.242549 0
17.605000 0.223363 0
17.610000 0.200158 0
17.615000 0.174178 0
17.620000 0.146719 0
17.625000 0.119019 0
17.630000 0.092155 0
17.635000 0.066933 0
17.640000 0.043743 0
17.645000 0.022311 0
17.650000 0.001349 0
17.655000 -0.021706 0
17.660000 -0.050382 0
17.665000 -0.087662 0
17.670000 -0.133185 0
17.675000 -0.180300 0
17.680000 -0.214999 0
17.685000 -0.217932 2
17.690000 -0.168531 0
17.695000 -0.049484 0
17.700000 0.147968 0
17.705000 0.415594 0
17.710000 0.718176 0
17.715000 0.991576 0
17.720000 1.159553 0
17.725000 1.166693 3
17.730000 1.005491 0
17.735000 0.723807 0
17.740000 0.399004 0
17.745000 0.101881 0
17.750000 -0.123493 0
17.755000 -0.260635 0
17.760000 -0.313126 4
17.765000 -0.298161 0
17.770000 -0.241343 0
17.775000 -0.169653 0
17.780000 -0.103680 0
17.785000 -0.053332 0
17.790000 -0.018998 0
17.795000 0.003965 0
17.800000 0.020950 0
17.805000 0.035922 0
17.810000 0.051109 0
17.815000 0.067531 0
17.820000 0.085568 0
17.825000 0.105311 0
17.830000 0.126717 0
17.835000 0.149664 0
17.840000 0.173962 0
17.845000 0.199356 0
17.850000 0.225532 0
17.855000 0.252113 0
17.860000 0.278673 0
17.865000 0.304742 0
17.870000 0.329819 0
17.875000 0.353390 0
17.880000 0.374941 0
17.885000 0.393979 0
17.890000 0.410047 0
17.895000 0.422745 0
17.900000 0.431742 0
17.905000 0.436795 0
17.910000 0.437752 5
17.915000 0.434567 0
17.920000 0.427296 0
17.925000 0.416097 0
17.930000 0.401223 0
17.935000 0.383015 0
17.940000 0.361885 0
17.945000 0.338301 0
17.950000 0.312770 0
17.955000 0.285819 0
17.960000 0.257978 0
17.965000 0.229760 0
17.970000 0.201649 0
17.975000 0.174086 0
17.980000 0.147456 0
17.985000 0.122086 0
17.990000 0.098236 0
17.995000 0.076103 0
18.000000 0.055818 0
18.005000 0.037454 0
18.010000 0.021028 0
18.015000 0.006513 0
18.020000 -0.006162 0
18.025000 -0.017094 0
18.030000 -0.026406 0
18.035000 -0.034234 0
18.040000 -0.040726 0
18.045000 -0.046030 0
18.050000 -0.050291 0
18.055000 -0.053651 0
18.060000 -0.056240 0
18.065000 -0.058177 0
18.070000 -0.059572 0
18.075000 -0.060518 0
18.080000 -0.061100 0
18.085000 -0.061387 0
18.090000 -0.061439 0
18.095000 -0.061307 0
18.100000 -0.060968 0
18.105000 -0.060251 0
18.110000 -0.059538 0
18.115000 -0.058829 0
18.120000 -0.058123 0
18.125000 -0.057420 0
18.130000 -0.056721 0
18.135000 -0.056026 0
18.140000 -0.055334 0
18.145000 -0.054645 0
18.150000 -0.053960 0
18.155000 -0.053278 0
18.160000 -0.052600 0
18.165000 -0.051925 0
18.170000 -0.051253 0
18.175000 -0.050583 0
18.180000 -0.049916 0
18.185000 -0.049250 0
18.190000 -0.048583 0
18.195000 -0.047912 0
18.200000 -0.047232 0
18.205000 -0.046533 0
18.210000 -0.045801 0
18.215000 -0.045012 0
18.220000 -0.044132 0
18.225000 -0.043108 0
18.230000 -0.041863 0
18.235000 -0.040295 0
18.240000 -0.038259 0
18.245000 -0.035571 0
18.250000 -0.031998 0
18.255000 -0.027261 0
18.260000 -0.021039 0
18.265000 -0.012984 0
18.270000 -0.002747 0
18.275000 0.009991 0
18.280000 0.025473 0
18.285000 0.043816 0
18.290000 0.064962 0
18.295000 0.088633 0
18.300000 0.114301 0
18.305000 0.141181 0
18.310000 0.168253 0
18.315000 0.194310 0
18.320000 0.218046 0
18.325000 0.238153 0
18.330000 0.253447 0
18.335000 0.262974 0
18.340000 0.266112 1
18.345000 0.262637 0
18.350000 0.252744 0
18.355000 0.237032 0
18.360000 0.216442 0
18.365000 0.192160 0
18.370000 0.165506 0
18.375000 0.137815 0
18.380000 0.110316 0
18.385000 0.084032 0
18.390000 0.059645 0
18.395000 0.037303 0
18.400000 0.016301 0
18.405000 -0.005290 0
18.410000 -0.030706 0
18.415000 -0.063601 0
18.420000 -0.105684 0
18.425000 -0.153403 0
18.430000 -0.195610 0
18.435000 -0.214216 2
18.440000 -0.187884 0
18.445000 -0.096800 0
18.450000 0.072245 0
18.455000 0.318255 0
18.460000 0.615206 0
18.465000 0.905571 0
18.470000 1.111211 0
18.475000 1.164882 3
18.480000 1.044683 0
18.485000 0.786900 0
18.490000 0.465592 0
18.495000 0.156413 0
18.500000 -0.088901 0
18.505000 -0.247564 0
18.510000 -0.319004 4
18.515000 -0.317726 0
18.520000 -0.268056 0
18.525000 -0.197555 0
18.530000 -0.128982 0
18.535000 -0.074810 0
18.540000 -0.037224 0
18.545000 -0.012237 0
18.550000 0.005681 0
18.555000 0.020896 0
18.560000 0.035986 0
18.565000 0.052175 0
18.570000 0.069939 0
18.575000 0.089409 0
18.580000 0.110564 0
18.585000 0.133294 0
18.590000 0.157419 0
18.595000 0.182696 0
18.600000 0.208818 0
18.605000 0.235419 0
18.610000 0.262075 0
18.615000 0.288321 0
18.620000 0.313657 0
18.625000 0.337567 0
18.630000 0.359533 0
18.635000 0.379052 0
18.640000 0.395659 0
18.645000 0.408940 0
18.650000 0.418552 0
18.655000 0.424235 0
18.660000 0.425825 5
18.665000 0.423259 0
18.670000 0.416579 0
18.675000 0.405931 0
18.680000 0.391559 0
18.685000 0.373795 0
18.690000 0.353045 0
18.695000 0.329776 0
18.700000 0.304493 0
18.705000 0.277726 0
18.710000 0.250009 0
18.715000 0.221861 0
18.720000 0.193773 0
18.725000 0.166192 0
18.730000 0.139514 0
18.735000 0.114072 0
18.740000 0.090134 0
18.745000 0.067904 0
18.750000 0.047520 0
18.755000 0.029058 0
18.760000 0.012541 0
18.765000 -0.002056 0
18.770000 -0.014801 0
18.775000 -0.025792 0
18.780000 -0.035149 0
18.785000 -0.043010 0
18.790000 -0.049523 0
18.795000 -0.054836 0
18.800000 -0.059097 0
18.805000 -0.062447 0
18.810000 -0.065019 0
18.815000 -0.066934 0
18.820000 -0.068300 0
18.825000 -0.069215 0
18.830000 -0.069761 0
18.835000 -0.070011 0
18.840000 -0.070025 0
18.845000 -0.069852 0
18.850000 -0.069471 0
18.855000 -0.068712 0
18.860000 -0.067957 0
18.865000 -0.067206 0
18.870000 -0.066458 0
18.875000 -0.065714 0
18.880000 -0.064974 0
18.885000 -0.064237 0
18.890000 -0.063504 0
18.895000 -0.062775 0
18.900000 -0.062049 0
18.905000 -0.061327 0
18.910000 -0.060608 0
18.915000 -0.059893 0
18.920000 -0.059181 0
18.925000 -0.058472 0
18.930000 -0.057766 0
18.935000 -0.057060 0
18.940000 -0.056354 0
18.945000 -0.055644 0
18.950000 -0.054925 0
18.955000 -0.054186 0
18.960000 -0.053412 0
18.965000 -0.052581 0
18.970000 -0.051655 0
18.975000 -0.050580 0
18.980000 -0.049278 0
18.985000 -0.047641 0
18.990000 -0.045523 0
18.995000 -0.042733 0
19.000000 -0.039034 0
19.005000 -0.034140 0
19.010000 -0.027724 0
19.015000 -0.019436 0
19.020000 -0.008924 0
19.025000 0.004126 0
19.030000 0.019947 0
19.035000 0.038643 0
19.040000 0.060131 0
19.045000 0.084104 0
19.050000 0.110002 0
19.055000 0.137003 0
19.060000 0.164053 0
19.065000 0.189921 0
19.070000 0.213285 0
19.075000 0.232839 0
19.080000 0.247414 0
19.085000 0.256093 0
19.090000 0.258304 1
19.095000 0.253882 0
19.100000 0.243087 0
19.105000 0.226580 0
19.110000 0.205352 0
19.115000 0.180628 0
19.120000 0.153746 0
19.125000 0.126041 0
19.130000 0.098723 0
19.135000 0.072770 0
19.140000 0.048793 0
19.145000 0.026813 0
19.150000 0.005921 0
19.155000 -0.016083 0
19.160000 -0.042646 0
19.165000 -0.077297 0
19.170000 -0.120982 0
19.175000 -0.168709 0
19.180000 -0.207669 0
19.185000 -0.218608 2
19.190000 -0.179974 0
19.195000 -0.072773 0
19.200000 0.113983 0
19.205000 0.374718 0
19.210000 0.676309 0
19.215000 0.954379 0
19.220000 1.129471 0
19.225000 1.141956 3
19.230000 0.985190 0
19.235000 0.706708 0
19.240000 0.382274 0
19.245000 0.082425 0
19.250000 -0.147948 0
19.255000 -0.291176 0
19.260000 -0.349647 4
19.265000 -0.339410 0
19.270000 -0.285176 0
19.275000 -0.213710 0
19.280000 -0.146208 0
19.285000 -0.093625 0
19.290000 -0.057258 0
19.295000 -0.032901 0
19.300000 -0.015168 0
19.305000 0.000096 0
19.310000 0.015321 0
19.315000 0.031658 0
19.320000 0.049556 0
19.325000 0.069141 0
19.330000 0.090389 0
19.335000 0.113193 0
19.340000 0.137379 0
19.345000 0.162711 0
19.350000 0.188892 0
19.355000 0.215565 0
19.360000 0.242322 0
19.365000 0.268710 0
19.370000 0.294245 0
19.375000 0.318421 0
19.380000 0.340732 0
19.385000 0.360685 0
19.390000 0.377820 0
19.395000 0.391723 0
19.400000 0.402049 0
19.405000 0.408530 0
19.410000 0.410986 5
19.415000 0.409339 0
19.420000 0.403608 0
19.425000 0.393915 0
19.430000 0.380478 0
19.435000 0.363600 0
19.440000 0.343664 0
19.445000 0.321110 0
19.450000 0.296425 0
19.455000 0.270120 0
19.460000 0.242719 0
19.465000 0.214734 0
19.470000 0.186656 0
19.475000 0.158937 0
19.480000 0.131981 0
19.485000 0.106136 0
19.490000 0.081688 0
19.495000 0.058860 0
19.500000 0.037810 0
19.505000 0.018637 0
19.510000 0.001384 0
19.515000 -0.013955 0
19.520000 -0.027430 0
19.525000 -0.039122 0
19.530000 -0.049142 0
19.535000 -0.057617 0
19.540000 -0.064687 0
19.545000 -0.070498 0
19.550000 -0.075195 0
19.555000 -0.078920 0
19.560000 -0.081807 0
19.565000 -0.083981 0
19.570000 -0.085554 0
19.575000 -0.086629 0
19.580000 -0.087293 0
19.585000 -0.087624 0
19.590000 -0.087687 0
19.595000 -0.087537 0
19.600000 -0.087220 0
19.605000 -0.086449 0
19.610000 -0.085605 0
19.615000 -0.084766 0
19.620000 -0.083931 0
19.625000 -0.083099 0
19.630000 -0.082272 0
19.635000 -0.081449 0
19.640000 -0.080631 0
19.645000 -0.079816 0
19.650000 -0.079005 0
19.655000 -0.078199 0
19.660000 -0.077396 0
19.665000 -0.076597 0
19.670000 -0.075802 0
19.675000 -0.075011 0
19.680000 -0.074223 0
19.685000 -0.073437 0
19.690000 -0.072653 0
19.695000 -0.071869 0
19.700000 -0.071080 0
19.705000 -0.070281 0
19.710000 -0.069463 0
19.715000 -0.068608 0
19.720000 -0.067694 0
19.725000 -0.066684 0
19.730000 -0.065522 0
19.735000 -0.064132 0
19.740000 -0.062406 0
19.745000 -0.060199 0
19.750000 -0.057324 0
19.755000 -0.053550 0
19.760000 -0.048595 0
19.765000 -0.042143 0
19.770000 -0.033850 0
19.775000 -0.023373 0
19.780000 -0.010402 0
19.785000 0.005296 0
19.790000 0.023831 0
19.795000 0.045141 0
19.800000 0.068945 0
19.805000 0.094722 0
19.810000 0.121699 0
19.815000 0.148871 0
19.820000 0.175055 0
19.825000 0.198966 0
19.830000 0.219318 0
19.835000 0.234939 0
19.840000 0.244879 0
19.845000 0.248508 1
19.850000 0.245579 0
19.855000 0.236258 0
19.860000 0.221103 0
19.865000 0.201015 0
19.870000 0.177142 0
19.875000 0.150774 0
19.880000 0.123228 0
19.885000 0.095732 0
19.890000 0.069323 0
19.895000 0.044728 0
19.900000 0.022184 0
19.905000 0.001154 0
19.910000 -0.020045 0
19.915000 -0.044403 0
19.920000 -0.075569 0
19.925000 -0.115829 0
19.930000 -0.162952 0
19.935000 -0.207561 0
19.940000 -0.233090 2
19.945000 -0.218854 0
19.950000 -0.144608 0
19.955000 0.004724 0
19.960000 0.232534 0
19.965000 0.520502 0
19.970000 0.820054 0
19.975000 1.057445 0
19.980000 1.159679 3
19.985000 1.092101 0
19.990000 0.873854 0
19.995000 0.566474 0
20.000000 0.244557 0
20.005000 -0.032538 0
20.010000 -0.232130 0
20.015000 -0.345103 0
20.020000 -0.378862 4
20.025000 -0.352150 0
20.030000 -0.290183 0
20.035000 -0.217936 0
20.040000 -0.153432 0
20.045000 -0.104649 0
20.050000 -0.071182 0
20.055000 -0.048417 0
20.060000 -0.031275 0
20.065000 -0.016048 0
20.070000 -0.000629 0
20.075000 0.015966 0
20.080000 0.034118 0
20.085000 0.053924 0
20.090000 0.075355 0
20.095000 0.098303 0
20.100000 0.122598 0
20.105000 0.148012 0
20.110000 0.174256 0
20.115000 0.200990 0
20.120000 0.227820 0
20.125000 0.254313 0
20.130000 0.280002 0
20.135000 0.304405 0
20.140000 0.327032 0
20.145000 0.347407 0
20.150000 0.365079 0
20.155000 0.379644 0
20.160000 0.390757 0
20.165000 0.398141 0
20.170000 0.401608 5
20.175000 0.401057 0
20.180000 0.396484 0
20.185000 0.387979 0
20.190000 0.375727 0
20.195000 0.359994 0
20.200000 0.341127 0
20.205000 0.319531 0
20.210000 0.295662 0
20.215000 0.270005 0
20.220000 0.243061 0
20.225000 0.215331 0
20.230000 0.187298 0
20.235000 0.159416 0
20.240000 0.132098 0
20.245000 0.105706 0
20.250000 0.080548 0
20.255000 0.056870 0
20.260000 0.034858 0
20.265000 0.014641 0
20.270000 -0.003710 0
20.275000 -0.020172 0
20.280000 -0.034769 0
20.285000 -0.047559 0
20.290000 -0.058631 0
20.295000 -0.068098 0
20.300000 -0.076088 0
20.305000 -0.082736 0
20.310000 -0.088184 0
20.315000 -0.092572 0
20.320000 -0.096034 0
20.325000 -0.098699 0
20.330000 -0.100684 0
20.335000 -0.102096 0
20.340000 -0.103032 0
20.345000 -0.103575 0
20.350000 -0.103798 0
20.355000 -0.103764 0
20.360000 -0.103524 0
20.365000 -0.103122 0
20.370000 -0.102271 0
20.375000 -0.101348 0
20.380000 -0.100430 0
20.385000 -0.099517 0
20.390000 -0.098608 0
20.395000 -0.097704 0
20.400000 -0.096804 0
20.405000 -0.095908 0
20.410000 -0.095018 0
20.415000 -0.094131 0
20.420000 -0.093249 0
20.425000 -0.092371 0
20.430000 -0.091498 0
20.435000 -0.090629 0
20.440000 -0.089764 0
20.445000 -0.088902 0
20.450000 -0.088044 0
20.455000 -0.087188 0
20.460000 -0.086333 0
20.465000 -0.085475 0
20.470000 -0.084610 0
20.475000 -0.083731 0
20.480000 -0.082823 0
20.485000 -0.081869 0
20.490000 -0.080837 0
20.495000 -0.079684 0
20.500000 -0.078345 0
20.505000 -0.076732 0
20.510000 -0.074723 0
20.515000 -0.072161 0
20.520000 -0.068844 0
20.525000 -0.064527 0
20.530000 -0.058926 0
20.535000 -0.051719 0
20.540000 -0.042576 0
20.545000 -0.031172 0
20.550000 -0.017230 0
20.555000 -0.000562 0
20.560000 0.018891 0
20.565000 0.041006 0
20.570000 0.065452 0
20.575000 0.091659 0
20.580000 0.118824 0
20.585000 0.145936 0
20.590000 0.171826 0
20.595000 0.195250 0
20.600000 0.214978 0
20.605000 0.229909 0
20.610000 0.239166 0
20.615000 0.242183 1
20.620000 0.238761 0
20.625000 0.229093 0
20.630000 0.213738 0
20.635000 0.193577 0
20.640000 0.169721 0
20.645000 0.143415 0
20.650000 0.115926 0
20.655000 0.088442 0
20.660000 0.061975 0
20.665000 0.037249 0
20.670000 0.014545 0
20.675000 -0.006556 0
20.680000 -0.027517 0
20.685000 -0.051051 0
20.690000 -0.080671 0
20.695000 -0.119036 0
20.700000 -0.165134 0
20.705000 -0.211560 0
20.710000 -0.243823 2
20.715000 -0.242608 0
20.720000 -0.187841 0
20.725000 -0.063005 0
20.730000 0.139603 0
20.735000 0.410494 0
20.740000 0.713473 0
20.745000 0.984518 0
20.750000 1.148882 0
20.755000 1.153141 3
20.760000 0.993960 0
20.765000 0.716833 0
20.770000 0.392709 0
20.775000 0.088596 0
20.780000 -0.151236 0
20.785000 -0.307648 0
20.790000 -0.380569 0
20.795000 -0.383059 4
20.800000 -0.336976 0
20.805000 -0.267624 0
20.810000 -0.196976 0
20.815000 -0.138473 0
20.820000 -0.096107 0
20.825000 -0.067331 0
20.830000 -0.047143 0
20.835000 -0.030988 0
20.840000 -0.015841 0
20.845000 -0.000088 0
20.850000 0.016986 0
20.855000 0.035641 0
20.860000 0.055928 0
20.865000 0.077792 0
20.870000 0.101111 0
20.875000 0.125707 0
20.880000 0.151344 0
20.885000 0.177730 0
20.890000 0.204522 0
20.895000 0.231332 0
20.900000 0.257731 0
20.905000 0.283263 0
20.910000 0.307458 0
20.915000 0.329839 0
20.920000 0.349948 0
20.925000 0.367352 0
20.930000 0.381662 0
20.935000 0.392547 0
20.940000 0.399745 0
20.945000 0.403077 5
20.950000 0.402447 0
20.955000 0.397854 0
20.960000 0.389386 0
20.965000 0.377222 0
20.970000 0.361619 0
20.975000 0.342910 0
20.980000 0.321487 0
20.985000 0.297790 0
20.990000 0.272288 0
20.995000 0.245467 0
21.000000 0.217815 0
21.005000 0.189803 0
21.010000 0.161878 0
21.015000 0.134447 0
21.020000 0.107872 0
21.025000 0.082459 0
21.030000 0.058462 0
21.035000 0.036072 0
21.040000 0.015428 0
21.045000 -0.003388 0
21.050000 -0.020343 0
21.055000 -0.035448 0
21.060000 -0.048751 0
21.065000 -0.060331 0
21.070000 -0.070290 0
21.075000 -0.078749 0
21.080000 -0.085837 0
21.085000 -0.091691 0
21.090000 -0.096448 0
21.095000 -0.100240 0
21.100000 -0.103196 0
21.105000 -0.105434 0
21.110000 -0.107062 0
21.115000 -0.108179 0
21.120000 -0.108872 0
21.125000 -0.109216 0
21.130000 -0.109277 0
21.135000 -0.109111 0
21.140000 -0.108764 0
21.145000 -0.108207 0
21.150000 -0.107254 0
21.155000 -0.106307 0
21.160000 -0.105364 0
21.165000 -0.104426 0
21.170000 -0.103493 0
21.175000 -0.102564 0
21.180000 -0.101640 0
21.185000 -0.100720 0
21.190000 -0.099805 0
21.195000 -0.098895 0
21.200000 -0.097989 0
21.205000 -0.097088 0
21.210000 -0.096191 0
21.215000 -0.095298 0
21.220000 -0.094410 0
21.225000 -0.093525 0
21.230000 -0.092643 0
21.235000 -0.091764 0
21.240000 -0.090885 0
21.245000 -0.090003 0
21.250000 -0.089113 0
21.255000 -0.088208 0
21.260000 -0.087274 0
21.265000 -0.086290 0
21.270000 -0.085227 0
21.275000 -0.084041 0
21.280000 -0.082667 0
21.285000 -0.081017 0
21.290000 -0.078974 0
21.295000 -0.076381 0
21.300000 -0.073043 0
21.305000 -0.068723 0
21.310000 -0.063143 0
21.315000 -0.055995 0
21.320000 -0.046955 0
21.325000 -0.035707 0
21.330000 -0.021979 0
21.335000 -0.005578 0
21.340000 0.013568 0
21.345000 0.035362 0
21.350000 0.059510 0
21.355000 0.085493 0
21.360000 0.112568 0
21.365000 0.139782 0
21.370000 0.166026 0
21.375000 0.190098 0
21.380000 0.210792 0
21.385000 0.227001 0
21.390000 0.237810 0
21.395000 0.242585 1
21.400000 0.241031 0
21.405000 0.233223 0
21.410000 0.219603 0
21.415000 0.200934 0
21.420000 0.178230 0
21.425000 0.152668 0
21.430000 0.125483 0
21.435000 0.097869 0
21.440000 0.070889 0
21.445000 0.045374 0
21.450000 0.021803 0
21.455000 0.000105 0
21.460000 -0.020642 0
21.465000 -0.042509 0
21.470000 -0.068657 0
21.475000 -0.102371 0
21.480000 -0.144872 0
21.485000 -0.192475 0
21.490000 -0.234718 0
21.495000 -0.254998 2
21.500000 -0.233706 0
21.505000 -0.152270 0
21.510000 0.002662 0
21.515000 0.233252 0
21.520000 0.521500 0
21.525000 0.821837 0
21.530000 1.065541 0
21.535000 1.183045 3
21.540000 1.135550 0
21.545000 0.934587 0
21.550000 0.635653 0
21.555000 0.311212 0
21.560000 0.022517 0
21.565000 -0.194009 0
21.570000 -0.325574 0
21.575000 -0.376411 4
21.580000 -0.362508 0
21.585000 -0.307277 0
21.590000 -0.235684 0
21.595000 -0.167587 0
21.600000 -0.113617 0
21.605000 -0.075525 0
21.610000 -0.049704 0
21.615000 -0.031079 0
21.620000 -0.015490 0
21.625000 -0.000347 0
21.630000 0.015660 0
21.635000 0.033088 0
21.640000 0.052123 0
21.645000 0.072780 0
21.650000 0.094985 0
21.655000 0.118603 0
21.660000 0.143438 0
21.665000 0.169242 0
21.670000 0.195712 0
21.675000 0.222492 0
21.680000 0.249183 0
21.685000 0.275353 0
21.690000 0.300540 0
21.695000 0.324273 0
21.700000 0.346081 0
21.705000 0.365511 0
21.710000 0.382141 0
21.715000 0.395597 0
21.720000 0.405564 0
21.725000 0.411801 0
21.730000 0.414146 5
21.735000 0.412529 0
21.740000 0.406968 0
21.745000 0.397573 0
21.750000 0.384540 0
21.755000 0.368145 0
21.760000 0.348733 0
21.765000 0.326708 0
21.770000 0.302515 0
21.775000 0.276628 0
21.780000 0.249533 0
21.785000 0.221713 0
21.790000 0.193634 0
21.795000 0.165733 0
21.800000 0.138407 0
21.805000 0.112005 0
21.810000 0.086822 0
21.815000 0.063097 0
21.820000 0.041011 0
21.825000 0.020689 0
21.830000 0.002203 0
21.835000 -0.014424 0
21.840000 -0.029210 0
21.845000 -0.042210 0
21.850000 -0.053509 0
21.855000 -0.063211 0
21.860000 -0.071440 0
21.865000 -0.078325 0
21.870000 -0.084005 0
21.875000 -0.088614 0
21.880000 -0.092284 0
21.885000 -0.095142 0
21.890000 -0.097303 0
21.895000 -0.098874 0
21.900000 -0.099951 0
21.905000 -0.100619 0
21.910000 -0.100951 0
21.915000 -0.101010 0
21.920000 -0.100850 0
21.925000 -0.100517 0
21.930000 -0.099983 0
21.935000 -0.099072 0
21.940000 -0.098165 0
21.945000 -0.097263 0
21.950000 -0.096366 0
21.955000 -0.095472 0
21.960000 -0.094584 0
21.965000 -0.093699 0
21.970000 -0.092819 0
21.975000 -0.091944 0
21.980000 -0.091073 0
21.985000 -0.090206 0
21.990000 -0.089343 0
21.995000 -0.088485 0
22.000000 -0.087631 0
22.005000 -0.086780 0
22.010000 -0.085933 0
22.015000 -0.085090 0
22.020000 -0.084247 0
22.025000 -0.083405 0
22.030000 -0.082559 0
22.035000 -0.081705 0
22.040000 -0.080833 0
22.045000 -0.079929 0
22.050000 -0.078974 0
22.055000 -0.077934 0
22.060000 -0.076763 0
22.065000 -0.075396 0
22.070000 -0.073741 0
22.075000 -0.071676 0
22.080000 -0.069041 0
22.085000 -0.065637 0
22.090000 -0.061221 0
22.095000 -0.055515 0
22.100000 -0.048206 0
22.105000 -0.038972 0
22.110000 -0.027503 0
22.115000 -0.013532 0
22.120000 0.003122 0
22.125000 0.022514 0
22.130000 0.044531 0
22.135000 0.068855 0
22.140000 0.094947 0
22.145000 0.122045 0
22.150000 0.149184 0
22.155000 0.175243 0
22.160000 0.199021 0
22.165000 0.219321 0
22.170000 0.235054 0
22.175000 0.245329 0
22.180000 0.249540 1
22.185000 0.247425 0
22.190000 0.239090 0
22.195000 0.225003 0
22.200000 0.205947 0
22.205000 0.182950 0
22.210000 0.157191 0
22.215000 0.129903 0
22.220000 0.102270 0
22.225000 0.075336 0
22.230000 0.049911 0
22.235000 0.026443 0
22.240000 0.004815 0
22.245000 -0.015958 0
22.250000 -0.038017 0
22.255000 -0.064558 0
22.260000 -0.098808 0
22.265000 -0.141779 0
22.270000 -0.189453 0
22.275000 -0.231027 0
22.280000 -0.249703 2
22.285000 -0.225891 0
22.290000 -0.141234 0
22.295000 0.017205 0
22.300000 0.250877 0
22.305000 0.540743 0
22.310000 0.840194 0
22.315000 1.080147 0
22.320000 1.191863 3
22.325000 1.137536 0
22.330000 0.929868 0
22.335000 0.627196 0
22.340000 0.303550 0
22.345000 0.019897 0
22.350000 -0.188769 0
22.355000 -0.311321 0
22.360000 -0.353582 4
22.365000 -0.333029 0
22.370000 -0.274168 0
22.375000 -0.202158 0
22.380000 -0.136023 0
22.385000 -0.085010 0
22.390000 -0.049659 0
22.395000 -0.025744 0
22.400000 -0.008137 0
22.405000 0.007091 0
22.410000 0.022257 0
22.415000 0.038482 0
22.420000 0.056216 0
22.425000 0.075591 0
22.430000 0.096594 0
22.435000 0.119132 0
22.440000 0.143048 0
22.445000 0.168127 0
22.450000 0.194097 0
22.455000 0.220630 0
22.460000 0.247347 0
22.465000 0.273829 0
22.470000 0.299619 0
22.475000 0.324242 0
22.480000 0.347213 0
22.485000 0.368058 0
22.490000 0.386322 0
22.495000 0.401594 0
22.500000 0.413513 0
22.505000 0.421788 0
22.510000 0.426210 0
22.515000 0.426653 5
22.520000 0.423086 0
22.525000 0.415574 0
22.530000 0.404272 0
22.535000 0.389423 0
22.540000 0.371345 0
22.545000 0.350425 0
22.550000 0.327099 0
22.555000 0.301840 0
22.560000 0.275142 0
22.565000 0.247501 0
22.570000 0.219403 0
22.575000 0.191309 0
22.580000 0.163641 0
22.585000 0.136777 0
22.590000 0.111039 0
22.595000 0.086695 0
22.600000 0.063948 0
22.605000 0.042948 0
22.610000 0.023785 0
22.615000 0.006499 0
22.620000 -0.008917 0
22.625000 -0.022508 0
22.630000 -0.034351 0
22.635000 -0.044550 0
22.640000 -0.053225 0
22.645000 -0.060508 0
22.650000 -0.066539 0
22.655000 -0.071456 0
22.660000 -0.075395 0
22.665000 -0.078487 0
22.670000 -0.080852 0
22.675000 -0.082601 0
22.680000 -0.083834 0
22.685000 -0.084640 0
22.690000 -0.085096 0
22.695000 -0.085267 0
22.700000 -0.085210 0
22.705000 -0.084972 0
22.710000 -0.084526 0
22.715000 -0.083692 0
22.720000 -0.082862 0
22.725000 -0.082036 0
22.730000 -0.081215 0
22.735000 -0.080397 0
22.740000 -0.079584 0
22.745000 -0.078774 0
22.750000 -0.077969 0
22.755000 -0.077167 0
22.760000 -0.076370 0
22.765000 -0.075576 0
22.770000 -0.074787 0
22.775000 -0.074001 0
22.780000 -0.073219 0
22.785000 -0.072440 0
22.790000 -0.071665 0
22.795000 -0.070892 0
22.800000 -0.070120 0
22.805000 -0.069348 0
22.810000 -0.068571 0
22.815000 -0.067784 0
22.820000 -0.066977 0
22.825000 -0.066135 0
22.830000 -0.065236 0
22.835000 -0.064244 0
22.840000 -0.063109 0
22.845000 -0.061759 0
22.850000 -0.060094 0
22.855000 -0.057982 0
22.860000 -0.055251 0
22.865000 -0.051687 0
22.870000 -0.047031 0
22.875000 -0.040988 0
22.880000 -0.033236 0
22.885000 -0.023444 0
22.890000 -0.011305 0
22.895000 0.003433 0
22.900000 0.020918 0
22.905000 0.041156 0
22.910000 0.063963 0
22.915000 0.088939 0
22.920000 0.115450 0
22.925000 0.142635 0
22.930000 0.169439 0
22.935000 0.194677 0
22.940000 0.217110 0
22.945000 0.235546 0
22.950000 0.248948 0
22.955000 0.256521 0
22.960000 0.257799 1
22.965000 0.252684 0
22.970000 0.241461 0
22.975000 0.224771 0
22.980000 0.203548 0
22.985000 0.178934 0
22.990000 0.152173 0
22.995000 0.124513 0
23.000000 0.097099 0
23.005000 0.070879 0
23.010000 0.046495 0
23.015000 0.024106 0
23.020000 0.003118 0
23.025000 -0.018154 0
23.030000 -0.042611 0
23.035000 -0.073739 0
23.040000 -0.113746 0
23.045000 -0.160689 0
23.050000 -0.206021 0
23.055000 -0.234390 2
23.060000 -0.226267 0
23.065000 -0.162048 0
23.070000 -0.026296 0
23.075000 0.186774 0
23.080000 0.464627 0
23.085000 0.767521 0
23.090000 1.029352 0
23.095000 1.176854 3
23.100000 1.160850 0
23.105000 0.981664 0
23.110000 0.691734 0
23.115000 0.366759 0
23.120000 0.073472 0
23.125000 -0.147522 0
23.130000 -0.281527 0
23.135000 -0.332569 4
23.140000 -0.317472 0
23.145000 -0.261004 0
23.150000 -0.189311 0
23.155000 -0.122615 0
23.160000 -0.071024 0
23.165000 -0.035402 0
23.170000 -0.011474 0
23.175000 0.006041 0
23.180000 0.021182 0
23.185000 0.036307 0
23.190000 0.052539 0
23.195000 0.070319 0
23.200000 0.089769 0
23.205000 0.110869 0
23.210000 0.133515 0
23.215000 0.157538 0
23.220000 0.182710 0
23.225000 0.208741 0
23.230000 0.235285 0
23.235000 0.261943 0
23.240000 0.288274 0
23.245000 0.313802 0
23.250000 0.338035 0
23.255000 0.360472 0
23.260000 0.380629 0
23.265000 0.398047 0
23.270000 0.412315 0
23.275000 0.423081 0
23.280000 0.430071 0
23.285000 0.433094 5
23.290000 0.432056 0
23.295000 0.426960 0
23.300000 0.417908 0
23.305000 0.405094 0
23.310000 0.388804 0
23.315000 0.369396 0
23.320000 0.347292 0
23.325000 0.322962 0
23.330000 0.296905 0
23.335000 0.269633 0
23.340000 0.241655 0
23.345000 0.213459 0
23.350000 0.185501 0
23.355000 0.158193 0
23.360000 0.131893 0
23.365000 0.106900 0
23.370000 0.083452 0
23.375000 0.061725 0
23.380000 0.041835 0
23.385000 0.023840 0
23.390000 0.007750 0
23.395000 -0.006468 0
23.400000 -0.018886 0
23.405000 -0.029602 0
23.410000 -0.038736 0
23.415000 -0.046421 0
23.420000 -0.052800 0
23.425000 -0.058015 0
23.430000 -0.062208 0
23.435000 -0.065515 0
23.440000 -0.068062 0
23.445000 -0.069966 0
23.450000 -0.071331 0
23.455000 -0.072249 0
23.460000 -0.072803 0
23.465000 -0.073061 0
23.470000 -0.073082 0
23.475000 -0.072916 0
23.480000 -0.072536 0
23.485000 -0.071762 0
23.490000 -0.070991 0
23.495000 -0.070225 0
23.500000 -0.069462 0
23.505000 -0.068703 0
23.510000 -0.067948 0
23.515000 -0.067196 0
23.520000 -0.066448 0
23.525000 -0.065705 0
23.530000 -0.064964 0
23.535000 -0.064228 0
23.540000 -0.063495 0
23.545000 -0.062765 0
23.550000 -0.062039 0
23.555000 -0.061316 0
23.560000 -0.060596 0
23.565000 -0.059878 0
23.570000 -0.059160 0
23.575000 -0.058441 0
23.580000 -0.057715 0
23.585000 -0.056977 0
23.590000 -0.056215 0
23.595000 -0.055411 0
23.600000 -0.054539 0
23.605000 -0.053558 0
23.610000 -0.052409 0
23.615000 -0.051008 0
23.620000 -0.049242 0
23.625000 -0.046959 0
23.630000 -0.043965 0
23.635000 -0.040019 0
23.640000 -0.034839 0
23.645000 -0.028106 0
23.650000 -0.019479 0
23.655000 -0.008627 0
23.660000 0.004747 0
23.665000 0.020852 0
23.670000 0.039773 0
23.675000 0.061415 0
23.680000 0.085470 0
23.685000 0.111390 0
23.690000 0.138383 0
23.695000 0.165438 0
23.700000 0.191376 0
23.705000 0.214928 0
23.710000 0.234838 0
23.715000 0.249969 0
23.720000 0.259409 0
23.725000 0.262564 1
23.730000 0.259217 0
23.735000 0.249552 0
23.740000 0.234135 0
23.745000 0.213860 0
23.750000 0.189863 0
23.755000 0.163413 0
23.760000 0.135802 0
23.765000 0.108239 0
23.770000 0.081744 0
23.775000 0.057037 0
23.780000 0.034369 0
23.785000 0.013244 0
23.790000 -0.007936 0
23.795000 -0.032048 0
23.800000 -0.062685 0
23.805000 -0.102286 0
23.810000 -0.149126 0
23.815000 -0.194653 0
23.820000 -0.223169 2
23.825000 -0.214565 0
23.830000 -0.148664 0
23.835000 -0.009743 0
23.840000 0.207546 0
23.845000 0.488849 0
23.850000 0.790998 0
23.855000 1.044186 0
23.860000 1.174055 3
23.865000 1.135530 0
23.870000 0.936970 0
23.875000 0.637050 0
23.880000 0.313277 0
23.885000 0.030013 0
23.890000 -0.176140 0
23.895000 -0.294093 0
23.900000 -0.330717 4
23.905000 -0.305108 0
23.910000 -0.243363 0
23.915000 -0.171382 0
23.920000 -0.107663 0
23.925000 -0.060089 0
23.930000 -0.027866 0
23.935000 -0.006065 0
23.940000 0.010497 0
23.945000 0.025462 0
23.950000 0.040828 0
23.955000 0.057488 0
23.960000 0.075770 0
23.965000 0.095744 0
23.970000 0.117357 0
23.975000 0.140483 0
23.980000 0.164930 0
23.985000 0.190443 0
23.990000 0.216707 0
23.995000 0.243350 0
24.000000 0.269948 0
24.005000 0.296038 0
24.010000 0.321128 0
24.015000 0.344710 0
24.020000 0.366280 0
24.025000 0.385353 0
24.030000 0.401479 0
24.035000 0.414265 0
24.040000 0.423384 0
24.045000 0.428596 0
24.050000 0.429749 5
24.055000 0.426793 0
24.060000 0.419778 0
24.065000 0.408856 0
24.070000 0.394271 0
24.075000 0.376351 0
24.080000 0.355497 0
24.085000 0.332166 0
24.090000 0.306854 0
24.095000 0.280078 0
24.100000 0.252360 0
24.105000 0.224208 0
24.110000 0.196103 0
24.115000 0.168483 0
24.120000 0.141737 0
24.125000 0.116195 0
24.130000 0.092124 0
24.135000 0.069728 0
24.140000 0.049146 0
24.145000 0.030461 0
24.150000 0.013700 0
24.155000 -0.001158 0
24.160000 -0.014172 0
24.165000 -0.025433 0
24.170000 -0.035057 0
24.175000 -0.043177 0
24.180000 -0.049936 0
24.185000 -0.055478 0
24.190000 -0.059949 0
24.195000 -0.063489 0
24.200000 -0.066230 0
24.205000 -0.068292 0
24.210000 -0.069785 0
24.215000 -0.070806 0
24.220000 -0.071442 0
24.225000 -0.071765 0
24.230000 -0.071837 0
24.235000 -0.071711 0
24.240000 -0.071429 0
24.245000 -0.070731 0
24.250000 -0.069966 0
24.255000 -0.069204 0
24.260000 -0.068446 0
24.265000 -0.067692 0
24.270000 -0.066942 0
24.275000 -0.066196 0
24.280000 -0.065453 0
24.285000 -0.064714 0
24.290000 -0.063979 0
24.295000 -0.063247 0
24.300000 -0.062519 0
24.305000 -0.061794 0
24.310000 -0.061073 0
24.315000 -0.060355 0
24.320000 -0.059640 0
24.325000 -0.058926 0
24.330000 -0.058214 0
24.335000 -0.057499 0
24.340000 -0.056778 0
24.345000 -0.056045 0
24.350000 -0.055287 0
24.355000 -0.054487 0
24.360000 -0.053616 0
24.365000 -0.052634 0
24.370000 -0.051480 0
24.375000 -0.050066 0
24.380000 -0.048276 0
24.385000 -0.045950 0
24.390000 -0.042890 0
24.395000 -0.038846 0
24.400000 -0.033526 0
24.405000 -0.026603 0
24.410000 -0.017730 0
24.415000 -0.006569 0
24.420000 0.007169 0
24.425000 0.023687 0
24.430000 0.043043 0
24.435000 0.065112 0
24.440000 0.089540 0
24.445000 0.115725 0
24.450000 0.142818 0
24.455000 0.169752 0
24.460000 0.195299 0
24.465000 0.218163 0
24.470000 0.237080 0
24.475000 0.250937 0
24.480000 0.258875 0
24.485000 0.260379 1
24.490000 0.255332 0
24.495000 0.244028 0
24.500000 0.227141 0
24.505000 0.205661 0
24.510000 0.180794 0
24.515000 0.153854 0
24.520000 0.126139 0
24.525000 0.098829 0
24.530000 0.072879 0
24.535000 0.048883 0
24.540000 0.026869 0
24.545000 0.005974 0
24.550000 -0.015909 0
24.555000 -0.042110 0
24.560000 -0.076136 0
24.565000 -0.119194 0
24.570000 -0.166964 0
24.575000 -0.207607 0
24.580000 -0.222780 2
24.585000 -0.191422 0
24.590000 -0.094393 0
24.595000 0.080517 0
24.600000 0.330944 0
24.605000 0.629384 0
24.610000 0.917597 0
24.615000 1.118334 0
24.620000 1.166571 3
24.625000 1.042996 0
24.630000 0.784465 0
24.635000 0.463266 0
24.640000 0.153171 0
24.645000 -0.094884 0
24.650000 -0.257866 0
24.655000 -0.334375 0
24.660000 -0.337776 4
24.665000 -0.291216 0
24.670000 -0.221570 0
24.675000 -0.151806 0
24.680000 -0.095345 0
24.685000 -0.055437 0
24.690000 -0.028757 0
24.695000 -0.009919 0
24.700000 0.005614 0
24.705000 0.020657 0
24.710000 0.036611 0
24.715000 0.054054 0
24.720000 0.073166 0
24.725000 0.093952 0
24.730000 0.116325 0
24.735000 0.140128 0
24.740000 0.165142 0
24.745000 0.191086 0
24.750000 0.217621 0
24.755000 0.244352 0
24.760000 0.270841 0
24.765000 0.296610 0
24.770000 0.321163 0
24.775000 0.343993 0
24.780000 0.364604 0
24.785000 0.382526 0
24.790000 0.397335 0
24.795000 0.408665 0
24.800000 0.416225 0
24.805000 0.419811 5
24.810000 0.419316 0
24.815000 0.414730 0
24.820000 0.406144 0
24.825000 0.393749 0
24.830000 0.377822 0
24.835000 0.358721 0
24.840000 0.336870 0
24.845000 0.312741 0
24.850000 0.286838 0
24.855000 0.259680 0
24.860000 0.231782 0
24.865000 0.203642 0
24.870000 0.175722 0
24.875000 0.148442 0
24.880000 0.122166 0
24.885000 0.097200 0
24.890000 0.073785 0
24.895000 0.052099 0
24.900000 0.032262 0
24.905000 0.014332 0
24.910000 -0.001681 0
24.915000 -0.015812 0
24.920000 -0.028134 0
24.925000 -0.038746 0
24.930000 -0.047772 0
24.935000 -0.055346 0
24.940000 -0.061613 0
24.945000 -0.066718 0
24.950000 -0.070804 0
24.955000 -0.074007 0
24.960000 -0.076456 0
24.965000 -0.078266 0
24.970000 -0.079544 0
24.975000 -0.080381 0
24.980000 -0.080859 0
24.985000 -0.081046 0
24.990000 -0.081002 0
24.995000 -0.080776 0
25.000000 -0.080342 0
25.005000 -0.079529 0
25.010000 -0.078719 0
25.015000 -0.077914 0
25.020000 -0.077113 0
25.025000 -0.076316 0
25.030000 -0.075523 0
25.035000 -0.074733 0
25.040000 -0.073948 0
25.045000 -0.073167 0
25.050000 -0.072389 0
25.055000 -0.071616 0
25.060000 -0.070846 0
25.065000 -0.070080 0
25.070000 -0.069317 0
25.075000 -0.068558 0
25.080000 -0.067801 0
25.085000 -0.067046 0
25.090000 -0.066292 0
25.095000 -0.065535 0
25.100000 -0.064770 0
25.105000 -0.063991 0
25.110000 -0.063183 0
25.115000 -0.062327 0
25.120000 -0.061392 0
25.125000 -0.060331 0
25.130000 -0.059079 0
25.135000 -0.057542 0
25.140000 -0.055592 0
25.145000 -0.053063 0
25.150000 -0.049743 0
25.155000 -0.045374 0
25.160000 -0.039654 0
25.165000 -0.032251 0
25.170000 -0.022820 0
25.175000 -0.011033 0
25.180000 0.003384 0
25.185000 0.020600 0
25.190000 0.040638 0
25.195000 0.063321 0
25.200000 0.088243 0
25.205000 0.114749 0
25.210000 0.141940 0
25.215000 0.168713 0
25.220000 0.193824 0
25.225000 0.215980 0
25.230000 0.233946 0
25.235000 0.246658 0
25.240000 0.253328 0
25.245000 0.253522 1
25.250000 0.247207 0
25.255000 0.234755 0
25.260000 0.216908 0
25.265000 0.194700 0
25.270000 0.169364 0
25.275000 0.142210 0
25.280000 0.114519 0
25.285000 0.087430 0
25.290000 0.061838 0
25.295000 0.038250 0
25.300000 0.016563 0
25.305000 -0.004280 0
25.310000 -0.026612 0
25.315000 -0.053891 0
25.320000 -0.089431 0
25.325000 -0.133727 0
25.330000 -0.181313 0
25.335000 -0.219188 0
25.340000 -0.228358 2
25.345000 -0.187856 0
25.350000 -0.079350 0
25.355000 0.107680 0
25.360000 0.367784 0
25.365000 0.669099 0
25.370000 0.949617 0
25.375000 1.131953 0
25.380000 1.156075 3
25.385000 1.011074 0
25.390000 0.740481 0
25.395000 0.417107 0
25.400000 0.111508 0
25.405000 -0.129318 0
25.410000 -0.285110 0
25.415000 -0.355891 4
25.420000 -0.355563 0
25.425000 -0.307187 0
25.430000 -0.237068 0
25.435000 -0.167425 0
25.440000 -0.111117 0
25.445000 -0.071189 0
25.450000 -0.044360 0
25.455000 -0.025353 0
25.460000 -0.009700 0
25.465000 0.005401 0
25.470000 0.021361 0
25.475000 0.038775 0
25.480000 0.057833 0
25.485000 0.078550 0
25.490000 0.100845 0
25.495000 0.124572 0
25.500000 0.149522 0
25.505000 0.175427 0
25.510000 0.201963 0
25.515000 0.228750 0
25.520000 0.255366 0
25.525000 0.281348 0
25.530000 0.306214 0
25.535000 0.329467 0
25.540000 0.350620 0
25.545000 0.369206 0
25.550000 0.384799 0
25.555000 0.397028 0
25.560000 0.405589 0
25.565000 0.410261 0
25.570000 0.410915 5
25.575000 0.407514 0
25.580000 0.400121 0
25.585000 0.388896 0
25.590000 0.374084 0
25.595000 0.356013 0
25.600000 0.335079 0
25.605000 0.311729 0
25.610000 0.286448 0
25.615000 0.259740 0
25.620000 0.232114 0
25.625000 0.204063 0
25.630000 0.176055 0
25.635000 0.148520 0
25.640000 0.121836 0
25.645000 0.096326 0
25.650000 0.072255 0
25.655000 0.049825 0
25.660000 0.029177 0
25.665000 0.010395 0
25.670000 -0.006488 0
25.675000 -0.021488 0
25.680000 -0.034657 0
25.685000 -0.046081 0
25.690000 -0.055869 0
25.695000 -0.064149 0
25.700000 -0.071057 0
25.705000 -0.076735 0
25.710000 -0.081325 0
25.715000 -0.084965 0
25.720000 -0.087786 0
25.725000 -0.089907 0
25.730000 -0.091439 0
25.735000 -0.092480 0
25.740000 -0.093116 0
25.745000 -0.093423 0
25.750000 -0.093464 0
25.755000 -0.093293 0
25.760000 -0.092956 0
25.765000 -0.092158 0
25.770000 -0.091286 0
25.775000 -0.090418 0
25.780000 -0.089554 0
25.785000 -0.088695 0
25.790000 -0.087840 0
25.795000 -0.086989 0
25.800000 -0.086143 0
25.805000 -0.085301 0
25.810000 -0.084463 0
25.815000 -0.083629 0
25.820000 -0.082799 0
25.825000 -0.081973 0
25.830000 -0.081152 0
25.835000 -0.080334 0
25.840000 -0.079519 0
25.845000 -0.078708 0
25.850000 -0.077899 0
25.855000 -0.077090 0
25.860000 -0.076278 0
25.865000 -0.075459 0
25.870000 -0.074624 0
25.875000 -0.073760 0
25.880000 -0.072848 0
25.885000 -0.071856 0
25.890000 -0.070738 0
25.895000 -0.069429 0
25.900000 -0.067836 0
25.905000 -0.065836 0
25.910000 -0.063264 0
25.915000 -0.059913 0
25.920000 -0.055533 0
25.925000 -0.049831 0
25.930000 -0.042481 0
25.935000 -0.033146 0
25.940000 -0.021502 0
25.945000 -0.007279 0
25.950000 0.009704 0
25.955000 0.029481 0
25.960000 0.051906 0
25.965000 0.076608 0
25.970000 0.102979 0
25.975000 0.130171 0
25.980000 0.157133 0
25.985000 0.182664 0
25.990000 0.205500 0
25.995000 0.224415 0
26.000000 0.238325 0
26.005000 0.246397 0
26.010000 0.248125 1
26.015000 0.243386 0
26.020000 0.232449 0
26.025000 0.215957 0
26.030000 0.194855 0
26.035000 0.170307 0
26.040000 0.143585 0
26.045000 0.115962 0
26.050000 0.088608 0
26.055000 0.062484 0
26.060000 0.038231 0
26.065000 0.015984 0
26.070000 -0.004923 0
26.075000 -0.026301 0
26.080000 -0.051198 0
26.085000 -0.083156 0
26.090000 -0.124128 0
26.095000 -0.171454 0
26.100000 -0.215478 0
26.105000 -0.239725 2
26.110000 -0.223959 0
26.115000 -0.148531 0
26.120000 0.001129 0
26.125000 0.228289 0
26.130000 0.515375 0
26.135000 0.815730 0
26.140000 1.057987 0
26.145000 1.170088 3
26.150000 1.113773 0
26.155000 0.904655 0
26.160000 0.601416 0
26.165000 0.278036 0
26.170000 -0.004813 0
26.175000 -0.212455 0
26.180000 -0.333992 0
26.185000 -0.375391 4
26.190000 -0.354217 0
26.195000 -0.295004 0
26.200000 -0.222867 0
26.205000 -0.156737 0
26.210000 -0.105765 0
26.215000 -0.070427 0
26.220000 -0.046480 0
26.225000 -0.028801 0
26.230000 -0.013477 0
26.235000 0.001798 0
26.240000 0.018135 0
26.245000 0.035981 0
26.250000 0.055468 0
26.255000 0.076583 0
26.260000 0.099230 0
26.265000 0.123253 0
26.270000 0.148437 0
26.275000 0.174509 0
26.280000 0.201142 0
26.285000 0.227957 0
26.290000 0.254534 0
26.295000 0.280417 0
26.300000 0.305131 0
26.305000 0.328193 0
26.310000 0.349125 0
26.315000 0.367477 0
26.320000 0.382835 0
26.325000 0.394840 0
26.330000 0.403203 0
26.335000 0.407711 0
26.340000 0.408241 5
26.345000 0.404763 0
26.350000 0.397340 0
26.355000 0.386128 0
26.360000 0.371369 0
26.365000 0.353382 0
26.370000 0.332553 0
26.375000 0.309318 0
26.380000 0.284150 0
26.385000 0.257542 0
26.390000 0.229991 0
26.395000 0.201981 0
26.400000 0.173973 0
26.405000 0.146390 0
26.410000 0.119610 0
26.415000 0.093954 0
26.420000 0.069690 0
26.425000 0.047022 0
26.430000 0.026100 0
26.435000 0.007013 0
26.440000 -0.010198 0
26.445000 -0.025539 0
26.450000 -0.039056 0
26.455000 -0.050826 0
26.460000 -0.060952 0
26.465000 -0.069553 0
26.470000 -0.076764 0
26.475000 -0.082721 0
26.480000 -0.087564 0
26.485000 -0.091430 0
26.490000 -0.094447 0
26.495000 -0.096738 0
26.500000 -0.098413 0
26.505000 -0.099571 0
26.510000 -0.100302 0
26.515000 -0.100682 0
26.520000 -0.100778 0
26.525000 -0.100645 0
26.530000 -0.100332 0
26.535000 -0.099811 0
26.540000 -0.098901 0
26.545000 -0.097995 0
26.550000 -0.097094 0
26.555000 -0.096197 0
26.560000 -0.095304 0
26.565000 -0.094416 0
26.570000 -0.093533 0
26.575000 -0.092654 0
26.580000 -0.091779 0
26.585000 -0.090909 0
26.590000 -0.090043 0
26.595000 -0.089181 0
26.600000 -0.088324 0
26.605000 -0.087470 0
26.610000 -0.086621 0
26.615000 -0.085774 0
26.620000 -0.084931 0
26.625000 -0.084089 0
26.630000 -0.083247 0
26.635000 -0.082401 0
26.640000 -0.081545 0
26.645000 -0.080671 0
26.650000 -0.079762 0
26.655000 -0.078796 0
26.660000 -0.077738 0
26.665000 -0.076539 0
26.670000 -0.075127 0
26.675000 -0.073402 0
26.680000 -0.071234 0
26.685000 -0.068451 0
26.690000 -0.064839 0
26.695000 -0.060142 0
26.700000 -0.054065 0
26.705000 -0.046286 0
26.710000 -0.036476 0
26.715000 -0.024324 0
26.720000 -0.009580 0
26.725000 0.007909 0
26.730000 0.028151 0
26.735000 0.050968 0
26.740000 0.075964 0
26.745000 0.102510 0
26.750000 0.129752 0
26.755000 0.156640 0
26.760000 0.181989 0
26.765000 0.204563 0
26.770000 0.223169 0
26.775000 0.236764 0
26.780000 0.244547 0
26.785000 0.246044 1
26.790000 0.241147 0
26.795000 0.230132 0
26.800000 0.213631 0
26.805000 0.192571 0
26.810000 0.168087 0
26.815000 0.141426 0
26.820000 0.113831 0
26.825000 0.086454 0
26.830000 0.060247 0
26.835000 0.035863 0
26.840000 0.013478 0
26.845000 -0.007476 0
26.850000 -0.028649 0
26.855000 -0.052908 0
26.860000 -0.083740 0
26.865000 -0.123430 0
26.870000 -0.170199 0
26.875000 -0.215720 0
26.880000 -0.244829 2
26.885000 -0.238079 0
26.890000 -0.175817 0
26.895000 -0.042414 0
26.900000 0.168328 0
26.905000 0.444618 0
26.910000 0.747677 0
26.915000 1.012094 0
26.920000 1.164397 3
26.925000 1.155193 0
26.930000 0.984397 0
26.935000 0.700336 0
26.940000 0.375492 0
26.945000 0.076024 0
26.950000 -0.155871 0
26.955000 -0.303123 0
26.960000 -0.367320 4
26.965000 -0.362881 0
26.970000 -0.312632 0
26.975000 -0.242108 0
26.980000 -0.172620 0
26.985000 -0.116417 0
26.990000 -0.076370 0
26.995000 -0.049302 0
27.000000 -0.030086 0
27.005000 -0.014328 0
27.010000 0.000769 0
27.015000 0.016648 0
27.020000 0.033926 0
27.025000 0.052816 0
27.030000 0.073342 0
27.035000 0.095437 0
27.040000 0.118964 0
27.045000 0.143733 0
27.050000 0.169492 0
27.055000 0.195935 0
27.060000 0.222706 0
27.065000 0.249400 0
27.070000 0.275578 0
27.075000 0.300774 0
27.080000 0.324509 0
27.085000 0.346306 0
27.090000 0.365705 0
27.095000 0.382278 0
27.100000 0.395646 0
27.105000 0.405492 0
27.110000 0.411574 0
27.115000 0.413731 5
27.120000 0.411896 0
27.125000 0.406093 0
27.130000 0.396438 0
27.135000 0.383136 0
27.140000 0.366473 0
27.145000 0.346805 0
27.150000 0.324544 0
27.155000 0.300148 0
27.160000 0.274097 0
27.165000 0.246886 0
27.170000 0.219003 0
27.175000 0.190918 0
27.180000 0.163070 0
27.185000 0.135854 0
27.190000 0.109617 0
27.195000 0.084649 0
27.200000 0.061184 0
27.205000 0.039394 0
27.210000 0.019398 0
27.215000 0.001258 0
27.220000 -0.015011 0
27.225000 -0.029434 0
27.230000 -0.042075 0
27.235000 -0.053024 0
27.240000 -0.062392 0
27.245000 -0.070305 0
27.250000 -0.076900 0
27.255000 -0.082313 0
27.260000 -0.086682 0
27.265000 -0.090140 0
27.270000 -0.092812 0
27.275000 -0.094813 0
27.280000 -0.096248 0
27.285000 -0.097211 0
27.290000 -0.097785 0
27.295000 -0.098042 0
27.300000 -0.098041 0
27.305000 -0.097836 0
27.310000 -0.097468 0
27.315000 -0.096647 0
27.320000 -0.095752 0
27.325000 -0.094862 0
27.330000 -0.093976 0
27.335000 -0.093095 0
27.340000 -0.092218 0
27.345000 -0.091346 0
27.350000 -0.090478 0
27.355000 -0.089614 0
27.360000 -0.088754 0
27.365000 -0.087899 0
27.370000 -0.087048 0
27.375000 -0.086201 0
27.380000 -0.085358 0
27.385000 -0.084519 0
27.390000 -0.083684 0
27.395000 -0.082852 0
27.400000 -0.082023 0
27.405000 -0.081194 0
27.410000 -0.080364 0
27.415000 -0.079528 0
27.420000 -0.078679 0
27.425000 -0.077807 0
27.430000 -0.076893 0
27.435000 -0.075912 0
27.440000 -0.074824 0
27.445000 -0.073572 0
27.450000 -0.072078 0
27.455000 -0.070231 0
27.460000 -0.067888 0
27.465000 -0.064866 0
27.470000 -0.060938 0
27.475000 -0.055836 0
27.480000 -0.049256 0
27.485000 -0.040875 0
27.490000 -0.030367 0
27.495000 -0.017439 0
27.500000 -0.001869 0
27.505000 0.016456 0
27.510000 0.037491 0
27.515000 0.060997 0
27.520000 0.086512 0
27.525000 0.113345 0
27.530000 0.140585 0
27.535000 0.167145 0
27.540000 0.191824 0
27.545000 0.213398 0
27.550000 0.230712 0
27.555000 0.242788 0
27.560000 0.248912 1
27.565000 0.248707 0
27.570000 0.242166 0
27.575000 0.229660 0
27.580000 0.211897 0
27.585000 0.189858 0
27.590000 0.164710 0
27.595000 0.137696 0
27.600000 0.110041 0
27.605000 0.082847 0
27.610000 0.057004 0
27.615000 0.033067 0
27.620000 0.011072 0
27.625000 -0.009757 0
27.630000 -0.031326 0
27.635000 -0.056702 0
27.640000 -0.089294 0
27.645000 -0.130777 0
27.650000 -0.178211 0
27.655000 -0.221888 0
27.660000 -0.245629 2
27.665000 -0.229754 0
27.670000 -0.155182 0
27.675000 -0.007661 0
27.680000 0.216425 0
27.685000 0.501102 0
27.690000 0.802729 0
27.695000 1.053111 0
27.700000 1.180934 3
27.705000 1.143453 0
27.710000 0.948601 0
27.715000 0.651742 0
27.720000 0.327173 0
27.725000 0.038184 0
27.730000 -0.177662 0
27.735000 -0.307381 0
27.740000 -0.355628 4
27.745000 -0.339176 0
27.750000 -0.282301 0
27.755000 -0.210492 0
27.760000 -0.143501 0
27.765000 -0.091338 0
27.770000 -0.055036 0
27.775000 -0.030535 0
27.780000 -0.012654 0
27.785000 0.002653 0
27.790000 0.017803 0
27.795000 0.033975 0
27.800000 0.051645 0
27.805000 0.070958 0
27.810000 0.091907 0
27.815000 0.114400 0
27.820000 0.138283 0
27.825000 0.163342 0
27.830000 0.189304 0
27.835000 0.215844 0
27.840000 0.242581 0
27.845000 0.269095 0
27.850000 0.294929 0
27.855000 0.319604 0
27.860000 0.342635 0
27.865000 0.363543 0
27.870000 0.381871 0
27.875000 0.397203 0
27.880000 0.409179 0
27.885000 0.417505 0
27.890000 0.421968 0
27.895000 0.422442 5
27.900000 0.418897 0
27.905000 0.411397 0
27.910000 0.400097 0
27.915000 0.385242 0
27.920000 0.367154 0
27.925000 0.346221 0
27.930000 0.322881 0
27.935000 0.297612 0
27.940000 0.270908 0
27.945000 0.243270 0
27.950000 0.215184 0
27.955000 0.187113 0
27.960000 0.159481 0
27.965000 0.132665 0
27.970000 0.106989 0
27.975000 0.082717 0
27.980000 0.060054 0
27.985000 0.039146 0
27.990000 0.020083 0
27.995000 0.002901 0
28.000000 -0.012407 0
28.005000 -0.025889 0
28.010000 -0.037625 0
28.015000 -0.047718 0
28.020000 -0.056292 0
28.025000 -0.063479 0
28.030000 -0.069420 0
28.035000 -0.074253 0
28.040000 -0.078116 0
28.045000 -0.081137 0
28.050000 -0.083440 0
28.055000 -0.085133 0
28.060000 -0.086317 0
28.065000 -0.087078 0
28.070000 -0.087495 0
28.075000 -0.087632 0
28.080000 -0.087545 0
28.085000 -0.087281 0
28.090000 -0.086813 0
28.095000 -0.085968 0
28.100000 -0.085126 0
28.105000 -0.084289 0
28.110000 -0.083456 0
28.115000 -0.082627 0
28.120000 -0.081803 0
28.125000 -0.080982 0
28.130000 -0.080166 0
28.135000 -0.079353 0
28.140000 -0.078545 0
28.145000 -0.077741 0
28.150000 -0.076940 0
28.155000 -0.076144 0
28.160000 -0.075351 0
28.165000 -0.074562 0
28.170000 -0.073776 0
28.175000 -0.072992 0
28.180000 -0.072209 0
28.185000 -0.071425 0
28.190000 -0.070636 0
28.195000 -0.069836 0
28.200000 -0.069014 0
28.205000 -0.068155 0
28.210000 -0.067233 0
28.215000 -0.066211 0
28.220000 -0.065036 0
28.225000 -0.063631 0
28.230000 -0.061891 0
28.235000 -0.059677 0
28.240000 -0.056808 0
28.245000 -0.053062 0
28.250000 -0.048172 0
28.255000 -0.041835 0
28.260000 -0.033725 0
28.265000 -0.023510 0
28.270000 -0.010889 0
28.275000 0.004374 0
28.280000 0.022405 0
28.285000 0.043176 0
28.290000 0.066462 0
28.295000 0.091816 0
28.300000 0.118551 0
28.305000 0.145761 0
28.310000 0.172353 0
28.315000 0.197116 0
28.320000 0.218807 0
28.325000 0.236253 0
28.330000 0.248455 0
28.335000 0.254682 1
28.340000 0.254542 0
28.345000 0.248024 0
28.350000 0.235500 0
28.355000 0.217685 0
28.360000 0.195577 0
28.365000 0.170355 0
