0.000000 1.124703 3
0.005000 1.044766 0
0.010000 0.840239 0
0.015000 0.560410 0
0.020000 0.263885 0
0.025000 -0.000840 0
0.030000 -0.204351 0
0.035000 -0.335323 0
0.040000 -0.395756 0
0.045000 -0.397036 4
0.050000 -0.356962 0
0.055000 -0.295936 0
0.060000 -0.232139 0
0.065000 -0.177600 0
0.070000 -0.137043 0
0.075000 -0.109522 0
0.080000 -0.091327 0
0.085000 -0.078444 0
0.090000 -0.067816 0
0.095000 -0.057566 0
0.100000 -0.046705 0
0.105000 -0.034765 0
0.110000 -0.021533 0
0.115000 -0.006911 0
0.120000 0.009142 0
0.125000 0.026629 0
0.130000 0.045520 0
0.135000 0.065746 0
0.140000 0.087202 0
0.145000 0.109741 0
0.150000 0.133172 0
0.155000 0.157266 0
0.160000 0.181752 0
0.165000 0.206327 0
0.170000 0.230654 0
0.175000 0.254373 0
0.180000 0.277112 0
0.185000 0.298488 0
0.190000 0.318126 0
0.195000 0.335666 0
0.200000 0.350771 0
0.205000 0.363145 0
0.210000 0.372533 0
0.215000 0.378739 0
0.220000 0.381624 5
0.225000 0.381118 0
0.230000 0.377218 0
0.235000 0.369990 0
0.240000 0.359568 0
0.245000 0.346147 0
0.250000 0.329978 0
0.255000 0.311363 0
0.260000 0.290641 0
0.265000 0.268179 0
0.270000 0.244362 0
0.275000 0.219583 0
0.280000 0.194229 0
0.285000 0.168675 0
0.290000 0.143272 0
0.295000 0.118340 0
0.300000 0.094167 0
0.305000 0.070997 0
0.310000 0.049032 0
0.315000 0.028433 0
0.320000 0.009314 0
0.325000 -0.008248 0
0.330000 -0.024216 0
0.335000 -0.038589 0
0.340000 -0.051394 0
0.345000 -0.062684 0
0.350000 -0.072533 0
0.355000 -0.081028 0
0.360000 -0.088270 0
0.365000 -0.094366 0
0.370000 -0.099425 0
0.375000 -0.103558 0
0.380000 -0.106871 0
0.385000 -0.109466 0
0.390000 -0.111440 0
0.395000 -0.112881 0
0.400000 -0.113868 0
0.405000 -0.114474 0
0.410000 -0.114762 0
0.415000 -0.114787 0
0.420000 -0.114598 0
0.425000 -0.114236 0
0.430000 -0.113734 0
0.435000 -0.113121 0
0.440000 -0.112422 0
0.445000 -0.111656 0
0.450000 -0.110813 0
0.455000 -0.109827 0
0.460000 -0.108845 0
0.465000 -0.107869 0
0.470000 -0.106897 0
0.475000 -0.105930 0
0.480000 -0.104968 0
0.485000 -0.104011 0
0.490000 -0.103058 0
0.495000 -0.102110 0
0.500000 -0.101167 0
0.505000 -0.100229 0
0.510000 -0.099295 0
0.515000 -0.098366 0
0.520000 -0.097442 0
0.525000 -0.096522 0
0.530000 -0.095607 0
0.535000 -0.094697 0
0.540000 -0.093790 0
0.545000 -0.092889 0
0.550000 -0.091991 0
0.555000 -0.091098 0
0.560000 -0.090208 0
0.565000 -0.089322 0
0.570000 -0.088437 0
0.575000 -0.087553 0
0.580000 -0.086667 0
0.585000 -0.085775 0
0.590000 -0.084869 0
0.595000 -0.083940 0
0.600000 -0.082972 0
0.605000 -0.081941 0
0.610000 -0.080815 0
0.615000 -0.079547 0
0.620000 -0.078073 0
0.625000 -0.076309 0
0.630000 -0.074143 0
0.635000 -0.071436 0
0.640000 -0.068017 0
0.645000 -0.063684 0
0.650000 -0.058204 0
0.655000 -0.051328 0
0.660000 -0.042795 0
0.665000 -0.032355 0
0.670000 -0.019791 0
0.675000 -0.004949 0
0.680000 0.012238 0
0.685000 0.031713 0
0.690000 0.053273 0
0.695000 0.076551 0
0.700000 0.101007 0
0.705000 0.125942 0
0.710000 0.150515 0
0.715000 0.173793 0
0.720000 0.194801 0
0.725000 0.212590 0
0.730000 0.226311 0
0.735000 0.235276 0
0.740000 0.239020 1
0.745000 0.237338 0
0.750000 0.230305 0
0.755000 0.218269 0
0.760000 0.201825 0
0.765000 0.181763 0
0.770000 0.159007 0
0.775000 0.134544 0
0.780000 0.109357 0
0.785000 0.084354 0
0.790000 0.060320 0
0.795000 0.037864 0
0.800000 0.017367 0
0.805000 -0.001107 0
0.810000 -0.017963 0
0.815000 -0.034290 0
0.820000 -0.052046 0
0.825000 -0.073930 0
0.830000 -0.102618 0
0.835000 -0.139164 0
0.840000 -0.180981 0
0.845000 -0.220404 0
0.850000 -0.244877 2
0.855000 -0.238921 0
0.860000 -0.186956 0
0.865000 -0.076149 0
0.870000 0.100119 0
0.875000 0.336793 0
0.880000 0.610479 0
0.885000 0.876640 0
0.890000 1.077182 0
0.895000 1.159515 3
0.900000 1.096476 0
0.905000 0.902230 0
0.910000 0.625926 0
0.915000 0.328764 0
0.920000 0.062287 0
0.925000 -0.142105 0
0.930000 -0.272396 0
0.935000 -0.330802 4
0.940000 -0.329497 0
0.945000 -0.287337 0
0.950000 -0.225618 0
0.955000 -0.162805 0
0.960000 -0.110510 0
0.965000 -0.072643 0
0.970000 -0.047525 0
0.975000 -0.031067 0
0.980000 -0.019228 0
0.985000 -0.009114 0
0.990000 0.000960 0
0.995000 0.011840 0
1.000000 0.023913 0
1.005000 0.037352 0
1.010000 0.052236 0
1.015000 0.068590 0
1.020000 0.086406 0
1.025000 0.105635 0
1.030000 0.126189 0
1.035000 0.147938 0
1.040000 0.170707 0
1.045000 0.194275 0
1.050000 0.218382 0
1.055000 0.242723 0
1.060000 0.266960 0
1.065000 0.290728 0
1.070000 0.313639 0
1.075000 0.335298 0
1.080000 0.355308 0
1.085000 0.373286 0
1.090000 0.388872 0
1.095000 0.401743 0
1.100000 0.411621 0
1.105000 0.418286 0
1.110000 0.421580 5
1.115000 0.421416 0
1.120000 0.417780 0
1.125000 0.410729 0
1.130000 0.400396 0
1.135000 0.386978 0
1.140000 0.370735 0
1.145000 0.351977 0
1.150000 0.331059 0
1.155000 0.308364 0
1.160000 0.284295 0
1.165000 0.259261 0
1.170000 0.233667 0
1.175000 0.207903 0
1.180000 0.182332 0
1.185000 0.157286 0
1.190000 0.133057 0
1.195000 0.109894 0
1.200000 0.088000 0
1.205000 0.067531 0
1.210000 0.048599 0
1.215000 0.031271 0
1.220000 0.015576 0
1.225000 0.001505 0
1.230000 -0.010980 0
1.235000 -0.021940 0
1.240000 -0.031461 0
1.245000 -0.039639 0
1.250000 -0.046582 0
1.255000 -0.052404 0
1.260000 -0.057219 0
1.265000 -0.061142 0
1.270000 -0.064281 0
1.275000 -0.066740 0
1.280000 -0.068614 0
1.285000 -0.069992 0
1.290000 -0.070951 0
1.295000 -0.071561 0
1.300000 -0.071884 0
1.305000 -0.071971 0
1.310000 -0.071868 0
1.315000 -0.071611 0
1.320000 -0.071234 0
1.325000 -0.070762 0
1.330000 -0.070217 0
1.335000 -0.069588 0
1.340000 -0.068807 0
1.345000 -0.068030 0
1.350000 -0.067257 0
1.355000 -0.066488 0
1.360000 -0.065723 0
1.365000 -0.064961 0
1.370000 -0.064203 0
1.375000 -0.063449 0
1.380000 -0.062699 0
1.385000 -0.061953 0
1.390000 -0.061210 0
1.395000 -0.060471 0
1.400000 -0.059736 0
1.405000 -0.059004 0
1.410000 -0.058276 0
1.415000 -0.057551 0
1.420000 -0.056831 0
1.425000 -0.056113 0
1.430000 -0.055399 0
1.435000 -0.054689 0
1.440000 -0.053981 0
1.445000 -0.053276 0
1.450000 -0.052573 0
1.455000 -0.051871 0
1.460000 -0.051168 0
1.465000 -0.050459 0
1.470000 -0.049741 0
1.475000 -0.049004 0
1.480000 -0.048235 0
1.485000 -0.047415 0
1.490000 -0.046515 0
1.495000 -0.045492 0
1.500000 -0.044291 0
1.505000 -0.042831 0
1.510000 -0.041009 0
1.515000 -0.038691 0
1.520000 -0.035710 0
1.525000 -0.031866 0
1.530000 -0.026927 0
1.535000 -0.020635 0
1.540000 -0.012719 0
1.545000 -0.002914 0
1.550000 0.009018 0
1.555000 0.023256 0
1.560000 0.039889 0
1.565000 0.058882 0
1.570000 0.080047 0
1.575000 0.103023 0
1.580000 0.127265 0
1.585000 0.152054 0
1.590000 0.176520 0
1.595000 0.199690 0
1.600000 0.220545 0
1.605000 0.238095 0
1.610000 0.251455 0
1.615000 0.259918 0
1.620000 0.263017 1
1.625000 0.260564 0
1.630000 0.252673 0
1.635000 0.239746 0
1.640000 0.222441 0
1.645000 0.201614 0
1.650000 0.178252 0
1.655000 0.153390 0
1.660000 0.128040 0
1.665000 0.103122 0
1.670000 0.079406 0
1.675000 0.057459 0
1.680000 0.037579 0
1.685000 0.019675 0
1.690000 0.003073 0
1.695000 -0.013725 0
1.700000 -0.033145 0
1.705000 -0.058145 0
1.710000 -0.090956 0
1.715000 -0.131020 0
1.720000 -0.172956 0
1.725000 -0.205822 0
1.730000 -0.214438 2
1.735000 -0.182212 0
1.740000 -0.094265 0
1.745000 0.059209 0
1.750000 0.277874 0
1.755000 0.544075 0
1.760000 0.817662 0
1.765000 1.040369 0
1.770000 1.153597 3
1.775000 1.122058 0
1.780000 0.950665 0
1.785000 0.684721 0
1.790000 0.387015 0
1.795000 0.113524 0
1.800000 -0.100061 0
1.805000 -0.238960 0
1.810000 -0.304033 0
1.815000 -0.307001 4
1.820000 -0.266928 0
1.825000 -0.205803 0
1.830000 -0.142944 0
1.835000 -0.090589 0
1.840000 -0.052882 0
1.845000 -0.028084 0
1.850000 -0.011958 0
1.855000 -0.000364 0
1.860000 0.009615 0
1.865000 0.019647 0
1.870000 0.030553 0
1.875000 0.042700 0
1.880000 0.056252 0
1.885000 0.071281 0
1.890000 0.087808 0
1.895000 0.105816 0
1.900000 0.125249 0
1.905000 0.146007 0
1.910000 0.167945 0
1.915000 0.190870 0
1.920000 0.214544 0
1.925000 0.238685 0
1.930000 0.262967 0
1.935000 0.287031 0
1.940000 0.310491 0
1.945000 0.332943 0
1.950000 0.353975 0
1.955000 0.373181 0
1.960000 0.390174 0
1.965000 0.404593 0
1.970000 0.416125 0
1.975000 0.424507 0
1.980000 0.429539 0
1.985000 0.431093 5
1.990000 0.429114 0
1.995000 0.423625 0
2.000000 0.414727 0
2.005000 0.402594 0
2.010000 0.387466 0
2.015000 0.369644 0
2.020000 0.349475 0
2.025000 0.327346 0
2.030000 0.303668 0
2.035000 0.278861 0
2.040000 0.253349 0
2.045000 0.227539 0
2.050000 0.201816 0
2.055000 0.176534 0
2.060000 0.152006 0
2.065000 0.128502 0
2.070000 0.106243 0
2.075000 0.085402 0
2.080000 0.066103 0
2.085000 0.048425 0
2.090000 0.032403 0
2.095000 0.018036 0
2.100000 0.005287 0
2.105000 -0.005905 0
2.110000 -0.015623 0
2.115000 -0.023969 0
2.120000 -0.031053 0
2.125000 -0.036991 0
2.130000 -0.041902 0
2.135000 -0.045904 0
2.140000 -0.049110 0
2.145000 -0.051627 0
2.150000 -0.053552 0
2.155000 -0.054977 0
2.160000 -0.055981 0
2.165000 -0.056636 0
2.170000 -0.057004 0
2.175000 -0.057138 0
2.180000 -0.057084 0
2.185000 -0.056880 0
2.190000 -0.056557 0
2.195000 -0.056141 0
2.200000 -0.055654 0
2.205000 -0.055089 0
2.210000 -0.054380 0
2.215000 -0.053675 0
2.220000 -0.052974 0
2.225000 -0.052276 0
2.230000 -0.051581 0
2.235000 -0.050890 0
2.240000 -0.050203 0
2.245000 -0.049519 0
2.250000 -0.048838 0
2.255000 -0.048161 0
2.260000 -0.047487 0
2.265000 -0.046816 0
2.270000 -0.046149 0
2.275000 -0.045485 0
2.280000 -0.044824 0
2.285000 -0.044167 0
2.290000 -0.043513 0
2.295000 -0.042862 0
2.300000 -0.042214 0
2.305000 -0.041569 0
2.310000 -0.040926 0
2.315000 -0.040286 0
2.320000 -0.039646 0
2.325000 -0.039005 0
2.330000 -0.038361 0
2.335000 -0.037708 0
2.340000 -0.037039 0
2.345000 -0.036343 0
2.350000 -0.035600 0
2.355000 -0.034784 0
2.360000 -0.033856 0
2.365000 -0.032761 0
2.370000 -0.031423 0
2.375000 -0.029740 0
2.380000 -0.027581 0
2.385000 -0.024778 0
2.390000 -0.021131 0
2.395000 -0.016404 0
2.400000 -0.010334 0
2.405000 -0.002640 0
2.410000 0.006952 0
2.415000 0.018693 0
2.420000 0.032772 0
2.425000 0.049286 0
2.430000 0.068203 0
2.435000 0.089332 0
2.440000 0.112296 0
2.445000 0.136531 0
2.450000 0.161285 0
2.455000 0.185653 0
2.460000 0.208622 0
2.465000 0.229139 0
2.470000 0.246189 0
2.475000 0.258874 0
2.480000 0.266495 0
2.485000 0.268611 1
2.490000 0.265081 0
2.495000 0.256081 0
2.500000 0.242083 0
2.505000 0.223819 0
2.510000 0.202213 0
2.515000 0.178304 0
2.520000 0.153165 0
2.525000 0.127819 0
2.530000 0.103177 0
2.535000 0.079971 0
2.540000 0.058704 0
2.545000 0.039555 0
2.550000 0.022234 0
2.555000 0.005737 0
2.560000 -0.011882 0
2.565000 -0.033460 0
2.570000 -0.061932 0
2.575000 -0.098568 0
2.580000 -0.140623 0
2.585000 -0.179672 0
2.590000 -0.201884 2
2.595000 -0.190399 0
2.600000 -0.128641 0
2.605000 -0.003674 0
2.610000 0.189388 0
2.615000 0.440476 0
2.620000 0.717331 0
2.625000 0.965332 0
2.630000 1.121294 0
2.635000 1.138538 3
2.640000 1.009240 0
2.645000 0.767972 0
2.650000 0.473987 0
2.655000 0.187092 0
2.660000 -0.049949 0
2.665000 -0.215812 0
2.670000 -0.306517 0
2.675000 -0.330214 4
2.680000 -0.303516 0
2.685000 -0.247705 0
2.690000 -0.183522 0
2.695000 -0.126073 0
2.700000 -0.082449 0
2.705000 -0.052837 0
2.710000 -0.033651 0
2.715000 -0.020542 0
2.720000 -0.010077 0
2.725000 -0.000130 0
2.730000 0.010412 0
2.735000 0.022065 0
2.740000 0.035059 0
2.745000 0.049496 0
2.750000 0.065417 0
2.755000 0.082822 0
2.760000 0.101674 0
2.765000 0.121894 0
2.770000 0.143359 0
2.775000 0.165904 0
2.780000 0.189313 0
2.785000 0.213328 0
2.790000 0.237648 0
2.795000 0.261935 0
2.800000 0.285818 0
2.805000 0.308907 0
2.810000 0.330796 0
2.815000 0.351081 0
2.820000 0.369366 0
2.825000 0.385280 0
2.830000 0.398487 0
2.835000 0.408698 0
2.840000 0.415681 0
2.845000 0.419268 0
2.850000 0.419363 5
2.855000 0.415947 0
2.860000 0.409074 0
2.865000 0.398876 0
2.870000 0.385550 0
2.875000 0.369362 0
2.880000 0.350627 0
2.885000 0.329706 0
2.890000 0.306992 0
2.895000 0.282897 0
2.900000 0.257838 0
2.905000 0.232229 0
2.910000 0.206466 0
2.915000 0.180920 0
2.920000 0.155926 0
2.925000 0.131781 0
2.930000 0.108734 0
2.935000 0.086987 0
2.940000 0.066696 0
2.945000 0.047968 0
2.950000 0.030868 0
2.955000 0.015417 0
2.960000 0.001604 0
2.965000 -0.010616 0
2.970000 -0.021310 0
2.975000 -0.030567 0
2.980000 -0.038489 0
2.985000 -0.045188 0
2.990000 -0.050779 0
2.995000 -0.055381 0
3.000000 -0.059109 0
3.005000 -0.062073 0
3.010000 -0.064376 0
3.015000 -0.066114 0
3.020000 -0.067374 0
3.025000 -0.068233 0
3.030000 -0.068760 0
3.035000 -0.069014 0
3.040000 -0.069046 0
3.045000 -0.068899 0
3.050000 -0.068610 0
3.055000 -0.068209 0
3.060000 -0.067721 0
3.065000 -0.067165 0
3.070000 -0.066427 0
3.075000 -0.065662 0
3.080000 -0.064901 0
3.085000 -0.064144 0
3.090000 -0.063390 0
3.095000 -0.062640 0
3.100000 -0.061894 0
3.105000 -0.061151 0
3.110000 -0.060413 0
3.115000 -0.059678 0
3.120000 -0.058946 0
3.125000 -0.058218 0
3.130000 -0.057494 0
3.135000 -0.056774 0
3.140000 -0.056057 0
3.145000 -0.055344 0
3.150000 -0.054634 0
3.155000 -0.053927 0
3.160000 -0.053224 0
3.165000 -0.052525 0
3.170000 -0.051828 0
3.175000 -0.051135 0
3.180000 -0.050443 0
3.185000 -0.049753 0
3.190000 -0.049061 0
3.195000 -0.048367 0
3.200000 -0.047664 0
3.205000 -0.046945 0
3.210000 -0.046198 0
3.215000 -0.045406 0
3.220000 -0.044542 0
3.225000 -0.043567 0
3.230000 -0.042426 0
3.235000 -0.041046 0
3.240000 -0.039327 0
3.245000 -0.037137 0
3.250000 -0.034316 0
3.255000 -0.030664 0
3.260000 -0.025951 0
3.265000 -0.019917 0
3.270000 -0.012287 0
3.275000 -0.002786 0
3.280000 0.008834 0
3.285000 0.022767 0
3.290000 0.039116 0
3.295000 0.057862 0
3.300000 0.078832 0
3.305000 0.101672 0
3.310000 0.125843 0
3.315000 0.150620 0
3.320000 0.175125 0
3.325000 0.198367 0
3.330000 0.219304 0
3.335000 0.236925 0
3.340000 0.250321 0
3.345000 0.258770 0
3.350000 0.261793 1
3.355000 0.259204 0
3.360000 0.251126 0
3.365000 0.237981 0
3.370000 0.220450 0
3.375000 0.199420 0
3.380000 0.175902 0
3.385000 0.150956 0
3.390000 0.125611 0
3.395000 0.100791 0
3.400000 0.077265 0
3.405000 0.055581 0
3.410000 0.035999 0
3.415000 0.018353 0
3.420000 0.001839 0
3.425000 -0.015234 0
3.430000 -0.035491 0
3.435000 -0.061940 0
3.440000 -0.096469 0
3.445000 -0.137616 0
3.450000 -0.178619 0
3.455000 -0.207101 2
3.460000 -0.206910 0
3.465000 -0.161247 0
3.470000 -0.055915 0
3.475000 0.116869 0
3.480000 0.352462 0
3.485000 0.626246 0
3.490000 0.890394 0
3.495000 1.082772 0
3.500000 1.149006 3
3.505000 1.067997 0
3.510000 0.861608 0
3.515000 0.580449 0
3.520000 0.284241 0
3.525000 0.021820 0
3.530000 -0.177752 0
3.535000 -0.303839 0
3.540000 -0.359240 4
3.545000 -0.356204 0
3.550000 -0.313309 0
3.555000 -0.251369 0
3.560000 -0.188394 0
3.565000 -0.135757 0
3.570000 -0.097380 0
3.575000 -0.071722 0
3.580000 -0.054818 0
3.585000 -0.042677 0
3.590000 -0.032395 0
3.595000 -0.022248 0
3.600000 -0.011359 0
3.605000 0.000683 0
3.610000 0.014060 0
3.615000 0.028856 0
3.620000 0.045104 0
3.625000 0.062798 0
3.630000 0.081897 0
3.635000 0.102323 0
3.640000 0.123955 0
3.645000 0.146631 0
3.650000 0.170144 0
3.655000 0.194248 0
3.660000 0.218655 0
3.665000 0.243041 0
3.670000 0.267057 0
3.675000 0.290327 0
3.680000 0.312467 0
3.685000 0.333089 0
3.690000 0.351814 0
3.695000 0.368281 0
3.700000 0.382162 0
3.705000 0.393172 0
3.710000 0.401074 0
3.715000 0.405692 0
3.720000 0.406915 5
3.725000 0.404703 0
3.730000 0.399084 0
3.735000 0.390161 0
3.740000 0.378099 0
3.745000 0.363127 0
3.750000 0.345530 0
3.755000 0.325635 0
3.760000 0.303805 0
3.765000 0.280426 0
3.770000 0.255898 0
3.775000 0.230618 0
3.780000 0.204976 0
3.785000 0.179341 0
3.790000 0.154056 0
3.795000 0.129426 0
3.800000 0.105718 0
3.805000 0.083157 0
3.810000 0.061921 0
3.815000 0.042145 0
3.820000 0.023920 0
3.825000 0.007295 0
3.830000 -0.007714 0
3.835000 -0.021128 0
3.840000 -0.032993 0
3.845000 -0.043377 0
3.850000 -0.052367 0
3.855000 -0.060063 0
3.860000 -0.066573 0
3.865000 -0.072006 0
3.870000 -0.076477 0
3.875000 -0.080095 0
3.880000 -0.082965 0
3.885000 -0.085187 0
3.890000 -0.086853 0
3.895000 -0.088046 0
3.900000 -0.088840 0
3.905000 -0.089303 0
3.910000 -0.089491 0
3.915000 -0.089456 0
3.920000 -0.089240 0
3.925000 -0.088878 0
3.930000 -0.088400 0
3.935000 -0.087832 0
3.940000 -0.087194 0
3.945000 -0.086477 0
3.950000 -0.085612 0
3.955000 -0.084751 0
3.960000 -0.083895 0
3.965000 -0.083042 0
3.970000 -0.082194 0
3.975000 -0.081351 0
3.980000 -0.080511 0
3.985000 -0.079676 0
3.990000 -0.078845 0
3.995000 -0.078018 0
4.000000 -0.077195 0
4.005000 -0.076376 0
4.010000 -0.075562 0
4.015000 -0.074751 0
4.020000 -0.073944 0
4.025000 -0.073142 0
4.030000 -0.072343 0
4.035000 -0.071548 0
4.040000 -0.070758 0
4.045000 -0.069970 0
4.050000 -0.069187 0
4.055000 -0.068406 0
4.060000 -0.067628 0
4.065000 -0.066852 0
4.070000 -0.066074 0
4.075000 -0.065294 0
4.080000 -0.064505 0
4.085000 -0.063700 0
4.090000 -0.062869 0
4.095000 -0.061992 0
4.100000 -0.061045 0
4.105000 -0.059990 0
4.110000 -0.058777 0
4.115000 -0.057334 0
4.120000 -0.055568 0
4.125000 -0.053358 0
4.130000 -0.050551 0
4.135000 -0.046964 0
4.140000 -0.042379 0
4.145000 -0.036552 0
4.150000 -0.029223 0
4.155000 -0.020128 0
4.160000 -0.009019 0
4.165000 0.004303 0
4.170000 0.019968 0
4.175000 0.037996 0
4.180000 0.058273 0
4.185000 0.080524 0
4.190000 0.104300 0
4.195000 0.128979 0
4.200000 0.153776 0
4.205000 0.177787 0
4.210000 0.200029 0
4.215000 0.219512 0
4.220000 0.235308 0
4.225000 0.246622 0
4.230000 0.252861 0
4.235000 0.253684 1
4.240000 0.249029 0
4.245000 0.239126 0
4.250000 0.224472 0
4.255000 0.205792 0
4.260000 0.183979 0
4.265000 0.160023 0
4.270000 0.134935 0
4.275000 0.109681 0
4.280000 0.085118 0
4.285000 0.061940 0
4.290000 0.040632 0
4.295000 0.021388 0
4.300000 0.003985 0
4.305000 -0.012428 0
4.310000 -0.029550 0
4.315000 -0.049941 0
4.320000 -0.076473 0
4.325000 -0.110920 0
4.330000 -0.151901 0
4.335000 -0.193085 0
4.340000 -0.222853 0
4.345000 -0.225912 2
4.350000 -0.186114 0
4.355000 -0.089437 0
4.360000 0.072688 0
4.365000 0.298209 0
4.370000 0.567505 0
4.375000 0.839083 0
4.380000 1.055038 0
4.385000 1.159081 3
4.390000 1.120709 0
4.395000 0.949118 0
4.400000 0.685901 0
4.405000 0.388426 0
4.410000 0.109171 0
4.415000 -0.116570 0
4.420000 -0.272271 0
4.425000 -0.356036 0
4.430000 -0.376283 4
4.435000 -0.348722 0
4.440000 -0.293085 0
4.445000 -0.228649 0
4.450000 -0.169820 0
4.455000 -0.123901 0
4.460000 -0.091783 0
4.465000 -0.070528 0
4.470000 -0.056071 0
4.475000 -0.044944 0
4.480000 -0.034835 0
4.485000 -0.024449 0
4.490000 -0.013148 0
4.495000 -0.000635 0
4.500000 0.013225 0
4.505000 0.028492 0
4.510000 0.045187 0
4.515000 0.063294 0
4.520000 0.082763 0
4.525000 0.103509 0
4.530000 0.125406 0
4.535000 0.148286 0
4.540000 0.171944 0
4.545000 0.196132 0
4.550000 0.220567 0
4.555000 0.244932 0
4.560000 0.268885 0
4.565000 0.292062 0
4.570000 0.314091 0
4.575000 0.334598 0
4.580000 0.353217 0
4.585000 0.369603 0
4.590000 0.383439 0
4.595000 0.394449 0
4.600000 0.402407 0
4.605000 0.407140 0
4.610000 0.408541 5
4.615000 0.406565 0
4.620000 0.401238 0
4.625000 0.392649 0
4.630000 0.380955 0
4.635000 0.366371 0
4.640000 0.349162 0
4.645000 0.329641 0
4.650000 0.308152 0
4.655000 0.285065 0
4.660000 0.260765 0
4.665000 0.235637 0
4.670000 0.210061 0
4.675000 0.184398 0
4.680000 0.158988 0
4.685000 0.134137 0
4.690000 0.110115 0
4.695000 0.087152 0
4.700000 0.065435 0
4.705000 0.045111 0
4.710000 0.026283 0
4.715000 0.009014 0
4.720000 -0.006668 0
4.725000 -0.020768 0
4.730000 -0.033321 0
4.735000 -0.044384 0
4.740000 -0.054032 0
4.745000 -0.062356 0
4.750000 -0.069457 0
4.755000 -0.075440 0
4.760000 -0.080415 0
4.765000 -0.084489 0
4.770000 -0.087766 0
4.775000 -0.090348 0
4.780000 -0.092327 0
4.785000 -0.093789 0
4.790000 -0.094811 0
4.795000 -0.095464 0
4.800000 -0.095809 0
4.805000 -0.095900 0
4.810000 -0.095782 0
4.815000 -0.095496 0
4.820000 -0.095074 0
4.825000 -0.094545 0
4.830000 -0.093931 0
4.835000 -0.093252 0
4.840000 -0.092386 0
4.845000 -0.091491 0
4.850000 -0.090601 0
4.855000 -0.089715 0
4.860000 -0.088834 0
4.865000 -0.087957 0
4.870000 -0.087085 0
4.875000 -0.086217 0
4.880000 -0.085353 0
4.885000 -0.084494 0
4.890000 -0.083638 0
4.895000 -0.082788 0
4.900000 -0.081941 0
4.905000 -0.081098 0
4.910000 -0.080260 0
4.915000 -0.079426 0
4.920000 -0.078596 0
4.925000 -0.077770 0
4.930000 -0.076949 0
4.935000 -0.076131 0
4.940000 -0.075317 0
4.945000 -0.074507 0
4.950000 -0.073700 0
4.955000 -0.072896 0
4.960000 -0.072094 0
4.965000 -0.071292 0
4.970000 -0.070488 0
4.975000 -0.069678 0
4.980000 -0.068855 0
4.985000 -0.068010 0
4.990000 -0.067128 0
4.995000 -0.066187 0
5.000000 -0.065157 0
5.005000 -0.063993 0
5.010000 -0.062636 0
5.015000 -0.061006 0
5.020000 -0.058998 0
5.025000 -0.056478 0
5.030000 -0.053286 0
5.035000 -0.049225 0
5.040000 -0.044074 0
5.045000 -0.037588 0
5.050000 -0.029512 0
5.055000 -0.019595 0
5.060000 -0.007613 0
5.065000 0.006602 0
5.070000 0.023140 0
5.075000 0.041976 0
5.080000 0.062949 0
5.085000 0.085739 0
5.090000 0.109860 0
5.095000 0.134662 0
5.100000 0.159353 0
5.105000 0.183032 0
5.110000 0.204743 0
5.115000 0.223538 0
5.120000 0.238541 0
5.125000 0.249015 0
5.130000 0.254429 0
5.135000 0.254491 1
5.140000 0.249183 0
5.145000 0.238759 0
5.150000 0.223725 0
5.155000 0.204798 0
5.160000 0.182849 0
5.165000 0.158838 0
5.170000 0.133743 0
5.175000 0.108493 0
5.180000 0.083918 0
5.185000 0.060692 0
5.190000 0.039290 0
5.195000 0.019918 0
5.200000 0.002395 0
5.205000 -0.014039 0
5.210000 -0.030932 0
5.215000 -0.050672 0
5.220000 -0.076058 0
5.225000 -0.109097 0
5.230000 -0.149136 0
5.235000 -0.191054 0
5.240000 -0.224615 0
5.245000 -0.235618 2
5.250000 -0.208388 0
5.255000 -0.128568 0
5.260000 0.013982 0
5.265000 0.220974 0
5.270000 0.479446 0
5.275000 0.756251 0
5.280000 0.999478 0
5.285000 1.151503 0
5.290000 1.170418 3
5.295000 1.048145 0
5.300000 0.814214 0
5.305000 0.522996 0
5.310000 0.231505 0
5.315000 -0.017275 0
5.320000 -0.199857 0
5.325000 -0.309433 0
5.330000 -0.351111 4
5.335000 -0.338447 0
5.340000 -0.290399 0
5.345000 -0.227161 0
5.350000 -0.165376 0
5.355000 -0.114912 0
5.360000 -0.078593 0
5.365000 -0.054390 0
5.370000 -0.038315 0
5.375000 -0.026564 0
5.380000 -0.016428 0
5.385000 -0.006322 0
5.390000 0.004562 0
5.395000 0.016600 0
5.400000 0.029964 0
5.405000 0.044732 0
5.410000 0.060934 0
5.415000 0.078564 0
5.420000 0.097582 0
5.425000 0.117910 0
5.430000 0.139432 0
5.435000 0.161990 0
5.440000 0.185385 0
5.445000 0.209377 0
5.450000 0.233688 0
5.455000 0.258004 0
5.460000 0.281986 0
5.465000 0.305270 0
5.470000 0.327481 0
5.475000 0.348240 0
5.480000 0.367175 0
5.485000 0.383931 0
5.490000 0.398183 0
5.495000 0.409644 0
5.500000 0.418073 0
5.505000 0.423287 0
5.510000 0.425165 5
5.515000 0.423652 0
5.520000 0.418761 0
5.525000 0.410573 0
5.530000 0.399237 0
5.535000 0.384961 0
5.540000 0.368006 0
5.545000 0.348683 0
5.550000 0.327337 0
5.555000 0.304338 0
5.560000 0.280074 0
5.565000 0.254934 0
5.570000 0.229304 0
5.575000 0.203551 0
5.580000 0.178021 0
5.585000 0.153026 0
5.590000 0.128842 0
5.595000 0.105707 0
5.600000 0.083813 0
5.605000 0.063309 0
5.610000 0.044304 0
5.615000 0.026864 0
5.620000 0.011018 0
5.625000 -0.003237 0
5.630000 -0.015933 0
5.635000 -0.027129 0
5.640000 -0.036901 0
5.645000 -0.045339 0
5.650000 -0.052544 0
5.655000 -0.058624 0
5.660000 -0.063689 0
5.665000 -0.067848 0
5.670000 -0.071206 0
5.675000 -0.073865 0
5.680000 -0.075918 0
5.685000 -0.077452 0
5.690000 -0.078546 0
5.695000 -0.079270 0
5.700000 -0.079686 0
5.705000 -0.079848 0
5.710000 -0.079801 0
5.715000 -0.079587 0
5.720000 -0.079238 0
5.725000 -0.078782 0
5.730000 -0.078241 0
5.735000 -0.077636 0
5.740000 -0.076846 0
5.745000 -0.076029 0
5.750000 -0.075216 0
5.755000 -0.074408 0
5.760000 -0.073603 0
5.765000 -0.072802 0
5.770000 -0.072005 0
5.775000 -0.071212 0
5.780000 -0.070423 0
5.785000 -0.069638 0
5.790000 -0.068857 0
5.795000 -0.068080 0
5.800000 -0.067307 0
5.805000 -0.066537 0
5.810000 -0.065772 0
5.815000 -0.065010 0
5.820000 -0.064252 0
5.825000 -0.063498 0
5.830000 -0.062747 0
5.835000 -0.062000 0
5.840000 -0.061257 0
5.845000 -0.060516 0
5.850000 -0.059779 0
5.855000 -0.059044 0
5.860000 -0.058310 0
5.865000 -0.057576 0
5.870000 -0.056839 0
5.875000 -0.056094 0
5.880000 -0.055334 0
5.885000 -0.054548 0
5.890000 -0.053720 0
5.895000 -0.052827 0
5.900000 -0.051833 0
5.905000 -0.050692 0
5.910000 -0.049337 0
5.915000 -0.047682 0
5.920000 -0.045614 0
5.925000 -0.042990 0
5.930000 -0.039637 0
5.935000 -0.035351 0
5.940000 -0.029898 0
5.945000 -0.023029 0
5.950000 -0.014482 0
5.955000 -0.004012 0
5.960000 0.008594 0
5.965000 0.023484 0
5.970000 0.040716 0
5.975000 0.060223 0
5.980000 0.081790 0
5.985000 0.105039 0
5.990000 0.129421 0
5.995000 0.154225 0
6.000000 0.178609 0
6.005000 0.201636 0
6.010000 0.222335 0
6.015000 0.239764 0
6.020000 0.253085 0
6.025000 0.261625 0
6.030000 0.264933 1
6.035000 0.262823 0
6.040000 0.255382 0
6.045000 0.242974 0
6.050000 0.226202 0
6.055000 0.205861 0
6.060000 0.182877 0
6.065000 0.158238 0
6.070000 0.132916 0
6.075000 0.107817 0
6.080000 0.083713 0
6.085000 0.061205 0
6.090000 0.040662 0
6.095000 0.022135 0
6.100000 0.005200 0
6.105000 -0.011256 0
6.110000 -0.029209 0
6.115000 -0.051366 0
6.120000 -0.080373 0
6.125000 -0.117214 0
6.130000 -0.159198 0
6.135000 -0.198564 0
6.140000 -0.222713 2
6.145000 -0.216188 0
6.150000 -0.163485 0
6.155000 -0.051882 0
6.160000 0.125098 0
6.165000 0.362230 0
6.170000 0.635971 0
6.175000 0.901757 0
6.180000 1.101640 0
6.185000 1.183300 3
6.190000 1.120876 0
6.195000 0.927255 0
6.200000 0.651268 0
6.205000 0.353909 0
6.210000 0.086720 0
6.215000 -0.118756 0
6.220000 -0.250317 0
6.225000 -0.309988 4
6.230000 -0.309759 0
6.235000 -0.268330 0
6.240000 -0.206927 0
6.245000 -0.144070 0
6.250000 -0.091520 0
6.255000 -0.053356 0
6.260000 -0.028017 0
6.265000 -0.011454 0
6.270000 0.000384 0
6.275000 0.010424 0
6.280000 0.020381 0
6.285000 0.031122 0
6.290000 0.043044 0
6.295000 0.056326 0
6.300000 0.071048 0
6.305000 0.087238 0
6.310000 0.104889 0
6.315000 0.123954 0
6.320000 0.144347 0
6.325000 0.165941 0
6.330000 0.188564 0
6.335000 0.211999 0
6.340000 0.235987 0
6.345000 0.260228 0
6.350000 0.284387 0
6.355000 0.308101 0
6.360000 0.330986 0
6.365000 0.352647 0
6.370000 0.372688 0
6.375000 0.390727 0
6.380000 0.406403 0
6.385000 0.419391 0
6.390000 0.429411 0
6.395000 0.436238 0
6.400000 0.439711 0
6.405000 0.439736 5
6.410000 0.436294 0
6.415000 0.429437 0
6.420000 0.419289 0
6.425000 0.406042 0
6.430000 0.389951 0
6.435000 0.371321 0
6.440000 0.350500 0
6.445000 0.327870 0
6.450000 0.303829 0
6.455000 0.278787 0
6.460000 0.253147 0
6.465000 0.227298 0
6.470000 0.201608 0
6.475000 0.176409 0
6.480000 0.151998 0
6.485000 0.128627 0
6.490000 0.106503 0
6.495000 0.085787 0
6.500000 0.066596 0
6.505000 0.049001 0
6.510000 0.033034 0
6.515000 0.018693 0
6.520000 0.005942 0
6.525000 -0.005279 0
6.530000 -0.015051 0
6.535000 -0.023469 0
6.540000 -0.030640 0
6.545000 -0.036676 0
6.550000 -0.041692 0
6.555000 -0.045802 0
6.560000 -0.049115 0
6.565000 -0.051734 0
6.570000 -0.053758 0
6.575000 -0.055273 0
6.580000 -0.056360 0
6.585000 -0.057089 0
6.590000 -0.057522 0
6.595000 -0.057712 0
6.600000 -0.057705 0
6.605000 -0.057541 0
6.610000 -0.057251 0
6.615000 -0.056862 0
6.620000 -0.056396 0
6.625000 -0.055844 0
6.630000 -0.055132 0
6.635000 -0.054423 0
6.640000 -0.053718 0
6.645000 -0.053016 0
6.650000 -0.052318 0
6.655000 -0.051623 0
6.660000 -0.050932 0
6.665000 -0.050244 0
6.670000 -0.049560 0
6.675000 -0.048879 0
6.680000 -0.048201 0
6.685000 -0.047527 0
6.690000 -0.046857 0
6.695000 -0.046189 0
6.700000 -0.045525 0
6.705000 -0.044864 0
6.710000 -0.044207 0
6.715000 -0.043552 0
6.720000 -0.042901 0
6.725000 -0.042253 0
6.730000 -0.041607 0
6.735000 -0.040964 0
6.740000 -0.040323 0
6.745000 -0.039683 0
6.750000 -0.039041 0
6.755000 -0.038395 0
6.760000 -0.037741 0
6.765000 -0.037069 0
6.770000 -0.036368 0
6.775000 -0.035621 0
6.780000 -0.034801 0
6.785000 -0.033868 0
6.790000 -0.032770 0
6.795000 -0.031434 0
6.800000 -0.029760 0
6.805000 -0.027623 0
6.810000 -0.024864 0
6.815000 -0.021292 0
6.820000 -0.016680 0
6.825000 -0.010778 0
6.830000 -0.003317 0
6.835000 0.005970 0
6.840000 0.017330 0
6.845000 0.030957 0
6.850000 0.046964 0
6.855000 0.065348 0
6.860000 0.085961 0
6.865000 0.108485 0
6.870000 0.132422 0
6.875000 0.157096 0
6.880000 0.181674 0
6.885000 0.205206 0
6.890000 0.226682 0
6.895000 0.245102 0
6.900000 0.259550 0
6.905000 0.269269 0
6.910000 0.273728 1
6.915000 0.272665 0
6.920000 0.266115 0
6.925000 0.254407 0
6.930000 0.238133 0
6.935000 0.218100 0
6.940000 0.195265 0
6.945000 0.170654 0
6.950000 0.145289 0
6.955000 0.120118 0
6.960000 0.095953 0
6.965000 0.073422 0
6.970000 0.052904 0
6.975000 0.034433 0
6.980000 0.017526 0
6.985000 0.000943 0
6.990000 -0.017480 0
6.995000 -0.040626 0
7.000000 -0.071110 0
7.005000 -0.109417 0
7.010000 -0.151744 0
7.015000 -0.188770 0
7.020000 -0.206364 2
7.025000 -0.188079 0
7.030000 -0.118257 0
7.035000 0.014812 0
7.040000 0.214539 0
7.045000 0.469354 0
7.050000 0.746222 0
7.055000 0.991336 0
7.060000 1.143849 0
7.065000 1.159495 3
7.070000 1.030290 0
7.075000 0.788836 0
7.080000 0.494680 0
7.085000 0.207875 0
7.090000 -0.028737 0
7.095000 -0.193893 0
7.100000 -0.283747 0
7.105000 -0.306622 4
7.110000 -0.279317 0
7.115000 -0.223256 0
7.120000 -0.159204 0
7.125000 -0.102170 0
7.130000 -0.059074 0
7.135000 -0.029953 0
7.140000 -0.011144 0
7.145000 0.001711 0
7.150000 0.012017 0
7.155000 0.021865 0
7.160000 0.032339 0
7.165000 0.043942 0
7.170000 0.056897 0
7.175000 0.071302 0
7.180000 0.087196 0
7.185000 0.104578 0
7.190000 0.123408 0
7.195000 0.143604 0
7.200000 0.165040 0
7.205000 0.187547 0
7.210000 0.210905 0
7.215000 0.234852 0
7.220000 0.259083 0
7.225000 0.283255 0
7.230000 0.306994 0
7.235000 0.329906 0
7.240000 0.351583 0
7.245000 0.371619 0
7.250000 0.389618 0
7.255000 0.405210 0
7.260000 0.418061 0
7.265000 0.427885 0
7.270000 0.434454 0
7.275000 0.437606 5
7.280000 0.437254 0
7.285000 0.433385 0
7.290000 0.426061 0
7.295000 0.415421 0
7.300000 0.401674 0
7.305000 0.385090 0
7.310000 0.365993 0
7.315000 0.344750 0
7.320000 0.321758 0
7.325000 0.297433 0
7.330000 0.272194 0
7.335000 0.246456 0
7.340000 0.220613 0
7.345000 0.195035 0
7.350000 0.170053 0
7.355000 0.145958 0
7.360000 0.122995 0
7.365000 0.101362 0
7.370000 0.081206 0
7.375000 0.062629 0
7.380000 0.045690 0
7.385000 0.030405 0
7.390000 0.016757 0
7.395000 0.004698 0
7.400000 -0.005845 0
7.405000 -0.014962 0
7.410000 -0.022759 0
7.415000 -0.029348 0
7.420000 -0.034847 0
7.425000 -0.039374 0
7.430000 -0.043044 0
7.435000 -0.045966 0
7.440000 -0.048243 0
7.445000 -0.049970 0
7.450000 -0.051232 0
7.455000 -0.052106 0
7.460000 -0.052658 0
7.465000 -0.052946 0
7.470000 -0.053020 0
7.475000 -0.052923 0
7.480000 -0.052689 0
7.485000 -0.052347 0
7.490000 -0.051922 0
7.495000 -0.051433 0
7.500000 -0.050772 0
7.505000 -0.050085 0
7.510000 -0.049401 0
7.515000 -0.048721 0
7.520000 -0.048044 0
7.525000 -0.047371 0
7.530000 -0.046701 0
7.535000 -0.046034 0
7.540000 -0.045371 0
7.545000 -0.044711 0
7.550000 -0.044054 0
7.555000 -0.043401 0
7.560000 -0.042750 0
7.565000 -0.042103 0
7.570000 -0.041460 0
7.575000 -0.040819 0
7.580000 -0.040182 0
7.585000 -0.039547 0
7.590000 -0.038916 0
7.595000 -0.038288 0
7.600000 -0.037662 0
7.605000 -0.037039 0
7.610000 -0.036417 0
7.615000 -0.035796 0
7.620000 -0.035173 0
7.625000 -0.034545 0
7.630000 -0.033906 0
7.635000 -0.033249 0
7.640000 -0.032559 0
7.645000 -0.031817 0
7.650000 -0.030992 0
7.655000 -0.030042 0
7.660000 -0.028908 0
7.665000 -0.027506 0
7.670000 -0.025729 0
7.675000 -0.023437 0
7.680000 -0.020455 0
7.685000 -0.016575 0
7.690000 -0.011554 0
7.695000 -0.005126 0
7.700000 0.002988 0
7.705000 0.013058 0
7.710000 0.025321 0
7.715000 0.039946 0
7.720000 0.057003 0
7.725000 0.076427 0
7.730000 0.097986 0
7.735000 0.121267 0
7.740000 0.145665 0
7.745000 0.170398 0
7.750000 0.194539 0
7.755000 0.217069 0
7.760000 0.236943 0
7.765000 0.253168 0
7.770000 0.264889 0
7.775000 0.271454 0
7.780000 0.272483 1
7.785000 0.267894 0
7.790000 0.257918 0
7.795000 0.243077 0
7.800000 0.224135 0
7.805000 0.202038 0
7.810000 0.177828 0
7.815000 0.152568 0
7.820000 0.127260 0
7.825000 0.102785 0
7.830000 0.079837 0
7.835000 0.058872 0
7.840000 0.040012 0
7.845000 0.022877 0
7.850000 0.006349 0
7.855000 -0.011647 0
7.860000 -0.034009 0
7.865000 -0.063556 0
7.870000 -0.101159 0
7.875000 -0.143437 0
7.880000 -0.181289 0
7.885000 -0.200456 2
7.890000 -0.184050 0
7.895000 -0.115845 0
7.900000 0.016376 0
7.905000 0.216252 0
7.910000 0.471785 0
7.915000 0.748517 0
7.920000 0.990518 0
7.925000 1.135405 0
7.930000 1.139542 3
7.935000 0.999064 0
7.940000 0.751322 0
7.945000 0.455919 0
7.950000 0.171278 0
7.955000 -0.061714 0
7.960000 -0.223201 0
7.965000 -0.310072 0
7.970000 -0.330924 4
7.975000 -0.302524 0
7.980000 -0.246035 0
7.985000 -0.181866 0
7.990000 -0.124734 0
7.995000 -0.081440 0
8.000000 -0.052044 0
8.005000 -0.032961 0
8.010000 -0.019885 0
8.015000 -0.009426 0
8.020000 0.000517 0
8.025000 0.011047 0
8.030000 0.022680 0
8.035000 0.035643 0
8.040000 0.050040 0
8.045000 0.065913 0
8.050000 0.083263 0
8.055000 0.102054 0
8.060000 0.122210 0
8.065000 0.143611 0
8.070000 0.166095 0
8.075000 0.189452 0
8.080000 0.213428 0
8.085000 0.237729 0
8.090000 0.262021 0
8.095000 0.285941 0
8.100000 0.309102 0
8.105000 0.331105 0
8.110000 0.351548 0
8.115000 0.370039 0
8.120000 0.386207 0
8.125000 0.399716 0
8.130000 0.410273 0
8.135000 0.417642 0
8.140000 0.421649 0
8.145000 0.422191 5
8.150000 0.419237 0
8.155000 0.412833 0
8.160000 0.403096 0
8.165000 0.390216 0
8.170000 0.374443 0
8.175000 0.356084 0
8.180000 0.335489 0
8.185000 0.313044 0
8.190000 0.289152 0
8.195000 0.264228 0
8.200000 0.238683 0
8.205000 0.212912 0
8.210000 0.187289 0
8.215000 0.162152 0
8.220000 0.137803 0
8.225000 0.114499 0
8.230000 0.092451 0
8.235000 0.071821 0
8.240000 0.052727 0
8.245000 0.035241 0
8.250000 0.019396 0
8.255000 0.005186 0
8.260000 -0.007425 0
8.265000 -0.018499 0
8.270000 -0.028119 0
8.275000 -0.036382 0
8.280000 -0.043398 0
8.285000 -0.049282 0
8.290000 -0.054148 0
8.295000 -0.058112 0
8.300000 -0.061286 0
8.305000 -0.063772 0
8.310000 -0.065670 0
8.315000 -0.067066 0
8.320000 -0.068042 0
8.325000 -0.068666 0
8.330000 -0.069001 0
8.335000 -0.069100 0
8.340000 -0.069007 0
8.345000 -0.068762 0
8.350000 -0.068396 0
8.355000 -0.067935 0
8.360000 -0.067401 0
8.365000 -0.066784 0
8.370000 -0.066017 0
8.375000 -0.065254 0
8.380000 -0.064495 0
8.385000 -0.063740 0
8.390000 -0.062988 0
8.395000 -0.062240 0
8.400000 -0.061496 0
8.405000 -0.060755 0
8.410000 -0.060019 0
8.415000 -0.059286 0
8.420000 -0.058556 0
8.425000 -0.057830 0
8.430000 -0.057108 0
8.435000 -0.056390 0
8.440000 -0.055675 0
8.445000 -0.054963 0
8.450000 -0.054255 0
8.455000 -0.053551 0
8.460000 -0.052849 0
8.465000 -0.052152 0
8.470000 -0.051457 0
8.475000 -0.050764 0
8.480000 -0.050073 0
8.485000 -0.049383 0
8.490000 -0.048690 0
8.495000 -0.047992 0
8.500000 -0.047282 0
8.505000 -0.046552 0
8.510000 -0.045785 0
8.515000 -0.044962 0
8.520000 -0.044049 0
8.525000 -0.043003 0
8.530000 -0.041759 0
8.535000 -0.040233 0
8.540000 -0.038313 0
8.545000 -0.035855 0
8.550000 -0.032682 0
8.555000 -0.028583 0
8.560000 -0.023314 0
8.565000 -0.016612 0
8.570000 -0.008200 0
8.575000 0.002184 0
8.580000 0.014768 0
8.585000 0.029709 0
8.590000 0.047062 0
8.595000 0.066749 0
8.600000 0.088527 0
8.605000 0.111972 0
8.610000 0.136474 0
8.615000 0.161253 0
8.620000 0.185388 0
8.625000 0.207871 0
8.630000 0.227675 0
8.635000 0.243825 0
8.640000 0.255483 0
8.645000 0.262014 0
8.650000 0.263047 1
8.655000 0.258504 0
8.660000 0.248613 0
8.665000 0.233886 0
8.670000 0.215073 0
8.675000 0.193103 0
8.680000 0.169001 0
8.685000 0.143815 0
8.690000 0.118537 0
8.695000 0.094040 0
8.700000 0.071023 0
8.705000 0.049952 0
8.710000 0.030977 0
8.715000 0.013773 0
8.720000 -0.002684 0
8.725000 -0.020344 0
8.730000 -0.042002 0
8.735000 -0.070522 0
8.740000 -0.107120 0
8.745000 -0.149114 0
8.750000 -0.188322 0
8.755000 -0.211303 2
8.760000 -0.201600 0
8.765000 -0.142914 0
8.770000 -0.022295 0
8.775000 0.165745 0
8.780000 0.412762 0
8.785000 0.689256 0
8.790000 0.943546 0
8.795000 1.113588 0
8.800000 1.150361 3
8.805000 1.041294 0
8.810000 0.815576 0
8.815000 0.526983 0
8.820000 0.233894 0
8.825000 -0.018673 0
8.830000 -0.205553 0
8.835000 -0.318940 0
8.840000 -0.363463 4
8.845000 -0.352534 0
8.850000 -0.305238 0
8.855000 -0.242092 0
8.860000 -0.180117 0
8.865000 -0.129450 0
8.870000 -0.093026 0
8.875000 -0.068799 0
8.880000 -0.052724 0
8.885000 -0.040951 0
8.890000 -0.030759 0
8.895000 -0.020562 0
8.900000 -0.009562 0
8.905000 0.002612 0
8.910000 0.016126 0
8.915000 0.031059 0
8.920000 0.047436 0
8.925000 0.065251 0
8.930000 0.084459 0
8.935000 0.104978 0
8.940000 0.126687 0
8.945000 0.149420 0
8.950000 0.172973 0
8.955000 0.197096 0
8.960000 0.221502 0
8.965000 0.245871 0
8.970000 0.269852 0
8.975000 0.293076 0
8.980000 0.315160 0
8.985000 0.335720 0
8.990000 0.354381 0
8.995000 0.370787 0
9.000000 0.384613 0
9.005000 0.395577 0
9.010000 0.403446 0
9.015000 0.408046 0
9.020000 0.409268 5
9.025000 0.407070 0
9.030000 0.401482 0
9.035000 0.392602 0
9.040000 0.380595 0
9.045000 0.365687 0
9.050000 0.348156 0
9.055000 0.328328 0
9.060000 0.306560 0
9.065000 0.283235 0
9.070000 0.258746 0
9.075000 0.233490 0
9.080000 0.207852 0
9.085000 0.182200 0
9.090000 0.156875 0
9.095000 0.132182 0
9.100000 0.108389 0
9.105000 0.085721 0
9.110000 0.064359 0
9.115000 0.044440 0
9.120000 0.026058 0
9.125000 0.009267 0
9.130000 -0.005917 0
9.135000 -0.019509 0
9.140000 -0.031551 0
9.145000 -0.042111 0
9.150000 -0.051272 0
9.155000 -0.059132 0
9.160000 -0.065795 0
9.165000 -0.071372 0
9.170000 -0.075975 0
9.175000 -0.079714 0
9.180000 -0.082692 0
9.185000 -0.085010 0
9.190000 -0.086760 0
9.195000 -0.088027 0
9.200000 -0.088884 0
9.205000 -0.089401 0
9.210000 -0.089635 0
9.215000 -0.089637 0
9.220000 -0.089452 0
9.225000 -0.089115 0
9.230000 -0.088658 0
9.235000 -0.088106 0
9.240000 -0.087481 0
9.245000 -0.086772 0
9.250000 -0.085905 0
9.255000 -0.085043 0
9.260000 -0.084185 0
9.265000 -0.083331 0
9.270000 -0.082482 0
9.275000 -0.081637 0
9.280000 -0.080796 0
9.285000 -0.079959 0
9.290000 -0.079127 0
9.295000 -0.078298 0
9.300000 -0.077474 0
9.305000 -0.076654 0
9.310000 -0.075838 0
9.315000 -0.075026 0
9.320000 -0.074218 0
9.325000 -0.073414 0
9.330000 -0.072614 0
9.335000 -0.071818 0
9.340000 -0.071026 0
9.345000 -0.070237 0
9.350000 -0.069453 0
9.355000 -0.068671 0
9.360000 -0.067892 0
9.365000 -0.067115 0
9.370000 -0.066338 0
9.375000 -0.065559 0
9.380000 -0.064774 0
9.385000 -0.063976 0
9.390000 -0.063156 0
9.395000 -0.062298 0
9.400000 -0.061380 0
9.405000 -0.060370 0
9.410000 -0.059223 0
9.415000 -0.057876 0
9.420000 -0.056247 0
9.425000 -0.054225 0
9.430000 -0.051673 0
9.435000 -0.048419 0
9.440000 -0.044262 0
9.445000 -0.038971 0
9.450000 -0.032292 0
9.455000 -0.023962 0
9.460000 -0.013728 0
9.465000 -0.001367 0
9.470000 0.013280 0
9.475000 0.030286 0
9.480000 0.049597 0
9.485000 0.071015 0
9.490000 0.094171 0
9.495000 0.118525 0
9.500000 0.143370 0
9.505000 0.167859 0
9.510000 0.191046 0
9.515000 0.211947 0
9.520000 0.229604 0
9.525000 0.243157 0
9.530000 0.251916 0
9.535000 0.255416 1
9.540000 0.253459 0
9.545000 0.246129 0
9.550000 0.233790 0
9.555000 0.217054 0
9.560000 0.196728 0
9.565000 0.173752 0
9.570000 0.149127 0
9.575000 0.123842 0
9.580000 0.098808 0
9.585000 0.074806 0
9.590000 0.052435 0
9.595000 0.032056 0
9.600000 0.013694 0
9.605000 -0.003121 0
9.610000 -0.019580 0
9.615000 -0.037763 0
9.620000 -0.060454 0
9.625000 -0.090255 0
9.630000 -0.127863 0
9.635000 -0.170013 0
9.640000 -0.208193 0
9.645000 -0.229111 2
9.650000 -0.216911 0
9.655000 -0.156089 0
9.660000 -0.034426 0
9.665000 0.153208 0
9.670000 0.398893 0
9.675000 0.675063 0
9.680000 0.933153 0
9.685000 1.113742 0
9.690000 1.167581 3
9.695000 1.078295 0
9.700000 0.867741 0
9.705000 0.585540 0
9.710000 0.289248 0
9.715000 0.025901 0
9.720000 -0.176196 0
9.725000 -0.306276 0
9.730000 -0.366470 0
9.735000 -0.368025 4
9.740000 -0.328436 0
9.745000 -0.267767 0
9.750000 -0.203989 0
9.755000 -0.149132 0
9.760000 -0.108083 0
9.765000 -0.080100 0
9.770000 -0.061604 0
9.775000 -0.048616 0
9.780000 -0.038047 0
9.785000 -0.027967 0
9.790000 -0.017345 0
9.795000 -0.005683 0
9.800000 0.007244 0
9.805000 0.021542 0
9.810000 0.037256 0
9.815000 0.054394 0
9.820000 0.072930 0
9.825000 0.092802 0
9.830000 0.113914 0
9.835000 0.136125 0
9.840000 0.159258 0
9.845000 0.183094 0
9.850000 0.207373 0
9.855000 0.231804 0
9.860000 0.256060 0
9.865000 0.279794 0
9.870000 0.302640 0
9.875000 0.324225 0
9.880000 0.344177 0
9.885000 0.362137 0
9.890000 0.377767 0
9.895000 0.390764 0
9.900000 0.400867 0
9.905000 0.407864 0
9.910000 0.411604 0
9.915000 0.411996 5
9.920000 0.409017 0
9.925000 0.402710 0
9.930000 0.393187 0
9.935000 0.380619 0
9.940000 0.365236 0
9.945000 0.347318 0
9.950000 0.327186 0
9.955000 0.305192 0
9.960000 0.281710 0
9.965000 0.257123 0
9.970000 0.231817 0
9.975000 0.206166 0
9.980000 0.180525 0
9.985000 0.155222 0
9.990000 0.130556 0
9.995000 0.106783 0
10.000000 0.084123 0
10.005000 0.062751 0
10.010000 0.042801 0
10.015000 0.024365 0
10.020000 0.007497 0
10.025000 -0.007784 0
10.030000 -0.021493 0
10.035000 -0.033669 0
10.040000 -0.044374 0
10.045000 -0.053689 0
10.050000 -0.061707 0
10.055000 -0.068529 0
10.060000 -0.074263 0
10.065000 -0.079016 0
10.070000 -0.082896 0
10.075000 -0.086006 0
10.080000 -0.088445 0
10.085000 -0.090303 0
10.090000 -0.091664 0
10.095000 -0.092604 0
10.100000 -0.093190 0
10.105000 -0.093482 0
10.110000 -0.093532 0
10.115000 -0.093383 0
10.120000 -0.093075 0
10.125000 -0.092637 0
10.130000 -0.092099 0
10.135000 -0.091480 0
10.140000 -0.090800 0
10.145000 -0.089943 0
10.150000 -0.089061 0
10.155000 -0.088183 0
10.160000 -0.087310 0
10.165000 -0.086440 0
10.170000 -0.085575 0
10.175000 -0.084715 0
10.180000 -0.083859 0
10.185000 -0.083007 0
10.190000 -0.082159 0
10.195000 -0.081315 0
10.200000 -0.080476 0
10.205000 -0.079641 0
10.210000 -0.078810 0
10.215000 -0.077983 0
10.220000 -0.077160 0
10.225000 -0.076342 0
10.230000 -0.075527 0
10.235000 -0.074717 0
10.240000 -0.073910 0
10.245000 -0.073107 0
10.250000 -0.072308 0
10.255000 -0.071512 0
10.260000 -0.070718 0
10.265000 -0.069926 0
10.270000 -0.069135 0
10.275000 -0.068340 0
10.280000 -0.067538 0
10.285000 -0.066722 0
10.290000 -0.065881 0
10.295000 -0.065000 0
10.300000 -0.064056 0
10.305000 -0.063015 0
10.310000 -0.061833 0
10.315000 -0.060445 0
10.320000 -0.058767 0
10.325000 -0.056692 0
10.330000 -0.054081 0
10.335000 -0.050767 0
10.340000 -0.046551 0
10.345000 -0.041208 0
10.350000 -0.034490 0
10.355000 -0.026143 0
10.360000 -0.015920 0
10.365000 -0.003604 0
10.370000 0.010962 0
10.375000 0.027851 0
10.380000 0.047020 0
10.385000 0.068284 0
10.390000 0.091300 0
10.395000 0.115558 0
10.400000 0.140386 0
10.405000 0.164977 0
10.410000 0.188420 0
10.415000 0.209762 0
10.420000 0.228059 0
10.425000 0.242457 0
10.430000 0.252246 0
10.435000 0.256927 1
10.440000 0.256245 0
10.445000 0.250220 0
10.450000 0.239140 0
10.455000 0.223541 0
10.460000 0.204160 0
10.465000 0.181882 0
10.470000 0.157670 0
10.475000 0.132497 0
10.480000 0.107279 0
10.485000 0.082826 0
10.490000 0.059791 0
10.495000 0.038617 0
10.500000 0.019472 0
10.505000 0.002119 0
10.510000 -0.014281 0
10.515000 -0.031369 0
10.520000 -0.051608 0
10.525000 -0.077775 0
10.530000 -0.111679 0
10.535000 -0.152262 0
10.540000 -0.193875 0
10.545000 -0.225809 0
10.550000 -0.233624 2
10.555000 -0.201701 0
10.560000 -0.116009 0
10.565000 0.032951 0
10.570000 0.245753 0
10.575000 0.507720 0
10.580000 0.783802 0
10.585000 1.020975 0
10.590000 1.162274 0
10.595000 1.168382 3
10.600000 1.034056 0
10.605000 0.792088 0
10.610000 0.498423 0
10.615000 0.209643 0
10.620000 -0.032916 0
10.625000 -0.207598 0
10.630000 -0.309081 0
10.635000 -0.343619 4
10.640000 -0.325666 0
10.645000 -0.274713 0
10.650000 -0.210900 0
10.655000 -0.150242 0
10.660000 -0.101693 0
10.665000 -0.067280 0
10.670000 -0.044520 0
10.675000 -0.029323 0
10.680000 -0.017988 0
10.685000 -0.007970 0
10.690000 0.002184 0
10.695000 0.013201 0
10.700000 0.025413 0
10.705000 0.038974 0
10.710000 0.053952 0
10.715000 0.070371 0
10.720000 0.088220 0
10.725000 0.107450 0
10.730000 0.127977 0
10.735000 0.149676 0
10.740000 0.172382 0
10.745000 0.195884 0
10.750000 0.219933 0
10.755000 0.244243 0
10.760000 0.268492 0
10.765000 0.292331 0
10.770000 0.315392 0
10.775000 0.337295 0
10.780000 0.357658 0
10.785000 0.376111 0
10.790000 0.392301 0
10.795000 0.405908 0
10.800000 0.416654 0
10.805000 0.424309 0
10.810000 0.428704 0
10.815000 0.429730 5
10.820000 0.427351 0
10.825000 0.421596 0
10.830000 0.412564 0
10.835000 0.400420 0
10.840000 0.385390 0
10.845000 0.367750 0
10.850000 0.347822 0
10.855000 0.325962 0
10.860000 0.302550 0
10.865000 0.277976 0
10.870000 0.252634 0
10.875000 0.226906 0
10.880000 0.201159 0
10.885000 0.175730 0
10.890000 0.150924 0
10.895000 0.127007 0
10.900000 0.104206 0
10.905000 0.082700 0
10.910000 0.062628 0
10.915000 0.044085 0
10.920000 0.027125 0
10.925000 0.011768 0
10.930000 -0.002001 0
10.935000 -0.014223 0
10.940000 -0.024962 0
10.945000 -0.034300 0
10.950000 -0.042334 0
10.955000 -0.049168 0
10.960000 -0.054910 0
10.965000 -0.059672 0
10.970000 -0.063563 0
10.975000 -0.066687 0
10.980000 -0.069143 0
10.985000 -0.071024 0
10.990000 -0.072415 0
10.995000 -0.073391 0
11.000000 -0.074019 0
11.005000 -0.074360 0
11.010000 -0.074463 0
11.015000 -0.074375 0
11.020000 -0.074131 0
11.025000 -0.073763 0
11.030000 -0.073297 0
11.035000 -0.072755 0
11.040000 -0.072154 0
11.045000 -0.071388 0
11.050000 -0.070599 0
11.055000 -0.069813 0
11.060000 -0.069031 0
11.065000 -0.068253 0
11.070000 -0.067478 0
11.075000 -0.066708 0
11.080000 -0.065942 0
11.085000 -0.065179 0
11.090000 -0.064420 0
11.095000 -0.063665 0
11.100000 -0.062914 0
11.105000 -0.062166 0
11.110000 -0.061423 0
11.115000 -0.060682 0
11.120000 -0.059946 0
11.125000 -0.059213 0
11.130000 -0.058484 0
11.135000 -0.057758 0
11.140000 -0.057036 0
11.145000 -0.056317 0
11.150000 -0.055602 0
11.155000 -0.054888 0
11.160000 -0.054177 0
11.165000 -0.053466 0
11.170000 -0.052753 0
11.175000 -0.052034 0
11.180000 -0.051305 0
11.185000 -0.050555 0
11.190000 -0.049772 0
11.195000 -0.048936 0
11.200000 -0.048017 0
11.205000 -0.046975 0
11.210000 -0.045752 0
11.215000 -0.044272 0
11.220000 -0.042434 0
11.225000 -0.040108 0
11.230000 -0.037135 0
11.235000 -0.033322 0
11.240000 -0.028448 0
11.245000 -0.022268 0
11.250000 -0.014520 0
11.255000 -0.004949 0
11.260000 0.006678 0
11.265000 0.020542 0
11.270000 0.036745 0
11.275000 0.055277 0
11.280000 0.075988 0
11.285000 0.098569 0
11.290000 0.122538 0
11.295000 0.147247 0
11.300000 0.171896 0
11.305000 0.195576 0
11.310000 0.217314 0
11.315000 0.236143 0
11.320000 0.251167 0
11.325000 0.261636 0
11.330000 0.267002 1
11.335000 0.266970 0
11.340000 0.261523 0
11.345000 0.250921 0
11.350000 0.235686 0
11.355000 0.216553 0
11.360000 0.194414 0
11.365000 0.170247 0
11.370000 0.145048 0
11.375000 0.119757 0
11.380000 0.095208 0
11.385000 0.072071 0
11.390000 0.050807 0
11.395000 0.031593 0
11.400000 0.014186 0
11.405000 -0.002273 0
11.410000 -0.019474 0
11.415000 -0.039949 0
11.420000 -0.066521 0
11.425000 -0.100941 0
11.430000 -0.141894 0
11.435000 -0.183254 0
11.440000 -0.213719 0
11.445000 -0.218332 2
11.450000 -0.181188 0
11.455000 -0.088315 0
11.460000 0.069161 0
11.465000 0.290167 0
11.470000 0.556985 0
11.475000 0.830625 0
11.480000 1.055062 0
11.485000 1.173672 3
11.490000 1.149320 0
11.495000 0.985066 0
11.500000 0.723553 0
11.505000 0.425983 0
11.510000 0.148414 0
11.515000 -0.072235 0
11.520000 -0.219655 0
11.525000 -0.293269 0
11.530000 -0.303467 4
11.535000 -0.268194 0
11.540000 -0.208919 0
11.545000 -0.145314 0
11.550000 -0.090663 0
11.555000 -0.050307 0
11.560000 -0.023348 0
11.565000 -0.005862 0
11.570000 0.006365 0
11.575000 0.016477 0
11.580000 0.026352 0
11.585000 0.036949 0
11.590000 0.048710 0
11.595000 0.061831 0
11.600000 0.076398 0
11.605000 0.092446 0
11.610000 0.109968 0
11.615000 0.128921 0
11.620000 0.149219 0
11.625000 0.170736 0
11.630000 0.193298 0
11.635000 0.216688 0
11.640000 0.240642 0
11.645000 0.264857 0
11.650000 0.288994 0
11.655000 0.312682 0
11.660000 0.335532 0
11.665000 0.357142 0
11.670000 0.377111 0
11.675000 0.395050 0
11.680000 0.410594 0
11.685000 0.423414 0
11.690000 0.433228 0
11.695000 0.439812 0
11.700000 0.443006 5
11.705000 0.442721 0
11.710000 0.438942 0
11.715000 0.431729 0
11.720000 0.421217 0
11.725000 0.407608 0
11.730000 0.391165 0
11.735000 0.372205 0
11.740000 0.351087 0
11.745000 0.328202 0
11.750000 0.303958 0
11.755000 0.278768 0
11.760000 0.253043 0
11.765000 0.227175 0
11.770000 0.201530 0
11.775000 0.176439 0
11.780000 0.152197 0
11.785000 0.129049 0
11.790000 0.107197 0
11.795000 0.086794 0
11.800000 0.067947 0
11.805000 0.050721 0
11.810000 0.035137 0
11.815000 0.021185 0
11.820000 0.008822 0
11.825000 -0.002020 0
11.830000 -0.011426 0
11.835000 -0.019499 0
11.840000 -0.026348 0
11.845000 -0.032088 0
11.850000 -0.036837 0
11.855000 -0.040707 0
11.860000 -0.043810 0
11.865000 -0.046247 0
11.870000 -0.048115 0
11.875000 -0.049500 0
11.880000 -0.050479 0
11.885000 -0.051122 0
11.890000 -0.051487 0
11.895000 -0.051627 0
11.900000 -0.051584 0
11.905000 -0.051395 0
11.910000 -0.051092 0
11.915000 -0.050698 0
11.920000 -0.050235 0
11.925000 -0.049583 0
11.930000 -0.048902 0
11.935000 -0.048224 0
11.940000 -0.047550 0
11.945000 -0.046879 0
11.950000 -0.046211 0
11.955000 -0.045547 0
11.960000 -0.044886 0
11.965000 -0.044228 0
11.970000 -0.043574 0
11.975000 -0.042923 0
11.980000 -0.042275 0
11.985000 -0.041631 0
11.990000 -0.040989 0
11.995000 -0.040351 0
12.000000 -0.039716 0
12.005000 -0.039084 0
12.010000 -0.038455 0
12.015000 -0.037830 0
12.020000 -0.037207 0
12.025000 -0.036587 0
12.030000 -0.035969 0
12.035000 -0.035354 0
12.040000 -0.034739 0
12.045000 -0.034124 0
12.050000 -0.033506 0
12.055000 -0.032881 0
12.060000 -0.032241 0
12.065000 -0.031577 0
12.070000 -0.030873 0
12.075000 -0.030105 0
12.080000 -0.029237 0
12.085000 -0.028222 0
12.090000 -0.026990 0
12.095000 -0.025450 0
12.100000 -0.023483 0
12.105000 -0.020938 0
12.110000 -0.017627 0
12.115000 -0.013331 0
12.120000 -0.007801 0
12.125000 -0.000768 0
12.130000 0.008044 0
12.135000 0.018891 0
12.140000 0.031986 0
12.145000 0.047465 0
12.150000 0.065352 0
12.155000 0.085529 0
12.160000 0.107709 0
12.165000 0.131420 0
12.170000 0.156006 0
12.175000 0.180647 0
12.180000 0.204393 0
12.185000 0.226223 0
12.190000 0.245115 0
12.195000 0.260121 0
12.200000 0.270448 0
12.205000 0.275524 1
12.210000 0.275049 0
12.215000 0.269026 0
12.220000 0.257760 0
12.225000 0.241829 0
12.230000 0.222038 0
12.235000 0.199349 0
12.240000 0.174802 0
12.245000 0.149438 0
12.250000 0.124226 0
12.255000 0.099997 0
12.260000 0.077397 0
12.265000 0.056820 0
12.270000 0.038309 0
12.275000 0.021377 0
12.280000 0.004771 0
12.285000 -0.013714 0
12.290000 -0.037008 0
12.295000 -0.067744 0
12.300000 -0.106315 0
12.305000 -0.148665 0
12.310000 -0.185075 0
12.315000 -0.200997 2
12.320000 -0.179684 0
12.325000 -0.105399 0
12.330000 0.033290 0
12.335000 0.238848 0
12.340000 0.497720 0
12.345000 0.774007 0
12.350000 1.011376 0
12.355000 1.148693 3
12.360000 1.144796 0
12.365000 0.996461 0
12.370000 0.742741 0
12.375000 0.446027 0
12.380000 0.165538 0
12.385000 -0.058897 0
12.390000 -0.209285 0
12.395000 -0.284475 0
12.400000 -0.294990 4
12.405000 -0.259347 0
12.410000 -0.199744 0
12.415000 -0.136374 0
12.420000 -0.082595 0
12.425000 -0.043446 0
12.430000 -0.017631 0
12.435000 -0.000967 0
12.440000 0.010815 0
12.445000 0.020787 0
12.450000 0.030723 0
12.455000 0.041500 0
12.460000 0.053513 0
12.465000 0.066935 0
12.470000 0.081842 0
12.475000 0.098258 0
12.480000 0.116167 0
12.485000 0.135513 0
12.490000 0.156196 0
12.495000 0.178070 0
12.500000 0.200940 0
12.505000 0.224566 0
12.510000 0.248661 0
12.515000 0.272894 0
12.520000 0.296902 0
12.525000 0.320293 0
12.530000 0.342656 0
12.535000 0.363576 0
12.540000 0.382640 0
12.545000 0.399456 0
12.550000 0.413664 0
12.555000 0.424947 0
12.560000 0.433043 0
12.565000 0.437755 0
12.570000 0.438958 5
12.575000 0.436604 0
12.580000 0.430724 0
12.585000 0.421428 0
12.590000 0.408898 0
12.595000 0.393386 0
12.600000 0.375203 0
12.605000 0.354707 0
12.610000 0.332293 0
12.615000 0.308380 0
12.620000 0.283395 0
12.625000 0.257765 0
12.630000 0.231900 0
12.635000 0.206186 0
12.640000 0.180973 0
12.645000 0.156573 0
12.650000 0.133249 0
12.655000 0.111216 0
12.660000 0.090639 0
12.665000 0.071634 0
12.670000 0.054272 0
12.675000 0.038579 0
12.680000 0.024545 0
12.685000 0.012129 0
12.690000 0.001260 0
12.695000 -0.008149 0
12.700000 -0.016205 0
12.705000 -0.023020 0
12.710000 -0.028715 0
12.715000 -0.033409 0
12.720000 -0.037220 0
12.725000 -0.040262 0
12.730000 -0.042639 0
12.735000 -0.044450 0
12.740000 -0.045783 0
12.745000 -0.046716 0
12.750000 -0.047318 0
12.755000 -0.047650 0
12.760000 -0.047763 0
12.765000 -0.047700 0
12.770000 -0.047497 0
12.775000 -0.047184 0
12.780000 -0.046787 0
12.785000 -0.046323 0
12.790000 -0.045688 0
12.795000 -0.045026 0
12.800000 -0.044368 0
12.805000 -0.043713 0
12.810000 -0.043061 0
12.815000 -0.042413 0
12.820000 -0.041767 0
12.825000 -0.041125 0
12.830000 -0.040486 0
12.835000 -0.039851 0
12.840000 -0.039218 0
12.845000 -0.038589 0
12.850000 -0.037963 0
12.855000 -0.037340 0
12.860000 -0.036720 0
12.865000 -0.036103 0
12.870000 -0.035489 0
12.875000 -0.034878 0
12.880000 -0.034270 0
12.885000 -0.033665 0
12.890000 -0.033062 0
12.895000 -0.032461 0
12.900000 -0.031862 0
12.905000 -0.031262 0
12.910000 -0.030660 0
12.915000 -0.030052 0
12.920000 -0.029431 0
12.925000 -0.028788 0
12.930000 -0.028107 0
12.935000 -0.027366 0
12.940000 -0.026530 0
12.945000 -0.025551 0
12.950000 -0.024361 0
12.955000 -0.022870 0
12.960000 -0.020955 0
12.965000 -0.018462 0
12.970000 -0.015202 0
12.975000 -0.010949 0
12.980000 -0.005444 0
12.985000 0.001590 0
12.990000 0.010439 0
12.995000 0.021366 0
13.000000 0.034590 0
13.005000 0.050246 0
13.010000 0.068348 0
13.015000 0.088759 0
13.020000 0.111161 0
13.025000 0.135042 0
13.030000 0.159698 0
13.035000 0.184253 0
13.040000 0.207709 0
13.045000 0.229002 0
13.050000 0.247084 0
13.055000 0.261006 0
13.060000 0.269996 0
13.065000 0.273533 1
13.070000 0.271393 0
13.075000 0.263674 0
13.080000 0.250785 0
13.085000 0.233407 0
13.090000 0.212440 0
13.095000 0.188917 0
13.100000 0.163923 0
13.105000 0.138514 0
13.110000 0.113639 0
13.115000 0.090082 0
13.120000 0.068401 0
13.125000 0.048849 0
13.130000 0.031230 0
13.135000 0.014672 0
13.140000 -0.002631 0
13.145000 -0.023437 0
13.150000 -0.050795 0
13.155000 -0.086376 0
13.160000 -0.128097 0
13.165000 -0.168218 0
13.170000 -0.193321 2
13.175000 -0.186523 0
13.180000 -0.130830 0
13.185000 -0.012576 0
13.190000 0.174267 0
13.195000 0.421234 0
13.200000 0.697750 0
13.205000 0.949986 0
13.210000 1.113813 0
13.215000 1.140033 3
13.220000 1.018616 0
13.225000 0.782064 0
13.230000 0.489253 0
13.235000 0.200876 0
13.240000 -0.039004 0
13.245000 -0.208007 0
13.250000 -0.301512 0
13.255000 -0.327329 4
13.260000 -0.301933 0
13.265000 -0.246668 0
13.270000 -0.182495 0
13.275000 -0.124808 0
13.280000 -0.080919 0
13.285000 -0.051122 0
13.290000 -0.031846 0
13.295000 -0.018709 0
13.300000 -0.008246 0
13.305000 0.001693 0
13.310000 0.012227 0
13.315000 0.023876 0
13.320000 0.036872 0
13.325000 0.051316 0
13.330000 0.067250 0
13.335000 0.084673 0
13.340000 0.103546 0
13.345000 0.123790 0
13.350000 0.145281 0
13.355000 0.167849 0
13.360000 0.191277 0
13.365000 0.215303 0
13.370000 0.239624 0
13.375000 0.263896 0
13.380000 0.287747 0
13.385000 0.310781 0
13.390000 0.332592 0
13.395000 0.352771 0
13.400000 0.370922 0
13.405000 0.386673 0
13.410000 0.399688 0
13.415000 0.409679 0
13.420000 0.416418 0
13.425000 0.419740 5
13.430000 0.419556 0
13.435000 0.415849 0
13.440000 0.408684 0
13.445000 0.398196 0
13.450000 0.384592 0
13.455000 0.368143 0
13.460000 0.349173 0
13.465000 0.328048 0
13.470000 0.305166 0
13.475000 0.280942 0
13.480000 0.255798 0
13.485000 0.230147 0
13.490000 0.204386 0
13.495000 0.178885 0
13.500000 0.153977 0
13.505000 0.129953 0
13.510000 0.107060 0
13.515000 0.085495 0
13.520000 0.065407 0
13.525000 0.046899 0
13.530000 0.030029 0
13.535000 0.014814 0
13.540000 0.001237 0
13.545000 -0.010751 0
13.550000 -0.021220 0
13.555000 -0.030264 0
13.560000 -0.037986 0
13.565000 -0.044499 0
13.570000 -0.049923 0
13.575000 -0.054373 0
13.580000 -0.057966 0
13.585000 -0.060812 0
13.590000 -0.063013 0
13.595000 -0.064664 0
13.600000 -0.065851 0
13.605000 -0.066649 0
13.610000 -0.067127 0
13.615000 -0.067341 0
13.620000 -0.067342 0
13.625000 -0.067172 0
13.630000 -0.066865 0
13.635000 -0.066452 0
13.640000 -0.065956 0
13.645000 -0.065396 0
13.650000 -0.064665 0
13.655000 -0.063909 0
13.660000 -0.063156 0
13.665000 -0.062407 0
13.670000 -0.061662 0
13.675000 -0.060921 0
13.680000 -0.060183 0
13.685000 -0.059450 0
13.690000 -0.058719 0
13.695000 -0.057993 0
13.700000 -0.057270 0
13.705000 -0.056550 0
13.710000 -0.055835 0
13.715000 -0.055122 0
13.720000 -0.054414 0
13.725000 -0.053708 0
13.730000 -0.053007 0
13.735000 -0.052308 0
13.740000 -0.051614 0
13.745000 -0.050922 0
13.750000 -0.050233 0
13.755000 -0.049547 0
13.760000 -0.048863 0
13.765000 -0.048179 0
13.770000 -0.047494 0
13.775000 -0.046804 0
13.780000 -0.046104 0
13.785000 -0.045385 0
13.790000 -0.044633 0
13.795000 -0.043828 0
13.800000 -0.042939 0
13.805000 -0.041924 0
13.810000 -0.040721 0
13.815000 -0.039248 0
13.820000 -0.037394 0
13.825000 -0.035018 0
13.830000 -0.031944 0
13.835000 -0.027961 0
13.840000 -0.022827 0
13.845000 -0.016271 0
13.850000 -0.008017 0
13.855000 0.002208 0
13.860000 0.014636 0
13.865000 0.029435 0
13.870000 0.046667 0
13.875000 0.066260 0
13.880000 0.087974 0
13.885000 0.111384 0
13.890000 0.135876 0
13.895000 0.160657 0
13.900000 0.184793 0
13.905000 0.207260 0
13.910000 0.227011 0
13.915000 0.243058 0
13.920000 0.254554 0
13.925000 0.260861 0
13.930000 0.261613 1
13.935000 0.256748 0
13.940000 0.246514 0
13.945000 0.231451 0
13.950000 0.212338 0
13.955000 0.190129 0
13.960000 0.165873 0
13.965000 0.140632 0
13.970000 0.115405 0
13.975000 0.091062 0
13.980000 0.068286 0
13.985000 0.047515 0
13.990000 0.028841 0
13.995000 0.011845 0
14.000000 -0.004658 0
14.005000 -0.022813 0
14.010000 -0.045558 0
14.015000 -0.075649 0
14.020000 -0.113726 0
14.025000 -0.156013 0
14.030000 -0.192963 0
14.035000 -0.209991 2
14.040000 -0.190117 0
14.045000 -0.117276 0
14.050000 0.020300 0
14.055000 0.225312 0
14.060000 0.484169 0
14.065000 0.760441 0
14.070000 0.996837 0
14.075000 1.131411 3
14.080000 1.123110 0
14.085000 0.973754 0
14.090000 0.722217 0
14.095000 0.426373 0
14.100000 0.142118 0
14.105000 -0.091433 0
14.110000 -0.255028 0
14.115000 -0.345304 0
14.120000 -0.370070 4
14.125000 -0.345016 0
14.130000 -0.290317 0
14.135000 -0.225947 0
14.140000 -0.166961 0
14.145000 -0.121017 0
14.150000 -0.089062 0
14.155000 -0.068050 0
14.160000 -0.053801 0
14.165000 -0.042789 0
14.170000 -0.032698 0
14.175000 -0.022257 0
14.180000 -0.010846 0
14.185000 0.001815 0
14.190000 0.015855 0
14.195000 0.031330 0
14.200000 0.048255 0
14.205000 0.066609 0
14.210000 0.086334 0
14.215000 0.107333 0
14.220000 0.129469 0
14.225000 0.152561 0
14.230000 0.176385 0
14.235000 0.200678 0
14.240000 0.225138 0
14.245000 0.249430 0
14.250000 0.273195 0
14.255000 0.296053 0
14.260000 0.317621 0
14.265000 0.337513 0
14.270000 0.355359 0
14.275000 0.370813 0
14.280000 0.383564 0
14.285000 0.393346 0
14.290000 0.399950 0
14.295000 0.403225 5
14.300000 0.403088 0
14.305000 0.399527 0
14.310000 0.392600 0
14.315000 0.382434 0
14.320000 0.369220 0
14.325000 0.353208 0
14.330000 0.334699 0
14.335000 0.314034 0
14.340000 0.291584 0
14.345000 0.267740 0
14.350000 0.242900 0
14.355000 0.217458 0
14.360000 0.191795 0
14.365000 0.166270 0
14.370000 0.141209 0
14.375000 0.116906 0
14.380000 0.093608 0
14.385000 0.071524 0
14.390000 0.050816 0
14.395000 0.031600 0
14.400000 0.013954 0
14.405000 -0.002086 0
14.410000 -0.016518 0
14.415000 -0.029371 0
14.420000 -0.040701 0
14.425000 -0.050581 0
14.430000 -0.059103 0
14.435000 -0.066370 0
14.440000 -0.072489 0
14.445000 -0.077573 0
14.450000 -0.081732 0
14.455000 -0.085076 0
14.460000 -0.087707 0
14.465000 -0.089721 0
14.470000 -0.091208 0
14.475000 -0.092248 0
14.480000 -0.092913 0
14.485000 -0.093265 0
14.490000 -0.093361 0
14.495000 -0.093246 0
14.500000 -0.092963 0
14.505000 -0.092545 0
14.510000 -0.092019 0
14.515000 -0.091410 0
14.520000 -0.090735 0
14.525000 -0.089880 0
14.530000 -0.088998 0
14.535000 -0.088121 0
14.540000 -0.087247 0
14.545000 -0.086378 0
14.550000 -0.085514 0
14.555000 -0.084654 0
14.560000 -0.083798 0
14.565000 -0.082946 0
14.570000 -0.082098 0
14.575000 -0.081255 0
14.580000 -0.080416 0
14.585000 -0.079581 0
14.590000 -0.078751 0
14.595000 -0.077924 0
14.600000 -0.077102 0
14.605000 -0.076283 0
14.610000 -0.075469 0
14.615000 -0.074659 0
14.620000 -0.073852 0
14.625000 -0.073050 0
14.630000 -0.072251 0
14.635000 -0.071455 0
14.640000 -0.070661 0
14.645000 -0.069868 0
14.650000 -0.069075 0
14.655000 -0.068277 0
14.660000 -0.067470 0
14.665000 -0.066644 0
14.670000 -0.065789 0
14.675000 -0.064884 0
14.680000 -0.063902 0
14.685000 -0.062803 0
14.690000 -0.061533 0
14.695000 -0.060017 0
14.700000 -0.058156 0
14.705000 -0.055823 0
14.710000 -0.052862 0
14.715000 -0.049081 0
14.720000 -0.044259 0
14.725000 -0.038150 0
14.730000 -0.030491 0
14.735000 -0.021022 0
14.740000 -0.009504 0
14.745000 0.004253 0
14.750000 0.020359 0
14.755000 0.038813 0
14.760000 0.059473 0
14.765000 0.082037 0
14.770000 0.106028 0
14.775000 0.130797 0
14.780000 0.155542 0
14.785000 0.179343 0
14.790000 0.201220 0
14.795000 0.220190 0
14.800000 0.235347 0
14.805000 0.245927 0
14.810000 0.251375 0
14.815000 0.251392 1
14.820000 0.245961 0
14.825000 0.235351 0
14.830000 0.220091 0
14.835000 0.200931 0
14.840000 0.178778 0
14.845000 0.154622 0
14.850000 0.129470 0
14.855000 0.104271 0
14.860000 0.079859 0
14.865000 0.056903 0
14.870000 0.035853 0
14.875000 0.016861 0
14.880000 -0.000357 0
14.885000 -0.016735 0
14.890000 -0.034068 0
14.895000 -0.054980 0
14.900000 -0.082294 0
14.905000 -0.117546 0
14.910000 -0.158916 0
14.915000 -0.199555 0
14.920000 -0.227435 2
14.925000 -0.227123 0
14.930000 -0.182625 0
14.935000 -0.080328 0
14.940000 0.087597 0
14.945000 0.317878 0
14.950000 0.589229 0
14.955000 0.858642 0
14.960000 1.067811 0
14.965000 1.161817 3
14.970000 1.114325 0
14.975000 0.936326 0
14.980000 0.670168 0
14.985000 0.372496 0
14.990000 0.094437 0
14.995000 -0.129881 0
15.000000 -0.284581 0
15.005000 -0.367967 0
15.010000 -0.388363 4
15.015000 -0.361200 0
15.020000 -0.305869 0
15.025000 -0.241388 0
15.030000 -0.182114 0
15.035000 -0.135490 0
15.040000 -0.102630 0
15.045000 -0.080767 0
15.050000 -0.065911 0
15.055000 -0.054576 0
15.060000 -0.044399 0
15.065000 -0.034033 0
15.070000 -0.022804 0
15.075000 -0.010396 0
15.080000 0.003336 0
15.085000 0.018458 0
15.090000 0.034993 0
15.095000 0.052933 0
15.100000 0.072232 0
15.105000 0.092812 0
15.110000 0.114556 0
15.115000 0.137307 0
15.120000 0.160869 0
15.125000 0.185005 0
15.130000 0.209445 0
15.135000 0.233882 0
15.140000 0.257986 0
15.145000 0.281403 0
15.150000 0.303768 0
15.155000 0.324713 0
15.160000 0.343875 0
15.165000 0.360908 0
15.170000 0.375493 0
15.175000 0.387348 0
15.180000 0.396234 0
15.185000 0.401966 0
15.190000 0.404419 5
15.195000 0.403531 0
15.200000 0.399303 0
15.205000 0.391806 0
15.210000 0.381170 0
15.215000 0.367589 0
15.220000 0.351307 0
15.225000 0.332617 0
15.230000 0.311846 0
15.235000 0.289350 0
15.240000 0.265504 0
15.245000 0.240686 0
15.250000 0.215274 0
15.255000 0.189632 0
15.260000 0.164103 0
15.265000 0.139003 0
15.270000 0.114613 0
15.275000 0.091177 0
15.280000 0.068900 0
15.285000 0.047942 0
15.290000 0.028425 0
15.295000 0.010429 0
15.300000 -0.006002 0
15.305000 -0.020858 0
15.310000 -0.034159 0
15.315000 -0.045949 0
15.320000 -0.056296 0
15.325000 -0.065280 0
15.330000 -0.072996 0
15.335000 -0.079546 0
15.340000 -0.085036 0
15.345000 -0.089573 0
15.350000 -0.093261 0
15.355000 -0.096202 0
15.360000 -0.098491 0
15.365000 -0.100218 0
15.370000 -0.101464 0
15.375000 -0.102302 0
15.380000 -0.102798 0
15.385000 -0.103008 0
15.390000 -0.102984 0
15.395000 -0.102769 0
15.400000 -0.102398 0
15.405000 -0.101903 0
15.410000 -0.101309 0
15.415000 -0.100639 0
15.420000 -0.099908 0
15.425000 -0.099006 0
15.430000 -0.098078 0
15.435000 -0.097155 0
15.440000 -0.096237 0
15.445000 -0.095323 0
15.450000 -0.094414 0
15.455000 -0.093509 0
15.460000 -0.092609 0
15.465000 -0.091713 0
15.470000 -0.090822 0
15.475000 -0.089936 0
15.480000 -0.089053 0
15.485000 -0.088175 0
15.490000 -0.087302 0
15.495000 -0.086433 0
15.500000 -0.085568 0
15.505000 -0.084707 0
15.510000 -0.083851 0
15.515000 -0.082999 0
15.520000 -0.082151 0
15.525000 -0.081307 0
15.530000 -0.080467 0
15.535000 -0.079630 0
15.540000 -0.078796 0
15.545000 -0.077964 0
15.550000 -0.077133 0
15.555000 -0.076299 0
15.560000 -0.075459 0
15.565000 -0.074606 0
15.570000 -0.073731 0
15.575000 -0.072818 0
15.580000 -0.071846 0
15.585000 -0.070785 0
15.590000 -0.069590 0
15.595000 -0.068203 0
15.600000 -0.066545 0
15.605000 -0.064512 0
15.610000 -0.061974 0
15.615000 -0.058773 0
15.620000 -0.054717 0
15.625000 -0.049589 0
15.630000 -0.043149 0
15.635000 -0.035146 0
15.640000 -0.025333 0
15.645000 -0.013487 0
15.650000 0.000562 0
15.655000 0.016910 0
15.660000 0.035543 0
15.665000 0.056319 0
15.670000 0.078940 0
15.675000 0.102946 0
15.680000 0.127719 0
15.685000 0.152496 0
15.690000 0.176404 0
15.695000 0.198508 0
15.700000 0.217869 0
15.705000 0.233610 0
15.710000 0.244978 0
15.715000 0.251408 0
15.720000 0.252568 1
15.725000 0.248385 0
15.730000 0.239052 0
15.735000 0.225017 0
15.740000 0.206943 0
15.745000 0.185656 0
15.750000 0.162085 0
15.755000 0.137194 0
15.760000 0.111915 0
15.765000 0.087096 0
15.770000 0.063445 0
15.775000 0.041491 0
15.780000 0.021525 0
15.785000 0.003498 0
15.790000 -0.013134 0
15.795000 -0.029629 0
15.800000 -0.048079 0
15.805000 -0.071195 0
15.810000 -0.101403 0
15.815000 -0.139217 0
15.820000 -0.181346 0
15.825000 -0.219547 0
15.830000 -0.241088 2
15.835000 -0.230785 0
15.840000 -0.173686 0
15.845000 -0.057753 0
15.850000 0.122759 0
15.855000 0.361997 0
15.860000 0.636263 0
15.865000 0.901695 0
15.870000 1.101797 0
15.875000 1.185574 3
15.880000 1.128050 0
15.885000 0.941803 0
15.890000 0.671149 0
15.895000 0.373239 0
15.900000 0.098399 0
15.905000 -0.120609 0
15.910000 -0.269192 0
15.915000 -0.346655 0
15.920000 -0.362103 4
15.925000 -0.331564 0
15.930000 -0.274691 0
15.935000 -0.210318 0
15.940000 -0.152238 0
15.945000 -0.107217 0
15.950000 -0.075833 0
15.955000 -0.055058 0
15.960000 -0.040872 0
15.965000 -0.029887 0
15.970000 -0.019858 0
15.975000 -0.009530 0
15.980000 0.001717 0
15.985000 0.014171 0
15.990000 0.027965 0
15.995000 0.043159 0
16.000000 0.059772 0
16.005000 0.077789 0
16.010000 0.097162 0
16.015000 0.117806 0
16.020000 0.139597 0
16.025000 0.162372 0
16.030000 0.185928 0
16.035000 0.210023 0
16.040000 0.234377 0
16.045000 0.258679 0
16.050000 0.282592 0
16.055000 0.305759 0
16.060000 0.327811 0
16.065000 0.348378 0
16.070000 0.367098 0
16.075000 0.383626 0
16.080000 0.397649 0
16.085000 0.408887 0
16.090000 0.417113 0
16.095000 0.422149 0
16.100000 0.423881 5
16.105000 0.422259 0
16.110000 0.417297 0
16.115000 0.409078 0
16.120000 0.397746 0
16.125000 0.383506 0
16.130000 0.366615 0
16.135000 0.347372 0
16.140000 0.326117 0
16.145000 0.303210 0
16.150000 0.279029 0
16.155000 0.253957 0
16.160000 0.228370 0
16.165000 0.202631 0
16.170000 0.177078 0
16.175000 0.152023 0
16.180000 0.127740 0
16.185000 0.104464 0
16.190000 0.082391 0
16.195000 0.061674 0
16.200000 0.042425 0
16.205000 0.024715 0
16.210000 0.008580 0
16.215000 -0.005978 0
16.220000 -0.018985 0
16.225000 -0.030493 0
16.230000 -0.040572 0
16.235000 -0.049309 0
16.240000 -0.056799 0
16.245000 -0.063148 0
16.250000 -0.068462 0
16.255000 -0.072848 0
16.260000 -0.076412 0
16.265000 -0.079252 0
16.270000 -0.081465 0
16.275000 -0.083137 0
16.280000 -0.084347 0
16.285000 -0.085167 0
16.290000 -0.085661 0
16.295000 -0.085885 0
16.300000 -0.085886 0
16.305000 -0.085705 0
16.310000 -0.085379 0
16.315000 -0.084936 0
16.320000 -0.084400 0
16.325000 -0.083793 0
16.330000 -0.083102 0
16.335000 -0.082254 0
16.340000 -0.081410 0
16.345000 -0.080570 0
16.350000 -0.079735 0
16.355000 -0.078903 0
16.360000 -0.078076 0
16.365000 -0.077253 0
16.370000 -0.076434 0
16.375000 -0.075619 0
16.380000 -0.074808 0
16.385000 -0.074001 0
16.390000 -0.073198 0
16.395000 -0.072399 0
16.400000 -0.071605 0
16.405000 -0.070814 0
16.410000 -0.070027 0
16.415000 -0.069244 0
16.420000 -0.068465 0
16.425000 -0.067689 0
16.430000 -0.066917 0
16.435000 -0.066149 0
16.440000 -0.065385 0
16.445000 -0.064623 0
16.450000 -0.063863 0
16.455000 -0.063105 0
16.460000 -0.062345 0
16.465000 -0.061582 0
16.470000 -0.060809 0
16.475000 -0.060020 0
16.480000 -0.059203 0
16.485000 -0.058341 0
16.490000 -0.057409 0
16.495000 -0.056370 0
16.500000 -0.055176 0
16.505000 -0.053760 0
16.510000 -0.052032 0
16.515000 -0.049878 0
16.520000 -0.047157 0
16.525000 -0.043694 0
16.530000 -0.039286 0
16.535000 -0.033705 0
16.540000 -0.026702 0
16.545000 -0.018025 0
16.550000 -0.007433 0
16.555000 0.005278 0
16.560000 0.020252 0
16.565000 0.037540 0
16.570000 0.057075 0
16.575000 0.078647 0
16.580000 0.101887 0
16.585000 0.126259 0
16.590000 0.151074 0
16.595000 0.175511 0
16.600000 0.198657 0
16.605000 0.219563 0
16.610000 0.237304 0
16.615000 0.251048 0
16.620000 0.260120 0
16.625000 0.264055 1
16.630000 0.262638 0
16.635000 0.255922 0
16.640000 0.244226 0
16.645000 0.228109 0
16.650000 0.208322 0
16.655000 0.185755 0
16.660000 0.161365 0
16.665000 0.136116 0
16.670000 0.110908 0
16.675000 0.086531 0
16.680000 0.063614 0
16.685000 0.042579 0
16.690000 0.023562 0
16.695000 0.006291 0
16.700000 -0.010120 0
16.705000 -0.027357 0
16.710000 -0.047907 0
16.715000 -0.074509 0
16.720000 -0.108851 0
16.725000 -0.149682 0
16.730000 -0.191153 0
16.735000 -0.222444 0
16.740000 -0.229135 2
16.745000 -0.195748 0
16.750000 -0.108464 0
16.755000 0.041967 0
16.760000 0.255848 0
16.765000 0.518292 0
16.770000 0.794251 0
16.775000 1.031011 0
16.780000 1.172108 0
16.785000 1.178585 3
16.790000 1.043677 0
16.795000 0.800302 0
16.800000 0.505981 0
16.805000 0.218430 0
16.810000 -0.020811 0
16.815000 -0.190574 0
16.820000 -0.286342 0
16.825000 -0.315322 4
16.830000 -0.292977 0
16.835000 -0.239599 0
16.840000 -0.175568 0
16.845000 -0.116447 0
16.850000 -0.070300 0
16.855000 -0.038276 0
16.860000 -0.017353 0
16.865000 -0.003301 0
16.870000 0.007470 0
16.875000 0.017310 0
16.880000 0.027509 0
16.885000 0.038691 0
16.890000 0.051137 0
16.895000 0.064975 0
16.900000 0.080261 0
16.905000 0.097007 0
16.910000 0.115193 0
16.915000 0.134756 0
16.920000 0.155597 0
16.925000 0.177574 0
16.930000 0.200500 0
16.935000 0.224145 0
16.940000 0.248239 0
16.945000 0.272472 0
16.950000 0.296503 0
16.955000 0.319963 0
16.960000 0.342469 0
16.965000 0.363630 0
16.970000 0.383056 0
16.975000 0.400375 0
16.980000 0.415240 0
16.985000 0.427343 0
16.990000 0.436421 0
16.995000 0.442271 0
17.000000 0.444751 5
17.005000 0.443790 0
17.010000 0.439389 0
17.015000 0.431618 0
17.020000 0.420619 0
17.025000 0.406599 0
17.030000 0.389823 0
17.035000 0.370605 0
17.040000 0.349297 0
17.045000 0.326283 0
17.050000 0.301961 0
17.055000 0.276733 0
17.060000 0.250999 0
17.065000 0.225138 0
17.070000 0.199506 0
17.075000 0.174427 0
17.080000 0.150184 0
17.085000 0.127019 0
17.090000 0.105128 0
17.095000 0.084663 0
17.100000 0.065728 0
17.105000 0.048390 0
17.110000 0.032674 0
17.115000 0.018571 0
17.120000 0.006041 0
17.125000 -0.004976 0
17.130000 -0.014565 0
17.135000 -0.022821 0
17.140000 -0.029851 0
17.145000 -0.035766 0
17.150000 -0.040680 0
17.155000 -0.044705 0
17.160000 -0.047949 0
17.165000 -0.050513 0
17.170000 -0.052493 0
17.175000 -0.053976 0
17.180000 -0.055038 0
17.185000 -0.055749 0
17.190000 -0.056170 0
17.195000 -0.056353 0
17.200000 -0.056343 0
17.205000 -0.056178 0
17.210000 -0.055890 0
17.215000 -0.055504 0
17.220000 -0.055043 0
17.225000 -0.054496 0
17.230000 -0.053790 0
17.235000 -0.053088 0
17.240000 -0.052389 0
17.245000 -0.051694 0
17.250000 -0.051003 0
17.255000 -0.050315 0
17.260000 -0.049630 0
17.265000 -0.048949 0
17.270000 -0.048271 0
17.275000 -0.047596 0
17.280000 -0.046925 0
17.285000 -0.046257 0
17.290000 -0.045593 0
17.295000 -0.044932 0
17.300000 -0.044274 0
17.305000 -0.043619 0
17.310000 -0.042968 0
17.315000 -0.042320 0
17.320000 -0.041675 0
17.325000 -0.041033 0
17.330000 -0.040393 0
17.335000 -0.039757 0
17.340000 -0.039122 0
17.345000 -0.038488 0
17.350000 -0.037853 0
17.355000 -0.037214 0
17.360000 -0.036567 0
17.365000 -0.035904 0
17.370000 -0.035214 0
17.375000 -0.034481 0
17.380000 -0.033679 0
17.385000 -0.032773 0
17.390000 -0.031711 0
17.395000 -0.030425 0
17.400000 -0.028821 0
17.405000 -0.026780 0
17.410000 -0.024151 0
17.415000 -0.020749 0
17.420000 -0.016358 0
17.425000 -0.010733 0
17.430000 -0.003611 0
17.435000 0.005274 0
17.440000 0.016171 0
17.445000 0.029288 0
17.450000 0.044755 0
17.455000 0.062598 0
17.460000 0.082704 0
17.465000 0.104802 0
17.470000 0.128440 0
17.475000 0.152993 0
17.480000 0.177671 0
17.485000 0.201561 0
17.490000 0.223673 0
17.495000 0.243008 0
17.500000 0.258631 0
17.505000 0.269741 0
17.510000 0.275746 0
17.515000 0.276307 1
17.520000 0.271369 0
17.525000 0.261174 0
17.530000 0.246231 0
17.535000 0.227279 0
17.540000 0.205226 0
17.545000 0.181072 0
17.550000 0.155838 0
17.555000 0.130492 0
17.560000 0.105889 0
17.565000 0.082719 0
17.570000 0.061451 0
17.575000 0.042257 0
17.580000 0.024868 0
17.585000 0.008362 0
17.590000 -0.009056 0
17.595000 -0.030033 0
17.600000 -0.057434 0
17.605000 -0.092823 0
17.610000 -0.134345 0
17.615000 -0.175009 0
17.620000 -0.202554 2
17.625000 -0.201294 0
17.630000 -0.155046 0
17.635000 -0.050159 0
17.640000 0.120943 0
17.645000 0.354191 0
17.650000 0.626792 0
17.655000 0.893843 0
17.660000 1.095776 0
17.665000 1.178222 3
17.670000 1.112683 0
17.675000 0.914343 0
17.680000 0.635163 0
17.685000 0.338697 0
17.690000 0.077140 0
17.695000 -0.118950 0
17.700000 -0.239077 0
17.705000 -0.287183 4
17.710000 -0.277267 0
17.715000 -0.229764 0
17.720000 -0.166664 0
17.725000 -0.105863 0
17.730000 -0.057458 0
17.735000 -0.023718 0
17.740000 -0.001877 0
17.745000 0.012502 0
17.750000 0.023298 0
17.755000 0.033065 0
17.760000 0.043190 0
17.765000 0.054333 0
17.770000 0.066786 0
17.775000 0.080678 0
17.780000 0.096063 0
17.785000 0.112951 0
17.790000 0.131314 0
17.795000 0.151080 0
17.800000 0.172136 0
17.805000 0.194319 0
17.810000 0.217423 0
17.815000 0.241190 0
17.820000 0.265322 0
17.825000 0.289481 0
17.830000 0.313293 0
17.835000 0.336362 0
17.840000 0.358278 0
17.845000 0.378626 0
17.850000 0.397003 0
17.855000 0.413027 0
17.860000 0.426350 0
17.865000 0.436674 0
17.870000 0.443755 0
17.875000 0.447420 0
17.880000 0.447564 5
17.885000 0.444164 0
17.890000 0.437272 0
17.895000 0.427017 0
17.900000 0.413601 0
17.905000 0.397292 0
17.910000 0.378412 0
17.915000 0.357328 0
17.920000 0.334440 0
17.925000 0.310168 0
17.930000 0.284939 0
17.935000 0.259172 0
17.940000 0.233270 0
17.945000 0.207610 0
17.950000 0.182530 0
17.955000 0.158328 0
17.960000 0.135255 0
17.965000 0.113513 0
17.970000 0.093254 0
17.975000 0.074583 0
17.980000 0.057559 0
17.985000 0.042201 0
17.990000 0.028492 0
17.995000 0.016382 0
18.000000 0.005798 0
18.005000 -0.003353 0
18.010000 -0.011175 0
18.015000 -0.017786 0
18.020000 -0.023303 0
18.025000 -0.027846 0
18.030000 -0.031531 0
18.035000 -0.034469 0
18.040000 -0.036764 0
18.045000 -0.038512 0
18.050000 -0.039797 0
18.055000 -0.040697 0
18.060000 -0.041278 0
18.065000 -0.041599 0
18.070000 -0.041710 0
18.075000 -0.041651 0
18.080000 -0.041458 0
18.085000 -0.041161 0
18.090000 -0.040781 0
18.095000 -0.040311 0
18.100000 -0.039676 0
18.105000 -0.039044 0
18.110000 -0.038416 0
18.115000 -0.037791 0
18.120000 -0.037168 0
18.125000 -0.036549 0
18.130000 -0.035933 0
18.135000 -0.035320 0
18.140000 -0.034710 0
18.145000 -0.034103 0
18.150000 -0.033500 0
18.155000 -0.032899 0
18.160000 -0.032301 0
18.165000 -0.031706 0
18.170000 -0.031114 0
18.175000 -0.030525 0
18.180000 -0.029939 0
18.185000 -0.029356 0
18.190000 -0.028775 0
18.195000 -0.028198 0
18.200000 -0.027622 0
18.205000 -0.027048 0
18.210000 -0.026476 0
18.215000 -0.025903 0
18.220000 -0.025327 0
18.225000 -0.024744 0
18.230000 -0.024149 0
18.235000 -0.023529 0
18.240000 -0.022871 0
18.245000 -0.022151 0
18.250000 -0.021334 0
18.255000 -0.020371 0
18.260000 -0.019193 0
18.265000 -0.017708 0
18.270000 -0.015795 0
18.275000 -0.013298 0
18.280000 -0.010026 0
18.285000 -0.005754 0
18.290000 -0.000225 0
18.295000 0.006840 0
18.300000 0.015721 0
18.305000 0.026682 0
18.310000 0.039937 0
18.315000 0.055618 0
18.320000 0.073737 0
18.325000 0.094154 0
18.330000 0.116551 0
18.335000 0.140416 0
18.340000 0.165047 0
18.345000 0.189575 0
18.350000 0.213006 0
18.355000 0.234283 0
18.360000 0.252364 0
18.365000 0.266303 0
18.370000 0.275334 0
18.375000 0.278934 1
18.380000 0.276875 0
18.385000 0.269249 0
18.390000 0.256455 0
18.395000 0.239166 0
18.400000 0.218270 0
18.405000 0.194791 0
18.410000 0.169808 0
18.415000 0.144372 0
18.420000 0.119432 0
18.425000 0.095776 0
18.430000 0.073971 0
18.435000 0.054284 0
18.440000 0.036552 0
18.445000 0.019951 0
18.450000 0.002744 0
18.455000 -0.017760 0
18.460000 -0.044614 0
18.465000 -0.079644 0
18.470000 -0.121122 0
18.475000 -0.161800 0
18.480000 -0.188720 2
18.485000 -0.185257 0
18.490000 -0.134398 0
18.495000 -0.022130 0
18.500000 0.158450 0
18.505000 0.400607 0
18.510000 0.676261 0
18.515000 0.933858 0
18.520000 1.109661 0
18.525000 1.151939 3
18.530000 1.044691 0
18.535000 0.816397 0
18.540000 0.525714 0
18.545000 0.235341 0
18.550000 -0.008205 0
18.555000 -0.180816 0
18.560000 -0.277036 0
18.565000 -0.304456 4
18.570000 -0.279735 0
18.575000 -0.224639 0
18.580000 -0.160589 0
18.585000 -0.103244 0
18.590000 -0.059920 0
18.595000 -0.030750 0
18.600000 -0.012000 0
18.605000 0.000783 0
18.610000 0.011056 0
18.615000 0.020922 0
18.620000 0.031458 0
18.625000 0.043157 0
18.630000 0.056234 0
18.635000 0.070785 0
18.640000 0.086845 0
18.645000 0.104409 0
18.650000 0.123431 0
18.655000 0.143822 0
18.660000 0.165447 0
18.665000 0.188124 0
18.670000 0.211623 0
18.675000 0.235666 0
18.680000 0.259933 0
18.685000 0.284067 0
18.690000 0.307678 0
18.695000 0.330360 0
18.700000 0.351695 0
18.705000 0.371266 0
18.710000 0.388676 0
18.715000 0.403553 0
18.720000 0.415568 0
18.725000 0.424445 0
18.730000 0.429970 0
18.735000 0.432001 5
18.740000 0.430472 0
18.745000 0.425397 0
18.750000 0.416868 0
18.755000 0.405054 0
18.760000 0.390193 0
18.765000 0.372584 0
18.770000 0.352577 0
18.775000 0.330564 0
18.780000 0.306959 0
18.785000 0.282192 0
18.790000 0.256691 0
18.795000 0.230872 0
18.800000 0.205129 0
18.805000 0.179822 0
18.810000 0.155271 0
18.815000 0.131749 0
18.820000 0.109482 0
18.825000 0.088646 0
18.830000 0.069366 0
18.835000 0.051721 0
18.840000 0.035747 0
18.845000 0.021439 0
18.850000 0.008761 0
18.855000 -0.002352 0
18.860000 -0.011987 0
18.865000 -0.020246 0
18.870000 -0.027242 0
18.875000 -0.033094 0
18.880000 -0.037924 0
18.885000 -0.041850 0
18.890000 -0.044987 0
18.895000 -0.047441 0
18.900000 -0.049313 0
18.905000 -0.050691 0
18.910000 -0.051658 0
18.915000 -0.052283 0
18.920000 -0.052628 0
18.925000 -0.052747 0
18.930000 -0.052683 0
18.935000 -0.052474 0
18.940000 -0.052151 0
18.945000 -0.051740 0
18.950000 -0.051261 0
18.955000 -0.050602 0
18.960000 -0.049916 0
18.965000 -0.049233 0
18.970000 -0.048554 0
18.975000 -0.047878 0
18.980000 -0.047206 0
18.985000 -0.046536 0
18.990000 -0.045871 0
18.995000 -0.045208 0
19.000000 -0.044549 0
19.005000 -0.043893 0
19.010000 -0.043240 0
19.015000 -0.042591 0
19.020000 -0.041945 0
19.025000 -0.041302 0
19.030000 -0.040662 0
19.035000 -0.040025 0
19.040000 -0.039392 0
19.045000 -0.038761 0
19.050000 -0.038134 0
19.055000 -0.037509 0
19.060000 -0.036886 0
19.065000 -0.036265 0
19.070000 -0.035644 0
19.075000 -0.035021 0
19.080000 -0.034392 0
19.085000 -0.033751 0
19.090000 -0.033089 0
19.095000 -0.032391 0
19.100000 -0.031635 0
19.105000 -0.030788 0
19.110000 -0.029803 0
19.115000 -0.028614 0
19.120000 -0.027130 0
19.125000 -0.025234 0
19.130000 -0.022772 0
19.135000 -0.019558 0
19.140000 -0.015367 0
19.145000 -0.009942 0
19.150000 -0.003005 0
19.155000 0.005730 0
19.160000 0.016531 0
19.165000 0.029620 0
19.170000 0.045140 0
19.175000 0.063114 0
19.180000 0.083414 0
19.185000 0.105734 0
19.190000 0.129570 0
19.195000 0.154225 0
19.200000 0.178830 0
19.205000 0.202387 0
19.210000 0.223831 0
19.215000 0.242107 0
19.220000 0.256255 0
19.225000 0.265491 0
19.230000 0.269280 1
19.235000 0.267386 0
19.240000 0.259892 0
19.245000 0.247197 0
19.250000 0.229979 0
19.255000 0.209131 0
19.260000 0.185689 0
19.265000 0.160742 0
19.270000 0.135350 0
19.275000 0.110471 0
19.280000 0.086896 0
19.285000 0.065190 0
19.290000 0.045615 0
19.295000 0.027986 0
19.300000 0.011440 0
19.305000 -0.005820 0
19.310000 -0.026550 0
19.315000 -0.053815 0
19.320000 -0.089315 0
19.325000 -0.130999 0
19.330000 -0.171135 0
19.335000 -0.196277 2
19.340000 -0.189486 0
19.345000 -0.133707 0
19.350000 -0.015229 0
19.355000 0.171961 0
19.360000 0.419274 0
19.365000 0.695851 0
19.370000 0.947506 0
19.375000 1.109898 0
19.380000 1.134010 3
19.385000 1.011372 0
19.390000 0.774819 0
19.395000 0.482233 0
19.400000 0.193348 0
19.405000 -0.048175 0
19.410000 -0.219822 0
19.415000 -0.316543 0
19.420000 -0.345556 4
19.425000 -0.322678 0
19.430000 -0.268721 0
19.435000 -0.204499 0
19.440000 -0.145719 0
19.445000 -0.100279 0
19.450000 -0.069020 0
19.455000 -0.048674 0
19.460000 -0.034910 0
19.465000 -0.024168 0
19.470000 -0.014171 0
19.475000 -0.003701 0
19.480000 0.007818 0
19.485000 0.020644 0
19.490000 0.034891 0
19.495000 0.050610 0
19.500000 0.067807 0
19.505000 0.086451 0
19.510000 0.106473 0
19.515000 0.127760 0
19.520000 0.150155 0
19.525000 0.173457 0
19.530000 0.197420 0
19.535000 0.221753 0
19.540000 0.246131 0
19.545000 0.270193 0
19.550000 0.293558 0
19.555000 0.315827 0
19.560000 0.336599 0
19.565000 0.355480 0
19.570000 0.372096 0
19.575000 0.386104 0
19.580000 0.397205 0
19.585000 0.405153 0
19.590000 0.409765 0
19.595000 0.410924 5
19.600000 0.408590 0
19.605000 0.402795 0
19.610000 0.393646 0
19.615000 0.381319 0
19.620000 0.366057 0
19.625000 0.348156 0
19.630000 0.327961 0
19.635000 0.305851 0
19.640000 0.282226 0
19.645000 0.257501 0
19.650000 0.232086 0
19.655000 0.206381 0
19.660000 0.180762 0
19.665000 0.155575 0
19.670000 0.131126 0
19.675000 0.107681 0
19.680000 0.085457 0
19.685000 0.064626 0
19.690000 0.045313 0
19.695000 0.027597 0
19.700000 0.011517 0
19.705000 -0.002925 0
19.710000 -0.015761 0
19.715000 -0.027048 0
19.720000 -0.036867 0
19.725000 -0.045313 0
19.730000 -0.052492 0
19.735000 -0.058518 0
19.740000 -0.063508 0
19.745000 -0.067576 0
19.750000 -0.070834 0
19.755000 -0.073388 0
19.760000 -0.075336 0
19.765000 -0.076769 0
19.770000 -0.077766 0
19.775000 -0.078401 0
19.780000 -0.078736 0
19.785000 -0.078827 0
19.790000 -0.078718 0
19.795000 -0.078451 0
19.800000 -0.078057 0
19.805000 -0.077564 0
19.810000 -0.076995 0
19.815000 -0.076339 0
19.820000 -0.075525 0
19.825000 -0.074714 0
19.830000 -0.073908 0
19.835000 -0.073105 0
19.840000 -0.072307 0
19.845000 -0.071513 0
19.850000 -0.070722 0
19.855000 -0.069936 0
19.860000 -0.069153 0
19.865000 -0.068375 0
19.870000 -0.067600 0
19.875000 -0.066829 0
19.880000 -0.066062 0
19.885000 -0.065299 0
19.890000 -0.064539 0
19.895000 -0.063784 0
19.900000 -0.063032 0
19.905000 -0.062283 0
19.910000 -0.061539 0
19.915000 -0.060797 0
19.920000 -0.060060 0
19.925000 -0.059324 0
19.930000 -0.058591 0
19.935000 -0.057859 0
19.940000 -0.057126 0
19.945000 -0.056388 0
19.950000 -0.055640 0
19.955000 -0.054874 0
19.960000 -0.054075 0
19.965000 -0.053226 0
19.970000 -0.052295 0
19.975000 -0.051241 0
19.980000 -0.050006 0
19.985000 -0.048508 0
19.990000 -0.046644 0
19.995000 -0.044275 0
20.000000 -0.041233 0
20.005000 -0.037313 0
20.010000 -0.032280 0
20.015000 -0.025872 0
20.020000 -0.017816 0
20.025000 -0.007844 0
20.030000 0.004281 0
20.035000 0.018735 0
20.040000 0.035597 0
20.045000 0.054822 0
20.050000 0.076205 0
20.055000 0.099363 0
20.060000 0.123728 0
20.065000 0.148557 0
20.070000 0.172957 0
20.075000 0.195936 0
20.080000 0.216466 0
20.085000 0.233555 0
20.090000 0.246327 0
20.095000 0.254099 0
20.100000 0.256435 1
20.105000 0.253189 0
20.110000 0.244521 0
20.115000 0.230879 0
20.120000 0.212964 0
20.125000 0.191667 0
20.130000 0.167999 0
20.135000 0.143006 0
20.140000 0.117700 0
20.145000 0.092984 0
20.150000 0.069602 0
20.155000 0.048081 0
20.160000 0.028654 0
20.165000 0.011127 0
20.170000 -0.005334 0
20.175000 -0.022448 0
20.180000 -0.042842 0
20.185000 -0.069483 0
20.190000 -0.104175 0
20.195000 -0.145368 0
20.200000 -0.186270 0
20.205000 -0.214580 2
20.210000 -0.214313 0
20.215000 -0.168860 0
20.220000 -0.064163 0
20.225000 0.107566 0
20.230000 0.342005 0
20.235000 0.615317 0
20.240000 0.880794 0
20.245000 1.077157 0
20.250000 1.149834 3
20.255000 1.077723 0
20.260000 0.879031 0
20.265000 0.601794 0
20.270000 0.304628 0
20.275000 0.036928 0
20.280000 -0.170767 0
20.285000 -0.306206 0
20.290000 -0.370726 0
20.295000 -0.375228 4
20.300000 -0.337200 0
20.305000 -0.277001 0
20.310000 -0.213065 0
20.315000 -0.157856 0
20.320000 -0.116519 0
20.325000 -0.088385 0
20.330000 -0.069835 0
20.335000 -0.056829 0
20.340000 -0.046235 0
20.345000 -0.036109 0
20.350000 -0.025417 0
20.355000 -0.013667 0
20.360000 -0.000634 0
20.365000 0.013785 0
20.370000 0.029632 0
20.375000 0.046915 0
20.380000 0.065604 0
20.385000 0.085635 0
20.390000 0.106903 0
20.395000 0.129266 0
20.400000 0.152536 0
20.405000 0.176486 0
20.410000 0.200850 0
20.415000 0.225326 0
20.420000 0.249578 0
20.425000 0.273252 0
20.430000 0.295972 0
20.435000 0.317359 0
20.440000 0.337037 0
20.445000 0.354644 0
20.450000 0.369842 0
20.455000 0.382331 0
20.460000 0.391854 0
20.465000 0.398210 0
20.470000 0.401255 5
20.475000 0.400914 0
20.480000 0.397179 0
20.485000 0.390111 0
20.490000 0.379838 0
20.495000 0.366549 0
20.500000 0.350494 0
20.505000 0.331968 0
20.510000 0.311308 0
20.515000 0.288878 0
20.520000 0.265064 0
20.525000 0.240256 0
20.530000 0.214843 0
20.535000 0.189199 0
20.540000 0.163679 0
20.545000 0.138605 0
20.550000 0.114267 0
20.555000 0.090912 0
20.560000 0.068748 0
20.565000 0.047937 0
20.570000 0.028598 0
20.575000 0.010810 0
20.580000 -0.005386 0
20.585000 -0.019986 0
20.590000 -0.033015 0
20.595000 -0.044523 0
20.600000 -0.054583 0
20.605000 -0.063281 0
20.610000 -0.070717 0
20.615000 -0.076997 0
20.620000 -0.082231 0
20.625000 -0.086528 0
20.630000 -0.089995 0
20.635000 -0.092736 0
20.640000 -0.094846 0
20.645000 -0.096415 0
20.650000 -0.097523 0
20.655000 -0.098244 0
20.660000 -0.098640 0
20.665000 -0.098769 0
20.670000 -0.098679 0
20.675000 -0.098411 0
20.680000 -0.098000 0
20.685000 -0.097476 0
20.690000 -0.096863 0
20.695000 -0.096181 0
20.700000 -0.095419 0
20.705000 -0.094510 0
20.710000 -0.093605 0
20.715000 -0.092704 0
20.720000 -0.091808 0
20.725000 -0.090916 0
20.730000 -0.090029 0
20.735000 -0.089146 0
20.740000 -0.088268 0
20.745000 -0.087394 0
20.750000 -0.086524 0
20.755000 -0.085659 0
20.760000 -0.084798 0
20.765000 -0.083941 0
20.770000 -0.083089 0
20.775000 -0.082241 0
20.780000 -0.081397 0
20.785000 -0.080557 0
20.790000 -0.079721 0
20.795000 -0.078890 0
20.800000 -0.078062 0
20.805000 -0.077238 0
20.810000 -0.076418 0
20.815000 -0.075600 0
20.820000 -0.074785 0
20.825000 -0.073969 0
20.830000 -0.073152 0
20.835000 -0.072329 0
20.840000 -0.071492 0
20.845000 -0.070634 0
20.850000 -0.069738 0
20.855000 -0.068782 0
20.860000 -0.067735 0
20.865000 -0.066552 0
20.870000 -0.065172 0
20.875000 -0.063512 0
20.880000 -0.061464 0
20.885000 -0.058893 0
20.890000 -0.055632 0
20.895000 -0.051481 0
20.900000 -0.046214 0
20.905000 -0.039580 0
20.910000 -0.031321 0
20.915000 -0.021185 0
20.920000 -0.008949 0
20.925000 0.005551 0
20.930000 0.022392 0
20.935000 0.041535 0
20.940000 0.062795 0
20.945000 0.085827 0
20.950000 0.110113 0
20.955000 0.134970 0
20.960000 0.159578 0
20.965000 0.183009 0
20.970000 0.204294 0
20.975000 0.222477 0
20.980000 0.236692 0
20.985000 0.246230 0
20.990000 0.250594 1
20.995000 0.249546 0
21.000000 0.243125 0
21.005000 0.231644 0
21.010000 0.215669 0
21.015000 0.195967 0
21.020000 0.173448 0
21.025000 0.149095 0
21.030000 0.123893 0
21.035000 0.098762 0
21.040000 0.074505 0
21.045000 0.051758 0
21.050000 0.030934 0
21.055000 0.012148 0
21.060000 -0.004933 0
21.065000 -0.021292 0
21.070000 -0.038763 0
21.075000 -0.059973 0
21.080000 -0.087674 0
21.085000 -0.123256 0
21.090000 -0.164738 0
21.095000 -0.205187 0
21.100000 -0.232646 2
21.105000 -0.231892 0
21.110000 -0.187202 0
21.115000 -0.085200 0
21.120000 0.081862 0
21.125000 0.310966 0
21.130000 0.581633 0
21.135000 0.852166 0
21.140000 1.065494 0
21.145000 1.166888 3
21.150000 1.127519 0
21.155000 0.955777 0
21.160000 0.692825 0
21.165000 0.395372 0
21.170000 0.115438 0
21.175000 -0.111771 0
21.180000 -0.269549 0
21.185000 -0.355684 0
21.190000 -0.378206 4
21.195000 -0.352411 0
21.200000 -0.297717 0
21.205000 -0.233321 0
21.210000 -0.173834 0
21.215000 -0.126924 0
21.220000 -0.093840 0
21.225000 -0.071855 0
21.230000 -0.056963 0
21.235000 -0.045644 0
21.240000 -0.035508 0
21.245000 -0.025192 0
21.250000 -0.014013 0
21.255000 -0.001652 0
21.260000 0.012035 0
21.265000 0.027117 0
21.270000 0.043617 0
21.275000 0.061524 0
21.280000 0.080795 0
21.285000 0.101349 0
21.290000 0.123069 0
21.295000 0.145795 0
21.300000 0.169331 0
21.305000 0.193438 0
21.310000 0.217842 0
21.315000 0.242237 0
21.320000 0.266287 0
21.325000 0.289637 0
21.330000 0.311920 0
21.335000 0.332767 0
21.340000 0.351812 0
21.345000 0.368709 0
21.350000 0.383138 0
21.355000 0.394818 0
21.360000 0.403511 0
21.365000 0.409034 0
21.370000 0.411265 5
21.375000 0.410144 0
21.380000 0.405678 0
21.385000 0.397940 0
21.390000 0.387067 0
21.395000 0.373256 0
21.400000 0.356757 0
21.405000 0.337865 0
21.410000 0.316914 0
21.415000 0.294263 0
21.420000 0.270287 0
21.425000 0.245370 0
21.430000 0.219890 0
21.435000 0.194209 0
21.440000 0.168673 0
21.445000 0.143594 0
21.450000 0.119253 0
21.455000 0.095890 0
21.460000 0.073707 0
21.465000 0.052861 0
21.470000 0.033470 0
21.475000 0.015611 0
21.480000 -0.000676 0
21.485000 -0.015386 0
21.490000 -0.028540 0
21.495000 -0.040186 0
21.500000 -0.050395 0
21.505000 -0.059249 0
21.510000 -0.066844 0
21.515000 -0.073283 0
21.520000 -0.078674 0
21.525000 -0.083123 0
21.530000 -0.086736 0
21.535000 -0.089614 0
21.540000 -0.091852 0
21.545000 -0.093537 0
21.550000 -0.094752 0
21.555000 -0.095568 0
21.560000 -0.096050 0
21.565000 -0.096254 0
21.570000 -0.096231 0
21.575000 -0.096021 0
21.580000 -0.095661 0
21.585000 -0.095181 0
21.590000 -0.094606 0
21.595000 -0.093957 0
21.600000 -0.093250 0
21.605000 -0.092379 0
21.610000 -0.091485 0
21.615000 -0.090595 0
21.620000 -0.089709 0
21.625000 -0.088828 0
21.630000 -0.087951 0
21.635000 -0.087079 0
21.640000 -0.086211 0
21.645000 -0.085347 0
21.650000 -0.084487 0
21.655000 -0.083632 0
21.660000 -0.082781 0
21.665000 -0.081935 0
21.670000 -0.081092 0
21.675000 -0.080254 0
21.680000 -0.079420 0
21.685000 -0.078590 0
21.690000 -0.077764 0
21.695000 -0.076943 0
21.700000 -0.076125 0
21.705000 -0.075311 0
21.710000 -0.074501 0
21.715000 -0.073693 0
21.720000 -0.072889 0
21.725000 -0.072086 0
21.730000 -0.071282 0
21.735000 -0.070475 0
21.740000 -0.069661 0
21.745000 -0.068831 0
21.750000 -0.067976 0
21.755000 -0.067078 0
21.760000 -0.066114 0
21.765000 -0.065049 0
21.770000 -0.063838 0
21.775000 -0.062414 0
21.780000 -0.060693 0
21.785000 -0.058563 0
21.790000 -0.055888 0
21.795000 -0.052496 0
21.800000 -0.048190 0
21.805000 -0.042743 0
21.810000 -0.035909 0
21.815000 -0.027436 0
21.820000 -0.017080 0
21.825000 -0.004631 0
21.830000 0.010066 0
21.835000 0.027077 0
21.840000 0.046351 0
21.845000 0.067700 0
21.850000 0.090777 0
21.855000 0.115070 0
21.860000 0.139909 0
21.865000 0.164489 0
21.870000 0.187909 0
21.875000 0.209219 0
21.880000 0.227488 0
21.885000 0.241868 0
21.890000 0.251658 0
21.895000 0.256361 1
21.900000 0.255726 0
21.905000 0.249769 0
21.910000 0.238774 0
21.915000 0.223266 0
21.920000 0.203975 0
21.925000 0.181774 0
21.930000 0.157616 0
21.935000 0.132466 0
21.940000 0.107238 0
21.945000 0.082739 0
21.950000 0.059624 0
21.955000 0.038345 0
21.960000 0.019087 0
21.965000 0.001644 0
21.970000 -0.014771 0
21.975000 -0.031724 0
21.980000 -0.051606 0
21.985000 -0.077182 0
21.990000 -0.110393 0
21.995000 -0.150516 0
22.000000 -0.192409 0
22.005000 -0.225906 0
22.010000 -0.236956 2
22.015000 -0.210065 0
22.020000 -0.131021 0
22.025000 0.010280 0
22.030000 0.215748 0
22.035000 0.473024 0
22.040000 0.749990 0
22.045000 0.995851 0
22.050000 1.153460 0
22.055000 1.180127 3
22.060000 1.065464 0
22.065000 0.836422 0
22.070000 0.546746 0
22.075000 0.254003 0
22.080000 0.002287 0
22.085000 -0.183867 0
22.090000 -0.296921 0
22.095000 -0.341521 4
22.100000 -0.330935 0
22.105000 -0.284023 0
22.110000 -0.221088 0
22.115000 -0.159055 0
22.120000 -0.108115 0
22.125000 -0.071342 0
22.130000 -0.046824 0
22.135000 -0.030588 0
22.140000 -0.018789 0
22.145000 -0.008674 0
22.150000 0.001380 0
22.155000 0.012198 0
22.160000 0.024165 0
22.165000 0.037459 0
22.170000 0.052157 0
22.175000 0.068292 0
22.180000 0.085858 0
22.185000 0.104815 0
22.190000 0.125087 0
22.195000 0.146557 0
22.200000 0.169067 0
22.205000 0.192418 0
22.210000 0.216370 0
22.215000 0.240644 0
22.220000 0.264926 0
22.225000 0.288875 0
22.230000 0.312126 0
22.235000 0.334303 0
22.240000 0.355026 0
22.245000 0.373921 0
22.250000 0.390633 0
22.255000 0.404835 0
22.260000 0.416240 0
22.265000 0.424606 0
22.270000 0.429751 0
22.275000 0.431554 5
22.280000 0.429960 0
22.285000 0.424983 0
22.290000 0.416707 0
22.295000 0.405280 0
22.300000 0.390913 0
22.305000 0.373870 0
22.310000 0.354463 0
22.315000 0.333037 0
22.320000 0.309967 0
22.325000 0.285640 0
22.330000 0.260448 0
22.335000 0.234776 0
22.340000 0.208994 0
22.345000 0.183446 0
22.350000 0.158445 0
22.355000 0.134267 0
22.360000 0.111146 0
22.365000 0.089276 0
22.370000 0.068805 0
22.375000 0.049837 0
22.380000 0.032440 0
22.385000 0.016640 0
22.390000 0.002433 0
22.395000 -0.010216 0
22.400000 -0.021365 0
22.405000 -0.031092 0
22.410000 -0.039488 0
22.415000 -0.046656 0
22.420000 -0.052704 0
22.425000 -0.057741 0
22.430000 -0.061877 0
22.435000 -0.065217 0
22.440000 -0.067864 0
22.445000 -0.069909 0
22.450000 -0.071441 0
22.455000 -0.072537 0
22.460000 -0.073267 0
22.465000 -0.073692 0
22.470000 -0.073866 0
22.475000 -0.073835 0
22.480000 -0.073638 0
22.485000 -0.073309 0
22.490000 -0.072875 0
22.495000 -0.072357 0
22.500000 -0.071776 0
22.505000 -0.071015 0
22.510000 -0.070227 0
22.515000 -0.069443 0
22.520000 -0.068663 0
22.525000 -0.067887 0
22.530000 -0.067115 0
22.535000 -0.066346 0
22.540000 -0.065581 0
22.545000 -0.064821 0
22.550000 -0.064064 0
22.555000 -0.063310 0
22.560000 -0.062561 0
22.565000 -0.061815 0
22.570000 -0.061073 0
22.575000 -0.060335 0
22.580000 -0.059600 0
22.585000 -0.058869 0
22.590000 -0.058141 0
22.595000 -0.057418 0
22.600000 -0.056697 0
22.605000 -0.055980 0
22.610000 -0.055266 0
22.615000 -0.054555 0
22.620000 -0.053846 0
22.625000 -0.053138 0
22.630000 -0.052429 0
22.635000 -0.051716 0
22.640000 -0.050994 0
22.645000 -0.050256 0
22.650000 -0.049491 0
22.655000 -0.048680 0
22.660000 -0.047800 0
22.665000 -0.046813 0
22.670000 -0.045671 0
22.675000 -0.044303 0
22.680000 -0.042620 0
22.685000 -0.040503 0
22.690000 -0.037807 0
22.695000 -0.034351 0
22.700000 -0.029927 0
22.705000 -0.024298 0
22.710000 -0.017208 0
22.715000 -0.008400 0
22.720000 0.002372 0
22.725000 0.015313 0
22.730000 0.030558 0
22.735000 0.048146 0
22.740000 0.067989 0
22.745000 0.089845 0
22.750000 0.113306 0
22.755000 0.137792 0
22.760000 0.162567 0
22.765000 0.186765 0
22.770000 0.209436 0
22.775000 0.229605 0
22.780000 0.246343 0
22.785000 0.258831 0
22.790000 0.266431 0
22.795000 0.268738 1
22.800000 0.265611 0
22.805000 0.257194 0
22.810000 0.243897 0
22.815000 0.226365 0
22.820000 0.205427 0
22.825000 0.182029 0
22.830000 0.157163 0
22.835000 0.131799 0
22.840000 0.106820 0
22.845000 0.082973 0
22.850000 0.060818 0
22.855000 0.040672 0
22.860000 0.022503 0
22.865000 0.005764 0
22.870000 -0.010830 0
22.875000 -0.029442 0
22.880000 -0.052867 0
22.885000 -0.083566 0
22.890000 -0.121910 0
22.895000 -0.164187 0
22.900000 -0.201481 0
22.905000 -0.220315 2
22.910000 -0.204924 0
22.915000 -0.140125 0
22.920000 -0.014191 0
22.925000 0.177309 0
22.930000 0.425543 0
22.935000 0.702069 0
22.940000 0.957980 0
22.945000 1.134452 0
22.950000 1.183608 3
22.955000 1.088124 0
22.960000 0.869919 0
22.965000 0.583332 0
22.970000 0.289256 0
22.975000 0.035230 0
22.980000 -0.152128 0
22.985000 -0.264625 0
22.990000 -0.307219 4
22.995000 -0.294089 0
23.000000 -0.245246 0
23.005000 -0.181878 0
23.010000 -0.121090 0
23.015000 -0.072529 0
23.020000 -0.038407 0
23.025000 -0.016111 0
23.030000 -0.001357 0
23.035000 0.009663 0
23.040000 0.019514 0
23.045000 0.029619 0
23.050000 0.040671 0
23.055000 0.052983 0
23.060000 0.066694 0
23.065000 0.081865 0
23.070000 0.098513 0
23.075000 0.116617 0
23.080000 0.136117 0
23.085000 0.156913 0
23.090000 0.178861 0
23.095000 0.201772 0
23.100000 0.225412 0
23.105000 0.249504 0
23.110000 0.273732 0
23.115000 0.297747 0
23.120000 0.321175 0
23.125000 0.343621 0
23.130000 0.364687 0
23.135000 0.383977 0
23.140000 0.401112 0
23.145000 0.415741 0
23.150000 0.427552 0
23.155000 0.436285 0
23.160000 0.441737 0
23.165000 0.443774 5
23.170000 0.442331 0
23.175000 0.437418 0
23.180000 0.429120 0
23.185000 0.417592 0
23.190000 0.403054 0
23.195000 0.385788 0
23.200000 0.366121 0
23.205000 0.344422 0
23.210000 0.321083 0
23.215000 0.296514 0
23.220000 0.271126 0
23.225000 0.245321 0
23.230000 0.219481 0
23.235000 0.193963 0
23.240000 0.169085 0
23.245000 0.145124 0
23.250000 0.122315 0
23.255000 0.100843 0
23.260000 0.080848 0
23.265000 0.062425 0
23.270000 0.045626 0
23.275000 0.030464 0
23.280000 0.016921 0
23.285000 0.004946 0
23.290000 -0.005532 0
23.295000 -0.014603 0
23.300000 -0.022371 0
23.305000 -0.028946 0
23.310000 -0.034443 0
23.315000 -0.038977 0
23.320000 -0.042662 0
23.325000 -0.045605 0
23.330000 -0.047906 0
23.335000 -0.049659 0
23.340000 -0.050948 0
23.345000 -0.051847 0
23.350000 -0.052424 0
23.355000 -0.052735 0
23.360000 -0.052830 0
23.365000 -0.052751 0
23.370000 -0.052533 0
23.375000 -0.052205 0
23.380000 -0.051792 0
23.385000 -0.051312 0
23.390000 -0.050653 0
23.395000 -0.049967 0
23.400000 -0.049284 0
23.405000 -0.048604 0
23.410000 -0.047928 0
23.415000 -0.047255 0
23.420000 -0.046586 0
23.425000 -0.045920 0
23.430000 -0.045257 0
23.435000 -0.044597 0
23.440000 -0.043941 0
23.445000 -0.043288 0
23.450000 -0.042639 0
23.455000 -0.041992 0
23.460000 -0.041349 0
23.465000 -0.040709 0
23.470000 -0.040072 0
23.475000 -0.039439 0
23.480000 -0.038808 0
23.485000 -0.038180 0
23.490000 -0.037555 0
23.495000 -0.036933 0
23.500000 -0.036312 0
23.505000 -0.035693 0
23.510000 -0.035073 0
23.515000 -0.034449 0
23.520000 -0.033818 0
23.525000 -0.033172 0
23.530000 -0.032501 0
23.535000 -0.031789 0
23.540000 -0.031011 0
23.545000 -0.030131 0
23.550000 -0.029101 0
23.555000 -0.027851 0
23.560000 -0.026289 0
23.565000 -0.024295 0
23.570000 -0.021717 0
23.575000 -0.018369 0
23.580000 -0.014031 0
23.585000 -0.008456 0
23.590000 -0.001374 0
23.595000 0.007486 0
23.600000 0.018379 0
23.605000 0.031515 0
23.610000 0.047027 0
23.615000 0.064938 0
23.620000 0.085129 0
23.625000 0.107314 0
23.630000 0.131025 0
23.635000 0.155610 0
23.640000 0.180255 0
23.645000 0.204020 0
23.650000 0.225891 0
23.655000 0.244851 0
23.660000 0.259959 0
23.665000 0.270421 0
23.670000 0.275664 1
23.675000 0.275382 0
23.680000 0.269566 0
23.685000 0.258507 0
23.690000 0.242771 0
23.695000 0.223147 0
23.700000 0.200585 0
23.705000 0.176115 0
23.710000 0.150772 0
23.715000 0.125525 0
23.720000 0.101209 0
23.725000 0.078480 0
23.730000 0.057749 0
23.735000 0.039089 0
23.740000 0.022067 0
23.745000 0.005510 0
23.750000 -0.012691 0
23.755000 -0.035411 0
23.760000 -0.065358 0
23.765000 -0.103238 0
23.770000 -0.145547 0
23.775000 -0.183215 0
23.780000 -0.202206 2
23.785000 -0.185975 0
23.790000 -0.118626 0
23.795000 0.011894 0
23.800000 0.209447 0
23.805000 0.462986 0
23.810000 0.739866 0
23.815000 0.986238 0
23.820000 1.140674 0
23.825000 1.158074 3
23.830000 1.029972 0
23.835000 0.789017 0
23.840000 0.494945 0
23.845000 0.208119 0
23.850000 -0.028399 0
23.855000 -0.193269 0
23.860000 -0.282682 0
23.865000 -0.305057 4
23.870000 -0.277330 0
23.875000 -0.221045 0
23.880000 -0.157017 0
23.885000 -0.100204 0
23.890000 -0.057416 0
23.895000 -0.028581 0
23.900000 -0.009976 0
23.905000 0.002767 0
23.910000 0.013031 0
23.915000 0.022883 0
23.920000 0.033387 0
23.925000 0.045034 0
23.930000 0.058042 0
23.935000 0.072505 0
23.940000 0.088463 0
23.945000 0.105911 0
23.950000 0.124807 0
23.955000 0.145068 0
23.960000 0.166565 0
23.965000 0.189123 0
23.970000 0.212522 0
23.975000 0.236495 0
23.980000 0.260732 0
23.985000 0.284887 0
23.990000 0.308582 0
23.995000 0.331421 0
24.000000 0.352993 0
24.005000 0.372891 0
24.010000 0.390718 0
24.015000 0.406105 0
24.020000 0.418719 0
24.025000 0.428277 0
24.030000 0.434557 0
24.035000 0.437402 5
24.040000 0.436729 0
24.045000 0.432533 0
24.050000 0.424884 0
24.055000 0.413930 0
24.060000 0.399884 0
24.065000 0.383026 0
24.070000 0.363685 0
24.075000 0.342234 0
24.080000 0.319075 0
24.085000 0.294626 0
24.090000 0.269309 0
24.095000 0.243537 0
24.100000 0.217707 0
24.105000 0.192183 0
24.110000 0.167295 0
24.115000 0.143330 0
24.120000 0.120527 0
24.125000 0.099078 0
24.130000 0.079127 0
24.135000 0.060769 0
24.140000 0.044056 0
24.145000 0.029001 0
24.150000 0.015581 0
24.155000 0.003745 0
24.160000 -0.006584 0
24.165000 -0.015499 0
24.170000 -0.023108 0
24.175000 -0.029523 0
24.180000 -0.034865 0
24.185000 -0.039251 0
24.190000 -0.042796 0
24.195000 -0.045609 0
24.200000 -0.047791 0
24.205000 -0.049438 0
24.210000 -0.050632 0
24.215000 -0.051449 0
24.220000 -0.051954 0
24.225000 -0.052204 0
24.230000 -0.052248 0
24.235000 -0.052127 0
24.240000 -0.051875 0
24.245000 -0.051520 0
24.250000 -0.051085 0
24.255000 -0.050561 0
24.260000 -0.049875 0
24.265000 -0.049193 0
24.270000 -0.048513 0
24.275000 -0.047838 0
24.280000 -0.047165 0
24.285000 -0.046496 0
24.290000 -0.045831 0
24.295000 -0.045168 0
24.300000 -0.044509 0
24.305000 -0.043854 0
24.310000 -0.043201 0
24.315000 -0.042552 0
24.320000 -0.041906 0
24.325000 -0.041263 0
24.330000 -0.040624 0
24.335000 -0.039987 0
24.340000 -0.039354 0
24.345000 -0.038724 0
24.350000 -0.038097 0
24.355000 -0.037472 0
24.360000 -0.036851 0
24.365000 -0.036231 0
24.370000 -0.035613 0
24.375000 -0.034994 0
24.380000 -0.034374 0
24.385000 -0.033747 0
24.390000 -0.033108 0
24.395000 -0.032446 0
24.400000 -0.031748 0
24.405000 -0.030991 0
24.410000 -0.030140 0
24.415000 -0.029151 0
24.420000 -0.027956 0
24.425000 -0.026466 0
24.430000 -0.024565 0
24.435000 -0.022103 0
24.440000 -0.018894 0
24.445000 -0.014720 0
24.450000 -0.009328 0
24.455000 -0.002446 0
24.460000 0.006207 0
24.465000 0.016894 0
24.470000 0.029838 0
24.475000 0.045183 0
24.480000 0.062961 0
24.485000 0.083061 0
24.490000 0.105196 0
24.495000 0.128891 0
24.500000 0.153483 0
24.505000 0.178136 0
24.510000 0.201883 0
24.515000 0.223685 0
24.520000 0.242498 0
24.525000 0.257362 0
24.530000 0.267475 0
24.535000 0.272265 1
24.540000 0.271444 0
24.545000 0.265035 0
24.550000 0.253369 0
24.555000 0.237057 0
24.560000 0.216938 0
24.565000 0.194003 0
24.570000 0.169315 0
24.575000 0.143930 0
24.580000 0.118819 0
24.585000 0.094808 0
24.590000 0.072519 0
24.595000 0.052306 0
24.600000 0.034135 0
24.605000 0.017391 0
24.610000 0.000621 0
24.615000 -0.018606 0
24.620000 -0.043328 0
24.625000 -0.075922 0
24.630000 -0.115946 0
24.635000 -0.157951 0
24.640000 -0.190671 0
24.645000 -0.198416 2
24.650000 -0.164084 0
24.655000 -0.072486 0
24.660000 0.086028 0
24.665000 0.310008 0
24.670000 0.579236 0
24.675000 0.849855 0
24.680000 1.060548 0
24.685000 1.152911 3
24.690000 1.097663 0
24.695000 0.908777 0
24.700000 0.634726 0
24.705000 0.337349 0
24.710000 0.069376 0
24.715000 -0.136781 0
24.720000 -0.268531 0
24.725000 -0.327876 4
24.730000 -0.327004 0
24.735000 -0.284940 0
24.740000 -0.223211 0
24.745000 -0.160467 0
24.750000 -0.108378 0
24.755000 -0.070803 0
24.760000 -0.045966 0
24.765000 -0.029713 0
24.770000 -0.017984 0
24.775000 -0.007902 0
24.780000 0.002193 0
24.785000 0.013127 0
24.790000 0.025275 0
24.795000 0.038804 0
24.800000 0.053789 0
24.805000 0.070255 0
24.810000 0.088187 0
24.815000 0.107536 0
24.820000 0.128207 0
24.825000 0.150066 0
24.830000 0.172930 0
24.835000 0.196573 0
24.840000 0.220725 0
24.845000 0.245075 0
24.850000 0.269277 0
24.855000 0.292958 0
24.860000 0.315725 0
24.865000 0.337176 0
24.870000 0.356912 0
24.875000 0.374548 0
24.880000 0.389725 0
24.885000 0.402122 0
24.890000 0.411469 0
24.895000 0.417552 0
24.900000 0.420225 5
24.905000 0.419411 0
24.910000 0.415111 0
24.915000 0.407398 0
24.920000 0.396419 0
24.925000 0.382387 0
24.930000 0.365576 0
24.935000 0.346311 0
24.940000 0.324958 0
24.945000 0.301910 0
24.950000 0.277576 0
24.955000 0.252371 0
24.960000 0.226702 0
24.965000 0.200956 0
24.970000 0.175493 0
24.975000 0.150640 0
24.980000 0.126679 0
24.985000 0.103851 0
24.990000 0.082347 0
24.995000 0.062313 0
25.000000 0.043847 0
25.005000 0.027007 0
25.010000 0.011810 0
25.015000 -0.001764 0
25.020000 -0.013759 0
25.025000 -0.024248 0
25.030000 -0.033319 0
25.035000 -0.041076 0
25.040000 -0.047629 0
25.045000 -0.053095 0
25.050000 -0.057588 0
25.055000 -0.061224 0
25.060000 -0.064110 0
25.065000 -0.066348 0
25.070000 -0.068032 0
25.075000 -0.069248 0
25.080000 -0.070070 0
25.085000 -0.070567 0
25.090000 -0.070796 0
25.095000 -0.070807 0
25.100000 -0.070643 0
25.105000 -0.070339 0
25.110000 -0.069924 0
25.115000 -0.069424 0
25.120000 -0.068858 0
25.125000 -0.068111 0
25.130000 -0.067338 0
25.135000 -0.066568 0
25.140000 -0.065802 0
25.145000 -0.065041 0
25.150000 -0.064282 0
25.155000 -0.063528 0
25.160000 -0.062777 0
25.165000 -0.062031 0
25.170000 -0.061287 0
25.175000 -0.060548 0
25.180000 -0.059812 0
25.185000 -0.059080 0
25.190000 -0.058352 0
25.195000 -0.057627 0
25.200000 -0.056906 0
25.205000 -0.056188 0
25.210000 -0.055474 0
25.215000 -0.054763 0
25.220000 -0.054056 0
25.225000 -0.053352 0
25.230000 -0.052651 0
25.235000 -0.051952 0
25.240000 -0.051254 0
25.245000 -0.050556 0
25.250000 -0.049855 0
25.255000 -0.049146 0
25.260000 -0.048422 0
25.265000 -0.047673 0
25.270000 -0.046880 0
25.275000 -0.046020 0
25.280000 -0.045055 0
25.285000 -0.043935 0
25.290000 -0.042587 0
25.295000 -0.040918 0
25.300000 -0.038803 0
25.305000 -0.036086 0
25.310000 -0.032577 0
25.315000 -0.028053 0
25.320000 -0.022259 0
25.325000 -0.014926 0
25.330000 -0.005781 0
25.335000 0.005430 0
25.340000 0.018911 0
25.345000 0.034783 0
25.350000 0.053056 0
25.355000 0.073589 0
25.360000 0.096072 0
25.365000 0.120011 0
25.370000 0.144726 0
25.375000 0.169379 0
25.380000 0.193010 0
25.385000 0.214593 0
25.390000 0.233114 0
25.395000 0.247640 0
25.400000 0.257404 0
25.405000 0.261866 1
25.410000 0.260765 0
25.415000 0.254140 0
25.420000 0.242331 0
25.425000 0.225948 0
25.430000 0.205818 0
25.435000 0.182915 0
25.440000 0.158283 0
25.445000 0.132955 0
25.450000 0.107886 0
25.455000 0.083889 0
25.460000 0.061581 0
25.465000 0.041319 0
25.470000 0.023096 0
25.475000 0.006351 0
25.480000 -0.010276 0
25.485000 -0.029095 0
25.490000 -0.053068 0
25.495000 -0.084680 0
25.500000 -0.123923 0
25.505000 -0.166130 0
25.510000 -0.200966 0
25.515000 -0.213496 2
25.520000 -0.186949 0
25.525000 -0.105912 0
25.530000 0.040313 0
25.535000 0.252804 0
25.540000 0.515810 0
25.545000 0.790930 0
25.550000 1.020372 0
25.555000 1.143984 3
25.560000 1.125326 0
25.565000 0.968755 0
25.570000 0.713234 0
25.575000 0.416694 0
25.580000 0.134069 0
25.585000 -0.096734 0
25.590000 -0.257394 0
25.595000 -0.345098 0
25.600000 -0.367943 4
25.605000 -0.341720 0
25.610000 -0.286534 0
25.615000 -0.222153 0
25.620000 -0.163378 0
25.625000 -0.117672 0
25.630000 -0.085888 0
25.635000 -0.064967 0
25.640000 -0.050759 0
25.645000 -0.039765 0
25.650000 -0.029690 0
25.655000 -0.019268 0
25.660000 -0.007883 0
25.665000 0.004747 0
25.670000 0.018749 0
25.675000 0.034180 0
25.680000 0.051056 0
25.685000 0.069356 0
25.690000 0.089025 0
25.695000 0.109967 0
25.700000 0.132048 0
25.705000 0.155088 0
25.710000 0.178868 0
25.715000 0.203127 0
25.720000 0.227568 0
25.725000 0.251860 0
25.730000 0.275646 0
25.735000 0.298551 0
25.740000 0.320194 0
25.745000 0.340192 0
25.750000 0.358177 0
25.755000 0.373801 0
25.760000 0.386754 0
25.765000 0.396769 0
25.770000 0.403630 0
25.775000 0.407184 0
25.780000 0.407344 5
25.785000 0.404090 0
25.790000 0.397473 0
25.795000 0.387612 0
25.800000 0.374692 0
25.805000 0.358954 0
25.810000 0.340692 0
25.815000 0.320242 0
25.820000 0.297968 0
25.825000 0.274257 0
25.830000 0.249505 0
25.835000 0.224103 0
25.840000 0.198432 0
25.845000 0.172852 0
25.850000 0.147692 0
25.855000 0.123248 0
25.860000 0.099774 0
25.865000 0.077481 0
25.870000 0.056537 0
25.875000 0.037066 0
25.880000 0.019149 0
25.885000 0.002831 0
25.890000 -0.011884 0
25.895000 -0.025018 0
25.900000 -0.036621 0
25.905000 -0.046766 0
25.910000 -0.055540 0
25.915000 -0.063043 0
25.920000 -0.069382 0
25.925000 -0.074667 0
25.930000 -0.079010 0
25.935000 -0.082518 0
25.940000 -0.085296 0
25.945000 -0.087440 0
25.950000 -0.089041 0
25.955000 -0.090180 0
25.960000 -0.090930 0
25.965000 -0.091355 0
25.970000 -0.091513 0
25.975000 -0.091452 0
25.980000 -0.091214 0
25.985000 -0.090834 0
25.990000 -0.090341 0
25.995000 -0.089759 0
26.000000 -0.089108 0
26.005000 -0.088379 0
26.010000 -0.087505 0
26.015000 -0.086634 0
26.020000 -0.085769 0
26.025000 -0.084907 0
26.030000 -0.084050 0
26.035000 -0.083197 0
26.040000 -0.082348 0
26.045000 -0.081504 0
26.050000 -0.080663 0
26.055000 -0.079827 0
26.060000 -0.078995 0
26.065000 -0.078168 0
26.070000 -0.077344 0
26.075000 -0.076525 0
26.080000 -0.075709 0
26.085000 -0.074898 0
26.090000 -0.074090 0
26.095000 -0.073287 0
26.100000 -0.072488 0
26.105000 -0.071692 0
26.110000 -0.070900 0
26.115000 -0.070111 0
26.120000 -0.069324 0
26.125000 -0.068539 0
26.130000 -0.067754 0
26.135000 -0.066966 0
26.140000 -0.066171 0
26.145000 -0.065361 0
26.150000 -0.064526 0
26.155000 -0.063649 0
26.160000 -0.062706 0
26.165000 -0.061663 0
26.170000 -0.060470 0
26.175000 -0.059062 0
26.180000 -0.057350 0
26.185000 -0.055219 0
26.190000 -0.052524 0
26.195000 -0.049088 0
26.200000 -0.044702 0
26.205000 -0.039132 0
26.210000 -0.032120 0
26.215000 -0.023405 0
26.220000 -0.012739 0
26.225000 0.000091 0
26.230000 0.015228 0
26.235000 0.032720 0
26.240000 0.052487 0
26.245000 0.074298 0
26.250000 0.097750 0
26.255000 0.122269 0
26.260000 0.147120 0
26.265000 0.171435 0
26.270000 0.194258 0
26.275000 0.214605 0
26.280000 0.231536 0
26.285000 0.244219 0
26.290000 0.252006 0
26.295000 0.254481 1
26.300000 0.251498 0
26.305000 0.243198 0
26.310000 0.229992 0
26.315000 0.212529 0
26.320000 0.191647 0
26.325000 0.168300 0
26.330000 0.143488 0
26.335000 0.118189 0
26.340000 0.093293 0
26.345000 0.069550 0
26.350000 0.047519 0
26.355000 0.027509 0
26.360000 0.009474 0
26.365000 -0.007164 0
26.370000 -0.023740 0
26.375000 -0.042479 0
26.380000 -0.066213 0
26.385000 -0.097357 0
26.390000 -0.136080 0
26.395000 -0.178300 0
26.400000 -0.214645 0
26.405000 -0.231249 2
26.410000 -0.212147 0
26.415000 -0.142201 0
26.420000 -0.010060 0
26.425000 0.187771 0
26.430000 0.440671 0
26.435000 0.717688 0
26.440000 0.967668 0
26.445000 1.131356 0
26.450000 1.163266 3
26.455000 1.052392 0
26.460000 0.826810 0
26.465000 0.538710 0
26.470000 0.244870 0
26.475000 -0.010436 0
26.480000 -0.201899 0
26.485000 -0.321043 0
26.490000 -0.371567 4
26.495000 -0.365806 0
26.500000 -0.321853 0
26.505000 -0.259714 0
26.510000 -0.196642 0
26.515000 -0.143610 0
26.520000 -0.104547 0
26.525000 -0.078135 0
26.530000 -0.060626 0
26.535000 -0.048122 0
26.540000 -0.037704 0
26.545000 -0.027591 0
26.550000 -0.016845 0
26.555000 -0.005020 0
26.560000 0.008087 0
26.565000 0.022572 0
26.570000 0.038473 0
26.575000 0.055795 0
26.580000 0.074507 0
26.585000 0.094545 0
26.590000 0.115804 0
26.595000 0.138142 0
26.600000 0.161376 0
26.605000 0.185282 0
26.610000 0.209598 0
26.615000 0.234029 0
26.620000 0.258246 0
26.625000 0.281901 0
26.630000 0.304626 0
26.635000 0.326050 0
26.640000 0.345802 0
26.645000 0.363526 0
26.650000 0.378890 0
26.655000 0.391593 0
26.660000 0.401381 0
26.665000 0.408049 0
26.670000 0.411451 0
26.675000 0.411505 5
26.680000 0.408193 0
26.685000 0.401567 0
26.690000 0.391741 0
26.695000 0.378895 0
26.700000 0.363262 0
26.705000 0.345126 0
26.710000 0.324810 0
26.715000 0.302668 0
26.720000 0.279075 0
26.725000 0.254412 0
26.730000 0.229065 0
26.735000 0.203403 0
26.740000 0.177781 0
26.745000 0.152524 0
26.750000 0.127924 0
26.755000 0.104236 0
26.760000 0.081675 0
26.765000 0.060413 0
26.770000 0.040579 0
26.775000 0.022262 0
26.780000 0.005515 0
26.785000 -0.009649 0
26.790000 -0.023243 0
26.795000 -0.035311 0
26.800000 -0.045914 0
26.805000 -0.055135 0
26.810000 -0.063067 0
26.815000 -0.069811 0
26.820000 -0.075476 0
26.825000 -0.080168 0
26.830000 -0.083994 0
26.835000 -0.087058 0
26.840000 -0.089456 0
26.845000 -0.091279 0
26.850000 -0.092611 0
26.855000 -0.093526 0
26.860000 -0.094091 0
26.865000 -0.094365 0
26.870000 -0.094400 0
26.875000 -0.094238 0
26.880000 -0.093918 0
26.885000 -0.093472 0
26.890000 -0.092925 0
26.895000 -0.092299 0
26.900000 -0.091612 0
26.905000 -0.090751 0
26.910000 -0.089865 0
26.915000 -0.088983 0
26.920000 -0.088105 0
26.925000 -0.087232 0
26.930000 -0.086363 0
26.935000 -0.085499 0
26.940000 -0.084639 0
26.945000 -0.083783 0
26.950000 -0.082931 0
26.955000 -0.082084 0
26.960000 -0.081241 0
26.965000 -0.080402 0
26.970000 -0.079567 0
26.975000 -0.078736 0
26.980000 -0.077910 0
26.985000 -0.077088 0
26.990000 -0.076269 0
26.995000 -0.075455 0
27.000000 -0.074645 0
27.005000 -0.073838 0
27.010000 -0.073035 0
27.015000 -0.072235 0
27.020000 -0.071438 0
27.025000 -0.070643 0
27.030000 -0.069847 0
27.035000 -0.069049 0
27.040000 -0.068243 0
27.045000 -0.067424 0
27.050000 -0.066579 0
27.055000 -0.065695 0
27.060000 -0.064747 0
27.065000 -0.063704 0
27.070000 -0.062518 0
27.075000 -0.061127 0
27.080000 -0.059448 0
27.085000 -0.057373 0
27.090000 -0.054763 0
27.095000 -0.051453 0
27.100000 -0.047245 0
27.105000 -0.041914 0
27.110000 -0.035213 0
27.115000 -0.026888 0
27.120000 -0.016694 0
27.125000 -0.004413 0
27.130000 0.010114 0
27.135000 0.026960 0
27.140000 0.046084 0
27.145000 0.067307 0
27.150000 0.090289 0
27.155000 0.114525 0
27.160000 0.139350 0
27.165000 0.163961 0
27.170000 0.187453 0
27.175000 0.208874 0
27.180000 0.227283 0
27.185000 0.241822 0
27.190000 0.251780 0
27.195000 0.256649 1
27.200000 0.256167 0
27.205000 0.250343 0
27.210000 0.239455 0
27.215000 0.224028 0
27.220000 0.204791 0
27.225000 0.182620 0
27.230000 0.158475 0
27.235000 0.133327 0
27.240000 0.108093 0
27.245000 0.083589 0
27.250000 0.060472 0
27.255000 0.039198 0
27.260000 0.019951 0
27.265000 0.002519 0
27.270000 -0.013896 0
27.275000 -0.030884 0
27.280000 -0.050860 0
27.285000 -0.076605 0
27.290000 -0.110030 0
27.295000 -0.150309 0
27.300000 -0.192120 0
27.305000 -0.225082 0
27.310000 -0.234961 2
27.315000 -0.206169 0
27.320000 -0.124521 0
27.325000 0.019882 0
27.330000 0.228424 0
27.335000 0.487761 0
27.340000 0.764450 0
27.345000 1.006586 0
27.350000 1.156928 0
27.355000 1.174175 3
27.360000 1.050483 0
27.365000 0.815337 0
27.370000 0.523640 0
27.375000 0.232638 0
27.380000 -0.014791 0
27.385000 -0.195452 0
27.390000 -0.302875 0
27.395000 -0.342503 4
27.400000 -0.328213 0
27.405000 -0.279218 0
27.410000 -0.215784 0
27.415000 -0.154414 0
27.420000 -0.104688 0
27.425000 -0.069140 0
27.430000 -0.045551 0
27.435000 -0.029874 0
27.440000 -0.018330 0
27.445000 -0.008272 0
27.450000 0.001832 0
27.455000 0.012755 0
27.460000 0.024855 0
27.465000 0.038293 0
27.470000 0.053144 0
27.475000 0.069436 0
27.480000 0.087158 0
27.485000 0.106268 0
27.490000 0.126683 0
27.495000 0.148284 0
27.500000 0.170905 0
27.505000 0.194344 0
27.510000 0.218353 0
27.515000 0.242650 0
27.520000 0.266915 0
27.525000 0.290802 0
27.530000 0.313945 0
27.535000 0.335964 0
27.540000 0.356479 0
27.545000 0.375115 0
27.550000 0.391521 0
27.555000 0.405371 0
27.560000 0.416384 0
27.565000 0.424326 0
27.570000 0.429021 0
27.575000 0.430355 5
27.580000 0.428285 0
27.585000 0.422835 0
27.590000 0.414097 0
27.595000 0.402230 0
27.600000 0.387453 0
27.605000 0.370040 0
27.610000 0.350309 0
27.615000 0.328611 0
27.620000 0.305325 0
27.625000 0.280841 0
27.630000 0.255552 0
27.635000 0.229843 0
27.640000 0.204079 0
27.645000 0.178604 0
27.650000 0.153724 0
27.655000 0.129710 0
27.660000 0.106791 0
27.665000 0.085153 0
27.670000 0.064936 0
27.675000 0.046240 0
27.680000 0.029123 0
27.685000 0.013609 0
27.690000 -0.000315 0
27.695000 -0.012687 0
27.700000 -0.023570 0
27.705000 -0.033043 0
27.710000 -0.041203 0
27.715000 -0.048152 0
27.720000 -0.053999 0
27.725000 -0.058855 0
27.730000 -0.062829 0
27.735000 -0.066026 0
27.740000 -0.068546 0
27.745000 -0.070483 0
27.750000 -0.071921 0
27.755000 -0.072937 0
27.760000 -0.073600 0
27.765000 -0.073968 0
27.770000 -0.074096 0
27.775000 -0.074027 0
27.780000 -0.073799 0
27.785000 -0.073444 0
27.790000 -0.072989 0
27.795000 -0.072456 0
27.800000 -0.071862 0
27.805000 -0.071098 0
27.810000 -0.070310 0
27.815000 -0.069526 0
27.820000 -0.068745 0
27.825000 -0.067968 0
27.830000 -0.067196 0
27.835000 -0.066427 0
27.840000 -0.065662 0
27.845000 -0.064901 0
27.850000 -0.064143 0
27.855000 -0.063389 0
27.860000 -0.062640 0
27.865000 -0.061893 0
27.870000 -0.061151 0
27.875000 -0.060412 0
27.880000 -0.059677 0
27.885000 -0.058946 0
27.890000 -0.058218 0
27.895000 -0.057494 0
27.900000 -0.056773 0
27.905000 -0.056055 0
27.910000 -0.055341 0
27.915000 -0.054629 0
27.920000 -0.053919 0
27.925000 -0.053209 0
27.930000 -0.052498 0
27.935000 -0.051782 0
27.940000 -0.051056 0
27.945000 -0.050311 0
27.950000 -0.049534 0
27.955000 -0.048707 0
27.960000 -0.047801 0
27.965000 -0.046776 0
27.970000 -0.045578 0
27.975000 -0.044133 0
27.980000 -0.042342 0
27.985000 -0.040079 0
27.990000 -0.037189 0
27.995000 -0.033482 0
28.000000 -0.028741 0
28.005000 -0.022722 0
28.010000 -0.015166 0
28.015000 -0.005814 0
28.020000 0.005568 0
28.025000 0.019170 0
28.030000 0.035104 0
28.035000 0.053373 0
28.040000 0.073847 0
28.045000 0.096233 0
28.050000 0.120071 0
28.055000 0.144731 0
28.060000 0.169430 0
28.065000 0.193269 0
28.070000 0.215280 0
28.075000 0.234492 0
28.080000 0.249999 0
28.085000 0.261028 0
28.090000 0.267008 0
28.095000 0.267612 1
28.100000 0.262788 0
28.105000 0.252767 0
28.110000 0.238040 0
28.115000 0.219321 0
28.120000 0.197485 0
28.125000 0.173505 0
28.130000 0.148375 0
28.135000 0.123048 0
28.140000 0.098370 0
28.145000 0.075034 0
28.150000 0.053529 0
28.155000 0.034071 0
28.160000 0.016477 0
28.165000 -0.000026 0
28.170000 -0.017019 0
28.175000 -0.036947 0
28.180000 -0.062651 0
28.185000 -0.096110 0
28.190000 -0.136491 0
28.195000 -0.178310 0
28.200000 -0.210856 0
28.205000 -0.219491 2
28.210000 -0.188277 0
28.215000 -0.102859 0
28.220000 0.046472 0
28.225000 0.260208 0
28.230000 0.523041 0
28.235000 0.798636 0
28.240000 1.032443 0
28.245000 1.166722 3
28.250000 1.163077 0
28.255000 1.018559 0
28.260000 0.768099 0
28.265000 0.472015 0
28.270000 0.188663 0
28.275000 -0.041660 0
28.280000 -0.199800 0
28.285000 -0.283269 0
28.290000 -0.301198 4
28.295000 -0.270799 0
28.300000 -0.213472 0
28.305000 -0.149536 0
28.310000 -0.093333 0
28.315000 -0.051196 0
28.320000 -0.022826 0
28.325000 -0.004476 0
28.330000 0.008153 0
28.335000 0.018372 0
28.340000 0.028199 0
28.345000 0.038678 0
28.350000 0.050293 0
28.355000 0.063257 0
