0.000000 1.128371 3
0.005000 1.050874 0
0.010000 0.852606 0
0.015000 0.580234 0
0.020000 0.289711 0
0.025000 0.027962 0
0.030000 -0.175921 0
0.035000 -0.310120 0
0.040000 -0.375687 0
0.045000 -0.382773 4
0.050000 -0.347858 0
0.055000 -0.290350 0
0.060000 -0.228135 0
0.065000 -0.173682 0
0.070000 -0.132544 0
0.075000 -0.104552 0
0.080000 -0.086445 0
0.085000 -0.074323 0
0.090000 -0.065040 0
0.095000 -0.056574 0
0.100000 -0.047814 0
0.105000 -0.038211 0
0.110000 -0.027502 0
0.115000 -0.015549 0
0.120000 -0.002275 0
0.125000 0.012367 0
0.130000 0.028397 0
0.135000 0.045805 0
0.140000 0.064553 0
0.145000 0.084566 0
0.150000 0.105731 0
0.155000 0.127900 0
0.160000 0.150881 0
0.165000 0.174447 0
0.170000 0.198334 0
0.175000 0.222243 0
0.180000 0.245851 0
0.185000 0.268812 0
0.190000 0.290768 0
0.195000 0.311356 0
0.200000 0.330219 0
0.205000 0.347016 0
0.210000 0.361432 0
0.215000 0.373185 0
0.220000 0.382040 0
0.225000 0.387811 0
0.230000 0.390373 5
0.235000 0.389661 0
0.240000 0.385674 0
0.245000 0.378478 0
0.250000 0.368200 0
0.255000 0.355027 0
0.260000 0.339199 0
0.265000 0.321001 0
0.270000 0.300754 0
0.275000 0.278809 0
0.280000 0.255532 0
0.285000 0.231297 0
0.290000 0.206473 0
0.295000 0.181420 0
0.300000 0.156475 0
0.305000 0.131948 0
0.310000 0.108116 0
0.315000 0.085219 0
0.320000 0.063457 0
0.325000 0.042990 0
0.330000 0.023935 0
0.335000 0.006371 0
0.340000 -0.009658 0
0.345000 -0.024144 0
0.350000 -0.037106 0
0.355000 -0.048589 0
0.360000 -0.058659 0
0.365000 -0.067397 0
0.370000 -0.074894 0
0.375000 -0.081253 0
0.380000 -0.086576 0
0.385000 -0.090968 0
0.390000 -0.094534 0
0.395000 -0.097372 0
0.400000 -0.099575 0
0.405000 -0.101232 0
0.410000 -0.102420 0
0.415000 -0.103213 0
0.420000 -0.103674 0
0.425000 -0.103859 0
0.430000 -0.103817 0
0.435000 -0.103590 0
0.440000 -0.103213 0
0.445000 -0.102716 0
0.450000 -0.102125 0
0.455000 -0.101459 0
0.460000 -0.100736 0
0.465000 -0.099969 0
0.470000 -0.099153 0
0.475000 -0.098245 0
0.480000 -0.097342 0
0.485000 -0.096444 0
0.490000 -0.095550 0
0.495000 -0.094660 0
0.500000 -0.093775 0
0.505000 -0.092894 0
0.510000 -0.092018 0
0.515000 -0.091146 0
0.520000 -0.090278 0
0.525000 -0.089415 0
0.530000 -0.088556 0
0.535000 -0.087701 0
0.540000 -0.086850 0
0.545000 -0.086004 0
0.550000 -0.085162 0
0.555000 -0.084324 0
0.560000 -0.083491 0
0.565000 -0.082661 0
0.570000 -0.081836 0
0.575000 -0.081014 0
0.580000 -0.080197 0
0.585000 -0.079383 0
0.590000 -0.078573 0
0.595000 -0.077766 0
0.600000 -0.076962 0
0.605000 -0.076158 0
0.610000 -0.075354 0
0.615000 -0.074546 0
0.620000 -0.073730 0
0.625000 -0.072897 0
0.630000 -0.072035 0
0.635000 -0.071129 0
0.640000 -0.070152 0
0.645000 -0.069068 0
0.650000 -0.067830 0
0.655000 -0.066369 0
0.660000 -0.064597 0
0.665000 -0.062400 0
0.670000 -0.059638 0
0.675000 -0.056138 0
0.680000 -0.051701 0
0.685000 -0.046100 0
0.690000 -0.039093 0
0.695000 -0.030432 0
0.700000 -0.019885 0
0.705000 -0.007253 0
0.710000 0.007597 0
0.715000 0.024708 0
0.720000 0.044006 0
0.725000 0.065276 0
0.730000 0.088143 0
0.735000 0.112075 0
0.740000 0.136386 0
0.745000 0.160266 0
0.750000 0.182819 0
0.755000 0.203115 0
0.760000 0.220255 0
0.765000 0.233435 0
0.770000 0.242006 0
0.775000 0.245532 1
0.780000 0.243820 0
0.785000 0.236942 0
0.790000 0.225227 0
0.795000 0.209237 0
0.800000 0.189719 0
0.805000 0.167550 0
0.810000 0.143668 0
0.815000 0.119013 0
0.820000 0.094460 0
0.825000 0.070774 0
0.830000 0.048567 0
0.835000 0.028260 0
0.840000 0.010035 0
0.845000 -0.006268 0
0.850000 -0.021307 0
0.855000 -0.036450 0
0.860000 -0.053873 0
0.865000 -0.076287 0
0.870000 -0.105966 0
0.875000 -0.143071 0
0.880000 -0.183815 0
0.885000 -0.219491 0
0.890000 -0.237138 2
0.895000 -0.221698 0
0.900000 -0.158683 0
0.905000 -0.036845 0
0.910000 0.148277 0
0.915000 0.388854 0
0.920000 0.658768 0
0.925000 0.912398 0
0.930000 1.093714 0
0.935000 1.155263 3
0.940000 1.079428 0
0.945000 0.883943 0
0.950000 0.613523 0
0.955000 0.322464 0
0.960000 0.057139 0
0.965000 -0.152889 0
0.970000 -0.294810 0
0.975000 -0.368517 0
0.980000 -0.382912 4
0.985000 -0.353283 0
0.990000 -0.298274 0
0.995000 -0.235791 0
1.000000 -0.179099 0
1.005000 -0.134917 0
1.010000 -0.104090 0
1.015000 -0.083913 0
1.020000 -0.070583 0
1.025000 -0.060787 0
1.030000 -0.052264 0
1.035000 -0.043711 0
1.040000 -0.034461 0
1.045000 -0.024190 0
1.050000 -0.012736 0
1.055000 -0.000005 0
1.060000 0.014056 0
1.065000 0.029477 0
1.070000 0.046262 0
1.075000 0.064384 0
1.080000 0.083787 0
1.085000 0.104380 0
1.090000 0.126034 0
1.095000 0.148584 0
1.100000 0.171828 0
1.105000 0.195528 0
1.110000 0.219412 0
1.115000 0.243179 0
1.120000 0.266507 0
1.125000 0.289053 0
1.130000 0.310468 0
1.135000 0.330402 0
1.140000 0.348514 0
1.145000 0.364482 0
1.150000 0.378010 0
1.155000 0.388838 0
1.160000 0.396755 0
1.165000 0.401595 0
1.170000 0.403254 5
1.175000 0.401684 0
1.180000 0.396902 0
1.185000 0.388984 0
1.190000 0.378067 0
1.195000 0.364341 0
1.200000 0.348049 0
1.205000 0.329473 0
1.210000 0.308929 0
1.215000 0.286759 0
1.220000 0.263319 0
1.225000 0.238972 0
1.230000 0.214075 0
1.235000 0.188974 0
1.240000 0.163996 0
1.245000 0.139440 0
1.250000 0.115573 0
1.255000 0.092627 0
1.260000 0.070798 0
1.265000 0.050239 0
1.270000 0.031066 0
1.275000 0.013360 0
1.280000 -0.002838 0
1.285000 -0.017514 0
1.290000 -0.030686 0
1.295000 -0.042395 0
1.300000 -0.052701 0
1.305000 -0.061681 0
1.310000 -0.069423 0
1.315000 -0.076023 0
1.320000 -0.081583 0
1.325000 -0.086203 0
1.330000 -0.089984 0
1.335000 -0.093024 0
1.340000 -0.095415 0
1.345000 -0.097243 0
1.350000 -0.098587 0
1.355000 -0.099521 0
1.360000 -0.100107 0
1.365000 -0.100402 0
1.370000 -0.100457 0
1.375000 -0.100315 0
1.380000 -0.100012 0
1.385000 -0.099580 0
1.390000 -0.099044 0
1.395000 -0.098426 0
1.400000 -0.097745 0
1.405000 -0.097015 0
1.410000 -0.096247 0
1.415000 -0.095372 0
1.420000 -0.094484 0
1.425000 -0.093599 0
1.430000 -0.092719 0
1.435000 -0.091844 0
1.440000 -0.090973 0
1.445000 -0.090106 0
1.450000 -0.089243 0
1.455000 -0.088385 0
1.460000 -0.087531 0
1.465000 -0.086682 0
1.470000 -0.085836 0
1.475000 -0.084995 0
1.480000 -0.084158 0
1.485000 -0.083325 0
1.490000 -0.082497 0
1.495000 -0.081672 0
1.500000 -0.080852 0
1.505000 -0.080036 0
1.510000 -0.079223 0
1.515000 -0.078415 0
1.520000 -0.077611 0
1.525000 -0.076810 0
1.530000 -0.076013 0
1.535000 -0.075220 0
1.540000 -0.074430 0
1.545000 -0.073642 0
1.550000 -0.072855 0
1.555000 -0.072067 0
1.560000 -0.071275 0
1.565000 -0.070475 0
1.570000 -0.069658 0
1.575000 -0.068814 0
1.580000 -0.067926 0
1.585000 -0.066970 0
1.590000 -0.065913 0
1.595000 -0.064707 0
1.600000 -0.063289 0
1.605000 -0.061577 0
1.610000 -0.059464 0
1.615000 -0.056815 0
1.620000 -0.053471 0
1.625000 -0.049240 0
1.630000 -0.043909 0
1.635000 -0.037246 0
1.640000 -0.029010 0
1.645000 -0.018970 0
1.650000 -0.006925 0
1.655000 0.007273 0
1.660000 0.023696 0
1.665000 0.042306 0
1.670000 0.062939 0
1.675000 0.085284 0
1.680000 0.108878 0
1.685000 0.133107 0
1.690000 0.157229 0
1.695000 0.180402 0
1.700000 0.201732 0
1.705000 0.220328 0
1.710000 0.235363 0
1.715000 0.246133 0
1.720000 0.252114 0
1.725000 0.253001 1
1.730000 0.248735 0
1.735000 0.239509 0
1.740000 0.225750 0
1.745000 0.208090 0
1.750000 0.187316 0
1.755000 0.164310 0
1.760000 0.139989 0
1.765000 0.115247 0
1.770000 0.090895 0
1.775000 0.067627 0
1.780000 0.045978 0
1.785000 0.026286 0
1.790000 0.008640 0
1.795000 -0.007237 0
1.800000 -0.022153 0
1.805000 -0.037633 0
1.810000 -0.055961 0
1.815000 -0.079779 0
1.820000 -0.111016 0
1.825000 -0.149210 0
1.830000 -0.189864 0
1.835000 -0.223770 0
1.840000 -0.237908 2
1.845000 -0.217608 0
1.850000 -0.149063 0
1.855000 -0.021855 0
1.860000 0.167573 0
1.865000 0.410587 0
1.870000 0.680830 0
1.875000 0.933459 0
1.880000 1.114092 0
1.885000 1.176822 3
1.890000 1.100976 0
1.895000 0.901164 0
1.900000 0.626782 0
1.905000 0.336691 0
1.910000 0.079240 0
1.915000 -0.116737 0
1.920000 -0.240665 0
1.925000 -0.295285 4
1.930000 -0.292688 0
1.935000 -0.251213 0
1.940000 -0.191372 0
1.945000 -0.130845 0
1.950000 -0.080712 0
1.955000 -0.044701 0
1.960000 -0.021201 0
1.965000 -0.006286 0
1.970000 0.003944 0
1.975000 0.012304 0
1.980000 0.020451 0
1.985000 0.029232 0
1.990000 0.039046 0
1.995000 0.050088 0
2.000000 0.062460 0
2.005000 0.076227 0
2.010000 0.091418 0
2.015000 0.108036 0
2.020000 0.126051 0
2.025000 0.145395 0
2.030000 0.165961 0
2.035000 0.187601 0
2.040000 0.210125 0
2.045000 0.233298 0
2.050000 0.256848 0
2.055000 0.280464 0
2.060000 0.303809 0
2.065000 0.326517 0
2.070000 0.348212 0
2.075000 0.368510 0
2.080000 0.387035 0
2.085000 0.403426 0
2.090000 0.417353 0
2.095000 0.428522 0
2.100000 0.436689 0
2.105000 0.441667 0
2.110000 0.443332 5
2.115000 0.441630 0
2.120000 0.436574 0
2.125000 0.428250 0
2.130000 0.416810 0
2.135000 0.402468 0
2.140000 0.385492 0
2.145000 0.366200 0
2.150000 0.344943 0
2.155000 0.322099 0
2.160000 0.298058 0
2.165000 0.273215 0
2.170000 0.247955 0
2.175000 0.222646 0
2.180000 0.197629 0
2.185000 0.173213 0
2.190000 0.149666 0
2.195000 0.127216 0
2.200000 0.106045 0
2.205000 0.086292 0
2.210000 0.068052 0
2.215000 0.051379 0
2.220000 0.036293 0
2.225000 0.022777 0
2.230000 0.010789 0
2.235000 0.000263 0
2.240000 -0.008884 0
2.245000 -0.016749 0
2.250000 -0.023438 0
2.255000 -0.029060 0
2.260000 -0.033725 0
2.265000 -0.037543 0
2.270000 -0.040618 0
2.275000 -0.043048 0
2.280000 -0.044924 0
2.285000 -0.046330 0
2.290000 -0.047338 0
2.295000 -0.048017 0
2.300000 -0.048422 0
2.305000 -0.048604 0
2.310000 -0.048605 0
2.315000 -0.048460 0
2.320000 -0.048201 0
2.325000 -0.047850 0
2.330000 -0.047429 0
2.335000 -0.046954 0
2.340000 -0.046437 0
2.345000 -0.045811 0
2.350000 -0.045169 0
2.355000 -0.044531 0
2.360000 -0.043896 0
2.365000 -0.043264 0
2.370000 -0.042635 0
2.375000 -0.042009 0
2.380000 -0.041387 0
2.385000 -0.040767 0
2.390000 -0.040151 0
2.395000 -0.039538 0
2.400000 -0.038927 0
2.405000 -0.038320 0
2.410000 -0.037716 0
2.415000 -0.037115 0
2.420000 -0.036517 0
2.425000 -0.035921 0
2.430000 -0.035329 0
2.435000 -0.034740 0
2.440000 -0.034153 0
2.445000 -0.033570 0
2.450000 -0.032989 0
2.455000 -0.032411 0
2.460000 -0.031835 0
2.465000 -0.031261 0
2.470000 -0.030688 0
2.475000 -0.030115 0
2.480000 -0.029539 0
2.485000 -0.028957 0
2.490000 -0.028363 0
2.495000 -0.027747 0
2.500000 -0.027097 0
2.505000 -0.026391 0
2.510000 -0.025598 0
2.515000 -0.024677 0
2.520000 -0.023568 0
2.525000 -0.022190 0
2.530000 -0.020438 0
2.535000 -0.018178 0
2.540000 -0.015244 0
2.545000 -0.011437 0
2.550000 -0.006530 0
2.555000 -0.000272 0
2.560000 0.007599 0
2.565000 0.017336 0
2.570000 0.029162 0
2.575000 0.043240 0
2.580000 0.059644 0
2.585000 0.078325 0
2.590000 0.099087 0
2.595000 0.121567 0
2.600000 0.145224 0
2.605000 0.169355 0
2.610000 0.193114 0
2.615000 0.215559 0
2.620000 0.235709 0
2.625000 0.252616 0
2.630000 0.265432 0
2.635000 0.273482 0
2.640000 0.276323 1
2.645000 0.273780 0
2.650000 0.265963 0
2.655000 0.253259 0
2.660000 0.236301 0
2.665000 0.215910 0
2.670000 0.193034 0
2.675000 0.168670 0
2.680000 0.143795 0
2.685000 0.119300 0
2.690000 0.095940 0
2.695000 0.074291 0
2.700000 0.054704 0
2.705000 0.037230 0
2.710000 0.021485 0
2.715000 0.006433 0
2.720000 -0.009810 0
2.725000 -0.029921 0
2.730000 -0.056668 0
2.735000 -0.091353 0
2.740000 -0.131734 0
2.745000 -0.170450 0
2.750000 -0.195088 2
2.755000 -0.190130 0
2.760000 -0.139865 0
2.765000 -0.031337 0
2.770000 0.142067 0
2.775000 0.374951 0
2.780000 0.643061 0
2.785000 0.900687 0
2.790000 1.089149 0
2.795000 1.157027 3
2.800000 1.084283 0
2.805000 0.890819 0
2.810000 0.621209 0
2.815000 0.330081 0
2.820000 0.064286 0
2.825000 -0.146232 0
2.830000 -0.288471 0
2.835000 -0.362273 0
2.840000 -0.376586 4
2.845000 -0.346805 0
2.850000 -0.291695 0
2.855000 -0.229247 0
2.860000 -0.172739 0
2.865000 -0.128833 0
2.870000 -0.098294 0
2.875000 -0.078355 0
2.880000 -0.065187 0
2.885000 -0.055483 0
2.890000 -0.047000 0
2.895000 -0.038455 0
2.900000 -0.029193 0
2.905000 -0.018898 0
2.910000 -0.007409 0
2.915000 0.005363 0
2.920000 0.019472 0
2.925000 0.034947 0
2.930000 0.051790 0
2.935000 0.069972 0
2.940000 0.089435 0
2.945000 0.110084 0
2.950000 0.131787 0
2.955000 0.154377 0
2.960000 0.177646 0
2.965000 0.201352 0
2.970000 0.225219 0
2.975000 0.248942 0
2.980000 0.272194 0
2.985000 0.294631 0
2.990000 0.315900 0
2.995000 0.335650 0
3.000000 0.353538 0
3.005000 0.369242 0
3.010000 0.382468 0
3.015000 0.392962 0
3.020000 0.400512 0
3.025000 0.404961 0
3.030000 0.406210 5
3.035000 0.404218 0
3.040000 0.399011 0
3.045000 0.390672 0
3.050000 0.379347 0
3.055000 0.365236 0
3.060000 0.348586 0
3.065000 0.329689 0
3.070000 0.308867 0
3.075000 0.286465 0
3.080000 0.262846 0
3.085000 0.238371 0
3.090000 0.213402 0
3.095000 0.188283 0
3.100000 0.163338 0
3.105000 0.138863 0
3.110000 0.115123 0
3.115000 0.092343 0
3.120000 0.070713 0
3.125000 0.050381 0
3.130000 0.031458 0
3.135000 0.014016 0
3.140000 -0.001908 0
3.145000 -0.016307 0
3.150000 -0.029204 0
3.155000 -0.040644 0
3.160000 -0.050690 0
3.165000 -0.059425 0
3.170000 -0.066937 0
3.175000 -0.073325 0
3.180000 -0.078691 0
3.185000 -0.083137 0
3.190000 -0.086763 0
3.195000 -0.089668 0
3.200000 -0.091941 0
3.205000 -0.093669 0
3.210000 -0.094930 0
3.215000 -0.095793 0
3.220000 -0.096323 0
3.225000 -0.096574 0
3.230000 -0.096596 0
3.235000 -0.096429 0
3.240000 -0.096109 0
3.245000 -0.095666 0
3.250000 -0.095126 0
3.255000 -0.094509 0
3.260000 -0.093832 0
3.265000 -0.093109 0
3.270000 -0.092333 0
3.275000 -0.091460 0
3.280000 -0.090591 0
3.285000 -0.089726 0
3.290000 -0.088865 0
3.295000 -0.088009 0
3.300000 -0.087157 0
3.305000 -0.086309 0
3.310000 -0.085466 0
3.315000 -0.084626 0
3.320000 -0.083791 0
3.325000 -0.082960 0
3.330000 -0.082133 0
3.335000 -0.081311 0
3.340000 -0.080492 0
3.345000 -0.079678 0
3.350000 -0.078867 0
3.355000 -0.078061 0
3.360000 -0.077258 0
3.365000 -0.076460 0
3.370000 -0.075665 0
3.375000 -0.074875 0
3.380000 -0.074088 0
3.385000 -0.073305 0
3.390000 -0.072526 0
3.395000 -0.071749 0
3.400000 -0.070976 0
3.405000 -0.070204 0
3.410000 -0.069433 0
3.415000 -0.068660 0
3.420000 -0.067881 0
3.425000 -0.067091 0
3.430000 -0.066281 0
3.435000 -0.065438 0
3.440000 -0.064542 0
3.445000 -0.063567 0
3.450000 -0.062473 0
3.455000 -0.061208 0
3.460000 -0.059699 0
3.465000 -0.057856 0
3.470000 -0.055560 0
3.475000 -0.052665 0
3.480000 -0.048997 0
3.485000 -0.044355 0
3.490000 -0.038515 0
3.495000 -0.031237 0
3.500000 -0.022282 0
3.505000 -0.011428 0
3.510000 0.001510 0
3.515000 0.016650 0
3.520000 0.034020 0
3.525000 0.053530 0
3.530000 0.074952 0
3.535000 0.097905 0
3.540000 0.121856 0
3.545000 0.146125 0
3.550000 0.169915 0
3.555000 0.192350 0
3.560000 0.212524 0
3.565000 0.229561 0
3.570000 0.242680 0
3.575000 0.251250 0
3.580000 0.254843 1
3.585000 0.253266 0
3.590000 0.246581 0
3.595000 0.235098 0
3.600000 0.219351 0
3.605000 0.200059 0
3.610000 0.178066 0
3.615000 0.154287 0
3.620000 0.129640 0
3.625000 0.104988 0
3.630000 0.081094 0
3.635000 0.058580 0
3.640000 0.037889 0
3.645000 0.019244 0
3.650000 0.002563 0
3.655000 -0.012684 0
3.660000 -0.027666 0
3.665000 -0.044332 0
3.670000 -0.065259 0
3.675000 -0.092906 0
3.680000 -0.128162 0
3.685000 -0.168553 0
3.690000 -0.206990 0
3.695000 -0.231917 2
3.700000 -0.229016 0
3.705000 -0.183694 0
3.710000 -0.083596 0
3.715000 0.078482 0
3.720000 0.300035 0
3.725000 0.562894 0
3.730000 0.829589 0
3.735000 1.047760 0
3.740000 1.165025 3
3.745000 1.148818 0
3.750000 1.000479 0
3.755000 0.755129 0
3.760000 0.466159 0
3.765000 0.185615 0
3.770000 -0.049129 0
3.775000 -0.218648 0
3.780000 -0.318272 0
3.785000 -0.353838 4
3.790000 -0.338690 0
3.795000 -0.290903 0
3.800000 -0.229416 0
3.805000 -0.169726 0
3.810000 -0.121028 0
3.815000 -0.086019 0
3.820000 -0.062874 0
3.825000 -0.047872 0
3.830000 -0.037388 0
3.835000 -0.028780 0
3.840000 -0.020458 0
3.845000 -0.011586 0
3.850000 -0.001757 0
3.855000 0.009229 0
3.860000 0.021480 0
3.865000 0.035060 0
3.870000 0.050005 0
3.875000 0.066327 0
3.880000 0.084006 0
3.885000 0.102993 0
3.890000 0.123205 0
3.895000 0.144519 0
3.900000 0.166776 0
3.905000 0.189780 0
3.910000 0.213296 0
3.915000 0.237055 0
3.920000 0.260758 0
3.925000 0.284080 0
3.930000 0.306677 0
3.935000 0.328196 0
3.940000 0.348282 0
3.945000 0.366586 0
3.950000 0.382777 0
3.955000 0.396551 0
3.960000 0.407641 0
3.965000 0.415822 0
3.970000 0.420923 0
3.975000 0.422828 5
3.980000 0.421485 0
3.985000 0.416902 0
3.990000 0.409153 0
3.995000 0.398369 0
4.000000 0.384741 0
4.005000 0.368509 0
4.010000 0.349958 0
4.015000 0.329408 0
4.020000 0.307203 0
4.025000 0.283705 0
4.030000 0.259281 0
4.035000 0.234293 0
4.040000 0.209095 0
4.045000 0.184015 0
4.050000 0.159359 0
4.055000 0.135398 0
4.060000 0.112367 0
4.065000 0.090462 0
4.070000 0.069840 0
4.075000 0.050618 0
4.080000 0.032874 0
4.085000 0.016652 0
4.090000 0.001960 0
4.095000 -0.011217 0
4.100000 -0.022925 0
4.105000 -0.033225 0
4.110000 -0.042196 0
4.115000 -0.049929 0
4.120000 -0.056521 0
4.125000 -0.062075 0
4.130000 -0.066694 0
4.135000 -0.070480 0
4.140000 -0.073531 0
4.145000 -0.075939 0
4.150000 -0.077792 0
4.155000 -0.079168 0
4.160000 -0.080140 0
4.165000 -0.080772 0
4.170000 -0.081120 0
4.175000 -0.081233 0
4.180000 -0.081154 0
4.185000 -0.080919 0
4.190000 -0.080559 0
4.195000 -0.080099 0
4.200000 -0.079560 0
4.205000 -0.078960 0
4.210000 -0.078313 0
4.215000 -0.077613 0
4.220000 -0.076813 0
4.225000 -0.076016 0
4.230000 -0.075224 0
4.235000 -0.074436 0
4.240000 -0.073652 0
4.245000 -0.072871 0
4.250000 -0.072095 0
4.255000 -0.071322 0
4.260000 -0.070553 0
4.265000 -0.069788 0
4.270000 -0.069027 0
4.275000 -0.068270 0
4.280000 -0.067516 0
4.285000 -0.066767 0
4.290000 -0.066020 0
4.295000 -0.065278 0
4.300000 -0.064540 0
4.305000 -0.063805 0
4.310000 -0.063073 0
4.315000 -0.062346 0
4.320000 -0.061621 0
4.325000 -0.060901 0
4.330000 -0.060184 0
4.335000 -0.059469 0
4.340000 -0.058758 0
4.345000 -0.058049 0
4.350000 -0.057342 0
4.355000 -0.056635 0
4.360000 -0.055925 0
4.365000 -0.055208 0
4.370000 -0.054480 0
4.375000 -0.053730 0
4.380000 -0.052945 0
4.385000 -0.052105 0
4.390000 -0.051182 0
4.395000 -0.050134 0
4.400000 -0.048907 0
4.405000 -0.047426 0
4.410000 -0.045597 0
4.415000 -0.043296 0
4.420000 -0.040375 0
4.425000 -0.036653 0
4.430000 -0.031924 0
4.435000 -0.025960 0
4.440000 -0.018519 0
4.445000 -0.009360 0
4.450000 0.001737 0
4.455000 0.014948 0
4.460000 0.030382 0
4.465000 0.048050 0
4.470000 0.067839 0
4.475000 0.089495 0
4.480000 0.112609 0
4.485000 0.136616 0
4.490000 0.160809 0
4.495000 0.184366 0
4.500000 0.206393 0
4.505000 0.225980 0
4.510000 0.242256 0
4.515000 0.254460 0
4.520000 0.261993 0
4.525000 0.264470 1
4.530000 0.261748 0
4.535000 0.253944 0
4.540000 0.241422 0
4.545000 0.224766 0
4.550000 0.204732 0
4.555000 0.182195 0
4.560000 0.158082 0
4.565000 0.133310 0
4.570000 0.108729 0
4.575000 0.085077 0
4.580000 0.062940 0
4.585000 0.042713 0
4.590000 0.024552 0
4.595000 0.008273 0
4.600000 -0.006807 0
4.605000 -0.022071 0
4.610000 -0.039691 0
4.615000 -0.062336 0
4.620000 -0.092215 0
4.625000 -0.129440 0
4.630000 -0.170258 0
4.635000 -0.206118 0
4.640000 -0.224317 2
4.645000 -0.210068 0
4.650000 -0.149085 0
4.655000 -0.030145 0
4.660000 0.151550 0
4.665000 0.389132 0
4.670000 0.658193 0
4.675000 0.915104 0
4.680000 1.105004 0
4.685000 1.179610 3
4.690000 1.117060 0
4.695000 0.931469 0
4.700000 0.665732 0
4.705000 0.374300 0
4.710000 0.105015 0
4.715000 -0.110792 0
4.720000 -0.258906 0
4.725000 -0.338277 0
4.730000 -0.357188 4
4.735000 -0.330561 0
4.740000 -0.276987 0
4.745000 -0.214661 0
4.750000 -0.157359 0
4.755000 -0.112320 0
4.760000 -0.080750 0
4.765000 -0.060097 0
4.770000 -0.046554 0
4.775000 -0.036736 0
4.780000 -0.028303 0
4.785000 -0.019897 0
4.790000 -0.010819 0
4.795000 -0.000730 0
4.800000 0.010540 0
4.805000 0.023085 0
4.810000 0.036963 0
4.815000 0.052204 0
4.820000 0.068812 0
4.825000 0.086763 0
4.830000 0.106001 0
4.835000 0.126437 0
4.840000 0.147942 0
4.845000 0.170352 0
4.850000 0.193466 0
4.855000 0.217045 0
4.860000 0.240817 0
4.865000 0.264482 0
4.870000 0.287713 0
4.875000 0.310171 0
4.880000 0.331503 0
4.885000 0.351357 0
4.890000 0.369392 0
4.895000 0.385281 0
4.900000 0.398730 0
4.905000 0.409477 0
4.910000 0.417307 0
4.915000 0.422055 0
4.920000 0.423616 5
4.925000 0.421942 0
4.930000 0.417050 0
4.935000 0.409016 0
4.940000 0.397977 0
4.945000 0.384127 0
4.950000 0.367708 0
4.955000 0.349003 0
4.960000 0.328332 0
4.965000 0.306037 0
4.970000 0.282478 0
4.975000 0.258016 0
4.980000 0.233012 0
4.985000 0.207813 0
4.990000 0.182745 0
4.995000 0.158109 0
5.000000 0.134172 0
5.005000 0.111166 0
5.010000 0.089284 0
5.015000 0.068681 0
5.020000 0.049472 0
5.025000 0.031734 0
5.030000 0.015511 0
5.035000 0.000812 0
5.040000 -0.012381 0
5.045000 -0.024110 0
5.050000 -0.034436 0
5.055000 -0.043438 0
5.060000 -0.051204 0
5.065000 -0.057831 0
5.070000 -0.063421 0
5.075000 -0.068076 0
5.080000 -0.071897 0
5.085000 -0.074980 0
5.090000 -0.077419 0
5.095000 -0.079300 0
5.100000 -0.080701 0
5.105000 -0.081695 0
5.110000 -0.082345 0
5.115000 -0.082708 0
5.120000 -0.082833 0
5.125000 -0.082763 0
5.130000 -0.082535 0
5.135000 -0.082179 0
5.140000 -0.081722 0
5.145000 -0.081184 0
5.150000 -0.080583 0
5.155000 -0.079933 0
5.160000 -0.079229 0
5.165000 -0.078421 0
5.170000 -0.077617 0
5.175000 -0.076817 0
5.180000 -0.076020 0
5.185000 -0.075228 0
5.190000 -0.074440 0
5.195000 -0.073656 0
5.200000 -0.072875 0
5.205000 -0.072099 0
5.210000 -0.071326 0
5.215000 -0.070557 0
5.220000 -0.069792 0
5.225000 -0.069031 0
5.230000 -0.068274 0
5.235000 -0.067520 0
5.240000 -0.066770 0
5.245000 -0.066024 0
5.250000 -0.065282 0
5.255000 -0.064543 0
5.260000 -0.063808 0
5.265000 -0.063077 0
5.270000 -0.062349 0
5.275000 -0.061624 0
5.280000 -0.060903 0
5.285000 -0.060185 0
5.290000 -0.059470 0
5.295000 -0.058756 0
5.300000 -0.058042 0
5.305000 -0.057328 0
5.310000 -0.056608 0
5.315000 -0.055878 0
5.320000 -0.055129 0
5.325000 -0.054351 0
5.330000 -0.053525 0
5.335000 -0.052625 0
5.340000 -0.051615 0
5.345000 -0.050447 0
5.350000 -0.049052 0
5.355000 -0.047344 0
5.360000 -0.045211 0
5.365000 -0.042514 0
5.370000 -0.039084 0
5.375000 -0.034727 0
5.380000 -0.029223 0
5.385000 -0.022335 0
5.390000 -0.013824 0
5.395000 -0.003462 0
5.400000 0.008945 0
5.405000 0.023533 0
5.410000 0.040352 0
5.415000 0.059340 0
5.420000 0.080303 0
5.425000 0.102896 0
5.430000 0.126621 0
5.435000 0.150833 0
5.440000 0.174758 0
5.445000 0.197538 0
5.450000 0.218269 0
5.455000 0.236066 0
5.460000 0.250120 0
5.465000 0.259763 0
5.470000 0.264515 1
5.475000 0.264126 0
5.480000 0.258596 0
5.485000 0.248178 0
5.490000 0.233353 0
5.495000 0.214798 0
5.500000 0.193333 0
5.505000 0.169857 0
5.510000 0.145292 0
5.515000 0.120518 0
5.520000 0.096326 0
5.525000 0.073372 0
5.530000 0.052148 0
5.535000 0.032937 0
5.540000 0.015744 0
5.545000 0.000170 0
5.550000 -0.014771 0
5.555000 -0.030825 0
5.560000 -0.050445 0
5.565000 -0.076228 0
5.570000 -0.109633 0
5.575000 -0.149221 0
5.580000 -0.189162 0
5.585000 -0.218977 0
5.590000 -0.224871 2
5.595000 -0.192108 0
5.600000 -0.107521 0
5.605000 0.037794 0
5.610000 0.244470 0
5.615000 0.499097 0
5.620000 0.769433 0
5.625000 1.006165 0
5.630000 1.155093 0
5.635000 1.176646 3
5.640000 1.061519 0
5.645000 0.835539 0
5.650000 0.551531 0
5.655000 0.265594 0
5.660000 0.020422 0
5.665000 -0.160413 0
5.670000 -0.269848 0
5.675000 -0.312632 4
5.680000 -0.301883 0
5.685000 -0.256108 0
5.690000 -0.195134 0
5.695000 -0.135403 0
5.700000 -0.086738 0
5.705000 -0.052034 0
5.710000 -0.029368 0
5.715000 -0.014848 0
5.720000 -0.004737 0
5.725000 0.003633 0
5.730000 0.011832 0
5.735000 0.020665 0
5.740000 0.030516 0
5.745000 0.041575 0
5.750000 0.053942 0
5.755000 0.067680 0
5.760000 0.082820 0
5.765000 0.099365 0
5.770000 0.117290 0
5.775000 0.136530 0
5.780000 0.156989 0
5.785000 0.178525 0
5.790000 0.200958 0
5.795000 0.224070 0
5.800000 0.247599 0
5.805000 0.271252 0
5.810000 0.294704 0
5.815000 0.317607 0
5.820000 0.339595 0
5.825000 0.360298 0
5.830000 0.379347 0
5.835000 0.396388 0
5.840000 0.411089 0
5.845000 0.423154 0
5.850000 0.432331 0
5.855000 0.438419 0
5.860000 0.441277 5
5.865000 0.440828 0
5.870000 0.437061 0
5.875000 0.430033 0
5.880000 0.419866 0
5.885000 0.406744 0
5.890000 0.390907 0
5.895000 0.372643 0
5.900000 0.352279 0
5.905000 0.330173 0
5.910000 0.306698 0
5.915000 0.282238 0
5.920000 0.257171 0
5.925000 0.231867 0
5.930000 0.206671 0
5.935000 0.181901 0
5.940000 0.157841 0
5.945000 0.134735 0
5.950000 0.112786 0
5.955000 0.092157 0
5.960000 0.072964 0
5.965000 0.055286 0
5.970000 0.039165 0
5.975000 0.024605 0
5.980000 0.011584 0
5.985000 0.000053 0
5.990000 -0.010057 0
5.995000 -0.018832 0
6.000000 -0.026369 0
6.005000 -0.032770 0
6.010000 -0.038143 0
6.015000 -0.042595 0
6.020000 -0.046232 0
6.025000 -0.049153 0
6.030000 -0.051454 0
6.035000 -0.053221 0
6.040000 -0.054535 0
6.045000 -0.055465 0
6.050000 -0.056076 0
6.055000 -0.056422 0
6.060000 -0.056552 0
6.065000 -0.056505 0
6.070000 -0.056317 0
6.075000 -0.056016 0
6.080000 -0.055626 0
6.085000 -0.055167 0
6.090000 -0.054654 0
6.095000 -0.054101 0
6.100000 -0.053437 0
6.105000 -0.052757 0
6.110000 -0.052081 0
6.115000 -0.051408 0
6.120000 -0.050739 0
6.125000 -0.050073 0
6.130000 -0.049410 0
6.135000 -0.048750 0
6.140000 -0.048094 0
6.145000 -0.047441 0
6.150000 -0.046792 0
6.155000 -0.046145 0
6.160000 -0.045502 0
6.165000 -0.044862 0
6.170000 -0.044225 0
6.175000 -0.043591 0
6.180000 -0.042961 0
6.185000 -0.042334 0
6.190000 -0.041709 0
6.195000 -0.041088 0
6.200000 -0.040470 0
6.205000 -0.039855 0
6.210000 -0.039243 0
6.215000 -0.038633 0
6.220000 -0.038025 0
6.225000 -0.037420 0
6.230000 -0.036814 0
6.235000 -0.036208 0
6.240000 -0.035597 0
6.245000 -0.034978 0
6.250000 -0.034343 0
6.255000 -0.033681 0
6.260000 -0.032976 0
6.265000 -0.032204 0
6.270000 -0.031329 0
6.275000 -0.030304 0
6.280000 -0.029063 0
6.285000 -0.027517 0
6.290000 -0.025555 0
6.295000 -0.023033 0
6.300000 -0.019778 0
6.305000 -0.015587 0
6.310000 -0.010230 0
6.315000 -0.003459 0
6.320000 0.004980 0
6.325000 0.015326 0
6.330000 0.027783 0
6.335000 0.042488 0
6.340000 0.059484 0
6.345000 0.078691 0
6.350000 0.099882 0
6.355000 0.122667 0
6.360000 0.146489 0
6.365000 0.170635 0
6.370000 0.194264 0
6.375000 0.216452 0
6.380000 0.236246 0
6.385000 0.252734 0
6.390000 0.265108 0
6.395000 0.272734 0
6.400000 0.275203 1
6.405000 0.272363 0
6.410000 0.264339 0
6.415000 0.251517 0
6.420000 0.234518 0
6.425000 0.214142 0
6.430000 0.191309 0
6.435000 0.166988 0
6.440000 0.142128 0
6.445000 0.117602 0
6.450000 0.094151 0
6.455000 0.072349 0
6.460000 0.052559 0
6.465000 0.034866 0
6.470000 0.018957 0
6.475000 0.003926 0
6.480000 -0.011930 0
6.485000 -0.031112 0
6.490000 -0.056382 0
6.495000 -0.089437 0
6.500000 -0.128977 0
6.505000 -0.169014 0
6.510000 -0.198535 0
6.515000 -0.202966 2
6.520000 -0.166812 0
6.525000 -0.076441 0
6.530000 0.076856 0
6.535000 0.292174 0
6.540000 0.552518 0
6.545000 0.820238 0
6.550000 1.040975 0
6.555000 1.159420 3
6.560000 1.141442 0
6.565000 0.989491 0
6.570000 0.740766 0
6.575000 0.450900 0
6.580000 0.173078 0
6.585000 -0.055558 0
6.590000 -0.216646 0
6.595000 -0.306858 0
6.600000 -0.333479 4
6.605000 -0.311313 0
6.610000 -0.259555 0
6.615000 -0.197456 0
6.620000 -0.139839 0
6.625000 -0.094603 0
6.630000 -0.063140 0
6.635000 -0.042791 0
6.640000 -0.029576 0
6.645000 -0.019998 0
6.650000 -0.011690 0
6.655000 -0.003308 0
6.660000 0.005822 0
6.665000 0.016022 0
6.670000 0.027453 0
6.675000 0.040204 0
6.680000 0.054330 0
6.685000 0.069857 0
6.690000 0.086781 0
6.695000 0.105068 0
6.700000 0.124650 0
6.705000 0.145419 0
6.710000 0.167229 0
6.715000 0.189892 0
6.720000 0.213183 0
6.725000 0.236836 0
6.730000 0.260553 0
6.735000 0.284006 0
6.740000 0.306845 0
6.745000 0.328707 0
6.750000 0.349221 0
6.755000 0.368023 0
6.760000 0.384765 0
6.765000 0.399123 0
6.770000 0.410809 0
6.775000 0.419579 0
6.780000 0.425244 0
6.785000 0.427673 5
6.790000 0.426799 0
6.795000 0.422622 0
6.800000 0.415207 0
6.805000 0.404685 0
6.810000 0.391248 0
6.815000 0.375140 0
6.820000 0.356653 0
6.825000 0.336117 0
6.830000 0.313890 0
6.835000 0.290345 0
6.840000 0.265862 0
6.845000 0.240818 0
6.850000 0.215577 0
6.855000 0.190480 0
6.860000 0.165838 0
6.865000 0.141931 0
6.870000 0.118997 0
6.875000 0.097234 0
6.880000 0.076798 0
6.885000 0.057803 0
6.890000 0.040323 0
6.895000 0.024396 0
6.900000 0.010025 0
6.905000 -0.002816 0
6.910000 -0.014175 0
6.915000 -0.024125 0
6.920000 -0.032750 0
6.925000 -0.040146 0
6.930000 -0.046417 0
6.935000 -0.051670 0
6.940000 -0.056011 0
6.945000 -0.059545 0
6.950000 -0.062370 0
6.955000 -0.064582 0
6.960000 -0.066265 0
6.965000 -0.067498 0
6.970000 -0.068353 0
6.975000 -0.068891 0
6.980000 -0.069167 0
6.985000 -0.069229 0
6.990000 -0.069116 0
6.995000 -0.068863 0
7.000000 -0.068498 0
7.005000 -0.068045 0
7.010000 -0.067523 0
7.015000 -0.066948 0
7.020000 -0.066334 0
7.025000 -0.065609 0
7.030000 -0.064868 0
7.035000 -0.064132 0
7.040000 -0.063399 0
7.045000 -0.062670 0
7.050000 -0.061944 0
7.055000 -0.061222 0
7.060000 -0.060504 0
7.065000 -0.059789 0
7.070000 -0.059078 0
7.075000 -0.058370 0
7.080000 -0.057666 0
7.085000 -0.056965 0
7.090000 -0.056268 0
7.095000 -0.055574 0
7.100000 -0.054884 0
7.105000 -0.054197 0
7.110000 -0.053514 0
7.115000 -0.052834 0
7.120000 -0.052157 0
7.125000 -0.051484 0
7.130000 -0.050814 0
7.135000 -0.050147 0
7.140000 -0.049483 0
7.145000 -0.048821 0
7.150000 -0.048162 0
7.155000 -0.047503 0
7.160000 -0.046844 0
7.165000 -0.046181 0
7.170000 -0.045510 0
7.175000 -0.044825 0
7.180000 -0.044115 0
7.185000 -0.043363 0
7.190000 -0.042548 0
7.195000 -0.041636 0
7.200000 -0.040581 0
7.205000 -0.039318 0
7.210000 -0.037765 0
7.215000 -0.035812 0
7.220000 -0.033321 0
7.225000 -0.030124 0
7.230000 -0.026023 0
7.235000 -0.020792 0
7.240000 -0.014187 0
7.245000 -0.005956 0
7.250000 0.004143 0
7.255000 0.016318 0
7.260000 0.030719 0
7.265000 0.047404 0
7.270000 0.066314 0
7.275000 0.087249 0
7.280000 0.109847 0
7.285000 0.133583 0
7.290000 0.157774 0
7.295000 0.181602 0
7.300000 0.204162 0
7.305000 0.224506 0
7.310000 0.241715 0
7.315000 0.254963 0
7.320000 0.263583 0
7.325000 0.267121 1
7.330000 0.265376 0
7.335000 0.258415 0
7.340000 0.246574 0
7.345000 0.230425 0
7.350000 0.210729 0
7.355000 0.188383 0
7.360000 0.164344 0
7.365000 0.139565 0
7.370000 0.114934 0
7.375000 0.091222 0
7.380000 0.069039 0
7.385000 0.048800 0
7.390000 0.030661 0
7.395000 0.014421 0
7.400000 -0.000659 0
7.405000 -0.016064 0
7.410000 -0.034105 0
7.415000 -0.057557 0
7.420000 -0.088541 0
7.425000 -0.126721 0
7.430000 -0.167462 0
7.435000 -0.201063 0
7.440000 -0.213757 2
7.445000 -0.190114 0
7.450000 -0.115811 0
7.455000 0.019525 0
7.460000 0.218270 0
7.465000 0.468709 0
7.470000 0.739385 0
7.475000 0.979966 0
7.480000 1.133566 0
7.485000 1.157789 3
7.490000 1.044430 0
7.495000 0.822299 0
7.500000 0.540608 0
7.505000 0.252650 0
7.510000 0.000356 0
7.515000 -0.191744 0
7.520000 -0.314801 0
7.525000 -0.371441 0
7.530000 -0.372470 4
7.535000 -0.334332 0
7.540000 -0.275807 0
7.545000 -0.213828 0
7.550000 -0.159990 0
7.555000 -0.119326 0
7.560000 -0.091535 0
7.565000 -0.073443 0
7.570000 -0.061283 0
7.575000 -0.051997 0
7.580000 -0.043589 0
7.585000 -0.034948 0
7.590000 -0.025512 0
7.595000 -0.015011 0
7.600000 -0.003302 0
7.605000 0.009694 0
7.610000 0.024026 0
7.615000 0.039718 0
7.620000 0.056767 0
7.625000 0.075140 0
7.630000 0.094774 0
7.635000 0.115571 0
7.640000 0.137394 0
7.645000 0.160072 0
7.650000 0.183396 0
7.655000 0.207122 0
7.660000 0.230974 0
7.665000 0.254647 0
7.670000 0.277815 0
7.675000 0.300137 0
7.680000 0.321264 0
7.685000 0.340849 0
7.690000 0.358555 0
7.695000 0.374066 0
7.700000 0.387093 0
7.705000 0.397388 0
7.710000 0.404744 0
7.715000 0.409011 0
7.720000 0.410091 5
7.725000 0.407951 0
7.730000 0.402614 0
7.735000 0.394168 0
7.740000 0.382757 0
7.745000 0.368581 0
7.750000 0.351886 0
7.755000 0.332959 0
7.760000 0.312120 0
7.765000 0.289710 0
7.770000 0.266087 0
7.775000 0.241610 0
7.780000 0.216634 0
7.785000 0.191502 0
7.790000 0.166534 0
7.795000 0.142024 0
7.800000 0.118235 0
7.805000 0.095392 0
7.810000 0.073683 0
7.815000 0.053259 0
7.820000 0.034229 0
7.825000 0.016668 0
7.830000 0.000616 0
7.835000 -0.013919 0
7.840000 -0.026956 0
7.845000 -0.038539 0
7.850000 -0.048730 0
7.855000 -0.057607 0
7.860000 -0.065258 0
7.865000 -0.071779 0
7.870000 -0.077271 0
7.875000 -0.081836 0
7.880000 -0.085572 0
7.885000 -0.088577 0
7.890000 -0.090942 0
7.895000 -0.092752 0
7.900000 -0.094085 0
7.905000 -0.095013 0
7.910000 -0.095599 0
7.915000 -0.095899 0
7.920000 -0.095962 0
7.925000 -0.095831 0
7.930000 -0.095541 0
7.935000 -0.095124 0
7.940000 -0.094605 0
7.945000 -0.094006 0
7.950000 -0.093344 0
7.955000 -0.092633 0
7.960000 -0.091867 0
7.965000 -0.090996 0
7.970000 -0.090129 0
7.975000 -0.089266 0
7.980000 -0.088408 0
7.985000 -0.087554 0
7.990000 -0.086704 0
7.995000 -0.085859 0
8.000000 -0.085018 0
8.005000 -0.084180 0
8.010000 -0.083348 0
8.015000 -0.082519 0
8.020000 -0.081694 0
8.025000 -0.080874 0
8.030000 -0.080057 0
8.035000 -0.079245 0
8.040000 -0.078437 0
8.045000 -0.077632 0
8.050000 -0.076832 0
8.055000 -0.076036 0
8.060000 -0.075243 0
8.065000 -0.074455 0
8.070000 -0.073670 0
8.075000 -0.072890 0
8.080000 -0.072112 0
8.085000 -0.071338 0
8.090000 -0.070567 0
8.095000 -0.069799 0
8.100000 -0.069031 0
8.105000 -0.068262 0
8.110000 -0.067490 0
8.115000 -0.066709 0
8.120000 -0.065912 0
8.125000 -0.065088 0
8.130000 -0.064221 0
8.135000 -0.063288 0
8.140000 -0.062254 0
8.145000 -0.061075 0
8.150000 -0.059689 0
8.155000 -0.058013 0
8.160000 -0.055943 0
8.165000 -0.053348 0
8.170000 -0.050069 0
8.175000 -0.045919 0
8.180000 -0.040686 0
8.185000 -0.034139 0
8.190000 -0.026041 0
8.195000 -0.016159 0
8.200000 -0.004291 0
8.205000 0.009717 0
8.210000 0.025941 0
8.215000 0.044354 0
8.220000 0.064804 0
8.225000 0.086995 0
8.230000 0.110479 0
8.235000 0.134660 0
8.240000 0.158808 0
8.245000 0.182095 0
8.250000 0.203634 0
8.255000 0.222534 0
8.260000 0.237965 0
8.265000 0.249209 0
8.270000 0.255724 0
8.275000 0.257181 1
8.280000 0.253492 0
8.285000 0.244819 0
8.290000 0.231562 0
8.295000 0.214328 0
8.300000 0.193883 0
8.305000 0.171095 0
8.310000 0.146878 0
8.315000 0.122124 0
8.320000 0.097658 0
8.325000 0.074185 0
8.330000 0.052263 0
8.335000 0.032259 0
8.340000 0.014302 0
8.345000 -0.001819 0
8.350000 -0.016817 0
8.355000 -0.032092 0
8.360000 -0.049811 0
8.365000 -0.072598 0
8.370000 -0.102588 0
8.375000 -0.139833 0
8.380000 -0.180607 0
8.385000 -0.216515 0
8.390000 -0.235120 2
8.395000 -0.221930 0
8.400000 -0.162882 0
8.405000 -0.046800 0
8.410000 0.131426 0
8.415000 0.365887 0
8.420000 0.633917 0
8.425000 0.894006 0
8.430000 1.092670 0
8.435000 1.181004 3
8.440000 1.133412 0
8.445000 0.958863 0
8.450000 0.698482 0
8.455000 0.407191 0
8.460000 0.134635 0
8.465000 -0.085922 0
8.470000 -0.238871 0
8.475000 -0.322368 0
8.480000 -0.344308 4
8.485000 -0.319515 0
8.490000 -0.266738 0
8.495000 -0.204518 0
8.500000 -0.147020 0
8.505000 -0.101765 0
8.510000 -0.070085 0
8.515000 -0.049428 0
8.520000 -0.035941 0
8.525000 -0.026192 0
8.530000 -0.017819 0
8.535000 -0.009455 0
8.540000 -0.000402 0
8.545000 0.009676 0
8.550000 0.020949 0
8.555000 0.033509 0
8.560000 0.047415 0
8.565000 0.062694 0
8.570000 0.079350 0
8.575000 0.097356 0
8.580000 0.116654 0
8.585000 0.137147 0
8.590000 0.158705 0
8.595000 0.181157 0
8.600000 0.204294 0
8.605000 0.227870 0
8.610000 0.251606 0
8.615000 0.275194 0
8.620000 0.298302 0
8.625000 0.320581 0
8.630000 0.341674 0
8.635000 0.361226 0
8.640000 0.378892 0
8.645000 0.394346 0
8.650000 0.407293 0
8.655000 0.417478 0
8.660000 0.424689 0
8.665000 0.428773 0
8.670000 0.429633 5
8.675000 0.427234 0
8.680000 0.421606 0
8.685000 0.412841 0
8.690000 0.401090 0
8.695000 0.386563 0
8.700000 0.369514 0
8.705000 0.350243 0
8.710000 0.329079 0
8.715000 0.306374 0
8.720000 0.282495 0
8.725000 0.257809 0
8.730000 0.232679 0
8.735000 0.207450 0
8.740000 0.182447 0
8.745000 0.157965 0
8.750000 0.134263 0
8.755000 0.111565 0
8.760000 0.090053 0
8.765000 0.069873 0
8.770000 0.051126 0
8.775000 0.033879 0
8.780000 0.018163 0
8.785000 0.003979 0
8.790000 -0.008702 0
8.795000 -0.019931 0
8.800000 -0.029776 0
8.805000 -0.038321 0
8.810000 -0.045661 0
8.815000 -0.051894 0
8.820000 -0.057126 0
8.825000 -0.061458 0
8.830000 -0.064993 0
8.835000 -0.067826 0
8.840000 -0.070050 0
8.845000 -0.071747 0
8.850000 -0.072995 0
8.855000 -0.073863 0
8.860000 -0.074412 0
8.865000 -0.074697 0
8.870000 -0.074763 0
8.875000 -0.074652 0
8.880000 -0.074396 0
8.885000 -0.074026 0
8.890000 -0.073564 0
8.895000 -0.073031 0
8.900000 -0.072442 0
8.905000 -0.071811 0
8.910000 -0.071060 0
8.915000 -0.070293 0
8.920000 -0.069529 0
8.925000 -0.068769 0
8.930000 -0.068013 0
8.935000 -0.067261 0
8.940000 -0.066513 0
8.945000 -0.065768 0
8.950000 -0.065027 0
8.955000 -0.064289 0
8.960000 -0.063556 0
8.965000 -0.062826 0
8.970000 -0.062099 0
8.975000 -0.061376 0
8.980000 -0.060657 0
8.985000 -0.059942 0
8.990000 -0.059230 0
8.995000 -0.058521 0
9.000000 -0.057816 0
9.005000 -0.057115 0
9.010000 -0.056417 0
9.015000 -0.055722 0
9.020000 -0.055031 0
9.025000 -0.054343 0
9.030000 -0.053657 0
9.035000 -0.052975 0
9.040000 -0.052294 0
9.045000 -0.051614 0
9.050000 -0.050933 0
9.055000 -0.050247 0
9.060000 -0.049553 0
9.065000 -0.048843 0
9.070000 -0.048105 0
9.075000 -0.047324 0
9.080000 -0.046475 0
9.085000 -0.045525 0
9.090000 -0.044427 0
9.095000 -0.043117 0
9.100000 -0.041510 0
9.105000 -0.039499 0
9.110000 -0.036948 0
9.115000 -0.033693 0
9.120000 -0.029539 0
9.125000 -0.024269 0
9.130000 -0.017644 0
9.135000 -0.009422 0
9.140000 0.000633 0
9.145000 0.012724 0
9.150000 0.026997 0
9.155000 0.043516 0
9.160000 0.062234 0
9.165000 0.082970 0
9.170000 0.105393 0
9.175000 0.129012 0
9.180000 0.153186 0
9.185000 0.177145 0
9.190000 0.200019 0
9.195000 0.220897 0
9.200000 0.238876 0
9.205000 0.253131 0
9.210000 0.262975 0
9.215000 0.267911 1
9.220000 0.267676 0
9.225000 0.262262 0
9.230000 0.251916 0
9.235000 0.237124 0
9.240000 0.218570 0
9.245000 0.197083 0
9.250000 0.173575 0
9.255000 0.148981 0
9.260000 0.124191 0
9.265000 0.100004 0
9.270000 0.077083 0
9.275000 0.055918 0
9.280000 0.036786 0
9.285000 0.019675 0
9.290000 0.004153 0
9.295000 -0.010826 0
9.300000 -0.027088 0
9.305000 -0.047160 0
9.310000 -0.073635 0
9.315000 -0.107800 0
9.320000 -0.147807 0
9.325000 -0.187238 0
9.330000 -0.214999 0
9.335000 -0.216858 2
9.340000 -0.177942 0
9.345000 -0.085307 0
9.350000 0.069192 0
9.355000 0.284495 0
9.360000 0.544292 0
9.365000 0.812756 0
9.370000 1.037939 0
9.375000 1.166007 3
9.380000 1.161634 0
9.385000 1.023297 0
9.390000 0.783891 0
9.395000 0.496308 0
9.400000 0.213548 0
9.405000 -0.025486 0
9.410000 -0.200013 0
9.415000 -0.304430 0
9.420000 -0.343978 4
9.425000 -0.331640 0
9.430000 -0.285366 0
9.435000 -0.224258 0
9.440000 -0.164195 0
9.445000 -0.114809 0
9.450000 -0.079136 0
9.455000 -0.055514 0
9.460000 -0.040249 0
9.465000 -0.029664 0
9.470000 -0.021054 0
9.475000 -0.012781 0
9.480000 -0.003980 0
9.485000 0.005770 0
9.490000 0.016675 0
9.495000 0.028845 0
9.500000 0.042346 0
9.505000 0.057216 0
9.510000 0.073465 0
9.515000 0.091076 0
9.520000 0.110000 0
9.525000 0.130154 0
9.530000 0.151415 0
9.535000 0.173625 0
9.540000 0.196587 0
9.545000 0.220064 0
9.550000 0.243788 0
9.555000 0.267457 0
9.560000 0.290746 0
9.565000 0.313310 0
9.570000 0.334793 0
9.575000 0.354838 0
9.580000 0.373096 0
9.585000 0.389233 0
9.590000 0.402945 0
9.595000 0.413963 0
9.600000 0.422064 0
9.605000 0.427074 0
9.610000 0.428880 5
9.615000 0.427430 0
9.620000 0.422734 0
9.625000 0.414866 0
9.630000 0.403962 0
9.635000 0.390214 0
9.640000 0.373866 0
9.645000 0.355205 0
9.650000 0.334552 0
9.655000 0.312255 0
9.660000 0.288677 0
9.665000 0.264188 0
9.670000 0.239152 0
9.675000 0.213921 0
9.680000 0.188826 0
9.685000 0.164171 0
9.690000 0.140227 0
9.695000 0.117228 0
9.700000 0.095369 0
9.705000 0.074804 0
9.710000 0.055648 0
9.715000 0.037978 0
9.720000 0.021835 0
9.725000 0.007226 0
9.730000 -0.005868 0
9.735000 -0.017493 0
9.740000 -0.027713 0
9.745000 -0.036608 0
9.750000 -0.044270 0
9.755000 -0.050798 0
9.760000 -0.056294 0
9.765000 -0.060862 0
9.770000 -0.064604 0
9.775000 -0.067619 0
9.780000 -0.069999 0
9.785000 -0.071830 0
9.790000 -0.073192 0
9.795000 -0.074155 0
9.800000 -0.074783 0
9.805000 -0.075132 0
9.810000 -0.075251 0
9.815000 -0.075182 0
9.820000 -0.074961 0
9.825000 -0.074617 0
9.830000 -0.074175 0
9.835000 -0.073657 0
9.840000 -0.073080 0
9.845000 -0.072456 0
9.850000 -0.071781 0
9.855000 -0.071010 0
9.860000 -0.070243 0
9.865000 -0.069480 0
9.870000 -0.068720 0
9.875000 -0.067964 0
9.880000 -0.067212 0
9.885000 -0.066464 0
9.890000 -0.065719 0
9.895000 -0.064978 0
9.900000 -0.064241 0
9.905000 -0.063508 0
9.910000 -0.062778 0
9.915000 -0.062052 0
9.920000 -0.061329 0
9.925000 -0.060610 0
9.930000 -0.059895 0
9.935000 -0.059183 0
9.940000 -0.058475 0
9.945000 -0.057770 0
9.950000 -0.057069 0
9.955000 -0.056371 0
9.960000 -0.055677 0
9.965000 -0.054985 0
9.970000 -0.054297 0
9.975000 -0.053612 0
9.980000 -0.052928 0
9.985000 -0.052246 0
9.990000 -0.051563 0
9.995000 -0.050877 0
10.000000 -0.050183 0
10.005000 -0.049475 0
10.010000 -0.048744 0
10.015000 -0.047973 0
10.020000 -0.047142 0
10.025000 -0.046220 0
10.030000 -0.045162 0
10.035000 -0.043910 0
10.040000 -0.042385 0
10.045000 -0.040485 0
10.050000 -0.038082 0
10.055000 -0.035018 0
10.060000 -0.031106 0
10.065000 -0.026134 0
10.070000 -0.019868 0
10.075000 -0.012063 0
10.080000 -0.002481 0
10.085000 0.009091 0
10.090000 0.022816 0
10.095000 0.038783 0
10.100000 0.056972 0
10.105000 0.077239 0
10.110000 0.099289 0
10.115000 0.122671 0
10.120000 0.146779 0
10.125000 0.170870 0
10.130000 0.194094 0
10.135000 0.215545 0
10.140000 0.234310 0
10.145000 0.249540 0
10.150000 0.260508 0
10.155000 0.266666 0
10.160000 0.267691 1
10.165000 0.263512 0
10.170000 0.254318 0
10.175000 0.240539 0
10.180000 0.222817 0
10.185000 0.201952 0
10.190000 0.178843 0
10.195000 0.154426 0
10.200000 0.129608 0
10.205000 0.105215 0
10.210000 0.081945 0
10.215000 0.060334 0
10.220000 0.040713 0
10.225000 0.023150 0
10.230000 0.007324 0
10.235000 -0.007647 0
10.240000 -0.023401 0
10.245000 -0.042336 0
10.250000 -0.067126 0
10.255000 -0.099520 0
10.260000 -0.138560 0
10.265000 -0.178953 0
10.270000 -0.210598 0
10.275000 -0.219774 2
10.280000 -0.191509 0
10.285000 -0.112174 0
10.290000 0.027801 0
10.295000 0.229968 0
10.300000 0.482030 0
10.305000 0.752662 0
10.310000 0.992680 0
10.315000 1.146906 0
10.320000 1.174050 3
10.325000 1.061384 0
10.330000 0.835771 0
10.335000 0.551485 0
10.340000 0.266181 0
10.345000 0.023329 0
10.350000 -0.153567 0
10.355000 -0.258021 0
10.360000 -0.295631 4
10.365000 -0.280510 0
10.370000 -0.232064 0
10.375000 -0.170535 0
10.380000 -0.112082 0
10.385000 -0.065724 0
10.390000 -0.033456 0
10.395000 -0.012740 0
10.400000 0.000526 0
10.405000 0.009999 0
10.410000 0.018160 0
10.415000 0.026403 0
10.420000 0.035421 0
10.425000 0.045540 0
10.430000 0.056922 0
10.435000 0.069655 0
10.440000 0.083795 0
10.445000 0.099363 0
10.450000 0.116354 0
10.455000 0.134727 0
10.460000 0.154404 0
10.465000 0.175267 0
10.470000 0.197156 0
10.475000 0.219868 0
10.480000 0.243158 0
10.485000 0.266742 0
10.490000 0.290302 0
10.495000 0.313490 0
10.500000 0.335938 0
10.505000 0.357265 0
10.510000 0.377089 0
10.515000 0.395037 0
10.520000 0.410755 0
10.525000 0.423921 0
10.530000 0.434254 0
10.535000 0.441527 0
10.540000 0.445569 0
10.545000 0.446274 5
10.550000 0.443608 0
10.555000 0.437605 0
10.560000 0.428369 0
10.565000 0.416070 0
10.570000 0.400939 0
10.575000 0.383260 0
10.580000 0.363359 0
10.585000 0.341598 0
10.590000 0.318360 0
10.595000 0.294036 0
10.600000 0.269021 0
10.605000 0.243696 0
10.610000 0.218422 0
10.615000 0.193532 0
10.620000 0.169324 0
10.625000 0.146054 0
10.630000 0.123939 0
10.635000 0.103146 0
10.640000 0.083804 0
10.645000 0.065995 0
10.650000 0.049763 0
10.655000 0.035115 0
10.660000 0.022030 0
10.665000 0.010456 0
10.670000 0.000322 0
10.675000 -0.008459 0
10.680000 -0.015988 0
10.685000 -0.022371 0
10.690000 -0.027719 0
10.695000 -0.032142 0
10.700000 -0.035748 0
10.705000 -0.038640 0
10.710000 -0.040914 0
10.715000 -0.042659 0
10.720000 -0.043955 0
10.725000 -0.044875 0
10.730000 -0.045482 0
10.735000 -0.045831 0
10.740000 -0.045969 0
10.745000 -0.045937 0
10.750000 -0.045769 0
10.755000 -0.045494 0
10.760000 -0.045134 0
10.765000 -0.044708 0
10.770000 -0.044232 0
10.775000 -0.043701 0
10.780000 -0.043070 0
10.785000 -0.042442 0
10.790000 -0.041818 0
10.795000 -0.041196 0
10.800000 -0.040577 0
10.805000 -0.039962 0
10.810000 -0.039350 0
10.815000 -0.038740 0
10.820000 -0.038134 0
10.825000 -0.037531 0
10.830000 -0.036931 0
10.835000 -0.036333 0
10.840000 -0.035739 0
10.845000 -0.035148 0
10.850000 -0.034559 0
10.855000 -0.033974 0
10.860000 -0.033391 0
10.865000 -0.032812 0
10.870000 -0.032235 0
10.875000 -0.031661 0
10.880000 -0.031090 0
10.885000 -0.030521 0
10.890000 -0.029955 0
10.895000 -0.029391 0
10.900000 -0.028829 0
10.905000 -0.028268 0
10.910000 -0.027705 0
10.915000 -0.027139 0
10.920000 -0.026565 0
10.925000 -0.025977 0
10.930000 -0.025363 0
10.935000 -0.024710 0
10.940000 -0.023992 0
10.945000 -0.023177 0
10.950000 -0.022217 0
10.955000 -0.021046 0
10.960000 -0.019578 0
10.965000 -0.017698 0
10.970000 -0.015262 0
10.975000 -0.012095 0
10.980000 -0.007989 0
10.985000 -0.002707 0
10.990000 0.004006 0
10.995000 0.012410 0
11.000000 0.022754 0
11.005000 0.035246 0
11.010000 0.050024 0
11.015000 0.067127 0
11.020000 0.086466 0
11.025000 0.107793 0
11.030000 0.130690 0
11.035000 0.154566 0
11.040000 0.178668 0
11.045000 0.202116 0
11.050000 0.223948 0
11.055000 0.243185 0
11.060000 0.258902 0
11.065000 0.270296 0
11.070000 0.276760 0
11.075000 0.277929 1
11.080000 0.273715 0
11.085000 0.264318 0
11.090000 0.250205 0
11.095000 0.232075 0
11.100000 0.210797 0
11.105000 0.187341 0
11.110000 0.162707 0
11.115000 0.137851 0
11.120000 0.113628 0
11.125000 0.090742 0
11.130000 0.069704 0
11.135000 0.050781 0
11.140000 0.033908 0
11.145000 0.018520 0
11.150000 0.003331 0
11.155000 -0.013823 0
11.160000 -0.035762 0
11.165000 -0.065001 0
11.170000 -0.101954 0
11.175000 -0.142873 0
11.180000 -0.178694 0
11.185000 -0.195737 2
11.190000 -0.178090 0
11.195000 -0.110584 0
11.200000 0.018201 0
11.205000 0.211801 0
11.210000 0.459527 0
11.215000 0.730165 0
11.220000 0.972302 0
11.225000 1.126960 0
11.230000 1.150001 3
11.235000 1.036145 0
11.240000 0.813874 0
11.245000 0.532225 0
11.250000 0.244260 0
11.255000 -0.008234 0
11.260000 -0.200756 0
11.265000 -0.324406 0
11.270000 -0.381711 0
11.275000 -0.383350 4
11.280000 -0.345638 0
11.285000 -0.287267 0
11.290000 -0.225168 0
11.295000 -0.171012 0
11.300000 -0.129955 0
11.305000 -0.101799 0
11.310000 -0.083428 0
11.315000 -0.071085 0
11.320000 -0.061693 0
11.325000 -0.053231 0
11.330000 -0.044565 0
11.335000 -0.035122 0
11.340000 -0.024624 0
11.345000 -0.012927 0
11.350000 0.000051 0
11.355000 0.014361 0
11.360000 0.030026 0
11.365000 0.047045 0
11.370000 0.065389 0
11.375000 0.084994 0
11.380000 0.105765 0
11.385000 0.127570 0
11.390000 0.150240 0
11.395000 0.173569 0
11.400000 0.197316 0
11.405000 0.221209 0
11.410000 0.244946 0
11.415000 0.268204 0
11.420000 0.290645 0
11.425000 0.311921 0
11.430000 0.331686 0
11.435000 0.349605 0
11.440000 0.365359 0
11.445000 0.378659 0
11.450000 0.389252 0
11.455000 0.396932 0
11.460000 0.401540 0
11.465000 0.402976 5
11.470000 0.401199 0
11.475000 0.396227 0
11.480000 0.388141 0
11.485000 0.377079 0
11.490000 0.363233 0
11.495000 0.346844 0
11.500000 0.328194 0
11.505000 0.307597 0
11.510000 0.285393 0
11.515000 0.261934 0
11.520000 0.237579 0
11.525000 0.212683 0
11.530000 0.187588 0
11.535000 0.162617 0
11.540000 0.138066 0
11.545000 0.114201 0
11.550000 0.091252 0
11.555000 0.069410 0
11.560000 0.048832 0
11.565000 0.029631 0
11.570000 0.011888 0
11.575000 -0.004354 0
11.580000 -0.019081 0
11.585000 -0.032310 0
11.590000 -0.044080 0
11.595000 -0.054450 0
11.600000 -0.063495 0
11.605000 -0.071303 0
11.610000 -0.077968 0
11.615000 -0.083589 0
11.620000 -0.088268 0
11.625000 -0.092103 0
11.630000 -0.095193 0
11.635000 -0.097629 0
11.640000 -0.099497 0
11.645000 -0.100876 0
11.650000 -0.101838 0
11.655000 -0.102448 0
11.660000 -0.102763 0
11.665000 -0.102833 0
11.670000 -0.102702 0
11.675000 -0.102407 0
11.680000 -0.101979 0
11.685000 -0.101444 0
11.690000 -0.100826 0
11.695000 -0.100142 0
11.700000 -0.099407 0
11.705000 -0.098633 0
11.710000 -0.097748 0
11.715000 -0.096847 0
11.720000 -0.095951 0
11.725000 -0.095059 0
11.730000 -0.094172 0
11.735000 -0.093289 0
11.740000 -0.092411 0
11.745000 -0.091537 0
11.750000 -0.090667 0
11.755000 -0.089802 0
11.760000 -0.088941 0
11.765000 -0.088085 0
11.770000 -0.087232 0
11.775000 -0.086384 0
11.780000 -0.085540 0
11.785000 -0.084700 0
11.790000 -0.083865 0
11.795000 -0.083034 0
11.800000 -0.082206 0
11.805000 -0.081383 0
11.810000 -0.080564 0
11.815000 -0.079749 0
11.820000 -0.078938 0
11.825000 -0.078131 0
11.830000 -0.077327 0
11.835000 -0.076527 0
11.840000 -0.075729 0
11.845000 -0.074932 0
11.850000 -0.074136 0
11.855000 -0.073337 0
11.860000 -0.072530 0
11.865000 -0.071711 0
11.870000 -0.070868 0
11.875000 -0.069988 0
11.880000 -0.069049 0
11.885000 -0.068021 0
11.890000 -0.066863 0
11.895000 -0.065518 0
11.900000 -0.063910 0
11.905000 -0.061944 0
11.910000 -0.059495 0
11.915000 -0.056415 0
11.920000 -0.052526 0
11.925000 -0.047623 0
11.930000 -0.041482 0
11.935000 -0.033866 0
11.940000 -0.024542 0
11.945000 -0.013296 0
11.950000 0.000044 0
11.955000 0.015579 0
11.960000 0.033320 0
11.965000 0.053158 0
11.970000 0.074845 0
11.975000 0.097985 0
11.980000 0.122032 0
11.985000 0.146302 0
11.990000 0.169998 0
11.995000 0.192251 0
12.000000 0.212170 0
12.005000 0.228900 0
12.010000 0.241682 0
12.015000 0.249910 0
12.020000 0.253179 1
12.025000 0.251316 0
12.030000 0.244395 0
12.035000 0.232733 0
12.040000 0.216865 0
12.045000 0.197503 0
12.050000 0.175483 0
12.055000 0.151703 0
12.060000 0.127067 0
12.065000 0.102425 0
12.070000 0.078530 0
12.075000 0.055994 0
12.080000 0.035260 0
12.085000 0.016552 0
12.090000 -0.000195 0
12.095000 -0.015478 0
12.100000 -0.030407 0
12.105000 -0.046855 0
12.110000 -0.067331 0
12.115000 -0.094308 0
12.120000 -0.128869 0
12.125000 -0.168961 0
12.130000 -0.208090 0
12.135000 -0.235304 0
12.140000 -0.236708 2
12.145000 -0.197832 0
12.150000 -0.106073 0
12.155000 0.046608 0
12.160000 0.259546 0
12.165000 0.517660 0
12.170000 0.787186 0
12.175000 1.018327 0
12.180000 1.158054 0
12.185000 1.169342 3
12.190000 1.045296 0
12.195000 0.814766 0
12.200000 0.529707 0
12.205000 0.244285 0
12.210000 -0.000500 0
12.215000 -0.181931 0
12.220000 -0.293052 0
12.225000 -0.338238 4
12.230000 -0.329929 0
12.235000 -0.285869 0
12.240000 -0.225352 0
12.245000 -0.164773 0
12.250000 -0.114387 0
12.255000 -0.077717 0
12.260000 -0.053357 0
12.265000 -0.037659 0
12.270000 -0.026878 0
12.275000 -0.018219 0
12.280000 -0.009972 0
12.285000 -0.001231 0
12.290000 0.008445 0
12.295000 0.019273 0
12.300000 0.031365 0
12.305000 0.044791 0
12.310000 0.059588 0
12.315000 0.075770 0
12.320000 0.093319 0
12.325000 0.112188 0
12.330000 0.132294 0
12.335000 0.153514 0
12.340000 0.175692 0
12.345000 0.198628 0
12.350000 0.222087 0
12.355000 0.245797 0
12.360000 0.269458 0
12.365000 0.292740 0
12.370000 0.315297 0
12.375000 0.336772 0
12.380000 0.356805 0
12.385000 0.375044 0
12.390000 0.391155 0
12.395000 0.404831 0
12.400000 0.415801 0
12.405000 0.423842 0
12.410000 0.428782 0
12.415000 0.430506 5
12.420000 0.428962 0
12.425000 0.424165 0
12.430000 0.416189 0
12.435000 0.405173 0
12.440000 0.391313 0
12.445000 0.374854 0
12.450000 0.356089 0
12.455000 0.335341 0
12.460000 0.312961 0
12.465000 0.289316 0
12.470000 0.264776 0
12.475000 0.239708 0
12.480000 0.214465 0
12.485000 0.189380 0
12.490000 0.164754 0
12.495000 0.140859 0
12.500000 0.117928 0
12.505000 0.096152 0
12.510000 0.075686 0
12.515000 0.056640 0
12.520000 0.039089 0
12.525000 0.023071 0
12.530000 0.008592 0
12.535000 -0.004372 0
12.540000 -0.015867 0
12.545000 -0.025961 0
12.550000 -0.034735 0
12.555000 -0.042283 0
12.560000 -0.048704 0
12.565000 -0.054102 0
12.570000 -0.058581 0
12.575000 -0.062245 0
12.580000 -0.065190 0
12.585000 -0.067509 0
12.590000 -0.069288 0
12.595000 -0.070607 0
12.600000 -0.071534 0
12.605000 -0.072134 0
12.610000 -0.072461 0
12.615000 -0.072564 0
12.620000 -0.072484 0
12.625000 -0.072255 0
12.630000 -0.071908 0
12.635000 -0.071466 0
12.640000 -0.070950 0
12.645000 -0.070378 0
12.650000 -0.069761 0
12.655000 -0.069021 0
12.660000 -0.068264 0
12.665000 -0.067510 0
12.670000 -0.066760 0
12.675000 -0.066014 0
12.680000 -0.065272 0
12.685000 -0.064533 0
12.690000 -0.063798 0
12.695000 -0.063067 0
12.700000 -0.062340 0
12.705000 -0.061616 0
12.710000 -0.060895 0
12.715000 -0.060178 0
12.720000 -0.059465 0
12.725000 -0.058756 0
12.730000 -0.058049 0
12.735000 -0.057347 0
12.740000 -0.056648 0
12.745000 -0.055952 0
12.750000 -0.055260 0
12.755000 -0.054571 0
12.760000 -0.053886 0
12.765000 -0.053204 0
12.770000 -0.052525 0
12.775000 -0.051849 0
12.780000 -0.051175 0
12.785000 -0.050503 0
12.790000 -0.049832 0
12.795000 -0.049160 0
12.800000 -0.048483 0
12.805000 -0.047798 0
12.810000 -0.047096 0
12.815000 -0.046366 0
12.820000 -0.045593 0
12.825000 -0.044751 0
12.830000 -0.043807 0
12.835000 -0.042712 0
12.840000 -0.041402 0
12.845000 -0.039792 0
12.850000 -0.037771 0
12.855000 -0.035202 0
12.860000 -0.031919 0
12.865000 -0.027724 0
12.870000 -0.022397 0
12.875000 -0.015697 0
12.880000 -0.007380 0
12.885000 0.002790 0
12.890000 0.015014 0
12.895000 0.029436 0
12.900000 0.046112 0
12.905000 0.064987 0
12.910000 0.085867 0
12.915000 0.108405 0
12.920000 0.132096 0
12.925000 0.156280 0
12.930000 0.180169 0
12.935000 0.202885 0
12.940000 0.223506 0
12.945000 0.241129 0
12.950000 0.254934 0
12.955000 0.264247 0
12.960000 0.268593 1
12.965000 0.267735 0
12.970000 0.261697 0
12.975000 0.250758 0
12.980000 0.235435 0
12.985000 0.216438 0
12.990000 0.194617 0
12.995000 0.170898 0
13.000000 0.146219 0
13.005000 0.121466 0
13.010000 0.097426 0
13.015000 0.074743 0
13.020000 0.053881 0
13.025000 0.035079 0
13.030000 0.018266 0
13.035000 0.002921 0
13.040000 -0.012132 0
13.045000 -0.028872 0
13.050000 -0.049921 0
13.055000 -0.077775 0
13.060000 -0.113293 0
13.065000 -0.153842 0
13.070000 -0.192021 0
13.075000 -0.215887 2
13.080000 -0.210776 0
13.085000 -0.161893 0
13.090000 -0.056924 0
13.095000 0.110850 0
13.100000 0.337652 0
13.105000 0.603048 0
13.110000 0.866777 0
13.115000 1.074535 0
13.120000 1.174499 3
13.125000 1.139382 0
13.130000 0.976322 0
13.135000 0.723034 0
13.140000 0.432654 0
13.145000 0.155123 0
13.150000 -0.074614 0
13.155000 -0.238931 0
13.160000 -0.334157 0
13.165000 -0.366562 4
13.170000 -0.349548 0
13.175000 -0.300950 0
13.180000 -0.239286 0
13.185000 -0.179625 0
13.190000 -0.130894 0
13.195000 -0.095720 0
13.200000 -0.072336 0
13.205000 -0.057108 0
13.210000 -0.046460 0
13.215000 -0.037762 0
13.220000 -0.029411 0
13.225000 -0.020554 0
13.230000 -0.010771 0
13.235000 0.000144 0
13.240000 0.012301 0
13.245000 0.025768 0
13.250000 0.040582 0
13.255000 0.056758 0
13.260000 0.074280 0
13.265000 0.093106 0
13.270000 0.113157 0
13.275000 0.134321 0
13.280000 0.156449 0
13.285000 0.179354 0
13.290000 0.202814 0
13.295000 0.226572 0
13.300000 0.250341 0
13.305000 0.273808 0
13.310000 0.296640 0
13.315000 0.318492 0
13.320000 0.339017 0
13.325000 0.357870 0
13.330000 0.374721 0
13.335000 0.389264 0
13.340000 0.401226 0
13.345000 0.410373 0
13.350000 0.416520 0
13.355000 0.419537 5
13.360000 0.419349 0
13.365000 0.415944 0
13.370000 0.409372 0
13.375000 0.399741 0
13.380000 0.387217 0
13.385000 0.372017 0
13.390000 0.354403 0
13.395000 0.334675 0
13.400000 0.313163 0
13.405000 0.290213 0
13.410000 0.266184 0
13.415000 0.241436 0
13.420000 0.216318 0
13.425000 0.191166 0
13.430000 0.166290 0
13.435000 0.141973 0
13.440000 0.118463 0
13.445000 0.095973 0
13.450000 0.074676 0
13.455000 0.054707 0
13.460000 0.036164 0
13.465000 0.019107 0
13.470000 0.003565 0
13.475000 -0.010465 0
13.480000 -0.023012 0
13.485000 -0.034125 0
13.490000 -0.043874 0
13.495000 -0.052340 0
13.500000 -0.059614 0
13.505000 -0.065795 0
13.510000 -0.070984 0
13.515000 -0.075282 0
13.520000 -0.078786 0
13.525000 -0.081593 0
13.530000 -0.083791 0
13.535000 -0.085463 0
13.540000 -0.086684 0
13.545000 -0.087523 0
13.550000 -0.088041 0
13.555000 -0.088291 0
13.560000 -0.088320 0
13.565000 -0.088167 0
13.570000 -0.087868 0
13.575000 -0.087450 0
13.580000 -0.086938 0
13.585000 -0.086353 0
13.590000 -0.085709 0
13.595000 -0.085021 0
13.600000 -0.084283 0
13.605000 -0.083450 0
13.610000 -0.082621 0
13.615000 -0.081795 0
13.620000 -0.080974 0
13.625000 -0.080157 0
13.630000 -0.079345 0
13.635000 -0.078536 0
13.640000 -0.077731 0
13.645000 -0.076930 0
13.650000 -0.076134 0
13.655000 -0.075341 0
13.660000 -0.074552 0
13.665000 -0.073767 0
13.670000 -0.072986 0
13.675000 -0.072209 0
13.680000 -0.071436 0
13.685000 -0.070666 0
13.690000 -0.069901 0
13.695000 -0.069139 0
13.700000 -0.068381 0
13.705000 -0.067627 0
13.710000 -0.066876 0
13.715000 -0.066129 0
13.720000 -0.065386 0
13.725000 -0.064645 0
13.730000 -0.063907 0
13.735000 -0.063171 0
13.740000 -0.062435 0
13.745000 -0.061697 0
13.750000 -0.060954 0
13.755000 -0.060200 0
13.760000 -0.059427 0
13.765000 -0.058623 0
13.770000 -0.057768 0
13.775000 -0.056837 0
13.780000 -0.055794 0
13.785000 -0.054587 0
13.790000 -0.053148 0
13.795000 -0.051390 0
13.800000 -0.049200 0
13.805000 -0.046437 0
13.810000 -0.042935 0
13.815000 -0.038497 0
13.820000 -0.032907 0
13.825000 -0.025929 0
13.830000 -0.017327 0
13.835000 -0.006875 0
13.840000 0.005617 0
13.845000 0.020279 0
13.850000 0.037160 0
13.855000 0.056196 0
13.860000 0.077193 0
13.865000 0.099808 0
13.870000 0.123547 0
13.875000 0.147772 0
13.880000 0.171721 0
13.885000 0.194542 0
13.890000 0.215343 0
13.895000 0.233247 0
13.900000 0.247452 0
13.905000 0.257289 0
13.910000 0.262277 1
13.915000 0.262158 0
13.920000 0.256919 0
13.925000 0.246796 0
13.930000 0.232254 0
13.935000 0.213952 0
13.940000 0.192690 0
13.945000 0.169357 0
13.950000 0.144864 0
13.955000 0.120088 0
13.960000 0.095820 0
13.965000 0.072726 0
13.970000 0.051311 0
13.975000 0.031879 0
13.980000 0.014472 0
13.985000 -0.001248 0
13.990000 -0.016172 0
13.995000 -0.031925 0
14.000000 -0.050857 0
14.005000 -0.075579 0
14.010000 -0.107807 0
14.015000 -0.146666 0
14.020000 -0.187134 0
14.025000 -0.219539 0
14.030000 -0.230636 2
14.035000 -0.205824 0
14.040000 -0.131617 0
14.045000 0.001815 0
14.050000 0.197059 0
14.055000 0.444035 0
14.060000 0.714737 0
14.065000 0.963209 0
14.070000 1.135347 0
14.075000 1.187162 3
14.080000 1.098600 0
14.085000 0.889527 0
14.090000 0.611221 0
14.095000 0.322339 0
14.100000 0.069655 0
14.105000 -0.119833 0
14.110000 -0.237002 0
14.115000 -0.285619 4
14.120000 -0.278516 0
14.125000 -0.234460 0
14.130000 -0.173925 0
14.135000 -0.114100 0
14.140000 -0.065342 0
14.145000 -0.030742 0
14.150000 -0.008330 0
14.155000 0.005906 0
14.160000 0.015790 0
14.165000 0.024016 0
14.170000 0.032145 0
14.175000 0.040962 0
14.180000 0.050841 0
14.185000 0.061960 0
14.190000 0.074420 0
14.195000 0.088280 0
14.200000 0.103566 0
14.205000 0.120280 0
14.210000 0.138385 0
14.215000 0.157812 0
14.220000 0.178448 0
14.225000 0.200141 0
14.230000 0.222694 0
14.235000 0.245871 0
14.240000 0.269393 0
14.245000 0.292948 0
14.250000 0.316191 0
14.255000 0.338758 0
14.260000 0.360269 0
14.265000 0.380342 0
14.270000 0.398599 0
14.275000 0.414684 0
14.280000 0.428268 0
14.285000 0.439064 0
14.290000 0.446832 0
14.295000 0.451393 0
14.300000 0.452630 5
14.305000 0.450495 0
14.310000 0.445012 0
14.315000 0.436274 0
14.320000 0.424439 0
14.325000 0.409729 0
14.330000 0.392421 0
14.335000 0.372834 0
14.340000 0.351324 0
14.345000 0.328273 0
14.350000 0.304071 0
14.355000 0.279113 0
14.360000 0.253784 0
14.365000 0.228448 0
14.370000 0.203445 0
14.375000 0.179077 0
14.380000 0.155609 0
14.385000 0.133263 0
14.390000 0.112217 0
14.395000 0.092603 0
14.400000 0.074512 0
14.405000 0.057994 0
14.410000 0.043063 0
14.415000 0.029699 0
14.420000 0.017857 0
14.425000 0.007469 0
14.430000 -0.001552 0
14.435000 -0.009303 0
14.440000 -0.015890 0
14.445000 -0.021424 0
14.450000 -0.026015 0
14.455000 -0.029772 0
14.460000 -0.032798 0
14.465000 -0.035191 0
14.470000 -0.037042 0
14.475000 -0.038431 0
14.480000 -0.039433 0
14.485000 -0.040112 0
14.490000 -0.040524 0
14.495000 -0.040719 0
14.500000 -0.040738 0
14.505000 -0.040616 0
14.510000 -0.040381 0
14.515000 -0.040059 0
14.520000 -0.039668 0
14.525000 -0.039224 0
14.530000 -0.038723 0
14.535000 -0.038117 0
14.540000 -0.037514 0
14.545000 -0.036914 0
14.550000 -0.036317 0
14.555000 -0.035722 0
14.560000 -0.035131 0
14.565000 -0.034543 0
14.570000 -0.033957 0
14.575000 -0.033375 0
14.580000 -0.032796 0
14.585000 -0.032219 0
14.590000 -0.031645 0
14.595000 -0.031074 0
14.600000 -0.030506 0
14.605000 -0.029941 0
14.610000 -0.029379 0
14.615000 -0.028819 0
14.620000 -0.028262 0
14.625000 -0.027708 0
14.630000 -0.027157 0
14.635000 -0.026608 0
14.640000 -0.026062 0
14.645000 -0.025518 0
14.650000 -0.024977 0
14.655000 -0.024437 0
14.660000 -0.023897 0
14.665000 -0.023357 0
14.670000 -0.022814 0
14.675000 -0.022264 0
14.680000 -0.021700 0
14.685000 -0.021113 0
14.690000 -0.020488 0
14.695000 -0.019803 0
14.700000 -0.019027 0
14.705000 -0.018113 0
14.710000 -0.016999 0
14.715000 -0.015602 0
14.720000 -0.013812 0
14.725000 -0.011489 0
14.730000 -0.008462 0
14.735000 -0.004527 0
14.740000 0.000547 0
14.745000 0.007015 0
14.750000 0.015137 0
14.755000 0.025166 0
14.760000 0.037316 0
14.765000 0.051738 0
14.770000 0.068488 0
14.775000 0.087497 0
14.780000 0.108540 0
14.785000 0.131224 0
14.790000 0.154983 0
14.795000 0.179085 0
14.800000 0.202664 0
14.805000 0.224768 0
14.810000 0.244414 0
14.815000 0.260665 0
14.820000 0.272696 0
14.825000 0.279867 0
14.830000 0.281778 1
14.835000 0.278299 0
14.840000 0.269592 0
14.845000 0.256086 0
14.850000 0.238453 0
14.855000 0.217541 0
14.860000 0.194311 0
14.865000 0.169764 0
14.870000 0.144867 0
14.875000 0.120492 0
14.880000 0.097367 0
14.885000 0.076033 0
14.890000 0.056795 0
14.895000 0.039641 0
14.900000 0.024088 0
14.905000 0.008963 0
14.910000 -0.007779 0
14.915000 -0.028908 0
14.920000 -0.057071 0
14.925000 -0.093096 0
14.930000 -0.133904 0
14.935000 -0.171158 0
14.940000 -0.191686 2
14.945000 -0.179700 0
14.950000 -0.119749 0
14.955000 0.000297 0
14.960000 0.185367 0
14.965000 0.427109 0
14.970000 0.697267 0
14.975000 0.946680 0
14.980000 1.116176 0
14.985000 1.158238 3
14.990000 1.061230 0
14.995000 0.849454 0
15.000000 0.571433 0
15.005000 0.282071 0
15.010000 0.025730 0
15.015000 -0.171040 0
15.020000 -0.298192 0
15.025000 -0.357822 0
15.030000 -0.360641 4
15.035000 -0.323302 0
15.040000 -0.264994 0
15.045000 -0.203077 0
15.050000 -0.149415 0
15.055000 -0.109095 0
15.060000 -0.081726 0
15.065000 -0.064017 0
15.070000 -0.052129 0
15.075000 -0.042993 0
15.080000 -0.034639 0
15.085000 -0.025984 0
15.090000 -0.016489 0
15.095000 -0.005896 0
15.100000 0.005931 0
15.105000 0.019068 0
15.110000 0.033563 0
15.115000 0.049436 0
15.120000 0.066678 0
15.125000 0.085252 0
15.130000 0.105087 0
15.135000 0.126074 0
15.140000 0.148068 0
15.145000 0.170885 0
15.150000 0.194302 0
15.155000 0.218061 0
15.160000 0.241872 0
15.165000 0.265418 0
15.170000 0.288360 0
15.175000 0.310346 0
15.180000 0.331018 0
15.185000 0.350024 0
15.190000 0.367025 0
15.195000 0.381704 0
15.200000 0.393781 0
15.205000 0.403014 0
15.210000 0.409214 0
15.215000 0.412244 5
15.220000 0.412031 0
15.225000 0.408563 0
15.230000 0.401891 0
15.235000 0.392130 0
15.240000 0.379452 0
15.245000 0.364082 0
15.250000 0.346294 0
15.255000 0.326395 0
15.260000 0.304727 0
15.265000 0.281647 0
15.270000 0.257523 0
15.275000 0.232720 0
15.280000 0.207598 0
15.285000 0.182494 0
15.290000 0.157723 0
15.295000 0.133567 0
15.300000 0.110275 0
15.305000 0.088055 0
15.310000 0.067077 0
15.315000 0.047468 0
15.320000 0.029321 0
15.325000 0.012688 0
15.330000 -0.002412 0
15.335000 -0.015988 0
15.340000 -0.028077 0
15.345000 -0.038736 0
15.350000 -0.048040 0
15.355000 -0.056077 0
15.360000 -0.062943 0
15.365000 -0.068740 0
15.370000 -0.073572 0
15.375000 -0.077540 0
15.380000 -0.080746 0
15.385000 -0.083284 0
15.390000 -0.085242 0
15.395000 -0.086702 0
15.400000 -0.087738 0
15.405000 -0.088417 0
15.410000 -0.088797 0
15.415000 -0.088930 0
15.420000 -0.088859 0
15.425000 -0.088624 0
15.430000 -0.088256 0
15.435000 -0.087782 0
15.440000 -0.087224 0
15.445000 -0.086601 0
15.450000 -0.085927 0
15.455000 -0.085215 0
15.460000 -0.084396 0
15.465000 -0.083562 0
15.470000 -0.082732 0
15.475000 -0.081906 0
15.480000 -0.081085 0
15.485000 -0.080267 0
15.490000 -0.079454 0
15.495000 -0.078645 0
15.500000 -0.077839 0
15.505000 -0.077038 0
15.510000 -0.076241 0
15.515000 -0.075447 0
15.520000 -0.074658 0
15.525000 -0.073873 0
15.530000 -0.073091 0
15.535000 -0.072314 0
15.540000 -0.071540 0
15.545000 -0.070770 0
15.550000 -0.070004 0
15.555000 -0.069242 0
15.560000 -0.068483 0
15.565000 -0.067728 0
15.570000 -0.066977 0
15.575000 -0.066229 0
15.580000 -0.065485 0
15.585000 -0.064742 0
15.590000 -0.064002 0
15.595000 -0.063262 0
15.600000 -0.062521 0
15.605000 -0.061774 0
15.610000 -0.061017 0
15.615000 -0.060240 0
15.620000 -0.059432 0
15.625000 -0.058574 0
15.630000 -0.057638 0
15.635000 -0.056586 0
15.640000 -0.055368 0
15.645000 -0.053911 0
15.650000 -0.052126 0
15.655000 -0.049894 0
15.660000 -0.047070 0
15.665000 -0.043480 0
15.670000 -0.038921 0
15.675000 -0.033169 0
15.680000 -0.025981 0
15.685000 -0.017114 0
15.690000 -0.006344 0
15.695000 0.006518 0
15.700000 0.021594 0
15.705000 0.038913 0
15.710000 0.058386 0
15.715000 0.079782 0
15.720000 0.102719 0
15.725000 0.126654 0
15.730000 0.150899 0
15.735000 0.174648 0
15.740000 0.197011 0
15.745000 0.217073 0
15.750000 0.233952 0
15.755000 0.246860 0
15.760000 0.255169 0
15.765000 0.258457 1
15.770000 0.256543 0
15.775000 0.249505 0
15.780000 0.237672 0
15.785000 0.221601 0
15.790000 0.202028 0
15.795000 0.179818 0
15.800000 0.155898 0
15.805000 0.131192 0
15.810000 0.106567 0
15.815000 0.082779 0
15.820000 0.060439 0
15.825000 0.039972 0
15.830000 0.021570 0
15.835000 0.005101 0
15.840000 -0.010045 0
15.845000 -0.025158 0
15.850000 -0.042321 0
15.855000 -0.064189 0
15.860000 -0.093110 0
15.865000 -0.129547 0
15.870000 -0.170269 0
15.875000 -0.207258 0
15.880000 -0.228165 2
15.885000 -0.218263 0
15.890000 -0.163037 0
15.895000 -0.050751 0
15.900000 0.124326 0
15.905000 0.356854 0
15.910000 0.624398 0
15.915000 0.885010 0
15.920000 1.084115 0
15.925000 1.171662 3
15.930000 1.122432 0
15.935000 0.946851 0
15.940000 0.686082 0
15.945000 0.394818 0
15.950000 0.122404 0
15.955000 -0.098099 0
15.960000 -0.251162 0
15.965000 -0.334925 0
15.970000 -0.357206 4
15.975000 -0.332718 0
15.980000 -0.280101 0
15.985000 -0.217837 0
15.990000 -0.160112 0
15.995000 -0.114526 0
16.000000 -0.082505 0
16.005000 -0.061565 0
16.010000 -0.047876 0
16.015000 -0.037998 0
16.020000 -0.029549 0
16.025000 -0.021143 0
16.030000 -0.012066 0
16.035000 -0.001976 0
16.040000 0.009301 0
16.045000 0.021859 0
16.050000 0.035755 0
16.055000 0.051022 0
16.060000 0.067661 0
16.065000 0.085650 0
16.070000 0.104930 0
16.075000 0.125409 0
16.080000 0.146958 0
16.085000 0.169410 0
16.090000 0.192560 0
16.095000 0.216165 0
16.100000 0.239950 0
16.105000 0.263609 0
16.110000 0.286814 0
16.115000 0.309220 0
16.120000 0.330470 0
16.125000 0.350212 0
16.130000 0.368099 0
16.135000 0.383808 0
16.140000 0.397039 0
16.145000 0.407536 0
16.150000 0.415085 0
16.155000 0.419526 0
16.160000 0.420758 5
16.165000 0.418738 0
16.170000 0.413492 0
16.175000 0.405103 0
16.180000 0.393716 0
16.185000 0.379534 0
16.190000 0.362805 0
16.195000 0.343823 0
16.200000 0.322912 0
16.205000 0.300420 0
16.210000 0.276712 0
16.215000 0.252153 0
16.220000 0.227104 0
16.225000 0.201914 0
16.230000 0.176907 0
16.235000 0.152382 0
16.240000 0.128601 0
16.245000 0.105793 0
16.250000 0.084145 0
16.255000 0.063806 0
16.260000 0.044885 0
16.265000 0.027452 0
16.270000 0.011544 0
16.275000 -0.002835 0
16.280000 -0.015708 0
16.285000 -0.027122 0
16.290000 -0.037144 0
16.295000 -0.045855 0
16.300000 -0.053347 0
16.305000 -0.059719 0
16.310000 -0.065074 0
16.315000 -0.069513 0
16.320000 -0.073140 0
16.325000 -0.076050 0
16.330000 -0.078335 0
16.335000 -0.080081 0
16.340000 -0.081365 0
16.345000 -0.082258 0
16.350000 -0.082822 0
16.355000 -0.083112 0
16.360000 -0.083176 0
16.365000 -0.083056 0
16.370000 -0.082786 0
16.375000 -0.082395 0
16.380000 -0.081910 0
16.385000 -0.081349 0
16.390000 -0.080730 0
16.395000 -0.080066 0
16.400000 -0.079352 0
16.405000 -0.078543 0
16.410000 -0.077738 0
16.415000 -0.076937 0
16.420000 -0.076141 0
16.425000 -0.075348 0
16.430000 -0.074559 0
16.435000 -0.073774 0
16.440000 -0.072993 0
16.445000 -0.072216 0
16.450000 -0.071443 0
16.455000 -0.070673 0
16.460000 -0.069908 0
16.465000 -0.069146 0
16.470000 -0.068388 0
16.475000 -0.067634 0
16.480000 -0.066883 0
16.485000 -0.066137 0
16.490000 -0.065394 0
16.495000 -0.064655 0
16.500000 -0.063919 0
16.505000 -0.063187 0
16.510000 -0.062459 0
16.515000 -0.061733 0
16.520000 -0.061012 0
16.525000 -0.060293 0
16.530000 -0.059576 0
16.535000 -0.058860 0
16.540000 -0.058144 0
16.545000 -0.057426 0
16.550000 -0.056700 0
16.555000 -0.055961 0
16.560000 -0.055198 0
16.565000 -0.054398 0
16.570000 -0.053538 0
16.575000 -0.052590 0
16.580000 -0.051509 0
16.585000 -0.050239 0
16.590000 -0.048701 0
16.595000 -0.046797 0
16.600000 -0.044400 0
16.605000 -0.041356 0
16.610000 -0.037481 0
16.615000 -0.032565 0
16.620000 -0.026376 0
16.625000 -0.018673 0
16.630000 -0.009217 0
16.635000 0.002207 0
16.640000 0.015767 0
16.645000 0.031556 0
16.650000 0.049569 0
16.655000 0.069673 0
16.660000 0.091590 0
16.665000 0.114887 0
16.670000 0.138978 0
16.675000 0.163136 0
16.680000 0.186527 0
16.685000 0.208251 0
16.690000 0.227402 0
16.695000 0.243122 0
16.700000 0.254672 0
16.705000 0.261481 0
16.710000 0.263199 1
16.715000 0.259724 0
16.720000 0.251208 0
16.725000 0.238048 0
16.730000 0.220857 0
16.735000 0.200412 0
16.740000 0.177596 0
16.745000 0.153339 0
16.750000 0.128551 0
16.755000 0.104067 0
16.760000 0.080604 0
16.765000 0.058723 0
16.770000 0.038789 0
16.775000 0.020918 0
16.780000 0.004867 0
16.785000 -0.010131 0
16.790000 -0.025568 0
16.795000 -0.043711 0
16.800000 -0.067237 0
16.805000 -0.098174 0
16.810000 -0.136204 0
16.815000 -0.176952 0
16.820000 -0.211240 0
16.825000 -0.225957 2
16.830000 -0.206251 0
16.835000 -0.138108 0
16.840000 -0.010945 0
16.845000 0.178834 0
16.850000 0.422370 0
16.855000 0.692696 0
16.860000 0.944074 0
16.865000 1.121401 0
16.870000 1.178829 3
16.875000 1.099390 0
16.880000 0.901312 0
16.885000 0.629670 0
16.890000 0.338614 0
16.895000 0.074083 0
16.900000 -0.134808 0
16.905000 -0.275575 0
16.910000 -0.348302 0
16.915000 -0.361994 4
16.920000 -0.331979 0
16.925000 -0.276871 0
16.930000 -0.214492 0
16.935000 -0.158006 0
16.940000 -0.114046 0
16.945000 -0.083412 0
16.950000 -0.063390 0
16.955000 -0.050186 0
16.960000 -0.040499 0
16.965000 -0.032078 0
16.970000 -0.023626 0
16.975000 -0.014477 0
16.980000 -0.004308 0
16.985000 0.007043 0
16.990000 0.019668 0
16.995000 0.033623 0
17.000000 0.048936 0
17.005000 0.065611 0
17.010000 0.083623 0
17.015000 0.102914 0
17.020000 0.123396 0
17.025000 0.144940 0
17.030000 0.167382 0
17.035000 0.190521 0
17.040000 0.214119 0
17.045000 0.237907 0
17.050000 0.261586 0
17.055000 0.284832 0
17.060000 0.307306 0
17.065000 0.328660 0
17.070000 0.348544 0
17.075000 0.366617 0
17.080000 0.382558 0
17.085000 0.396071 0
17.090000 0.406896 0
17.095000 0.414819 0
17.100000 0.419676 0
17.105000 0.421357 5
17.110000 0.419816 0
17.115000 0.415065 0
17.120000 0.407180 0
17.125000 0.396293 0
17.130000 0.382593 0
17.135000 0.366319 0
17.140000 0.347751 0
17.145000 0.327204 0
17.150000 0.305017 0
17.155000 0.281545 0
17.160000 0.257150 0
17.165000 0.232188 0
17.170000 0.207006 0
17.175000 0.181930 0
17.180000 0.157260 0
17.185000 0.133266 0
17.190000 0.110180 0
17.195000 0.088198 0
17.200000 0.067477 0
17.205000 0.048137 0
17.210000 0.030256 0
17.215000 0.013881 0
17.220000 -0.000974 0
17.225000 -0.014325 0
17.230000 -0.026210 0
17.235000 -0.036688 0
17.240000 -0.045837 0
17.245000 -0.053742 0
17.250000 -0.060499 0
17.255000 -0.066209 0
17.260000 -0.070972 0
17.265000 -0.074890 0
17.270000 -0.078059 0
17.275000 -0.080573 0
17.280000 -0.082517 0
17.285000 -0.083972 0
17.290000 -0.085010 0
17.295000 -0.085696 0
17.300000 -0.086086 0
17.305000 -0.086232 0
17.310000 -0.086177 0
17.315000 -0.085958 0
17.320000 -0.085607 0
17.325000 -0.085150 0
17.330000 -0.084609 0
17.335000 -0.084002 0
17.340000 -0.083345 0
17.345000 -0.082649 0
17.350000 -0.081843 0
17.355000 -0.081022 0
17.360000 -0.080204 0
17.365000 -0.079391 0
17.370000 -0.078582 0
17.375000 -0.077777 0
17.380000 -0.076976 0
17.385000 -0.076179 0
17.390000 -0.075386 0
17.395000 -0.074597 0
17.400000 -0.073812 0
17.405000 -0.073031 0
17.410000 -0.072254 0
17.415000 -0.071480 0
17.420000 -0.070711 0
17.425000 -0.069945 0
17.430000 -0.069183 0
17.435000 -0.068425 0
17.440000 -0.067671 0
17.445000 -0.066920 0
17.450000 -0.066173 0
17.455000 -0.065430 0
17.460000 -0.064690 0
17.465000 -0.063954 0
17.470000 -0.063221 0
17.475000 -0.062490 0
17.480000 -0.061762 0
17.485000 -0.061035 0
17.490000 -0.060307 0
17.495000 -0.059575 0
17.500000 -0.058835 0
17.505000 -0.058080 0
17.510000 -0.057299 0
17.515000 -0.056477 0
17.520000 -0.055591 0
17.525000 -0.054608 0
17.530000 -0.053485 0
17.535000 -0.052161 0
17.540000 -0.050557 0
17.545000 -0.048569 0
17.550000 -0.046069 0
17.555000 -0.042901 0
17.560000 -0.038879 0
17.565000 -0.033793 0
17.570000 -0.027414 0
17.575000 -0.019502 0
17.580000 -0.009825 0
17.585000 0.001825 0
17.590000 0.015607 0
17.595000 0.031604 0
17.600000 0.049801 0
17.605000 0.070055 0
17.610000 0.092084 0
17.615000 0.115449 0
17.620000 0.139565 0
17.625000 0.163711 0
17.630000 0.187061 0
17.635000 0.208731 0
17.640000 0.227825 0
17.645000 0.243504 0
17.650000 0.255039 0
17.655000 0.261871 0
17.660000 0.263654 1
17.665000 0.260284 0
17.670000 0.251905 0
17.675000 0.238904 0
17.680000 0.221874 0
17.685000 0.201577 0
17.690000 0.178878 0
17.695000 0.154690 0
17.700000 0.129913 0
17.705000 0.105378 0
17.710000 0.081799 0
17.715000 0.059746 0
17.720000 0.039599 0
17.725000 0.021502 0
17.730000 0.005265 0
17.735000 -0.009795 0
17.740000 -0.025042 0
17.745000 -0.042611 0
17.750000 -0.065129 0
17.755000 -0.094790 0
17.760000 -0.131783 0
17.765000 -0.172574 0
17.770000 -0.208954 0
17.775000 -0.228598 2
17.780000 -0.217016 0
17.785000 -0.160044 0
17.790000 -0.046316 0
17.795000 0.129600 0
17.800000 0.362297 0
17.805000 0.629727 0
17.810000 0.890883 0
17.815000 1.092331 0
17.820000 1.184590 3
17.825000 1.139426 0
17.830000 0.965415 0
17.835000 0.704567 0
17.840000 0.413198 0
17.845000 0.141934 0
17.850000 -0.075737 0
17.855000 -0.224551 0
17.860000 -0.303303 0
17.865000 -0.320689 4
17.870000 -0.292390 0
17.875000 -0.237812 0
17.880000 -0.175654 0
17.885000 -0.119663 0
17.890000 -0.076597 0
17.895000 -0.047054 0
17.900000 -0.028039 0
17.905000 -0.015584 0
17.910000 -0.006357 0
17.915000 0.001839 0
17.920000 0.010227 0
17.925000 0.019419 0
17.930000 0.029703 0
17.935000 0.041228 0
17.940000 0.054077 0
17.945000 0.068301 0
17.950000 0.083922 0
17.955000 0.100934 0
17.960000 0.119299 0
17.965000 0.138945 0
17.970000 0.159762 0
17.975000 0.181601 0
17.980000 0.204270 0
17.985000 0.227543 0
17.990000 0.251152 0
17.995000 0.274799 0
18.000000 0.298154 0
18.005000 0.320871 0
18.010000 0.342585 0
18.015000 0.362931 0
18.020000 0.381547 0
18.025000 0.398087 0
18.030000 0.412231 0
18.035000 0.423698 0
18.040000 0.432246 0
18.045000 0.437692 0
18.050000 0.439907 5
18.055000 0.438829 0
18.060000 0.434460 0
18.065000 0.426869 0
18.070000 0.416186 0
18.075000 0.402604 0
18.080000 0.386369 0
18.085000 0.367772 0
18.090000 0.347140 0
18.095000 0.324830 0
18.100000 0.301212 0
18.105000 0.276666 0
18.110000 0.251564 0
18.115000 0.226269 0
18.120000 0.201118 0
18.125000 0.176423 0
18.130000 0.152459 0
18.135000 0.129464 0
18.140000 0.107635 0
18.145000 0.087128 0
18.150000 0.068056 0
18.155000 0.050494 0
18.160000 0.034479 0
18.165000 0.020017 0
18.170000 0.007082 0
18.175000 -0.004375 0
18.180000 -0.014423 0
18.185000 -0.023146 0
18.190000 -0.030641 0
18.195000 -0.037009 0
18.200000 -0.042356 0
18.205000 -0.046789 0
18.210000 -0.050410 0
18.215000 -0.053320 0
18.220000 -0.055612 0
18.225000 -0.057372 0
18.230000 -0.058678 0
18.235000 -0.059602 0
18.240000 -0.060206 0
18.245000 -0.060544 0
18.250000 -0.060665 0
18.255000 -0.060608 0
18.260000 -0.060409 0
18.265000 -0.060096 0
18.270000 -0.059692 0
18.275000 -0.059219 0
18.280000 -0.058690 0
18.285000 -0.058121 0
18.290000 -0.057437 0
18.295000 -0.056738 0
18.300000 -0.056042 0
18.305000 -0.055349 0
18.310000 -0.054660 0
18.315000 -0.053975 0
18.320000 -0.053292 0
18.325000 -0.052613 0
18.330000 -0.051938 0
18.335000 -0.051266 0
18.340000 -0.050597 0
18.345000 -0.049932 0
18.350000 -0.049270 0
18.355000 -0.048611 0
18.360000 -0.047955 0
18.365000 -0.047303 0
18.370000 -0.046654 0
18.375000 -0.046008 0
18.380000 -0.045366 0
18.385000 -0.044726 0
18.390000 -0.044090 0
18.395000 -0.043457 0
18.400000 -0.042827 0
18.405000 -0.042199 0
18.410000 -0.041574 0
18.415000 -0.040951 0
18.420000 -0.040329 0
18.425000 -0.039707 0
18.430000 -0.039081 0
18.435000 -0.038449 0
18.440000 -0.037803 0
18.445000 -0.037135 0
18.450000 -0.036429 0
18.455000 -0.035666 0
18.460000 -0.034813 0
18.465000 -0.033830 0
18.470000 -0.032655 0
18.475000 -0.031212 0
18.480000 -0.029397 0
18.485000 -0.027081 0
18.490000 -0.024103 0
18.495000 -0.020275 0
18.500000 -0.015377 0
18.505000 -0.009170 0
18.510000 -0.001405 0
18.515000 0.008164 0
18.520000 0.019754 0
18.525000 0.033530 0
18.530000 0.049578 0
18.535000 0.067873 0
18.540000 0.088255 0
18.545000 0.110409 0
18.550000 0.133858 0
18.555000 0.157963 0
18.560000 0.181949 0
18.565000 0.204933 0
18.570000 0.225981 0
18.575000 0.244165 0
18.580000 0.258629 0
18.585000 0.268657 0
18.590000 0.273732 1
18.595000 0.273573 0
18.600000 0.268166 0
18.605000 0.257764 0
18.610000 0.242865 0
18.615000 0.224174 0
18.620000 0.202544 0
18.625000 0.178916 0
18.630000 0.154245 0
18.635000 0.129441 0
18.640000 0.105313 0
18.645000 0.082524 0
18.650000 0.061559 0
18.655000 0.042667 0
18.660000 0.025789 0
18.665000 0.010399 0
18.670000 -0.004695 0
18.675000 -0.021511 0
18.680000 -0.042725 0
18.685000 -0.070859 0
18.690000 -0.106701 0
18.695000 -0.147385 0
18.700000 -0.185120 0
18.705000 -0.207511 2
18.710000 -0.199524 0
18.715000 -0.146193 0
18.720000 -0.035329 0
18.725000 0.139120 0
18.730000 0.371779 0
18.735000 0.639521 0
18.740000 0.898982 0
18.745000 1.094031 0
18.750000 1.174060 3
18.755000 1.113613 0
18.760000 0.926085 0
18.765000 0.657659 0
18.770000 0.366515 0
18.775000 0.102483 0
18.780000 -0.103274 0
18.785000 -0.238040 0
18.790000 -0.302851 0
18.795000 -0.308400 4
18.800000 -0.272015 0
18.805000 -0.213922 0
18.810000 -0.152404 0
18.815000 -0.099742 0
18.820000 -0.060900 0
18.825000 -0.035089 0
18.830000 -0.018671 0
18.835000 -0.007660 0
18.840000 0.000984 0
18.845000 0.009130 0
18.850000 0.017759 0
18.855000 0.027344 0
18.860000 0.038110 0
18.865000 0.050178 0
18.870000 0.063616 0
18.875000 0.078463 0
18.880000 0.094730 0
18.885000 0.112395 0
18.890000 0.131402 0
18.895000 0.151659 0
18.900000 0.173030 0
18.905000 0.195340 0
18.910000 0.218372 0
18.915000 0.241869 0
18.920000 0.265535 0
18.925000 0.289046 0
18.930000 0.312050 0
18.935000 0.334178 0
18.940000 0.355052 0
18.945000 0.374299 0
18.950000 0.391554 0
18.955000 0.406480 0
18.960000 0.418773 0
18.965000 0.428171 0
18.970000 0.434467 0
18.975000 0.437514 5
18.980000 0.437229 0
18.985000 0.433599 0
18.990000 0.426679 0
18.995000 0.416591 0
19.000000 0.403520 0
19.005000 0.387710 0
19.010000 0.369453 0
19.015000 0.349082 0
19.020000 0.326959 0
19.025000 0.303465 0
19.030000 0.278988 0
19.035000 0.253915 0
19.040000 0.228618 0
19.045000 0.203448 0
19.050000 0.178725 0
19.055000 0.154736 0
19.060000 0.131725 0
19.065000 0.109896 0
19.070000 0.089409 0
19.075000 0.070379 0
19.080000 0.052882 0
19.085000 0.036956 0
19.090000 0.022601 0
19.095000 0.009792 0
19.100000 -0.001525 0
19.105000 -0.011422 0
19.110000 -0.019989 0
19.115000 -0.027324 0
19.120000 -0.033534 0
19.125000 -0.038728 0
19.130000 -0.043015 0
19.135000 -0.046500 0
19.140000 -0.049285 0
19.145000 -0.051464 0
19.150000 -0.053124 0
19.155000 -0.054343 0
19.160000 -0.055193 0
19.165000 -0.055734 0
19.170000 -0.056023 0
19.175000 -0.056104 0
19.180000 -0.056017 0
19.185000 -0.055797 0
19.190000 -0.055470 0
19.195000 -0.055060 0
19.200000 -0.054585 0
19.205000 -0.054060 0
19.210000 -0.053480 0
19.215000 -0.052800 0
19.220000 -0.052124 0
19.225000 -0.051451 0
19.230000 -0.050781 0
19.235000 -0.050115 0
19.240000 -0.049452 0
19.245000 -0.048792 0
19.250000 -0.048136 0
19.255000 -0.047483 0
19.260000 -0.046833 0
19.265000 -0.046186 0
19.270000 -0.045543 0
19.275000 -0.044903 0
19.280000 -0.044266 0
19.285000 -0.043632 0
19.290000 -0.043001 0
19.295000 -0.042374 0
19.300000 -0.041749 0
19.305000 -0.041128 0
19.310000 -0.040509 0
19.315000 -0.039894 0
19.320000 -0.039282 0
19.325000 -0.038672 0
19.330000 -0.038065 0
19.335000 -0.037460 0
19.340000 -0.036856 0
19.345000 -0.036251 0
19.350000 -0.035644 0
19.355000 -0.035030 0
19.360000 -0.034405 0
19.365000 -0.033757 0
19.370000 -0.033074 0
19.375000 -0.032333 0
19.380000 -0.031506 0
19.385000 -0.030549 0
19.390000 -0.029402 0
19.395000 -0.027985 0
19.400000 -0.026194 0
19.405000 -0.023896 0
19.410000 -0.020926 0
19.415000 -0.017088 0
19.420000 -0.012157 0
19.425000 -0.005887 0
19.430000 0.001981 0
19.435000 0.011697 0
19.440000 0.023482 0
19.445000 0.037499 0
19.450000 0.053825 0
19.455000 0.072419 0
19.460000 0.093094 0
19.465000 0.115500 0
19.470000 0.139117 0
19.475000 0.163262 0
19.480000 0.187108 0
19.485000 0.209733 0
19.490000 0.230171 0
19.495000 0.247478 0
19.500000 0.260804 0
19.505000 0.269463 0
19.510000 0.272987 1
19.515000 0.271168 0
19.520000 0.264080 0
19.525000 0.252068 0
19.530000 0.235723 0
19.535000 0.215833 0
19.540000 0.193317 0
19.545000 0.169156 0
19.550000 0.144323 0
19.555000 0.119715 0
19.560000 0.096107 0
19.565000 0.074104 0
19.570000 0.054099 0
19.575000 0.036215 0
19.580000 0.020177 0
19.585000 0.005125 0
19.590000 -0.010600 0
19.595000 -0.029492 0
19.600000 -0.054369 0
19.605000 -0.087059 0
19.610000 -0.126425 0
19.615000 -0.166588 0
19.620000 -0.196504 0
19.625000 -0.201429 2
19.630000 -0.165615 0
19.635000 -0.075191 0
19.640000 0.078674 0
19.645000 0.294940 0
19.650000 0.555998 0
19.655000 0.823090 0
19.660000 1.040672 0
19.665000 1.153023 3
19.670000 1.130330 0
19.675000 0.977363 0
19.680000 0.729807 0
19.685000 0.440525 0
19.690000 0.160566 0
19.695000 -0.073553 0
19.700000 -0.242863 0
19.705000 -0.342791 0
19.710000 -0.379037 4
19.715000 -0.364666 0
19.720000 -0.317420 0
19.725000 -0.255999 0
19.730000 -0.195858 0
19.735000 -0.146352 0
19.740000 -0.110432 0
19.745000 -0.086486 0
19.750000 -0.070900 0
19.755000 -0.060050 0
19.760000 -0.051244 0
19.765000 -0.042833 0
19.770000 -0.033937 0
19.775000 -0.024123 0
19.780000 -0.013178 0
19.785000 -0.000990 0
19.790000 0.012510 0
19.795000 0.027360 0
19.800000 0.043575 0
19.805000 0.061141 0
19.810000 0.080014 0
19.815000 0.100118 0
19.820000 0.121338 0
19.825000 0.143526 0
19.830000 0.166494 0
19.835000 0.190019 0
19.840000 0.213842 0
19.845000 0.237674 0
19.850000 0.261200 0
19.855000 0.284087 0
19.860000 0.305987 0
19.865000 0.326550 0
19.870000 0.345430 0
19.875000 0.362296 0
19.880000 0.376841 0
19.885000 0.388790 0
19.890000 0.397910 0
19.895000 0.404017 0
19.900000 0.406981 5
19.905000 0.406730 0
19.910000 0.403254 0
19.915000 0.396605 0
19.920000 0.386895 0
19.925000 0.374292 0
19.930000 0.359018 0
19.935000 0.341339 0
19.940000 0.321558 0
19.945000 0.300006 0
19.950000 0.277036 0
19.955000 0.253006 0
19.960000 0.228278 0
19.965000 0.203204 0
19.970000 0.178118 0
19.975000 0.153331 0
19.980000 0.129124 0
19.985000 0.105746 0
19.990000 0.083406 0
19.995000 0.062274 0
20.000000 0.042485 0
20.005000 0.024131 0
20.010000 0.007272 0
20.015000 -0.008068 0
20.020000 -0.021895 0
20.025000 -0.034238 0
20.030000 -0.045151 0
20.035000 -0.054705 0
20.040000 -0.062982 0
20.045000 -0.070076 0
20.050000 -0.076086 0
20.055000 -0.081114 0
20.060000 -0.085260 0
20.065000 -0.088623 0
20.070000 -0.091299 0
20.075000 -0.093376 0
20.080000 -0.094936 0
20.085000 -0.096055 0
20.090000 -0.096799 0
20.095000 -0.097230 0
20.100000 -0.097399 0
20.105000 -0.097353 0
20.110000 -0.097131 0
20.115000 -0.096767 0
20.120000 -0.096288 0
20.125000 -0.095719 0
20.130000 -0.095078 0
20.135000 -0.094383 0
20.140000 -0.093645 0
20.145000 -0.092786 0
20.150000 -0.091910 0
20.155000 -0.091039 0
20.160000 -0.090171 0
20.165000 -0.089309 0
20.170000 -0.088450 0
20.175000 -0.087596 0
20.180000 -0.086746 0
20.185000 -0.085900 0
20.190000 -0.085059 0
20.195000 -0.084221 0
20.200000 -0.083388 0
20.205000 -0.082559 0
20.210000 -0.081735 0
20.215000 -0.080914 0
20.220000 -0.080097 0
20.225000 -0.079285 0
20.230000 -0.078476 0
20.235000 -0.077672 0
20.240000 -0.076871 0
20.245000 -0.076075 0
20.250000 -0.075282 0
20.255000 -0.074493 0
20.260000 -0.073708 0
20.265000 -0.072927 0
20.270000 -0.072148 0
20.275000 -0.071372 0
20.280000 -0.070598 0
20.285000 -0.069824 0
20.290000 -0.069048 0
20.295000 -0.068265 0
20.300000 -0.067470 0
20.305000 -0.066652 0
20.310000 -0.065800 0
20.315000 -0.064891 0
20.320000 -0.063898 0
20.325000 -0.062779 0
20.330000 -0.061480 0
20.335000 -0.059927 0
20.340000 -0.058026 0
20.345000 -0.055654 0
20.350000 -0.052664 0
20.355000 -0.048880 0
20.360000 -0.044097 0
20.365000 -0.038092 0
20.370000 -0.030625 0
20.375000 -0.021461 0
20.380000 -0.010380 0
20.385000 0.002792 0
20.390000 0.018167 0
20.395000 0.035759 0
20.400000 0.055467 0
20.405000 0.077050 0
20.410000 0.100116 0
20.415000 0.124122 0
20.420000 0.148382 0
20.425000 0.172097 0
20.430000 0.194392 0
20.435000 0.214368 0
20.440000 0.231162 0
20.445000 0.244005 0
20.450000 0.252282 0
20.455000 0.255583 1
20.460000 0.253730 0
20.465000 0.246797 0
20.470000 0.235104 0
20.475000 0.219191 0
20.480000 0.199777 0
20.485000 0.177705 0
20.490000 0.153885 0
20.495000 0.129224 0
20.500000 0.104581 0
20.505000 0.080708 0
20.510000 0.058220 0
20.515000 0.037554 0
20.520000 0.018927 0
20.525000 0.002255 0
20.530000 -0.012989 0
20.535000 -0.027967 0
20.540000 -0.044612 0
20.545000 -0.065480 0
20.550000 -0.093021 0
20.555000 -0.128152 0
20.560000 -0.168489 0
20.565000 -0.207096 0
20.570000 -0.232594 2
20.575000 -0.230814 0
20.580000 -0.187239 0
20.585000 -0.089478 0
20.590000 0.069895 0
20.595000 0.288931 0
20.600000 0.550447 0
20.605000 0.818194 0
20.610000 1.040688 0
20.615000 1.165381 3
20.620000 1.157620 0
20.625000 1.016522 0
20.630000 0.775543 0
20.635000 0.487593 0
20.640000 0.205321 0
20.645000 -0.032818 0
20.650000 -0.206384 0
20.655000 -0.309971 0
20.660000 -0.348908 4
20.665000 -0.336195 0
20.670000 -0.289745 0
20.675000 -0.228586 0
20.680000 -0.168516 0
20.685000 -0.119117 0
20.690000 -0.083407 0
20.695000 -0.059734 0
20.700000 -0.044419 0
20.705000 -0.033793 0
20.710000 -0.025155 0
20.715000 -0.016864 0
20.720000 -0.008052 0
20.725000 0.001702 0
20.730000 0.012607 0
20.735000 0.024773 0
20.740000 0.038267 0
20.745000 0.053126 0
20.750000 0.069362 0
20.755000 0.086959 0
20.760000 0.105867 0
20.765000 0.126004 0
20.770000 0.147251 0
20.775000 0.169451 0
20.780000 0.192408 0
20.785000 0.215888 0
20.790000 0.239624 0
20.795000 0.263318 0
20.800000 0.286645 0
20.805000 0.309263 0
20.810000 0.330818 0
20.815000 0.350954 0
20.820000 0.369321 0
20.825000 0.385588 0
20.830000 0.399448 0
20.835000 0.410633 0
20.840000 0.418916 0
20.845000 0.424122 0
20.850000 0.426136 5
20.855000 0.424900 0
20.860000 0.420422 0
20.865000 0.412771 0
20.870000 0.402079 0
20.875000 0.388534 0
20.880000 0.372374 0
20.885000 0.353884 0
20.890000 0.333381 0
20.895000 0.311211 0
20.900000 0.287735 0
20.905000 0.263319 0
20.910000 0.238328 0
20.915000 0.213115 0
20.920000 0.188011 0
20.925000 0.163321 0
20.930000 0.139319 0
20.935000 0.116240 0
20.940000 0.094284 0
20.945000 0.073606 0
20.950000 0.054327 0
20.955000 0.036524 0
20.960000 0.020243 0
20.965000 0.005494 0
20.970000 -0.007740 0
20.975000 -0.019502 0
20.980000 -0.029853 0
20.985000 -0.038873 0
20.990000 -0.046651 0
20.995000 -0.053285 0
21.000000 -0.058879 0
21.005000 -0.063534 0
21.010000 -0.067353 0
21.015000 -0.070434 0
21.020000 -0.072871 0
21.025000 -0.074750 0
21.030000 -0.076151 0
21.035000 -0.077146 0
21.040000 -0.077799 0
21.045000 -0.078166 0
21.050000 -0.078298 0
21.055000 -0.078237 0
21.060000 -0.078019 0
21.065000 -0.077676 0
21.070000 -0.077231 0
21.075000 -0.076708 0
21.080000 -0.076124 0
21.085000 -0.075491 0
21.090000 -0.074806 0
21.095000 -0.074019 0
21.100000 -0.073237 0
21.105000 -0.072459 0
21.110000 -0.071684 0
21.115000 -0.070914 0
21.120000 -0.070147 0
21.125000 -0.069384 0
21.130000 -0.068625 0
21.135000 -0.067870 0
21.140000 -0.067118 0
21.145000 -0.066370 0
21.150000 -0.065626 0
21.155000 -0.064886 0
21.160000 -0.064149 0
21.165000 -0.063416 0
21.170000 -0.062687 0
21.175000 -0.061961 0
21.180000 -0.061239 0
21.185000 -0.060520 0
21.190000 -0.059805 0
21.195000 -0.059094 0
21.200000 -0.058386 0
21.205000 -0.057681 0
21.210000 -0.056980 0
21.215000 -0.056281 0
21.220000 -0.055584 0
21.225000 -0.054889 0
21.230000 -0.054194 0
21.235000 -0.053496 0
21.240000 -0.052792 0
21.245000 -0.052076 0
21.250000 -0.051338 0
21.255000 -0.050565 0
21.260000 -0.049737 0
21.265000 -0.048825 0
21.270000 -0.047788 0
21.275000 -0.046572 0
21.280000 -0.045103 0
21.285000 -0.043283 0
21.290000 -0.040992 0
21.295000 -0.038079 0
21.300000 -0.034364 0
21.305000 -0.029641 0
21.310000 -0.023680 0
21.315000 -0.016240 0
21.320000 -0.007079 0
21.325000 0.004021 0
21.330000 0.017239 0
21.335000 0.032681 0
21.340000 0.050357 0
21.345000 0.070154 0
21.350000 0.091816 0
21.355000 0.114932 0
21.360000 0.138934 0
21.365000 0.163114 0
21.370000 0.186649 0
21.375000 0.208642 0
21.380000 0.228182 0
21.385000 0.244400 0
21.390000 0.256534 0
21.395000 0.263988 0
21.400000 0.266380 1
21.405000 0.263571 0
21.410000 0.255681 0
21.415000 0.243078 0
21.420000 0.226350 0
21.425000 0.206256 0
21.430000 0.183674 0
21.435000 0.159532 0
21.440000 0.134746 0
21.445000 0.110167 0
21.450000 0.086531 0
21.455000 0.064418 0
21.460000 0.044223 0
21.465000 0.026095 0
21.470000 0.009842 0
21.475000 -0.005234 0
21.480000 -0.020534 0
21.485000 -0.038247 0
21.490000 -0.061050 0
21.495000 -0.091124 0
21.500000 -0.128508 0
21.505000 -0.169336 0
21.510000 -0.204930 0
21.515000 -0.222492 2
21.520000 -0.207204 0
21.525000 -0.144810 0
21.530000 -0.024200 0
21.535000 0.159190 0
21.540000 0.398075 0
21.545000 0.667467 0
21.550000 0.923213 0
21.555000 1.110304 0
21.560000 1.180927 3
21.565000 1.114507 0
21.570000 0.926569 0
21.575000 0.659970 0
21.580000 0.368535 0
21.585000 0.099397 0
21.590000 -0.116567 0
21.595000 -0.265282 0
21.600000 -0.345623 0
21.605000 -0.365654 4
21.610000 -0.340002 0
21.615000 -0.286984 0
21.620000 -0.224659 0
21.625000 -0.166870 0
21.630000 -0.121072 0
21.635000 -0.088721 0
21.640000 -0.067438 0
21.645000 -0.053481 0
21.650000 -0.043441 0
21.655000 -0.034927 0
21.660000 -0.026526 0
21.665000 -0.017503 0
21.670000 -0.007499 0
21.675000 0.003664 0
21.680000 0.016086 0
21.685000 0.029827 0
21.690000 0.044918 0
21.695000 0.061369 0
21.700000 0.079159 0
21.705000 0.098238 0
21.710000 0.118521 0
21.715000 0.139889 0
21.720000 0.162185 0
21.725000 0.185215 0
21.730000 0.208751 0
21.735000 0.232529 0
21.740000 0.256257 0
21.745000 0.279619 0
21.750000 0.302279 0
21.755000 0.323892 0
21.760000 0.344110 0
21.765000 0.362592 0
21.770000 0.379013 0
21.775000 0.393073 0
21.780000 0.404504 0
21.785000 0.413085 0
21.790000 0.418639 0
21.795000 0.421046 5
21.800000 0.420245 0
21.805000 0.416234 0
21.810000 0.409075 0
21.815000 0.398887 0
21.820000 0.385844 0
21.825000 0.370173 0
21.830000 0.352142 0
21.835000 0.332058 0
21.840000 0.310253 0
21.845000 0.287076 0
21.850000 0.262887 0
21.855000 0.238041 0
21.860000 0.212888 0
21.865000 0.187758 0
21.870000 0.162956 0
21.875000 0.138758 0
21.880000 0.115407 0
21.885000 0.093108 0
21.890000 0.072027 0
21.895000 0.052293 0
21.900000 0.033995 0
21.905000 0.017191 0
21.910000 0.001901 0
21.915000 -0.011882 0
21.920000 -0.024189 0
21.925000 -0.035074 0
21.930000 -0.044608 0
21.935000 -0.052875 0
21.940000 -0.059968 0
21.945000 -0.065984 0
21.950000 -0.071025 0
21.955000 -0.075192 0
21.960000 -0.078582 0
21.965000 -0.081290 0
21.970000 -0.083402 0
21.975000 -0.085002 0
21.980000 -0.086162 0
21.985000 -0.086951 0
21.990000 -0.087428 0
21.995000 -0.087644 0
22.000000 -0.087646 0
22.005000 -0.087472 0
22.010000 -0.087156 0
22.015000 -0.086726 0
22.020000 -0.086206 0
22.025000 -0.085614 0
22.030000 -0.084966 0
22.035000 -0.084276 0
22.040000 -0.083464 0
22.045000 -0.082634 0
22.050000 -0.081809 0
22.055000 -0.080988 0
22.060000 -0.080171 0
22.065000 -0.079358 0
22.070000 -0.078549 0
22.075000 -0.077745 0
22.080000 -0.076944 0
22.085000 -0.076147 0
22.090000 -0.075354 0
22.095000 -0.074565 0
22.100000 -0.073780 0
22.105000 -0.072999 0
22.110000 -0.072222 0
22.115000 -0.071449 0
22.120000 -0.070679 0
22.125000 -0.069914 0
22.130000 -0.069152 0
22.135000 -0.068394 0
22.140000 -0.067640 0
22.145000 -0.066889 0
22.150000 -0.066142 0
22.155000 -0.065399 0
22.160000 -0.064659 0
22.165000 -0.063922 0
22.170000 -0.063187 0
22.175000 -0.062454 0
22.180000 -0.061721 0
22.185000 -0.060986 0
22.190000 -0.060245 0
22.195000 -0.059493 0
22.200000 -0.058720 0
22.205000 -0.057913 0
22.210000 -0.057055 0
22.215000 -0.056116 0
22.220000 -0.055060 0
22.225000 -0.053833 0
22.230000 -0.052367 0
22.235000 -0.050570 0
22.240000 -0.048326 0
22.245000 -0.045494 0
22.250000 -0.041903 0
22.255000 -0.037355 0
22.260000 -0.031631 0
22.265000 -0.024495 0
22.270000 -0.015711 0
22.275000 -0.005057 0
22.280000 0.007651 0
22.285000 0.022538 0
22.290000 0.039639 0
22.295000 0.058881 0
22.300000 0.080054 0
22.305000 0.102801 0
22.310000 0.126616 0
22.315000 0.150845 0
22.320000 0.174720 0
22.325000 0.197383 0
22.330000 0.217943 0
22.335000 0.235529 0
22.340000 0.249349 0
22.345000 0.258754 0
22.350000 0.263279 1
22.355000 0.262691 0
22.360000 0.256999 0
22.365000 0.246459 0
22.370000 0.231555 0
22.375000 0.212959 0
22.380000 0.191480 0
22.385000 0.168010 0
22.390000 0.143456 0
22.395000 0.118690 0
22.400000 0.094493 0
22.405000 0.071516 0
22.410000 0.050250 0
22.415000 0.030978 0
22.420000 0.013720 0
22.425000 -0.001900 0
22.430000 -0.016823 0
22.435000 -0.032729 0
22.440000 -0.052011 0
22.445000 -0.077255 0
22.450000 -0.110045 0
22.455000 -0.149249 0
22.460000 -0.189515 0
22.465000 -0.220880 0
22.470000 -0.229945 2
22.475000 -0.202131 0
22.480000 -0.124146 0
22.485000 0.013469 0
22.490000 0.212631 0
22.495000 0.462229 0
22.500000 0.733043 0
22.505000 0.978261 0
22.510000 1.143914 0
22.515000 1.187388 3
22.520000 1.092682 0
22.525000 0.878823 0
22.530000 0.598483 0
22.535000 0.310615 0
22.540000 0.061346 0
22.545000 -0.123341 0
22.550000 -0.235278 0
22.555000 -0.279044 4
22.560000 -0.268170 0
22.565000 -0.221920 0
22.570000 -0.160862 0
22.575000 -0.101817 0
22.580000 -0.054497 0
22.585000 -0.021375 0
22.590000 -0.000108 0
22.595000 0.013417 0
22.600000 0.022955 0
22.605000 0.031073 0
22.610000 0.039229 0
22.615000 0.048144 0
22.620000 0.058157 0
22.625000 0.069436 0
22.630000 0.082072 0
22.635000 0.096121 0
22.640000 0.111607 0
22.645000 0.128523 0
22.650000 0.146829 0
22.655000 0.166446 0
22.660000 0.187256 0
22.665000 0.209097 0
22.670000 0.231762 0
22.675000 0.255003 0
22.680000 0.278535 0
22.685000 0.302033 0
22.690000 0.325147 0
22.695000 0.347503 0
22.700000 0.368717 0
22.705000 0.388404 0
22.710000 0.406186 0
22.715000 0.421708 0
22.720000 0.434648 0
22.725000 0.444725 0
22.730000 0.451711 0
22.735000 0.455440 0
22.740000 0.455811 5
22.745000 0.452794 0
22.750000 0.446431 0
22.755000 0.436832 0
22.760000 0.424177 0
22.765000 0.408704 0
22.770000 0.390704 0
22.775000 0.370513 0
22.780000 0.348499 0
22.785000 0.325048 0
22.790000 0.300560 0
22.795000 0.275429 0
22.800000 0.250040 0
22.805000 0.224752 0
22.810000 0.199898 0
22.815000 0.175772 0
22.820000 0.152627 0
22.825000 0.130673 0
22.830000 0.110074 0
22.835000 0.090949 0
22.840000 0.073375 0
22.845000 0.057390 0
22.850000 0.042996 0
22.855000 0.030163 0
22.860000 0.018836 0
22.865000 0.008940 0
22.870000 0.000382 0
22.875000 -0.006940 0
22.880000 -0.013134 0
22.885000 -0.018314 0
22.890000 -0.022589 0
22.895000 -0.026068 0
22.900000 -0.028852 0
22.905000 -0.031039 0
22.910000 -0.032715 0
22.915000 -0.033959 0
22.920000 -0.034841 0
22.925000 -0.035425 0
22.930000 -0.035762 0
22.935000 -0.035900 0
22.940000 -0.035877 0
22.945000 -0.035725 0
22.950000 -0.035473 0
22.955000 -0.035141 0
22.960000 -0.034748 0
22.965000 -0.034308 0
22.970000 -0.033745 0
22.975000 -0.033163 0
22.980000 -0.032585 0
22.985000 -0.032009 0
22.990000 -0.031437 0
22.995000 -0.030867 0
23.000000 -0.030300 0
23.005000 -0.029735 0
23.010000 -0.029174 0
23.015000 -0.028616 0
23.020000 -0.028060 0
23.025000 -0.027507 0
23.030000 -0.026956 0
23.035000 -0.026409 0
23.040000 -0.025864 0
23.045000 -0.025322 0
23.050000 -0.024783 0
23.055000 -0.024246 0
23.060000 -0.023712 0
23.065000 -0.023181 0
23.070000 -0.022652 0
23.075000 -0.022126 0
23.080000 -0.021602 0
23.085000 -0.021080 0
23.090000 -0.020560 0
23.095000 -0.020041 0
23.100000 -0.019522 0
23.105000 -0.019000 0
23.110000 -0.018473 0
23.115000 -0.017936 0
23.120000 -0.017379 0
23.125000 -0.016791 0
23.130000 -0.016152 0
23.135000 -0.015434 0
23.140000 -0.014596 0
23.145000 -0.013584 0
23.150000 -0.012319 0
23.155000 -0.010703 0
23.160000 -0.008604 0
23.165000 -0.005862 0
23.170000 -0.002281 0
23.175000 0.002362 0
23.180000 0.008318 0
23.185000 0.015851 0
23.190000 0.025219 0
23.195000 0.036655 0
23.200000 0.050334 0
23.205000 0.066349 0
23.210000 0.084669 0
23.215000 0.105119 0
23.220000 0.127354 0
23.225000 0.150855 0
23.230000 0.174928 0
23.235000 0.198734 0
23.240000 0.221332 0
23.245000 0.241730 0
23.250000 0.258963 0
23.255000 0.272161 0
23.260000 0.280623 0
23.265000 0.283878 1
23.270000 0.281724 0
23.275000 0.274250 0
23.280000 0.261828 0
23.285000 0.245080 0
23.290000 0.224828 0
23.295000 0.202021 0
23.300000 0.177667 0
23.305000 0.152755 0
23.310000 0.128191 0
23.315000 0.104744 0
23.320000 0.083003 0
23.325000 0.063327 0
23.330000 0.045779 0
23.335000 0.029976 0
23.340000 0.014882 0
23.345000 -0.001403 0
23.350000 -0.021580 0
23.355000 -0.048443 0
23.360000 -0.083282 0
23.365000 -0.123761 0
23.370000 -0.162333 0
23.375000 -0.186346 2
23.380000 -0.180074 0
23.385000 -0.127691 0
23.390000 -0.016290 0
23.395000 0.160392 0
23.400000 0.396078 0
23.405000 0.665021 0
23.410000 0.919848 0
23.415000 1.101046 0
23.420000 1.158156 3
23.425000 1.073802 0
23.430000 0.870994 0
23.435000 0.596742 0
23.440000 0.306352 0
23.445000 0.045739 0
23.450000 -0.156833 0
23.455000 -0.290008 0
23.460000 -0.355004 0
23.465000 -0.361941 4
23.470000 -0.327146 0
23.475000 -0.269818 0
23.480000 -0.207672 0
23.485000 -0.153121 0
23.490000 -0.111767 0
23.495000 -0.083546 0
23.500000 -0.065277 0
23.505000 -0.053094 0
23.510000 -0.043844 0
23.515000 -0.035477 0
23.520000 -0.026861 0
23.525000 -0.017427 0
23.530000 -0.006905 0
23.535000 0.004847 0
23.540000 0.017908 0
23.545000 0.032327 0
23.550000 0.048125 0
23.555000 0.065297 0
23.560000 0.083806 0
23.565000 0.103581 0
23.570000 0.124518 0
23.575000 0.146471 0
23.580000 0.169257 0
23.585000 0.192656 0
23.590000 0.216409 0
23.595000 0.240228 0
23.600000 0.263794 0
23.605000 0.286769 0
23.610000 0.308799 0
23.615000 0.329527 0
23.620000 0.348597 0
23.625000 0.365669 0
23.630000 0.380426 0
23.635000 0.392584 0
23.640000 0.401900 0
23.645000 0.408181 0
23.650000 0.411291 5
23.655000 0.411153 0
23.660000 0.407754 0
23.665000 0.401146 0
23.670000 0.391440 0
23.675000 0.378809 0
23.680000 0.363479 0
23.685000 0.345722 0
23.690000 0.325848 0
23.695000 0.304197 0
23.700000 0.281130 0
23.705000 0.257013 0
23.710000 0.232216 0
23.715000 0.207097 0
23.720000 0.181996 0
23.725000 0.157227 0
23.730000 0.133076 0
23.735000 0.109789 0
23.740000 0.087578 0
23.745000 0.066610 0
23.750000 0.047016 0
23.755000 0.028885 0
23.760000 0.012271 0
23.765000 -0.002807 0
23.770000 -0.016359 0
23.775000 -0.028423 0
23.780000 -0.039056 0
23.785000 -0.048333 0
23.790000 -0.056343 0
23.795000 -0.063183 0
23.800000 -0.068955 0
23.805000 -0.073762 0
23.810000 -0.077708 0
23.815000 -0.080892 0
23.820000 -0.083410 0
23.825000 -0.085350 0
23.830000 -0.086795 0
23.835000 -0.087817 0
23.840000 -0.088483 0
23.845000 -0.088852 0
23.850000 -0.088976 0
23.855000 -0.088897 0
23.860000 -0.088656 0
23.865000 -0.088282 0
23.870000 -0.087803 0
23.875000 -0.087241 0
23.880000 -0.086615 0
23.885000 -0.085939 0
23.890000 -0.085207 0
23.895000 -0.084369 0
23.900000 -0.083535 0
23.905000 -0.082705 0
23.910000 -0.081880 0
23.915000 -0.081058 0
23.920000 -0.080241 0
23.925000 -0.079428 0
23.930000 -0.078618 0
23.935000 -0.077813 0
23.940000 -0.077012 0
23.945000 -0.076215 0
23.950000 -0.075422 0
23.955000 -0.074633 0
23.960000 -0.073847 0
23.965000 -0.073066 0
23.970000 -0.072288 0
23.975000 -0.071515 0
23.980000 -0.070745 0
23.985000 -0.069979 0
23.990000 -0.069217 0
23.995000 -0.068459 0
24.000000 -0.067704 0
24.005000 -0.066953 0
24.010000 -0.066205 0
24.015000 -0.065460 0
24.020000 -0.064718 0
24.025000 -0.063978 0
24.030000 -0.063238 0
24.035000 -0.062496 0
24.040000 -0.061748 0
24.045000 -0.060989 0
24.050000 -0.060209 0
24.055000 -0.059397 0
24.060000 -0.058531 0
24.065000 -0.057584 0
24.070000 -0.056517 0
24.075000 -0.055275 0
24.080000 -0.053786 0
24.085000 -0.051955 0
24.090000 -0.049661 0
24.095000 -0.046755 0
24.100000 -0.043059 0
24.105000 -0.038367 0
24.110000 -0.032449 0
24.115000 -0.025063 0
24.120000 -0.015967 0
24.125000 -0.004936 0
24.130000 0.008210 0
24.135000 0.023583 0
24.140000 0.041198 0
24.145000 0.060948 0
24.150000 0.082583 0
24.155000 0.105694 0
24.160000 0.129719 0
24.165000 0.153947 0
24.170000 0.177555 0
24.175000 0.199644 0
24.180000 0.219297 0
24.185000 0.235637 0
24.190000 0.247896 0
24.195000 0.255471 0
24.200000 0.257973 1
24.205000 0.255260 0
24.210000 0.247450 0
24.215000 0.234911 0
24.220000 0.218232 0
24.225000 0.198177 0
24.230000 0.175629 0
24.235000 0.151519 0
24.240000 0.126771 0
24.245000 0.102238 0
24.250000 0.078657 0
24.255000 0.056612 0
24.260000 0.036495 0
24.265000 0.018449 0
24.270000 0.002273 0
24.275000 -0.012751 0
24.280000 -0.028054 0
24.285000 -0.045861 0
24.290000 -0.068865 0
24.295000 -0.099212 0
24.300000 -0.136818 0
24.305000 -0.177598 0
24.310000 -0.212615 0
24.315000 -0.228846 2
24.320000 -0.211361 0
24.325000 -0.145928 0
24.330000 -0.021638 0
24.335000 0.165560 0
24.340000 0.407400 0
24.345000 0.677480 0
24.350000 0.930286 0
24.355000 1.110352 0
24.360000 1.170962 3
24.365000 1.093570 0
24.370000 0.896018 0
24.375000 0.624176 0
24.380000 0.333268 0
24.385000 0.069931 0
24.390000 -0.136591 0
24.395000 -0.274091 0
24.400000 -0.343145 0
24.405000 -0.353376 4
24.410000 -0.320759 0
24.415000 -0.264381 0
24.420000 -0.202142 0
24.425000 -0.146857 0
24.430000 -0.104571 0
24.435000 -0.075539 0
24.440000 -0.056724 0
24.445000 -0.044257 0
24.450000 -0.034918 0
24.455000 -0.026581 0
24.460000 -0.018058 0
24.465000 -0.008750 0
24.470000 0.001630 0
24.475000 0.013229 0
24.480000 0.026130 0
24.485000 0.040384 0
24.490000 0.056015 0
24.495000 0.073019 0
24.500000 0.091363 0
24.505000 0.110980 0
24.510000 0.131768 0
24.515000 0.153586 0
24.520000 0.176255 0
24.525000 0.199558 0
24.530000 0.223243 0
24.535000 0.247023 0
24.540000 0.270584 0
24.545000 0.293590 0
24.550000 0.315690 0
24.555000 0.336527 0
24.560000 0.355745 0
24.565000 0.373005 0
24.570000 0.387986 0
24.575000 0.400400 0
24.580000 0.410002 0
24.585000 0.416593 0
24.590000 0.420029 0
24.595000 0.420229 5
24.600000 0.417171 0
24.605000 0.410897 0
24.610000 0.401515 0
24.615000 0.389188 0
24.620000 0.374136 0
24.625000 0.356624 0
24.630000 0.336957 0
24.635000 0.315473 0
24.640000 0.292526 0
24.645000 0.268485 0
24.650000 0.243716 0
24.655000 0.218579 0
24.660000 0.193416 0
24.665000 0.168544 0
24.670000 0.144253 0
24.675000 0.120793 0
24.680000 0.098380 0
24.685000 0.077188 0
24.690000 0.057351 0
24.695000 0.038966 0
24.700000 0.022090 0
24.705000 0.006748 0
24.710000 -0.007068 0
24.715000 -0.019389 0
24.720000 -0.030271 0
24.725000 -0.039788 0
24.730000 -0.048024 0
24.735000 -0.055076 0
24.740000 -0.061045 0
24.745000 -0.066034 0
24.750000 -0.070146 0
24.755000 -0.073482 0
24.760000 -0.076137 0
24.765000 -0.078201 0
24.770000 -0.079757 0
24.775000 -0.080879 0
24.780000 -0.081635 0
24.785000 -0.082085 0
24.790000 -0.082281 0
24.795000 -0.082268 0
24.800000 -0.082085 0
24.805000 -0.081766 0
24.810000 -0.081337 0
24.815000 -0.080821 0
24.820000 -0.080238 0
24.825000 -0.079602 0
24.830000 -0.078927 0
24.835000 -0.078140 0
24.840000 -0.077337 0
24.845000 -0.076538 0
24.850000 -0.075743 0
24.855000 -0.074952 0
24.860000 -0.074166 0
24.865000 -0.073383 0
24.870000 -0.072604 0
24.875000 -0.071828 0
24.880000 -0.071057 0
24.885000 -0.070290 0
24.890000 -0.069526 0
24.895000 -0.068766 0
24.900000 -0.068010 0
24.905000 -0.067258 0
24.910000 -0.066509 0
24.915000 -0.065765 0
24.920000 -0.065023 0
24.925000 -0.064286 0
24.930000 -0.063552 0
24.935000 -0.062822 0
24.940000 -0.062096 0
24.945000 -0.061373 0
24.950000 -0.060653 0
24.955000 -0.059936 0
24.960000 -0.059222 0
24.965000 -0.058509 0
24.970000 -0.057797 0
24.975000 -0.057084 0
24.980000 -0.056366 0
24.985000 -0.055638 0
24.990000 -0.054891 0
24.995000 -0.054115 0
25.000000 -0.053291 0
25.005000 -0.052393 0
25.010000 -0.051386 0
25.015000 -0.050217 0
25.020000 -0.048821 0
25.025000 -0.047108 0
25.030000 -0.044964 0
25.035000 -0.042248 0
25.040000 -0.038788 0
25.045000 -0.034385 0
25.050000 -0.028816 0
25.055000 -0.021841 0
25.060000 -0.013217 0
25.065000 -0.002713 0
25.070000 0.009862 0
25.075000 0.024642 0
25.080000 0.041667 0
25.085000 0.060865 0
25.090000 0.082023 0
25.095000 0.104775 0
25.100000 0.128600 0
25.105000 0.152825 0
25.110000 0.176654 0
25.115000 0.199207 0
25.120000 0.219567 0
25.125000 0.236845 0
25.130000 0.250238 0
25.135000 0.259096 0
25.140000 0.262969 1
25.145000 0.261649 0
25.150000 0.255180 0
25.155000 0.243865 0
25.160000 0.228234 0
25.165000 0.209007 0
25.170000 0.187037 0
25.175000 0.163246 0
25.180000 0.138564 0
25.185000 0.113865 0
25.190000 0.089923 0
25.195000 0.067366 0
25.200000 0.046644 0
25.205000 0.027980 0
25.210000 0.011286 0
25.215000 -0.003983 0
25.220000 -0.019030 0
25.225000 -0.035849 0
25.230000 -0.057060 0
25.235000 -0.085116 0
25.240000 -0.120792 0
25.245000 -0.161358 0
25.250000 -0.199352 0
25.255000 -0.222838 2
25.260000 -0.217228 0
25.265000 -0.167846 0
25.270000 -0.062499 0
25.275000 0.105444 0
25.280000 0.332208 0
25.285000 0.597532 0
25.290000 0.861522 0
25.295000 1.070307 0
25.300000 1.172256 3
25.305000 1.139316 0
25.310000 0.979091 0
25.315000 0.728030 0
25.320000 0.438142 0
25.325000 0.158928 0
25.330000 -0.074398 0
25.335000 -0.243559 0
25.340000 -0.344132 0
25.345000 -0.381612 4
25.350000 -0.368637 0
25.355000 -0.322440 0
25.360000 -0.261341 0
25.365000 -0.200717 0
25.370000 -0.150154 0
25.375000 -0.112989 0
25.380000 -0.087947 0
25.385000 -0.071591 0
25.390000 -0.060313 0
25.395000 -0.051349 0
25.400000 -0.042956 0
25.405000 -0.034185 0
25.410000 -0.024559 0
25.415000 -0.013846 0
25.420000 -0.001922 0
25.425000 0.011287 0
25.430000 0.025823 0
25.435000 0.041705 0
25.440000 0.058928 0
25.445000 0.077455 0
25.450000 0.097221 0
25.455000 0.118123 0
25.460000 0.140028 0
25.465000 0.162761 0
25.470000 0.186116 0
25.475000 0.209852 0
25.480000 0.233694 0
25.485000 0.257345 0
25.490000 0.280483 0
25.495000 0.302773 0
25.500000 0.323875 0
25.505000 0.343447 0
25.510000 0.361159 0
25.515000 0.376702 0
25.520000 0.389791 0
25.525000 0.400182 0
25.530000 0.407671 0
25.535000 0.412108 0
25.540000 0.413394 5
25.545000 0.411491 0
25.550000 0.406420 0
25.555000 0.398260 0
25.560000 0.387148 0
25.565000 0.373273 0
25.570000 0.356873 0
25.575000 0.338223 0
25.580000 0.317634 0
25.585000 0.295439 0
25.590000 0.271985 0
25.595000 0.247626 0
25.600000 0.222710 0
25.605000 0.197577 0
25.610000 0.172545 0
25.615000 0.147909 0
25.620000 0.123932 0
25.625000 0.100845 0
25.630000 0.078841 0
25.635000 0.058075 0
25.640000 0.038666 0
25.645000 0.020697 0
25.650000 0.004214 0
25.655000 -0.010765 0
25.660000 -0.024253 0
25.665000 -0.036285 0
25.670000 -0.046916 0
25.675000 -0.056218 0
25.680000 -0.064275 0
25.685000 -0.071179 0
25.690000 -0.077028 0
25.695000 -0.081921 0
25.700000 -0.085956 0
25.705000 -0.089231 0
25.710000 -0.091836 0
25.715000 -0.093857 0
25.720000 -0.095375 0
25.725000 -0.096463 0
25.730000 -0.097184 0
25.735000 -0.097599 0
25.740000 -0.097758 0
25.745000 -0.097705 0
25.750000 -0.097479 0
25.755000 -0.097113 0
25.760000 -0.096633 0
25.765000 -0.096064 0
25.770000 -0.095424 0
25.775000 -0.094729 0
25.780000 -0.093992 0
25.785000 -0.093206 0
25.790000 -0.092329 0
25.795000 -0.091455 0
25.800000 -0.090586 0
25.805000 -0.089721 0
25.810000 -0.088860 0
25.815000 -0.088004 0
25.820000 -0.087152 0
25.825000 -0.086304 0
25.830000 -0.085461 0
25.835000 -0.084622 0
25.840000 -0.083786 0
25.845000 -0.082956 0
25.850000 -0.082129 0
25.855000 -0.081306 0
25.860000 -0.080487 0
25.865000 -0.079673 0
25.870000 -0.078862 0
25.875000 -0.078056 0
25.880000 -0.077254 0
25.885000 -0.076455 0
25.890000 -0.075661 0
25.895000 -0.074870 0
25.900000 -0.074083 0
25.905000 -0.073300 0
25.910000 -0.072520 0
25.915000 -0.071743 0
25.920000 -0.070968 0
25.925000 -0.070194 0
25.930000 -0.069418 0
25.935000 -0.068639 0
25.940000 -0.067850 0
25.945000 -0.067044 0
25.950000 -0.066210 0
25.955000 -0.065331 0
25.960000 -0.064383 0
25.965000 -0.063333 0
25.970000 -0.062134 0
25.975000 -0.060725 0
25.980000 -0.059023 0
25.985000 -0.056925 0
25.990000 -0.054301 0
25.995000 -0.050994 0
26.000000 -0.046820 0
26.005000 -0.041571 0
26.010000 -0.035020 0
26.015000 -0.026934 0
26.020000 -0.017086 0
26.025000 -0.005276 0
26.030000 0.008647 0
26.035000 0.024762 0
26.040000 0.043049 0
26.045000 0.063365 0
26.050000 0.085432 0
26.055000 0.108821 0
26.060000 0.132960 0
26.065000 0.157147 0
26.070000 0.180577 0
26.075000 0.202385 0
26.080000 0.221695 0
26.085000 0.237682 0
26.090000 0.249622 0
26.095000 0.256953 0
26.100000 0.259315 1
26.105000 0.256579 0
26.110000 0.248859 0
26.115000 0.236502 0
26.120000 0.220065 0
26.125000 0.200269 0
26.130000 0.177949 0
26.135000 0.153995 0
26.140000 0.129293 0
26.145000 0.104671 0
26.150000 0.080858 0
26.155000 0.058443 0
26.160000 0.037845 0
26.165000 0.019265 0
26.170000 0.002614 0
26.175000 -0.012630 0
26.180000 -0.027601 0
26.185000 -0.044178 0
26.190000 -0.064852 0
26.195000 -0.092039 0
26.200000 -0.126749 0
26.205000 -0.166891 0
26.210000 -0.206019 0
26.215000 -0.233334 0
26.220000 -0.235156 2
26.225000 -0.197225 0
26.230000 -0.107069 0
26.235000 0.043403 0
26.240000 0.253937 0
26.245000 0.510408 0
26.250000 0.780509 0
26.255000 1.015847 0
26.260000 1.163819 0
26.265000 1.186149 3
26.270000 1.073106 0
26.275000 0.848786 0
26.280000 0.565403 0
26.285000 0.278846 0
26.290000 0.031999 0
26.295000 -0.151176 0
26.300000 -0.263202 0
26.305000 -0.308445 4
26.310000 -0.299659 0
26.315000 -0.255075 0
26.320000 -0.194438 0
26.325000 -0.134346 0
26.330000 -0.084941 0
26.335000 -0.049445 0
26.340000 -0.026149 0
26.345000 -0.011235 0
26.350000 -0.000940 0
26.355000 0.007470 0
26.360000 0.015623 0
26.365000 0.024365 0
26.370000 0.034101 0
26.375000 0.045028 0
26.380000 0.057252 0
26.385000 0.070838 0
26.390000 0.085819 0
26.395000 0.102202 0
26.400000 0.119963 0
26.405000 0.139044 0
26.410000 0.159351 0
26.415000 0.180749 0
26.420000 0.203065 0
26.425000 0.226084 0
26.430000 0.249553 0
26.435000 0.273183 0
26.440000 0.296656 0
26.445000 0.319627 0
26.450000 0.341737 0
26.455000 0.362617 0
26.460000 0.381900 0
26.465000 0.399231 0
26.470000 0.414277 0
26.475000 0.426738 0
26.480000 0.436356 0
26.485000 0.442924 0
26.490000 0.446291 0
26.495000 0.446370 5
26.500000 0.443140 0
26.505000 0.436645 0
26.510000 0.426996 0
26.515000 0.414365 0
26.520000 0.398981 0
26.525000 0.381123 0
26.530000 0.361108 0
26.535000 0.339287 0
26.540000 0.316028 0
26.545000 0.291712 0
26.550000 0.266716 0
26.555000 0.241410 0
26.560000 0.216143 0
26.565000 0.191236 0
26.570000 0.166980 0
26.575000 0.143625 0
26.580000 0.121383 0
26.585000 0.100423 0
26.590000 0.080872 0
26.595000 0.062818 0
26.600000 0.046308 0
26.605000 0.031357 0
26.610000 0.017948 0
26.615000 0.006038 0
26.620000 -0.004437 0
26.625000 -0.013559 0
26.630000 -0.021420 0
26.635000 -0.028122 0
26.640000 -0.033771 0
26.645000 -0.038474 0
26.650000 -0.042336 0
26.655000 -0.045459 0
26.660000 -0.047937 0
26.665000 -0.049861 0
26.670000 -0.051310 0
26.675000 -0.052358 0
26.680000 -0.053070 0
26.685000 -0.053503 0
26.690000 -0.053707 0
26.695000 -0.053723 0
26.700000 -0.053589 0
26.705000 -0.053334 0
26.710000 -0.052983 0
26.715000 -0.052558 0
26.720000 -0.052074 0
26.725000 -0.051546 0
26.730000 -0.050897 0
26.735000 -0.050230 0
26.740000 -0.049566 0
26.745000 -0.048906 0
26.750000 -0.048249 0
26.755000 -0.047595 0
26.760000 -0.046945 0
26.765000 -0.046298 0
26.770000 -0.045654 0
26.775000 -0.045013 0
26.780000 -0.044375 0
26.785000 -0.043741 0
26.790000 -0.043110 0
26.795000 -0.042482 0
26.800000 -0.041857 0
26.805000 -0.041235 0
26.810000 -0.040616 0
26.815000 -0.040001 0
26.820000 -0.039388 0
26.825000 -0.038778 0
26.830000 -0.038172 0
26.835000 -0.037568 0
26.840000 -0.036967 0
26.845000 -0.036369 0
26.850000 -0.035773 0
26.855000 -0.035180 0
26.860000 -0.034587 0
26.865000 -0.033993 0
26.870000 -0.033397 0
26.875000 -0.032795 0
26.880000 -0.032180 0
26.885000 -0.031543 0
26.890000 -0.030871 0
26.895000 -0.030144 0
26.900000 -0.029331 0
26.905000 -0.028391 0
26.910000 -0.027267 0
26.915000 -0.025882 0
26.920000 -0.024136 0
26.925000 -0.021900 0
26.930000 -0.019016 0
26.935000 -0.015296 0
26.940000 -0.010523 0
26.945000 -0.004458 0
26.950000 0.003152 0
26.955000 0.012552 0
26.960000 0.023966 0
26.965000 0.037564 0
26.970000 0.053438 0
26.975000 0.071573 0
26.980000 0.091814 0
26.985000 0.113857 0
26.990000 0.137228 0
26.995000 0.161296 0
27.000000 0.185283 0
27.005000 0.208308 0
27.010000 0.229431 0
27.015000 0.247716 0
27.020000 0.262298 0
27.025000 0.272453 0
27.030000 0.277650 1
27.035000 0.277601 0
27.040000 0.272286 0
27.045000 0.261953 0
27.050000 0.247099 0
27.055000 0.228429 0
27.060000 0.206803 0
27.065000 0.183163 0
27.070000 0.158473 0
27.075000 0.133648 0
27.080000 0.109502 0
27.085000 0.086703 0
27.090000 0.065734 0
27.095000 0.046847 0
27.100000 0.029976 0
27.105000 0.014582 0
27.110000 -0.000548 0
27.115000 -0.017464 0
27.120000 -0.038865 0
27.125000 -0.067266 0
27.130000 -0.103371 0
27.135000 -0.144139 0
27.140000 -0.181539 0
27.145000 -0.202946 2
27.150000 -0.193179 0
27.155000 -0.137248 0
27.160000 -0.023108 0
27.165000 0.154870 0
27.170000 0.390433 0
27.175000 0.659097 0
27.180000 0.916087 0
27.185000 1.104646 0
27.190000 1.175066 3
27.195000 1.104896 0
27.200000 0.909545 0
27.205000 0.637256 0
27.210000 0.346685 0
27.215000 0.086759 0
27.220000 -0.112823 0
27.225000 -0.240704 0
27.230000 -0.299010 0
27.235000 -0.299323 4
27.240000 -0.259629 0
27.245000 -0.200354 0
27.250000 -0.139417 0
27.255000 -0.088344 0
27.260000 -0.051309 0
27.265000 -0.026986 0
27.270000 -0.011543 0
27.275000 -0.001043 0
27.280000 0.007415 0
27.285000 0.015560 0
27.290000 0.024287 0
27.295000 0.034021 0
27.300000 0.044966 0
27.305000 0.057232 0
27.310000 0.070884 0
27.315000 0.085955 0
27.320000 0.102451 0
27.325000 0.120344 0
27.330000 0.139571 0
27.335000 0.160032 0
27.340000 0.181581 0
27.345000 0.204034 0
27.350000 0.227164 0
27.355000 0.250702 0
27.360000 0.274344 0
27.365000 0.297757 0
27.370000 0.320580 0
27.375000 0.342440 0
27.380000 0.362954 0
27.385000 0.381747 0
27.390000 0.398458 0
27.395000 0.412751 0
27.400000 0.424331 0
27.405000 0.432947 0
27.410000 0.438403 0
27.415000 0.440569 5
27.420000 0.439378 0
27.425000 0.434835 0
27.430000 0.427015 0
27.435000 0.416058 0
27.440000 0.402168 0
27.445000 0.385607 0
27.450000 0.366681 0
27.455000 0.345735 0
27.460000 0.323143 0
27.465000 0.299291 0
27.470000 0.274572 0
27.475000 0.249372 0
27.480000 0.224061 0
27.485000 0.198984 0
27.490000 0.174454 0
27.495000 0.150746 0
27.500000 0.128093 0
27.505000 0.106685 0
27.510000 0.086670 0
27.515000 0.068149 0
27.520000 0.051185 0
27.525000 0.035802 0
27.530000 0.021991 0
27.535000 0.009715 0
27.540000 -0.001086 0
27.545000 -0.010494 0
27.550000 -0.018603 0
27.555000 -0.025515 0
27.560000 -0.031338 0
27.565000 -0.036185 0
27.570000 -0.040162 0
27.575000 -0.043376 0
27.580000 -0.045925 0
27.585000 -0.047902 0
27.590000 -0.049391 0
27.595000 -0.050469 0
27.600000 -0.051203 0
27.605000 -0.051651 0
27.610000 -0.051865 0
27.615000 -0.051890 0
27.620000 -0.051761 0
27.625000 -0.051511 0
27.630000 -0.051165 0
27.635000 -0.050744 0
27.640000 -0.050265 0
27.645000 -0.049742 0
27.650000 -0.049101 0
27.655000 -0.048443 0
27.660000 -0.047788 0
27.665000 -0.047137 0
27.670000 -0.046488 0
27.675000 -0.045843 0
27.680000 -0.045202 0
27.685000 -0.044563 0
27.690000 -0.043928 0
27.695000 -0.043296 0
27.700000 -0.042667 0
27.705000 -0.042041 0
27.710000 -0.041418 0
27.715000 -0.040798 0
27.720000 -0.040182 0
27.725000 -0.039568 0
27.730000 -0.038958 0
27.735000 -0.038351 0
27.740000 -0.037746 0
27.745000 -0.037145 0
27.750000 -0.036546 0
27.755000 -0.035951 0
27.760000 -0.035358 0
27.765000 -0.034768 0
27.770000 -0.034179 0
27.775000 -0.033592 0
27.780000 -0.033006 0
27.785000 -0.032418 0
27.790000 -0.031825 0
27.795000 -0.031222 0
27.800000 -0.030602 0
27.805000 -0.029952 0
27.810000 -0.029254 0
27.815000 -0.028481 0
27.820000 -0.027597 0
27.825000 -0.026546 0
27.830000 -0.025258 0
27.835000 -0.023636 0
27.840000 -0.021558 0
27.845000 -0.018868 0
27.850000 -0.015380 0
27.855000 -0.010879 0
27.860000 -0.005120 0
27.865000 0.002153 0
27.870000 0.011199 0
27.875000 0.022253 0
27.880000 0.035503 0
27.885000 0.051058 0
27.890000 0.068919 0
27.895000 0.088948 0
27.900000 0.110847 0
27.905000 0.134143 0
27.910000 0.158196 0
27.915000 0.182214 0
27.920000 0.205290 0
27.925000 0.226456 0
27.930000 0.244746 0
27.935000 0.259269 0
27.940000 0.269277 0
27.945000 0.274234 1
27.950000 0.273854 0
27.955000 0.268135 0
27.960000 0.257353 0
27.965000 0.242045 0
27.970000 0.222958 0
27.975000 0.200995 0
27.980000 0.177134 0
27.985000 0.152366 0
27.990000 0.127620 0
27.995000 0.103710 0
28.000000 0.081289 0
28.005000 0.060807 0
28.010000 0.042456 0
28.015000 0.026059 0
28.020000 0.010896 0
28.025000 -0.004528 0
28.030000 -0.022572 0
28.035000 -0.046093 0
28.040000 -0.077270 0
28.045000 -0.115689 0
28.050000 -0.156400 0
28.055000 -0.189158 0
28.060000 -0.199579 2
28.065000 -0.171743 0
28.070000 -0.091136 0
28.075000 0.052259 0
28.080000 0.259415 0
28.085000 0.515614 0
28.090000 0.785016 0
28.095000 1.013332 0
28.100000 1.143012 3
28.105000 1.136146 0
28.110000 0.993125 0
28.115000 0.751017 0
28.120000 0.462863 0
28.125000 0.181144 0
28.130000 -0.055980 0
28.135000 -0.228352 0
28.140000 -0.330767 0
28.145000 -0.368694 4
28.150000 -0.355226 0
28.155000 -0.308318 0
28.160000 -0.246975 0
28.165000 -0.186913 0
28.170000 -0.137611 0
28.175000 -0.101998 0
28.180000 -0.078377 0
28.185000 -0.063056 0
28.190000 -0.052380 0
28.195000 -0.043662 0
28.200000 -0.035275 0
28.205000 -0.026361 0
28.210000 -0.016501 0
28.215000 -0.005489 0
28.220000 0.006785 0
28.225000 0.020387 0
28.230000 0.035353 0
28.235000 0.051696 0
28.240000 0.069397 0
28.245000 0.088409 0
28.250000 0.108648 0
28.255000 0.129995 0
28.260000 0.152292 0
28.265000 0.175343 0
28.270000 0.198914 0
28.275000 0.222737 0
28.280000 0.246514 0
28.285000 0.269921 0
28.290000 0.292614 0
28.295000 0.314241 0
28.300000 0.334444 0
28.305000 0.352876 0
28.310000 0.369203 0
28.315000 0.383122 0
28.320000 0.394363 0
28.325000 0.402700 0
28.330000 0.407960 0
28.335000 0.410027 5
28.340000 0.408843 0
28.345000 0.404418 0
