0.000000 1.161143 3
0.005000 1.054522 0
0.010000 0.785287 0
0.015000 0.437412 0
0.020000 0.100184 0
0.025000 -0.164998 0
0.030000 -0.331665 0
0.035000 -0.400000 4
0.040000 -0.388056 0
0.045000 -0.325106 0
0.050000 -0.243059 0
0.055000 -0.166574 0
0.060000 -0.107385 0
0.065000 -0.065721 0
0.070000 -0.035997 0
0.075000 -0.012068 0
0.080000 0.010305 0
0.085000 0.033293 0
0.090000 0.057719 0
0.095000 0.083730 0
0.100000 0.111171 0
0.105000 0.139741 0
0.110000 0.169045 0
0.115000 0.198618 0
0.120000 0.227931 0
0.125000 0.256413 0
0.130000 0.283462 0
0.135000 0.308470 0
0.140000 0.330842 0
0.145000 0.350021 0
0.150000 0.365509 0
0.155000 0.376892 0
0.160000 0.383852 0
0.165000 0.386187 5
0.170000 0.383819 0
0.175000 0.376794 0
0.180000 0.365288 0
0.185000 0.349590 0
0.190000 0.330100 0
0.195000 0.307302 0
0.200000 0.281751 0
0.205000 0.254046 0
0.210000 0.224812 0
0.215000 0.194669 0
0.220000 0.164217 0
0.225000 0.134015 0
0.230000 0.104565 0
0.235000 0.076301 0
0.240000 0.049580 0
0.245000 0.024680 0
0.250000 0.001799 0
0.255000 -0.018942 0
0.260000 -0.037491 0
0.265000 -0.053857 0
0.270000 -0.068102 0
0.275000 -0.080331 0
0.280000 -0.090678 0
0.285000 -0.099302 0
0.290000 -0.106371 0
0.295000 -0.112061 0
0.300000 -0.116544 0
0.305000 -0.119987 0
0.310000 -0.122545 0
0.315000 -0.124360 0
0.320000 -0.125560 0
0.325000 -0.126256 0
0.330000 -0.126545 0
0.335000 -0.126356 0
0.340000 -0.125260 0
0.345000 -0.124169 0
0.350000 -0.123084 0
0.355000 -0.122004 0
0.360000 -0.120929 0
0.365000 -0.119860 0
0.370000 -0.118796 0
0.375000 -0.117737 0
0.380000 -0.116683 0
0.385000 -0.115633 0
0.390000 -0.114587 0
0.395000 -0.113543 0
0.400000 -0.112498 0
0.405000 -0.111448 0
0.410000 -0.110382 0
0.415000 -0.109289 0
0.420000 -0.108145 0
0.425000 -0.106913 0
0.430000 -0.105540 0
0.435000 -0.103945 0
0.440000 -0.102015 0
0.445000 -0.099590 0
0.450000 -0.096462 0
0.455000 -0.092365 0
0.460000 -0.086974 0
0.465000 -0.079914 0
0.470000 -0.070775 0
0.475000 -0.059144 0
0.480000 -0.044650 0
0.485000 -0.027018 0
0.490000 -0.006133 0
0.495000 0.017896 0
0.500000 0.044683 0
0.505000 0.073531 0
0.510000 0.103433 0
0.515000 0.133106 0
0.520000 0.161073 0
0.525000 0.185779 0
0.530000 0.205729 0
0.535000 0.219641 0
0.540000 0.226579 1
0.545000 0.226062 0
0.550000 0.218117 0
0.555000 0.203278 0
0.560000 0.182528 0
0.565000 0.157194 0
0.570000 0.128802 0
0.575000 0.098920 0
0.580000 0.068998 0
0.585000 0.040162 0
0.590000 0.012930 0
0.595000 -0.013227 0
0.600000 -0.040385 0
0.605000 -0.072233 0
0.610000 -0.112775 0
0.615000 -0.163094 0
0.620000 -0.217179 0
0.625000 -0.259621 0
0.630000 -0.267514 2
0.635000 -0.215769 0
0.640000 -0.083206 0
0.645000 0.140185 0
0.650000 0.441611 0
0.655000 0.772505 0
0.660000 1.049333 0
0.665000 1.182006 3
0.670000 1.115478 0
0.675000 0.869281 0
0.680000 0.526723 0
0.685000 0.184784 0
0.690000 -0.087039 0
0.695000 -0.257903 0
0.700000 -0.327020 4
0.705000 -0.313550 0
0.710000 -0.248916 0
0.715000 -0.166924 0
0.720000 -0.092682 0
0.725000 -0.036908 0
0.730000 0.001578 0
0.735000 0.029178 0
0.740000 0.052092 0
0.745000 0.074217 0
0.750000 0.097358 0
0.755000 0.122095 0
0.760000 0.148437 0
0.765000 0.176147 0
0.770000 0.204856 0
0.775000 0.234105 0
0.780000 0.263360 0
0.785000 0.292031 0
0.790000 0.319486 0
0.795000 0.345074 0
0.800000 0.368153 0
0.805000 0.388109 0
0.810000 0.404391 0
0.815000 0.416529 0
0.820000 0.424157 0
0.825000 0.427036 5
0.830000 0.425057 0
0.835000 0.418255 0
0.840000 0.406801 0
0.845000 0.391000 0
0.850000 0.371272 0
0.855000 0.348136 0
0.860000 0.322188 0
0.865000 0.294070 0
0.870000 0.264448 0
0.875000 0.233985 0
0.880000 0.203315 0
0.885000 0.173022 0
0.890000 0.143628 0
0.895000 0.115573 0
0.900000 0.089213 0
0.905000 0.064816 0
0.910000 0.042561 0
0.915000 0.022549 0
0.920000 0.004803 0
0.925000 -0.010715 0
0.930000 -0.024093 0
0.935000 -0.035465 0
0.940000 -0.044987 0
0.945000 -0.052837 0
0.950000 -0.059201 0
0.955000 -0.064264 0
0.960000 -0.068207 0
0.965000 -0.071198 0
0.970000 -0.073392 0
0.975000 -0.074928 0
0.980000 -0.075929 0
0.985000 -0.076498 0
0.990000 -0.076570 0
0.995000 -0.075723 0
1.000000 -0.074879 0
1.005000 -0.074039 0
1.010000 -0.073204 0
1.015000 -0.072373 0
1.020000 -0.071546 0
1.025000 -0.070723 0
1.030000 -0.069904 0
1.035000 -0.069088 0
1.040000 -0.068275 0
1.045000 -0.067465 0
1.050000 -0.066654 0
1.055000 -0.065839 0
1.060000 -0.065014 0
1.065000 -0.064167 0
1.070000 -0.063280 0
1.075000 -0.062321 0
1.080000 -0.061243 0
1.085000 -0.059974 0
1.090000 -0.058405 0
1.095000 -0.056388 0
1.100000 -0.053718 0
1.105000 -0.050128 0
1.110000 -0.045290 0
1.115000 -0.038811 0
1.120000 -0.030261 0
1.125000 -0.019196 0
1.130000 -0.005209 0
1.135000 0.012005 0
1.140000 0.032585 0
1.145000 0.056422 0
1.150000 0.083104 0
1.155000 0.111874 0
1.160000 0.141635 0
1.165000 0.170991 0
1.170000 0.198347 0
1.175000 0.222039 0
1.180000 0.240505 0
1.185000 0.252450 0
1.190000 0.256996 1
1.195000 0.253789 0
1.200000 0.243044 0
1.205000 0.225519 0
1.210000 0.202427 0
1.215000 0.175296 0
1.220000 0.145800 0
1.225000 0.115571 0
1.230000 0.085999 0
1.235000 0.057959 0
1.240000 0.031386 0
1.245000 0.004697 0
1.250000 -0.025543 0
1.255000 -0.063756 0
1.260000 -0.112291 0
1.265000 -0.166722 0
1.270000 -0.212483 0
1.275000 -0.226074 2
1.280000 -0.180663 0
1.285000 -0.053031 0
1.290000 0.168343 0
1.295000 0.470316 0
1.300000 0.800429 0
1.305000 1.068433 0
1.310000 1.180043 3
1.315000 1.090209 0
1.320000 0.830549 0
1.325000 0.484750 0
1.330000 0.145210 0
1.335000 -0.123327 0
1.340000 -0.292492 0
1.345000 -0.361930 4
1.350000 -0.349992 0
1.355000 -0.286707 0
1.360000 -0.204736 0
1.365000 -0.129024 0
1.370000 -0.071044 0
1.375000 -0.030557 0
1.380000 -0.001668 0
1.385000 0.021815 0
1.390000 0.044025 0
1.395000 0.067006 0
1.400000 0.091492 0
1.405000 0.117575 0
1.410000 0.145070 0
1.415000 0.173651 0
1.420000 0.202899 0
1.425000 0.232324 0
1.430000 0.261373 0
1.435000 0.289452 0
1.440000 0.315941 0
1.445000 0.340215 0
1.450000 0.361672 0
1.455000 0.379755 0
1.460000 0.393973 0
1.465000 0.403928 0
1.470000 0.409329 0
1.475000 0.410006 5
1.480000 0.405922 0
1.485000 0.397168 0
1.490000 0.383967 0
1.495000 0.366660 0
1.500000 0.345689 0
1.505000 0.321585 0
1.510000 0.294936 0
1.515000 0.266372 0
1.520000 0.236534 0
1.525000 0.206051 0
1.530000 0.175523 0
1.535000 0.145496 0
1.540000 0.116455 0
1.545000 0.088804 0
1.550000 0.062871 0
1.555000 0.038897 0
1.560000 0.017043 0
1.565000 -0.002606 0
1.570000 -0.020034 0
1.575000 -0.035282 0
1.580000 -0.048440 0
1.585000 -0.059636 0
1.590000 -0.069022 0
1.595000 -0.076770 0
1.600000 -0.083057 0
1.605000 -0.088062 0
1.610000 -0.091959 0
1.615000 -0.094910 0
1.620000 -0.097067 0
1.625000 -0.098563 0
1.630000 -0.099519 0
1.635000 -0.100037 0
1.640000 -0.100042 0
1.645000 -0.099077 0
1.650000 -0.098117 0
1.655000 -0.097161 0
1.660000 -0.096211 0
1.665000 -0.095265 0
1.670000 -0.094324 0
1.675000 -0.093387 0
1.680000 -0.092455 0
1.685000 -0.091527 0
1.690000 -0.090603 0
1.695000 -0.089682 0
1.700000 -0.088763 0
1.705000 -0.087842 0
1.710000 -0.086915 0
1.715000 -0.085974 0
1.720000 -0.085003 0
1.725000 -0.083982 0
1.730000 -0.082872 0
1.735000 -0.081619 0
1.740000 -0.080139 0
1.745000 -0.078315 0
1.750000 -0.075984 0
1.755000 -0.072929 0
1.760000 -0.068873 0
1.765000 -0.063479 0
1.770000 -0.056358 0
1.775000 -0.047089 0
1.780000 -0.035250 0
1.785000 -0.020468 0
1.790000 -0.002478 0
1.795000 0.018807 0
1.800000 0.043234 0
1.805000 0.070356 0
1.810000 0.099398 0
1.815000 0.129265 0
1.820000 0.158595 0
1.825000 0.185842 0
1.830000 0.209410 0
1.835000 0.227808 0
1.840000 0.239798 0
1.845000 0.244539 1
1.850000 0.241684 0
1.855000 0.231418 0
1.860000 0.214443 0
1.865000 0.191894 0
1.870000 0.165218 0
1.875000 0.136016 0
1.880000 0.105871 0
1.885000 0.076172 0
1.890000 0.047873 0
1.895000 0.021135 0
1.900000 -0.005195 0
1.905000 -0.034005 0
1.910000 -0.069497 0
1.915000 -0.114921 0
1.920000 -0.168464 0
1.925000 -0.219373 0
1.930000 -0.247526 2
1.935000 -0.227520 0
1.940000 -0.134927 0
1.945000 0.047003 0
1.950000 0.317524 0
1.955000 0.644166 0
1.960000 0.954839 0
1.965000 1.154728 0
1.970000 1.170229 3
1.975000 0.989756 0
1.980000 0.673055 0
1.985000 0.320721 0
1.990000 0.018021 0
1.995000 -0.189270 0
2.000000 -0.290923 0
2.005000 -0.300743 4
2.010000 -0.247999 0
2.015000 -0.167998 0
2.020000 -0.090105 0
2.025000 -0.029452 0
2.030000 0.012605 0
2.035000 0.041972 0
2.040000 0.065381 0
2.045000 0.087379 0
2.050000 0.110184 0
2.055000 0.134563 0
2.060000 0.160595 0
2.065000 0.188060 0
2.070000 0.216595 0
2.075000 0.245737 0
2.080000 0.274943 0
2.085000 0.303609 0
2.090000 0.331088 0
2.095000 0.356708 0
2.100000 0.379807 0
2.105000 0.399751 0
2.110000 0.415970 0
2.115000 0.427981 0
2.120000 0.435409 0
2.125000 0.438009 5
2.130000 0.435677 0
2.135000 0.428457 0
2.140000 0.416536 0
2.145000 0.400238 0
2.150000 0.380009 0
2.155000 0.356395 0
2.160000 0.330015 0
2.165000 0.301539 0
2.170000 0.271652 0
2.175000 0.241034 0
2.180000 0.210330 0
2.185000 0.180130 0
2.190000 0.150952 0
2.195000 0.123231 0
2.200000 0.097309 0
2.205000 0.073437 0
2.210000 0.051777 0
2.215000 0.032407 0
2.220000 0.015331 0
2.225000 0.000490 0
2.230000 -0.012224 0
2.235000 -0.022958 0
2.240000 -0.031883 0
2.245000 -0.039185 0
2.250000 -0.045058 0
2.255000 -0.049691 0
2.260000 -0.053264 0
2.265000 -0.055945 0
2.270000 -0.057886 0
2.275000 -0.059222 0
2.280000 -0.060070 0
2.285000 -0.060530 0
2.290000 -0.059938 0
2.295000 -0.059173 0
2.300000 -0.058412 0
2.305000 -0.057655 0
2.310000 -0.056901 0
2.315000 -0.056151 0
2.320000 -0.055405 0
2.325000 -0.054662 0
2.330000 -0.053923 0
2.335000 -0.053187 0
2.340000 -0.052452 0
2.345000 -0.051717 0
2.350000 -0.050980 0
2.355000 -0.050233 0
2.360000 -0.049468 0
2.365000 -0.048666 0
2.370000 -0.047800 0
2.375000 -0.046824 0
2.380000 -0.045669 0
2.385000 -0.044233 0
2.390000 -0.042368 0
2.395000 -0.039874 0
2.400000 -0.036485 0
2.405000 -0.031869 0
2.410000 -0.025630 0
2.415000 -0.017325 0
2.420000 -0.006497 0
2.425000 0.007276 0
2.430000 0.024317 0
2.435000 0.044775 0
2.440000 0.068543 0
2.445000 0.095197 0
2.450000 0.123953 0
2.455000 0.153671 0
2.460000 0.182903 0
2.465000 0.209996 0
2.470000 0.233239 0
2.475000 0.251039 0
2.480000 0.262099 0
2.485000 0.265575 1
2.490000 0.261179 0
2.495000 0.249217 0
2.500000 0.230554 0
2.505000 0.206509 0
2.510000 0.178699 0
2.515000 0.148855 0
2.520000 0.118621 0
2.525000 0.089331 0
2.530000 0.061689 0
2.535000 0.035265 0
2.540000 0.007888 0
2.545000 -0.024465 0
2.550000 -0.066119 0
2.555000 -0.117721 0
2.560000 -0.171304 0
2.565000 -0.208123 2
2.570000 -0.201879 0
2.575000 -0.125547 0
2.580000 0.041089 0
2.585000 0.301139 0
2.590000 0.624803 0
2.595000 0.938500 0
2.600000 1.141220 0
2.605000 1.153445 3
2.610000 0.968055 0
2.615000 0.652061 0
2.620000 0.299141 0
2.625000 -0.009972 0
2.630000 -0.229690 0
2.635000 -0.347254 0
2.640000 -0.372629 4
2.645000 -0.330836 0
2.650000 -0.254398 0
2.655000 -0.173158 0
2.660000 -0.105551 0
2.665000 -0.056643 0
2.670000 -0.022625 0
2.675000 0.003007 0
2.680000 0.025538 0
2.685000 0.047999 0
2.690000 0.071694 0
2.695000 0.096984 0
2.700000 0.123804 0
2.705000 0.151890 0
2.710000 0.180874 0
2.715000 0.210301 0
2.720000 0.239654 0
2.725000 0.268362 0
2.730000 0.295818 0
2.735000 0.321400 0
2.740000 0.344494 0
2.745000 0.364517 0
2.750000 0.380942 0
2.755000 0.393321 0
2.760000 0.401302 0
2.765000 0.404648 5
2.770000 0.403248 0
2.775000 0.397122 0
2.780000 0.386419 0
2.785000 0.371413 0
2.790000 0.352490 0
2.795000 0.330132 0
2.800000 0.304892 0
2.805000 0.277379 0
2.810000 0.248226 0
2.815000 0.218070 0
2.820000 0.187526 0
2.825000 0.157173 0
2.830000 0.127528 0
2.835000 0.099043 0
2.840000 0.072090 0
2.845000 0.046959 0
2.850000 0.023857 0
2.855000 0.002913 0
2.860000 -0.015817 0
2.865000 -0.032341 0
2.870000 -0.046720 0
2.875000 -0.059060 0
2.880000 -0.069500 0
2.885000 -0.078200 0
2.890000 -0.085333 0
2.895000 -0.091078 0
2.900000 -0.095611 0
2.905000 -0.099101 0
2.910000 -0.101706 0
2.915000 -0.103571 0
2.920000 -0.104824 0
2.925000 -0.105578 0
2.930000 -0.105930 0
2.935000 -0.105130 0
2.940000 -0.104140 0
2.945000 -0.103155 0
2.950000 -0.102174 0
2.955000 -0.101198 0
2.960000 -0.100228 0
2.965000 -0.099262 0
2.970000 -0.098300 0
2.975000 -0.097344 0
2.980000 -0.096391 0
2.985000 -0.095443 0
2.990000 -0.094497 0
2.995000 -0.093551 0
3.000000 -0.092604 0
3.005000 -0.091648 0
3.010000 -0.090674 0
3.015000 -0.089665 0
3.020000 -0.088595 0
3.025000 -0.087421 0
3.030000 -0.086081 0
3.035000 -0.084482 0
3.040000 -0.082494 0
3.045000 -0.079937 0
3.050000 -0.076578 0
3.055000 -0.072123 0
3.060000 -0.066219 0
3.065000 -0.058466 0
3.070000 -0.048439 0
3.075000 -0.035730 0
3.080000 -0.019991 0
3.085000 -0.001005 0
3.090000 0.021252 0
3.095000 0.046545 0
3.100000 0.074336 0
3.105000 0.103760 0
3.110000 0.133644 0
3.115000 0.162569 0
3.120000 0.188967 0
3.125000 0.211265 0
3.130000 0.228030 0
3.135000 0.238129 0
3.140000 0.240851 1
3.145000 0.235990 0
3.150000 0.223874 0
3.155000 0.205326 0
3.160000 0.181571 0
3.165000 0.154105 0
3.170000 0.124533 0
3.175000 0.094402 0
3.180000 0.065008 0
3.185000 0.037144 0
3.190000 0.010697 0
3.195000 -0.015884 0
3.200000 -0.045887 0
3.205000 -0.083557 0
3.210000 -0.131339 0
3.215000 -0.185586 0
3.220000 -0.233262 0
3.225000 -0.252614 2
3.230000 -0.218011 0
3.235000 -0.106249 0
3.240000 0.096464 0
3.245000 0.383610 0
3.250000 0.714223 0
3.255000 1.009030 0
3.260000 1.173922 3
3.265000 1.145313 0
3.270000 0.928091 0
3.275000 0.596343 0
3.280000 0.247466 0
3.285000 -0.042427 0
3.290000 -0.235344 0
3.295000 -0.325230 0
3.300000 -0.327479 4
3.305000 -0.271259 0
3.310000 -0.190532 0
3.315000 -0.112934 0
3.320000 -0.052472 0
3.325000 -0.010245 0
3.330000 0.019440 0
3.335000 0.043094 0
3.340000 0.065195 0
3.345000 0.087990 0
3.350000 0.112295 0
3.355000 0.138227 0
3.360000 0.165601 0
3.365000 0.194081 0
3.370000 0.223237 0
3.375000 0.252561 0
3.380000 0.281483 0
3.385000 0.309386 0
3.390000 0.335632 0
3.395000 0.359577 0
3.400000 0.380603 0
3.405000 0.398141 0
3.410000 0.411698 0
3.415000 0.420876 0
3.420000 0.425393 5
3.425000 0.425099 0
3.430000 0.419977 0
3.435000 0.410151 0
3.440000 0.395877 0
3.445000 0.377533 0
3.450000 0.355598 0
3.455000 0.330639 0
3.460000 0.303275 0
3.465000 0.274161 0
3.470000 0.243958 0
3.475000 0.213307 0
3.480000 0.182808 0
3.485000 0.153004 0
3.490000 0.124365 0
3.495000 0.097278 0
3.500000 0.072043 0
3.505000 0.048876 0
3.510000 0.027908 0
3.515000 0.009193 0
3.520000 -0.007280 0
3.525000 -0.021580 0
3.530000 -0.033820 0
3.535000 -0.044145 0
3.540000 -0.052725 0
3.545000 -0.059740 0
3.550000 -0.065374 0
3.555000 -0.069810 0
3.560000 -0.073220 0
3.565000 -0.075766 0
3.570000 -0.077591 0
3.575000 -0.078825 0
3.580000 -0.079582 0
3.585000 -0.079955 0
3.590000 -0.079269 0
3.595000 -0.078408 0
3.600000 -0.077551 0
3.605000 -0.076698 0
3.610000 -0.075849 0
3.615000 -0.075005 0
3.620000 -0.074165 0
3.625000 -0.073329 0
3.630000 -0.072496 0
3.635000 -0.071667 0
3.640000 -0.070841 0
3.645000 -0.070016 0
3.650000 -0.069190 0
3.655000 -0.068357 0
3.660000 -0.067510 0
3.665000 -0.066635 0
3.670000 -0.065709 0
3.675000 -0.064695 0
3.680000 -0.063537 0
3.685000 -0.062151 0
3.690000 -0.060414 0
3.695000 -0.058159 0
3.700000 -0.055161 0
3.705000 -0.051132 0
3.710000 -0.045721 0
3.715000 -0.038525 0
3.720000 -0.029106 0
3.725000 -0.017034 0
3.730000 -0.001932 0
3.735000 0.016451 0
3.740000 0.038177 0
3.745000 0.063041 0
3.750000 0.090523 0
3.755000 0.119761 0
3.760000 0.149565 0
3.765000 0.178477 0
3.770000 0.204879 0
3.775000 0.227139 0
3.780000 0.243772 0
3.785000 0.253606 0
3.790000 0.255918 1
3.795000 0.250518 0
3.800000 0.237779 0
3.805000 0.218588 0
3.810000 0.194250 0
3.815000 0.166332 0
3.820000 0.136501 0
3.825000 0.106329 0
3.830000 0.077095 0
3.835000 0.049479 0
3.840000 0.023102 0
3.845000 -0.004036 0
3.850000 -0.035717 0
3.855000 -0.076202 0
3.860000 -0.126731 0
3.865000 -0.180880 0
3.870000 -0.222036 0
3.875000 -0.225678 2
3.880000 -0.165409 0
3.885000 -0.019811 0
3.890000 0.218964 0
3.895000 0.531458 0
3.900000 0.857829 0
3.905000 1.104556 0
3.910000 1.182894 3
3.915000 1.060798 0
3.920000 0.781548 0
3.925000 0.431313 0
3.930000 0.098067 0
3.935000 -0.159672 0
3.940000 -0.318008 0
3.945000 -0.378890 4
3.950000 -0.361572 0
3.955000 -0.295944 0
3.960000 -0.213689 0
3.965000 -0.138517 0
3.970000 -0.081047 0
3.975000 -0.040768 0
3.980000 -0.011874 0
3.985000 0.011677 0
3.990000 0.033934 0
3.995000 0.056920 0
4.000000 0.081377 0
4.005000 0.107416 0
4.010000 0.134864 0
4.015000 0.163410 0
4.020000 0.192653 0
4.025000 0.222120 0
4.030000 0.251278 0
4.035000 0.279553 0
4.040000 0.306339 0
4.045000 0.331030 0
4.050000 0.353031 0
4.055000 0.371790 0
4.060000 0.386816 0
4.065000 0.397702 0
4.070000 0.404141 0
4.075000 0.405940 5
4.080000 0.403034 0
4.085000 0.395482 0
4.090000 0.383469 0
4.095000 0.367297 0
4.100000 0.347373 0
4.105000 0.324192 0
4.110000 0.298312 0
4.115000 0.270338 0
4.120000 0.240894 0
4.125000 0.210601 0
4.130000 0.180055 0
4.135000 0.149812 0
4.140000 0.120367 0
4.145000 0.092147 0
4.150000 0.065502 0
4.155000 0.040703 0
4.160000 0.017938 0
4.165000 -0.002676 0
4.170000 -0.021095 0
4.175000 -0.037335 0
4.180000 -0.051461 0
4.185000 -0.063582 0
4.190000 -0.073836 0
4.195000 -0.082382 0
4.200000 -0.089390 0
4.205000 -0.095035 0
4.210000 -0.099491 0
4.215000 -0.102922 0
4.220000 -0.105483 0
4.225000 -0.107315 0
4.230000 -0.108542 0
4.235000 -0.109277 0
4.240000 -0.109613 0
4.245000 -0.109482 0
4.250000 -0.108470 0
4.255000 -0.107463 0
4.260000 -0.106461 0
4.265000 -0.105464 0
4.270000 -0.104472 0
4.275000 -0.103485 0
4.280000 -0.102503 0
4.285000 -0.101525 0
4.290000 -0.100552 0
4.295000 -0.099583 0
4.300000 -0.098616 0
4.305000 -0.097651 0
4.310000 -0.096685 0
4.315000 -0.095711 0
4.320000 -0.094722 0
4.325000 -0.093701 0
4.330000 -0.092626 0
4.335000 -0.091459 0
4.340000 -0.090142 0
4.345000 -0.088591 0
4.350000 -0.086689 0
4.355000 -0.084270 0
4.360000 -0.081121 0
4.365000 -0.076967 0
4.370000 -0.071478 0
4.375000 -0.064272 0
4.380000 -0.054937 0
4.385000 -0.043063 0
4.390000 -0.028287 0
4.395000 -0.010347 0
4.400000 0.010847 0
4.405000 0.035156 0
4.410000 0.062159 0
4.415000 0.091120 0
4.420000 0.120996 0
4.425000 0.150476 0
4.430000 0.178065 0
4.435000 0.202206 0
4.440000 0.221421 0
4.445000 0.234462 0
4.450000 0.240442 1
4.455000 0.238941 0
4.460000 0.230047 0
4.465000 0.214356 0
4.470000 0.192899 0
4.475000 0.167037 0
4.480000 0.138309 0
4.485000 0.108283 0
4.490000 0.078378 0
4.495000 0.049666 0
4.500000 0.022560 0
4.505000 -0.003637 0
4.510000 -0.031221 0
4.515000 -0.064033 0
4.520000 -0.105926 0
4.525000 -0.157309 0
4.530000 -0.211024 0
4.535000 -0.250492 0
4.540000 -0.252176 2
4.545000 -0.191128 0
4.550000 -0.047124 0
4.555000 0.187675 0
4.560000 0.496461 0
4.565000 0.825531 0
4.570000 1.088215 0
4.575000 1.196862 3
4.580000 1.107674 0
4.585000 0.847478 0
4.590000 0.501228 0
4.595000 0.162442 0
4.600000 -0.103878 0
4.605000 -0.269791 0
4.610000 -0.335666 4
4.615000 -0.320718 0
4.620000 -0.255753 0
4.625000 -0.173716 0
4.630000 -0.099152 0
4.635000 -0.042751 0
4.640000 -0.003608 0
4.645000 0.024442 0
4.650000 0.047540 0
4.655000 0.069649 0
4.660000 0.092665 0
4.665000 0.117231 0
4.670000 0.143396 0
4.675000 0.170947 0
4.680000 0.199540 0
4.685000 0.228740 0
4.690000 0.258037 0
4.695000 0.286864 0
4.700000 0.314613 0
4.705000 0.340651 0
4.710000 0.364348 0
4.715000 0.385098 0
4.720000 0.402348 0
4.725000 0.415617 0
4.730000 0.424521 0
4.735000 0.428791 5
4.740000 0.428283 0
4.745000 0.422990 0
4.750000 0.413036 0
4.755000 0.398677 0
4.760000 0.380285 0
4.765000 0.358336 0
4.770000 0.333384 0
4.775000 0.306041 0
4.780000 0.276951 0
4.785000 0.246763 0
4.790000 0.216109 0
4.795000 0.185583 0
4.800000 0.155722 0
4.805000 0.126991 0
4.810000 0.099777 0
4.815000 0.074383 0
4.820000 0.051026 0
4.825000 0.029842 0
4.830000 0.010893 0
4.835000 -0.005829 0
4.840000 -0.020383 0
4.845000 -0.032877 0
4.850000 -0.043451 0
4.855000 -0.052269 0
4.860000 -0.059506 0
4.865000 -0.065346 0
4.870000 -0.069968 0
4.875000 -0.073543 0
4.880000 -0.076232 0
4.885000 -0.078181 0
4.890000 -0.079520 0
4.895000 -0.080363 0
4.900000 -0.080808 0
4.905000 -0.080129 0
4.910000 -0.079263 0
4.915000 -0.078402 0
4.920000 -0.077545 0
4.925000 -0.076692 0
4.930000 -0.075843 0
4.935000 -0.074999 0
4.940000 -0.074159 0
4.945000 -0.073322 0
4.950000 -0.072490 0
4.955000 -0.071660 0
4.960000 -0.070832 0
4.965000 -0.070003 0
4.970000 -0.069171 0
4.975000 -0.068328 0
4.980000 -0.067462 0
4.985000 -0.066555 0
4.990000 -0.065575 0
4.995000 -0.064476 0
5.000000 -0.063186 0
5.005000 -0.061599 0
5.010000 -0.059570 0
5.015000 -0.056900 0
5.020000 -0.053330 0
5.025000 -0.048542 0
5.030000 -0.042158 0
5.035000 -0.033758 0
5.040000 -0.022909 0
5.045000 -0.009212 0
5.050000 0.007646 0
5.055000 0.027819 0
5.060000 0.051237 0
5.065000 0.077540 0
5.070000 0.106043 0
5.075000 0.135728 0
5.080000 0.165281 0
5.085000 0.193176 0
5.090000 0.217793 0
5.095000 0.237573 0
5.100000 0.251183 0
5.105000 0.257658 1
5.110000 0.256517 0
5.115000 0.247822 0
5.120000 0.232169 0
5.125000 0.210624 0
5.130000 0.184600 0
5.135000 0.155700 0
5.140000 0.125550 0
5.145000 0.095611 0
5.150000 0.066955 0
5.155000 0.039918 0
5.160000 0.013597 0
5.165000 -0.014650 0
5.170000 -0.048970 0
5.175000 -0.093024 0
5.180000 -0.145961 0
5.185000 -0.198199 0
5.190000 -0.230375 2
5.195000 -0.217043 0
5.200000 -0.132998 0
5.205000 0.039919 0
5.210000 0.303225 0
5.215000 0.627376 0
5.220000 0.942338 0
5.225000 1.152415 0
5.230000 1.179970 3
5.235000 1.010304 0
5.240000 0.700963 0
5.245000 0.347657 0
5.250000 0.035291 0
5.255000 -0.187430 0
5.260000 -0.306480 0
5.265000 -0.331858 4
5.270000 -0.289369 0
5.275000 -0.212558 0
5.280000 -0.131887 0
5.285000 -0.065659 0
5.290000 -0.018336 0
5.295000 0.014428 0
5.300000 0.039331 0
5.305000 0.061565 0
5.310000 0.083990 0
5.315000 0.107768 0
5.320000 0.133178 0
5.325000 0.160106 0
5.330000 0.188256 0
5.335000 0.217229 0
5.340000 0.246540 0
5.345000 0.275642 0
5.350000 0.303934 0
5.355000 0.330783 0
5.360000 0.355550 0
5.365000 0.377606 0
5.370000 0.396367 0
5.375000 0.411312 0
5.380000 0.422011 0
5.385000 0.428143 0
5.390000 0.429510 5
5.395000 0.426050 0
5.400000 0.417838 0
5.405000 0.405083 0
5.410000 0.388120 0
5.415000 0.367393 0
5.420000 0.343438 0
5.425000 0.316854 0
5.430000 0.288286 0
5.435000 0.258390 0
5.440000 0.227816 0
5.445000 0.197178 0
5.450000 0.167040 0
5.455000 0.137898 0
5.460000 0.110170 0
5.465000 0.084187 0
5.470000 0.060196 0
5.475000 0.038358 0
5.480000 0.018757 0
5.485000 0.001404 0
5.490000 -0.013747 0
5.495000 -0.026793 0
5.500000 -0.037869 0
5.505000 -0.047133 0
5.510000 -0.054763 0
5.515000 -0.060942 0
5.520000 -0.065853 0
5.525000 -0.069671 0
5.530000 -0.072563 0
5.535000 -0.074678 0
5.540000 -0.076153 0
5.545000 -0.077106 0
5.550000 -0.077640 0
5.555000 -0.077688 0
5.560000 -0.076834 0
5.565000 -0.075985 0
5.570000 -0.075140 0
5.575000 -0.074299 0
5.580000 -0.073463 0
5.585000 -0.072630 0
5.590000 -0.071802 0
5.595000 -0.070977 0
5.600000 -0.070156 0
5.605000 -0.069338 0
5.610000 -0.068522 0
5.615000 -0.067706 0
5.620000 -0.066887 0
5.625000 -0.066057 0
5.630000 -0.065206 0
5.635000 -0.064316 0
5.640000 -0.063357 0
5.645000 -0.062282 0
5.650000 -0.061023 0
5.655000 -0.059475 0
5.660000 -0.057495 0
5.665000 -0.054885 0
5.670000 -0.051389 0
5.675000 -0.046687 0
5.680000 -0.040399 0
5.685000 -0.032103 0
5.690000 -0.021361 0
5.695000 -0.007765 0
5.700000 0.009003 0
5.705000 0.029106 0
5.710000 0.052476 0
5.715000 0.078754 0
5.720000 0.107248 0
5.725000 0.136930 0
5.730000 0.166469 0
5.735000 0.194318 0
5.740000 0.218838 0
5.745000 0.238456 0
5.750000 0.251832 0
5.755000 0.258003 1
5.760000 0.256505 0
5.765000 0.247426 0
5.770000 0.231396 0
5.775000 0.209518 0
5.780000 0.183236 0
5.785000 0.154183 0
5.790000 0.123995 0
5.795000 0.094129 0
5.800000 0.065618 0
5.805000 0.038711 0
5.810000 0.012335 0
5.815000 -0.016378 0
5.820000 -0.051705 0
5.825000 -0.097052 0
5.830000 -0.150661 0
5.835000 -0.201516 0
5.840000 -0.228887 2
5.845000 -0.206662 0
5.850000 -0.109945 0
5.855000 0.077815 0
5.860000 0.354191 0
5.865000 0.682773 0
5.870000 0.986325 0
5.875000 1.167524 3
5.880000 1.156783 0
5.885000 0.954003 0
5.890000 0.628431 0
5.895000 0.277471 0
5.900000 -0.019744 0
5.905000 -0.221899 0
5.910000 -0.320570 0
5.915000 -0.329578 4
5.920000 -0.277176 0
5.925000 -0.197346 0
5.930000 -0.118685 0
5.935000 -0.056499 0
5.940000 -0.012830 0
5.945000 0.017689 0
5.950000 0.041659 0
5.955000 0.063777 0
5.960000 0.086459 0
5.965000 0.110614 0
5.970000 0.136403 0
5.975000 0.163656 0
5.980000 0.192051 0
5.985000 0.221163 0
5.990000 0.250492 0
5.995000 0.279471 0
6.000000 0.307490 0
6.005000 0.333908 0
6.010000 0.358084 0
6.015000 0.379394 0
6.020000 0.397266 0
6.025000 0.411198 0
6.030000 0.420782 0
6.035000 0.425726 0
6.040000 0.425867 5
6.045000 0.421176 0
6.050000 0.411765 0
6.055000 0.397878 0
6.060000 0.379882 0
6.065000 0.358249 0
6.070000 0.333537 0
6.075000 0.306362 0
6.080000 0.277378 0
6.085000 0.247245 0
6.090000 0.216606 0
6.095000 0.186067 0
6.100000 0.156177 0
6.105000 0.127411 0
6.110000 0.100166 0
6.115000 0.074750 0
6.120000 0.051384 0
6.125000 0.030209 0
6.130000 0.011285 0
6.135000 -0.005395 0
6.140000 -0.019892 0
6.145000 -0.032318 0
6.150000 -0.042815 0
6.155000 -0.051550 0
6.160000 -0.058703 0
6.165000 -0.064459 0
6.170000 -0.069001 0
6.175000 -0.072501 0
6.180000 -0.075122 0
6.185000 -0.077010 0
6.190000 -0.078296 0
6.195000 -0.079095 0
6.200000 -0.079502 0
6.205000 -0.078823 0
6.210000 -0.077964 0
6.215000 -0.077109 0
6.220000 -0.076258 0
6.225000 -0.075412 0
6.230000 -0.074570 0
6.235000 -0.073732 0
6.240000 -0.072898 0
6.245000 -0.072068 0
6.250000 -0.071241 0
6.255000 -0.070417 0
6.260000 -0.069594 0
6.265000 -0.068771 0
6.270000 -0.067942 0
6.275000 -0.067099 0
6.280000 -0.066230 0
6.285000 -0.065312 0
6.290000 -0.064311 0
6.295000 -0.063172 0
6.300000 -0.061814 0
6.305000 -0.060119 0
6.310000 -0.057924 0
6.315000 -0.055009 0
6.320000 -0.051093 0
6.325000 -0.045832 0
6.330000 -0.038824 0
6.335000 -0.029637 0
6.340000 -0.017834 0
6.345000 -0.003035 0
6.350000 0.015030 0
6.355000 0.036442 0
6.360000 0.061023 0
6.365000 0.088287 0
6.370000 0.117402 0
6.375000 0.147209 0
6.380000 0.176271 0
6.385000 0.202981 0
6.390000 0.225700 0
6.395000 0.242922 0
6.400000 0.253440 0
6.405000 0.256483 1
6.410000 0.251808 0
6.415000 0.239736 0
6.420000 0.221108 0
6.425000 0.197194 0
6.430000 0.169545 0
6.435000 0.139823 0
6.440000 0.109621 0
6.445000 0.080253 0
6.450000 0.052474 0
6.455000 0.026034 0
6.460000 -0.000894 0
6.465000 -0.031944 0
6.470000 -0.071448 0
6.475000 -0.121140 0
6.480000 -0.175503 0
6.485000 -0.218892 0
6.490000 -0.227321 2
6.495000 -0.174281 0
6.500000 -0.037561 0
6.505000 0.192506 0
6.510000 0.499797 0
6.515000 0.828567 0
6.520000 1.087355 0
6.525000 1.184656 3
6.530000 1.079237 0
6.535000 0.806267 0
6.540000 0.456536 0
6.545000 0.124571 0
6.550000 -0.127639 0
6.555000 -0.276282 0
6.560000 -0.325520 4
6.565000 -0.297957 0
6.570000 -0.226729 0
6.575000 -0.144803 0
6.580000 -0.074389 0
6.585000 -0.023066 0
6.590000 0.012198 0
6.595000 0.038171 0
6.600000 0.060612 0
6.605000 0.082867 0
6.610000 0.106369 0
6.615000 0.131511 0
6.620000 0.158222 0
6.625000 0.186218 0
6.630000 0.215105 0
6.635000 0.244398 0
6.640000 0.273544 0
6.645000 0.301933 0
6.650000 0.328922 0
6.655000 0.353856 0
6.660000 0.376093 0
6.665000 0.395030 0
6.670000 0.410133 0
6.675000 0.420958 0
6.680000 0.427172 0
6.685000 0.428573 5
6.690000 0.425094 0
6.695000 0.416813 0
6.700000 0.403946 0
6.705000 0.386838 0
6.710000 0.365946 0
6.715000 0.341819 0
6.720000 0.315076 0
6.725000 0.286375 0
6.730000 0.256388 0
6.735000 0.225774 0
6.740000 0.195159 0
6.745000 0.165111 0
6.750000 0.136127 0
6.755000 0.108622 0
6.760000 0.082923 0
6.765000 0.059268 0
6.770000 0.037808 0
6.775000 0.018614 0
6.780000 0.001688 0
6.785000 -0.013030 0
6.790000 -0.025648 0
6.795000 -0.036308 0
6.800000 -0.045180 0
6.805000 -0.052446 0
6.810000 -0.058293 0
6.815000 -0.062907 0
6.820000 -0.066465 0
6.825000 -0.069132 0
6.830000 -0.071058 0
6.835000 -0.072376 0
6.840000 -0.073202 0
6.845000 -0.073634 0
6.850000 -0.072983 0
6.855000 -0.072153 0
6.860000 -0.071327 0
6.865000 -0.070506 0
6.870000 -0.069688 0
6.875000 -0.068874 0
6.880000 -0.068065 0
6.885000 -0.067259 0
6.890000 -0.066457 0
6.895000 -0.065658 0
6.900000 -0.064862 0
6.905000 -0.064066 0
6.910000 -0.063269 0
6.915000 -0.062466 0
6.920000 -0.061647 0
6.925000 -0.060799 0
6.930000 -0.059897 0
6.935000 -0.058903 0
6.940000 -0.057758 0
6.945000 -0.056372 0
6.950000 -0.054620 0
6.955000 -0.052322 0
6.960000 -0.049245 0
6.965000 -0.045087 0
6.970000 -0.039485 0
6.975000 -0.032021 0
6.980000 -0.022248 0
6.985000 -0.009734 0
6.990000 0.005889 0
6.995000 0.024850 0
7.000000 0.047166 0
7.005000 0.072573 0
7.010000 0.100475 0
7.015000 0.129924 0
7.020000 0.159645 0
7.025000 0.188107 0
7.030000 0.213648 0
7.035000 0.234627 0
7.040000 0.249600 0
7.045000 0.257477 0
7.050000 0.257662 1
7.055000 0.250119 0
7.060000 0.235380 0
7.065000 0.214484 0
7.070000 0.188855 0
7.075000 0.160138 0
7.080000 0.130017 0
7.085000 0.100021 0
7.090000 0.071287 0
7.095000 0.044199 0
7.100000 0.017855 0
7.105000 -0.010465 0
7.110000 -0.045052 0
7.115000 -0.089604 0
7.120000 -0.142899 0
7.125000 -0.194383 0
7.130000 -0.223366 2
7.135000 -0.203293 0
7.140000 -0.108587 0
7.145000 0.077944 0
7.150000 0.354124 0
7.155000 0.682819 0
7.160000 0.984852 0
7.165000 1.160962 3
7.170000 1.141841 0
7.175000 0.932163 0
7.180000 0.604994 0
7.185000 0.254010 0
7.190000 -0.044805 0
7.195000 -0.251110 0
7.200000 -0.355801 0
7.205000 -0.371087 4
7.210000 -0.323235 0
7.215000 -0.244810 0
7.220000 -0.164468 0
7.225000 -0.098931 0
7.230000 -0.051934 0
7.235000 -0.019115 0
7.240000 0.005991 0
7.245000 0.028410 0
7.250000 0.050948 0
7.255000 0.074780 0
7.260000 0.100209 0
7.265000 0.127144 0
7.270000 0.155315 0
7.275000 0.184344 0
7.280000 0.213779 0
7.285000 0.243099 0
7.290000 0.271733 0
7.295000 0.299078 0
7.300000 0.324515 0
7.305000 0.347437 0
7.310000 0.367266 0
7.315000 0.383483 0
7.320000 0.395646 0
7.325000 0.403413 0
7.330000 0.406553 5
7.335000 0.404961 0
7.340000 0.398662 0
7.345000 0.387809 0
7.350000 0.372678 0
7.355000 0.353655 0
7.360000 0.331220 0
7.365000 0.305926 0
7.370000 0.278377 0
7.375000 0.249202 0
7.380000 0.219034 0
7.385000 0.188484 0
7.390000 0.158126 0
7.395000 0.128475 0
7.400000 0.099979 0
7.405000 0.073007 0
7.410000 0.047849 0
7.415000 0.024712 0
7.420000 0.003724 0
7.425000 -0.015057 0
7.430000 -0.031638 0
7.435000 -0.046080 0
7.440000 -0.058485 0
7.445000 -0.068991 0
7.450000 -0.077756 0
7.455000 -0.084952 0
7.460000 -0.090757 0
7.465000 -0.095346 0
7.470000 -0.098887 0
7.475000 -0.101538 0
7.480000 -0.103444 0
7.485000 -0.104731 0
7.490000 -0.105515 0
7.495000 -0.105892 0
7.500000 -0.105793 0
7.505000 -0.104800 0
7.510000 -0.103811 0
7.515000 -0.102827 0
7.520000 -0.101848 0
7.525000 -0.100874 0
7.530000 -0.099905 0
7.535000 -0.098941 0
7.540000 -0.097981 0
7.545000 -0.097025 0
7.550000 -0.096073 0
7.555000 -0.095125 0
7.560000 -0.094177 0
7.565000 -0.093227 0
7.570000 -0.092270 0
7.575000 -0.091297 0
7.580000 -0.090291 0
7.585000 -0.089228 0
7.590000 -0.088069 0
7.595000 -0.086754 0
7.600000 -0.085196 0
7.605000 -0.083271 0
7.610000 -0.080809 0
7.615000 -0.077586 0
7.620000 -0.073319 0
7.625000 -0.067666 0
7.630000 -0.060235 0
7.635000 -0.050609 0
7.640000 -0.038372 0
7.645000 -0.023168 0
7.650000 -0.004754 0
7.655000 0.016933 0
7.660000 0.041709 0
7.665000 0.069095 0
7.670000 0.098294 0
7.675000 0.128193 0
7.680000 0.157422 0
7.685000 0.184444 0
7.690000 0.207685 0
7.695000 0.225681 0
7.700000 0.237235 0
7.705000 0.241544 1
7.710000 0.238296 0
7.715000 0.227702 0
7.720000 0.210479 0
7.725000 0.187766 0
7.730000 0.161003 0
7.735000 0.131774 0
7.740000 0.101643 0
7.745000 0.071977 0
7.750000 0.043712 0
7.755000 0.016998 0
7.760000 -0.009307 0
7.765000 -0.038056 0
7.770000 -0.073398 0
7.775000 -0.118595 0
7.780000 -0.172001 0
7.785000 -0.223238 0
7.790000 -0.252656 2
7.795000 -0.235217 0
7.800000 -0.146593 0
7.805000 0.030336 0
7.810000 0.296126 0
7.815000 0.620931 0
7.820000 0.935847 0
7.825000 1.147458 0
7.830000 1.179558 3
7.835000 1.015541 0
7.840000 0.709364 0
7.845000 0.355994 0
7.850000 0.041024 0
7.855000 -0.185600 0
7.860000 -0.308771 0
7.865000 -0.337662 4
7.870000 -0.297462 0
7.875000 -0.221470 0
7.880000 -0.140420 0
7.885000 -0.073238 0
7.890000 -0.024974 0
7.895000 0.008422 0
7.900000 0.033624 0
7.905000 0.055935 0
7.910000 0.078325 0
7.915000 0.102027 0
7.920000 0.127357 0
7.925000 0.154214 0
7.930000 0.182315 0
7.935000 0.211265 0
7.940000 0.240590 0
7.945000 0.269745 0
7.950000 0.298138 0
7.955000 0.325138 0
7.960000 0.350108 0
7.965000 0.372420 0
7.970000 0.391488 0
7.975000 0.406787 0
7.980000 0.417880 0
7.985000 0.424437 0
7.990000 0.426250 5
7.995000 0.423245 0
8.000000 0.415484 0
8.005000 0.403164 0
8.010000 0.386606 0
8.015000 0.366244 0
8.020000 0.342603 0
8.025000 0.316276 0
8.030000 0.287901 0
8.035000 0.258132 0
8.040000 0.227618 0
8.045000 0.196976 0
8.050000 0.166774 0
8.055000 0.137515 0
8.060000 0.109623 0
8.065000 0.083440 0
8.070000 0.059221 0
8.075000 0.037136 0
8.080000 0.017277 0
8.085000 -0.000335 0
8.090000 -0.015742 0
8.095000 -0.029032 0
8.100000 -0.040336 0
8.105000 -0.049811 0
8.110000 -0.057630 0
8.115000 -0.063976 0
8.120000 -0.069032 0
8.125000 -0.072973 0
8.130000 -0.075967 0
8.135000 -0.078167 0
8.140000 -0.079708 0
8.145000 -0.080713 0
8.150000 -0.081284 0
8.155000 -0.081352 0
8.160000 -0.080481 0
8.165000 -0.079613 0
8.170000 -0.078750 0
8.175000 -0.077891 0
8.180000 -0.077037 0
8.185000 -0.076186 0
8.190000 -0.075340 0
8.195000 -0.074498 0
8.200000 -0.073660 0
8.205000 -0.072824 0
8.210000 -0.071992 0
8.215000 -0.071159 0
8.220000 -0.070324 0
8.225000 -0.069480 0
8.230000 -0.068618 0
8.235000 -0.067720 0
8.240000 -0.066761 0
8.245000 -0.065696 0
8.250000 -0.064461 0
8.255000 -0.062962 0
8.260000 -0.061061 0
8.265000 -0.058574 0
8.270000 -0.055257 0
8.275000 -0.050804 0
8.280000 -0.044846 0
8.285000 -0.036970 0
8.290000 -0.026739 0
8.295000 -0.013737 0
8.300000 0.002377 0
8.305000 0.021802 0
8.310000 0.044524 0
8.315000 0.070250 0
8.320000 0.098362 0
8.325000 0.127906 0
8.330000 0.157614 0
8.335000 0.185982 0
8.340000 0.211386 0
8.345000 0.232229 0
8.350000 0.247110 0
8.355000 0.254976 0
8.360000 0.255244 1
8.365000 0.247876 0
8.370000 0.233380 0
8.375000 0.212756 0
8.380000 0.187376 0
8.385000 0.158839 0
8.390000 0.128792 0
8.395000 0.098745 0
8.400000 0.069859 0
8.405000 0.042612 0
8.410000 0.016311 0
8.415000 -0.011444 0
8.420000 -0.044692 0
8.425000 -0.087385 0
8.430000 -0.139518 0
8.435000 -0.192689 0
8.440000 -0.228474 2
8.445000 -0.221633 0
8.450000 -0.146404 0
8.455000 0.016673 0
8.460000 0.271509 0
8.465000 0.592159 0
8.470000 0.911875 0
8.475000 1.135125 0
8.480000 1.179933 3
8.485000 1.026813 0
8.490000 0.729234 0
8.495000 0.376280 0
8.500000 0.052101 0
8.505000 -0.190851 0
8.510000 -0.333538 0
8.515000 -0.381018 4
8.520000 -0.354483 0
8.525000 -0.284550 0
8.530000 -0.202134 0
8.535000 -0.129099 0
8.540000 -0.074200 0
8.545000 -0.035834 0
8.550000 -0.007956 0
8.555000 0.015247 0
8.560000 0.037513 0
8.565000 0.060653 0
8.570000 0.085297 0
8.575000 0.111508 0
8.580000 0.139094 0
8.585000 0.167733 0
8.590000 0.197019 0
8.595000 0.226473 0
8.600000 0.255562 0
8.605000 0.283708 0
8.610000 0.310311 0
8.615000 0.334766 0
8.620000 0.356486 0
8.625000 0.374925 0
8.630000 0.389604 0
8.635000 0.400124 0
8.640000 0.406189 0
8.645000 0.407619 5
8.650000 0.404356 0
8.655000 0.396470 0
8.660000 0.384154 0
8.665000 0.367714 0
8.670000 0.347563 0
8.675000 0.324197 0
8.680000 0.298174 0
8.685000 0.270098 0
8.690000 0.240589 0
8.695000 0.210264 0
8.700000 0.179715 0
8.705000 0.149492 0
8.710000 0.120083 0
8.715000 0.091912 0
8.720000 0.065323 0
8.725000 0.040581 0
8.730000 0.017873 0
8.735000 -0.002688 0
8.740000 -0.021059 0
8.745000 -0.037258 0
8.750000 -0.051351 0
8.755000 -0.063446 0
8.760000 -0.073681 0
8.765000 -0.082214 0
8.770000 -0.089215 0
8.775000 -0.094858 0
8.780000 -0.099315 0
8.785000 -0.102750 0
8.790000 -0.105316 0
8.795000 -0.107154 0
8.800000 -0.108388 0
8.805000 -0.109130 0
8.810000 -0.109473 0
8.815000 -0.109348 0
8.820000 -0.108337 0
8.825000 -0.107330 0
8.830000 -0.106329 0
8.835000 -0.105333 0
8.840000 -0.104341 0
8.845000 -0.103355 0
8.850000 -0.102373 0
8.855000 -0.101396 0
8.860000 -0.100423 0
8.865000 -0.099455 0
8.870000 -0.098489 0
8.875000 -0.097525 0
8.880000 -0.096560 0
8.885000 -0.095588 0
8.890000 -0.094601 0
8.895000 -0.093584 0
8.900000 -0.092514 0
8.905000 -0.091356 0
8.910000 -0.090054 0
8.915000 -0.088526 0
8.920000 -0.086658 0
8.925000 -0.084291 0
8.930000 -0.081215 0
8.935000 -0.077164 0
8.940000 -0.071813 0
8.945000 -0.064788 0
8.950000 -0.055680 0
8.955000 -0.044079 0
8.960000 -0.029617 0
8.965000 -0.012022 0
8.970000 0.008818 0
8.975000 0.032793 0
8.980000 0.059517 0
8.985000 0.088294 0
8.990000 0.118121 0
8.995000 0.147724 0
9.000000 0.175632 0
9.005000 0.200298 0
9.010000 0.220234 0
9.015000 0.234159 0
9.020000 0.241139 1
9.025000 0.240686 0
9.030000 0.232818 0
9.035000 0.218057 0
9.040000 0.197372 0
9.045000 0.172076 0
9.050000 0.143682 0
9.055000 0.113757 0
9.060000 0.083745 0
9.065000 0.054785 0
9.070000 0.027422 0
9.075000 0.001184 0
9.080000 -0.025925 0
9.085000 -0.057514 0
9.090000 -0.097614 0
9.095000 -0.147553 0
9.100000 -0.201812 0
9.105000 -0.245566 0
9.110000 -0.256328 2
9.115000 -0.209088 0
9.120000 -0.082339 0
9.125000 0.134907 0
9.130000 0.431915 0
9.135000 0.763102 0
9.140000 1.047256 0
9.145000 1.193653 3
9.150000 1.141890 0
9.155000 0.905641 0
9.160000 0.566109 0
9.165000 0.221808 0
9.170000 -0.054887 0
9.175000 -0.230888 0
9.180000 -0.304198 4
9.185000 -0.293453 0
9.190000 -0.230065 0
9.195000 -0.148271 0
9.200000 -0.073783 0
9.205000 -0.017761 0
9.210000 0.020816 0
9.215000 0.048382 0
9.220000 0.071208 0
9.225000 0.093239 0
9.230000 0.116296 0
9.235000 0.140960 0
9.240000 0.167236 0
9.245000 0.194881 0
9.250000 0.223521 0
9.255000 0.252690 0
9.260000 0.281847 0
9.265000 0.310394 0
9.270000 0.337690 0
9.275000 0.363081 0
9.280000 0.385915 0
9.285000 0.405579 0
9.290000 0.421517 0
9.295000 0.433262 0
9.300000 0.440455 0
9.305000 0.442860 5
9.310000 0.440383 0
9.315000 0.433068 0
9.320000 0.421101 0
9.325000 0.404803 0
9.330000 0.384609 0
9.335000 0.361052 0
9.340000 0.334739 0
9.345000 0.306324 0
9.350000 0.276481 0
9.355000 0.245876 0
9.360000 0.215144 0
9.365000 0.184868 0
9.370000 0.155563 0
9.375000 0.127663 0
9.380000 0.101512 0
9.385000 0.077368 0
9.390000 0.055399 0
9.395000 0.035692 0
9.400000 0.018261 0
9.405000 0.003056 0
9.410000 -0.010021 0
9.415000 -0.021108 0
9.420000 -0.030371 0
9.425000 -0.037989 0
9.430000 -0.044152 0
9.435000 -0.049045 0
9.440000 -0.052850 0
9.445000 -0.055732 0
9.450000 -0.057846 0
9.455000 -0.059329 0
9.460000 -0.060298 0
9.465000 -0.060857 0
9.470000 -0.060279 0
9.475000 -0.059512 0
9.480000 -0.058749 0
9.485000 -0.057990 0
9.490000 -0.057235 0
9.495000 -0.056483 0
9.500000 -0.055736 0
9.505000 -0.054991 0
9.510000 -0.054250 0
9.515000 -0.053513 0
9.520000 -0.052777 0
9.525000 -0.052043 0
9.530000 -0.051307 0
9.535000 -0.050565 0
9.540000 -0.049810 0
9.545000 -0.049027 0
9.550000 -0.048195 0
9.555000 -0.047277 0
9.560000 -0.046217 0
9.565000 -0.044933 0
9.570000 -0.043302 0
9.575000 -0.041154 0
9.580000 -0.038264 0
9.585000 -0.034337 0
9.590000 -0.029019 0
9.595000 -0.021897 0
9.600000 -0.012525 0
9.605000 -0.000464 0
9.610000 0.014667 0
9.615000 0.033120 0
9.620000 0.054947 0
9.625000 0.079922 0
9.630000 0.107494 0
9.635000 0.136757 0
9.640000 0.166470 0
9.645000 0.195126 0
9.650000 0.221067 0
9.655000 0.242635 0
9.660000 0.258348 0
9.665000 0.267063 0
9.670000 0.268118 1
9.675000 0.261407 0
9.680000 0.247402 0
9.685000 0.227090 0
9.690000 0.201864 0
9.695000 0.173355 0
9.700000 0.143259 0
9.705000 0.113136 0
9.710000 0.084182 0
9.715000 0.056887 0
9.720000 0.030508 0
9.725000 0.002520 0
9.730000 -0.031278 0
9.735000 -0.074823 0
9.740000 -0.127602 0
9.745000 -0.180068 0
9.750000 -0.212340 2
9.755000 -0.198069 0
9.760000 -0.111214 0
9.765000 0.066610 0
9.770000 0.335602 0
9.775000 0.662231 0
9.780000 0.970459 0
9.785000 1.160761 3
9.790000 1.158994 0
9.795000 0.963826 0
9.800000 0.642484 0
9.805000 0.290368 0
9.810000 -0.012815 0
9.815000 -0.223768 0
9.820000 -0.331941 0
9.825000 -0.349181 4
9.830000 -0.302052 0
9.835000 -0.223781 0
9.840000 -0.143639 0
9.845000 -0.078581 0
9.850000 -0.032207 0
9.855000 0.000074 0
9.860000 0.024847 0
9.865000 0.047127 0
9.870000 0.069652 0
9.875000 0.093534 0
9.880000 0.119035 0
9.885000 0.146038 0
9.890000 0.174253 0
9.895000 0.203286 0
9.900000 0.232663 0
9.905000 0.261844 0
9.910000 0.290241 0
9.915000 0.317231 0
9.920000 0.342184 0
9.925000 0.364481 0
9.930000 0.383543 0
9.935000 0.398854 0
9.940000 0.409981 0
9.945000 0.416600 0
9.950000 0.418506 5
9.955000 0.415622 0
9.960000 0.408008 0
9.965000 0.395856 0
9.970000 0.379480 0
9.975000 0.359305 0
9.980000 0.335846 0
9.985000 0.309688 0
9.990000 0.281457 0
9.995000 0.251801 0
10.000000 0.221361 0
10.005000 0.190751 0
10.010000 0.160536 0
10.015000 0.131217 0
10.020000 0.103223 0
10.025000 0.076897 0
10.030000 0.052502 0
10.035000 0.030213 0
10.040000 0.010130 0
10.045000 -0.007718 0
10.050000 -0.023366 0
10.055000 -0.036895 0
10.060000 -0.048430 0
10.065000 -0.058122 0
10.070000 -0.066141 0
10.075000 -0.072666 0
10.080000 -0.077879 0
10.085000 -0.081956 0
10.090000 -0.085062 0
10.095000 -0.087352 0
10.100000 -0.088963 0
10.105000 -0.090018 0
10.110000 -0.090624 0
10.115000 -0.090701 0
10.120000 -0.089783 0
10.125000 -0.088869 0
10.130000 -0.087960 0
10.135000 -0.087055 0
10.140000 -0.086155 0
10.145000 -0.085259 0
10.150000 -0.084368 0
10.155000 -0.083481 0
10.160000 -0.082598 0
10.165000 -0.081718 0
10.170000 -0.080842 0
10.175000 -0.079966 0
10.180000 -0.079090 0
10.185000 -0.078207 0
10.190000 -0.077309 0
10.195000 -0.076383 0
10.200000 -0.075405 0
10.205000 -0.074338 0
10.210000 -0.073127 0
10.215000 -0.071688 0
10.220000 -0.069901 0
10.225000 -0.067601 0
10.230000 -0.064568 0
10.235000 -0.060521 0
10.240000 -0.055117 0
10.245000 -0.047963 0
10.250000 -0.038631 0
10.255000 -0.026697 0
10.260000 -0.011788 0
10.265000 0.006356 0
10.270000 0.027811 0
10.275000 0.052406 0
10.280000 0.079664 0
10.285000 0.108779 0
10.290000 0.138623 0
10.295000 0.167796 0
10.300000 0.194729 0
10.305000 0.217813 0
10.310000 0.235557 0
10.315000 0.246750 0
10.320000 0.250592 1
10.325000 0.246793 0
10.330000 0.235605 0
10.335000 0.217797 0
10.340000 0.194567 0
10.345000 0.167405 0
10.350000 0.137937 0
10.355000 0.107746 0
10.360000 0.078186 0
10.365000 0.050123 0
10.370000 0.023543 0
10.375000 -0.002994 0
10.380000 -0.032706 0
10.385000 -0.069892 0
10.390000 -0.117243 0
10.395000 -0.171462 0
10.400000 -0.219740 0
10.405000 -0.240252 2
10.410000 -0.207013 0
10.415000 -0.096370 0
10.420000 0.105835 0
10.425000 0.393097 0
10.430000 0.723718 0
10.435000 1.016953 0
10.440000 1.177496 3
10.445000 1.140127 0
10.450000 0.913958 0
10.455000 0.577862 0
10.460000 0.231632 0
10.465000 -0.049598 0
10.470000 -0.230504 0
10.475000 -0.307856 4
10.480000 -0.299738 0
10.485000 -0.237511 0
10.490000 -0.155807 0
10.495000 -0.080932 0
10.500000 -0.024505 0
10.505000 0.014320 0
10.510000 0.041996 0
10.515000 0.064868 0
10.520000 0.086931 0
10.525000 0.110025 0
10.530000 0.134735 0
10.535000 0.161063 0
10.540000 0.188761 0
10.545000 0.217451 0
10.550000 0.246660 0
10.555000 0.275842 0
10.560000 0.304391 0
10.565000 0.331659 0
10.570000 0.356985 0
10.575000 0.379714 0
10.580000 0.399227 0
10.585000 0.414970 0
10.590000 0.426476 0
10.595000 0.433389 0
10.600000 0.435483 5
10.605000 0.432669 0
10.610000 0.425005 0
10.615000 0.412690 0
10.620000 0.396057 0
10.625000 0.375555 0
10.630000 0.351731 0
10.635000 0.325203 0
10.640000 0.296634 0
10.645000 0.266704 0
10.650000 0.236083 0
10.655000 0.205407 0
10.660000 0.175257 0
10.665000 0.146142 0
10.670000 0.118488 0
10.675000 0.092632 0
10.680000 0.068821 0
10.685000 0.047212 0
10.690000 0.027880 0
10.695000 0.010831 0
10.700000 -0.003995 0
10.705000 -0.016705 0
10.710000 -0.027443 0
10.715000 -0.036379 0
10.720000 -0.043697 0
10.725000 -0.049588 0
10.730000 -0.054238 0
10.735000 -0.057828 0
10.740000 -0.060525 0
10.745000 -0.062478 0
10.750000 -0.063823 0
10.755000 -0.064675 0
10.760000 -0.065136 0
10.765000 -0.064525 0
10.770000 -0.063737 0
10.775000 -0.062953 0
10.780000 -0.062173 0
10.785000 -0.061397 0
10.790000 -0.060625 0
10.795000 -0.059856 0
10.800000 -0.059091 0
10.805000 -0.058330 0
10.810000 -0.057572 0
10.815000 -0.056815 0
10.820000 -0.056060 0
10.825000 -0.055302 0
10.830000 -0.054536 0
10.835000 -0.053754 0
10.840000 -0.052938 0
10.845000 -0.052065 0
10.850000 -0.051091 0
10.855000 -0.049953 0
10.860000 -0.048556 0
10.865000 -0.046763 0
10.870000 -0.044387 0
10.875000 -0.041176 0
10.880000 -0.036817 0
10.885000 -0.030928 0
10.890000 -0.023080 0
10.895000 -0.012819 0
10.900000 0.000285 0
10.905000 0.016579 0
10.910000 0.036255 0
10.915000 0.059275 0
10.920000 0.085298 0
10.925000 0.113638 0
10.930000 0.143253 0
10.935000 0.172779 0
10.940000 0.200622 0
10.945000 0.225088 0
10.950000 0.244554 0
10.955000 0.257637 0
10.960000 0.263364 1
10.965000 0.261283 0
10.970000 0.251526 0
10.975000 0.234792 0
10.980000 0.212262 0
10.985000 0.185465 0
10.990000 0.156098 0
10.995000 0.125836 0
11.000000 0.096130 0
11.005000 0.067926 0
11.010000 0.041245 0
11.015000 0.014590 0
11.020000 -0.015446 0
11.025000 -0.053365 0
11.030000 -0.101698 0
11.035000 -0.156158 0
11.040000 -0.202070 0
11.045000 -0.215537 2
11.050000 -0.169229 0
11.055000 -0.039591 0
11.060000 0.184694 0
11.065000 0.489119 0
11.070000 0.818391 0
11.075000 1.079292 0
11.080000 1.177322 3
11.085000 1.074224 0
11.090000 0.805710 0
11.095000 0.457600 0
11.100000 0.121265 0
11.105000 -0.141045 0
11.110000 -0.303205 0
11.115000 -0.366378 4
11.120000 -0.349924 0
11.125000 -0.284369 0
11.130000 -0.202158 0
11.135000 -0.127421 0
11.140000 -0.070710 0
11.145000 -0.031199 0
11.150000 -0.002836 0
11.155000 0.020473 0
11.160000 0.042704 0
11.165000 0.065787 0
11.170000 0.090395 0
11.175000 0.116594 0
11.180000 0.144187 0
11.185000 0.172840 0
11.190000 0.202130 0
11.195000 0.231561 0
11.200000 0.260578 0
11.205000 0.288584 0
11.210000 0.314958 0
11.215000 0.339077 0
11.220000 0.360341 0
11.225000 0.378195 0
11.230000 0.392156 0
11.235000 0.401830 0
11.240000 0.406936 0
11.245000 0.407312 5
11.250000 0.402929 0
11.255000 0.393887 0
11.260000 0.380417 0
11.265000 0.362867 0
11.270000 0.341687 0
11.275000 0.317410 0
11.280000 0.290629 0
11.285000 0.261974 0
11.290000 0.232087 0
11.295000 0.201595 0
11.300000 0.171096 0
11.305000 0.141132 0
11.310000 0.112182 0
11.315000 0.084646 0
11.320000 0.058846 0
11.325000 0.035017 0
11.330000 0.013316 0
11.335000 -0.006177 0
11.340000 -0.023450 0
11.345000 -0.038548 0
11.350000 -0.051563 0
11.355000 -0.062626 0
11.360000 -0.071890 0
11.365000 -0.079526 0
11.370000 -0.085714 0
11.375000 -0.090632 0
11.380000 -0.094452 0
11.385000 -0.097336 0
11.390000 -0.099435 0
11.395000 -0.100882 0
11.400000 -0.101796 0
11.405000 -0.102278 0
11.410000 -0.102255 0
11.415000 -0.101279 0
11.420000 -0.100308 0
11.425000 -0.099342 0
11.430000 -0.098380 0
11.435000 -0.097424 0
11.440000 -0.096472 0
11.445000 -0.095524 0
11.450000 -0.094582 0
11.455000 -0.093643 0
11.460000 -0.092708 0
11.465000 -0.091777 0
11.470000 -0.090846 0
11.475000 -0.089915 0
11.480000 -0.088977 0
11.485000 -0.088023 0
11.490000 -0.087040 0
11.495000 -0.086004 0
11.500000 -0.084877 0
11.505000 -0.083601 0
11.510000 -0.082094 0
11.515000 -0.080234 0
11.520000 -0.077854 0
11.525000 -0.074735 0
11.530000 -0.070596 0
11.535000 -0.065096 0
11.540000 -0.057845 0
11.545000 -0.048418 0
11.550000 -0.036396 0
11.555000 -0.021412 0
11.560000 -0.003210 0
11.565000 0.018286 0
11.570000 0.042906 0
11.575000 0.070182 0
11.580000 0.099319 0
11.585000 0.129205 0
11.590000 0.158461 0
11.595000 0.185537 0
11.600000 0.208839 0
11.605000 0.226885 0
11.610000 0.238460 0
11.615000 0.242751 1
11.620000 0.239442 0
11.625000 0.228751 0
11.630000 0.211409 0
11.635000 0.188574 0
11.640000 0.161707 0
11.645000 0.132412 0
11.650000 0.102267 0
11.655000 0.072640 0
11.660000 0.044450 0
11.665000 0.017794 0
11.670000 -0.008576 0
11.675000 -0.037656 0
11.680000 -0.073674 0
11.685000 -0.119705 0
11.690000 -0.173486 0
11.695000 -0.223667 0
11.700000 -0.249658 2
11.705000 -0.225936 0
11.710000 -0.128339 0
11.715000 0.059165 0
11.720000 0.334350 0
11.725000 0.662442 0
11.730000 0.969211 0
11.735000 1.159712 0
11.740000 1.163181 3
11.745000 0.974017 0
11.750000 0.655693 0
11.755000 0.303060 0
11.760000 -0.003266 0
11.765000 -0.218620 0
11.770000 -0.331313 0
11.775000 -0.352322 4
11.780000 -0.307577 0
11.785000 -0.230094 0
11.790000 -0.149487 0
11.795000 -0.083390 0
11.800000 -0.036021 0
11.805000 -0.003091 0
11.810000 0.021978 0
11.815000 0.044319 0
11.820000 0.066789 0
11.825000 0.090572 0
11.830000 0.115969 0
11.835000 0.142881 0
11.840000 0.171026 0
11.845000 0.200019 0
11.850000 0.229393 0
11.855000 0.258616 0
11.860000 0.287102 0
11.865000 0.314236 0
11.870000 0.339389 0
11.875000 0.361942 0
11.880000 0.381315 0
11.885000 0.396985 0
11.890000 0.408516 0
11.895000 0.415573 0
11.900000 0.417938 5
11.905000 0.415525 0
11.910000 0.408380 0
11.915000 0.396680 0
11.920000 0.380727 0
11.925000 0.360934 0
11.930000 0.337805 0
11.935000 0.311916 0
11.940000 0.283888 0
11.945000 0.254365 0
11.950000 0.223988 0
11.955000 0.193373 0
11.960000 0.163087 0
11.965000 0.133641 0
11.970000 0.105469 0
11.975000 0.078924 0
11.980000 0.054278 0
11.985000 0.031716 0
11.990000 0.011348 0
11.995000 -0.006790 0
12.000000 -0.022723 0
12.005000 -0.036529 0
12.010000 -0.048325 0
12.015000 -0.058259 0
12.020000 -0.066499 0
12.025000 -0.073222 0
12.030000 -0.078609 0
12.035000 -0.082836 0
12.040000 -0.086071 0
12.045000 -0.088469 0
12.050000 -0.090169 0
12.055000 -0.091297 0
12.060000 -0.091960 0
12.065000 -0.092252 0
12.070000 -0.091502 0
12.075000 -0.090579 0
12.080000 -0.089661 0
12.085000 -0.088748 0
12.090000 -0.087840 0
12.095000 -0.086935 0
12.100000 -0.086036 0
12.105000 -0.085140 0
12.110000 -0.084249 0
12.115000 -0.083362 0
12.120000 -0.082477 0
12.125000 -0.081594 0
12.130000 -0.080711 0
12.135000 -0.079822 0
12.140000 -0.078921 0
12.145000 -0.077995 0
12.150000 -0.077022 0
12.155000 -0.075969 0
12.160000 -0.074785 0
12.165000 -0.073393 0
12.170000 -0.071680 0
12.175000 -0.069494 0
12.180000 -0.066625 0
12.185000 -0.062807 0
12.190000 -0.057711 0
12.195000 -0.050954 0
12.200000 -0.042115 0
12.205000 -0.030768 0
12.210000 -0.016524 0
12.215000 0.000905 0
12.220000 0.021641 0
12.225000 0.045573 0
12.230000 0.072297 0
12.235000 0.101085 0
12.240000 0.130882 0
12.245000 0.160349 0
12.250000 0.187951 0
12.255000 0.212080 0
12.260000 0.231211 0
12.265000 0.244057 0
12.270000 0.249713 1
12.275000 0.247763 0
12.280000 0.238328 0
12.285000 0.222054 0
12.290000 0.200041 0
12.295000 0.173714 0
12.300000 0.144676 0
12.305000 0.114532 0
12.310000 0.084708 0
12.315000 0.056222 0
12.320000 0.029333 0
12.325000 0.003028 0
12.330000 -0.025438 0
12.335000 -0.060237 0
12.340000 -0.104858 0
12.345000 -0.158054 0
12.350000 -0.209777 0
12.355000 -0.240388 2
12.360000 -0.224505 0
12.365000 -0.137275 0
12.370000 0.038899 0
12.375000 0.304729 0
12.380000 0.629766 0
12.385000 0.943521 0
12.390000 1.150869 0
12.395000 1.175556 3
12.400000 1.005088 0
12.405000 0.696775 0
12.410000 0.343359 0
12.415000 0.027922 0
12.420000 -0.200749 0
12.425000 -0.327406 0
12.430000 -0.360325 4
12.435000 -0.323409 0
12.440000 -0.248850 0
12.445000 -0.167133 0
12.450000 -0.097923 0
12.455000 -0.047402 0
12.460000 -0.012320 0
12.465000 0.013782 0
12.470000 0.036379 0
12.475000 0.058704 0
12.480000 0.082189 0
12.485000 0.107258 0
12.490000 0.133872 0
12.495000 0.161785 0
12.500000 0.190634 0
12.505000 0.219976 0
12.510000 0.249299 0
12.515000 0.278037 0
12.520000 0.305587 0
12.525000 0.331328 0
12.530000 0.354645 0
12.535000 0.374953 0
12.540000 0.391717 0
12.545000 0.404480 0
12.550000 0.412881 0
12.555000 0.416670 5
12.560000 0.415722 0
12.565000 0.410043 0
12.570000 0.399768 0
12.575000 0.385157 0
12.580000 0.366586 0
12.585000 0.344523 0
12.590000 0.319518 0
12.595000 0.292171 0
12.600000 0.263113 0
12.605000 0.232982 0
12.610000 0.202396 0
12.615000 0.171936 0
12.620000 0.142128 0
12.625000 0.113432 0
12.630000 0.086227 0
12.635000 0.060814 0
12.640000 0.037409 0
12.645000 0.016149 0
12.650000 -0.002901 0
12.655000 -0.019741 0
12.660000 -0.034429 0
12.665000 -0.047064 0
12.670000 -0.057781 0
12.675000 -0.066738 0
12.680000 -0.074107 0
12.685000 -0.080067 0
12.690000 -0.084794 0
12.695000 -0.088457 0
12.700000 -0.091218 0
12.705000 -0.093220 0
12.710000 -0.094595 0
12.715000 -0.095457 0
12.720000 -0.095906 0
12.725000 -0.095871 0
12.730000 -0.094927 0
12.735000 -0.093988 0
12.740000 -0.093053 0
12.745000 -0.092123 0
12.750000 -0.091197 0
12.755000 -0.090276 0
12.760000 -0.089360 0
12.765000 -0.088448 0
12.770000 -0.087540 0
12.775000 -0.086636 0
12.780000 -0.085734 0
12.785000 -0.084833 0
12.790000 -0.083930 0
12.795000 -0.083020 0
12.800000 -0.082093 0
12.805000 -0.081134 0
12.810000 -0.080117 0
12.815000 -0.079005 0
12.820000 -0.077736 0
12.825000 -0.076224 0
12.830000 -0.074344 0
12.835000 -0.071925 0
12.840000 -0.068741 0
12.845000 -0.064508 0
12.850000 -0.058882 0
12.855000 -0.051469 0
12.860000 -0.041846 0
12.865000 -0.029600 0
12.870000 -0.014372 0
12.875000 0.004080 0
12.880000 0.025812 0
12.885000 0.050633 0
12.890000 0.078052 0
12.895000 0.107255 0
12.900000 0.137116 0
12.905000 0.166247 0
12.910000 0.193100 0
12.915000 0.216093 0
12.920000 0.233765 0
12.925000 0.244926 0
12.930000 0.248795 1
12.935000 0.245083 0
12.940000 0.234035 0
12.945000 0.216398 0
12.950000 0.193342 0
12.955000 0.166326 0
12.960000 0.136947 0
12.965000 0.106771 0
12.970000 0.077149 0
12.975000 0.048976 0
12.980000 0.022322 0
12.985000 -0.004092 0
12.990000 -0.033277 0
12.995000 -0.069445 0
13.000000 -0.115613 0
13.005000 -0.169451 0
13.010000 -0.219591 0
13.015000 -0.245520 2
13.020000 -0.221855 0
13.025000 -0.124568 0
13.030000 0.062325 0
13.035000 0.336779 0
13.040000 0.664587 0
13.045000 0.972366 0
13.050000 1.165712 0
13.055000 1.173375 3
13.060000 0.987994 0
13.065000 0.671570 0
13.070000 0.318648 0
13.075000 0.010433 0
13.080000 -0.207560 0
13.085000 -0.322948 0
13.090000 -0.346206 4
13.095000 -0.302905 0
13.100000 -0.225944 0
13.105000 -0.145135 0
13.110000 -0.078502 0
13.115000 -0.030615 0
13.120000 0.002646 0
13.125000 0.027847 0
13.130000 0.050188 0
13.135000 0.072593 0
13.140000 0.096288 0
13.145000 0.121593 0
13.150000 0.148419 0
13.155000 0.176491 0
13.160000 0.205427 0
13.165000 0.234763 0
13.170000 0.263970 0
13.175000 0.292466 0
13.180000 0.319638 0
13.185000 0.344856 0
13.190000 0.367504 0
13.195000 0.386999 0
13.200000 0.402817 0
13.205000 0.414517 0
13.210000 0.421759 0
13.215000 0.424321 5
13.220000 0.422111 0
13.225000 0.415167 0
13.230000 0.403660 0
13.235000 0.387886 0
13.240000 0.368251 0
13.245000 0.345255 0
13.250000 0.319469 0
13.255000 0.291511 0
13.260000 0.262025 0
13.265000 0.231650 0
13.270000 0.201002 0
13.275000 0.170654 0
13.280000 0.141117 0
13.285000 0.112829 0
13.290000 0.086148 0
13.295000 0.061351 0
13.300000 0.038627 0
13.305000 0.018091 0
13.310000 -0.000218 0
13.315000 -0.016319 0
13.320000 -0.030289 0
13.325000 -0.042241 0
13.330000 -0.052322 0
13.335000 -0.060698 0
13.340000 -0.067547 0
13.345000 -0.073048 0
13.350000 -0.077377 0
13.355000 -0.080704 0
13.360000 -0.083183 0
13.365000 -0.084956 0
13.370000 -0.086147 0
13.375000 -0.086867 0
13.380000 -0.087209 0
13.385000 -0.086488 0
13.390000 -0.085591 0
13.395000 -0.084698 0
13.400000 -0.083809 0
13.405000 -0.082925 0
13.410000 -0.082046 0
13.415000 -0.081170 0
13.420000 -0.080299 0
13.425000 -0.079432 0
13.430000 -0.078569 0
13.435000 -0.077708 0
13.440000 -0.076850 0
13.445000 -0.075991 0
13.450000 -0.075127 0
13.455000 -0.074251 0
13.460000 -0.073351 0
13.465000 -0.072407 0
13.470000 -0.071387 0
13.475000 -0.070241 0
13.480000 -0.068895 0
13.485000 -0.067242 0
13.490000 -0.065131 0
13.495000 -0.062360 0
13.500000 -0.058669 0
13.505000 -0.053735 0
13.510000 -0.047181 0
13.515000 -0.038588 0
13.520000 -0.027530 0
13.525000 -0.013613 0
13.530000 0.003464 0
13.535000 0.023842 0
13.540000 0.047437 0
13.545000 0.073879 0
13.550000 0.102473 0
13.555000 0.132201 0
13.560000 0.161751 0
13.565000 0.189606 0
13.570000 0.214162 0
13.575000 0.233879 0
13.580000 0.247440 0
13.585000 0.253894 1
13.590000 0.252769 0
13.595000 0.244124 0
13.600000 0.228550 0
13.605000 0.207098 0
13.610000 0.181163 0
13.615000 0.152332 0
13.620000 0.122217 0
13.625000 0.092272 0
13.630000 0.063576 0
13.635000 0.036500 0
13.640000 0.010214 0
13.645000 -0.017810 0
13.650000 -0.051633 0
13.655000 -0.095006 0
13.660000 -0.147508 0
13.665000 -0.200320 0
13.670000 -0.234891 2
13.675000 -0.226268 0
13.680000 -0.149220 0
13.685000 0.015158 0
13.690000 0.270440 0
13.695000 0.590981 0
13.700000 0.911344 0
13.705000 1.137736 0
13.710000 1.188679 3
13.715000 1.038655 0
13.720000 0.738865 0
13.725000 0.385621 0
13.730000 0.068074 0
13.735000 -0.161035 0
13.740000 -0.285424 0
13.745000 -0.314260 4
13.750000 -0.273395 0
13.755000 -0.197016 0
13.760000 -0.116393 0
13.765000 -0.050334 0
13.770000 -0.003360 0
13.775000 0.029040 0
13.780000 0.053695 0
13.785000 0.075826 0
13.790000 0.098249 0
13.795000 0.122079 0
13.800000 0.147563 0
13.805000 0.174561 0
13.810000 0.202761 0
13.815000 0.231744 0
13.820000 0.261006 0
13.825000 0.289980 0
13.830000 0.318044 0
13.835000 0.344551 0
13.840000 0.368845 0
13.845000 0.390290 0
13.850000 0.408299 0
13.855000 0.422354 0
13.860000 0.432038 0
13.865000 0.437049 0
13.870000 0.437214 5
13.875000 0.432505 0
13.880000 0.423032 0
13.885000 0.409043 0
13.890000 0.390914 0
13.895000 0.369128 0
13.900000 0.344253 0
13.905000 0.316920 0
13.910000 0.287795 0
13.915000 0.257548 0
13.920000 0.226834 0
13.925000 0.196266 0
13.930000 0.166396 0
13.935000 0.137703 0
13.940000 0.110579 0
13.945000 0.085330 0
13.950000 0.062172 0
13.955000 0.041236 0
13.960000 0.022573 0
13.965000 0.006169 0
13.970000 -0.008049 0
13.975000 -0.020198 0
13.980000 -0.030431 0
13.985000 -0.038918 0
13.990000 -0.045847 0
13.995000 -0.051403 0
14.000000 -0.055772 0
14.005000 -0.059129 0
14.010000 -0.061633 0
14.015000 -0.063431 0
14.020000 -0.064652 0
14.025000 -0.065408 0
14.030000 -0.065622 0
14.035000 -0.064828 0
14.040000 -0.064039 0
14.045000 -0.063254 0
14.050000 -0.062472 0
14.055000 -0.061695 0
14.060000 -0.060921 0
14.065000 -0.060151 0
14.070000 -0.059384 0
14.075000 -0.058622 0
14.080000 -0.057861 0
14.085000 -0.057103 0
14.090000 -0.056346 0
14.095000 -0.055585 0
14.100000 -0.054816 0
14.105000 -0.054028 0
14.110000 -0.053205 0
14.115000 -0.052320 0
14.120000 -0.051329 0
14.125000 -0.050167 0
14.130000 -0.048734 0
14.135000 -0.046892 0
14.140000 -0.044448 0
14.145000 -0.041149 0
14.150000 -0.036678 0
14.155000 -0.030653 0
14.160000 -0.022648 0
14.165000 -0.012213 0
14.170000 0.001074 0
14.175000 0.017549 0
14.180000 0.037392 0
14.185000 0.060551 0
14.190000 0.086675 0
14.195000 0.115073 0
14.200000 0.144701 0
14.205000 0.174205 0
14.210000 0.202004 0
14.215000 0.226422 0
14.220000 0.245854 0
14.225000 0.258937 0
14.230000 0.264704 1
14.235000 0.262709 0
14.240000 0.253073 0
14.245000 0.236479 0
14.250000 0.214088 0
14.255000 0.187402 0
14.260000 0.158098 0
14.265000 0.127839 0
14.270000 0.098073 0
14.275000 0.069772 0
14.280000 0.043022 0
14.285000 0.016452 0
14.290000 -0.013186 0
14.295000 -0.050343 0
14.300000 -0.097843 0
14.305000 -0.152193 0
14.310000 -0.199830 0
14.315000 -0.217777 2
14.320000 -0.179018 0
14.325000 -0.059511 0
14.330000 0.153844 0
14.335000 0.450554 0
14.340000 0.781290 0
14.345000 1.057293 0
14.350000 1.182097 3
14.355000 1.105954 0
14.360000 0.854253 0
14.365000 0.510365 0
14.370000 0.169259 0
14.375000 -0.101563 0
14.380000 -0.272217 0
14.385000 -0.341993 4
14.390000 -0.329591 0
14.395000 -0.265754 0
14.400000 -0.183780 0
14.405000 -0.108780 0
14.410000 -0.051900 0
14.415000 -0.012438 0
14.420000 0.015772 0
14.425000 0.038943 0
14.430000 0.061093 0
14.435000 0.084147 0
14.440000 0.108756 0
14.445000 0.134969 0
14.450000 0.162574 0
14.455000 0.191220 0
14.460000 0.220469 0
14.465000 0.249806 0
14.470000 0.278660 0
14.475000 0.306415 0
14.480000 0.332434 0
14.485000 0.356083 0
14.490000 0.376752 0
14.495000 0.393886 0
14.500000 0.407005 0
14.505000 0.415726 0
14.510000 0.419785 5
14.515000 0.419043 0
14.520000 0.413501 0
14.525000 0.403292 0
14.530000 0.388682 0
14.535000 0.370055 0
14.540000 0.347896 0
14.545000 0.322769 0
14.550000 0.295294 0
14.555000 0.266121 0
14.560000 0.235904 0
14.565000 0.205277 0
14.570000 0.174834 0
14.575000 0.145108 0
14.580000 0.116561 0
14.585000 0.089575 0
14.590000 0.064443 0
14.595000 0.041376 0
14.600000 0.020502 0
14.605000 0.001872 0
14.610000 -0.014527 0
14.615000 -0.028762 0
14.620000 -0.040947 0
14.625000 -0.051228 0
14.630000 -0.059770 0
14.635000 -0.066754 0
14.640000 -0.072363 0
14.645000 -0.076776 0
14.650000 -0.080166 0
14.655000 -0.082692 0
14.660000 -0.084498 0
14.665000 -0.085713 0
14.670000 -0.086449 0
14.675000 -0.086801 0
14.680000 -0.086082 0
14.685000 -0.085187 0
14.690000 -0.084296 0
14.695000 -0.083410 0
14.700000 -0.082528 0
14.705000 -0.081650 0
14.710000 -0.080777 0
14.715000 -0.079908 0
14.720000 -0.079042 0
14.725000 -0.078181 0
14.730000 -0.077322 0
14.735000 -0.076465 0
14.740000 -0.075607 0
14.745000 -0.074744 0
14.750000 -0.073868 0
14.755000 -0.072966 0
14.760000 -0.072015 0
14.765000 -0.070983 0
14.770000 -0.069815 0
14.775000 -0.068431 0
14.780000 -0.066716 0
14.785000 -0.064510 0
14.790000 -0.061596 0
14.795000 -0.057699 0
14.800000 -0.052480 0
14.805000 -0.045543 0
14.810000 -0.036459 0
14.815000 -0.024796 0
14.820000 -0.010170 0
14.825000 0.007695 0
14.830000 0.028894 0
14.835000 0.053273 0
14.840000 0.080373 0
14.845000 0.109399 0
14.850000 0.139226 0
14.855000 0.168451 0
14.860000 0.195490 0
14.865000 0.218714 0
14.870000 0.236609 0
14.875000 0.247938 0
14.880000 0.251884 1
14.885000 0.248144 0
14.890000 0.236968 0
14.895000 0.219134 0
14.900000 0.195853 0
14.905000 0.168636 0
14.910000 0.139128 0
14.915000 0.108930 0
14.920000 0.079398 0
14.925000 0.051389 0
14.930000 0.024841 0
14.935000 -0.001780 0
14.940000 -0.031815 0
14.945000 -0.069616 0
14.950000 -0.117654 0
14.955000 -0.172009 0
14.960000 -0.218960 0
14.965000 -0.235863 2
14.970000 -0.196375 0
14.975000 -0.077122 0
14.980000 0.134745 0
14.985000 0.429569 0
14.990000 0.760579 0
14.995000 1.042489 0
15.000000 1.180274 3
15.005000 1.117485 0
15.010000 0.873509 0
15.015000 0.531526 0
15.020000 0.189237 0
15.025000 -0.083092 0
15.030000 -0.254211 0
15.035000 -0.323262 4
15.040000 -0.309536 0
15.045000 -0.244682 0
15.050000 -0.162688 0
15.055000 -0.088680 0
15.060000 -0.033248 0
15.065000 0.004937 0
15.070000 0.032353 0
15.075000 0.055195 0
15.080000 0.077320 0
15.085000 0.100497 0
15.090000 0.125283 0
15.095000 0.151674 0
15.100000 0.179424 0
15.105000 0.208159 0
15.110000 0.237411 0
15.115000 0.266642 0
15.120000 0.295254 0
15.125000 0.322609 0
15.130000 0.348053 0
15.135000 0.370939 0
15.140000 0.390655 0
15.145000 0.406648 0
15.150000 0.418454 0
15.155000 0.425714 0
15.160000 0.428194 5
15.165000 0.425800 0
15.170000 0.418576 0
15.175000 0.406707 0
15.180000 0.390511 0
15.185000 0.370421 0
15.190000 0.346969 0
15.195000 0.320759 0
15.200000 0.292441 0
15.205000 0.262687 0
15.210000 0.232161 0
15.215000 0.201497 0
15.220000 0.171278 0
15.225000 0.142016 0
15.230000 0.114147 0
15.235000 0.088018 0
15.240000 0.063885 0
15.245000 0.041920 0
15.250000 0.022210 0
15.255000 0.004773 0
15.260000 -0.010438 0
15.265000 -0.023522 0
15.270000 -0.034614 0
15.275000 -0.043878 0
15.280000 -0.051493 0
15.285000 -0.057647 0
15.290000 -0.062526 0
15.295000 -0.066310 0
15.300000 -0.069166 0
15.305000 -0.071248 0
15.310000 -0.072694 0
15.315000 -0.073621 0
15.320000 -0.074134 0
15.325000 -0.073493 0
15.330000 -0.072660 0
15.335000 -0.071832 0
15.340000 -0.071007 0
15.345000 -0.070187 0
15.350000 -0.069371 0
15.355000 -0.068559 0
15.360000 -0.067751 0
15.365000 -0.066946 0
15.370000 -0.066145 0
15.375000 -0.065347 0
15.380000 -0.064550 0
15.385000 -0.063753 0
15.390000 -0.062950 0
15.395000 -0.062134 0
15.400000 -0.061293 0
15.405000 -0.060406 0
15.410000 -0.059437 0
15.415000 -0.058333 0
15.420000 -0.057014 0
15.425000 -0.055361 0
15.430000 -0.053213 0
15.435000 -0.050346 0
15.440000 -0.046478 0
15.445000 -0.041259 0
15.450000 -0.034283 0
15.455000 -0.025108 0
15.460000 -0.013292 0
15.465000 0.001551 0
15.470000 0.019693 0
15.475000 0.041207 0
15.480000 0.065905 0
15.485000 0.093275 0
15.490000 0.122454 0
15.495000 0.152242 0
15.500000 0.181164 0
15.505000 0.207577 0
15.510000 0.229820 0
15.515000 0.246386 0
15.520000 0.256085 0
15.525000 0.258191 1
15.530000 0.252526 0
15.535000 0.239486 0
15.540000 0.219994 0
15.545000 0.195390 0
15.550000 0.167281 0
15.555000 0.137357 0
15.560000 0.107205 0
15.565000 0.078084 0
15.570000 0.050611 0
15.575000 0.024260 0
15.580000 -0.003206 0
15.585000 -0.035792 0
15.590000 -0.077679 0
15.595000 -0.129352 0
15.600000 -0.182876 0
15.605000 -0.219902 2
15.610000 -0.214761 0
15.615000 -0.140983 0
15.620000 0.021539 0
15.625000 0.276900 0
15.630000 0.598215 0
15.635000 0.916340 0
15.640000 1.133160 0
15.645000 1.166654 3
15.650000 1.003487 0
15.655000 0.699699 0
15.660000 0.346378 0
15.665000 0.027013 0
15.670000 -0.208033 0
15.675000 -0.341844 0
15.680000 -0.381242 4
15.685000 -0.348884 0
15.690000 -0.276246 0
15.695000 -0.194037 0
15.700000 -0.122954 0
15.705000 -0.070359 0
15.710000 -0.033739 0
15.715000 -0.006799 0
15.720000 0.016103 0
15.725000 0.038437 0
15.730000 0.061804 0
15.735000 0.086723 0
15.740000 0.113199 0
15.745000 0.141010 0
15.750000 0.169815 0
15.755000 0.199188 0
15.760000 0.228632 0
15.765000 0.257597 0
15.770000 0.285493 0
15.775000 0.311708 0
15.780000 0.335633 0
15.785000 0.356680 0
15.790000 0.374310 0
15.795000 0.388053 0
15.800000 0.397530 0
15.805000 0.402469 0
15.810000 0.402718 5
15.815000 0.398250 0
15.820000 0.389169 0
15.825000 0.375703 0
15.830000 0.358194 0
15.835000 0.337084 0
15.840000 0.312895 0
15.845000 0.286210 0
15.850000 0.257646 0
15.855000 0.227833 0
15.860000 0.197390 0
15.865000 0.166904 0
15.870000 0.136914 0
15.875000 0.107893 0
15.880000 0.080243 0
15.885000 0.054285 0
15.890000 0.030262 0
15.895000 0.008333 0
15.900000 -0.011413 0
15.905000 -0.028956 0
15.910000 -0.044333 0
15.915000 -0.057630 0
15.920000 -0.068968 0
15.925000 -0.078496 0
15.930000 -0.086379 0
15.935000 -0.092793 0
15.940000 -0.097914 0
15.945000 -0.101911 0
15.950000 -0.104948 0
15.955000 -0.107174 0
15.960000 -0.108725 0
15.965000 -0.109720 0
15.970000 -0.110265 0
15.975000 -0.110447 0
15.980000 -0.109604 0
15.985000 -0.108591 0
15.990000 -0.107583 0
15.995000 -0.106581 0
16.000000 -0.105583 0
16.005000 -0.104591 0
16.010000 -0.103603 0
16.015000 -0.102620 0
16.020000 -0.101641 0
16.025000 -0.100667 0
16.030000 -0.099697 0
16.035000 -0.098728 0
16.040000 -0.097760 0
16.045000 -0.096788 0
16.050000 -0.095805 0
16.055000 -0.094800 0
16.060000 -0.093753 0
16.065000 -0.092634 0
16.070000 -0.091396 0
16.075000 -0.089969 0
16.080000 -0.088252 0
16.085000 -0.086102 0
16.090000 -0.083330 0
16.095000 -0.079688 0
16.100000 -0.074870 0
16.105000 -0.068514 0
16.110000 -0.060217 0
16.115000 -0.049561 0
16.120000 -0.036150 0
16.125000 -0.019668 0
16.130000 0.000063 0
16.135000 0.023016 0
16.140000 0.048898 0
16.145000 0.077111 0
16.150000 0.106739 0
16.155000 0.136572 0
16.160000 0.165172 0
16.165000 0.190984 0
16.170000 0.212465 0
16.175000 0.228244 0
16.180000 0.237260 0
16.185000 0.238885 1
16.190000 0.232992 0
16.195000 0.219976 0
16.200000 0.200709 0
16.205000 0.176441 0
16.210000 0.148669 0
16.215000 0.118980 0
16.220000 0.088881 0
16.225000 0.059618 0
16.230000 0.031910 0
16.235000 0.005547 0
16.240000 -0.021131 0
16.245000 -0.051480 0
16.250000 -0.089683 0
16.255000 -0.137934 0
16.260000 -0.192226 0
16.265000 -0.239270 0
16.270000 -0.257353 2
16.275000 -0.221163 0
16.280000 -0.107934 0
16.285000 0.095723 0
16.290000 0.383128 0
16.295000 0.713750 0
16.300000 1.009461 0
16.305000 1.177281 3
16.310000 1.154657 0
16.315000 0.944338 0
16.320000 0.616035 0
16.325000 0.265621 0
16.330000 -0.030019 0
16.335000 -0.231020 0
16.340000 -0.329419 0
16.345000 -0.338859 4
16.350000 -0.287062 0
16.355000 -0.207447 0
16.360000 -0.128380 0
16.365000 -0.065370 0
16.370000 -0.020850 0
16.375000 0.010267 0
16.380000 0.034526 0
16.385000 0.056700 0
16.390000 0.079310 0
16.395000 0.103339 0
16.400000 0.128990 0
16.405000 0.156119 0
16.410000 0.184421 0
16.415000 0.213488 0
16.420000 0.242838 0
16.425000 0.271923 0
16.430000 0.300145 0
16.435000 0.326881 0
16.440000 0.351497 0
16.445000 0.373376 0
16.450000 0.391945 0
16.455000 0.406695 0
16.460000 0.417207 0
16.465000 0.423169 0
16.470000 0.424393 5
16.475000 0.420820 0
16.480000 0.412531 0
16.485000 0.399733 0
16.490000 0.382759 0
16.495000 0.362050 0
16.500000 0.338133 0
16.505000 0.311601 0
16.510000 0.283089 0
16.515000 0.253246 0
16.520000 0.222712 0
16.525000 0.192097 0
16.530000 0.161959 0
16.535000 0.132790 0
16.540000 0.105006 0
16.545000 0.078940 0
16.550000 0.054839 0
16.555000 0.032870 0
16.560000 0.013120 0
16.565000 -0.004395 0
16.570000 -0.019715 0
16.575000 -0.032933 0
16.580000 -0.044177 0
16.585000 -0.053603 0
16.590000 -0.061384 0
16.595000 -0.067701 0
16.600000 -0.072734 0
16.605000 -0.076658 0
16.610000 -0.079639 0
16.615000 -0.081827 0
16.620000 -0.083359 0
16.625000 -0.084355 0
16.630000 -0.084918 0
16.635000 -0.084975 0
16.640000 -0.084085 0
16.645000 -0.083200 0
16.650000 -0.082319 0
16.655000 -0.081442 0
16.660000 -0.080570 0
16.665000 -0.079702 0
16.670000 -0.078839 0
16.675000 -0.077979 0
16.680000 -0.077123 0
16.685000 -0.076271 0
16.690000 -0.075421 0
16.695000 -0.074572 0
16.700000 -0.073720 0
16.705000 -0.072861 0
16.710000 -0.071985 0
16.715000 -0.071076 0
16.720000 -0.070108 0
16.725000 -0.069042 0
16.730000 -0.067816 0
16.735000 -0.066339 0
16.740000 -0.064483 0
16.745000 -0.062071 0
16.750000 -0.058868 0
16.755000 -0.054580 0
16.760000 -0.048852 0
16.765000 -0.041277 0
16.770000 -0.031425 0
16.775000 -0.018877 0
16.780000 -0.003279 0
16.785000 0.015594 0
16.790000 0.037769 0
16.795000 0.063007 0
16.800000 0.090756 0
16.805000 0.120131 0
16.810000 0.149929 0
16.815000 0.178698 0
16.820000 0.204840 0
16.825000 0.226757 0
16.830000 0.243005 0
16.835000 0.252457 0
16.840000 0.254429 1
16.845000 0.248760 0
16.850000 0.235836 0
16.855000 0.216542 0
16.860000 0.192167 0
16.865000 0.164254 0
16.870000 0.134440 0
16.875000 0.104275 0
16.880000 0.075020 0
16.885000 0.047364 0
16.890000 0.020980 0
16.895000 -0.006023 0
16.900000 -0.037286 0
16.905000 -0.077053 0
16.910000 -0.126900 0
16.915000 -0.181232 0
16.920000 -0.224560 0
16.925000 -0.233285 2
16.930000 -0.181334 0
16.935000 -0.046751 0
16.940000 0.180407 0
16.945000 0.485386 0
16.950000 0.815096 0
16.955000 1.080739 0
16.960000 1.190872 3
16.965000 1.102699 0
16.970000 0.845152 0
16.975000 0.500195 0
16.980000 0.159191 0
16.985000 -0.112957 0
16.990000 -0.287025 0
16.995000 -0.361612 4
17.000000 -0.353968 0
17.005000 -0.293182 0
17.010000 -0.211601 0
17.015000 -0.134691 0
17.020000 -0.074918 0
17.025000 -0.032888 0
17.030000 -0.003069 0
17.035000 0.020776 0
17.040000 0.042988 0
17.045000 0.065794 0
17.050000 0.090043 0
17.055000 0.115886 0
17.060000 0.143167 0
17.065000 0.171584 0
17.070000 0.200737 0
17.075000 0.230154 0
17.080000 0.259301 0
17.085000 0.287600 0
17.090000 0.314442 0
17.095000 0.339213 0
17.100000 0.361313 0
17.105000 0.380182 0
17.110000 0.395319 0
17.115000 0.406311 0
17.120000 0.412843 0
17.125000 0.414718 5
17.130000 0.411866 0
17.135000 0.404343 0
17.140000 0.392335 0
17.145000 0.376146 0
17.150000 0.356184 0
17.155000 0.332950 0
17.160000 0.307007 0
17.165000 0.278966 0
17.170000 0.249457 0
17.175000 0.219106 0
17.180000 0.188516 0
17.185000 0.158244 0
17.190000 0.128789 0
17.195000 0.100579 0
17.200000 0.073965 0
17.205000 0.049216 0
17.210000 0.026518 0
17.215000 0.005986 0
17.220000 -0.012341 0
17.225000 -0.028481 0
17.230000 -0.042504 0
17.235000 -0.054522 0
17.240000 -0.064677 0
17.245000 -0.073130 0
17.250000 -0.080053 0
17.255000 -0.085625 0
17.260000 -0.090017 0
17.265000 -0.093397 0
17.270000 -0.095919 0
17.275000 -0.097723 0
17.280000 -0.098934 0
17.285000 -0.099661 0
17.290000 -0.100000 0
17.295000 -0.099224 0
17.300000 -0.098263 0
17.305000 -0.097307 0
17.310000 -0.096356 0
17.315000 -0.095409 0
17.320000 -0.094468 0
17.325000 -0.093530 0
17.330000 -0.092598 0
17.335000 -0.091669 0
17.340000 -0.090745 0
17.345000 -0.089824 0
17.350000 -0.088906 0
17.355000 -0.087989 0
17.360000 -0.087069 0
17.365000 -0.086140 0
17.370000 -0.085192 0
17.375000 -0.084209 0
17.380000 -0.083164 0
17.385000 -0.082015 0
17.390000 -0.080699 0
17.395000 -0.079125 0
17.400000 -0.077162 0
17.405000 -0.074635 0
17.410000 -0.071312 0
17.415000 -0.066902 0
17.420000 -0.061057 0
17.425000 -0.053383 0
17.430000 -0.043461 0
17.435000 -0.030882 0
17.440000 -0.015303 0
17.445000 0.003500 0
17.450000 0.025560 0
17.455000 0.050660 0
17.460000 0.078286 0
17.465000 0.107602 0
17.470000 0.137469 0
17.475000 0.166496 0
17.480000 0.193142 0
17.485000 0.215843 0
17.490000 0.233163 0
17.495000 0.243948 0
17.500000 0.247446 1
17.505000 0.243399 0
17.510000 0.232072 0
17.515000 0.214226 0
17.520000 0.191031 0
17.525000 0.163939 0
17.530000 0.134536 0
17.535000 0.104368 0
17.540000 0.074769 0
17.545000 0.046619 0
17.550000 0.019979 0
17.555000 -0.006420 0
17.560000 -0.035556 0
17.565000 -0.071603 0
17.570000 -0.117589 0
17.575000 -0.171334 0
17.580000 -0.221790 0
17.585000 -0.248833 2
17.590000 -0.227374 0
17.595000 -0.133452 0
17.600000 0.049254 0
17.605000 0.319835 0
17.610000 0.646312 0
17.615000 0.957932 0
17.620000 1.161316 0
17.625000 1.182895 3
17.630000 1.007782 0
17.635000 0.695059 0
17.640000 0.341986 0
17.645000 0.033238 0
17.650000 -0.183790 0
17.655000 -0.296530 0
17.660000 -0.316312 4
17.665000 -0.270103 0
17.670000 -0.192031 0
17.675000 -0.112193 0
17.680000 -0.047828 0
17.685000 -0.002328 0
17.690000 0.029214 0
17.695000 0.053537 0
17.700000 0.075629 0
17.705000 0.098131 0
17.710000 0.122069 0
17.715000 0.147651 0
17.720000 0.174726 0
17.725000 0.202979 0
17.730000 0.231990 0
17.735000 0.261256 0
17.740000 0.290214 0
17.745000 0.318246 0
17.750000 0.344711 0
17.755000 0.368959 0
17.760000 0.390361 0
17.765000 0.408336 0
17.770000 0.422372 0
17.775000 0.432057 0
17.780000 0.437090 0
17.785000 0.437301 5
17.790000 0.432660 0
17.795000 0.423275 0
17.800000 0.409389 0
17.805000 0.391372 0
17.810000 0.369698 0
17.815000 0.344930 0
17.820000 0.317690 0
17.825000 0.288637 0
17.830000 0.258435 0
17.835000 0.227735 0
17.840000 0.197146 0
17.845000 0.167220 0
17.850000 0.138435 0
17.855000 0.111188 0
17.860000 0.085788 0
17.865000 0.062454 0
17.870000 0.041323 0
17.875000 0.022455 0
17.880000 0.005839 0
17.885000 -0.008591 0
17.890000 -0.020948 0
17.895000 -0.031378 0
17.900000 -0.040052 0
17.905000 -0.047151 0
17.910000 -0.052861 0
17.915000 -0.057366 0
17.920000 -0.060840 0
17.925000 -0.063445 0
17.930000 -0.065327 0
17.935000 -0.066617 0
17.940000 -0.067427 0
17.945000 -0.067855 0
17.950000 -0.067228 0
17.955000 -0.066427 0
17.960000 -0.065630 0
17.965000 -0.064836 0
17.970000 -0.064047 0
17.975000 -0.063261 0
17.980000 -0.062480 0
17.985000 -0.061702 0
17.990000 -0.060927 0
17.995000 -0.060156 0
18.000000 -0.059387 0
18.005000 -0.058619 0
18.010000 -0.057849 0
18.015000 -0.057072 0
18.020000 -0.056279 0
18.025000 -0.055456 0
18.030000 -0.054579 0
18.035000 -0.053609 0
18.040000 -0.052487 0
18.045000 -0.051125 0
18.050000 -0.049395 0
18.055000 -0.047122 0
18.060000 -0.044071 0
18.065000 -0.039946 0
18.070000 -0.034386 0
18.075000 -0.026977 0
18.080000 -0.017276 0
18.085000 -0.004854 0
18.090000 0.010656 0
18.095000 0.029485 0
18.100000 0.051658 0
18.105000 0.076925 0
18.110000 0.104708 0
18.115000 0.134082 0
18.120000 0.163796 0
18.125000 0.192346 0
18.130000 0.218084 0
18.135000 0.239379 0
18.140000 0.254780 0
18.145000 0.263178 0
18.150000 0.263943 1
18.155000 0.256994 0
18.160000 0.242814 0
18.165000 0.222395 0
18.170000 0.197119 0
18.175000 0.168605 0
18.180000 0.138526 0
18.185000 0.108427 0
18.190000 0.079488 0
18.195000 0.052200 0
18.200000 0.025848 0
18.205000 -0.002033 0
18.210000 -0.035572 0
18.215000 -0.078724 0
18.220000 -0.131221 0
18.225000 -0.184041 0
18.230000 -0.217944 2
18.235000 -0.207044 0
18.240000 -0.125383 0
18.245000 0.045952 0
18.250000 0.308863 0
18.255000 0.633195 0
18.260000 0.946879 0
18.265000 1.151830 0
18.270000 1.170141 3
18.275000 0.991001 0
18.280000 0.676543 0
18.285000 0.323643 0
18.290000 0.015954 0
18.295000 -0.199957 0
18.300000 -0.311904 0
18.305000 -0.331292 4
18.310000 -0.284966 0
18.315000 -0.206851 0
18.320000 -0.126884 0
18.325000 -0.062278 0
18.330000 -0.016503 0
18.335000 0.015265 0
18.340000 0.039733 0
18.345000 0.061904 0
18.350000 0.084444 0
18.355000 0.108402 0
18.360000 0.133998 0
18.365000 0.161091 0
18.370000 0.189370 0
18.375000 0.218420 0
18.380000 0.247749 0
18.385000 0.276795 0
18.390000 0.304949 0
18.395000 0.331573 0
18.400000 0.356022 0
18.405000 0.377668 0
18.410000 0.395931 0
18.415000 0.410298 0
18.420000 0.420351 0
18.425000 0.425783 0
18.430000 0.426417 5
18.435000 0.422210 0
18.440000 0.413261 0
18.445000 0.399800 0
18.450000 0.382184 0
18.455000 0.360877 0
18.460000 0.336430 0
18.465000 0.309458 0
18.470000 0.280612 0
18.475000 0.250555 0
18.480000 0.219933 0
18.485000 0.189360 0
18.490000 0.159389 0
18.495000 0.130505 0
18.500000 0.103112 0
18.505000 0.077526 0
18.510000 0.053979 0
18.515000 0.032615 0
18.520000 0.013503 0
18.525000 -0.003359 0
18.530000 -0.018031 0
18.535000 -0.030617 0
18.540000 -0.041261 0
18.545000 -0.050128 0
18.550000 -0.057397 0
18.555000 -0.063254 0
18.560000 -0.067881 0
18.565000 -0.071455 0
18.570000 -0.074136 0
18.575000 -0.076075 0
18.580000 -0.077403 0
18.585000 -0.078234 0
18.590000 -0.078669 0
18.595000 -0.077997 0
18.600000 -0.077142 0
18.605000 -0.076291 0
18.610000 -0.075445 0
18.615000 -0.074603 0
18.620000 -0.073764 0
18.625000 -0.072930 0
18.630000 -0.072100 0
18.635000 -0.071274 0
18.640000 -0.070451 0
18.645000 -0.069632 0
18.650000 -0.068813 0
18.655000 -0.067994 0
18.660000 -0.067169 0
18.665000 -0.066332 0
18.670000 -0.065468 0
18.675000 -0.064557 0
18.680000 -0.063565 0
18.685000 -0.062437 0
18.690000 -0.061094 0
18.695000 -0.059420 0
18.700000 -0.057253 0
18.705000 -0.054375 0
18.710000 -0.050507 0
18.715000 -0.045306 0
18.720000 -0.038372 0
18.725000 -0.029270 0
18.730000 -0.017566 0
18.735000 -0.002871 0
18.740000 0.015087 0
18.745000 0.036395 0
18.750000 0.060887 0
18.755000 0.088083 0
18.760000 0.117160 0
18.765000 0.146964 0
18.770000 0.176060 0
18.775000 0.202841 0
18.780000 0.225662 0
18.785000 0.243010 0
18.790000 0.253667 0
18.795000 0.256850 1
18.800000 0.252307 0
18.805000 0.240348 0
18.810000 0.221809 0
18.815000 0.197956 0
18.820000 0.170342 0
18.825000 0.140633 0
18.830000 0.110426 0
18.835000 0.081043 0
18.840000 0.053248 0
18.845000 0.026799 0
18.850000 -0.000121 0
18.855000 -0.031143 0
18.860000 -0.070615 0
18.865000 -0.120287 0
18.870000 -0.174655 0
18.875000 -0.218049 0
18.880000 -0.226433 2
18.885000 -0.173237 0
18.890000 -0.036221 0
18.895000 0.194244 0
18.900000 0.501843 0
18.905000 0.830466 0
18.910000 1.088301 0
18.915000 1.183853 3
18.920000 1.076531 0
18.925000 0.802827 0
18.930000 0.453036 0
18.935000 0.120945 0
18.940000 -0.131851 0
18.945000 -0.281532 0
18.950000 -0.332010 4
18.955000 -0.305514 0
18.960000 -0.234826 0
18.965000 -0.152797 0
18.970000 -0.081829 0
18.975000 -0.029844 0
18.980000 0.005931 0
18.985000 0.032184 0
18.990000 0.054719 0
18.995000 0.076960 0
19.000000 0.100403 0
19.005000 0.125473 0
19.010000 0.152116 0
19.015000 0.180061 0
19.020000 0.208922 0
19.025000 0.238224 0
19.030000 0.267421 0
19.035000 0.295915 0
19.040000 0.323067 0
19.045000 0.348228 0
19.050000 0.370759 0
19.055000 0.390057 0
19.060000 0.405585 0
19.065000 0.416891 0
19.070000 0.423635 0
19.075000 0.425599 5
19.080000 0.422703 0
19.085000 0.415008 0
19.090000 0.402711 0
19.095000 0.386139 0
19.100000 0.365734 0
19.105000 0.342029 0
19.110000 0.315631 0
19.115000 0.287187 0
19.120000 0.257366 0
19.125000 0.226824 0
19.130000 0.196189 0
19.135000 0.166033 0
19.140000 0.136863 0
19.145000 0.109105 0
19.150000 0.083097 0
19.155000 0.059090 0
19.160000 0.037250 0
19.165000 0.017660 0
19.170000 0.000333 0
19.175000 -0.014779 0
19.180000 -0.027775 0
19.185000 -0.038790 0
19.190000 -0.047989 0
19.195000 -0.055549 0
19.200000 -0.061658 0
19.205000 -0.066499 0
19.210000 -0.070252 0
19.215000 -0.073082 0
19.220000 -0.075141 0
19.225000 -0.076566 0
19.230000 -0.077476 0
19.235000 -0.077972 0
19.240000 -0.077312 0
19.245000 -0.076460 0
19.250000 -0.075613 0
19.255000 -0.074770 0
19.260000 -0.073931 0
19.265000 -0.073096 0
19.270000 -0.072265 0
19.275000 -0.071439 0
19.280000 -0.070616 0
19.285000 -0.069797 0
19.290000 -0.068980 0
19.295000 -0.068165 0
19.300000 -0.067350 0
19.305000 -0.066530 0
19.310000 -0.065698 0
19.315000 -0.064842 0
19.320000 -0.063941 0
19.325000 -0.062962 0
19.330000 -0.061853 0
19.335000 -0.060537 0
19.340000 -0.058901 0
19.345000 -0.056786 0
19.350000 -0.053977 0
19.355000 -0.050200 0
19.360000 -0.045111 0
19.365000 -0.038314 0
19.370000 -0.029372 0
19.375000 -0.017845 0
19.380000 -0.003338 0
19.385000 0.014433 0
19.390000 0.035568 0
19.395000 0.059913 0
19.400000 0.087002 0
19.405000 0.116021 0
19.410000 0.145821 0
19.415000 0.174968 0
19.420000 0.201845 0
19.425000 0.224795 0
19.430000 0.242290 0
19.435000 0.253093 0
19.440000 0.256405 1
19.445000 0.251965 0
19.450000 0.240075 0
19.455000 0.221574 0
19.460000 0.197735 0
19.465000 0.170119 0
19.470000 0.140405 0
19.475000 0.110200 0
19.480000 0.080832 0
19.485000 0.053061 0
19.490000 0.026624 0
19.495000 -0.000344 0
19.500000 -0.031536 0
19.505000 -0.071309 0
19.510000 -0.121277 0
19.515000 -0.175583 0
19.520000 -0.218079 0
19.525000 -0.224334 2
19.530000 -0.167641 0
19.535000 -0.025991 0
19.540000 0.209355 0
19.545000 0.520085 0
19.550000 0.847239 0
19.555000 1.097055 0
19.560000 1.179279 3
19.565000 1.059997 0
19.570000 0.780190 0
19.575000 0.429474 0
19.580000 0.098771 0
19.585000 -0.152751 0
19.590000 -0.302293 0
19.595000 -0.353711 4
19.600000 -0.328557 0
19.605000 -0.258717 0
19.610000 -0.176485 0
19.615000 -0.104383 0
19.620000 -0.050940 0
19.625000 -0.013960 0
19.630000 0.013003 0
19.635000 0.035813 0
19.640000 0.058060 0
19.645000 0.081381 0
19.650000 0.106289 0
19.655000 0.132774 0
19.660000 0.160598 0
19.665000 0.189397 0
19.670000 0.218724 0
19.675000 0.248058 0
19.680000 0.276824 0
19.685000 0.304406 0
19.690000 0.330170 0
19.695000 0.353488 0
19.700000 0.373762 0
19.705000 0.390446 0
19.710000 0.403075 0
19.715000 0.411283 0
19.720000 0.414821 5
19.725000 0.413567 0
19.730000 0.407537 0
19.735000 0.396879 0
19.740000 0.381868 0
19.745000 0.362898 0
19.750000 0.340459 0
19.755000 0.315117 0
19.760000 0.287493 0
19.765000 0.258234 0
19.770000 0.227987 0
19.775000 0.197381 0
19.780000 0.167001 0
19.785000 0.137373 0
19.790000 0.108950 0
19.795000 0.082104 0
19.800000 0.057122 0
19.805000 0.034209 0
19.810000 0.013485 0
19.815000 -0.005000 0
19.820000 -0.021264 0
19.825000 -0.035376 0
19.830000 -0.047450 0
19.835000 -0.057632 0
19.840000 -0.066087 0
19.845000 -0.072996 0
19.850000 -0.078539 0
19.855000 -0.082896 0
19.860000 -0.086236 0
19.865000 -0.088719 0
19.870000 -0.090486 0
19.875000 -0.091665 0
19.880000 -0.092368 0
19.885000 -0.092689 0
19.890000 -0.091941 0
19.895000 -0.091017 0
19.900000 -0.090097 0
19.905000 -0.089181 0
19.910000 -0.088270 0
19.915000 -0.087364 0
19.920000 -0.086462 0
19.925000 -0.085565 0
19.930000 -0.084671 0
19.935000 -0.083782 0
19.940000 -0.082895 0
19.945000 -0.082011 0
19.950000 -0.081125 0
19.955000 -0.080235 0
19.960000 -0.079333 0
19.965000 -0.078405 0
19.970000 -0.077431 0
19.975000 -0.076378 0
19.980000 -0.075193 0
19.985000 -0.073800 0
19.990000 -0.072085 0
19.995000 -0.069893 0
20.000000 -0.067015 0
20.005000 -0.063179 0
20.010000 -0.058053 0
20.015000 -0.051251 0
20.020000 -0.042346 0
20.025000 -0.030908 0
20.030000 -0.016548 0
20.035000 0.001020 0
20.040000 0.021910 0
20.045000 0.045998 0
20.050000 0.072862 0
20.055000 0.101747 0
20.060000 0.131571 0
20.065000 0.160968 0
20.070000 0.188377 0
20.075000 0.212180 0
20.080000 0.230847 0
20.085000 0.243109 0
20.090000 0.248091 1
20.095000 0.245421 0
20.100000 0.235274 0
20.105000 0.218350 0
20.110000 0.195801 0
20.115000 0.169092 0
20.120000 0.139848 0
20.125000 0.109679 0
20.130000 0.079986 0
20.135000 0.051721 0
20.140000 0.025010 0
20.145000 -0.001389 0
20.150000 -0.030498 0
20.155000 -0.066608 0
20.160000 -0.112815 0
20.165000 -0.166707 0
20.170000 -0.216537 0
20.175000 -0.241174 2
20.180000 -0.214640 0
20.185000 -0.112619 0
20.190000 0.080482 0
20.195000 0.360796 0
20.200000 0.690270 0
20.205000 0.990865 0
20.210000 1.166328 3
20.215000 1.149617 0
20.220000 0.944417 0
20.225000 0.619259 0
20.230000 0.267723 0
20.235000 -0.033369 0
20.240000 -0.242667 0
20.245000 -0.350307 0
20.250000 -0.367973 4
20.255000 -0.321590 0
20.260000 -0.243652 0
20.265000 -0.163062 0
20.270000 -0.096959 0
20.275000 -0.049430 0
20.280000 -0.016274 0
20.285000 0.008973 0
20.290000 0.031407 0
20.295000 0.053896 0
20.300000 0.077658 0
20.305000 0.103013 0
20.310000 0.129882 0
20.315000 0.157996 0
20.320000 0.186985 0
20.325000 0.216395 0
20.330000 0.245711 0
20.335000 0.274362 0
20.340000 0.301747 0
20.345000 0.327248 0
20.350000 0.350256 0
20.355000 0.370194 0
20.360000 0.386540 0
20.365000 0.398849 0
20.370000 0.406775 0
20.375000 0.410082 5
20.380000 0.408661 0
20.385000 0.402531 0
20.390000 0.391841 0
20.395000 0.376860 0
20.400000 0.357971 0
20.405000 0.335651 0
20.410000 0.310448 0
20.415000 0.282964 0
20.420000 0.253829 0
20.425000 0.223674 0
20.430000 0.193112 0
20.435000 0.162718 0
20.440000 0.133010 0
20.445000 0.104437 0
20.450000 0.077374 0
20.455000 0.052113 0
20.460000 0.028864 0
20.465000 0.007760 0
20.470000 -0.011140 0
20.475000 -0.027838 0
20.480000 -0.042394 0
20.485000 -0.054908 0
20.490000 -0.065517 0
20.495000 -0.074377 0
20.500000 -0.081661 0
20.505000 -0.087544 0
20.510000 -0.092204 0
20.515000 -0.095808 0
20.520000 -0.098515 0
20.525000 -0.100469 0
20.530000 -0.101800 0
20.535000 -0.102621 0
20.540000 -0.103032 0
20.545000 -0.102960 0
20.550000 -0.101980 0
20.555000 -0.101006 0
20.560000 -0.100036 0
20.565000 -0.099071 0
20.570000 -0.098111 0
20.575000 -0.097155 0
20.580000 -0.096205 0
20.585000 -0.095258 0
20.590000 -0.094317 0
20.595000 -0.093378 0
20.600000 -0.092443 0
20.605000 -0.091509 0
20.610000 -0.090573 0
20.615000 -0.089630 0
20.620000 -0.088672 0
20.625000 -0.087682 0
20.630000 -0.086636 0
20.635000 -0.085497 0
20.640000 -0.084207 0
20.645000 -0.082680 0
20.650000 -0.080794 0
20.655000 -0.078383 0
20.660000 -0.075227 0
20.665000 -0.071045 0
20.670000 -0.065501 0
20.675000 -0.058205 0
20.680000 -0.048739 0
20.685000 -0.036690 0
20.690000 -0.021694 0
20.695000 -0.003499 0
20.700000 0.017970 0
20.705000 0.042546 0
20.710000 0.069773 0
20.715000 0.098873 0
20.720000 0.128753 0
20.725000 0.158059 0
20.730000 0.185263 0
20.735000 0.208788 0
20.740000 0.227162 0
20.745000 0.239165 0
20.750000 0.243965 1
20.755000 0.241214 0
20.760000 0.231090 0
20.765000 0.214276 0
20.770000 0.191885 0
20.775000 0.165340 0
20.780000 0.136218 0
20.785000 0.106091 0
20.790000 0.076344 0
20.795000 0.047951 0
20.800000 0.021135 0
20.805000 -0.005137 0
20.810000 -0.033591 0
20.815000 -0.068330 0
20.820000 -0.112793 0
20.825000 -0.165843 0
20.830000 -0.217818 0
20.835000 -0.249674 2
20.840000 -0.236591 0
20.845000 -0.153990 0
20.850000 0.016033 0
20.855000 0.275713 0
20.860000 0.597980 0
20.865000 0.916802 0
20.870000 1.139481 0
20.875000 1.186810 3
20.880000 1.036710 0
20.885000 0.739179 0
20.890000 0.386120 0
20.895000 0.064007 0
20.900000 -0.174183 0
20.905000 -0.310225 0
20.910000 -0.350653 4
20.915000 -0.318450 0
20.920000 -0.245729 0
20.925000 -0.163750 0
20.930000 -0.093355 0
20.935000 -0.041668 0
20.940000 -0.005851 0
20.945000 0.020562 0
20.950000 0.043206 0
20.955000 0.065461 0
20.960000 0.088840 0
20.965000 0.113806 0
20.970000 0.140331 0
20.975000 0.168170 0
20.980000 0.196963 0
20.985000 0.226264 0
20.990000 0.255558 0
20.995000 0.284276 0
21.000000 0.311808 0
21.005000 0.337530 0
21.010000 0.360821 0
21.015000 0.381090 0
21.020000 0.397799 0
21.025000 0.410486 0
21.030000 0.418788 0
21.035000 0.422456 5
21.040000 0.421366 0
21.045000 0.415526 0
21.050000 0.405077 0
21.055000 0.390285 0
21.060000 0.371531 0
21.065000 0.349294 0
21.070000 0.324128 0
21.075000 0.296643 0
21.080000 0.267475 0
21.085000 0.237266 0
21.090000 0.206640 0
21.095000 0.176178 0
21.100000 0.146407 0
21.105000 0.117784 0
21.110000 0.090686 0
21.115000 0.065408 0
21.120000 0.042163 0
21.125000 0.021081 0
21.130000 0.002221 0
21.135000 -0.014423 0
21.140000 -0.028915 0
21.145000 -0.041359 0
21.150000 -0.051894 0
21.155000 -0.060683 0
21.160000 -0.067899 0
21.165000 -0.073722 0
21.170000 -0.078330 0
21.175000 -0.081893 0
21.180000 -0.084571 0
21.185000 -0.086507 0
21.190000 -0.087831 0
21.195000 -0.088657 0
21.200000 -0.089082 0
21.205000 -0.088365 0
21.210000 -0.087458 0
21.215000 -0.086556 0
21.220000 -0.085659 0
21.225000 -0.084765 0
21.230000 -0.083876 0
21.235000 -0.082992 0
21.240000 -0.082112 0
21.245000 -0.081236 0
21.250000 -0.080364 0
21.255000 -0.079495 0
21.260000 -0.078628 0
21.265000 -0.077762 0
21.270000 -0.076892 0
21.275000 -0.076013 0
21.280000 -0.075114 0
21.285000 -0.074178 0
21.290000 -0.073176 0
21.295000 -0.072066 0
21.300000 -0.070779 0
21.305000 -0.069221 0
21.310000 -0.067254 0
21.315000 -0.064692 0
21.320000 -0.061294 0
21.325000 -0.056755 0
21.330000 -0.050713 0
21.335000 -0.042761 0
21.340000 -0.032472 0
21.345000 -0.019436 0
21.350000 -0.003321 0
21.355000 0.016071 0
21.360000 0.038729 0
21.365000 0.064375 0
21.370000 0.092416 0
21.375000 0.121931 0
21.380000 0.151694 0
21.385000 0.180244 0
21.390000 0.205990 0
21.395000 0.227359 0
21.400000 0.242953 0
21.405000 0.251695 0
21.410000 0.252957 1
21.415000 0.246630 0
21.420000 0.233143 0
21.425000 0.213410 0
21.430000 0.188731 0
21.435000 0.160647 0
21.440000 0.130776 0
21.445000 0.100642 0
21.450000 0.071469 0
21.455000 0.043900 0
21.460000 0.017552 0
21.465000 -0.009515 0
21.470000 -0.040962 0
21.475000 -0.080967 0
21.480000 -0.130974 0
21.485000 -0.185272 0
21.490000 -0.228392 0
21.495000 -0.236925 2
21.500000 -0.185069 0
21.505000 -0.051081 0
21.510000 0.175009 0
21.515000 0.479000 0
21.520000 0.809069 0
21.525000 1.077859 0
21.530000 1.194231 3
21.535000 1.112006 0
21.540000 0.857594 0
21.545000 0.513286 0
21.550000 0.171924 0
21.555000 -0.100344 0
21.560000 -0.273812 0
21.565000 -0.347187 4
21.570000 -0.338171 0
21.575000 -0.276441 0
21.580000 -0.194739 0
21.585000 -0.118488 0
21.590000 -0.059745 0
21.595000 -0.018663 0
21.600000 0.010530 0
21.605000 0.034082 0
21.610000 0.056226 0
21.615000 0.079084 0
21.620000 0.103429 0
21.625000 0.129376 0
21.630000 0.156747 0
21.635000 0.185220 0
21.640000 0.214383 0
21.645000 0.243747 0
21.650000 0.272763 0
21.655000 0.300840 0
21.660000 0.327358 0
21.665000 0.351693 0
21.670000 0.373242 0
21.675000 0.391444 0
21.680000 0.405806 0
21.685000 0.415926 0
21.690000 0.421505 0
21.695000 0.422368 5
21.700000 0.418471 0
21.705000 0.409899 0
21.710000 0.396866 0
21.715000 0.379708 0
21.720000 0.358863 0
21.725000 0.334855 0
21.730000 0.308271 0
21.735000 0.279737 0
21.740000 0.249894 0
21.745000 0.219373 0
21.750000 0.188774 0
21.755000 0.158648 0
21.760000 0.129481 0
21.765000 0.101684 0
21.770000 0.075587 0
21.775000 0.051437 0
21.780000 0.029399 0
21.785000 0.009563 0
21.790000 -0.008052 0
21.795000 -0.023484 0
21.800000 -0.036820 0
21.805000 -0.048185 0
21.810000 -0.057732 0
21.815000 -0.065630 0
21.820000 -0.072056 0
21.825000 -0.077189 0
21.830000 -0.081204 0
21.835000 -0.084263 0
21.840000 -0.086518 0
21.845000 -0.088105 0
21.850000 -0.089144 0
21.855000 -0.089740 0
21.860000 -0.089813 0
21.865000 -0.088899 0
21.870000 -0.087990 0
21.875000 -0.087085 0
21.880000 -0.086185 0
21.885000 -0.085289 0
21.890000 -0.084397 0
21.895000 -0.083510 0
21.900000 -0.082627 0
21.905000 -0.081749 0
21.910000 -0.080873 0
21.915000 -0.080001 0
21.920000 -0.079130 0
21.925000 -0.078258 0
21.930000 -0.077380 0
21.935000 -0.076488 0
21.940000 -0.075568 0
21.945000 -0.074598 0
21.950000 -0.073544 0
21.955000 -0.072350 0
21.960000 -0.070938 0
21.965000 -0.069191 0
21.970000 -0.066951 0
21.975000 -0.064005 0
21.980000 -0.060081 0
21.985000 -0.054847 0
21.990000 -0.047917 0
21.995000 -0.038873 0
22.000000 -0.027290 0
22.005000 -0.012792 0
22.010000 0.004898 0
22.015000 0.025883 0
22.020000 0.050032 0
22.025000 0.076921 0
22.030000 0.105802 0
22.035000 0.135607 0
22.040000 0.164992 0
22.045000 0.192422 0
22.050000 0.216304 0
22.055000 0.235129 0
22.060000 0.247638 0
22.065000 0.252953 1
22.070000 0.250684 0
22.075000 0.240971 0
22.080000 0.224475 0
22.085000 0.202299 0
22.090000 0.175869 0
22.095000 0.146776 0
22.100000 0.116612 0
22.105000 0.086789 0
22.110000 0.058309 0
22.115000 0.031418 0
22.120000 0.005102 0
22.125000 -0.023374 0
22.130000 -0.058153 0
22.135000 -0.102710 0
22.140000 -0.155860 0
22.145000 -0.207735 0
22.150000 -0.238951 2
22.155000 -0.224352 0
22.160000 -0.139182 0
22.165000 0.034313 0
22.170000 0.297516 0
22.175000 0.621419 0
22.180000 0.937377 0
22.185000 1.151193 0
22.190000 1.185267 3
22.195000 1.021600 0
22.200000 0.714293 0
22.205000 0.360998 0
22.210000 0.048885 0
22.215000 -0.172273 0
22.220000 -0.288545 0
22.225000 -0.310706 4
22.230000 -0.265673 0
22.235000 -0.187907 0
22.240000 -0.107998 0
22.245000 -0.043553 0
22.250000 0.001922 0
22.255000 0.033384 0
22.260000 0.057639 0
22.265000 0.079704 0
22.270000 0.102215 0
22.275000 0.126184 0
22.280000 0.151805 0
22.285000 0.178921 0
22.290000 0.207204 0
22.295000 0.236227 0
22.300000 0.265479 0
22.305000 0.294384 0
22.310000 0.322317 0
22.315000 0.348627 0
22.320000 0.372658 0
22.325000 0.393775 0
22.330000 0.411397 0
22.335000 0.425014 0
22.340000 0.434218 0
22.345000 0.438719 5
22.350000 0.438361 0
22.355000 0.433128 0
22.360000 0.423147 0
22.365000 0.408680 0
22.370000 0.390117 0
22.375000 0.367951 0
22.380000 0.342762 0
22.385000 0.315185 0
22.390000 0.285891 0
22.395000 0.255550 0
22.400000 0.224815 0
22.405000 0.194294 0
22.410000 0.164532 0
22.415000 0.135998 0
22.420000 0.109077 0
22.425000 0.084064 0
22.430000 0.061164 0
22.435000 0.040498 0
22.440000 0.022110 0
22.445000 0.005976 0
22.450000 -0.007981 0
22.455000 -0.019886 0
22.460000 -0.029893 0
22.465000 -0.038176 0
22.470000 -0.044924 0
22.475000 -0.050322 0
22.480000 -0.054556 0
22.485000 -0.057798 0
22.490000 -0.060207 0
22.495000 -0.061929 0
22.500000 -0.063088 0
22.505000 -0.063796 0
22.510000 -0.063980 0
22.515000 -0.063195 0
22.520000 -0.062414 0
22.525000 -0.061636 0
22.530000 -0.060863 0
22.535000 -0.060093 0
22.540000 -0.059327 0
22.545000 -0.058565 0
22.550000 -0.057807 0
22.555000 -0.057052 0
22.560000 -0.056299 0
22.565000 -0.055549 0
22.570000 -0.054798 0
22.575000 -0.054044 0
22.580000 -0.053279 0
22.585000 -0.052495 0
22.590000 -0.051671 0
22.595000 -0.050780 0
22.600000 -0.049774 0
22.605000 -0.048583 0
22.610000 -0.047102 0
22.615000 -0.045185 0
22.620000 -0.042628 0
22.625000 -0.039169 0
22.630000 -0.034477 0
22.635000 -0.028164 0
22.640000 -0.019793 0
22.645000 -0.008916 0
22.650000 0.004879 0
22.655000 0.021909 0
22.660000 0.042321 0
22.665000 0.066015 0
22.670000 0.092583 0
22.675000 0.121272 0
22.680000 0.150979 0
22.685000 0.180297 0
22.690000 0.207617 0
22.695000 0.231259 0
22.700000 0.249645 0
22.705000 0.261469 0
22.710000 0.265849 1
22.715000 0.262438 0
22.720000 0.251462 0
22.725000 0.233701 0
22.730000 0.210393 0
22.735000 0.183088 0
22.740000 0.153479 0
22.745000 0.123207 0
22.750000 0.093658 0
22.755000 0.065675 0
22.760000 0.039114 0
22.765000 0.012259 0
22.770000 -0.018484 0
22.775000 -0.057555 0
22.780000 -0.106949 0
22.785000 -0.161398 0
22.790000 -0.205235 0
22.795000 -0.214116 2
22.800000 -0.160999 0
22.805000 -0.023249 0
22.810000 0.208745 0
22.815000 0.517737 0
22.820000 0.845468 0
22.825000 1.097757 0
22.830000 1.182835 3
22.835000 1.064382 0
22.840000 0.784128 0
22.845000 0.433173 0
22.850000 0.103629 0
22.855000 -0.145152 0
22.860000 -0.290906 0
22.865000 -0.338344 4
22.870000 -0.310011 0
22.875000 -0.238611 0
22.880000 -0.156602 0
22.885000 -0.085913 0
22.890000 -0.034163 0
22.895000 0.001505 0
22.900000 0.027741 0
22.905000 0.050294 0
22.910000 0.072556 0
22.915000 0.096011 0
22.920000 0.121086 0
22.925000 0.147730 0
22.930000 0.175675 0
22.935000 0.204540 0
22.940000 0.233855 0
22.945000 0.263082 0
22.950000 0.291626 0
22.955000 0.318855 0
22.960000 0.344126 0
22.965000 0.366803 0
22.970000 0.386287 0
22.975000 0.402039 0
22.980000 0.413607 0
22.985000 0.420647 0
22.990000 0.422936 5
22.995000 0.420384 0
23.000000 0.413043 0
23.005000 0.401099 0
23.010000 0.384867 0
23.015000 0.364777 0
23.020000 0.341352 0
23.025000 0.315188 0
23.030000 0.286926 0
23.035000 0.257227 0
23.040000 0.226746 0
23.045000 0.196109 0
23.050000 0.165891 0
23.055000 0.136602 0
23.060000 0.108675 0
23.065000 0.082455 0
23.070000 0.058203 0
23.075000 0.036093 0
23.080000 0.016218 0
23.085000 -0.001400 0
23.090000 -0.016801 0
23.095000 -0.030078 0
23.100000 -0.041360 0
23.105000 -0.050806 0
23.110000 -0.058592 0
23.115000 -0.064902 0
23.120000 -0.069920 0
23.125000 -0.073824 0
23.130000 -0.076782 0
23.135000 -0.078947 0
23.140000 -0.080457 0
23.145000 -0.081434 0
23.150000 -0.081980 0
23.155000 -0.082029 0
23.160000 -0.081154 0
23.165000 -0.080283 0
23.170000 -0.079417 0
23.175000 -0.078554 0
23.180000 -0.077697 0
23.185000 -0.076843 0
23.190000 -0.075994 0
23.195000 -0.075148 0
23.200000 -0.074306 0
23.205000 -0.073468 0
23.210000 -0.072631 0
23.215000 -0.071795 0
23.220000 -0.070956 0
23.225000 -0.070106 0
23.230000 -0.069237 0
23.235000 -0.068329 0
23.240000 -0.067354 0
23.245000 -0.066265 0
23.250000 -0.064993 0
23.255000 -0.063437 0
23.260000 -0.061452 0
23.265000 -0.058842 0
23.270000 -0.055350 0
23.275000 -0.050657 0
23.280000 -0.044380 0
23.285000 -0.036097 0
23.290000 -0.025366 0
23.295000 -0.011777 0
23.300000 0.004993 0
23.305000 0.025106 0
23.310000 0.048496 0
23.315000 0.074801 0
23.320000 0.103326 0
23.325000 0.133033 0
23.330000 0.162583 0
23.335000 0.190416 0
23.340000 0.214886 0
23.345000 0.234412 0
23.350000 0.247651 0
23.355000 0.253649 1
23.360000 0.251950 0
23.365000 0.242660 0
23.370000 0.226428 0
23.375000 0.204378 0
23.380000 0.177974 0
23.385000 0.148858 0
23.390000 0.118675 0
23.395000 0.088876 0
23.400000 0.060470 0
23.405000 0.033653 0
23.410000 0.007254 0
23.415000 -0.021714 0
23.420000 -0.057590 0
23.425000 -0.103608 0
23.430000 -0.157484 0
23.435000 -0.207418 0
23.440000 -0.231980 2
23.445000 -0.204767 0
23.450000 -0.101121 0
23.455000 0.094529 0
23.460000 0.377464 0
23.465000 0.707504 0
23.470000 1.003815 0
23.475000 1.168882 3
23.480000 1.137707 0
23.485000 0.917599 0
23.490000 0.584349 0
23.495000 0.236370 0
23.500000 -0.050426 0
23.505000 -0.238941 0
23.510000 -0.324140 4
23.515000 -0.322423 0
23.520000 -0.263817 0
23.525000 -0.182598 0
23.530000 -0.105958 0
23.535000 -0.047013 0
23.540000 -0.006101 0
23.545000 0.022795 0
23.550000 0.046144 0
23.555000 0.068242 0
23.560000 0.091174 0
23.565000 0.115663 0
23.570000 0.141779 0
23.575000 0.169310 0
23.580000 0.197905 0
23.585000 0.227116 0
23.590000 0.256420 0
23.595000 0.285232 0
23.600000 0.312924 0
23.605000 0.338847 0
23.610000 0.362352 0
23.615000 0.382820 0
23.620000 0.399687 0
23.625000 0.412470 0
23.630000 0.420785 0
23.635000 0.424373 5
23.640000 0.423106 0
23.645000 0.416998 0
23.650000 0.406201 0
23.655000 0.391002 0
23.660000 0.371807 0
23.665000 0.349124 0
23.670000 0.323539 0
23.675000 0.295692 0
23.680000 0.266248 0
23.685000 0.235872 0
23.690000 0.205206 0
23.695000 0.174842 0
23.700000 0.145312 0
23.705000 0.117069 0
23.710000 0.090480 0
23.715000 0.065825 0
23.720000 0.043296 0
23.725000 0.023002 0
23.730000 0.004978 0
23.735000 -0.010808 0
23.740000 -0.024440 0
23.745000 -0.036044 0
23.750000 -0.045777 0
23.755000 -0.053814 0
23.760000 -0.060340 0
23.765000 -0.065543 0
23.770000 -0.069602 0
23.775000 -0.072689 0
23.780000 -0.074961 0
23.785000 -0.076559 0
23.790000 -0.077608 0
23.795000 -0.078213 0
23.800000 -0.078307 0
23.805000 -0.077451 0
23.810000 -0.076598 0
23.815000 -0.075750 0
23.820000 -0.074906 0
23.825000 -0.074067 0
23.830000 -0.073231 0
23.835000 -0.072400 0
23.840000 -0.071572 0
23.845000 -0.070748 0
23.850000 -0.069928 0
23.855000 -0.069109 0
23.860000 -0.068291 0
23.865000 -0.067469 0
23.870000 -0.066637 0
23.875000 -0.065786 0
23.880000 -0.064896 0
23.885000 -0.063939 0
23.890000 -0.062868 0
23.895000 -0.061614 0
23.900000 -0.060073 0
23.905000 -0.058099 0
23.910000 -0.055494 0
23.915000 -0.051997 0
23.920000 -0.047284 0
23.925000 -0.040968 0
23.930000 -0.032619 0
23.935000 -0.021793 0
23.940000 -0.008077 0
23.945000 0.008848 0
23.950000 0.029139 0
23.955000 0.052710 0
23.960000 0.079178 0
23.965000 0.107815 0
23.970000 0.137550 0
23.975000 0.167008 0
23.980000 0.194601 0
23.985000 0.218663 0
23.990000 0.237614 0
23.995000 0.250129 0
24.000000 0.255291 1
24.005000 0.252701 0
24.010000 0.242528 0
24.015000 0.225493 0
24.020000 0.202781 0
24.025000 0.175903 0
24.030000 0.146532 0
24.035000 0.116313 0
24.040000 0.086663 0
24.045000 0.058508 0
24.050000 0.031869 0
24.055000 0.005286 0
24.060000 -0.024563 0
24.065000 -0.062108 0
24.070000 -0.109983 0
24.075000 -0.164350 0
24.080000 -0.211310 0
24.085000 -0.227766 2
24.090000 -0.186845 0
24.095000 -0.064850 0
24.100000 0.150808 0
24.105000 0.448947 0
24.110000 0.779636 0
24.115000 1.054116 0
24.120000 1.176746 3
24.125000 1.098682 0
24.130000 0.847578 0
24.135000 0.504459 0
24.140000 0.161976 0
24.145000 -0.113046 0
24.150000 -0.290000 0
24.155000 -0.366802 4
24.160000 -0.360483 0
24.165000 -0.300226 0
24.170000 -0.218688 0
24.175000 -0.141675 0
24.180000 -0.081846 0
24.185000 -0.039831 0
24.190000 -0.010045 0
24.195000 0.013797 0
24.200000 0.036042 0
24.205000 0.058912 0
24.210000 0.083239 0
24.215000 0.109168 0
24.220000 0.136533 0
24.225000 0.165026 0
24.230000 0.194240 0
24.235000 0.223696 0
24.240000 0.252853 0
24.245000 0.281124 0
24.250000 0.307895 0
24.255000 0.332547 0
24.260000 0.354474 0
24.265000 0.373116 0
24.270000 0.387974 0
24.275000 0.398638 0
24.280000 0.404799 0
24.285000 0.406271 5
24.290000 0.402993 0
24.295000 0.395036 0
24.300000 0.382600 0
24.305000 0.366003 0
24.310000 0.345671 0
24.315000 0.322114 0
24.320000 0.295911 0
24.325000 0.267679 0
24.330000 0.238057 0
24.335000 0.207673 0
24.340000 0.177130 0
24.345000 0.146984 0
24.350000 0.117728 0
24.355000 0.089783 0
24.360000 0.063488 0
24.365000 0.039102 0
24.370000 0.016801 0
24.375000 -0.003314 0
24.380000 -0.021212 0
24.385000 -0.036924 0
24.390000 -0.050528 0
24.395000 -0.062144 0
24.400000 -0.071919 0
24.405000 -0.080019 0
24.410000 -0.086620 0
24.415000 -0.091899 0
24.420000 -0.096032 0
24.425000 -0.099183 0
24.430000 -0.101504 0
24.435000 -0.103135 0
24.440000 -0.104197 0
24.445000 -0.104798 0
24.450000 -0.105030 0
24.455000 -0.104217 0
24.460000 -0.103231 0
24.465000 -0.102250 0
24.470000 -0.101274 0
24.475000 -0.100303 0
24.480000 -0.099337 0
24.485000 -0.098375 0
24.490000 -0.097418 0
24.495000 -0.096466 0
24.500000 -0.095517 0
24.505000 -0.094572 0
24.510000 -0.093630 0
24.515000 -0.092687 0
24.520000 -0.091740 0
24.525000 -0.090782 0
24.530000 -0.089800 0
24.535000 -0.088776 0
24.540000 -0.087678 0
24.545000 -0.086458 0
24.550000 -0.085043 0
24.555000 -0.083329 0
24.560000 -0.081170 0
24.565000 -0.078369 0
24.570000 -0.074674 0
24.575000 -0.069768 0
24.580000 -0.063282 0
24.585000 -0.054805 0
24.590000 -0.043915 0
24.595000 -0.030216 0
24.600000 -0.013400 0
24.605000 0.006693 0
24.610000 0.030007 0
24.615000 0.056210 0
24.620000 0.084656 0
24.625000 0.114374 0
24.630000 0.144104 0
24.635000 0.172365 0
24.640000 0.197575 0
24.645000 0.218193 0
24.650000 0.232871 0
24.655000 0.240604 0
24.660000 0.240841 1
24.665000 0.233551 0
24.670000 0.219228 0
24.675000 0.198839 0
24.680000 0.173709 0
24.685000 0.145385 0
24.690000 0.115469 0
24.695000 0.085448 0
24.700000 0.056488 0
24.705000 0.029142 0
24.710000 0.002900 0
24.715000 -0.024334 0
24.720000 -0.056312 0
24.725000 -0.097104 0
24.730000 -0.147716 0
24.735000 -0.201779 0
24.740000 -0.243253 0
24.745000 -0.248566 2
24.750000 -0.192208 0
24.755000 -0.053085 0
24.760000 0.177724 0
24.765000 0.484513 0
24.770000 0.814008 0
24.775000 1.078584 0
24.780000 1.188680 3
24.785000 1.100534 0
24.790000 0.842518 0
24.795000 0.497294 0
24.800000 0.156793 0
24.805000 -0.114001 0
24.810000 -0.286137 0
24.815000 -0.358622 4
24.820000 -0.349178 0
24.825000 -0.287320 0
24.830000 -0.205567 0
24.835000 -0.129187 0
24.840000 -0.070223 0
24.845000 -0.028903 0
24.850000 0.000474 0
24.855000 0.024135 0
24.860000 0.046327 0
24.865000 0.069198 0
24.870000 0.093540 0
24.875000 0.119480 0
24.880000 0.146847 0
24.885000 0.175327 0
24.890000 0.204512 0
24.895000 0.233920 0
24.900000 0.263011 0
24.905000 0.291196 0
24.910000 0.317863 0
24.915000 0.342392 0
24.920000 0.364180 0
24.925000 0.382670 0
24.930000 0.397365 0
24.935000 0.407858 0
24.940000 0.413845 0
24.945000 0.415143 5
24.950000 0.411696 0
24.955000 0.403577 0
24.960000 0.390988 0
24.965000 0.374252 0
24.970000 0.353795 0
24.975000 0.330128 0
24.980000 0.303831 0
24.985000 0.275521 0
24.990000 0.245834 0
24.995000 0.215399 0
25.000000 0.184818 0
25.005000 0.154643 0
25.010000 0.125366 0
25.015000 0.097405 0
25.020000 0.071098 0
25.025000 0.046703 0
25.030000 0.024394 0
25.035000 0.004271 0
25.040000 -0.013638 0
25.045000 -0.029362 0
25.050000 -0.042981 0
25.055000 -0.054615 0
25.060000 -0.064410 0
25.065000 -0.072533 0
25.070000 -0.079159 0
25.075000 -0.084466 0
25.080000 -0.088629 0
25.085000 -0.091811 0
25.090000 -0.094165 0
25.095000 -0.095829 0
25.100000 -0.096926 0
25.105000 -0.097562 0
25.110000 -0.097828 0
25.115000 -0.097051 0
25.120000 -0.096101 0
25.125000 -0.095155 0
25.130000 -0.094215 0
25.135000 -0.093279 0
25.140000 -0.092348 0
25.145000 -0.091421 0
25.150000 -0.090499 0
25.155000 -0.089581 0
25.160000 -0.088667 0
25.165000 -0.087756 0
25.170000 -0.086847 0
25.175000 -0.085938 0
25.180000 -0.085025 0
25.185000 -0.084101 0
25.190000 -0.083153 0
25.195000 -0.082163 0
25.200000 -0.081098 0
25.205000 -0.079913 0
25.210000 -0.078533 0
25.215000 -0.076857 0
25.220000 -0.074738 0
25.225000 -0.071980 0
25.230000 -0.068332 0
25.235000 -0.063481 0
25.240000 -0.057056 0
25.245000 -0.048650 0
25.250000 -0.037838 0
25.255000 -0.024227 0
25.260000 -0.007506 0
25.265000 0.012489 0
25.270000 0.035707 0
25.275000 0.061821 0
25.280000 0.090194 0
25.285000 0.119865 0
25.290000 0.149580 0
25.295000 0.177866 0
25.300000 0.203143 0
25.305000 0.223870 0
25.310000 0.238693 0
25.315000 0.246598 0
25.320000 0.247021 1
25.325000 0.239917 0
25.330000 0.225764 0
25.335000 0.205513 0
25.340000 0.180480 0
25.345000 0.152204 0
25.350000 0.122287 0
25.355000 0.092218 0
25.360000 0.063179 0
25.365000 0.035749 0
25.370000 0.009465 0
25.375000 -0.017702 0
25.380000 -0.049451 0
25.385000 -0.089882 0
25.390000 -0.140198 0
25.395000 -0.194395 0
25.400000 -0.236828 0
25.405000 -0.244169 2
25.410000 -0.190901 0
25.415000 -0.055641 0
25.420000 0.171256 0
25.425000 0.475487 0
25.430000 0.805635 0
25.435000 1.075265 0
25.440000 1.193982 3
25.445000 1.115032 0
25.450000 0.863370 0
25.455000 0.520047 0
25.460000 0.177557 0
25.465000 -0.097439 0
25.470000 -0.274421 0
25.475000 -0.351322 4
25.480000 -0.345146 0
25.485000 -0.285026 0
25.490000 -0.203579 0
25.495000 -0.126601 0
25.500000 -0.066775 0
25.505000 -0.024765 0
25.510000 0.004992 0
25.515000 0.028777 0
25.520000 0.050949 0
25.525000 0.073734 0
25.530000 0.097974 0
25.535000 0.123813 0
25.540000 0.151092 0
25.545000 0.179501 0
25.550000 0.208636 0
25.555000 0.238018 0
25.560000 0.267109 0
25.565000 0.295323 0
25.570000 0.322047 0
25.575000 0.346662 0
25.580000 0.368564 0
25.585000 0.387191 0
25.590000 0.402045 0
25.595000 0.412714 0
25.600000 0.418889 0
25.605000 0.420380 5
25.610000 0.417125 0
25.615000 0.409193 0
25.620000 0.396779 0
25.625000 0.380201 0
25.630000 0.359879 0
25.635000 0.336323 0
25.640000 0.310108 0
25.645000 0.281852 0
25.650000 0.252190 0
25.655000 0.221751 0
25.660000 0.191139 0
25.665000 0.160910 0
25.670000 0.131557 0
25.675000 0.103503 0
25.680000 0.077091 0
25.685000 0.052579 0
25.690000 0.030148 0
25.695000 0.009899 0
25.700000 -0.008135 0
25.705000 -0.023982 0
25.710000 -0.037718 0
25.715000 -0.049463 0
25.720000 -0.059362 0
25.725000 -0.067581 0
25.730000 -0.074295 0
25.735000 -0.079682 0
25.740000 -0.083915 0
25.745000 -0.087162 0
25.750000 -0.089573 0
25.755000 -0.091288 0
25.760000 -0.092431 0
25.765000 -0.093108 0
25.770000 -0.093411 0
25.775000 -0.092658 0
25.780000 -0.091730 0
25.785000 -0.090807 0
25.790000 -0.089888 0
25.795000 -0.088974 0
25.800000 -0.088064 0
25.805000 -0.087158 0
25.810000 -0.086257 0
25.815000 -0.085361 0
25.820000 -0.084468 0
25.825000 -0.083578 0
25.830000 -0.082690 0
25.835000 -0.081802 0
25.840000 -0.080910 0
25.845000 -0.080007 0
25.850000 -0.079081 0
25.855000 -0.078114 0
25.860000 -0.077075 0
25.865000 -0.075916 0
25.870000 -0.074568 0
25.875000 -0.072928 0
25.880000 -0.070852 0
25.885000 -0.068149 0
25.890000 -0.064567 0
25.895000 -0.059797 0
25.900000 -0.053471 0
25.905000 -0.045183 0
25.910000 -0.034508 0
25.915000 -0.021050 0
25.920000 -0.004493 0
25.925000 0.015335 0
25.930000 0.038393 0
25.935000 0.064370 0
25.940000 0.092641 0
25.945000 0.122260 0
25.950000 0.151985 0
25.955000 0.180350 0
25.960000 0.205777 0
25.965000 0.226720 0
25.970000 0.241814 0
25.975000 0.250027 0
25.980000 0.250772 1
25.985000 0.243980 0
25.990000 0.230107 0
25.995000 0.210085 0
26.000000 0.185216 0
26.005000 0.157033 0
26.010000 0.127139 0
26.015000 0.097031 0
26.020000 0.067910 0
26.025000 0.040391 0
26.030000 0.014069 0
26.035000 -0.013008 0
26.040000 -0.044477 0
26.045000 -0.084475 0
26.050000 -0.134429 0
26.055000 -0.188730 0
26.060000 -0.232159 0
26.065000 -0.241624 2
26.070000 -0.191571 0
26.075000 -0.060293 0
26.080000 0.162593 0
26.085000 0.464163 0
26.090000 0.794787 0
26.095000 1.069136 0
26.100000 1.195990 3
26.105000 1.124835 0
26.110000 0.876645 0
26.115000 0.533804 0
26.120000 0.191540 0
26.125000 -0.081714 0
26.130000 -0.255183 0
26.135000 -0.327528 4
26.140000 -0.317027 0
26.145000 -0.254193 0
26.150000 -0.172391 0
26.155000 -0.097054 0
26.160000 -0.039709 0
26.165000 0.000097 0
26.170000 0.028464 0
26.175000 0.051643 0
26.180000 0.073721 0
26.185000 0.096669 0
26.190000 0.121165 0
26.195000 0.147268 0
26.200000 0.174771 0
26.205000 0.203327 0
26.210000 0.232500 0
26.215000 0.261779 0
26.220000 0.290592 0
26.225000 0.318326 0
26.230000 0.344345 0
26.235000 0.368013 0
26.240000 0.388721 0
26.245000 0.405911 0
26.250000 0.419101 0
26.255000 0.427905 0
26.260000 0.432054 5
26.265000 0.431407 0
26.270000 0.425958 0
26.275000 0.415838 0
26.280000 0.401308 0
26.285000 0.382747 0
26.290000 0.360637 0
26.295000 0.335540 0
26.300000 0.308075 0
26.305000 0.278890 0
26.310000 0.248640 0
26.315000 0.217959 0
26.320000 0.187441 0
26.325000 0.157624 0
26.330000 0.128972 0
26.335000 0.101868 0
26.340000 0.076609 0
26.345000 0.053409 0
26.350000 0.032398 0
26.355000 0.013631 0
26.360000 -0.002904 0
26.365000 -0.017272 0
26.370000 -0.029586 0
26.375000 -0.039989 0
26.380000 -0.048648 0
26.385000 -0.055741 0
26.390000 -0.061452 0
26.395000 -0.065962 0
26.400000 -0.069441 0
26.405000 -0.072050 0
26.410000 -0.073935 0
26.415000 -0.075223 0
26.420000 -0.076028 0
26.425000 -0.076445 0
26.430000 -0.075780 0
26.435000 -0.074936 0
26.440000 -0.074096 0
26.445000 -0.073261 0
26.450000 -0.072429 0
26.455000 -0.071602 0
26.460000 -0.070779 0
26.465000 -0.069960 0
26.470000 -0.069144 0
26.475000 -0.068332 0
26.480000 -0.067523 0
26.485000 -0.066715 0
26.490000 -0.065906 0
26.495000 -0.065091 0
26.500000 -0.064264 0
26.505000 -0.063411 0
26.510000 -0.062512 0
26.515000 -0.061531 0
26.520000 -0.060418 0
26.525000 -0.059093 0
26.530000 -0.057443 0
26.535000 -0.055309 0
26.540000 -0.052479 0
26.545000 -0.048679 0
26.550000 -0.043573 0
26.555000 -0.036769 0
26.560000 -0.027838 0
26.565000 -0.016347 0
26.570000 -0.001910 0
26.575000 0.015757 0
26.580000 0.036757 0
26.585000 0.060951 0
26.590000 0.087894 0
26.595000 0.116808 0
26.600000 0.146583 0
26.605000 0.175828 0
26.610000 0.202965 0
26.615000 0.226365 0
26.620000 0.244505 0
26.625000 0.256132 0
26.630000 0.260406 1
26.635000 0.256998 0
26.640000 0.246131 0
26.645000 0.228558 0
26.650000 0.205471 0
26.655000 0.178370 0
26.660000 0.148896 0
26.665000 0.118656 0
26.670000 0.089024 0
26.675000 0.060888 0
26.680000 0.034248 0
26.685000 0.007656 0
26.690000 -0.022138 0
26.695000 -0.059484 0
26.700000 -0.107053 0
26.705000 -0.161367 0
26.710000 -0.209245 0
26.715000 -0.228415 2
26.720000 -0.192575 0
26.725000 -0.078038 0
26.730000 0.128846 0
26.735000 0.420008 0
26.740000 0.750926 0
26.745000 1.037980 0
26.750000 1.185493 3
26.755000 1.134298 0
26.760000 0.898284 0
26.765000 0.558797 0
26.770000 0.214588 0
26.775000 -0.061838 0
26.780000 -0.237400 0
26.785000 -0.310190 4
26.790000 -0.298972 0
26.795000 -0.235291 0
26.800000 -0.153442 0
26.805000 -0.079082 0
26.810000 -0.023254 0
26.815000 0.015169 0
26.820000 0.042661 0
26.825000 0.065482 0
26.830000 0.087550 0
26.835000 0.110664 0
26.840000 0.135390 0
26.845000 0.161728 0
26.850000 0.189429 0
26.855000 0.218117 0
26.860000 0.247322 0
26.865000 0.276502 0
26.870000 0.305054 0
26.875000 0.332337 0
26.880000 0.357692 0
26.885000 0.380469 0
26.890000 0.400052 0
26.895000 0.415888 0
26.900000 0.427513 0
26.905000 0.434568 0
26.910000 0.436824 5
26.915000 0.434190 0
26.920000 0.426716 0
26.925000 0.414596 0
26.930000 0.398154 0
26.935000 0.377831 0
26.940000 0.354167 0
26.945000 0.327772 0
26.950000 0.299303 0
26.955000 0.269436 0
26.960000 0.238837 0
26.965000 0.208142 0
26.970000 0.177932 0
26.975000 0.148719 0
26.980000 0.120932 0
26.985000 0.094915 0
26.990000 0.070917 0
26.995000 0.049105 0
27.000000 0.029559 0
27.005000 0.012291 0
27.010000 -0.002753 0
27.015000 -0.015674 0
27.020000 -0.026613 0
27.025000 -0.035737 0
27.030000 -0.043227 0
27.035000 -0.049273 0
27.040000 -0.054061 0
27.045000 -0.057770 0
27.050000 -0.060569 0
27.055000 -0.062608 0
27.060000 -0.064025 0
27.065000 -0.064937 0
27.070000 -0.065444 0
27.075000 -0.064839 0
27.080000 -0.064050 0
27.085000 -0.063265 0
27.090000 -0.062483 0
27.095000 -0.061705 0
27.100000 -0.060932 0
27.105000 -0.060162 0
27.110000 -0.059395 0
27.115000 -0.058632 0
27.120000 -0.057873 0
27.125000 -0.057115 0
27.130000 -0.056359 0
27.135000 -0.055601 0
27.140000 -0.054836 0
27.145000 -0.054057 0
27.150000 -0.053249 0
27.155000 -0.052389 0
27.160000 -0.051438 0
27.165000 -0.050339 0
27.170000 -0.049004 0
27.175000 -0.047307 0
27.180000 -0.045072 0
27.185000 -0.042064 0
27.190000 -0.037985 0
27.195000 -0.032469 0
27.200000 -0.025099 0
27.205000 -0.015426 0
27.210000 -0.003014 0
27.215000 0.012509 0
27.220000 0.031376 0
27.225000 0.053610 0
27.230000 0.078949 0
27.235000 0.106798 0
27.240000 0.136208 0
27.245000 0.165898 0
27.250000 0.194331 0
27.255000 0.219836 0
27.260000 0.240762 0
27.265000 0.255659 0
27.270000 0.263436 0
27.275000 0.263496 1
27.280000 0.255810 0
27.285000 0.240923 0
27.290000 0.219887 0
27.295000 0.194139 0
27.300000 0.165335 0
27.305000 0.135168 0
27.310000 0.105168 0
27.315000 0.076457 0
27.320000 0.049391 0
27.325000 0.023002 0
27.330000 -0.005520 0
27.335000 -0.040522 0
27.340000 -0.085606 0
27.345000 -0.139181 0
27.350000 -0.190102 0
27.355000 -0.217114 2
27.360000 -0.193395 0
27.365000 -0.093504 0
27.370000 0.099029 0
27.375000 0.380258 0
27.380000 0.710047 0
27.385000 1.006300 0
27.390000 1.169561 3
27.395000 1.134925 0
27.400000 0.912285 0
27.405000 0.578088 0
27.410000 0.230538 0
27.415000 -0.055086 0
27.420000 -0.242255 0
27.425000 -0.326279 4
27.430000 -0.323737 0
27.435000 -0.264714 0
27.440000 -0.183421 0
27.445000 -0.106891 0
27.450000 -0.048093 0
27.455000 -0.007284 0
27.460000 0.021566 0
27.465000 0.044905 0
27.470000 0.067010 0
27.475000 0.089954 0
27.480000 0.114454 0
27.485000 0.140580 0
27.490000 0.168119 0
27.495000 0.196721 0
27.500000 0.225937 0
27.505000 0.255247 0
27.510000 0.284066 0
27.515000 0.311768 0
27.520000 0.337703 0
27.525000 0.361225 0
27.530000 0.381715 0
27.535000 0.398610 0
27.540000 0.411425 0
27.545000 0.419780 0
27.550000 0.423412 5
27.555000 0.422194 0
27.560000 0.416138 0
27.565000 0.405394 0
27.570000 0.390248 0
27.575000 0.371104 0
27.580000 0.348468 0
27.585000 0.322924 0
27.590000 0.295110 0
27.595000 0.265691 0
27.600000 0.235330 0
27.605000 0.204669 0
27.610000 0.174300 0
27.615000 0.144756 0
27.620000 0.116489 0
27.625000 0.089869 0
27.630000 0.065177 0
27.635000 0.042606 0
27.640000 0.022266 0
27.645000 0.004195 0
27.650000 -0.011639 0
27.655000 -0.025318 0
27.660000 -0.036967 0
27.665000 -0.046741 0
27.670000 -0.054817 0
27.675000 -0.061377 0
27.680000 -0.066610 0
27.685000 -0.070695 0
27.690000 -0.073803 0
27.695000 -0.076093 0
27.700000 -0.077705 0
27.705000 -0.078764 0
27.710000 -0.079377 0
27.715000 -0.079474 0
27.720000 -0.078612 0
27.725000 -0.077754 0
27.730000 -0.076900 0
27.735000 -0.076050 0
27.740000 -0.075205 0
27.745000 -0.074364 0
27.750000 -0.073527 0
27.755000 -0.072694 0
27.760000 -0.071864 0
27.765000 -0.071038 0
27.770000 -0.070214 0
27.775000 -0.069390 0
27.780000 -0.068563 0
27.785000 -0.067727 0
27.790000 -0.066872 0
27.795000 -0.065979 0
27.800000 -0.065021 0
27.805000 -0.063952 0
27.810000 -0.062704 0
27.815000 -0.061175 0
27.820000 -0.059224 0
27.825000 -0.056653 0
27.830000 -0.053206 0
27.835000 -0.048563 0
27.840000 -0.042341 0
27.845000 -0.034113 0
27.850000 -0.023434 0
27.855000 -0.009889 0
27.860000 0.006848 0
27.865000 0.026944 0
27.870000 0.050331 0
27.875000 0.076645 0
27.880000 0.105181 0
27.885000 0.134889 0
27.890000 0.164413 0
27.895000 0.192179 0
27.900000 0.216523 0
27.905000 0.235856 0
27.910000 0.248835 0
27.915000 0.254512 1
27.920000 0.252452 0
27.925000 0.242787 0
27.930000 0.226198 0
27.935000 0.203842 0
27.940000 0.177209 0
27.945000 0.147965 0
27.950000 0.117759 0
27.955000 0.088031 0
27.960000 0.059755 0
27.965000 0.033035 0
27.970000 0.006545 0
27.975000 -0.022894 0
27.980000 -0.059695 0
27.985000 -0.106781 0
27.990000 -0.160996 0
27.995000 -0.209298 0
28.000000 -0.229206 2
28.005000 -0.193938 0
28.010000 -0.079310 0
28.015000 0.128553 0
28.020000 0.421078 0
28.025000 0.752030 0
28.030000 1.035318 0
28.035000 1.174047 3
28.040000 1.112522 0
28.045000 0.870728 0
28.050000 0.529877 0
28.055000 0.186284 0
28.060000 -0.089778 0
28.065000 -0.266148 0
28.070000 -0.340775 4
28.075000 -0.331668 0
28.080000 -0.269386 0
28.085000 -0.187580 0
28.090000 -0.112033 0
28.095000 -0.054501 0
28.100000 -0.014586 0
28.105000 0.013843 0
28.110000 0.037083 0
28.115000 0.059237 0
28.120000 0.082276 0
28.125000 0.106873 0
28.130000 0.133081 0
28.135000 0.160687 0
28.140000 0.189341 0
28.145000 0.218600 0
28.150000 0.247947 0
28.155000 0.276804 0
28.160000 0.304552 0
28.165000 0.330550 0
28.170000 0.354158 0
28.175000 0.374764 0
28.180000 0.391810 0
28.185000 0.404815 0
28.190000 0.413396 0
28.195000 0.417291 5
28.200000 0.416366 0
28.205000 0.410627 0
28.210000 0.400214 0
28.215000 0.385401 0
28.220000 0.366579 0
28.225000 0.344243 0
28.230000 0.318963 0
28.235000 0.291368 0
28.240000 0.262112 0
28.245000 0.231854 0
28.250000 0.201229 0
28.255000 0.170832 0
28.260000 0.141195 0
28.265000 0.112777 0
28.270000 0.085953 0
28.275000 0.061013 0
28.280000 0.038160 0
28.285000 0.017515 0
28.290000 -0.000876 0
28.295000 -0.017033 0
28.300000 -0.031030 0
28.305000 -0.042985 0
28.310000 -0.053047 0
28.315000 -0.061387 0
28.320000 -0.068185 0
28.325000 -0.073627 0
28.330000 -0.077892 0
28.335000 -0.081153 0
28.340000 -0.083567 0
28.345000 -0.085278 0
28.350000 -0.086414 0
28.355000 -0.087083 0
28.360000 -0.087381 0
28.365000 -0.086652 0
28.370000 -0.085754 0
28.375000 -0.084860 0
28.380000 -0.083971 0
28.385000 -0.083086 0
28.390000 -0.082206 0
28.395000 -0.081329 0
28.400000 -0.080457 0
28.405000 -0.079589 0
28.410000 -0.078725 0
