0.000000 1.146939 3
0.005000 1.058535 0
0.010000 0.833402 0
0.015000 0.531203 0
0.020000 0.220274 0
0.025000 -0.046189 0
0.030000 -0.239068 0
0.035000 -0.350216 0
0.040000 -0.386271 4
0.045000 -0.364124 0
0.050000 -0.306761 0
0.055000 -0.237499 0
0.060000 -0.173947 0
0.065000 -0.124801 0
0.070000 -0.090757 0
0.075000 -0.068009 0
0.080000 -0.051748 0
0.085000 -0.038171 0
0.090000 -0.024948 0
0.095000 -0.010894 0
0.100000 0.004507 0
0.105000 0.021452 0
0.110000 0.039991 0
0.115000 0.060098 0
0.120000 0.081693 0
0.125000 0.104645 0
0.130000 0.128771 0
0.135000 0.153836 0
0.140000 0.179553 0
0.145000 0.205590 0
0.150000 0.231570 0
0.155000 0.257083 0
0.160000 0.281696 0
0.165000 0.304959 0
0.170000 0.326427 0
0.175000 0.345666 0
0.180000 0.362271 0
0.185000 0.375880 0
0.190000 0.386184 0
0.195000 0.392944 0
0.200000 0.395993 5
0.205000 0.395248 0
0.210000 0.390710 0
0.215000 0.382466 0
0.220000 0.370685 0
0.225000 0.355615 0
0.230000 0.337568 0
0.235000 0.316915 0
0.240000 0.294071 0
0.245000 0.269479 0
0.250000 0.243599 0
0.255000 0.216893 0
0.260000 0.189808 0
0.265000 0.162768 0
0.270000 0.136165 0
0.275000 0.110343 0
0.280000 0.085601 0
0.285000 0.062185 0
0.290000 0.040285 0
0.295000 0.020038 0
0.300000 0.001532 0
0.305000 -0.015194 0
0.310000 -0.030143 0
0.315000 -0.043353 0
0.320000 -0.054895 0
0.325000 -0.064860 0
0.330000 -0.073358 0
0.335000 -0.080511 0
0.340000 -0.086447 0
0.345000 -0.091296 0
0.350000 -0.095184 0
0.355000 -0.098234 0
0.360000 -0.100562 0
0.365000 -0.102273 0
0.370000 -0.103464 0
0.375000 -0.104221 0
0.380000 -0.104619 0
0.385000 -0.104724 0
0.390000 -0.104591 0
0.395000 -0.104269 0
0.400000 -0.103796 0
0.405000 -0.103205 0
0.410000 -0.102288 0
0.415000 -0.101320 0
0.420000 -0.100356 0
0.425000 -0.099397 0
0.430000 -0.098443 0
0.435000 -0.097494 0
0.440000 -0.096549 0
0.445000 -0.095609 0
0.450000 -0.094674 0
0.455000 -0.093744 0
0.460000 -0.092818 0
0.465000 -0.091897 0
0.470000 -0.090980 0
0.475000 -0.090068 0
0.480000 -0.089160 0
0.485000 -0.088257 0
0.490000 -0.087358 0
0.495000 -0.086463 0
0.500000 -0.085572 0
0.505000 -0.084683 0
0.510000 -0.083796 0
0.515000 -0.082908 0
0.520000 -0.082015 0
0.525000 -0.081112 0
0.530000 -0.080187 0
0.535000 -0.079227 0
0.540000 -0.078207 0
0.545000 -0.077094 0
0.550000 -0.075836 0
0.555000 -0.074365 0
0.560000 -0.072583 0
0.565000 -0.070366 0
0.570000 -0.067551 0
0.575000 -0.063936 0
0.580000 -0.059280 0
0.585000 -0.053309 0
0.590000 -0.045724 0
0.595000 -0.036218 0
0.600000 -0.024503 0
0.605000 -0.010342 0
0.610000 0.006414 0
0.615000 0.025786 0
0.620000 0.047631 0
0.625000 0.071608 0
0.630000 0.097167 0
0.635000 0.123549 0
0.640000 0.149809 0
0.645000 0.174870 0
0.650000 0.197585 0
0.655000 0.216827 0
0.660000 0.231578 0
0.665000 0.241020 0
0.670000 0.244608 1
0.675000 0.242124 0
0.680000 0.233696 0
0.685000 0.219791 0
0.690000 0.201168 0
0.695000 0.178812 0
0.700000 0.153847 0
0.705000 0.127443 0
0.710000 0.100724 0
0.715000 0.074689 0
0.720000 0.050130 0
0.725000 0.027541 0
0.730000 0.006973 0
0.735000 -0.012213 0
0.740000 -0.031637 0
0.745000 -0.054013 0
0.750000 -0.082627 0
0.755000 -0.119723 0
0.760000 -0.163987 0
0.765000 -0.208234 0
0.770000 -0.238947 2
0.775000 -0.238333 0
0.780000 -0.187891 0
0.785000 -0.072163 0
0.790000 0.116799 0
0.795000 0.372348 0
0.800000 0.664685 0
0.805000 0.938269 0
0.810000 1.124077 0
0.815000 1.166312 3
0.820000 1.047837 0
0.825000 0.801035 0
0.830000 0.491236 0
0.835000 0.186601 0
0.840000 -0.063868 0
0.845000 -0.236121 0
0.850000 -0.326220 0
0.855000 -0.344147 4
0.860000 -0.309424 0
0.865000 -0.246353 0
0.870000 -0.177600 0
0.875000 -0.118461 0
0.880000 -0.074873 0
0.885000 -0.045539 0
0.890000 -0.025861 0
0.895000 -0.011152 0
0.900000 0.001911 0
0.905000 0.015200 0
0.910000 0.029601 0
0.915000 0.045476 0
0.920000 0.062949 0
0.925000 0.082034 0
0.930000 0.102677 0
0.935000 0.124772 0
0.940000 0.148161 0
0.945000 0.172629 0
0.950000 0.197910 0
0.955000 0.223685 0
0.960000 0.249589 0
0.965000 0.275218 0
0.970000 0.300136 0
0.975000 0.323889 0
0.980000 0.346017 0
0.985000 0.366068 0
0.990000 0.383615 0
0.995000 0.398267 0
1.000000 0.409685 0
1.005000 0.417597 0
1.010000 0.421804 0
1.015000 0.422191 5
1.020000 0.418730 0
1.025000 0.411481 0
1.030000 0.400593 0
1.035000 0.386296 0
1.040000 0.368892 0
1.045000 0.348745 0
1.050000 0.326270 0
1.055000 0.301916 0
1.060000 0.276150 0
1.065000 0.249445 0
1.070000 0.222265 0
1.075000 0.195051 0
1.080000 0.168207 0
1.085000 0.142099 0
1.090000 0.117039 0
1.095000 0.093287 0
1.100000 0.071047 0
1.105000 0.050466 0
1.110000 0.031638 0
1.115000 0.014610 0
1.120000 -0.000618 0
1.125000 -0.014083 0
1.130000 -0.025854 0
1.135000 -0.036024 0
1.140000 -0.044706 0
1.145000 -0.052023 0
1.150000 -0.058107 0
1.155000 -0.063089 0
1.160000 -0.067100 0
1.165000 -0.070267 0
1.170000 -0.072706 0
1.175000 -0.074525 0
1.180000 -0.075823 0
1.185000 -0.076687 0
1.190000 -0.077193 0
1.195000 -0.077407 0
1.200000 -0.077386 0
1.205000 -0.077178 0
1.210000 -0.076822 0
1.215000 -0.076350 0
1.220000 -0.075564 0
1.225000 -0.074729 0
1.230000 -0.073898 0
1.235000 -0.073071 0
1.240000 -0.072248 0
1.245000 -0.071430 0
1.250000 -0.070615 0
1.255000 -0.069805 0
1.260000 -0.068998 0
1.265000 -0.068196 0
1.270000 -0.067397 0
1.275000 -0.066603 0
1.280000 -0.065812 0
1.285000 -0.065026 0
1.290000 -0.064243 0
1.295000 -0.063464 0
1.300000 -0.062688 0
1.305000 -0.061916 0
1.310000 -0.061147 0
1.315000 -0.060379 0
1.320000 -0.059611 0
1.325000 -0.058840 0
1.330000 -0.058062 0
1.335000 -0.057268 0
1.340000 -0.056447 0
1.345000 -0.055579 0
1.350000 -0.054634 0
1.355000 -0.053572 0
1.360000 -0.052331 0
1.365000 -0.050827 0
1.370000 -0.048946 0
1.375000 -0.046540 0
1.380000 -0.043421 0
1.385000 -0.039360 0
1.390000 -0.034090 0
1.395000 -0.027314 0
1.400000 -0.018717 0
1.405000 -0.007994 0
1.410000 0.005123 0
1.415000 0.020825 0
1.420000 0.039187 0
1.425000 0.060122 0
1.430000 0.083355 0
1.435000 0.108393 0
1.440000 0.134522 0
1.445000 0.160829 0
1.450000 0.186244 0
1.455000 0.209603 0
1.460000 0.229738 0
1.465000 0.245568 0
1.470000 0.256199 0
1.475000 0.261002 1
1.480000 0.259678 0
1.485000 0.252285 0
1.490000 0.239236 0
1.495000 0.221260 0
1.500000 0.199332 0
1.505000 0.174586 0
1.510000 0.148220 0
1.515000 0.121397 0
1.520000 0.095158 0
1.525000 0.070342 0
1.530000 0.047489 0
1.535000 0.026696 0
1.540000 0.007368 0
1.545000 -0.012088 0
1.550000 -0.034404 0
1.555000 -0.062940 0
1.560000 -0.100041 0
1.565000 -0.144403 0
1.570000 -0.188656 0
1.575000 -0.218880 2
1.580000 -0.216790 0
1.585000 -0.163492 0
1.590000 -0.043423 0
1.595000 0.150858 0
1.600000 0.411041 0
1.605000 0.704256 0
1.610000 0.971438 0
1.615000 1.141951 0
1.620000 1.162482 3
1.625000 1.024149 0
1.630000 0.766285 0
1.635000 0.454068 0
1.640000 0.152436 0
1.645000 -0.093176 0
1.650000 -0.261035 0
1.655000 -0.348192 0
1.660000 -0.364730 4
1.665000 -0.329716 0
1.670000 -0.266716 0
1.675000 -0.197757 0
1.680000 -0.137906 0
1.685000 -0.093285 0
1.690000 -0.062936 0
1.695000 -0.042509 0
1.700000 -0.027381 0
1.705000 -0.014171 0
1.710000 -0.000914 0
1.715000 0.013349 0
1.720000 0.029024 0
1.725000 0.046260 0
1.730000 0.065082 0
1.735000 0.085452 0
1.740000 0.107278 0
1.745000 0.130417 0
1.750000 0.154676 0
1.755000 0.179811 0
1.760000 0.205526 0
1.765000 0.231482 0
1.770000 0.257297 0
1.775000 0.282559 0
1.780000 0.306834 0
1.785000 0.329676 0
1.790000 0.350643 0
1.795000 0.369310 0
1.800000 0.385284 0
1.805000 0.398212 0
1.810000 0.407802 0
1.815000 0.413828 0
1.820000 0.416137 5
1.825000 0.414663 0
1.830000 0.409420 0
1.835000 0.400509 0
1.840000 0.388109 0
1.845000 0.372477 0
1.850000 0.353932 0
1.855000 0.332849 0
1.860000 0.309645 0
1.865000 0.284762 0
1.870000 0.258658 0
1.875000 0.231789 0
1.880000 0.204597 0
1.885000 0.177499 0
1.890000 0.150878 0
1.895000 0.125072 0
1.900000 0.100371 0
1.905000 0.077013 0
1.910000 0.055181 0
1.915000 0.035007 0
1.920000 0.016573 0
1.925000 -0.000086 0
1.930000 -0.014976 0
1.935000 -0.028140 0
1.940000 -0.039646 0
1.945000 -0.049588 0
1.950000 -0.058077 0
1.955000 -0.065233 0
1.960000 -0.071184 0
1.965000 -0.076058 0
1.970000 -0.079981 0
1.975000 -0.083075 0
1.980000 -0.085453 0
1.985000 -0.087220 0
1.990000 -0.088472 0
1.995000 -0.089294 0
2.000000 -0.089759 0
2.005000 -0.089933 0
2.010000 -0.089871 0
2.015000 -0.089620 0
2.020000 -0.089220 0
2.025000 -0.088702 0
2.030000 -0.087857 0
2.035000 -0.086960 0
2.040000 -0.086068 0
2.045000 -0.085181 0
2.050000 -0.084298 0
2.055000 -0.083419 0
2.060000 -0.082544 0
2.065000 -0.081674 0
2.070000 -0.080809 0
2.075000 -0.079947 0
2.080000 -0.079090 0
2.085000 -0.078238 0
2.090000 -0.077389 0
2.095000 -0.076545 0
2.100000 -0.075705 0
2.105000 -0.074868 0
2.110000 -0.074036 0
2.115000 -0.073208 0
2.120000 -0.072383 0
2.125000 -0.071560 0
2.130000 -0.070738 0
2.135000 -0.069916 0
2.140000 -0.069089 0
2.145000 -0.068252 0
2.150000 -0.067395 0
2.155000 -0.066504 0
2.160000 -0.065556 0
2.165000 -0.064519 0
2.170000 -0.063345 0
2.175000 -0.061967 0
2.180000 -0.060293 0
2.185000 -0.058203 0
2.190000 -0.055541 0
2.195000 -0.052110 0
2.200000 -0.047680 0
2.205000 -0.041980 0
2.210000 -0.034717 0
2.215000 -0.025586 0
2.220000 -0.014298 0
2.225000 -0.000607 0
2.230000 0.015652 0
2.235000 0.034525 0
2.240000 0.055897 0
2.245000 0.079467 0
2.250000 0.104728 0
2.255000 0.130961 0
2.260000 0.157262 0
2.265000 0.182583 0
2.270000 0.205793 0
2.275000 0.225763 0
2.280000 0.241454 0
2.285000 0.252008 0
2.290000 0.256821 1
2.295000 0.255604 0
2.300000 0.248411 0
2.305000 0.235630 0
2.310000 0.217956 0
2.315000 0.196320 0
2.320000 0.171813 0
2.325000 0.145594 0
2.330000 0.118796 0
2.335000 0.092448 0
2.340000 0.067395 0
2.345000 0.044213 0
2.350000 0.023086 0
2.355000 0.003589 0
2.360000 -0.015597 0
2.365000 -0.036886 0
2.370000 -0.063490 0
2.375000 -0.098154 0
2.380000 -0.140851 0
2.385000 -0.186289 0
2.390000 -0.222794 0
2.395000 -0.233635 2
2.400000 -0.200277 0
2.405000 -0.106065 0
2.410000 0.059791 0
2.415000 0.296166 0
2.420000 0.581550 0
2.425000 0.868549 0
2.430000 1.090642 0
2.435000 1.184811 3
2.440000 1.119387 0
2.445000 0.910168 0
2.450000 0.613999 0
2.455000 0.300594 0
2.460000 0.026638 0
2.465000 -0.175448 0
2.470000 -0.295331 0
2.475000 -0.338400 4
2.480000 -0.320921 0
2.485000 -0.265839 0
2.490000 -0.197006 0
2.495000 -0.132889 0
2.500000 -0.082958 0
2.505000 -0.048352 0
2.510000 -0.025371 0
2.515000 -0.009135 0
2.520000 0.004276 0
2.525000 0.017276 0
2.530000 0.031092 0
2.535000 0.046260 0
2.540000 0.062983 0
2.545000 0.081312 0
2.550000 0.101221 0
2.555000 0.122630 0
2.560000 0.145404 0
2.565000 0.169357 0
2.570000 0.194250 0
2.575000 0.219790 0
2.580000 0.245637 0
2.585000 0.271410 0
2.590000 0.296690 0
2.595000 0.321037 0
2.600000 0.343994 0
2.605000 0.365111 0
2.610000 0.383949 0
2.615000 0.400102 0
2.620000 0.413205 0
2.625000 0.422955 0
2.630000 0.429113 0
2.635000 0.431522 5
2.640000 0.430107 0
2.645000 0.424880 0
2.650000 0.415941 0
2.655000 0.403475 0
2.660000 0.387740 0
2.665000 0.369065 0
2.670000 0.347833 0
2.675000 0.324471 0
2.680000 0.299433 0
2.685000 0.273186 0
2.690000 0.246196 0
2.695000 0.218913 0
2.700000 0.191761 0
2.705000 0.165127 0
2.710000 0.139352 0
2.715000 0.114725 0
2.720000 0.091484 0
2.725000 0.069807 0
2.730000 0.049823 0
2.735000 0.031606 0
2.740000 0.015184 0
2.745000 0.000545 0
2.750000 -0.012361 0
2.755000 -0.023609 0
2.760000 -0.033301 0
2.765000 -0.041550 0
2.770000 -0.048484 0
2.775000 -0.054232 0
2.780000 -0.058926 0
2.785000 -0.062693 0
2.790000 -0.065655 0
2.795000 -0.067926 0
2.800000 -0.069611 0
2.805000 -0.070803 0
2.810000 -0.071585 0
2.815000 -0.072031 0
2.820000 -0.072203 0
2.825000 -0.072154 0
2.830000 -0.071930 0
2.835000 -0.071567 0
2.840000 -0.071046 0
2.845000 -0.070234 0
2.850000 -0.069425 0
2.855000 -0.068621 0
2.860000 -0.067820 0
2.865000 -0.067023 0
2.870000 -0.066231 0
2.875000 -0.065442 0
2.880000 -0.064658 0
2.885000 -0.063877 0
2.890000 -0.063100 0
2.895000 -0.062327 0
2.900000 -0.061558 0
2.905000 -0.060792 0
2.910000 -0.060031 0
2.915000 -0.059273 0
2.920000 -0.058519 0
2.925000 -0.057768 0
2.930000 -0.057020 0
2.935000 -0.056275 0
2.940000 -0.055531 0
2.945000 -0.054786 0
2.950000 -0.054038 0
2.955000 -0.053282 0
2.960000 -0.052509 0
2.965000 -0.051706 0
2.970000 -0.050854 0
2.975000 -0.049922 0
2.980000 -0.048867 0
2.985000 -0.047627 0
2.990000 -0.046115 0
2.995000 -0.044216 0
3.000000 -0.041781 0
3.005000 -0.038618 0
3.010000 -0.034500 0
3.015000 -0.029158 0
3.020000 -0.022297 0
3.025000 -0.013606 0
3.030000 -0.002784 0
3.035000 0.010432 0
3.040000 0.026226 0
3.045000 0.044665 0
3.050000 0.065659 0
3.055000 0.088926 0
3.060000 0.113973 0
3.065000 0.140089 0
3.070000 0.166366 0
3.075000 0.191744 0
3.080000 0.215070 0
3.085000 0.235188 0
3.090000 0.251030 0
3.095000 0.261706 0
3.100000 0.266592 1
3.105000 0.265384 0
3.110000 0.258133 0
3.115000 0.245238 0
3.120000 0.227410 0
3.125000 0.205606 0
3.130000 0.180945 0
3.135000 0.154612 0
3.140000 0.127761 0
3.145000 0.101432 0
3.150000 0.076472 0
3.155000 0.053440 0
3.160000 0.032472 0
3.165000 0.013045 0
3.170000 -0.006321 0
3.175000 -0.028237 0
3.180000 -0.056021 0
3.185000 -0.092206 0
3.190000 -0.136019 0
3.195000 -0.180906 0
3.200000 -0.213777 0
3.205000 -0.216873 2
3.210000 -0.171347 0
3.215000 -0.061128 0
3.220000 0.122629 0
3.225000 0.374490 0
3.230000 0.665902 0
3.235000 0.941865 0
3.240000 1.132569 0
3.245000 1.180313 3
3.250000 1.067154 0
3.255000 0.824142 0
3.260000 0.515470 0
3.265000 0.209278 0
3.270000 -0.044661 0
3.275000 -0.221317 0
3.280000 -0.315906 0
3.285000 -0.337694 4
3.290000 -0.305624 0
3.295000 -0.243712 0
3.300000 -0.174783 0
3.305000 -0.114661 0
3.310000 -0.069891 0
3.315000 -0.039601 0
3.320000 -0.019346 0
3.325000 -0.004399 0
3.330000 0.008677 0
3.335000 0.021855 0
3.340000 0.036085 0
3.345000 0.051763 0
3.350000 0.069026 0
3.355000 0.087897 0
3.360000 0.108330 0
3.365000 0.130224 0
3.370000 0.153429 0
3.375000 0.177737 0
3.380000 0.202891 0
3.385000 0.228581 0
3.390000 0.254449 0
3.395000 0.280099 0
3.400000 0.305101 0
3.405000 0.329007 0
3.410000 0.351360 0
3.415000 0.371709 0
3.420000 0.389625 0
3.425000 0.404713 0
3.430000 0.416629 0
3.435000 0.425090 0
3.440000 0.429886 0
3.445000 0.430889 5
3.450000 0.428056 0
3.455000 0.421432 0
3.460000 0.411149 0
3.465000 0.397420 0
3.470000 0.380535 0
3.475000 0.360844 0
3.480000 0.338751 0
3.485000 0.314694 0
3.490000 0.289138 0
3.495000 0.262550 0
3.500000 0.235395 0
3.505000 0.208116 0
3.510000 0.181124 0
3.515000 0.154790 0
3.520000 0.129436 0
3.525000 0.105333 0
3.530000 0.082696 0
3.535000 0.061683 0
3.540000 0.042401 0
3.545000 0.024906 0
3.550000 0.009209 0
3.555000 -0.004719 0
3.560000 -0.016939 0
3.565000 -0.027538 0
3.570000 -0.036623 0
3.575000 -0.044314 0
3.580000 -0.050741 0
3.585000 -0.056036 0
3.590000 -0.060328 0
3.595000 -0.063744 0
3.600000 -0.066403 0
3.605000 -0.068416 0
3.610000 -0.069882 0
3.615000 -0.070891 0
3.620000 -0.071522 0
3.625000 -0.071845 0
3.630000 -0.071917 0
3.635000 -0.071788 0
3.640000 -0.071501 0
3.645000 -0.071089 0
3.650000 -0.070537 0
3.655000 -0.069727 0
3.660000 -0.068921 0
3.665000 -0.068119 0
3.670000 -0.067321 0
3.675000 -0.066527 0
3.680000 -0.065736 0
3.685000 -0.064950 0
3.690000 -0.064168 0
3.695000 -0.063390 0
3.700000 -0.062615 0
3.705000 -0.061845 0
3.710000 -0.061078 0
3.715000 -0.060315 0
3.720000 -0.059556 0
3.725000 -0.058800 0
3.730000 -0.058048 0
3.735000 -0.057299 0
3.740000 -0.056553 0
3.745000 -0.055809 0
3.750000 -0.055066 0
3.755000 -0.054321 0
3.760000 -0.053571 0
3.765000 -0.052808 0
3.770000 -0.052023 0
3.775000 -0.051200 0
3.780000 -0.050315 0
3.785000 -0.049330 0
3.790000 -0.048195 0
3.795000 -0.046835 0
3.800000 -0.045152 0
3.805000 -0.043011 0
3.810000 -0.040244 0
3.815000 -0.036641 0
3.820000 -0.031953 0
3.825000 -0.025895 0
3.830000 -0.018161 0
3.835000 -0.008439 0
3.840000 0.003556 0
3.845000 0.018054 0
3.850000 0.035185 0
3.855000 0.054943 0
3.860000 0.077142 0
3.865000 0.101393 0
3.870000 0.127090 0
3.875000 0.153414 0
3.880000 0.179369 0
3.885000 0.203833 0
3.890000 0.225638 0
3.895000 0.243656 0
3.900000 0.256898 0
3.905000 0.264602 0
3.910000 0.266303 1
3.915000 0.261883 0
3.920000 0.251578 0
3.925000 0.235962 0
3.930000 0.215888 0
3.935000 0.192415 0
3.940000 0.166712 0
3.945000 0.139964 0
3.950000 0.113277 0
3.955000 0.087599 0
3.960000 0.063639 0
3.965000 0.041748 0
3.970000 0.021740 0
3.975000 0.002602 0
3.980000 -0.017776 0
3.985000 -0.042515 0
3.990000 -0.074773 0
3.995000 -0.115605 0
4.000000 -0.161255 0
4.005000 -0.201430 0
4.010000 -0.220003 2
4.015000 -0.198065 0
4.020000 -0.117794 0
4.025000 0.033534 0
4.030000 0.257782 0
4.035000 0.537348 0
4.040000 0.828140 0
4.045000 1.063936 0
4.050000 1.177800 3
4.055000 1.132923 0
4.060000 0.941066 0
4.065000 0.653620 0
4.070000 0.338570 0
4.075000 0.054498 0
4.080000 -0.162673 0
4.085000 -0.299250 0
4.090000 -0.357826 4
4.095000 -0.352285 0
4.100000 -0.303938 0
4.105000 -0.236428 0
4.110000 -0.169598 0
4.115000 -0.115141 0
4.120000 -0.076171 0
4.125000 -0.050049 0
4.130000 -0.032061 0
4.135000 -0.017961 0
4.140000 -0.004921 0
4.145000 0.008600 0
4.150000 0.023315 0
4.155000 0.039511 0
4.160000 0.057284 0
4.165000 0.076632 0
4.170000 0.097499 0
4.175000 0.119774 0
4.180000 0.143300 0
4.185000 0.167866 0
4.190000 0.193210 0
4.195000 0.219023 0
4.200000 0.244952 0
4.205000 0.270606 0
4.210000 0.295565 0
4.215000 0.319391 0
4.220000 0.341642 0
4.225000 0.361880 0
4.230000 0.379691 0
4.235000 0.394695 0
4.240000 0.406559 0
4.245000 0.415011 0
4.250000 0.419850 0
4.255000 0.420950 5
4.260000 0.418269 0
4.265000 0.411850 0
4.270000 0.401817 0
4.275000 0.388373 0
4.280000 0.371795 0
4.285000 0.352418 0
4.290000 0.330631 0
4.295000 0.306856 0
4.300000 0.281542 0
4.305000 0.255143 0
4.310000 0.228114 0
4.315000 0.200886 0
4.320000 0.173868 0
4.325000 0.147427 0
4.330000 0.121888 0
4.335000 0.097525 0
4.340000 0.074559 0
4.345000 0.053158 0
4.350000 0.033441 0
4.355000 0.015474 0
4.360000 -0.000720 0
4.365000 -0.015156 0
4.370000 -0.027885 0
4.375000 -0.038982 0
4.380000 -0.048546 0
4.385000 -0.056690 0
4.390000 -0.063537 0
4.395000 -0.069214 0
4.400000 -0.073849 0
4.405000 -0.077567 0
4.410000 -0.080486 0
4.415000 -0.082718 0
4.420000 -0.084365 0
4.425000 -0.085519 0
4.430000 -0.086263 0
4.435000 -0.086668 0
4.440000 -0.086796 0
4.445000 -0.086701 0
4.450000 -0.086427 0
4.455000 -0.086012 0
4.460000 -0.085487 0
4.465000 -0.084654 0
4.470000 -0.083774 0
4.475000 -0.082897 0
4.480000 -0.082026 0
4.485000 -0.081158 0
4.490000 -0.080295 0
4.495000 -0.079436 0
4.500000 -0.078582 0
4.505000 -0.077732 0
4.510000 -0.076886 0
4.515000 -0.076044 0
4.520000 -0.075206 0
4.525000 -0.074373 0
4.530000 -0.073544 0
4.535000 -0.072718 0
4.540000 -0.071897 0
4.545000 -0.071080 0
4.550000 -0.070266 0
4.555000 -0.069455 0
4.560000 -0.068646 0
4.565000 -0.067839 0
4.570000 -0.067030 0
4.575000 -0.066215 0
4.580000 -0.065389 0
4.585000 -0.064540 0
4.590000 -0.063654 0
4.595000 -0.062707 0
4.600000 -0.061662 0
4.605000 -0.060471 0
4.610000 -0.059063 0
4.615000 -0.057341 0
4.620000 -0.055180 0
4.625000 -0.052417 0
4.630000 -0.048853 0
4.635000 -0.044248 0
4.640000 -0.038331 0
4.645000 -0.030806 0
4.650000 -0.021370 0
4.655000 -0.009739 0
4.660000 0.004323 0
4.665000 0.020962 0
4.670000 0.040203 0
4.675000 0.061907 0
4.680000 0.085745 0
4.685000 0.111178 0
4.690000 0.137466 0
4.695000 0.163682 0
4.700000 0.188768 0
4.705000 0.211593 0
4.710000 0.231039 0
4.715000 0.246090 0
4.720000 0.255920 0
4.725000 0.259965 1
4.730000 0.257981 0
4.735000 0.250062 0
4.740000 0.236636 0
4.745000 0.218425 0
4.750000 0.196383 0
4.755000 0.171608 0
4.760000 0.145255 0
4.765000 0.118446 0
4.770000 0.092188 0
4.775000 0.067299 0
4.780000 0.044320 0
4.785000 0.023380 0
4.790000 0.003981 0
4.795000 -0.015299 0
4.800000 -0.036965 0
4.805000 -0.064246 0
4.810000 -0.099727 0
4.815000 -0.142994 0
4.820000 -0.188216 0
4.825000 -0.223227 0
4.830000 -0.231065 2
4.835000 -0.193283 0
4.840000 -0.093610 0
4.845000 0.078012 0
4.850000 0.319193 0
4.855000 0.606639 0
4.860000 0.891288 0
4.865000 1.106209 0
4.870000 1.189972 3
4.875000 1.113518 0
4.880000 0.895255 0
4.885000 0.594967 0
4.890000 0.283163 0
4.895000 0.015344 0
4.900000 -0.178049 0
4.905000 -0.288543 0
4.910000 -0.323102 4
4.915000 -0.299338 0
4.920000 -0.241044 0
4.925000 -0.172028 0
4.930000 -0.109818 0
4.935000 -0.062570 0
4.940000 -0.030364 0
4.945000 -0.009009 0
4.950000 0.006381 0
4.955000 0.019504 0
4.960000 0.032537 0
4.965000 0.046548 0
4.970000 0.061986 0
4.975000 0.079013 0
4.980000 0.097660 0
4.985000 0.117885 0
4.990000 0.139595 0
4.995000 0.162638 0
5.000000 0.186813 0
5.005000 0.211861 0
5.010000 0.237473 0
5.015000 0.263289 0
5.020000 0.288909 0
5.025000 0.313902 0
5.030000 0.337814 0
5.035000 0.360181 0
5.040000 0.380547 0
5.045000 0.398475 0
5.050000 0.413567 0
5.055000 0.425472 0
5.060000 0.433903 0
5.065000 0.438646 0
5.070000 0.439573 5
5.075000 0.436640 0
5.080000 0.429894 0
5.085000 0.419471 0
5.090000 0.405588 0
5.095000 0.388541 0
5.100000 0.368687 0
5.105000 0.346435 0
5.110000 0.322234 0
5.115000 0.296551 0
5.120000 0.269862 0
5.125000 0.242635 0
5.130000 0.215317 0
5.135000 0.188322 0
5.140000 0.162020 0
5.145000 0.136734 0
5.150000 0.112731 0
5.155000 0.090222 0
5.160000 0.069363 0
5.165000 0.050255 0
5.170000 0.032948 0
5.175000 0.017449 0
5.180000 0.003722 0
5.185000 -0.008297 0
5.190000 -0.018701 0
5.195000 -0.027600 0
5.200000 -0.035119 0
5.205000 -0.041388 0
5.210000 -0.046541 0
5.215000 -0.050710 0
5.220000 -0.054020 0
5.225000 -0.056592 0
5.230000 -0.058534 0
5.235000 -0.059946 0
5.240000 -0.060917 0
5.245000 -0.061523 0
5.250000 -0.061832 0
5.255000 -0.061902 0
5.260000 -0.061781 0
5.265000 -0.061509 0
5.270000 -0.061119 0
5.275000 -0.060410 0
5.280000 -0.059651 0
5.285000 -0.058895 0
5.290000 -0.058143 0
5.295000 -0.057395 0
5.300000 -0.056650 0
5.305000 -0.055909 0
5.310000 -0.055172 0
5.315000 -0.054438 0
5.320000 -0.053709 0
5.325000 -0.052982 0
5.330000 -0.052260 0
5.335000 -0.051541 0
5.340000 -0.050826 0
5.345000 -0.050114 0
5.350000 -0.049405 0
5.355000 -0.048700 0
5.360000 -0.047997 0
5.365000 -0.047297 0
5.370000 -0.046598 0
5.375000 -0.045899 0
5.380000 -0.045197 0
5.385000 -0.044487 0
5.390000 -0.043760 0
5.395000 -0.043006 0
5.400000 -0.042203 0
5.405000 -0.041324 0
5.410000 -0.040324 0
5.415000 -0.039144 0
5.420000 -0.037696 0
5.425000 -0.035867 0
5.430000 -0.033505 0
5.435000 -0.030420 0
5.440000 -0.026381 0
5.445000 -0.021119 0
5.450000 -0.014331 0
5.455000 -0.005704 0
5.460000 0.005071 0
5.465000 0.018258 0
5.470000 0.034045 0
5.475000 0.052499 0
5.480000 0.073524 0
5.485000 0.096829 0
5.490000 0.121904 0
5.495000 0.148018 0
5.500000 0.174240 0
5.505000 0.199485 0
5.510000 0.222580 0
5.515000 0.242352 0
5.520000 0.257727 0
5.525000 0.267826 0
5.530000 0.272041 1
5.535000 0.270103 0
5.540000 0.262105 0
5.545000 0.248492 0
5.550000 0.230024 0
5.555000 0.207702 0
5.560000 0.182677 0
5.565000 0.156154 0
5.570000 0.129293 0
5.575000 0.103122 0
5.580000 0.078457 0
5.585000 0.055799 0
5.590000 0.035177 0
5.595000 0.015888 0
5.600000 -0.003812 0
5.605000 -0.026797 0
5.610000 -0.056431 0
5.615000 -0.094752 0
5.620000 -0.139743 0
5.625000 -0.183057 0
5.630000 -0.209899 2
5.635000 -0.201555 0
5.640000 -0.139270 0
5.645000 -0.008254 0
5.650000 0.197154 0
5.655000 0.465322 0
5.660000 0.758858 0
5.665000 1.015075 0
5.670000 1.163623 3
5.675000 1.157651 0
5.680000 0.997357 0
5.685000 0.726386 0
5.690000 0.411849 0
5.695000 0.116676 0
5.700000 -0.117410 0
5.705000 -0.272065 0
5.710000 -0.346781 0
5.715000 -0.353390 4
5.720000 -0.312110 0
5.725000 -0.246757 0
5.730000 -0.178564 0
5.735000 -0.121149 0
5.740000 -0.079226 0
5.745000 -0.050983 0
5.750000 -0.031826 0
5.755000 -0.017276 0
5.760000 -0.004203 0
5.765000 0.009146 0
5.770000 0.023606 0
5.775000 0.039521 0
5.780000 0.057010 0
5.785000 0.076085 0
5.790000 0.096697 0
5.795000 0.118744 0
5.800000 0.142075 0
5.805000 0.166485 0
5.810000 0.191720 0
5.815000 0.217475 0
5.820000 0.243400 0
5.825000 0.269106 0
5.830000 0.294174 0
5.835000 0.318167 0
5.840000 0.340636 0
5.845000 0.361141 0
5.850000 0.379260 0
5.855000 0.394606 0
5.860000 0.406839 0
5.865000 0.415676 0
5.870000 0.420905 0
5.875000 0.422393 5
5.880000 0.420087 0
5.885000 0.414022 0
5.890000 0.404315 0
5.895000 0.391165 0
5.900000 0.374841 0
5.905000 0.355678 0
5.910000 0.334061 0
5.915000 0.310416 0
5.920000 0.285191 0
5.925000 0.258845 0
5.930000 0.231835 0
5.935000 0.204598 0
5.940000 0.177546 0
5.945000 0.151053 0
5.950000 0.125447 0
5.955000 0.101008 0
5.960000 0.077961 0
5.965000 0.056478 0
5.970000 0.036680 0
5.975000 0.018636 0
5.980000 0.002371 0
5.985000 -0.012129 0
5.990000 -0.024914 0
5.995000 -0.036061 0
6.000000 -0.045667 0
6.005000 -0.053846 0
6.010000 -0.060722 0
6.015000 -0.066423 0
6.020000 -0.071077 0
6.025000 -0.074810 0
6.030000 -0.077742 0
6.035000 -0.079984 0
6.040000 -0.081641 0
6.045000 -0.082804 0
6.050000 -0.083556 0
6.055000 -0.083968 0
6.060000 -0.084105 0
6.065000 -0.084018 0
6.070000 -0.083753 0
6.075000 -0.083347 0
6.080000 -0.082831 0
6.085000 -0.082011 0
6.090000 -0.081144 0
6.095000 -0.080281 0
6.100000 -0.079422 0
6.105000 -0.078568 0
6.110000 -0.077718 0
6.115000 -0.076872 0
6.120000 -0.076030 0
6.125000 -0.075193 0
6.130000 -0.074359 0
6.135000 -0.073530 0
6.140000 -0.072705 0
6.145000 -0.071884 0
6.150000 -0.071067 0
6.155000 -0.070254 0
6.160000 -0.069445 0
6.165000 -0.068640 0
6.170000 -0.067838 0
6.175000 -0.067040 0
6.180000 -0.066243 0
6.185000 -0.065447 0
6.190000 -0.064649 0
6.195000 -0.063845 0
6.200000 -0.063028 0
6.205000 -0.062187 0
6.210000 -0.061306 0
6.215000 -0.060359 0
6.220000 -0.059310 0
6.225000 -0.058105 0
6.230000 -0.056671 0
6.235000 -0.054906 0
6.240000 -0.052679 0
6.245000 -0.049822 0
6.250000 -0.046126 0
6.255000 -0.041346 0
6.260000 -0.035204 0
6.265000 -0.027399 0
6.270000 -0.017628 0
6.275000 -0.005610 0
6.280000 0.008878 0
6.285000 0.025969 0
6.290000 0.045658 0
6.295000 0.067774 0
6.300000 0.091948 0
6.305000 0.117598 0
6.310000 0.143942 0
6.315000 0.170017 0
6.320000 0.194736 0
6.325000 0.216957 0
6.330000 0.235567 0
6.335000 0.249577 0
6.340000 0.258204 0
6.345000 0.260947 1
6.350000 0.257630 0
6.355000 0.248426 0
6.360000 0.233835 0
6.365000 0.214646 0
6.370000 0.191857 0
6.375000 0.166596 0
6.380000 0.140028 0
6.385000 0.113260 0
6.390000 0.087268 0
6.395000 0.062814 0
6.400000 0.040354 0
6.405000 0.019883 0
6.410000 0.000686 0
6.415000 -0.018948 0
6.420000 -0.041806 0
6.425000 -0.071146 0
6.430000 -0.109011 0
6.435000 -0.153691 0
6.440000 -0.197529 0
6.445000 -0.226658 2
6.450000 -0.223196 0
6.455000 -0.168832 0
6.460000 -0.048536 0
6.465000 0.144908 0
6.470000 0.403690 0
6.475000 0.696607 0
6.480000 0.967143 0
6.485000 1.146577 0
6.490000 1.180881 3
6.495000 1.056245 0
6.500000 0.806233 0
6.505000 0.495712 0
6.510000 0.191517 0
6.515000 -0.058519 0
6.520000 -0.230912 0
6.525000 -0.321785 0
6.530000 -0.340857 4
6.535000 -0.307209 0
6.540000 -0.244712 0
6.545000 -0.175835 0
6.550000 -0.116008 0
6.555000 -0.071512 0
6.560000 -0.041378 0
6.565000 -0.021179 0
6.570000 -0.006235 0
6.575000 0.006850 0
6.580000 0.020032 0
6.585000 0.034256 0
6.590000 0.049918 0
6.595000 0.067156 0
6.600000 0.085994 0
6.605000 0.106388 0
6.610000 0.128240 0
6.615000 0.151402 0
6.620000 0.175671 0
6.625000 0.200795 0
6.630000 0.226468 0
6.635000 0.252340 0
6.640000 0.278018 0
6.645000 0.303081 0
6.650000 0.327083 0
6.655000 0.349574 0
6.660000 0.370106 0
6.665000 0.388250 0
6.670000 0.403613 0
6.675000 0.415849 0
6.680000 0.424671 0
6.685000 0.429864 0
6.690000 0.431291 5
6.695000 0.428901 0
6.700000 0.422728 0
6.705000 0.412893 0
6.710000 0.399598 0
6.715000 0.383120 0
6.720000 0.363798 0
6.725000 0.342026 0
6.730000 0.318235 0
6.735000 0.292880 0
6.740000 0.266428 0
6.745000 0.239337 0
6.750000 0.212052 0
6.755000 0.184986 0
6.760000 0.158514 0
6.765000 0.132964 0
6.770000 0.108614 0
6.775000 0.085686 0
6.780000 0.064349 0
6.785000 0.044719 0
6.790000 0.026859 0
6.795000 0.010790 0
6.800000 -0.003509 0
6.805000 -0.016092 0
6.810000 -0.027039 0
6.815000 -0.036454 0
6.820000 -0.044454 0
6.825000 -0.051164 0
6.830000 -0.056715 0
6.835000 -0.061236 0
6.840000 -0.064854 0
6.845000 -0.067689 0
6.850000 -0.069853 0
6.855000 -0.071447 0
6.860000 -0.072564 0
6.865000 -0.073284 0
6.870000 -0.073678 0
6.875000 -0.073807 0
6.880000 -0.073723 0
6.885000 -0.073470 0
6.890000 -0.073083 0
6.895000 -0.072545 0
6.900000 -0.071724 0
6.905000 -0.070908 0
6.910000 -0.070096 0
6.915000 -0.069289 0
6.920000 -0.068485 0
6.925000 -0.067685 0
6.930000 -0.066889 0
6.935000 -0.066097 0
6.940000 -0.065309 0
6.945000 -0.064525 0
6.950000 -0.063745 0
6.955000 -0.062969 0
6.960000 -0.062196 0
6.965000 -0.061428 0
6.970000 -0.060663 0
6.975000 -0.059902 0
6.980000 -0.059144 0
6.985000 -0.058389 0
6.990000 -0.057637 0
6.995000 -0.056886 0
7.000000 -0.056134 0
7.005000 -0.055379 0
7.010000 -0.054615 0
7.015000 -0.053834 0
7.020000 -0.053022 0
7.025000 -0.052160 0
7.030000 -0.051217 0
7.035000 -0.050149 0
7.040000 -0.048893 0
7.045000 -0.047363 0
7.050000 -0.045442 0
7.055000 -0.042981 0
7.060000 -0.039789 0
7.065000 -0.035638 0
7.070000 -0.030262 0
7.075000 -0.023365 0
7.080000 -0.014639 0
7.085000 -0.003784 0
7.090000 0.009459 0
7.095000 0.025273 0
7.100000 0.043723 0
7.105000 0.064720 0
7.110000 0.087983 0
7.115000 0.113024 0
7.120000 0.139136 0
7.125000 0.165422 0
7.130000 0.190826 0
7.135000 0.214206 0
7.140000 0.234411 0
7.145000 0.250376 0
7.150000 0.261213 0
7.155000 0.266291 1
7.160000 0.265300 0
7.165000 0.258275 0
7.170000 0.245602 0
7.175000 0.227976 0
7.180000 0.206338 0
7.185000 0.181796 0
7.190000 0.155524 0
7.195000 0.128676 0
7.200000 0.102293 0
7.205000 0.077230 0
7.210000 0.054065 0
7.215000 0.032966 0
7.220000 0.013469 0
7.225000 -0.005819 0
7.230000 -0.027411 0
7.235000 -0.054588 0
7.240000 -0.090018 0
7.245000 -0.133321 0
7.250000 -0.178555 0
7.255000 -0.213265 0
7.260000 -0.220098 2
7.265000 -0.180258 0
7.270000 -0.077318 0
7.275000 0.098528 0
7.280000 0.343827 0
7.285000 0.633080 0
7.290000 0.914346 0
7.295000 1.118778 0
7.300000 1.185951 3
7.305000 1.091945 0
7.310000 0.861723 0
7.315000 0.557149 0
7.320000 0.247571 0
7.325000 -0.014243 0
7.330000 -0.200391 0
7.335000 -0.304073 0
7.340000 -0.333234 4
7.345000 -0.305991 0
7.350000 -0.246161 0
7.355000 -0.177096 0
7.360000 -0.115607 0
7.365000 -0.069217 0
7.370000 -0.037650 0
7.375000 -0.016640 0
7.380000 -0.001370 0
7.385000 0.011759 0
7.390000 0.024853 0
7.395000 0.038941 0
7.400000 0.054457 0
7.405000 0.071555 0
7.410000 0.090265 0
7.415000 0.110545 0
7.420000 0.132301 0
7.425000 0.155384 0
7.430000 0.179592 0
7.435000 0.204670 0
7.440000 0.230311 0
7.445000 0.256161 0
7.450000 0.281823 0
7.455000 0.306870 0
7.460000 0.330851 0
7.465000 0.353310 0
7.470000 0.373792 0
7.475000 0.391865 0
7.480000 0.407130 0
7.485000 0.419238 0
7.490000 0.427901 0
7.495000 0.432904 0
7.500000 0.434112 5
7.505000 0.431478 0
7.510000 0.425042 0
7.515000 0.414931 0
7.520000 0.401357 0
7.525000 0.384604 0
7.530000 0.365023 0
7.535000 0.343014 0
7.540000 0.319019 0
7.545000 0.293500 0
7.550000 0.266930 0
7.555000 0.239772 0
7.560000 0.212473 0
7.565000 0.185447 0
7.570000 0.159068 0
7.575000 0.133661 0
7.580000 0.109499 0
7.585000 0.086799 0
7.590000 0.065722 0
7.595000 0.046377 0
7.600000 0.028821 0
7.605000 0.013066 0
7.610000 -0.000916 0
7.615000 -0.013185 0
7.620000 -0.023829 0
7.625000 -0.032954 0
7.630000 -0.040682 0
7.635000 -0.047142 0
7.640000 -0.052465 0
7.645000 -0.056783 0
7.650000 -0.060223 0
7.655000 -0.062903 0
7.660000 -0.064936 0
7.665000 -0.066420 0
7.670000 -0.067447 0
7.675000 -0.068095 0
7.680000 -0.068433 0
7.685000 -0.068521 0
7.690000 -0.068409 0
7.695000 -0.068137 0
7.700000 -0.067741 0
7.705000 -0.067205 0
7.710000 -0.066411 0
7.715000 -0.065622 0
7.720000 -0.064836 0
7.725000 -0.064054 0
7.730000 -0.063277 0
7.735000 -0.062503 0
7.740000 -0.061733 0
7.745000 -0.060967 0
7.750000 -0.060204 0
7.755000 -0.059446 0
7.760000 -0.058691 0
7.765000 -0.057940 0
7.770000 -0.057192 0
7.775000 -0.056449 0
7.780000 -0.055709 0
7.785000 -0.054972 0
7.790000 -0.054238 0
7.795000 -0.053508 0
7.800000 -0.052779 0
7.805000 -0.052051 0
7.810000 -0.051320 0
7.815000 -0.050584 0
7.820000 -0.049836 0
7.825000 -0.049064 0
7.830000 -0.048253 0
7.835000 -0.047377 0
7.840000 -0.046400 0
7.845000 -0.045268 0
7.850000 -0.043907 0
7.855000 -0.042213 0
7.860000 -0.040052 0
7.865000 -0.037251 0
7.870000 -0.033598 0
7.875000 -0.028838 0
7.880000 -0.022686 0
7.885000 -0.014832 0
7.890000 -0.004966 0
7.895000 0.007198 0
7.900000 0.021883 0
7.905000 0.039211 0
7.910000 0.059162 0
7.915000 0.081535 0
7.920000 0.105921 0
7.925000 0.131695 0
7.930000 0.158017 0
7.935000 0.183874 0
7.940000 0.208135 0
7.945000 0.229625 0
7.950000 0.247222 0
7.955000 0.259953 0
7.960000 0.267076 0
7.965000 0.268161 1
7.970000 0.263121 0
7.975000 0.252230 0
7.980000 0.236096 0
7.985000 0.215599 0
7.990000 0.191819 0
7.995000 0.165935 0
8.000000 0.139130 0
8.005000 0.112502 0
8.010000 0.086980 0
8.015000 0.063238 0
8.020000 0.041580 0
8.025000 0.021737 0
8.030000 0.002572 0
8.035000 -0.018170 0
8.040000 -0.043703 0
8.045000 -0.077069 0
8.050000 -0.118866 0
8.055000 -0.164541 0
8.060000 -0.202910 0
8.065000 -0.217217 2
8.070000 -0.188412 0
8.075000 -0.099053 0
8.080000 0.062545 0
8.085000 0.296117 0
8.090000 0.580563 0
8.095000 0.867860 0
8.100000 1.089781 0
8.105000 1.181598 3
8.110000 1.112837 0
8.115000 0.902536 0
8.120000 0.606506 0
8.125000 0.292887 0
8.130000 0.017360 0
8.135000 -0.187781 0
8.140000 -0.311746 0
8.145000 -0.359161 4
8.150000 -0.345361 0
8.155000 -0.292447 0
8.160000 -0.223904 0
8.165000 -0.158513 0
8.170000 -0.106538 0
8.175000 -0.069926 0
8.180000 -0.045464 0
8.185000 -0.028373 0
8.190000 -0.014609 0
8.195000 -0.001573 0
8.200000 0.012107 0
8.205000 0.027051 0
8.210000 0.043503 0
8.215000 0.061538 0
8.220000 0.081144 0
8.225000 0.102255 0
8.230000 0.124753 0
8.235000 0.148470 0
8.240000 0.173185 0
8.245000 0.198630 0
8.250000 0.224486 0
8.255000 0.250391 0
8.260000 0.275949 0
8.265000 0.300735 0
8.270000 0.324308 0
8.275000 0.346224 0
8.280000 0.366050 0
8.285000 0.383374 0
8.290000 0.397825 0
8.295000 0.409078 0
8.300000 0.416873 0
8.305000 0.421023 0
8.310000 0.421417 5
8.315000 0.418027 0
8.320000 0.410913 0
8.325000 0.400215 0
8.330000 0.386150 0
8.335000 0.369007 0
8.340000 0.349133 0
8.345000 0.326926 0
8.350000 0.302814 0
8.355000 0.277250 0
8.360000 0.250689 0
8.365000 0.223583 0
8.370000 0.196362 0
8.375000 0.169426 0
8.380000 0.143136 0
8.385000 0.117807 0
8.390000 0.093703 0
8.395000 0.071036 0
8.400000 0.049964 0
8.405000 0.030594 0
8.410000 0.012983 0
8.415000 -0.002852 0
8.420000 -0.016936 0
8.425000 -0.029325 0
8.430000 -0.040100 0
8.435000 -0.049363 0
8.440000 -0.057230 0
8.445000 -0.063825 0
8.450000 -0.069276 0
8.455000 -0.073710 0
8.460000 -0.077253 0
8.465000 -0.080021 0
8.470000 -0.082124 0
8.475000 -0.083662 0
8.480000 -0.084725 0
8.485000 -0.085395 0
8.490000 -0.085739 0
8.495000 -0.085819 0
8.500000 -0.085686 0
8.505000 -0.085382 0
8.510000 -0.084945 0
8.515000 -0.084354 0
8.520000 -0.083475 0
8.525000 -0.082600 0
8.530000 -0.081730 0
8.535000 -0.080864 0
8.540000 -0.080002 0
8.545000 -0.079145 0
8.550000 -0.078292 0
8.555000 -0.077443 0
8.560000 -0.076599 0
8.565000 -0.075758 0
8.570000 -0.074922 0
8.575000 -0.074090 0
8.580000 -0.073262 0
8.585000 -0.072438 0
8.590000 -0.071619 0
8.595000 -0.070803 0
8.600000 -0.069991 0
8.605000 -0.069182 0
8.610000 -0.068376 0
8.615000 -0.067573 0
8.620000 -0.066769 0
8.625000 -0.065964 0
8.630000 -0.065151 0
8.635000 -0.064325 0
8.640000 -0.063473 0
8.645000 -0.062579 0
8.650000 -0.061615 0
8.655000 -0.060544 0
8.660000 -0.059311 0
8.665000 -0.057838 0
8.670000 -0.056023 0
8.675000 -0.053731 0
8.680000 -0.050790 0
8.685000 -0.046989 0
8.690000 -0.042081 0
8.695000 -0.035785 0
8.700000 -0.027802 0
8.705000 -0.017830 0
8.710000 -0.005593 0
8.715000 0.009123 0
8.720000 0.026440 0
8.725000 0.046342 0
8.730000 0.068643 0
8.735000 0.092957 0
8.740000 0.118693 0
8.745000 0.145055 0
8.750000 0.171076 0
8.755000 0.195668 0
8.760000 0.217693 0
8.765000 0.236049 0
8.770000 0.249763 0
8.775000 0.258069 0
8.780000 0.260487 1
8.785000 0.256861 0
8.790000 0.247380 0
8.795000 0.232558 0
8.800000 0.213189 0
8.805000 0.190277 0
8.810000 0.164947 0
8.815000 0.138355 0
8.820000 0.111603 0
8.825000 0.085653 0
8.830000 0.061256 0
8.835000 0.038856 0
8.840000 0.018433 0
8.845000 -0.000746 0
8.850000 -0.020406 0
8.855000 -0.043339 0
8.860000 -0.072784 0
8.865000 -0.110742 0
8.870000 -0.155453 0
8.875000 -0.199242 0
8.880000 -0.228273 2
8.885000 -0.224743 0
8.890000 -0.170433 0
8.895000 -0.050381 0
8.900000 0.142633 0
8.905000 0.400962 0
8.910000 0.693779 0
8.915000 0.965084 0
8.920000 1.146486 0
8.925000 1.183747 3
8.930000 1.061678 0
8.935000 0.812435 0
8.940000 0.501892 0
8.945000 0.198064 0
8.950000 -0.050599 0
8.955000 -0.220630 0
8.960000 -0.308546 0
8.965000 -0.324678 4
8.970000 -0.288806 0
8.975000 -0.225329 0
8.980000 -0.156794 0
8.985000 -0.098225 0
8.990000 -0.055276 0
8.995000 -0.026464 0
9.000000 -0.007135 0
9.005000 0.007372 0
9.010000 0.020327 0
9.015000 0.033559 0
9.020000 0.047925 0
9.025000 0.063777 0
9.030000 0.081232 0
9.035000 0.100298 0
9.040000 0.120921 0
9.045000 0.142993 0
9.050000 0.166351 0
9.055000 0.190778 0
9.060000 0.216006 0
9.065000 0.241713 0
9.070000 0.267530 0
9.075000 0.293050 0
9.080000 0.317836 0
9.085000 0.341432 0
9.090000 0.363378 0
9.095000 0.383222 0
9.100000 0.400537 0
9.105000 0.414933 0
9.110000 0.426077 0
9.115000 0.433697 0
9.120000 0.437599 0
9.125000 0.437674 5
9.130000 0.433899 0
9.135000 0.426340 0
9.140000 0.415151 0
9.145000 0.400566 0
9.150000 0.382894 0
9.155000 0.362503 0
9.160000 0.339812 0
9.165000 0.315270 0
9.170000 0.289348 0
9.175000 0.262520 0
9.180000 0.235249 0
9.185000 0.207973 0
9.190000 0.181098 0
9.195000 0.154983 0
9.200000 0.129939 0
9.205000 0.106223 0
9.210000 0.084032 0
9.215000 0.063512 0
9.220000 0.044753 0
9.225000 0.027797 0
9.230000 0.012641 0
9.235000 -0.000754 0
9.240000 -0.012460 0
9.245000 -0.022573 0
9.250000 -0.031205 0
9.255000 -0.038482 0
9.260000 -0.044535 0
9.265000 -0.049497 0
9.270000 -0.053498 0
9.275000 -0.056664 0
9.280000 -0.059112 0
9.285000 -0.060948 0
9.290000 -0.062271 0
9.295000 -0.063166 0
9.300000 -0.063710 0
9.305000 -0.063967 0
9.310000 -0.063993 0
9.315000 -0.063836 0
9.320000 -0.063533 0
9.325000 -0.063118 0
9.330000 -0.062396 0
9.335000 -0.061627 0
9.340000 -0.060861 0
9.345000 -0.060099 0
9.350000 -0.059341 0
9.355000 -0.058587 0
9.360000 -0.057836 0
9.365000 -0.057090 0
9.370000 -0.056347 0
9.375000 -0.055607 0
9.380000 -0.054872 0
9.385000 -0.054140 0
9.390000 -0.053411 0
9.395000 -0.052686 0
9.400000 -0.051965 0
9.405000 -0.051247 0
9.410000 -0.050533 0
9.415000 -0.049821 0
9.420000 -0.049112 0
9.425000 -0.048404 0
9.430000 -0.047695 0
9.435000 -0.046983 0
9.440000 -0.046262 0
9.445000 -0.045524 0
9.450000 -0.044756 0
9.455000 -0.043937 0
9.460000 -0.043039 0
9.465000 -0.042015 0
9.470000 -0.040802 0
9.475000 -0.039313 0
9.480000 -0.037430 0
9.485000 -0.034999 0
9.490000 -0.031826 0
9.495000 -0.027677 0
9.500000 -0.022280 0
9.505000 -0.015332 0
9.510000 -0.006521 0
9.515000 0.004459 0
9.520000 0.017867 0
9.525000 0.033881 0
9.530000 0.052555 0
9.535000 0.073781 0
9.540000 0.097250 0
9.545000 0.122438 0
9.550000 0.148601 0
9.555000 0.174798 0
9.560000 0.199937 0
9.565000 0.222848 0
9.570000 0.242366 0
9.575000 0.257430 0
9.580000 0.267179 0
9.585000 0.271028 1
9.590000 0.268729 0
9.595000 0.260397 0
9.600000 0.246496 0
9.605000 0.227797 0
9.610000 0.205310 0
9.615000 0.180186 0
9.620000 0.153626 0
9.625000 0.126782 0
9.630000 0.100670 0
9.635000 0.076092 0
9.640000 0.053529 0
9.645000 0.032987 0
9.650000 0.013729 0
9.655000 -0.006026 0
9.660000 -0.029179 0
9.665000 -0.059074 0
9.670000 -0.097655 0
9.675000 -0.142743 0
9.680000 -0.185819 0
9.685000 -0.211987 2
9.690000 -0.202544 0
9.695000 -0.138849 0
9.700000 -0.006300 0
9.705000 0.200483 0
9.710000 0.469494 0
9.715000 0.762993 0
9.720000 1.018207 0
9.725000 1.165113 3
9.730000 1.158176 0
9.735000 0.996988 0
9.740000 0.725474 0
9.745000 0.410866 0
9.750000 0.116035 0
9.755000 -0.117449 0
9.760000 -0.271397 0
9.765000 -0.345428 0
9.770000 -0.351479 4
9.775000 -0.309846 0
9.780000 -0.244371 0
9.785000 -0.176248 0
9.790000 -0.119007 0
9.795000 -0.077275 0
9.800000 -0.049182 0
9.805000 -0.030118 0
9.810000 -0.015611 0
9.815000 -0.002552 0
9.820000 0.010802 0
9.825000 0.025274 0
9.830000 0.041205 0
9.835000 0.058712 0
9.840000 0.077805 0
9.845000 0.098435 0
9.850000 0.120499 0
9.855000 0.143843 0
9.860000 0.168264 0
9.865000 0.193505 0
9.870000 0.219259 0
9.875000 0.245177 0
9.880000 0.270869 0
9.885000 0.295914 0
9.890000 0.319873 0
9.895000 0.342299 0
9.900000 0.362751 0
9.905000 0.380808 0
9.910000 0.396082 0
9.915000 0.408233 0
9.920000 0.416982 0
9.925000 0.422118 0
9.930000 0.423508 5
9.935000 0.421103 0
9.940000 0.414939 0
9.945000 0.405135 0
9.950000 0.391892 0
9.955000 0.375483 0
9.960000 0.356243 0
9.965000 0.334559 0
9.970000 0.310858 0
9.975000 0.285589 0
9.980000 0.259212 0
9.985000 0.232183 0
9.990000 0.204940 0
9.995000 0.177894 0
10.000000 0.151418 0
10.005000 0.125838 0
10.010000 0.101434 0
10.015000 0.078429 0
10.020000 0.056994 0
10.025000 0.037246 0
10.030000 0.019256 0
10.035000 0.003045 0
10.040000 -0.011401 0
10.045000 -0.024134 0
10.050000 -0.035230 0
10.055000 -0.044789 0
10.060000 -0.052925 0
10.065000 -0.059762 0
10.070000 -0.065427 0
10.075000 -0.070050 0
10.080000 -0.073756 0
10.085000 -0.076666 0
10.090000 -0.078890 0
10.095000 -0.080531 0
10.100000 -0.081682 0
10.105000 -0.082424 0
10.110000 -0.082830 0
10.115000 -0.082962 0
10.120000 -0.082873 0
10.125000 -0.082607 0
10.130000 -0.082201 0
10.135000 -0.081687 0
10.140000 -0.080872 0
10.145000 -0.080011 0
10.150000 -0.079153 0
10.155000 -0.078300 0
10.160000 -0.077451 0
10.165000 -0.076607 0
10.170000 -0.075766 0
10.175000 -0.074930 0
10.180000 -0.074098 0
10.185000 -0.073270 0
10.190000 -0.072447 0
10.195000 -0.071627 0
10.200000 -0.070811 0
10.205000 -0.070000 0
10.210000 -0.069192 0
10.215000 -0.068388 0
10.220000 -0.067588 0
10.225000 -0.066792 0
10.230000 -0.065998 0
10.235000 -0.065207 0
10.240000 -0.064415 0
10.245000 -0.063622 0
10.250000 -0.062822 0
10.255000 -0.062009 0
10.260000 -0.061172 0
10.265000 -0.060293 0
10.270000 -0.059346 0
10.275000 -0.058295 0
10.280000 -0.057084 0
10.285000 -0.055638 0
10.290000 -0.053856 0
10.295000 -0.051602 0
10.300000 -0.048706 0
10.305000 -0.044959 0
10.310000 -0.040112 0
10.315000 -0.033884 0
10.320000 -0.025974 0
10.325000 -0.016079 0
10.330000 -0.003920 0
10.335000 0.010721 0
10.340000 0.027970 0
10.345000 0.047813 0
10.350000 0.070067 0
10.355000 0.094349 0
10.360000 0.120065 0
10.365000 0.146418 0
10.370000 0.172436 0
10.375000 0.197023 0
10.380000 0.219037 0
10.385000 0.237369 0
10.390000 0.251039 0
10.395000 0.259281 0
10.400000 0.261614 1
10.405000 0.257885 0
10.410000 0.248290 0
10.415000 0.233352 0
10.420000 0.213876 0
10.425000 0.190874 0
10.430000 0.165481 0
10.435000 0.138859 0
10.440000 0.112113 0
10.445000 0.086205 0
10.450000 0.061879 0
10.455000 0.039567 0
10.460000 0.019219 0
10.465000 0.000058 0
10.470000 -0.019711 0
10.475000 -0.042944 0
10.480000 -0.072884 0
10.485000 -0.111389 0
10.490000 -0.156359 0
10.495000 -0.199639 0
10.500000 -0.226938 2
10.505000 -0.220193 0
10.510000 -0.161197 0
10.515000 -0.035326 0
10.520000 0.163770 0
10.525000 0.426720 0
10.530000 0.720209 0
10.535000 0.985999 0
10.540000 1.155382 0
10.545000 1.176737 3
10.550000 1.039686 0
10.555000 0.781719 0
10.560000 0.469253 0
10.565000 0.168339 0
10.570000 -0.075193 0
10.575000 -0.239843 0
10.580000 -0.323228 0
10.585000 -0.336177 4
10.590000 -0.298549 0
10.595000 -0.234468 0
10.600000 -0.165988 0
10.605000 -0.107665 0
10.610000 -0.064884 0
10.615000 -0.036106 0
10.620000 -0.016729 0
10.625000 -0.002154 0
10.630000 0.010854 0
10.635000 0.024113 0
10.640000 0.038485 0
10.645000 0.054324 0
10.650000 0.071751 0
10.655000 0.090780 0
10.660000 0.111357 0
10.665000 0.133380 0
10.670000 0.156691 0
10.675000 0.181083 0
10.680000 0.206291 0
10.685000 0.232004 0
10.690000 0.257864 0
10.695000 0.283471 0
10.700000 0.308398 0
10.705000 0.332197 0
10.710000 0.354414 0
10.715000 0.374602 0
10.720000 0.392335 0
10.725000 0.407224 0
10.730000 0.418929 0
10.735000 0.427175 0
10.740000 0.431756 0
10.745000 0.432550 5
10.750000 0.429519 0
10.755000 0.422711 0
10.760000 0.412262 0
10.765000 0.398389 0
10.770000 0.381381 0
10.775000 0.361589 0
10.780000 0.339415 0
10.785000 0.315299 0
10.790000 0.289701 0
10.795000 0.263087 0
10.800000 0.235919 0
10.805000 0.208636 0
10.810000 0.181647 0
10.815000 0.155320 0
10.820000 0.129976 0
10.825000 0.105881 0
10.830000 0.083249 0
10.835000 0.062239 0
10.840000 0.042955 0
10.845000 0.025453 0
10.850000 0.009744 0
10.855000 -0.004199 0
10.860000 -0.016438 0
10.865000 -0.027059 0
10.870000 -0.036169 0
10.875000 -0.043887 0
10.880000 -0.050341 0
10.885000 -0.055663 0
10.890000 -0.059981 0
10.895000 -0.063423 0
10.900000 -0.066106 0
10.905000 -0.068140 0
10.910000 -0.069626 0
10.915000 -0.070653 0
10.920000 -0.071300 0
10.925000 -0.071636 0
10.930000 -0.071720 0
10.935000 -0.071602 0
10.940000 -0.071323 0
10.945000 -0.070919 0
10.950000 -0.070372 0
10.955000 -0.069563 0
10.960000 -0.068757 0
10.965000 -0.067956 0
10.970000 -0.067159 0
10.975000 -0.066366 0
10.980000 -0.065576 0
10.985000 -0.064791 0
10.990000 -0.064009 0
10.995000 -0.063232 0
11.000000 -0.062458 0
11.005000 -0.061688 0
11.010000 -0.060922 0
11.015000 -0.060160 0
11.020000 -0.059402 0
11.025000 -0.058647 0
11.030000 -0.057896 0
11.035000 -0.057148 0
11.040000 -0.056403 0
11.045000 -0.055660 0
11.050000 -0.054918 0
11.055000 -0.054174 0
11.060000 -0.053426 0
11.065000 -0.052666 0
11.070000 -0.051886 0
11.075000 -0.051071 0
11.080000 -0.050196 0
11.085000 -0.049229 0
11.090000 -0.048119 0
11.095000 -0.046797 0
11.100000 -0.045168 0
11.105000 -0.043104 0
11.110000 -0.040442 0
11.115000 -0.036981 0
11.120000 -0.032477 0
11.125000 -0.026653 0
11.130000 -0.019205 0
11.135000 -0.009825 0
11.140000 0.001779 0
11.145000 0.015847 0
11.150000 0.032529 0
11.155000 0.051841 0
11.160000 0.073634 0
11.165000 0.097557 0
11.170000 0.123046 0
11.175000 0.149322 0
11.180000 0.175423 0
11.185000 0.200252 0
11.190000 0.222649 0
11.195000 0.241478 0
11.200000 0.255720 0
11.205000 0.264567 0
11.210000 0.267494 1
11.215000 0.264311 0
11.220000 0.255183 0
11.225000 0.240613 0
11.230000 0.221398 0
11.235000 0.198556 0
11.240000 0.173233 0
11.245000 0.146612 0
11.250000 0.119819 0
11.255000 0.093838 0
11.260000 0.069436 0
11.265000 0.047057 0
11.270000 0.026661 0
11.275000 0.007462 0
11.280000 -0.012365 0
11.285000 -0.035730 0
11.290000 -0.065921 0
11.295000 -0.104748 0
11.300000 -0.149893 0
11.305000 -0.192791 0
11.310000 -0.218657 2
11.315000 -0.209029 0
11.320000 -0.145534 0
11.325000 -0.013750 0
11.330000 0.191773 0
11.335000 0.459602 0
11.340000 0.753225 0
11.345000 1.011349 0
11.350000 1.164652 0
11.355000 1.164811 3
11.360000 1.008545 0
11.365000 0.739154 0
11.370000 0.424723 0
11.375000 0.129456 0
11.380000 -0.104122 0
11.385000 -0.257479 0
11.390000 -0.330330 0
11.395000 -0.334984 4
11.400000 -0.292238 0
11.405000 -0.226348 0
11.410000 -0.158614 0
11.415000 -0.102329 0
11.420000 -0.061712 0
11.425000 -0.034555 0
11.430000 -0.016104 0
11.435000 -0.001904 0
11.440000 0.011064 0
11.445000 0.024454 0
11.450000 0.039031 0
11.455000 0.055104 0
11.460000 0.072773 0
11.465000 0.092040 0
11.470000 0.112845 0
11.475000 0.135076 0
11.480000 0.158570 0
11.485000 0.183108 0
11.490000 0.208421 0
11.495000 0.234188 0
11.500000 0.260044 0
11.505000 0.285586 0
11.510000 0.310380 0
11.515000 0.333977 0
11.520000 0.355922 0
11.525000 0.375770 0
11.530000 0.393100 0
11.535000 0.407528 0
11.540000 0.418724 0
11.545000 0.426422 0
11.550000 0.430428 0
11.555000 0.430633 5
11.560000 0.427012 0
11.565000 0.419629 0
11.570000 0.408631 0
11.575000 0.394248 0
11.580000 0.376780 0
11.585000 0.356587 0
11.590000 0.334080 0
11.595000 0.309702 0
11.600000 0.283916 0
11.605000 0.257189 0
11.610000 0.229981 0
11.615000 0.202726 0
11.620000 0.175829 0
11.625000 0.149650 0
11.630000 0.124502 0
11.635000 0.100643 0
11.640000 0.078278 0
11.645000 0.057556 0
11.650000 0.038575 0
11.655000 0.021381 0
11.660000 0.005979 0
11.665000 -0.007665 0
11.670000 -0.019616 0
11.675000 -0.029966 0
11.680000 -0.038823 0
11.685000 -0.046309 0
11.690000 -0.052553 0
11.695000 -0.057686 0
11.700000 -0.061838 0
11.705000 -0.065133 0
11.710000 -0.067689 0
11.715000 -0.069615 0
11.720000 -0.071008 0
11.725000 -0.071957 0
11.730000 -0.072539 0
11.735000 -0.072821 0
11.740000 -0.072859 0
11.745000 -0.072704 0
11.750000 -0.072395 0
11.755000 -0.071965 0
11.760000 -0.071204 0
11.765000 -0.070391 0
11.770000 -0.069581 0
11.775000 -0.068776 0
11.780000 -0.067974 0
11.785000 -0.067177 0
11.790000 -0.066384 0
11.795000 -0.065594 0
11.800000 -0.064809 0
11.805000 -0.064027 0
11.810000 -0.063250 0
11.815000 -0.062476 0
11.820000 -0.061706 0
11.825000 -0.060940 0
11.830000 -0.060178 0
11.835000 -0.059419 0
11.840000 -0.058664 0
11.845000 -0.057912 0
11.850000 -0.057163 0
11.855000 -0.056416 0
11.860000 -0.055669 0
11.865000 -0.054920 0
11.870000 -0.054166 0
11.875000 -0.053399 0
11.880000 -0.052609 0
11.885000 -0.051780 0
11.890000 -0.050886 0
11.895000 -0.049891 0
11.900000 -0.048741 0
11.905000 -0.047363 0
11.910000 -0.045654 0
11.915000 -0.043482 0
11.920000 -0.040674 0
11.925000 -0.037021 0
11.930000 -0.032272 0
11.935000 -0.026143 0
11.940000 -0.018327 0
11.945000 -0.008516 0
11.950000 0.003575 0
11.955000 0.018169 0
11.960000 0.035394 0
11.965000 0.055235 0
11.970000 0.077504 0
11.975000 0.101806 0
11.980000 0.127532 0
11.985000 0.153860 0
11.990000 0.179796 0
11.995000 0.204221 0
12.000000 0.225970 0
12.005000 0.243924 0
12.010000 0.257099 0
12.015000 0.264741 0
12.020000 0.266390 1
12.025000 0.261930 0
12.030000 0.251602 0
12.035000 0.235975 0
12.040000 0.215901 0
12.045000 0.192435 0
12.050000 0.166739 0
12.055000 0.139994 0
12.060000 0.113303 0
12.065000 0.087612 0
12.070000 0.063627 0
12.075000 0.041707 0
12.080000 0.021674 0
12.085000 0.002538 0
12.090000 -0.017780 0
12.095000 -0.042373 0
12.100000 -0.074405 0
12.105000 -0.115017 0
12.110000 -0.160637 0
12.115000 -0.201214 0
12.120000 -0.220840 2
12.125000 -0.200715 0
12.130000 -0.122986 0
12.135000 0.025302 0
12.140000 0.246606 0
12.145000 0.524421 0
12.150000 0.816065 0
12.155000 1.056275 0
12.160000 1.177719 3
12.165000 1.141716 0
12.170000 0.956405 0
12.175000 0.671957 0
12.180000 0.356748 0
12.185000 0.070625 0
12.190000 -0.149242 0
12.195000 -0.288355 0
12.200000 -0.348906 4
12.205000 -0.344637 0
12.210000 -0.296906 0
12.215000 -0.229560 0
12.220000 -0.162691 0
12.225000 -0.108181 0
12.230000 -0.069218 0
12.235000 -0.043154 0
12.240000 -0.025235 0
12.245000 -0.011191 0
12.250000 0.001816 0
12.255000 0.015322 0
12.260000 0.030037 0
12.265000 0.046244 0
12.270000 0.064034 0
12.275000 0.083407 0
12.280000 0.104302 0
12.285000 0.126606 0
12.290000 0.150158 0
12.295000 0.174742 0
12.300000 0.200094 0
12.305000 0.225898 0
12.310000 0.251795 0
12.315000 0.277389 0
12.320000 0.302257 0
12.325000 0.325954 0
12.330000 0.348035 0
12.335000 0.368061 0
12.340000 0.385615 0
12.345000 0.400318 0
12.350000 0.411841 0
12.355000 0.419915 0
12.360000 0.424344 0
12.365000 0.425010 5
12.370000 0.421881 0
12.375000 0.415008 0
12.380000 0.404527 0
12.385000 0.390653 0
12.390000 0.373670 0
12.395000 0.353925 0
12.400000 0.331816 0
12.405000 0.307773 0
12.410000 0.282249 0
12.415000 0.255704 0
12.420000 0.228593 0
12.425000 0.201348 0
12.430000 0.174376 0
12.435000 0.148040 0
12.440000 0.122659 0
12.445000 0.098500 0
12.450000 0.075777 0
12.455000 0.054652 0
12.460000 0.035232 0
12.465000 0.017577 0
12.470000 0.001703 0
12.475000 -0.012414 0
12.480000 -0.024830 0
12.485000 -0.035628 0
12.490000 -0.044908 0
12.495000 -0.052789 0
12.500000 -0.059395 0
12.505000 -0.064854 0
12.510000 -0.069296 0
12.515000 -0.072845 0
12.520000 -0.075619 0
12.525000 -0.077729 0
12.530000 -0.079274 0
12.535000 -0.080346 0
12.540000 -0.081025 0
12.545000 -0.081380 0
12.550000 -0.081471 0
12.555000 -0.081351 0
12.560000 -0.081062 0
12.565000 -0.080640 0
12.570000 -0.080066 0
12.575000 -0.079209 0
12.580000 -0.078355 0
12.585000 -0.077506 0
12.590000 -0.076661 0
12.595000 -0.075821 0
12.600000 -0.074984 0
12.605000 -0.074152 0
12.610000 -0.073324 0
12.615000 -0.072500 0
12.620000 -0.071680 0
12.625000 -0.070864 0
12.630000 -0.070052 0
12.635000 -0.069245 0
12.640000 -0.068441 0
12.645000 -0.067641 0
12.650000 -0.066845 0
12.655000 -0.066053 0
12.660000 -0.065264 0
12.665000 -0.064477 0
12.670000 -0.063693 0
12.675000 -0.062908 0
12.680000 -0.062120 0
12.685000 -0.061325 0
12.690000 -0.060515 0
12.695000 -0.059677 0
12.700000 -0.058793 0
12.705000 -0.057836 0
12.710000 -0.056763 0
12.715000 -0.055517 0
12.720000 -0.054019 0
12.725000 -0.052158 0
12.730000 -0.049793 0
12.735000 -0.046747 0
12.740000 -0.042801 0
12.745000 -0.037698 0
12.750000 -0.031154 0
12.755000 -0.022864 0
12.760000 -0.012528 0
12.765000 0.000124 0
12.770000 0.015294 0
12.775000 0.033082 0
12.780000 0.053442 0
12.785000 0.076151 0
12.790000 0.100783 0
12.795000 0.126698 0
12.800000 0.153061 0
12.805000 0.178867 0
12.810000 0.203004 0
12.815000 0.224329 0
12.820000 0.241753 0
12.825000 0.254332 0
12.830000 0.261355 0
12.835000 0.262406 1
12.840000 0.257408 0
12.845000 0.246626 0
12.850000 0.230648 0
12.855000 0.210331 0
12.860000 0.186720 0
12.865000 0.160965 0
12.870000 0.134223 0
12.875000 0.107575 0
12.880000 0.081945 0
12.885000 0.058020 0
12.890000 0.036145 0
12.895000 0.016141 0
12.900000 -0.002966 0
12.905000 -0.023211 0
12.910000 -0.047625 0
12.915000 -0.079344 0
12.920000 -0.119602 0
12.925000 -0.165127 0
12.930000 -0.206361 0
12.935000 -0.227926 2
12.940000 -0.211400 0
12.945000 -0.139024 0
12.950000 0.002521 0
12.955000 0.216922 0
12.960000 0.490229 0
12.965000 0.783355 0
12.970000 1.033947 0
12.975000 1.174417 3
12.980000 1.159067 0
12.985000 0.988829 0
12.990000 0.711265 0
12.995000 0.396091 0
13.000000 0.106363 0
13.005000 -0.117897 0
13.010000 -0.260581 0
13.015000 -0.323315 4
13.020000 -0.319944 0
13.025000 -0.272342 0
13.030000 -0.205014 0
13.035000 -0.138510 0
13.040000 -0.084776 0
13.045000 -0.046768 0
13.050000 -0.021549 0
13.055000 -0.004209 0
13.060000 0.009532 0
13.065000 0.022445 0
13.070000 0.035986 0
13.075000 0.050810 0
13.080000 0.067173 0
13.085000 0.085148 0
13.090000 0.104722 0
13.095000 0.125824 0
13.100000 0.148328 0
13.105000 0.172055 0
13.110000 0.196772 0
13.115000 0.222194 0
13.120000 0.247985 0
13.125000 0.273764 0
13.130000 0.299114 0
13.135000 0.323592 0
13.140000 0.346739 0
13.145000 0.368098 0
13.150000 0.387223 0
13.155000 0.403697 0
13.160000 0.417148 0
13.165000 0.427259 0
13.170000 0.433782 0
13.175000 0.436549 5
13.180000 0.435476 0
13.185000 0.430566 0
13.190000 0.421912 0
13.195000 0.409693 0
13.200000 0.394165 0
13.205000 0.375656 0
13.210000 0.354549 0
13.215000 0.331273 0
13.220000 0.306285 0
13.225000 0.280057 0
13.230000 0.253061 0
13.235000 0.225752 0
13.240000 0.198560 0
13.245000 0.171878 0
13.250000 0.146050 0
13.255000 0.121372 0
13.260000 0.098082 0
13.265000 0.076365 0
13.270000 0.056348 0
13.275000 0.038107 0
13.280000 0.021671 0
13.285000 0.007026 0
13.290000 -0.005878 0
13.295000 -0.017118 0
13.300000 -0.026796 0
13.305000 -0.035028 0
13.310000 -0.041943 0
13.315000 -0.047672 0
13.320000 -0.052347 0
13.325000 -0.056098 0
13.330000 -0.059047 0
13.335000 -0.061309 0
13.340000 -0.062987 0
13.345000 -0.064177 0
13.350000 -0.064962 0
13.355000 -0.065414 0
13.360000 -0.065596 0
13.365000 -0.065560 0
13.370000 -0.065352 0
13.375000 -0.065009 0
13.380000 -0.064512 0
13.385000 -0.063732 0
13.390000 -0.062955 0
13.395000 -0.062183 0
13.400000 -0.061415 0
13.405000 -0.060650 0
13.410000 -0.059889 0
13.415000 -0.059132 0
13.420000 -0.058379 0
13.425000 -0.057630 0
13.430000 -0.056884 0
13.435000 -0.056142 0
13.440000 -0.055403 0
13.445000 -0.054669 0
13.450000 -0.053938 0
13.455000 -0.053210 0
13.460000 -0.052486 0
13.465000 -0.051765 0
13.470000 -0.051047 0
13.475000 -0.050331 0
13.480000 -0.049616 0
13.485000 -0.048900 0
13.490000 -0.048179 0
13.495000 -0.047448 0
13.500000 -0.046697 0
13.505000 -0.045912 0
13.510000 -0.045071 0
13.515000 -0.044140 0
13.520000 -0.043070 0
13.525000 -0.041793 0
13.530000 -0.040214 0
13.535000 -0.038208 0
13.540000 -0.035612 0
13.545000 -0.032222 0
13.550000 -0.027795 0
13.555000 -0.022052 0
13.560000 -0.014686 0
13.565000 -0.005383 0
13.570000 0.006152 0
13.575000 0.020164 0
13.580000 0.036805 0
13.585000 0.056094 0
13.590000 0.077880 0
13.595000 0.101807 0
13.600000 0.127298 0
13.605000 0.153564 0
13.610000 0.179625 0
13.615000 0.204367 0
13.620000 0.226613 0
13.625000 0.245218 0
13.630000 0.259158 0
13.635000 0.267629 0
13.640000 0.270119 1
13.645000 0.266461 0
13.650000 0.256848 0
13.655000 0.241816 0
13.660000 0.222196 0
13.665000 0.199034 0
13.670000 0.173499 0
13.675000 0.146788 0
13.680000 0.120028 0
13.685000 0.094193 0
13.690000 0.070026 0
13.695000 0.047921 0
13.700000 0.027751 0
13.705000 0.008582 0
13.710000 -0.011613 0
13.715000 -0.035913 0
13.720000 -0.067560 0
13.725000 -0.107864 0
13.730000 -0.153459 0
13.735000 -0.194426 0
13.740000 -0.214823 2
13.745000 -0.195663 0
13.750000 -0.118834 0
13.755000 0.028861 0
13.760000 0.250007 0
13.765000 0.527945 0
13.770000 0.819392 0
13.775000 1.058215 0
13.780000 1.176546 3
13.785000 1.137012 0
13.790000 0.949150 0
13.795000 0.663562 0
13.800000 0.348402 0
13.805000 0.062985 0
13.810000 -0.156008 0
13.815000 -0.294365 0
13.820000 -0.354393 4
13.825000 -0.349841 0
13.830000 -0.302004 0
13.835000 -0.234626 0
13.840000 -0.167716 0
13.845000 -0.113119 0
13.850000 -0.074040 0
13.855000 -0.047864 0
13.860000 -0.029861 0
13.865000 -0.015768 0
13.870000 -0.002738 0
13.875000 0.010774 0
13.880000 0.025483 0
13.885000 0.041678 0
13.890000 0.059451 0
13.895000 0.078804 0
13.900000 0.099678 0
13.905000 0.121961 0
13.910000 0.145495 0
13.915000 0.170068 0
13.920000 0.195415 0
13.925000 0.221226 0
13.930000 0.247145 0
13.935000 0.272779 0
13.940000 0.297706 0
13.945000 0.321486 0
13.950000 0.343675 0
13.955000 0.363834 0
13.960000 0.381548 0
13.965000 0.396436 0
13.970000 0.408168 0
13.975000 0.416473 0
13.980000 0.421149 0
13.985000 0.422077 5
13.990000 0.419217 0
13.995000 0.412615 0
14.000000 0.402400 0
14.005000 0.388781 0
14.010000 0.372037 0
14.015000 0.352509 0
14.020000 0.330589 0
14.025000 0.306703 0
14.030000 0.281302 0
14.035000 0.254843 0
14.040000 0.227780 0
14.045000 0.200548 0
14.050000 0.173550 0
14.055000 0.147156 0
14.060000 0.121686 0
14.065000 0.097412 0
14.070000 0.074553 0
14.075000 0.053273 0
14.080000 0.033686 0
14.085000 0.015856 0
14.090000 -0.000196 0
14.095000 -0.014491 0
14.100000 -0.027081 0
14.105000 -0.038044 0
14.110000 -0.047482 0
14.115000 -0.055508 0
14.120000 -0.062246 0
14.125000 -0.067824 0
14.130000 -0.072371 0
14.135000 -0.076011 0
14.140000 -0.078863 0
14.145000 -0.081038 0
14.150000 -0.082637 0
14.155000 -0.083752 0
14.160000 -0.084464 0
14.165000 -0.084844 0
14.170000 -0.084953 0
14.175000 -0.084844 0
14.180000 -0.084560 0
14.185000 -0.084139 0
14.190000 -0.083611 0
14.195000 -0.082786 0
14.200000 -0.081915 0
14.205000 -0.081048 0
14.210000 -0.080185 0
14.215000 -0.079327 0
14.220000 -0.078473 0
14.225000 -0.077623 0
14.230000 -0.076778 0
14.235000 -0.075937 0
14.240000 -0.075100 0
14.245000 -0.074267 0
14.250000 -0.073438 0
14.255000 -0.072614 0
14.260000 -0.071793 0
14.265000 -0.070976 0
14.270000 -0.070164 0
14.275000 -0.069355 0
14.280000 -0.068550 0
14.285000 -0.067747 0
14.290000 -0.066947 0
14.295000 -0.066147 0
14.300000 -0.065345 0
14.305000 -0.064537 0
14.310000 -0.063715 0
14.315000 -0.062869 0
14.320000 -0.061982 0
14.325000 -0.061028 0
14.330000 -0.059969 0
14.335000 -0.058752 0
14.340000 -0.057303 0
14.345000 -0.055518 0
14.350000 -0.053266 0
14.355000 -0.050377 0
14.360000 -0.046642 0
14.365000 -0.041816 0
14.370000 -0.035619 0
14.375000 -0.027751 0
14.380000 -0.017911 0
14.385000 -0.005819 0
14.390000 0.008745 0
14.395000 0.025908 0
14.400000 0.045665 0
14.405000 0.067837 0
14.410000 0.092053 0
14.415000 0.117729 0
14.420000 0.144079 0
14.425000 0.170141 0
14.430000 0.194830 0
14.435000 0.217007 0
14.440000 0.235563 0
14.445000 0.249514 0
14.450000 0.258082 0
14.455000 0.260771 1
14.460000 0.257410 0
14.465000 0.248172 0
14.470000 0.233560 0
14.475000 0.214358 0
14.480000 0.191566 0
14.485000 0.166307 0
14.490000 0.139741 0
14.495000 0.112974 0
14.500000 0.086978 0
14.505000 0.062516 0
14.510000 0.040043 0
14.515000 0.019559 0
14.520000 0.000359 0
14.525000 -0.019253 0
14.530000 -0.042044 0
14.535000 -0.071264 0
14.540000 -0.108988 0
14.545000 -0.153592 0
14.550000 -0.197557 0
14.555000 -0.227159 2
14.560000 -0.224619 0
14.565000 -0.171648 0
14.570000 -0.053135 0
14.575000 0.138384 0
14.580000 0.395640 0
14.585000 0.688254 0
14.590000 0.960518 0
14.595000 1.143921 0
14.600000 1.183648 3
14.605000 1.063205 0
14.610000 0.815287 0
14.615000 0.505167 0
14.620000 0.200665 0
14.625000 -0.049569 0
14.630000 -0.221684 0
14.635000 -0.311806 0
14.640000 -0.329887 4
14.645000 -0.295366 0
14.650000 -0.232448 0
14.655000 -0.163739 0
14.660000 -0.104542 0
14.665000 -0.060852 0
14.670000 -0.031431 0
14.675000 -0.011719 0
14.680000 0.002970 0
14.685000 0.015971 0
14.690000 0.029172 0
14.695000 0.043471 0
14.700000 0.059236 0
14.705000 0.076595 0
14.710000 0.095563 0
14.715000 0.116090 0
14.720000 0.138070 0
14.725000 0.161346 0
14.730000 0.185710 0
14.735000 0.210895 0
14.740000 0.236587 0
14.745000 0.262424 0
14.750000 0.288004 0
14.755000 0.312895 0
14.760000 0.336645 0
14.765000 0.358797 0
14.770000 0.378898 0
14.775000 0.396521 0
14.780000 0.411276 0
14.785000 0.422821 0
14.790000 0.430881 0
14.795000 0.435253 0
14.800000 0.435818 5
14.805000 0.432541 0
14.810000 0.425478 0
14.815000 0.414770 0
14.820000 0.400642 0
14.825000 0.383388 0
14.830000 0.363369 0
14.835000 0.340995 0
14.840000 0.316708 0
14.845000 0.290976 0
14.850000 0.264268 0
14.855000 0.237049 0
14.860000 0.209758 0
14.865000 0.182805 0
14.870000 0.156555 0
14.875000 0.131326 0
14.880000 0.107380 0
14.885000 0.084927 0
14.890000 0.064118 0
14.895000 0.045053 0
14.900000 0.027781 0
14.905000 0.012308 0
14.910000 -0.001399 0
14.915000 -0.013406 0
14.920000 -0.023804 0
14.925000 -0.032703 0
14.930000 -0.040225 0
14.935000 -0.046500 0
14.940000 -0.051661 0
14.945000 -0.055837 0
14.950000 -0.059154 0
14.955000 -0.061731 0
14.960000 -0.063676 0
14.965000 -0.065089 0
14.970000 -0.066058 0
14.975000 -0.066659 0
14.980000 -0.066962 0
14.985000 -0.067022 0
14.990000 -0.066889 0
14.995000 -0.066602 0
15.000000 -0.066197 0
15.005000 -0.065464 0
15.010000 -0.064679 0
15.015000 -0.063898 0
15.020000 -0.063121 0
15.025000 -0.062348 0
15.030000 -0.061578 0
15.035000 -0.060813 0
15.040000 -0.060051 0
15.045000 -0.059294 0
15.050000 -0.058540 0
15.055000 -0.057789 0
15.060000 -0.057043 0
15.065000 -0.056300 0
15.070000 -0.055561 0
15.075000 -0.054825 0
15.080000 -0.054093 0
15.085000 -0.053365 0
15.090000 -0.052639 0
15.095000 -0.051916 0
15.100000 -0.051195 0
15.105000 -0.050474 0
15.110000 -0.049750 0
15.115000 -0.049020 0
15.120000 -0.048276 0
15.125000 -0.047506 0
15.130000 -0.046694 0
15.135000 -0.045813 0
15.140000 -0.044823 0
15.145000 -0.043668 0
15.150000 -0.042269 0
15.155000 -0.040519 0
15.160000 -0.038279 0
15.165000 -0.035368 0
15.170000 -0.031568 0
15.175000 -0.026620 0
15.180000 -0.020232 0
15.185000 -0.012095 0
15.190000 -0.001899 0
15.195000 0.010634 0
15.200000 0.025713 0
15.205000 0.043443 0
15.210000 0.063777 0
15.215000 0.086483 0
15.220000 0.111122 0
15.225000 0.137032 0
15.230000 0.163346 0
15.235000 0.189028 0
15.240000 0.212935 0
15.245000 0.233895 0
15.250000 0.250803 0
15.255000 0.262715 0
15.260000 0.268934 0
15.265000 0.269078 1
15.270000 0.263118 0
15.275000 0.251380 0
15.280000 0.234516 0
15.285000 0.213444 0
15.290000 0.189263 0
15.295000 0.163159 0
15.300000 0.136307 0
15.305000 0.109786 0
15.310000 0.084490 0
15.315000 0.061047 0
15.320000 0.039691 0
15.325000 0.020041 0
15.330000 0.000806 0
15.335000 -0.020440 0
15.340000 -0.046986 0
15.345000 -0.081677 0
15.350000 -0.124504 0
15.355000 -0.169965 0
15.360000 -0.205915 0
15.365000 -0.215020 2
15.370000 -0.178227 0
15.375000 -0.078673 0
15.380000 0.094021 0
15.385000 0.337087 0
15.390000 0.625629 0
15.395000 0.907797 0
15.400000 1.114058 0
15.405000 1.182867 3
15.410000 1.090749 0
15.415000 0.862808 0
15.420000 0.559401 0
15.425000 0.248887 0
15.430000 -0.015999 0
15.435000 -0.206724 0
15.440000 -0.315629 0
15.445000 -0.349735 4
15.450000 -0.326237 0
15.455000 -0.268288 0
15.460000 -0.199157 0
15.465000 -0.136214 0
15.470000 -0.087844 0
15.475000 -0.054505 0
15.480000 -0.032283 0
15.485000 -0.016373 0
15.490000 -0.003023 0
15.495000 0.010047 0
15.500000 0.023982 0
15.505000 0.039282 0
15.510000 0.056134 0
15.515000 0.074582 0
15.520000 0.094599 0
15.525000 0.116101 0
15.530000 0.138954 0
15.535000 0.162973 0
15.540000 0.187918 0
15.545000 0.213500 0
15.550000 0.239382 0
15.555000 0.265185 0
15.560000 0.290497 0
15.565000 0.314880 0
15.570000 0.337885 0
15.575000 0.359066 0
15.580000 0.377988 0
15.585000 0.394248 0
15.590000 0.407487 0
15.595000 0.417400 0
15.600000 0.423749 0
15.605000 0.426376 5
15.610000 0.425201 0
15.615000 0.420233 0
15.620000 0.411565 0
15.625000 0.399373 0
15.630000 0.383910 0
15.635000 0.365494 0
15.640000 0.344502 0
15.645000 0.321351 0
15.650000 0.296488 0
15.655000 0.270376 0
15.660000 0.243475 0
15.665000 0.216233 0
15.670000 0.189073 0
15.675000 0.162383 0
15.680000 0.136505 0
15.685000 0.111734 0
15.690000 0.088310 0
15.695000 0.066420 0
15.700000 0.046197 0
15.705000 0.027723 0
15.710000 0.011033 0
15.715000 -0.003879 0
15.720000 -0.017056 0
15.725000 -0.028570 0
15.730000 -0.038515 0
15.735000 -0.047003 0
15.740000 -0.054157 0
15.745000 -0.060105 0
15.750000 -0.064977 0
15.755000 -0.068901 0
15.760000 -0.071999 0
15.765000 -0.074385 0
15.770000 -0.076164 0
15.775000 -0.077432 0
15.780000 -0.078274 0
15.785000 -0.078764 0
15.790000 -0.078967 0
15.795000 -0.078938 0
15.800000 -0.078723 0
15.805000 -0.078362 0
15.810000 -0.077885 0
15.815000 -0.077092 0
15.820000 -0.076249 0
15.825000 -0.075411 0
15.830000 -0.074576 0
15.835000 -0.073746 0
15.840000 -0.072920 0
15.845000 -0.072098 0
15.850000 -0.071280 0
15.855000 -0.070466 0
15.860000 -0.069657 0
15.865000 -0.068851 0
15.870000 -0.068049 0
15.875000 -0.067251 0
15.880000 -0.066458 0
15.885000 -0.065668 0
15.890000 -0.064882 0
15.895000 -0.064099 0
15.900000 -0.063320 0
15.905000 -0.062544 0
15.910000 -0.061770 0
15.915000 -0.060996 0
15.920000 -0.060221 0
15.925000 -0.059439 0
15.930000 -0.058645 0
15.935000 -0.057828 0
15.940000 -0.056971 0
15.945000 -0.056050 0
15.950000 -0.055026 0
15.955000 -0.053849 0
15.960000 -0.052443 0
15.965000 -0.050709 0
15.970000 -0.048513 0
15.975000 -0.045688 0
15.980000 -0.042023 0
15.985000 -0.037273 0
15.990000 -0.031157 0
15.995000 -0.023371 0
16.000000 -0.013610 0
16.005000 -0.001591 0
16.010000 0.012910 0
16.015000 0.030025 0
16.020000 0.049747 0
16.025000 0.071901 0
16.030000 0.096107 0
16.035000 0.121776 0
16.040000 0.148111 0
16.045000 0.174138 0
16.050000 0.198756 0
16.055000 0.220813 0
16.060000 0.239194 0
16.065000 0.252908 0
16.070000 0.261180 0
16.075000 0.263525 1
16.080000 0.259787 0
16.085000 0.250164 0
16.090000 0.235182 0
16.095000 0.215654 0
16.100000 0.192601 0
16.105000 0.167166 0
16.110000 0.140521 0
16.115000 0.113773 0
16.120000 0.087888 0
16.125000 0.063609 0
16.130000 0.041356 0
16.135000 0.021061 0
16.140000 0.001904 0
16.145000 -0.017967 0
16.150000 -0.041469 0
16.155000 -0.071848 0
16.160000 -0.110831 0
16.165000 -0.156006 0
16.170000 -0.198772 0
16.175000 -0.224410 2
16.180000 -0.214607 0
16.185000 -0.151161 0
16.190000 -0.019771 0
16.195000 0.185042 0
16.200000 0.452176 0
16.205000 0.745848 0
16.210000 1.005682 0
16.215000 1.162825 0
16.220000 1.168434 3
16.225000 1.017529 0
16.230000 0.751560 0
16.235000 0.437655 0
16.240000 0.140204 0
16.245000 -0.097374 0
16.250000 -0.255533 0
16.255000 -0.333122 0
16.260000 -0.341699 4
16.265000 -0.301471 0
16.270000 -0.236466 0
16.275000 -0.168245 0
16.280000 -0.110715 0
16.285000 -0.068739 0
16.290000 -0.040524 0
16.295000 -0.021438 0
16.300000 -0.006960 0
16.305000 0.006058 0
16.310000 0.019372 0
16.315000 0.033813 0
16.320000 0.049723 0
16.325000 0.067217 0
16.330000 0.086304 0
16.335000 0.106934 0
16.340000 0.129001 0
16.345000 0.152350 0
16.350000 0.176771 0
16.355000 0.202005 0
16.360000 0.227740 0
16.365000 0.253620 0
16.370000 0.279251 0
16.375000 0.304207 0
16.380000 0.328043 0
16.385000 0.350309 0
16.390000 0.370560 0
16.395000 0.388373 0
16.400000 0.403361 0
16.405000 0.415186 0
16.410000 0.423570 0
16.415000 0.428308 0
16.420000 0.429275 5
16.425000 0.426430 0
16.430000 0.419818 0
16.435000 0.409569 0
16.440000 0.395894 0
16.445000 0.379076 0
16.450000 0.359463 0
16.455000 0.337450 0
16.460000 0.313471 0
16.465000 0.287982 0
16.470000 0.261448 0
16.475000 0.234326 0
16.480000 0.207056 0
16.485000 0.180046 0
16.490000 0.153665 0
16.495000 0.128237 0
16.500000 0.104031 0
16.505000 0.081265 0
16.510000 0.060101 0
16.515000 0.040650 0
16.520000 0.022970 0
16.525000 0.007079 0
16.530000 -0.007048 0
16.535000 -0.019468 0
16.540000 -0.030264 0
16.545000 -0.039539 0
16.550000 -0.047411 0
16.555000 -0.054006 0
16.560000 -0.059455 0
16.565000 -0.063886 0
16.570000 -0.067426 0
16.575000 -0.070193 0
16.580000 -0.072298 0
16.585000 -0.073841 0
16.590000 -0.074914 0
16.595000 -0.075596 0
16.600000 -0.075958 0
16.605000 -0.076060 0
16.610000 -0.075952 0
16.615000 -0.075677 0
16.620000 -0.075272 0
16.625000 -0.074717 0
16.630000 -0.073886 0
16.635000 -0.073060 0
16.640000 -0.072237 0
16.645000 -0.071418 0
16.650000 -0.070604 0
16.655000 -0.069793 0
16.660000 -0.068987 0
16.665000 -0.068185 0
16.670000 -0.067386 0
16.675000 -0.066592 0
16.680000 -0.065801 0
16.685000 -0.065015 0
16.690000 -0.064232 0
16.695000 -0.063453 0
16.700000 -0.062678 0
16.705000 -0.061907 0
16.710000 -0.061139 0
16.715000 -0.060375 0
16.720000 -0.059612 0
16.725000 -0.058851 0
16.730000 -0.058090 0
16.735000 -0.057325 0
16.740000 -0.056551 0
16.745000 -0.055759 0
16.750000 -0.054937 0
16.755000 -0.054063 0
16.760000 -0.053108 0
16.765000 -0.052027 0
16.770000 -0.050756 0
16.775000 -0.049210 0
16.780000 -0.047271 0
16.785000 -0.044789 0
16.790000 -0.041574 0
16.795000 -0.037397 0
16.800000 -0.031993 0
16.805000 -0.025066 0
16.810000 -0.016310 0
16.815000 -0.005425 0
16.820000 0.007847 0
16.825000 0.023686 0
16.830000 0.042158 0
16.835000 0.063172 0
16.840000 0.086448 0
16.845000 0.111497 0
16.850000 0.137617 0
16.855000 0.163910 0
16.860000 0.189327 0
16.865000 0.212727 0
16.870000 0.232963 0
16.875000 0.248972 0
16.880000 0.259867 0
16.885000 0.265016 1
16.890000 0.264105 0
16.895000 0.257168 0
16.900000 0.244582 0
16.905000 0.227036 0
16.910000 0.205468 0
16.915000 0.180977 0
16.920000 0.154736 0
16.925000 0.127896 0
16.930000 0.101498 0
16.935000 0.076401 0
16.940000 0.053188 0
16.945000 0.032041 0
16.950000 0.012519 0
16.955000 -0.006735 0
16.960000 -0.028195 0
16.965000 -0.055122 0
16.970000 -0.090232 0
16.975000 -0.133304 0
16.980000 -0.178646 0
16.985000 -0.214074 0
16.990000 -0.222418 2
16.995000 -0.184920 0
17.000000 -0.085021 0
17.005000 0.087466 0
17.010000 0.329886 0
17.015000 0.618016 0
17.020000 0.901259 0
17.025000 1.111297 0
17.030000 1.186699 3
17.035000 1.100685 0
17.040000 0.876096 0
17.045000 0.573579 0
17.050000 0.262769 0
17.055000 -0.002393 0
17.060000 -0.192766 0
17.065000 -0.300629 0
17.070000 -0.333289 4
17.075000 -0.308424 0
17.080000 -0.249688 0
17.085000 -0.180612 0
17.090000 -0.118455 0
17.095000 -0.071220 0
17.100000 -0.038956 0
17.105000 -0.017512 0
17.110000 -0.002040 0
17.115000 0.011137 0
17.120000 0.024200 0
17.125000 0.038219 0
17.130000 0.053651 0
17.135000 0.070662 0
17.140000 0.089284 0
17.145000 0.109480 0
17.150000 0.131157 0
17.155000 0.154171 0
17.160000 0.178323 0
17.165000 0.203360 0
17.170000 0.228978 0
17.175000 0.254826 0
17.180000 0.280509 0
17.185000 0.305602 0
17.190000 0.329655 0
17.195000 0.352211 0
17.200000 0.372816 0
17.205000 0.391037 0
17.210000 0.406471 0
17.215000 0.418768 0
17.220000 0.427634 0
17.225000 0.432851 0
17.230000 0.434280 5
17.235000 0.431868 0
17.240000 0.425649 0
17.245000 0.415747 0
17.250000 0.402368 0
17.255000 0.385791 0
17.260000 0.366365 0
17.265000 0.344487 0
17.270000 0.320596 0
17.275000 0.295154 0
17.280000 0.268633 0
17.285000 0.241497 0
17.290000 0.214194 0
17.295000 0.187140 0
17.300000 0.160712 0
17.305000 0.135237 0
17.310000 0.110993 0
17.315000 0.088198 0
17.320000 0.067019 0
17.325000 0.047566 0
17.330000 0.029899 0
17.335000 0.014033 0
17.340000 -0.000057 0
17.345000 -0.012430 0
17.350000 -0.023172 0
17.355000 -0.032389 0
17.360000 -0.040200 0
17.365000 -0.046736 0
17.370000 -0.052127 0
17.375000 -0.056505 0
17.380000 -0.059996 0
17.385000 -0.062722 0
17.390000 -0.064792 0
17.395000 -0.066309 0
17.400000 -0.067362 0
17.405000 -0.068033 0
17.410000 -0.068390 0
17.415000 -0.068492 0
17.420000 -0.068391 0
17.425000 -0.068129 0
17.430000 -0.067740 0
17.435000 -0.067209 0
17.440000 -0.066415 0
17.445000 -0.065626 0
17.450000 -0.064840 0
17.455000 -0.064058 0
17.460000 -0.063281 0
17.465000 -0.062507 0
17.470000 -0.061737 0
17.475000 -0.060970 0
17.480000 -0.060208 0
17.485000 -0.059449 0
17.490000 -0.058695 0
17.495000 -0.057944 0
17.500000 -0.057196 0
17.505000 -0.056453 0
17.510000 -0.055712 0
17.515000 -0.054976 0
17.520000 -0.054242 0
17.525000 -0.053512 0
17.530000 -0.052783 0
17.535000 -0.052055 0
17.540000 -0.051325 0
17.545000 -0.050590 0
17.550000 -0.049843 0
17.555000 -0.049073 0
17.560000 -0.048266 0
17.565000 -0.047396 0
17.570000 -0.046428 0
17.575000 -0.045309 0
17.580000 -0.043967 0
17.585000 -0.042300 0
17.590000 -0.040178 0
17.595000 -0.037430 0
17.600000 -0.033845 0
17.605000 -0.029174 0
17.610000 -0.023131 0
17.615000 -0.015410 0
17.620000 -0.005698 0
17.625000 0.006292 0
17.630000 0.020789 0
17.635000 0.037924 0
17.640000 0.057689 0
17.645000 0.079897 0
17.650000 0.104155 0
17.655000 0.129852 0
17.660000 0.156167 0
17.665000 0.182095 0
17.670000 0.206513 0
17.675000 0.228246 0
17.680000 0.246167 0
17.685000 0.259286 0
17.690000 0.266845 0
17.695000 0.268386 1
17.700000 0.263798 0
17.705000 0.253328 0
17.710000 0.237559 0
17.715000 0.217354 0
17.720000 0.193781 0
17.725000 0.168013 0
17.730000 0.141238 0
17.735000 0.114561 0
17.740000 0.088927 0
17.745000 0.065032 0
17.750000 0.043216 0
17.755000 0.023260 0
17.760000 0.004108 0
17.765000 -0.016407 0
17.770000 -0.041448 0
17.775000 -0.074138 0
17.780000 -0.115364 0
17.785000 -0.161053 0
17.790000 -0.200537 0
17.795000 -0.217404 2
17.800000 -0.192648 0
17.805000 -0.108567 0
17.810000 0.047154 0
17.815000 0.275490 0
17.820000 0.557308 0
17.825000 0.846711 0
17.830000 1.076428 0
17.835000 1.180340 3
17.840000 1.125292 0
17.845000 0.925430 0
17.850000 0.634122 0
17.855000 0.319516 0
17.860000 0.039009 0
17.865000 -0.173023 0
17.870000 -0.304152 0
17.875000 -0.357860 4
17.880000 -0.348675 0
17.885000 -0.298273 0
17.890000 -0.230255 0
17.895000 -0.164023 0
17.900000 -0.110649 0
17.905000 -0.072728 0
17.910000 -0.047356 0
17.915000 -0.029781 0
17.920000 -0.015842 0
17.925000 -0.002811 0
17.930000 0.010775 0
17.935000 0.025588 0
17.940000 0.041895 0
17.945000 0.059782 0
17.950000 0.079243 0
17.955000 0.100217 0
17.960000 0.122590 0
17.965000 0.146200 0
17.970000 0.170832 0
17.975000 0.196220 0
17.980000 0.222051 0
17.985000 0.247968 0
17.990000 0.273577 0
17.995000 0.298456 0
18.000000 0.322166 0
18.005000 0.344263 0
18.010000 0.364311 0
18.015000 0.381897 0
18.020000 0.396645 0
18.025000 0.408226 0
18.030000 0.416373 0
18.035000 0.420891 0
18.040000 0.421661 5
18.045000 0.418649 0
18.050000 0.411903 0
18.055000 0.401557 0
18.060000 0.387820 0
18.065000 0.370973 0
18.070000 0.351360 0
18.075000 0.329371 0
18.080000 0.305434 0
18.085000 0.279997 0
18.090000 0.253518 0
18.095000 0.226448 0
18.100000 0.199219 0
18.105000 0.172235 0
18.110000 0.145862 0
18.115000 0.120419 0
18.120000 0.096176 0
18.125000 0.073349 0
18.130000 0.052102 0
18.135000 0.032547 0
18.140000 0.014748 0
18.145000 -0.001276 0
18.150000 -0.015546 0
18.155000 -0.028113 0
18.160000 -0.039057 0
18.165000 -0.048478 0
18.170000 -0.056490 0
18.175000 -0.063217 0
18.180000 -0.068786 0
18.185000 -0.073326 0
18.190000 -0.076960 0
18.195000 -0.079808 0
18.200000 -0.081979 0
18.205000 -0.083575 0
18.210000 -0.084687 0
18.215000 -0.085396 0
18.220000 -0.085773 0
18.225000 -0.085880 0
18.230000 -0.085768 0
18.235000 -0.085482 0
18.240000 -0.085058 0
18.245000 -0.084526 0
18.250000 -0.083697 0
18.255000 -0.082821 0
18.260000 -0.081949 0
18.265000 -0.081082 0
18.270000 -0.080220 0
18.275000 -0.079361 0
18.280000 -0.078507 0
18.285000 -0.077657 0
18.290000 -0.076812 0
18.295000 -0.075970 0
18.300000 -0.075133 0
18.305000 -0.074300 0
18.310000 -0.073471 0
18.315000 -0.072646 0
18.320000 -0.071826 0
18.325000 -0.071009 0
18.330000 -0.070196 0
18.335000 -0.069386 0
18.340000 -0.068580 0
18.345000 -0.067775 0
18.350000 -0.066971 0
18.355000 -0.066166 0
18.360000 -0.065354 0
18.365000 -0.064529 0
18.370000 -0.063681 0
18.375000 -0.062792 0
18.380000 -0.061839 0
18.385000 -0.060783 0
18.390000 -0.059572 0
18.395000 -0.058134 0
18.400000 -0.056368 0
18.405000 -0.054143 0
18.410000 -0.051293 0
18.415000 -0.047612 0
18.420000 -0.042857 0
18.425000 -0.036752 0
18.430000 -0.028998 0
18.435000 -0.019292 0
18.440000 -0.007356 0
18.445000 0.007036 0
18.450000 0.024020 0
18.455000 0.043599 0
18.460000 0.065609 0
18.465000 0.089694 0
18.470000 0.115287 0
18.475000 0.141620 0
18.480000 0.167745 0
18.485000 0.192586 0
18.490000 0.215009 0
18.495000 0.233903 0
18.500000 0.248272 0
18.505000 0.257322 0
18.510000 0.260530 1
18.515000 0.257698 0
18.520000 0.248968 0
18.525000 0.234813 0
18.530000 0.215994 0
18.535000 0.193491 0
18.540000 0.168416 0
18.545000 0.141928 0
18.550000 0.115137 0
18.555000 0.089030 0
18.560000 0.064390 0
18.565000 0.041710 0
18.570000 0.021043 0
18.575000 0.001772 0
18.580000 -0.017680 0
18.585000 -0.039972 0
18.590000 -0.068355 0
18.595000 -0.105136 0
18.600000 -0.149226 0
18.605000 -0.193838 0
18.610000 -0.225915 0
18.615000 -0.228015 2
18.620000 -0.181768 0
18.625000 -0.071541 0
18.630000 0.111315 0
18.635000 0.361758 0
18.640000 0.652595 0
18.645000 0.931014 0
18.650000 1.129021 0
18.655000 1.188629 3
18.660000 1.086774 0
18.665000 0.850636 0
18.670000 0.543876 0
18.675000 0.236051 0
18.680000 -0.021107 0
18.685000 -0.201109 0
18.690000 -0.298408 0
18.695000 -0.321993 4
18.700000 -0.290846 0
18.705000 -0.229253 0
18.710000 -0.160393 0
18.715000 -0.100354 0
18.720000 -0.055769 0
18.725000 -0.025720 0
18.730000 -0.005685 0
18.735000 0.009108 0
18.740000 0.022098 0
18.745000 0.035242 0
18.750000 0.049472 0
18.755000 0.065171 0
18.760000 0.082471 0
18.765000 0.101389 0
18.770000 0.121875 0
18.775000 0.143824 0
18.780000 0.167076 0
18.785000 0.191420 0
18.790000 0.216587 0
18.795000 0.242259 0
18.800000 0.268070 0
18.805000 0.293612 0
18.810000 0.318447 0
18.815000 0.342120 0
18.820000 0.364166 0
18.825000 0.384132 0
18.830000 0.401585 0
18.835000 0.416135 0
18.840000 0.427439 0
18.845000 0.435225 0
18.850000 0.439292 0
18.855000 0.439526 5
18.860000 0.435900 0
18.865000 0.428478 0
18.870000 0.417409 0
18.875000 0.402929 0
18.880000 0.385342 0
18.885000 0.365017 0
18.890000 0.342374 0
18.895000 0.317864 0
18.900000 0.291959 0
18.905000 0.265136 0
18.910000 0.237858 0
18.915000 0.210568 0
18.920000 0.183674 0
18.925000 0.157537 0
18.930000 0.132470 0
18.935000 0.108730 0
18.940000 0.086519 0
18.945000 0.065982 0
18.950000 0.047209 0
18.955000 0.030243 0
18.960000 0.015082 0
18.965000 0.001684 0
18.970000 -0.010021 0
18.975000 -0.020130 0
18.980000 -0.028757 0
18.985000 -0.036028 0
18.990000 -0.042074 0
18.995000 -0.047029 0
19.000000 -0.051024 0
19.005000 -0.054184 0
19.010000 -0.056627 0
19.015000 -0.058460 0
19.020000 -0.059781 0
19.025000 -0.060676 0
19.030000 -0.061221 0
19.035000 -0.061481 0
19.040000 -0.061512 0
19.045000 -0.061360 0
19.050000 -0.061064 0
19.055000 -0.060656 0
19.060000 -0.059946 0
19.065000 -0.059189 0
19.070000 -0.058435 0
19.075000 -0.057686 0
19.080000 -0.056940 0
19.085000 -0.056197 0
19.090000 -0.055459 0
19.095000 -0.054724 0
19.100000 -0.053992 0
19.105000 -0.053265 0
19.110000 -0.052541 0
19.115000 -0.051821 0
19.120000 -0.051104 0
19.125000 -0.050390 0
19.130000 -0.049681 0
19.135000 -0.048974 0
19.140000 -0.048271 0
19.145000 -0.047570 0
19.150000 -0.046872 0
19.155000 -0.046175 0
19.160000 -0.045477 0
19.165000 -0.044775 0
19.170000 -0.044063 0
19.175000 -0.043333 0
19.180000 -0.042572 0
19.185000 -0.041757 0
19.190000 -0.040858 0
19.195000 -0.039827 0
19.200000 -0.038599 0
19.205000 -0.037082 0
19.210000 -0.035154 0
19.215000 -0.032655 0
19.220000 -0.029388 0
19.225000 -0.025111 0
19.230000 -0.019546 0
19.235000 -0.012388 0
19.240000 -0.003321 0
19.245000 0.007956 0
19.250000 0.021696 0
19.255000 0.038064 0
19.260000 0.057095 0
19.265000 0.078652 0
19.270000 0.102396 0
19.275000 0.127770 0
19.280000 0.153993 0
19.285000 0.180096 0
19.290000 0.204966 0
19.295000 0.227420 0
19.300000 0.246300 0
19.305000 0.260564 0
19.310000 0.269387 0
19.315000 0.272232 1
19.320000 0.268910 0
19.325000 0.259595 0
19.330000 0.244809 0
19.335000 0.225374 0
19.340000 0.202334 0
19.345000 0.176863 0
19.350000 0.150163 0
19.355000 0.123375 0
19.360000 0.097486 0
19.365000 0.073249 0
19.370000 0.051077 0
19.375000 0.030856 0
19.380000 0.011669 0
19.385000 -0.008500 0
19.390000 -0.032737 0
19.395000 -0.064310 0
19.400000 -0.104569 0
19.405000 -0.150171 0
19.410000 -0.191164 0
19.415000 -0.211515 2
19.420000 -0.192120 0
19.425000 -0.114773 0
19.430000 0.033742 0
19.435000 0.255857 0
19.440000 0.534460 0
19.445000 0.825528 0
19.450000 1.062227 0
19.455000 1.176621 3
19.460000 1.132730 0
19.465000 0.941591 0
19.470000 0.654471 0
19.475000 0.339404 0
19.480000 0.055113 0
19.485000 -0.162341 0
19.490000 -0.299181 0
19.495000 -0.357957 4
19.500000 -0.352541 0
19.505000 -0.304250 0
19.510000 -0.236751 0
19.515000 -0.169913 0
19.520000 -0.115448 0
19.525000 -0.076478 0
19.530000 -0.050360 0
19.535000 -0.032376 0
19.540000 -0.018278 0
19.545000 -0.005236 0
19.550000 0.008289 0
19.555000 0.023009 0
19.560000 0.039213 0
19.565000 0.056993 0
19.570000 0.076350 0
19.575000 0.097226 0
19.580000 0.119511 0
19.585000 0.143045 0
19.590000 0.167618 0
19.595000 0.192969 0
19.600000 0.218786 0
19.605000 0.244717 0
19.610000 0.270369 0
19.615000 0.295322 0
19.620000 0.319139 0
19.625000 0.341375 0
19.630000 0.361593 0
19.635000 0.379379 0
19.640000 0.394352 0
19.645000 0.406181 0
19.650000 0.414593 0
19.655000 0.419389 0
19.660000 0.420442 5
19.665000 0.417714 0
19.670000 0.411245 0
19.675000 0.401164 0
19.680000 0.387675 0
19.685000 0.371053 0
19.690000 0.351638 0
19.695000 0.329817 0
19.700000 0.306015 0
19.705000 0.280680 0
19.710000 0.254269 0
19.715000 0.227233 0
19.720000 0.200008 0
19.725000 0.173000 0
19.730000 0.146575 0
19.735000 0.121059 0
19.740000 0.096724 0
19.745000 0.073790 0
19.750000 0.052427 0
19.755000 0.032748 0
19.760000 0.014822 0
19.765000 -0.001330 0
19.770000 -0.015724 0
19.775000 -0.028411 0
19.780000 -0.039469 0
19.785000 -0.048995 0
19.790000 -0.057104 0
19.795000 -0.063918 0
19.800000 -0.069565 0
19.805000 -0.074173 0
19.810000 -0.077866 0
19.815000 -0.080764 0
19.820000 -0.082977 0
19.825000 -0.084608 0
19.830000 -0.085748 0
19.835000 -0.086480 0
19.840000 -0.086875 0
19.845000 -0.086995 0
19.850000 -0.086892 0
19.855000 -0.086613 0
19.860000 -0.086193 0
19.865000 -0.085663 0
19.870000 -0.084829 0
19.875000 -0.083947 0
19.880000 -0.083070 0
19.885000 -0.082198 0
19.890000 -0.081330 0
19.895000 -0.080466 0
19.900000 -0.079606 0
19.905000 -0.078751 0
19.910000 -0.077900 0
19.915000 -0.077053 0
19.920000 -0.076210 0
19.925000 -0.075372 0
19.930000 -0.074537 0
19.935000 -0.073707 0
19.940000 -0.072881 0
19.945000 -0.072059 0
19.950000 -0.071241 0
19.955000 -0.070426 0
19.960000 -0.069615 0
19.965000 -0.068805 0
19.970000 -0.067997 0
19.975000 -0.067186 0
19.980000 -0.066370 0
19.985000 -0.065542 0
19.990000 -0.064692 0
19.995000 -0.063803 0
20.000000 -0.062850 0
20.005000 -0.061800 0
20.010000 -0.060600 0
20.015000 -0.059178 0
20.020000 -0.057438 0
20.025000 -0.055251 0
20.030000 -0.052454 0
20.035000 -0.048844 0
20.040000 -0.044180 0
20.045000 -0.038190 0
20.050000 -0.030575 0
20.055000 -0.021034 0
20.060000 -0.009283 0
20.065000 0.004909 0
20.070000 0.021685 0
20.075000 0.041061 0
20.080000 0.062889 0
20.085000 0.086828 0
20.090000 0.112329 0
20.095000 0.138639 0
20.100000 0.164824 0
20.105000 0.189816 0
20.110000 0.212483 0
20.115000 0.231710 0
20.120000 0.246487 0
20.125000 0.256000 0
20.130000 0.259703 1
20.135000 0.257370 0
20.140000 0.249115 0
20.145000 0.235386 0
20.150000 0.216921 0
20.155000 0.194684 0
20.160000 0.169782 0
20.165000 0.143371 0
20.170000 0.116570 0
20.175000 0.090377 0
20.180000 0.065596 0
20.185000 0.042747 0
20.190000 0.021929 0
20.195000 0.002591 0
20.200000 -0.016754 0
20.205000 -0.038683 0
20.210000 -0.066437 0
20.215000 -0.102489 0
20.220000 -0.146135 0
20.225000 -0.191120 0
20.230000 -0.224875 0
20.235000 -0.230207 2
20.240000 -0.188685 0
20.245000 -0.084305 0
20.250000 0.092382 0
20.255000 0.337817 0
20.260000 0.626953 0
20.265000 0.908981 0
20.270000 1.116385 0
20.275000 1.189191 3
20.280000 1.101177 0
20.285000 0.875402 0
20.290000 0.572519 0
20.295000 0.261834 0
20.300000 -0.003080 0
20.305000 -0.193306 0
20.310000 -0.301194 0
20.315000 -0.334016 4
20.320000 -0.309359 0
20.325000 -0.250762 0
20.330000 -0.181684 0
20.335000 -0.119386 0
20.340000 -0.071938 0
20.345000 -0.039470 0
20.350000 -0.017880 0
20.355000 -0.002332 0
20.360000 0.010867 0
20.365000 0.023916 0
20.370000 0.037902 0
20.375000 0.053291 0
20.380000 0.070251 0
20.385000 0.088821 0
20.390000 0.108962 0
20.395000 0.130586 0
20.400000 0.153550 0
20.405000 0.177658 0
20.410000 0.202660 0
20.415000 0.228257 0
20.420000 0.254100 0
20.425000 0.279799 0
20.430000 0.304930 0
20.435000 0.329048 0
20.440000 0.351696 0
20.445000 0.372424 0
20.450000 0.390797 0
20.455000 0.406413 0
20.460000 0.418918 0
20.465000 0.428018 0
20.470000 0.433488 0
20.475000 0.435185 5
20.480000 0.433050 0
20.485000 0.427112 0
20.490000 0.417485 0
20.495000 0.404370 0
20.500000 0.388040 0
20.505000 0.368835 0
20.510000 0.347148 0
20.515000 0.323414 0
20.520000 0.298090 0
20.525000 0.271646 0
20.530000 0.244546 0
20.535000 0.217239 0
20.540000 0.190141 0
20.545000 0.163632 0
20.550000 0.138044 0
20.555000 0.113657 0
20.560000 0.090697 0
20.565000 0.069333 0
20.570000 0.049682 0
20.575000 0.031810 0
20.580000 0.015735 0
20.585000 0.001438 0
20.590000 -0.011138 0
20.595000 -0.022074 0
20.600000 -0.031474 0
20.605000 -0.039457 0
20.610000 -0.046149 0
20.615000 -0.051681 0
20.620000 -0.056186 0
20.625000 -0.059790 0
20.630000 -0.062613 0
20.635000 -0.064767 0
20.640000 -0.066356 0
20.645000 -0.067470 0
20.650000 -0.068191 0
20.655000 -0.068589 0
20.660000 -0.068725 0
20.665000 -0.068651 0
20.670000 -0.068410 0
20.675000 -0.068038 0
20.680000 -0.067517 0
20.685000 -0.066722 0
20.690000 -0.065931 0
20.695000 -0.065144 0
20.700000 -0.064361 0
20.705000 -0.063582 0
20.710000 -0.062806 0
20.715000 -0.062035 0
20.720000 -0.061267 0
20.725000 -0.060503 0
20.730000 -0.059743 0
20.735000 -0.058987 0
20.740000 -0.058234 0
20.745000 -0.057485 0
20.750000 -0.056740 0
20.755000 -0.055999 0
20.760000 -0.055261 0
20.765000 -0.054526 0
20.770000 -0.053794 0
20.775000 -0.053064 0
20.780000 -0.052336 0
20.785000 -0.051606 0
20.790000 -0.050872 0
20.795000 -0.050127 0
20.800000 -0.049363 0
20.805000 -0.048564 0
20.810000 -0.047710 0
20.815000 -0.046766 0
20.820000 -0.045686 0
20.825000 -0.044400 0
20.830000 -0.042816 0
20.835000 -0.040810 0
20.840000 -0.038220 0
20.845000 -0.034849 0
20.850000 -0.030454 0
20.855000 -0.024760 0
20.860000 -0.017464 0
20.865000 -0.008255 0
20.870000 0.003162 0
20.875000 0.017033 0
20.880000 0.033516 0
20.885000 0.052639 0
20.890000 0.074265 0
20.895000 0.098055 0
20.900000 0.123456 0
20.905000 0.149700 0
20.910000 0.175831 0
20.915000 0.200753 0
20.920000 0.223301 0
20.925000 0.242333 0
20.930000 0.256816 0
20.935000 0.265926 0
20.940000 0.269122 1
20.945000 0.266196 0
20.950000 0.257299 0
20.955000 0.242921 0
20.960000 0.223854 0
20.965000 0.201112 0
20.970000 0.175844 0
20.975000 0.149237 0
20.980000 0.122425 0
20.985000 0.096402 0
20.990000 0.071944 0
20.995000 0.049508 0
21.000000 0.029066 0
21.005000 0.009848 0
21.010000 -0.009959 0
21.015000 -0.033262 0
21.020000 -0.063364 0
21.025000 -0.102117 0
21.030000 -0.147246 0
21.035000 -0.190205 0
21.040000 -0.216179 2
21.045000 -0.206637 0
21.050000 -0.143128 0
21.055000 -0.011174 0
21.060000 0.194664 0
21.065000 0.462803 0
21.070000 0.756396 0
21.075000 1.013734 0
21.080000 1.165283 3
21.085000 1.163030 0
21.090000 1.004443 0
21.095000 0.733599 0
21.100000 0.418982 0
21.105000 0.124700 0
21.110000 -0.107122 0
21.115000 -0.258391 0
21.120000 -0.329199 0
21.125000 -0.332179 4
21.130000 -0.288378 0
21.135000 -0.222141 0
21.140000 -0.154644 0
21.145000 -0.098906 0
21.150000 -0.058869 0
21.155000 -0.032157 0
21.160000 -0.013967 0
21.165000 0.000122 0
21.170000 0.013075 0
21.175000 0.026501 0
21.180000 0.041139 0
21.185000 0.057283 0
21.190000 0.075029 0
21.195000 0.094373 0
21.200000 0.115254 0
21.205000 0.137556 0
21.210000 0.161112 0
21.215000 0.185700 0
21.220000 0.211045 0
21.225000 0.236825 0
21.230000 0.262668 0
21.235000 0.288169 0
21.240000 0.312891 0
21.245000 0.336382 0
21.250000 0.358185 0
21.255000 0.377856 0
21.260000 0.394974 0
21.265000 0.409158 0
21.270000 0.420081 0
21.275000 0.427481 0
21.280000 0.431171 5
21.285000 0.431047 0
21.290000 0.427093 0
21.295000 0.419379 0
21.300000 0.408063 0
21.305000 0.393379 0
21.310000 0.375636 0
21.315000 0.355200 0
21.320000 0.332488 0
21.325000 0.307946 0
21.330000 0.282040 0
21.335000 0.255239 0
21.340000 0.228001 0
21.345000 0.200762 0
21.350000 0.173921 0
21.355000 0.147835 0
21.360000 0.122813 0
21.365000 0.099109 0
21.370000 0.076921 0
21.375000 0.056392 0
21.380000 0.037615 0
21.385000 0.020631 0
21.390000 0.005440 0
21.395000 -0.007997 0
21.400000 -0.019748 0
21.405000 -0.029908 0
21.410000 -0.038587 0
21.415000 -0.045910 0
21.420000 -0.052005 0
21.425000 -0.057006 0
21.430000 -0.061041 0
21.435000 -0.064234 0
21.440000 -0.066702 0
21.445000 -0.068554 0
21.450000 -0.069885 0
21.455000 -0.070782 0
21.460000 -0.071323 0
21.465000 -0.071571 0
21.470000 -0.071584 0
21.475000 -0.071409 0
21.480000 -0.071086 0
21.485000 -0.070646 0
21.490000 -0.069889 0
21.495000 -0.069083 0
21.500000 -0.068280 0
21.505000 -0.067481 0
21.510000 -0.066686 0
21.515000 -0.065895 0
21.520000 -0.065108 0
21.525000 -0.064325 0
21.530000 -0.063546 0
21.535000 -0.062771 0
21.540000 -0.061999 0
21.545000 -0.061232 0
21.550000 -0.060468 0
21.555000 -0.059708 0
21.560000 -0.058952 0
21.565000 -0.058199 0
21.570000 -0.057450 0
21.575000 -0.056704 0
21.580000 -0.055961 0
21.585000 -0.055219 0
21.590000 -0.054478 0
21.595000 -0.053734 0
21.600000 -0.052983 0
21.605000 -0.052217 0
21.610000 -0.051426 0
21.615000 -0.050591 0
21.620000 -0.049685 0
21.625000 -0.048668 0
21.630000 -0.047483 0
21.635000 -0.046051 0
21.640000 -0.044262 0
21.645000 -0.041976 0
21.650000 -0.039012 0
21.655000 -0.035150 0
21.660000 -0.030132 0
21.665000 -0.023665 0
21.670000 -0.015440 0
21.675000 -0.005150 0
21.680000 0.007480 0
21.685000 0.022656 0
21.690000 0.040479 0
21.695000 0.060896 0
21.700000 0.083674 0
21.705000 0.108366 0
21.710000 0.134310 0
21.715000 0.160638 0
21.720000 0.186316 0
21.725000 0.210203 0
21.730000 0.231133 0
21.735000 0.248006 0
21.740000 0.259884 0
21.745000 0.266075 0
21.750000 0.266202 1
21.755000 0.260237 0
21.760000 0.248506 0
21.765000 0.231659 0
21.770000 0.210610 0
21.775000 0.186455 0
21.780000 0.160374 0
21.785000 0.133539 0
21.790000 0.107024 0
21.795000 0.081724 0
21.800000 0.058268 0
21.805000 0.036894 0
21.810000 0.017238 0
21.815000 -0.001968 0
21.820000 -0.023121 0
21.825000 -0.049485 0
21.830000 -0.083932 0
21.835000 -0.126562 0
21.840000 -0.172073 0
21.845000 -0.208553 0
21.850000 -0.218851 2
21.855000 -0.183981 0
21.860000 -0.086997 0
21.865000 0.082779 0
21.870000 0.323274 0
21.875000 0.610757 0
21.880000 0.894668 0
21.885000 1.106075 0
21.890000 1.182576 3
21.895000 1.098378 0
21.900000 0.877047 0
21.905000 0.576539 0
21.910000 0.264389 0
21.915000 -0.005896 0
21.920000 -0.204269 0
21.925000 -0.321543 0
21.930000 -0.363354 4
21.935000 -0.345655 0
21.940000 -0.290759 0
21.945000 -0.221883 0
21.950000 -0.157187 0
21.955000 -0.106248 0
21.960000 -0.070540 0
21.965000 -0.046663 0
21.970000 -0.029860 0
21.975000 -0.016182 0
21.980000 -0.003126 0
21.985000 0.010619 0
21.990000 0.025644 0
21.995000 0.042181 0
22.000000 0.060296 0
22.005000 0.079976 0
22.010000 0.101154 0
22.015000 0.123708 0
22.020000 0.147472 0
22.025000 0.172223 0
22.030000 0.197693 0
22.035000 0.223563 0
22.040000 0.249472 0
22.045000 0.275026 0
22.050000 0.299800 0
22.055000 0.323357 0
22.060000 0.345255 0
22.065000 0.365063 0
22.070000 0.382372 0
22.075000 0.396811 0
22.080000 0.408060 0
22.085000 0.415860 0
22.090000 0.420023 0
22.095000 0.420440 5
22.100000 0.417083 0
22.105000 0.410011 0
22.110000 0.399361 0
22.115000 0.385351 0
22.120000 0.368265 0
22.125000 0.348449 0
22.130000 0.326296 0
22.135000 0.302233 0
22.140000 0.276709 0
22.145000 0.250179 0
22.150000 0.223091 0
22.155000 0.195874 0
22.160000 0.168928 0
22.165000 0.142612 0
22.170000 0.117244 0
22.175000 0.093087 0
22.180000 0.070355 0
22.185000 0.049207 0
22.190000 0.029752 0
22.195000 0.012052 0
22.200000 -0.003879 0
22.205000 -0.018059 0
22.210000 -0.030545 0
22.215000 -0.041414 0
22.220000 -0.050768 0
22.225000 -0.058721 0
22.230000 -0.065396 0
22.235000 -0.070921 0
22.240000 -0.075421 0
22.245000 -0.079022 0
22.250000 -0.081841 0
22.255000 -0.083988 0
22.260000 -0.085563 0
22.265000 -0.086657 0
22.270000 -0.087350 0
22.275000 -0.087713 0
22.280000 -0.087807 0
22.285000 -0.087684 0
22.290000 -0.087387 0
22.295000 -0.086953 0
22.300000 -0.086411 0
22.305000 -0.085572 0
22.310000 -0.084687 0
22.315000 -0.083807 0
22.320000 -0.082930 0
22.325000 -0.082058 0
22.330000 -0.081191 0
22.335000 -0.080328 0
22.340000 -0.079469 0
22.345000 -0.078614 0
22.350000 -0.077764 0
22.355000 -0.076918 0
22.360000 -0.076076 0
22.365000 -0.075238 0
22.370000 -0.074404 0
22.375000 -0.073575 0
22.380000 -0.072749 0
22.385000 -0.071927 0
22.390000 -0.071109 0
22.395000 -0.070294 0
22.400000 -0.069481 0
22.405000 -0.068669 0
22.410000 -0.067855 0
22.415000 -0.067036 0
22.420000 -0.066204 0
22.425000 -0.065349 0
22.430000 -0.064455 0
22.435000 -0.063498 0
22.440000 -0.062442 0
22.445000 -0.061235 0
22.450000 -0.059806 0
22.455000 -0.058057 0
22.460000 -0.055861 0
22.465000 -0.053054 0
22.470000 -0.049434 0
22.475000 -0.044761 0
22.480000 -0.038763 0
22.485000 -0.031144 0
22.490000 -0.021603 0
22.495000 -0.009857 0
22.500000 0.004324 0
22.505000 0.021082 0
22.510000 0.040435 0
22.515000 0.062238 0
22.520000 0.086152 0
22.525000 0.111635 0
22.530000 0.137939 0
22.535000 0.164138 0
22.540000 0.189170 0
22.545000 0.211909 0
22.550000 0.231242 0
22.555000 0.246161 0
22.560000 0.255849 0
22.565000 0.259751 1
22.570000 0.257632 0
22.575000 0.249594 0
22.580000 0.236070 0
22.585000 0.217786 0
22.590000 0.195693 0
22.595000 0.170889 0
22.600000 0.144525 0
22.605000 0.117719 0
22.610000 0.091473 0
22.615000 0.066599 0
22.620000 0.043634 0
22.625000 0.022706 0
22.630000 0.003312 0
22.635000 -0.015965 0
22.640000 -0.037624 0
22.645000 -0.064882 0
22.650000 -0.100322 0
22.655000 -0.143551 0
22.660000 -0.188793 0
22.665000 -0.223969 0
22.670000 -0.232202 2
22.675000 -0.195103 0
22.680000 -0.096405 0
22.685000 0.074047 0
22.690000 0.314134 0
22.695000 0.601076 0
22.700000 0.886447 0
22.705000 1.103707 0
22.710000 1.191171 3
22.715000 1.118461 0
22.720000 0.902360 0
22.725000 0.602710 0
22.730000 0.290734 0
22.735000 0.022663 0
22.740000 -0.170663 0
22.745000 -0.280700 0
22.750000 -0.314552 4
22.755000 -0.290094 0
22.760000 -0.231396 0
22.765000 -0.162419 0
22.770000 -0.100636 0
22.775000 -0.053996 0
22.780000 -0.022358 0
22.785000 -0.001407 0
22.790000 0.013762 0
22.795000 0.026803 0
22.800000 0.039842 0
22.805000 0.053904 0
22.810000 0.069419 0
22.815000 0.086536 0
22.820000 0.105280 0
22.825000 0.125606 0
22.830000 0.147412 0
22.835000 0.170544 0
22.840000 0.194790 0
22.845000 0.219885 0
22.850000 0.245511 0
22.855000 0.271300 0
22.860000 0.296844 0
22.865000 0.321704 0
22.870000 0.345419 0
22.875000 0.367522 0
22.880000 0.387554 0
22.885000 0.405078 0
22.890000 0.419696 0
22.895000 0.431065 0
22.900000 0.438904 0
22.905000 0.443012 0
22.910000 0.443271 5
22.915000 0.439653 0
22.920000 0.432222 0
22.925000 0.421128 0
22.930000 0.406608 0
22.935000 0.388970 0
22.940000 0.368589 0
22.945000 0.345885 0
22.950000 0.321316 0
22.955000 0.295358 0
22.960000 0.268491 0
22.965000 0.241183 0
22.970000 0.213880 0
22.975000 0.186990 0
22.980000 0.160877 0
22.985000 0.135853 0
22.990000 0.112175 0
22.995000 0.090042 0
23.000000 0.069598 0
23.005000 0.050931 0
23.010000 0.034079 0
23.015000 0.019037 0
23.020000 0.005761 0
23.025000 -0.005822 0
23.030000 -0.015812 0
23.035000 -0.024325 0
23.040000 -0.031488 0
23.045000 -0.037437 0
23.050000 -0.042304 0
23.055000 -0.046221 0
23.060000 -0.049314 0
23.065000 -0.051701 0
23.070000 -0.053489 0
23.075000 -0.054773 0
23.080000 -0.055642 0
23.085000 -0.056168 0
23.090000 -0.056416 0
23.095000 -0.056441 0
23.100000 -0.056290 0
23.105000 -0.055999 0
23.110000 -0.055551 0
23.115000 -0.054816 0
23.120000 -0.054084 0
23.125000 -0.053356 0
23.130000 -0.052632 0
23.135000 -0.051911 0
23.140000 -0.051194 0
23.145000 -0.050480 0
23.150000 -0.049770 0
23.155000 -0.049063 0
23.160000 -0.048360 0
23.165000 -0.047661 0
23.170000 -0.046965 0
23.175000 -0.046272 0
23.180000 -0.045583 0
23.185000 -0.044897 0
23.190000 -0.044214 0
23.195000 -0.043535 0
23.200000 -0.042858 0
23.205000 -0.042182 0
23.210000 -0.041508 0
23.215000 -0.040831 0
23.220000 -0.040150 0
23.225000 -0.039456 0
23.230000 -0.038742 0
23.235000 -0.037990 0
23.240000 -0.037177 0
23.245000 -0.036267 0
23.250000 -0.035209 0
23.255000 -0.033928 0
23.260000 -0.032324 0
23.265000 -0.030263 0
23.270000 -0.027573 0
23.275000 -0.024040 0
23.280000 -0.019409 0
23.285000 -0.013390 0
23.290000 -0.005668 0
23.295000 0.004074 0
23.300000 0.016127 0
23.305000 0.030722 0
23.310000 0.047985 0
23.315000 0.067897 0
23.320000 0.090253 0
23.325000 0.114634 0
23.330000 0.140397 0
23.335000 0.166682 0
23.340000 0.192450 0
23.345000 0.216544 0
23.350000 0.237768 0
23.355000 0.254987 0
23.360000 0.267222 0
23.365000 0.273744 0
23.370000 0.274146 1
23.375000 0.268379 0
23.380000 0.256763 0
23.385000 0.239954 0
23.390000 0.218884 0
23.395000 0.194670 0
23.400000 0.168523 0
23.405000 0.141639 0
23.410000 0.115113 0
23.415000 0.089851 0
23.420000 0.066479 0
23.425000 0.045209 0
23.430000 0.025607 0
23.435000 0.006279 0
23.440000 -0.015337 0
23.445000 -0.042622 0
23.450000 -0.078308 0
23.455000 -0.121892 0
23.460000 -0.166983 0
23.465000 -0.200393 0
23.470000 -0.203986 2
23.475000 -0.158432 0
23.480000 -0.047257 0
23.485000 0.138443 0
23.490000 0.392543 0
23.495000 0.684648 0
23.500000 0.957114 0
23.505000 1.138266 0
23.510000 1.171313 3
23.515000 1.043850 0
23.520000 0.793158 0
23.525000 0.482765 0
23.530000 0.178043 0
23.535000 -0.073898 0
23.540000 -0.249510 0
23.545000 -0.344380 0
23.550000 -0.367430 4
23.555000 -0.336835 0
23.560000 -0.275763 0
23.565000 -0.206546 0
23.570000 -0.145106 0
23.575000 -0.098540 0
23.580000 -0.066574 0
23.585000 -0.045119 0
23.590000 -0.029503 0
23.595000 -0.016172 0
23.600000 -0.002999 0
23.605000 0.011080 0
23.610000 0.026527 0
23.615000 0.043514 0
23.620000 0.062082 0
23.625000 0.082201 0
23.630000 0.103788 0
23.635000 0.126710 0
23.640000 0.150785 0
23.645000 0.175779 0
23.650000 0.201408 0
23.655000 0.227342 0
23.660000 0.253212 0
23.665000 0.278612 0
23.670000 0.303116 0
23.675000 0.326284 0
23.680000 0.347674 0
23.685000 0.366862 0
23.690000 0.383448 0
23.695000 0.397073 0
23.700000 0.407434 0
23.705000 0.414289 0
23.710000 0.417472 5
23.715000 0.416895 0
23.720000 0.412553 0
23.725000 0.404526 0
23.730000 0.392973 0
23.735000 0.378130 0
23.740000 0.360300 0
23.745000 0.339840 0
23.750000 0.317155 0
23.755000 0.292677 0
23.760000 0.266859 0
23.765000 0.240154 0
23.770000 0.213007 0
23.775000 0.185838 0
23.780000 0.159038 0
23.785000 0.132957 0
23.790000 0.107895 0
23.795000 0.084105 0
23.800000 0.061786 0
23.805000 0.041084 0
23.810000 0.022094 0
23.815000 0.004865 0
23.820000 -0.010596 0
23.825000 -0.024319 0
23.830000 -0.036366 0
23.835000 -0.046822 0
23.840000 -0.055791 0
23.845000 -0.063391 0
23.850000 -0.069746 0
23.855000 -0.074983 0
23.860000 -0.079229 0
23.865000 -0.082607 0
23.870000 -0.085231 0
23.875000 -0.087210 0
23.880000 -0.088641 0
23.885000 -0.089613 0
23.890000 -0.090203 0
23.895000 -0.090480 0
23.900000 -0.090501 0
23.905000 -0.090317 0
23.910000 -0.089969 0
23.915000 -0.089492 0
23.920000 -0.088867 0
23.925000 -0.087966 0
23.930000 -0.087069 0
23.935000 -0.086176 0
23.940000 -0.085288 0
23.945000 -0.084404 0
23.950000 -0.083525 0
23.955000 -0.082650 0
23.960000 -0.081780 0
23.965000 -0.080914 0
23.970000 -0.080052 0
23.975000 -0.079194 0
23.980000 -0.078341 0
23.985000 -0.077492 0
23.990000 -0.076647 0
23.995000 -0.075806 0
24.000000 -0.074969 0
24.005000 -0.074136 0
24.010000 -0.073307 0
24.015000 -0.072481 0
24.020000 -0.071656 0
24.025000 -0.070832 0
24.030000 -0.070006 0
24.035000 -0.069172 0
24.040000 -0.068324 0
24.045000 -0.067450 0
24.050000 -0.066532 0
24.055000 -0.065544 0
24.060000 -0.064446 0
24.065000 -0.063182 0
24.070000 -0.061676 0
24.075000 -0.059824 0
24.080000 -0.057489 0
24.085000 -0.054500 0
24.090000 -0.050645 0
24.095000 -0.045677 0
24.100000 -0.039317 0
24.105000 -0.031266 0
24.110000 -0.021225 0
24.115000 -0.008921 0
24.120000 0.005858 0
24.125000 0.023231 0
24.130000 0.043179 0
24.135000 0.065515 0
24.140000 0.089856 0
24.145000 0.115611 0
24.150000 0.141988 0
24.155000 0.168028 0
24.160000 0.192647 0
24.165000 0.214715 0
24.170000 0.233138 0
24.175000 0.246944 0
24.180000 0.255369 0
24.185000 0.257929 1
24.190000 0.254464 0
24.195000 0.245152 0
24.200000 0.230496 0
24.205000 0.211277 0
24.210000 0.188489 0
24.215000 0.163246 0
24.220000 0.136699 0
24.225000 0.109945 0
24.230000 0.083951 0
24.235000 0.059475 0
24.240000 0.036977 0
24.245000 0.016466 0
24.250000 -0.002733 0
24.255000 -0.022273 0
24.260000 -0.044868 0
24.265000 -0.073750 0
24.270000 -0.111070 0
24.275000 -0.155440 0
24.280000 -0.199717 0
24.285000 -0.230578 2
24.290000 -0.230523 0
24.295000 -0.181334 0
24.300000 -0.067697 0
24.305000 0.118513 0
24.310000 0.371458 0
24.315000 0.662996 0
24.320000 0.939665 0
24.325000 1.133671 0
24.330000 1.188201 3
24.335000 1.083104 0
24.340000 0.845500 0
24.345000 0.538494 0
24.350000 0.230647 0
24.355000 -0.027017 0
24.360000 -0.208212 0
24.365000 -0.307224 0
24.370000 -0.332665 4
24.375000 -0.303027 0
24.380000 -0.242178 0
24.385000 -0.173165 0
24.390000 -0.112300 0
24.395000 -0.066639 0
24.400000 -0.035637 0
24.405000 -0.014959 0
24.410000 0.000164 0
24.415000 0.013257 0
24.420000 0.026367 0
24.425000 0.040492 0
24.430000 0.056049 0
24.435000 0.073187 0
24.440000 0.091934 0
24.445000 0.112245 0
24.450000 0.134026 0
24.455000 0.157127 0
24.460000 0.181346 0
24.465000 0.206429 0
24.470000 0.232068 0
24.475000 0.257911 0
24.480000 0.283562 0
24.485000 0.308595 0
24.490000 0.332562 0
24.495000 0.355007 0
24.500000 0.375480 0
24.505000 0.393547 0
24.510000 0.408814 0
24.515000 0.420932 0
24.520000 0.429614 0
24.525000 0.434644 0
24.530000 0.435889 5
24.535000 0.433300 0
24.540000 0.426916 0
24.545000 0.416863 0
24.550000 0.403348 0
24.555000 0.386655 0
24.560000 0.367131 0
24.565000 0.345174 0
24.570000 0.321222 0
24.575000 0.295737 0
24.580000 0.269187 0
24.585000 0.242035 0
24.590000 0.214728 0
24.595000 0.187678 0
24.600000 0.161259 0
24.605000 0.135798 0
24.610000 0.111568 0
24.615000 0.088789 0
24.620000 0.067624 0
24.625000 0.048182 0
24.630000 0.030524 0
24.635000 0.014663 0
24.640000 0.000575 0
24.645000 -0.011799 0
24.650000 -0.022545 0
24.655000 -0.031769 0
24.660000 -0.039590 0
24.665000 -0.046136 0
24.670000 -0.051540 0
24.675000 -0.055930 0
24.680000 -0.059435 0
24.685000 -0.062173 0
24.690000 -0.064256 0
24.695000 -0.065784 0
24.700000 -0.066849 0
24.705000 -0.067530 0
24.710000 -0.067896 0
24.715000 -0.068007 0
24.720000 -0.067913 0
24.725000 -0.067658 0
24.730000 -0.067275 0
24.735000 -0.066748 0
24.740000 -0.065957 0
24.745000 -0.065170 0
24.750000 -0.064387 0
24.755000 -0.063607 0
24.760000 -0.062832 0
24.765000 -0.062060 0
24.770000 -0.061292 0
24.775000 -0.060528 0
24.780000 -0.059768 0
24.785000 -0.059012 0
24.790000 -0.058259 0
24.795000 -0.057510 0
24.800000 -0.056765 0
24.805000 -0.056023 0
24.810000 -0.055285 0
24.815000 -0.054551 0
24.820000 -0.053820 0
24.825000 -0.053091 0
24.830000 -0.052365 0
24.835000 -0.051639 0
24.840000 -0.050912 0
24.845000 -0.050179 0
24.850000 -0.049436 0
24.855000 -0.048671 0
24.860000 -0.047870 0
24.865000 -0.047009 0
24.870000 -0.046053 0
24.875000 -0.044953 0
24.880000 -0.043637 0
24.885000 -0.042008 0
24.890000 -0.039937 0
24.895000 -0.037260 0
24.900000 -0.033770 0
24.905000 -0.029222 0
24.910000 -0.023336 0
24.915000 -0.015807 0
24.920000 -0.006323 0
24.925000 0.005406 0
24.930000 0.019617 0
24.935000 0.036452 0
24.940000 0.055920 0
24.945000 0.077858 0
24.950000 0.101899 0
24.955000 0.127460 0
24.960000 0.153746 0
24.965000 0.179777 0
24.970000 0.204444 0
24.975000 0.226580 0
24.980000 0.245049 0
24.985000 0.258843 0
24.990000 0.267171 0
24.995000 0.269535 1
25.000000 0.265775 0
25.005000 0.256090 0
25.010000 0.241017 0
25.015000 0.221380 0
25.020000 0.198219 0
25.025000 0.172694 0
25.030000 0.145991 0
25.035000 0.119231 0
25.040000 0.093382 0
25.045000 0.069183 0
25.050000 0.047035 0
25.055000 0.026827 0
25.060000 0.007660 0
25.065000 -0.012441 0
25.070000 -0.036503 0
25.075000 -0.067767 0
25.080000 -0.107677 0
25.085000 -0.153175 0
25.090000 -0.194771 0
25.095000 -0.216921 2
25.100000 -0.200864 0
25.105000 -0.128459 0
25.110000 0.013868 0
25.115000 0.229706 0
25.120000 0.504320 0
25.125000 0.796974 0
25.130000 1.043386 0
25.135000 1.175155 3
25.140000 1.149626 0
25.145000 0.971400 0
25.150000 0.689860 0
25.155000 0.374625 0
25.160000 0.087411 0
25.165000 -0.133264 0
25.170000 -0.272362 0
25.175000 -0.332118 4
25.180000 -0.326684 0
25.185000 -0.278000 0
25.190000 -0.210391 0
25.195000 -0.144075 0
25.200000 -0.090670 0
25.205000 -0.052926 0
25.210000 -0.027849 0
25.215000 -0.010552 0
25.220000 0.003201 0
25.225000 0.016145 0
25.230000 0.029722 0
25.235000 0.044579 0
25.240000 0.060968 0
25.245000 0.078965 0
25.250000 0.098555 0
25.255000 0.119668 0
25.260000 0.142180 0
25.265000 0.165915 0
25.270000 0.190641 0
25.275000 0.216077 0
25.280000 0.241889 0
25.285000 0.267701 0
25.290000 0.293099 0
25.295000 0.317644 0
25.300000 0.340881 0
25.305000 0.362353 0
25.310000 0.381618 0
25.315000 0.398261 0
25.320000 0.411907 0
25.325000 0.422241 0
25.330000 0.429010 0
25.335000 0.432043 5
25.340000 0.431251 0
25.345000 0.426631 0
25.350000 0.418270 0
25.355000 0.406338 0
25.360000 0.391087 0
25.365000 0.372834 0
25.370000 0.351958 0
25.375000 0.328881 0
25.380000 0.304056 0
25.385000 0.277950 0
25.390000 0.251033 0
25.395000 0.223760 0
25.400000 0.196561 0
25.405000 0.169830 0
25.410000 0.143915 0
25.415000 0.119116 0
25.420000 0.095676 0
25.425000 0.073785 0
25.430000 0.053575 0
25.435000 0.035129 0
25.440000 0.018482 0
25.445000 0.003623 0
25.450000 -0.009490 0
25.455000 -0.020933 0
25.460000 -0.030803 0
25.465000 -0.039215 0
25.470000 -0.046294 0
25.475000 -0.052171 0
25.480000 -0.056977 0
25.485000 -0.060842 0
25.490000 -0.063888 0
25.495000 -0.066230 0
25.500000 -0.067975 0
25.505000 -0.069218 0
25.510000 -0.070043 0
25.515000 -0.070524 0
25.520000 -0.070725 0
25.525000 -0.070701 0
25.530000 -0.070497 0
25.535000 -0.070152 0
25.540000 -0.069696 0
25.545000 -0.068941 0
25.550000 -0.068139 0
25.555000 -0.067341 0
25.560000 -0.066546 0
25.565000 -0.065756 0
25.570000 -0.064970 0
25.575000 -0.064188 0
25.580000 -0.063409 0
25.585000 -0.062635 0
25.590000 -0.061864 0
25.595000 -0.061097 0
25.600000 -0.060334 0
25.605000 -0.059575 0
25.610000 -0.058819 0
25.615000 -0.058067 0
25.620000 -0.057319 0
25.625000 -0.056574 0
25.630000 -0.055832 0
25.635000 -0.055093 0
25.640000 -0.054355 0
25.645000 -0.053617 0
25.650000 -0.052875 0
25.655000 -0.052125 0
25.660000 -0.051359 0
25.665000 -0.050563 0
25.670000 -0.049718 0
25.675000 -0.048795 0
25.680000 -0.047749 0
25.685000 -0.046519 0
25.690000 -0.045019 0
25.695000 -0.043133 0
25.700000 -0.040712 0
25.705000 -0.037565 0
25.710000 -0.033463 0
25.715000 -0.028138 0
25.720000 -0.021293 0
25.725000 -0.012615 0
25.730000 -0.001802 0
25.735000 0.011409 0
25.740000 0.027203 0
25.745000 0.045649 0
25.750000 0.066653 0
25.755000 0.089933 0
25.760000 0.114991 0
25.765000 0.141111 0
25.770000 0.167380 0
25.775000 0.192730 0
25.780000 0.216004 0
25.785000 0.236042 0
25.790000 0.251773 0
25.795000 0.262309 0
25.800000 0.267032 1
25.805000 0.265645 0
25.810000 0.258210 0
25.815000 0.245137 0
25.820000 0.227150 0
25.825000 0.205217 0
25.830000 0.180466 0
25.835000 0.154085 0
25.840000 0.127234 0
25.845000 0.100947 0
25.850000 0.076065 0
25.855000 0.053133 0
25.860000 0.032260 0
25.865000 0.012880 0
25.870000 -0.006555 0
25.875000 -0.028724 0
25.880000 -0.056965 0
25.885000 -0.093699 0
25.890000 -0.137853 0
25.895000 -0.182419 0
25.900000 -0.213862 0
25.905000 -0.214149 2
25.910000 -0.164431 0
25.915000 -0.048924 0
25.920000 0.140467 0
25.925000 0.396812 0
25.930000 0.689329 0
25.935000 0.960924 0
25.940000 1.141349 0
25.945000 1.175132 3
25.950000 1.049322 0
25.955000 0.799483 0
25.960000 0.489258 0
25.965000 0.184360 0
25.970000 -0.067788 0
25.975000 -0.243475 0
25.980000 -0.338255 0
25.985000 -0.361102 4
25.990000 -0.330294 0
25.995000 -0.269109 0
26.000000 -0.199937 0
26.005000 -0.138685 0
26.010000 -0.092373 0
26.015000 -0.060646 0
26.020000 -0.039368 0
26.025000 -0.023857 0
26.030000 -0.010574 0
26.035000 0.002586 0
26.040000 0.016672 0
26.045000 0.032137 0
26.050000 0.049148 0
26.055000 0.067744 0
26.060000 0.087892 0
26.065000 0.109508 0
26.070000 0.132456 0
26.075000 0.156551 0
26.080000 0.181556 0
26.085000 0.207184 0
26.090000 0.233102 0
26.095000 0.258935 0
26.100000 0.284277 0
26.105000 0.308698 0
26.110000 0.331754 0
26.115000 0.353005 0
26.120000 0.372024 0
26.125000 0.388411 0
26.130000 0.401811 0
26.135000 0.411921 0
26.140000 0.418505 0
26.145000 0.421399 5
26.150000 0.420522 0
26.155000 0.415876 0
26.160000 0.407546 0
26.165000 0.395699 0
26.170000 0.380578 0
26.175000 0.362490 0
26.180000 0.341801 0
26.185000 0.318918 0
26.190000 0.294280 0
26.195000 0.268340 0
26.200000 0.241554 0
26.205000 0.214366 0
26.210000 0.187197 0
26.215000 0.160435 0
26.220000 0.134425 0
26.225000 0.109467 0
26.230000 0.085807 0
26.235000 0.063640 0
26.240000 0.043105 0
26.245000 0.024294 0
26.250000 0.007251 0
26.255000 -0.008022 0
26.260000 -0.021560 0
26.265000 -0.033427 0
26.270000 -0.043712 0
26.275000 -0.052521 0
26.280000 -0.059974 0
26.285000 -0.066195 0
26.290000 -0.071314 0
26.295000 -0.075456 0
26.300000 -0.078744 0
26.305000 -0.081292 0
26.310000 -0.083209 0
26.315000 -0.084590 0
26.320000 -0.085522 0
26.325000 -0.086082 0
26.330000 -0.086338 0
26.335000 -0.086345 0
26.340000 -0.086154 0
26.345000 -0.085804 0
26.350000 -0.085329 0
26.355000 -0.084713 0
26.360000 -0.083832 0
26.365000 -0.082956 0
26.370000 -0.082084 0
26.375000 -0.081216 0
26.380000 -0.080353 0
26.385000 -0.079494 0
26.390000 -0.078639 0
26.395000 -0.077788 0
26.400000 -0.076942 0
26.405000 -0.076100 0
26.410000 -0.075262 0
26.415000 -0.074428 0
26.420000 -0.073599 0
26.425000 -0.072773 0
26.430000 -0.071952 0
26.435000 -0.071134 0
26.440000 -0.070320 0
26.445000 -0.069510 0
26.450000 -0.068702 0
26.455000 -0.067896 0
26.460000 -0.067089 0
26.465000 -0.066280 0
26.470000 -0.065462 0
26.475000 -0.064627 0
26.480000 -0.063763 0
26.485000 -0.062850 0
26.490000 -0.061858 0
26.495000 -0.060746 0
26.500000 -0.059453 0
26.505000 -0.057896 0
26.510000 -0.055964 0
26.515000 -0.053512 0
26.520000 -0.050358 0
26.525000 -0.046282 0
26.530000 -0.041027 0
26.535000 -0.034307 0
26.540000 -0.025819 0
26.545000 -0.015268 0
26.550000 -0.002389 0
26.555000 0.013010 0
26.560000 0.031018 0
26.565000 0.051577 0
26.570000 0.074452 0
26.575000 0.099204 0
26.580000 0.125189 0
26.585000 0.151563 0
26.590000 0.177324 0
26.595000 0.201366 0
26.600000 0.222553 0
26.605000 0.239810 0
26.610000 0.252211 0
26.615000 0.259058 0
26.620000 0.259950 1
26.625000 0.254819 0
26.630000 0.243938 0
26.635000 0.227896 0
26.640000 0.207545 0
26.645000 0.183925 0
26.650000 0.158177 0
26.655000 0.131449 0
26.660000 0.104812 0
26.665000 0.079185 0
26.670000 0.055251 0
26.675000 0.033357 0
26.680000 0.013338 0
26.685000 -0.005754 0
26.690000 -0.025910 0
26.695000 -0.050116 0
26.700000 -0.081505 0
26.705000 -0.121421 0
26.710000 -0.166850 0
26.715000 -0.208600 0
26.720000 -0.231651 2
26.725000 -0.217797 0
26.730000 -0.149285 0
26.735000 -0.012505 0
26.740000 0.197044 0
26.745000 0.467039 0
26.750000 0.760651 0
26.755000 1.017384 0
26.760000 1.169576 3
26.765000 1.169256 0
26.770000 1.011555 0
26.775000 0.740766 0
26.780000 0.426093 0
26.785000 0.132261 0
26.790000 -0.098400 0
26.795000 -0.247931 0
26.800000 -0.316743 0
26.805000 -0.317891 4
26.810000 -0.272852 0
26.815000 -0.206234 0
26.820000 -0.139161 0
26.825000 -0.084325 0
26.830000 -0.045270 0
26.835000 -0.019336 0
26.840000 -0.001629 0
26.845000 0.012230 0
26.850000 0.025123 0
26.855000 0.038582 0
26.860000 0.053300 0
26.865000 0.069550 0
26.870000 0.087414 0
26.875000 0.106883 0
26.880000 0.127886 0
26.885000 0.150303 0
26.890000 0.173955 0
26.895000 0.198613 0
26.900000 0.223993 0
26.905000 0.249759 0
26.910000 0.275533 0
26.915000 0.300897 0
26.920000 0.325407 0
26.925000 0.348604 0
26.930000 0.370028 0
26.935000 0.389232 0
26.940000 0.405796 0
26.945000 0.419344 0
26.950000 0.429557 0
26.955000 0.436184 0
26.960000 0.439053 5
26.965000 0.438076 0
26.970000 0.433256 0
26.975000 0.424682 0
26.980000 0.412532 0
26.985000 0.397062 0
26.990000 0.378598 0
26.995000 0.357523 0
27.000000 0.334268 0
27.005000 0.309291 0
27.010000 0.283065 0
27.015000 0.256062 0
27.020000 0.228741 0
27.025000 0.201532 0
27.030000 0.174830 0
27.035000 0.148982 0
27.040000 0.124284 0
27.045000 0.100976 0
27.050000 0.079241 0
27.055000 0.059210 0
27.060000 0.040957 0
27.065000 0.024512 0
27.070000 0.009861 0
27.075000 -0.003046 0
27.080000 -0.014288 0
27.085000 -0.023967 0
27.090000 -0.032199 0
27.095000 -0.039112 0
27.100000 -0.044840 0
27.105000 -0.049514 0
27.110000 -0.053265 0
27.115000 -0.056214 0
27.120000 -0.058477 0
27.125000 -0.060159 0
27.130000 -0.061353 0
27.135000 -0.062142 0
27.140000 -0.062600 0
27.145000 -0.062789 0
27.150000 -0.062762 0
27.155000 -0.062563 0
27.160000 -0.062230 0
27.165000 -0.061744 0
27.170000 -0.060977 0
27.175000 -0.060215 0
27.180000 -0.059456 0
27.185000 -0.058701 0
27.190000 -0.057950 0
27.195000 -0.057203 0
27.200000 -0.056459 0
27.205000 -0.055720 0
27.210000 -0.054983 0
27.215000 -0.054251 0
27.220000 -0.053522 0
27.225000 -0.052797 0
27.230000 -0.052075 0
27.235000 -0.051357 0
27.240000 -0.050642 0
27.245000 -0.049931 0
27.250000 -0.049223 0
27.255000 -0.048517 0
27.260000 -0.047814 0
27.265000 -0.047111 0
27.270000 -0.046407 0
27.275000 -0.045698 0
27.280000 -0.044978 0
27.285000 -0.044237 0
27.290000 -0.043461 0
27.295000 -0.042626 0
27.300000 -0.041698 0
27.305000 -0.040626 0
27.310000 -0.039341 0
27.315000 -0.037744 0
27.320000 -0.035707 0
27.325000 -0.033063 0
27.330000 -0.029605 0
27.335000 -0.025085 0
27.340000 -0.019220 0
27.345000 -0.011701 0
27.350000 -0.002213 0
27.355000 0.009536 0
27.360000 0.023784 0
27.365000 0.040675 0
27.370000 0.060212 0
27.375000 0.082223 0
27.380000 0.106330 0
27.385000 0.131933 0
27.390000 0.158216 0
27.395000 0.184182 0
27.400000 0.208701 0
27.405000 0.230592 0
27.410000 0.248714 0
27.415000 0.262061 0
27.420000 0.269855 0
27.425000 0.271622 1
27.430000 0.267235 0
27.435000 0.256931 0
27.440000 0.241285 0
27.445000 0.221162 0
27.450000 0.197631 0
27.455000 0.171874 0
27.460000 0.145088 0
27.465000 0.118388 0
27.470000 0.092726 0
27.475000 0.068809 0
27.480000 0.046975 0
27.485000 0.027008 0
27.490000 0.007835 0
27.495000 -0.012736 0
27.500000 -0.037899 0
27.505000 -0.070782 0
27.510000 -0.112203 0
27.515000 -0.157913 0
27.520000 -0.196985 0
27.525000 -0.212752 2
27.530000 -0.186049 0
27.535000 -0.099175 0
27.540000 0.059937 0
27.545000 0.291543 0
27.550000 0.575133 0
27.555000 0.863044 0
27.560000 1.086842 0
27.565000 1.181010 3
27.570000 1.114106 0
27.575000 0.904645 0
27.580000 0.608747 0
27.585000 0.295171 0
27.590000 0.020062 0
27.595000 -0.184151 0
27.600000 -0.306788 0
27.605000 -0.352729 4
27.610000 -0.337640 0
27.615000 -0.283939 0
27.620000 -0.215266 0
27.625000 -0.150316 0
27.630000 -0.099075 0
27.635000 -0.063199 0
27.640000 -0.039288 0
27.645000 -0.022520 0
27.650000 -0.008888 0
27.655000 0.004136 0
27.660000 0.017871 0
27.665000 0.032904 0
27.670000 0.049464 0
27.675000 0.067617 0
27.680000 0.087345 0
27.685000 0.108576 0
27.690000 0.131187 0
27.695000 0.155002 0
27.700000 0.179794 0
27.705000 0.205286 0
27.710000 0.231150 0
27.715000 0.257017 0
27.720000 0.282482 0
27.725000 0.307113 0
27.730000 0.330466 0
27.735000 0.352091 0
27.740000 0.371554 0
27.745000 0.388444 0
27.750000 0.402392 0
27.755000 0.413082 0
27.760000 0.420261 0
27.765000 0.423752 5
27.770000 0.423459 0
27.775000 0.419370 0
27.780000 0.411557 0
27.785000 0.400179 0
27.790000 0.385470 0
27.795000 0.367733 0
27.800000 0.347331 0
27.805000 0.324670 0
27.810000 0.300192 0
27.815000 0.274354 0
27.820000 0.247616 0
27.825000 0.220431 0
27.830000 0.193226 0
27.835000 0.166397 0
27.840000 0.140298 0
27.845000 0.115234 0
27.850000 0.091459 0
27.855000 0.069174 0
27.860000 0.048523 0
27.865000 0.029601 0
27.870000 0.012456 0
27.875000 -0.002909 0
27.880000 -0.016527 0
27.885000 -0.028463 0
27.890000 -0.038806 0
27.895000 -0.047662 0
27.900000 -0.055153 0
27.905000 -0.061405 0
27.910000 -0.066547 0
27.915000 -0.070708 0
27.920000 -0.074011 0
27.925000 -0.076572 0
27.930000 -0.078499 0
27.935000 -0.079889 0
27.940000 -0.080832 0
27.945000 -0.081402 0
27.950000 -0.081669 0
27.955000 -0.081688 0
27.960000 -0.081510 0
27.965000 -0.081174 0
27.970000 -0.080716 0
27.975000 -0.080117 0
27.980000 -0.079259 0
27.985000 -0.078405 0
27.990000 -0.077556 0
27.995000 -0.076711 0
28.000000 -0.075870 0
28.005000 -0.075033 0
28.010000 -0.074201 0
28.015000 -0.073372 0
28.020000 -0.072548 0
28.025000 -0.071728 0
28.030000 -0.070912 0
28.035000 -0.070100 0
28.040000 -0.069292 0
28.045000 -0.068488 0
28.050000 -0.067688 0
28.055000 -0.066892 0
28.060000 -0.066099 0
28.065000 -0.065309 0
28.070000 -0.064522 0
28.075000 -0.063736 0
28.080000 -0.062949 0
28.085000 -0.062158 0
28.090000 -0.061357 0
28.095000 -0.060537 0
28.100000 -0.059684 0
28.105000 -0.058776 0
28.110000 -0.057781 0
28.115000 -0.056652 0
28.120000 -0.055324 0
28.125000 -0.053706 0
28.130000 -0.051678 0
28.135000 -0.049085 0
28.140000 -0.045733 0
28.145000 -0.041389 0
28.150000 -0.035785 0
28.155000 -0.028624 0
28.160000 -0.019601 0
28.165000 -0.008421 0
28.170000 0.005164 0
28.175000 0.021323 0
28.180000 0.040106 0
28.185000 0.061403 0
28.190000 0.084913 0
28.195000 0.110129 0
28.200000 0.136329 0
28.205000 0.162605 0
28.210000 0.187900 0
28.215000 0.211076 0
28.220000 0.230996 0
28.225000 0.246614 0
28.230000 0.257067 0
28.235000 0.261753 1
28.240000 0.260385 0
28.245000 0.253023 0
28.250000 0.240069 0
28.255000 0.222229 0
28.260000 0.200447 0
28.265000 0.175826 0
28.270000 0.149534 0
28.275000 0.122710 0
28.280000 0.096383 0
28.285000 0.071391 0
28.290000 0.048301 0
28.295000 0.027266 0
28.300000 0.007813 0
28.305000 -0.011456 0
28.310000 -0.033045 0
28.315000 -0.060211 0
28.320000 -0.095597 0
28.325000 -0.138837 0
28.330000 -0.184078 0
28.335000 -0.219030 0
28.340000 -0.226531 2
28.345000 -0.187931 0
28.350000 -0.086841 0
28.355000 0.086717 0
28.360000 0.329867 0
28.365000 0.618233 0
28.370000 0.901275 0
28.375000 1.110993 0
