0.000000 1.150416 3
0.005000 1.050422 0
0.010000 0.797487 0
0.015000 0.466889 0
0.020000 0.140485 0
0.025000 -0.123255 0
0.030000 -0.297064 0
0.035000 -0.378338 0
0.040000 -0.381204 4
0.045000 -0.330789 0
0.050000 -0.256319 0
0.055000 -0.182472 0
0.060000 -0.123151 0
0.065000 -0.081138 0
0.070000 -0.052392 0
0.075000 -0.031073 0
0.080000 -0.012536 0
0.085000 0.005935 0
0.090000 0.025593 0
0.095000 0.046877 0
0.100000 0.069852 0
0.105000 0.094407 0
0.110000 0.120335 0
0.115000 0.147351 0
0.120000 0.175105 0
0.125000 0.203182 0
0.130000 0.231113 0
0.135000 0.258387 0
0.140000 0.284465 0
0.145000 0.308796 0
0.150000 0.330836 0
0.155000 0.350067 0
0.160000 0.366020 0
0.165000 0.378290 0
0.170000 0.386555 0
0.175000 0.390589 5
0.180000 0.390271 0
0.185000 0.385591 0
0.190000 0.376652 0
0.195000 0.363665 0
0.200000 0.346941 0
0.205000 0.326877 0
0.210000 0.303940 0
0.215000 0.278652 0
0.220000 0.251566 0
0.225000 0.223247 0
0.230000 0.194255 0
0.235000 0.165124 0
0.240000 0.136349 0
0.245000 0.108369 0
0.250000 0.081565 0
0.255000 0.056246 0
0.260000 0.032653 0
0.265000 0.010955 0
0.270000 -0.008743 0
0.275000 -0.026401 0
0.280000 -0.042029 0
0.285000 -0.055686 0
0.290000 -0.067464 0
0.295000 -0.077488 0
0.300000 -0.085898 0
0.305000 -0.092848 0
0.310000 -0.098496 0
0.315000 -0.103000 0
0.320000 -0.106510 0
0.325000 -0.109170 0
0.330000 -0.111112 0
0.335000 -0.112454 0
0.340000 -0.113301 0
0.345000 -0.113744 0
0.350000 -0.113862 0
0.355000 -0.113721 0
0.360000 -0.113284 0
0.365000 -0.112296 0
0.370000 -0.111313 0
0.375000 -0.110334 0
0.380000 -0.109361 0
0.385000 -0.108393 0
0.390000 -0.107429 0
0.395000 -0.106470 0
0.400000 -0.105516 0
0.405000 -0.104567 0
0.410000 -0.103622 0
0.415000 -0.102682 0
0.420000 -0.101746 0
0.425000 -0.100814 0
0.430000 -0.099884 0
0.435000 -0.098956 0
0.440000 -0.098027 0
0.445000 -0.097091 0
0.450000 -0.096141 0
0.455000 -0.095163 0
0.460000 -0.094137 0
0.465000 -0.093030 0
0.470000 -0.091793 0
0.475000 -0.090354 0
0.480000 -0.088611 0
0.485000 -0.086426 0
0.490000 -0.083616 0
0.495000 -0.079945 0
0.500000 -0.075129 0
0.505000 -0.068836 0
0.510000 -0.060700 0
0.515000 -0.050345 0
0.520000 -0.037420 0
0.525000 -0.021644 0
0.530000 -0.002862 0
0.535000 0.018903 0
0.540000 0.043399 0
0.545000 0.070107 0
0.550000 0.098231 0
0.555000 0.126714 0
0.560000 0.154290 0
0.565000 0.179570 0
0.570000 0.201157 0
0.575000 0.217766 0
0.580000 0.228357 0
0.585000 0.232238 1
0.590000 0.229144 0
0.595000 0.219263 0
0.600000 0.203221 0
0.605000 0.182013 0
0.610000 0.156903 0
0.615000 0.129300 0
0.620000 0.100622 0
0.625000 0.072167 0
0.630000 0.044974 0
0.635000 0.019633 0
0.640000 -0.004015 0
0.645000 -0.027292 0
0.650000 -0.052994 0
0.655000 -0.084968 0
0.660000 -0.126211 0
0.665000 -0.175499 0
0.670000 -0.224108 0
0.675000 -0.255142 2
0.680000 -0.246516 0
0.685000 -0.175993 0
0.690000 -0.026487 0
0.695000 0.206870 0
0.700000 0.505668 0
0.705000 0.818284 0
0.710000 1.065018 0
0.715000 1.167010 3
0.720000 1.086833 0
0.725000 0.848364 0
0.730000 0.522597 0
0.735000 0.191566 0
0.740000 -0.083107 0
0.745000 -0.270524 0
0.750000 -0.365176 0
0.755000 -0.378921 4
0.760000 -0.335243 0
0.765000 -0.262913 0
0.770000 -0.187623 0
0.775000 -0.125175 0
0.780000 -0.080093 0
0.785000 -0.049245 0
0.790000 -0.026897 0
0.795000 -0.008106 0
0.800000 0.010191 0
0.805000 0.029483 0
0.810000 0.050337 0
0.815000 0.072874 0
0.820000 0.097018 0
0.825000 0.122582 0
0.830000 0.149306 0
0.835000 0.176859 0
0.840000 0.204846 0
0.845000 0.232820 0
0.850000 0.260287 0
0.855000 0.286719 0
0.860000 0.311576 0
0.865000 0.334315 0
0.870000 0.354418 0
0.875000 0.371403 0
0.880000 0.384850 0
0.885000 0.394412 0
0.890000 0.399834 0
0.895000 0.400960 5
0.900000 0.397745 0
0.905000 0.390252 0
0.910000 0.378650 0
0.915000 0.363214 0
0.920000 0.344303 0
0.925000 0.322357 0
0.930000 0.297872 0
0.935000 0.271384 0
0.940000 0.243448 0
0.945000 0.214622 0
0.950000 0.185445 0
0.955000 0.156422 0
0.960000 0.128012 0
0.965000 0.100616 0
0.970000 0.074571 0
0.975000 0.050143 0
0.980000 0.027532 0
0.985000 0.006869 0
0.990000 -0.011778 0
0.995000 -0.028397 0
1.000000 -0.043024 0
1.005000 -0.055736 0
1.010000 -0.066641 0
1.015000 -0.075871 0
1.020000 -0.083572 0
1.025000 -0.089899 0
1.030000 -0.095008 0
1.035000 -0.099052 0
1.040000 -0.102178 0
1.045000 -0.104521 0
1.050000 -0.106205 0
1.055000 -0.107341 0
1.060000 -0.108028 0
1.065000 -0.108349 0
1.070000 -0.108376 0
1.075000 -0.108171 0
1.080000 -0.107319 0
1.085000 -0.106360 0
1.090000 -0.105407 0
1.095000 -0.104458 0
1.100000 -0.103514 0
1.105000 -0.102575 0
1.110000 -0.101640 0
1.115000 -0.100710 0
1.120000 -0.099785 0
1.125000 -0.098864 0
1.130000 -0.097948 0
1.135000 -0.097036 0
1.140000 -0.096128 0
1.145000 -0.095223 0
1.150000 -0.094321 0
1.155000 -0.093419 0
1.160000 -0.092514 0
1.165000 -0.091601 0
1.170000 -0.090671 0
1.175000 -0.089708 0
1.180000 -0.088689 0
1.185000 -0.087577 0
1.190000 -0.086320 0
1.195000 -0.084838 0
1.200000 -0.083024 0
1.205000 -0.080728 0
1.210000 -0.077759 0
1.215000 -0.073873 0
1.220000 -0.068777 0
1.225000 -0.062134 0
1.230000 -0.053579 0
1.235000 -0.042742 0
1.240000 -0.029288 0
1.245000 -0.012961 0
1.250000 0.006363 0
1.255000 0.028623 0
1.260000 0.053524 0
1.265000 0.080505 0
1.270000 0.108736 0
1.275000 0.137136 0
1.280000 0.164430 0
1.285000 0.189239 0
1.290000 0.210192 0
1.295000 0.226046 0
1.300000 0.235814 0
1.305000 0.238863 1
1.310000 0.234980 0
1.315000 0.224401 0
1.320000 0.207785 0
1.325000 0.186143 0
1.330000 0.160743 0
1.335000 0.132979 0
1.340000 0.104248 0
1.345000 0.075818 0
1.350000 0.048692 0
1.355000 0.023420 0
1.360000 -0.000198 0
1.365000 -0.023527 0
1.370000 -0.049377 0
1.375000 -0.081557 0
1.380000 -0.122977 0
1.385000 -0.172336 0
1.390000 -0.220948 0
1.395000 -0.252111 2
1.400000 -0.244037 0
1.405000 -0.174748 0
1.410000 -0.027241 0
1.415000 0.203696 0
1.420000 0.500782 0
1.425000 0.814318 0
1.430000 1.066378 0
1.435000 1.178083 3
1.440000 1.108966 0
1.445000 0.879353 0
1.450000 0.557135 0
1.455000 0.223721 0
1.460000 -0.057764 0
1.465000 -0.254235 0
1.470000 -0.358230 0
1.475000 -0.379963 4
1.480000 -0.341591 0
1.485000 -0.271288 0
1.490000 -0.195226 0
1.495000 -0.130489 0
1.500000 -0.082948 0
1.505000 -0.050292 0
1.510000 -0.026974 0
1.515000 -0.007870 0
1.520000 0.010351 0
1.525000 0.029383 0
1.530000 0.049905 0
1.535000 0.072095 0
1.540000 0.095905 0
1.545000 0.121170 0
1.550000 0.147646 0
1.555000 0.175023 0
1.560000 0.202925 0
1.565000 0.230922 0
1.570000 0.258537 0
1.575000 0.285257 0
1.580000 0.310549 0
1.585000 0.333879 0
1.590000 0.354727 0
1.595000 0.372606 0
1.600000 0.387083 0
1.605000 0.397795 0
1.610000 0.404461 0
1.615000 0.406898 5
1.620000 0.405027 0
1.625000 0.398876 0
1.630000 0.388579 0
1.635000 0.374374 0
1.640000 0.356589 0
1.645000 0.335631 0
1.650000 0.311972 0
1.655000 0.286129 0
1.660000 0.258644 0
1.665000 0.230069 0
1.670000 0.200945 0
1.675000 0.171783 0
1.680000 0.143057 0
1.685000 0.115184 0
1.690000 0.088524 0
1.695000 0.063368 0
1.700000 0.039942 0
1.705000 0.018401 0
1.710000 -0.001159 0
1.715000 -0.018704 0
1.720000 -0.034248 0
1.725000 -0.047850 0
1.730000 -0.059605 0
1.735000 -0.069630 0
1.740000 -0.078066 0
1.745000 -0.085061 0
1.750000 -0.090770 0
1.755000 -0.095345 0
1.760000 -0.098934 0
1.765000 -0.101678 0
1.770000 -0.103705 0
1.775000 -0.105130 0
1.780000 -0.106058 0
1.785000 -0.106578 0
1.790000 -0.106769 0
1.795000 -0.106697 0
1.800000 -0.106319 0
1.805000 -0.105365 0
1.810000 -0.104417 0
1.815000 -0.103473 0
1.820000 -0.102534 0
1.825000 -0.101600 0
1.830000 -0.100670 0
1.835000 -0.099745 0
1.840000 -0.098824 0
1.845000 -0.097908 0
1.850000 -0.096997 0
1.855000 -0.096090 0
1.860000 -0.095187 0
1.865000 -0.094288 0
1.870000 -0.093392 0
1.875000 -0.092497 0
1.880000 -0.091603 0
1.885000 -0.090704 0
1.890000 -0.089794 0
1.895000 -0.088864 0
1.900000 -0.087895 0
1.905000 -0.086863 0
1.910000 -0.085725 0
1.915000 -0.084425 0
1.920000 -0.082877 0
1.925000 -0.080965 0
1.930000 -0.078533 0
1.935000 -0.075378 0
1.940000 -0.071249 0
1.945000 -0.065847 0
1.950000 -0.058832 0
1.955000 -0.049839 0
1.960000 -0.038509 0
1.965000 -0.024522 0
1.970000 -0.007647 0
1.975000 0.012207 0
1.980000 0.034942 0
1.985000 0.060223 0
1.990000 0.087454 0
1.995000 0.115773 0
2.000000 0.144081 0
2.005000 0.171101 0
2.010000 0.195467 0
2.015000 0.215836 0
2.020000 0.231009 0
2.025000 0.240048 0
2.030000 0.242371 1
2.035000 0.237815 0
2.040000 0.226653 0
2.045000 0.209570 0
2.050000 0.187587 0
2.055000 0.161968 0
2.060000 0.134093 0
2.065000 0.105334 0
2.070000 0.076931 0
2.075000 0.049860 0
2.080000 0.024638 0
2.085000 0.001041 0
2.090000 -0.022310 0
2.095000 -0.048210 0
2.100000 -0.080421 0
2.105000 -0.121810 0
2.110000 -0.171122 0
2.115000 -0.219884 0
2.120000 -0.251755 2
2.125000 -0.245313 0
2.130000 -0.178812 0
2.135000 -0.035183 0
2.140000 0.191474 0
2.145000 0.485626 0
2.150000 0.800303 0
2.155000 1.059914 0
2.160000 1.185363 3
2.165000 1.131963 0
2.170000 0.913978 0
2.175000 0.596400 0
2.180000 0.261031 0
2.185000 -0.026605 0
2.190000 -0.230869 0
2.195000 -0.342458 0
2.200000 -0.370363 4
2.205000 -0.335969 0
2.210000 -0.267268 0
2.215000 -0.190935 0
2.220000 -0.124976 0
2.225000 -0.076114 0
2.230000 -0.042511 0
2.235000 -0.018710 0
2.240000 0.000530 0
2.245000 0.018693 0
2.250000 0.037580 0
2.255000 0.057929 0
2.260000 0.079943 0
2.265000 0.103587 0
2.270000 0.128703 0
2.275000 0.155052 0
2.280000 0.182327 0
2.285000 0.210158 0
2.290000 0.238117 0
2.295000 0.265730 0
2.300000 0.292486 0
2.305000 0.317853 0
2.310000 0.341294 0
2.315000 0.362287 0
2.320000 0.380343 0
2.325000 0.395023 0
2.330000 0.405958 0
2.335000 0.412862 0
2.340000 0.415544 5
2.345000 0.413917 0
2.350000 0.408003 0
2.355000 0.397929 0
2.360000 0.383926 0
2.365000 0.366318 0
2.370000 0.345507 0
2.375000 0.321962 0
2.380000 0.296198 0
2.385000 0.268757 0
2.390000 0.240192 0
2.395000 0.211044 0
2.400000 0.181830 0
2.405000 0.153023 0
2.410000 0.125048 0
2.415000 0.098267 0
2.420000 0.072976 0
2.425000 0.049403 0
2.430000 0.027711 0
2.435000 0.007997 0
2.440000 -0.009701 0
2.445000 -0.025396 0
2.450000 -0.039142 0
2.455000 -0.051034 0
2.460000 -0.061189 0
2.465000 -0.069745 0
2.470000 -0.076852 0
2.475000 -0.082663 0
2.480000 -0.087332 0
2.485000 -0.091007 0
2.490000 -0.093829 0
2.495000 -0.095927 0
2.500000 -0.097418 0
2.505000 -0.098406 0
2.510000 -0.098982 0
2.515000 -0.099225 0
2.520000 -0.099202 0
2.525000 -0.098868 0
2.530000 -0.097952 0
2.535000 -0.097040 0
2.540000 -0.096133 0
2.545000 -0.095231 0
2.550000 -0.094333 0
2.555000 -0.093439 0
2.560000 -0.092550 0
2.565000 -0.091666 0
2.570000 -0.090786 0
2.575000 -0.089910 0
2.580000 -0.089038 0
2.585000 -0.088170 0
2.590000 -0.087306 0
2.595000 -0.086445 0
2.600000 -0.085585 0
2.605000 -0.084725 0
2.610000 -0.083861 0
2.615000 -0.082987 0
2.620000 -0.082091 0
2.625000 -0.081158 0
2.630000 -0.080162 0
2.635000 -0.079063 0
2.640000 -0.077802 0
2.645000 -0.076298 0
2.650000 -0.074433 0
2.655000 -0.072053 0
2.660000 -0.068957 0
2.665000 -0.064895 0
2.670000 -0.059568 0
2.675000 -0.052638 0
2.680000 -0.043740 0
2.685000 -0.032513 0
2.690000 -0.018635 0
2.695000 -0.001873 0
2.700000 0.017871 0
2.705000 0.040503 0
2.710000 0.065694 0
2.715000 0.092855 0
2.720000 0.121129 0
2.725000 0.149421 0
2.730000 0.176457 0
2.735000 0.200869 0
2.740000 0.221312 0
2.745000 0.236579 0
2.750000 0.245726 0
2.755000 0.248161 1
2.760000 0.243712 0
2.765000 0.232645 0
2.770000 0.215636 0
2.775000 0.193704 0
2.780000 0.168110 0
2.785000 0.140233 0
2.790000 0.111450 0
2.795000 0.083005 0
2.800000 0.055879 0
2.805000 0.030601 0
2.810000 0.006959 0
2.815000 -0.016408 0
2.820000 -0.042278 0
2.825000 -0.074414 0
2.830000 -0.115715 0
2.835000 -0.164996 0
2.840000 -0.213867 0
2.845000 -0.246046 2
2.850000 -0.240118 0
2.855000 -0.174292 0
2.860000 -0.031411 0
2.865000 0.194566 0
2.870000 0.488311 0
2.875000 0.803055 0
2.880000 1.063267 0
2.885000 1.189668 3
2.890000 1.136613 0
2.895000 0.917426 0
2.900000 0.598741 0
2.905000 0.264000 0
2.910000 -0.020722 0
2.915000 -0.220256 0
2.920000 -0.326238 0
2.925000 -0.348793 4
2.930000 -0.310483 0
2.935000 -0.240110 0
2.940000 -0.164334 0
2.945000 -0.100337 0
2.950000 -0.053749 0
2.955000 -0.021943 0
2.960000 0.000796 0
2.965000 0.019600 0
2.970000 0.037719 0
2.975000 0.056762 0
2.980000 0.077351 0
2.985000 0.099631 0
2.990000 0.123535 0
2.995000 0.148881 0
3.000000 0.175410 0
3.005000 0.202791 0
3.010000 0.230632 0
3.015000 0.258481 0
3.020000 0.285844 0
3.025000 0.312189 0
3.030000 0.336970 0
3.035000 0.359641 0
3.040000 0.379677 0
3.045000 0.396593 0
3.050000 0.409962 0
3.055000 0.419434 0
3.060000 0.424750 0
3.065000 0.425754 5
3.070000 0.422399 0
3.075000 0.414748 0
3.080000 0.402974 0
3.085000 0.387354 0
3.090000 0.368253 0
3.095000 0.346115 0
3.100000 0.321441 0
3.105000 0.294773 0
3.110000 0.266671 0
3.115000 0.237698 0
3.120000 0.208395 0
3.125000 0.179271 0
3.130000 0.150786 0
3.135000 0.123340 0
3.140000 0.097268 0
3.145000 0.072837 0
3.150000 0.050241 0
3.155000 0.029609 0
3.160000 0.011005 0
3.165000 -0.005564 0
3.170000 -0.020137 0
3.175000 -0.032796 0
3.180000 -0.043651 0
3.185000 -0.052838 0
3.190000 -0.060504 0
3.195000 -0.066808 0
3.200000 -0.071905 0
3.205000 -0.075950 0
3.210000 -0.079090 0
3.215000 -0.081459 0
3.220000 -0.083181 0
3.225000 -0.084366 0
3.230000 -0.085112 0
3.235000 -0.085501 0
3.240000 -0.085604 0
3.245000 -0.085376 0
3.250000 -0.084527 0
3.255000 -0.083683 0
3.260000 -0.082843 0
3.265000 -0.082006 0
3.270000 -0.081174 0
3.275000 -0.080347 0
3.280000 -0.079523 0
3.285000 -0.078703 0
3.290000 -0.077888 0
3.295000 -0.077076 0
3.300000 -0.076268 0
3.305000 -0.075464 0
3.310000 -0.074664 0
3.315000 -0.073866 0
3.320000 -0.073069 0
3.325000 -0.072272 0
3.330000 -0.071470 0
3.335000 -0.070658 0
3.340000 -0.069825 0
3.345000 -0.068954 0
3.350000 -0.068019 0
3.355000 -0.066979 0
3.360000 -0.065775 0
3.365000 -0.064321 0
3.370000 -0.062497 0
3.375000 -0.060144 0
3.380000 -0.057053 0
3.385000 -0.052967 0
3.390000 -0.047575 0
3.395000 -0.040529 0
3.400000 -0.031455 0
3.405000 -0.019988 0
3.410000 -0.005805 0
3.415000 0.011317 0
3.420000 0.031453 0
3.425000 0.054474 0
3.430000 0.080003 0
3.435000 0.107390 0
3.440000 0.135713 0
3.445000 0.163812 0
3.450000 0.190357 0
3.455000 0.213945 0
3.460000 0.233223 0
3.465000 0.247011 0
3.470000 0.254425 0
3.475000 0.254967 1
3.480000 0.248581 0
3.485000 0.235661 0
3.490000 0.217007 0
3.495000 0.193748 0
3.500000 0.167223 0
3.505000 0.138853 0
3.510000 0.110015 0
3.515000 0.081903 0
3.520000 0.055381 0
3.525000 0.030753 0
3.530000 0.007406 0
3.535000 -0.016602 0
3.540000 -0.044633 0
3.545000 -0.080485 0
3.550000 -0.125799 0
3.555000 -0.176470 0
3.560000 -0.220225 0
3.565000 -0.237525 2
3.570000 -0.205683 0
3.575000 -0.104036 0
3.580000 0.080444 0
3.585000 0.344552 0
3.590000 0.657096 0
3.595000 0.953331 0
3.600000 1.149613 0
3.605000 1.179329 3
3.610000 1.028043 0
3.615000 0.742183 0
3.620000 0.404625 0
3.625000 0.093442 0
3.630000 -0.142242 0
3.635000 -0.284008 0
3.640000 -0.335763 4
3.645000 -0.316450 0
3.650000 -0.254088 0
3.655000 -0.177719 0
3.660000 -0.108763 0
3.665000 -0.056708 0
3.670000 -0.020991 0
3.675000 0.003768 0
3.680000 0.023228 0
3.685000 0.041276 0
3.690000 0.059950 0
3.695000 0.080090 0
3.700000 0.101933 0
3.705000 0.125447 0
3.710000 0.150469 0
3.715000 0.176750 0
3.720000 0.203965 0
3.725000 0.231724 0
3.730000 0.259576 0
3.735000 0.287021 0
3.740000 0.313520 0
3.745000 0.338517 0
3.750000 0.361450 0
3.755000 0.381779 0
3.760000 0.399001 0
3.765000 0.412674 0
3.770000 0.422432 0
3.775000 0.428002 0
3.780000 0.429218 5
3.785000 0.426023 0
3.790000 0.418479 0
3.795000 0.406760 0
3.800000 0.391145 0
3.805000 0.372009 0
3.810000 0.349805 0
3.815000 0.325047 0
3.820000 0.298289 0
3.825000 0.270106 0
3.830000 0.241071 0
3.835000 0.211737 0
3.840000 0.182622 0
3.845000 0.154190 0
3.850000 0.126846 0
3.855000 0.100926 0
3.860000 0.076691 0
3.865000 0.054334 0
3.870000 0.033975 0
3.875000 0.015671 0
3.880000 -0.000578 0
3.885000 -0.014822 0
3.890000 -0.027149 0
3.895000 -0.037680 0
3.900000 -0.046555 0
3.905000 -0.053929 0
3.910000 -0.059962 0
3.915000 -0.064815 0
3.920000 -0.068644 0
3.925000 -0.071595 0
3.930000 -0.073804 0
3.935000 -0.075394 0
3.940000 -0.076472 0
3.945000 -0.077133 0
3.950000 -0.077459 0
3.955000 -0.077517 0
3.960000 -0.077271 0
3.965000 -0.076463 0
3.970000 -0.075658 0
3.975000 -0.074858 0
3.980000 -0.074062 0
3.985000 -0.073269 0
3.990000 -0.072481 0
3.995000 -0.071697 0
4.000000 -0.070916 0
4.005000 -0.070139 0
4.010000 -0.069366 0
4.015000 -0.068597 0
4.020000 -0.067831 0
4.025000 -0.067067 0
4.030000 -0.066306 0
4.035000 -0.065545 0
4.040000 -0.064782 0
4.045000 -0.064010 0
4.050000 -0.063223 0
4.055000 -0.062405 0
4.060000 -0.061535 0
4.065000 -0.060576 0
4.070000 -0.059478 0
4.075000 -0.058163 0
4.080000 -0.056524 0
4.085000 -0.054411 0
4.090000 -0.051630 0
4.095000 -0.047935 0
4.100000 -0.043026 0
4.105000 -0.036556 0
4.110000 -0.028149 0
4.115000 -0.017424 0
4.120000 -0.004035 0
4.125000 0.012281 0
4.130000 0.031644 0
4.135000 0.053979 0
4.140000 0.078965 0
4.145000 0.105999 0
4.150000 0.134197 0
4.155000 0.162417 0
4.160000 0.189324 0
4.165000 0.213489 0
4.170000 0.233509 0
4.175000 0.248141 0
4.180000 0.256431 0
4.185000 0.257811 1
4.190000 0.252167 0
4.195000 0.239852 0
4.200000 0.221646 0
4.205000 0.198679 0
4.210000 0.172306 0
4.215000 0.143983 0
4.220000 0.115120 0
4.225000 0.086951 0
4.230000 0.060372 0
4.235000 0.035706 0
4.240000 0.012335 0
4.245000 -0.011737 0
4.250000 -0.039965 0
4.255000 -0.076210 0
4.260000 -0.121981 0
4.265000 -0.172690 0
4.270000 -0.215256 0
4.275000 -0.229294 2
4.280000 -0.191579 0
4.285000 -0.081460 0
4.290000 0.113086 0
4.295000 0.385972 0
4.300000 0.700798 0
4.305000 0.987116 0
4.310000 1.159400 3
4.315000 1.156460 0
4.320000 0.975266 0
4.325000 0.672848 0
4.330000 0.335100 0
4.335000 0.036447 0
4.340000 -0.180111 0
4.345000 -0.301418 0
4.350000 -0.335244 4
4.355000 -0.303386 0
4.360000 -0.235268 0
4.365000 -0.159174 0
4.370000 -0.094017 0
4.375000 -0.046487 0
4.380000 -0.014236 0
4.385000 0.008605 0
4.390000 0.027381 0
4.395000 0.045470 0
4.400000 0.064523 0
4.405000 0.085163 0
4.410000 0.107528 0
4.415000 0.131536 0
4.420000 0.156993 0
4.425000 0.183621 0
4.430000 0.211070 0
4.435000 0.238923 0
4.440000 0.266707 0
4.445000 0.293897 0
4.450000 0.319942 0
4.455000 0.344272 0
4.460000 0.366325 0
4.465000 0.385565 0
4.470000 0.401502 0
4.475000 0.413716 0
4.480000 0.421871 0
4.485000 0.425732 5
4.490000 0.425173 0
4.495000 0.420186 0
4.500000 0.410880 0
4.505000 0.397478 0
4.510000 0.380306 0
4.515000 0.359778 0
4.520000 0.336384 0
4.525000 0.310665 0
4.530000 0.283194 0
4.535000 0.254556 0
4.540000 0.225323 0
4.545000 0.196041 0
4.550000 0.167210 0
4.555000 0.139273 0
4.560000 0.112606 0
4.565000 0.087511 0
4.570000 0.064220 0
4.575000 0.042888 0
4.580000 0.023605 0
4.585000 0.006395 0
4.590000 -0.008768 0
4.595000 -0.021956 0
4.600000 -0.033279 0
4.605000 -0.042870 0
4.610000 -0.050881 0
4.615000 -0.057472 0
4.620000 -0.062807 0
4.625000 -0.067046 0
4.630000 -0.070342 0
4.635000 -0.072837 0
4.640000 -0.074660 0
4.645000 -0.075927 0
4.650000 -0.076740 0
4.655000 -0.077185 0
4.660000 -0.077337 0
4.665000 -0.077152 0
4.670000 -0.076344 0
4.675000 -0.075540 0
4.680000 -0.074741 0
4.685000 -0.073945 0
4.690000 -0.073153 0
4.695000 -0.072365 0
4.700000 -0.071581 0
4.705000 -0.070801 0
4.710000 -0.070025 0
4.715000 -0.069253 0
4.720000 -0.068484 0
4.725000 -0.067719 0
4.730000 -0.066956 0
4.735000 -0.066196 0
4.740000 -0.065437 0
4.745000 -0.064676 0
4.750000 -0.063909 0
4.755000 -0.063128 0
4.760000 -0.062321 0
4.765000 -0.061466 0
4.770000 -0.060534 0
4.775000 -0.059473 0
4.780000 -0.058214 0
4.785000 -0.056654 0
4.790000 -0.054653 0
4.795000 -0.052022 0
4.800000 -0.048522 0
4.805000 -0.043860 0
4.810000 -0.037693 0
4.815000 -0.029642 0
4.820000 -0.019321 0
4.825000 -0.006370 0
4.830000 0.009495 0
4.835000 0.028420 0
4.840000 0.050363 0
4.845000 0.075032 0
4.850000 0.101857 0
4.855000 0.129977 0
4.860000 0.158262 0
4.865000 0.185378 0
4.870000 0.209882 0
4.875000 0.230344 0
4.880000 0.245484 0
4.885000 0.254306 0
4.890000 0.256202 1
4.895000 0.251022 0
4.900000 0.239092 0
4.905000 0.221178 0
4.910000 0.198409 0
4.915000 0.172150 0
4.920000 0.143874 0
4.925000 0.115013 0
4.930000 0.086825 0
4.935000 0.060223 0
4.940000 0.035547 0
4.945000 0.012175 0
4.950000 -0.011913 0
4.955000 -0.040223 0
4.960000 -0.076654 0
4.965000 -0.122644 0
4.970000 -0.173338 0
4.975000 -0.215207 0
4.980000 -0.227396 2
4.985000 -0.186382 0
4.990000 -0.071540 0
4.995000 0.128538 0
5.000000 0.406038 0
5.005000 0.721534 0
5.010000 1.001460 0
5.015000 1.159628 3
5.020000 1.138004 0
5.025000 0.939851 0
5.030000 0.628882 0
5.035000 0.292531 0
5.040000 0.002815 0
5.045000 -0.201011 0
5.050000 -0.309011 0
5.055000 -0.331430 4
5.060000 -0.291949 0
5.065000 -0.220810 0
5.070000 -0.145587 0
5.075000 -0.083362 0
5.080000 -0.038955 0
5.085000 -0.008944 0
5.090000 0.012744 0
5.095000 0.031176 0
5.100000 0.049374 0
5.105000 0.068737 0
5.110000 0.089758 0
5.115000 0.112509 0
5.120000 0.136879 0
5.125000 0.162648 0
5.130000 0.189518 0
5.135000 0.217116 0
5.140000 0.245004 0
5.145000 0.272689 0
5.150000 0.299630 0
5.155000 0.325262 0
5.160000 0.349007 0
5.165000 0.370301 0
5.170000 0.388613 0
5.175000 0.403466 0
5.180000 0.414458 0
5.185000 0.421278 0
5.190000 0.423723 5
5.195000 0.421704 0
5.200000 0.415252 0
5.205000 0.404517 0
5.210000 0.389762 0
5.215000 0.371349 0
5.220000 0.349728 0
5.225000 0.325417 0
5.230000 0.298977 0
5.235000 0.270997 0
5.240000 0.242066 0
5.245000 0.212755 0
5.250000 0.183602 0
5.255000 0.155090 0
5.260000 0.127641 0
5.265000 0.101607 0
5.270000 0.077262 0
5.275000 0.054808 0
5.280000 0.034373 0
5.285000 0.016018 0
5.290000 -0.000257 0
5.295000 -0.014500 0
5.300000 -0.026804 0
5.305000 -0.037292 0
5.310000 -0.046107 0
5.315000 -0.053410 0
5.320000 -0.059365 0
5.325000 -0.064136 0
5.330000 -0.067884 0
5.335000 -0.070756 0
5.340000 -0.072891 0
5.345000 -0.074413 0
5.350000 -0.075431 0
5.355000 -0.076041 0
5.360000 -0.076322 0
5.365000 -0.076344 0
5.370000 -0.075660 0
5.375000 -0.074859 0
5.380000 -0.074063 0
5.385000 -0.073270 0
5.390000 -0.072482 0
5.395000 -0.071698 0
5.400000 -0.070917 0
5.405000 -0.070140 0
5.410000 -0.069367 0
5.415000 -0.068598 0
5.420000 -0.067833 0
5.425000 -0.067071 0
5.430000 -0.066312 0
5.435000 -0.065556 0
5.440000 -0.064801 0
5.445000 -0.064046 0
5.450000 -0.063286 0
5.455000 -0.062515 0
5.460000 -0.061722 0
5.465000 -0.060890 0
5.470000 -0.059990 0
5.475000 -0.058979 0
5.480000 -0.057793 0
5.485000 -0.056337 0
5.490000 -0.054482 0
5.495000 -0.052052 0
5.500000 -0.048819 0
5.505000 -0.044500 0
5.510000 -0.038760 0
5.515000 -0.031225 0
5.520000 -0.021499 0
5.525000 -0.009209 0
5.530000 0.005957 0
5.535000 0.024184 0
5.540000 0.045478 0
5.545000 0.069604 0
5.550000 0.096045 0
5.555000 0.123989 0
5.560000 0.152343 0
5.565000 0.179789 0
5.570000 0.204875 0
5.575000 0.226143 0
5.580000 0.242259 0
5.585000 0.252157 0
5.590000 0.255152 1
5.595000 0.251016 0
5.600000 0.240010 0
5.605000 0.222852 0
5.610000 0.200639 0
5.615000 0.174733 0
5.620000 0.146618 0
5.625000 0.117759 0
5.630000 0.089453 0
5.635000 0.062674 0
5.640000 0.037832 0
5.645000 0.014404 0
5.650000 -0.009526 0
5.655000 -0.037411 0
5.660000 -0.073243 0
5.665000 -0.118747 0
5.670000 -0.169453 0
5.675000 -0.212105 0
5.680000 -0.225826 2
5.685000 -0.186792 0
5.690000 -0.073942 0
5.695000 0.124597 0
5.700000 0.401352 0
5.705000 0.716793 0
5.710000 0.996567 0
5.715000 1.153441 3
5.720000 1.129542 0
5.725000 0.929691 0
5.730000 0.618021 0
5.735000 0.281860 0
5.740000 -0.007162 0
5.745000 -0.210155 0
5.750000 -0.317404 0
5.755000 -0.339265 4
5.760000 -0.299455 0
5.765000 -0.228186 0
5.770000 -0.152954 0
5.775000 -0.090757 0
5.780000 -0.046365 0
5.785000 -0.016344 0
5.790000 0.005372 0
5.795000 0.023840 0
5.800000 0.042075 0
5.805000 0.061473 0
5.810000 0.082527 0
5.815000 0.105311 0
5.820000 0.129712 0
5.825000 0.155511 0
5.830000 0.182412 0
5.835000 0.210042 0
5.840000 0.237965 0
5.845000 0.265687 0
5.850000 0.292670 0
5.855000 0.318348 0
5.860000 0.342146 0
5.865000 0.363500 0
5.870000 0.381878 0
5.875000 0.396805 0
5.880000 0.407878 0
5.885000 0.414785 0
5.890000 0.417322 5
5.895000 0.415399 0
5.900000 0.409044 0
5.905000 0.398407 0
5.910000 0.383746 0
5.915000 0.365424 0
5.920000 0.343888 0
5.925000 0.319654 0
5.930000 0.293281 0
5.935000 0.265357 0
5.940000 0.236471 0
5.945000 0.207194 0
5.950000 0.178063 0
5.955000 0.149562 0
5.960000 0.122114 0
5.965000 0.096072 0
5.970000 0.071712 0
5.975000 0.049237 0
5.980000 0.028777 0
5.985000 0.010394 0
5.990000 -0.005909 0
5.995000 -0.020181 0
6.000000 -0.032511 0
6.005000 -0.043022 0
6.010000 -0.051858 0
6.015000 -0.059177 0
6.020000 -0.065144 0
6.025000 -0.069923 0
6.030000 -0.073674 0
6.035000 -0.076545 0
6.040000 -0.078675 0
6.045000 -0.080189 0
6.050000 -0.081195 0
6.055000 -0.081789 0
6.060000 -0.082054 0
6.065000 -0.082056 0
6.070000 -0.081344 0
6.075000 -0.080516 0
6.080000 -0.079691 0
6.085000 -0.078871 0
6.090000 -0.078054 0
6.095000 -0.077242 0
6.100000 -0.076434 0
6.105000 -0.075630 0
6.110000 -0.074829 0
6.115000 -0.074033 0
6.120000 -0.073241 0
6.125000 -0.072452 0
6.130000 -0.071666 0
6.135000 -0.070883 0
6.140000 -0.070102 0
6.145000 -0.069321 0
6.150000 -0.068535 0
6.155000 -0.067739 0
6.160000 -0.066922 0
6.165000 -0.066067 0
6.170000 -0.065146 0
6.175000 -0.064117 0
6.180000 -0.062918 0
6.185000 -0.061456 0
6.190000 -0.059603 0
6.195000 -0.057188 0
6.200000 -0.053986 0
6.205000 -0.049718 0
6.210000 -0.044052 0
6.215000 -0.036616 0
6.220000 -0.027016 0
6.225000 -0.014876 0
6.230000 0.000119 0
6.235000 0.018168 0
6.240000 0.039287 0
6.245000 0.063259 0
6.250000 0.089589 0
6.255000 0.117485 0
6.260000 0.145873 0
6.265000 0.173451 0
6.270000 0.198776 0
6.275000 0.220385 0
6.280000 0.236935 0
6.285000 0.247337 0
6.290000 0.250877 1
6.295000 0.247291 0
6.300000 0.236804 0
6.305000 0.220101 0
6.310000 0.198252 0
6.315000 0.172601 0
6.320000 0.144626 0
6.325000 0.115796 0
6.330000 0.087426 0
6.335000 0.060521 0
6.340000 0.035546 0
6.345000 0.012074 0
6.350000 -0.011680 0
6.355000 -0.039055 0
6.360000 -0.074072 0
6.365000 -0.118792 0
6.370000 -0.169423 0
6.375000 -0.213493 0
6.380000 -0.230668 2
6.385000 -0.197189 0
6.390000 -0.091550 0
6.395000 0.099256 0
6.400000 0.370035 0
6.405000 0.684599 0
6.410000 0.971392 0
6.415000 1.142877 3
6.420000 1.136707 0
6.425000 0.951997 0
6.430000 0.648588 0
6.435000 0.310918 0
6.440000 0.011952 0
6.445000 -0.205935 0
6.450000 -0.329472 0
6.455000 -0.365877 4
6.460000 -0.336166 0
6.465000 -0.269059 0
6.470000 -0.192621 0
6.475000 -0.126151 0
6.480000 -0.077029 0
6.485000 -0.043469 0
6.490000 -0.019815 0
6.495000 -0.000664 0
6.500000 0.017521 0
6.505000 0.036524 0
6.510000 0.057052 0
6.515000 0.079285 0
6.520000 0.103165 0
6.525000 0.128515 0
6.530000 0.155077 0
6.535000 0.182519 0
6.540000 0.210444 0
6.545000 0.238397 0
6.550000 0.265874 0
6.555000 0.292337 0
6.560000 0.317231 0
6.565000 0.340000 0
6.570000 0.360110 0
6.575000 0.377068 0
6.580000 0.390442 0
6.585000 0.399877 0
6.590000 0.405115 0
6.595000 0.405999 5
6.600000 0.402487 0
6.605000 0.394651 0
6.610000 0.382673 0
6.615000 0.366842 0
6.620000 0.347537 0
6.625000 0.325215 0
6.630000 0.300389 0
6.635000 0.273614 0
6.640000 0.245462 0
6.645000 0.216501 0
6.650000 0.187279 0
6.655000 0.158307 0
6.660000 0.130043 0
6.665000 0.102885 0
6.670000 0.077163 0
6.675000 0.053134 0
6.680000 0.030984 0
6.685000 0.010830 0
6.690000 -0.007275 0
6.695000 -0.023333 0
6.700000 -0.037395 0
6.705000 -0.049550 0
6.710000 -0.059919 0
6.715000 -0.068641 0
6.720000 -0.075872 0
6.725000 -0.081770 0
6.730000 -0.086496 0
6.735000 -0.090203 0
6.740000 -0.093037 0
6.745000 -0.095134 0
6.750000 -0.096614 0
6.755000 -0.097585 0
6.760000 -0.098141 0
6.765000 -0.098364 0
6.770000 -0.098320 0
6.775000 -0.097971 0
6.780000 -0.097060 0
6.785000 -0.096153 0
6.790000 -0.095250 0
6.795000 -0.094352 0
6.800000 -0.093459 0
6.805000 -0.092569 0
6.810000 -0.091685 0
6.815000 -0.090804 0
6.820000 -0.089928 0
6.825000 -0.089057 0
6.830000 -0.088189 0
6.835000 -0.087325 0
6.840000 -0.086465 0
6.845000 -0.085607 0
6.850000 -0.084750 0
6.855000 -0.083891 0
6.860000 -0.083026 0
6.865000 -0.082145 0
6.870000 -0.081236 0
6.875000 -0.080277 0
6.880000 -0.079233 0
6.885000 -0.078056 0
6.890000 -0.076670 0
6.895000 -0.074971 0
6.900000 -0.072816 0
6.905000 -0.070015 0
6.910000 -0.066328 0
6.915000 -0.061461 0
6.920000 -0.055075 0
6.925000 -0.046798 0
6.930000 -0.036249 0
6.935000 -0.023079 0
6.940000 -0.007016 0
6.945000 0.012080 0
6.950000 0.034159 0
6.955000 0.058933 0
6.960000 0.085838 0
6.965000 0.114029 0
6.970000 0.142401 0
6.975000 0.169648 0
6.980000 0.194356 0
6.985000 0.215118 0
6.990000 0.230670 0
6.995000 0.240015 0
7.000000 0.242527 1
7.005000 0.238024 0
7.010000 0.226786 0
7.015000 0.209527 0
7.020000 0.187321 0
7.025000 0.161489 0
7.030000 0.133469 0
7.035000 0.104681 0
7.040000 0.076392 0
7.045000 0.049563 0
7.050000 0.024641 0
7.055000 0.001213 0
7.060000 -0.022426 0
7.065000 -0.049473 0
7.070000 -0.083848 0
7.075000 -0.127791 0
7.080000 -0.178204 0
7.085000 -0.223807 0
7.090000 -0.245527 2
7.095000 -0.220419 0
7.100000 -0.126979 0
7.105000 0.049194 0
7.110000 0.306954 0
7.115000 0.617566 0
7.120000 0.917802 0
7.125000 1.123044 0
7.130000 1.163246 3
7.135000 1.021492 0
7.140000 0.742909 0
7.145000 0.406537 0
7.150000 0.089600 0
7.155000 -0.157032 0
7.160000 -0.312272 0
7.165000 -0.377340 4
7.170000 -0.368583 0
7.175000 -0.312016 0
7.180000 -0.236226 0
7.185000 -0.164046 0
7.190000 -0.107329 0
7.195000 -0.067503 0
7.200000 -0.040079 0
7.205000 -0.019348 0
7.210000 -0.000969 0
7.215000 0.017535 0
7.220000 0.037285 0
7.225000 0.058665 0
7.230000 0.081716 0
7.235000 0.106321 0
7.240000 0.132271 0
7.245000 0.159282 0
7.250000 0.187004 0
7.255000 0.215030 0
7.260000 0.242896 0
7.265000 0.270098 0
7.270000 0.296108 0
7.275000 0.320381 0
7.280000 0.342385 0
7.285000 0.361611 0
7.290000 0.377596 0
7.295000 0.389940 0
7.300000 0.398324 0
7.305000 0.402520 5
7.310000 0.402406 0
7.315000 0.397965 0
7.320000 0.389291 0
7.325000 0.376584 0
7.330000 0.360140 0
7.335000 0.340343 0
7.340000 0.317647 0
7.345000 0.292559 0
7.350000 0.265620 0
7.355000 0.237385 0
7.360000 0.208408 0
7.365000 0.179217 0
7.370000 0.150305 0
7.375000 0.122114 0
7.380000 0.095029 0
7.385000 0.069366 0
7.390000 0.045375 0
7.395000 0.023236 0
7.400000 0.003064 0
7.405000 -0.015087 0
7.410000 -0.031219 0
7.415000 -0.045378 0
7.420000 -0.057649 0
7.425000 -0.068146 0
7.430000 -0.077005 0
7.435000 -0.084374 0
7.440000 -0.090407 0
7.445000 -0.095261 0
7.450000 -0.099087 0
7.455000 -0.102027 0
7.460000 -0.104215 0
7.465000 -0.105772 0
7.470000 -0.106805 0
7.475000 -0.107408 0
7.480000 -0.107663 0
7.485000 -0.107640 0
7.490000 -0.107292 0
7.495000 -0.106333 0
7.500000 -0.105380 0
7.505000 -0.104432 0
7.510000 -0.103488 0
7.515000 -0.102549 0
7.520000 -0.101614 0
7.525000 -0.100684 0
7.530000 -0.099759 0
7.535000 -0.098839 0
7.540000 -0.097923 0
7.545000 -0.097011 0
7.550000 -0.096103 0
7.555000 -0.095200 0
7.560000 -0.094299 0
7.565000 -0.093401 0
7.570000 -0.092503 0
7.575000 -0.091601 0
7.580000 -0.090689 0
7.585000 -0.089758 0
7.590000 -0.088791 0
7.595000 -0.087763 0
7.600000 -0.086635 0
7.605000 -0.085350 0
7.610000 -0.083825 0
7.615000 -0.081947 0
7.620000 -0.079561 0
7.625000 -0.076466 0
7.630000 -0.072414 0
7.635000 -0.067103 0
7.640000 -0.060194 0
7.645000 -0.051320 0
7.650000 -0.040114 0
7.655000 -0.026253 0
7.660000 -0.009496 0
7.665000 0.010256 0
7.670000 0.032911 0
7.675000 0.058139 0
7.680000 0.085344 0
7.685000 0.113661 0
7.690000 0.141984 0
7.695000 0.169025 0
7.700000 0.193402 0
7.705000 0.213759 0
7.710000 0.228886 0
7.715000 0.237838 0
7.720000 0.240033 1
7.725000 0.235316 0
7.730000 0.223973 0
7.735000 0.206706 0
7.740000 0.184560 0
7.745000 0.158816 0
7.750000 0.130872 0
7.755000 0.102111 0
7.760000 0.073773 0
7.765000 0.046822 0
7.770000 0.021742 0
7.775000 -0.001766 0
7.780000 -0.025199 0
7.785000 -0.051493 0
7.790000 -0.084466 0
7.795000 -0.126778 0
7.800000 -0.176559 0
7.805000 -0.224403 0
7.810000 -0.253058 2
7.815000 -0.240596 0
7.820000 -0.165344 0
7.825000 -0.011035 0
7.830000 0.226155 0
7.835000 0.526729 0
7.840000 0.838584 0
7.845000 1.082790 0
7.850000 1.182238 3
7.855000 1.100505 0
7.860000 0.861964 0
7.865000 0.536484 0
7.870000 0.204848 0
7.875000 -0.071845 0
7.880000 -0.262488 0
7.885000 -0.360971 0
7.890000 -0.378362 4
7.895000 -0.337310 0
7.900000 -0.266029 0
7.905000 -0.190258 0
7.910000 -0.126409 0
7.915000 -0.079774 0
7.920000 -0.047751 0
7.925000 -0.024762 0
7.930000 -0.005770 0
7.935000 0.012456 0
7.940000 0.031541 0
7.945000 0.052129 0
7.950000 0.074385 0
7.955000 0.098253 0
7.960000 0.123566 0
7.965000 0.150077 0
7.970000 0.177474 0
7.975000 0.205380 0
7.980000 0.233365 0
7.985000 0.260950 0
7.990000 0.287625 0
7.995000 0.312857 0
8.000000 0.336114 0
8.005000 0.356878 0
8.010000 0.374664 0
8.015000 0.389043 0
8.020000 0.399654 0
8.025000 0.406219 0
8.030000 0.408559 5
8.035000 0.406596 0
8.040000 0.400361 0
8.045000 0.389989 0
8.050000 0.375719 0
8.055000 0.357879 0
8.060000 0.336877 0
8.065000 0.313184 0
8.070000 0.287315 0
8.075000 0.259813 0
8.080000 0.231226 0
8.085000 0.202093 0
8.090000 0.172926 0
8.095000 0.144195 0
8.100000 0.116318 0
8.105000 0.089651 0
8.110000 0.064487 0
8.115000 0.041050 0
8.120000 0.019495 0
8.125000 -0.000082 0
8.130000 -0.017646 0
8.135000 -0.033212 0
8.140000 -0.046838 0
8.145000 -0.058618 0
8.150000 -0.068669 0
8.155000 -0.077131 0
8.160000 -0.084152 0
8.165000 -0.089885 0
8.170000 -0.094484 0
8.175000 -0.098096 0
8.180000 -0.100860 0
8.185000 -0.102906 0
8.190000 -0.104348 0
8.195000 -0.105291 0
8.200000 -0.105826 0
8.205000 -0.106029 0
8.210000 -0.105967 0
8.215000 -0.105597 0
8.220000 -0.104648 0
8.225000 -0.103703 0
8.230000 -0.102762 0
8.235000 -0.101827 0
8.240000 -0.100896 0
8.245000 -0.099970 0
8.250000 -0.099048 0
8.255000 -0.098131 0
8.260000 -0.097219 0
8.265000 -0.096311 0
8.270000 -0.095407 0
8.275000 -0.094508 0
8.280000 -0.093612 0
8.285000 -0.092719 0
8.290000 -0.091828 0
8.295000 -0.090937 0
8.300000 -0.090043 0
8.305000 -0.089138 0
8.310000 -0.088212 0
8.315000 -0.087250 0
8.320000 -0.086226 0
8.325000 -0.085100 0
8.330000 -0.083816 0
8.335000 -0.082291 0
8.340000 -0.080411 0
8.345000 -0.078023 0
8.350000 -0.074930 0
8.355000 -0.070883 0
8.360000 -0.065587 0
8.365000 -0.058706 0
8.370000 -0.049878 0
8.375000 -0.038743 0
8.380000 -0.024976 0
8.385000 -0.008340 0
8.390000 0.011271 0
8.395000 0.033775 0
8.400000 0.058858 0
8.405000 0.085949 0
8.410000 0.114210 0
8.415000 0.142563 0
8.420000 0.169748 0
8.425000 0.194407 0
8.430000 0.215191 0
8.435000 0.230889 0
8.440000 0.240535 0
8.445000 0.243513 1
8.450000 0.239618 0
8.455000 0.229081 0
8.460000 0.212545 0
8.465000 0.191002 0
8.470000 0.165691 0
8.475000 0.137981 0
8.480000 0.109249 0
8.485000 0.080752 0
8.490000 0.053496 0
8.495000 0.028061 0
8.500000 0.004322 0
8.505000 -0.018946 0
8.510000 -0.044374 0
8.515000 -0.075666 0
8.520000 -0.115933 0
8.525000 -0.164590 0
8.530000 -0.214144 0
8.535000 -0.249157 2
8.540000 -0.248644 0
8.545000 -0.190693 0
8.550000 -0.057407 0
8.555000 0.158982 0
8.560000 0.446367 0
8.565000 0.762194 0
8.570000 1.033855 0
8.575000 1.180811 3
8.580000 1.152326 0
8.585000 0.954895 0
8.590000 0.647095 0
8.595000 0.309439 0
8.600000 0.010497 0
8.605000 -0.209663 0
8.610000 -0.337947 0
8.615000 -0.380427 4
8.620000 -0.356227 0
8.625000 -0.292190 0
8.630000 -0.215544 0
8.635000 -0.146268 0
8.640000 -0.093366 0
8.645000 -0.056542 0
8.650000 -0.030840 0
8.655000 -0.010820 0
8.660000 0.007424 0
8.665000 0.026042 0
8.670000 0.045981 0
8.675000 0.067548 0
8.680000 0.090756 0
8.685000 0.115480 0
8.690000 0.141505 0
8.695000 0.168551 0
8.700000 0.196271 0
8.705000 0.224262 0
8.710000 0.252070 0
8.715000 0.279204 0
8.720000 0.305145 0
8.725000 0.329364 0
8.730000 0.351341 0
8.735000 0.370579 0
8.740000 0.386627 0
8.745000 0.399091 0
8.750000 0.407657 0
8.755000 0.412098 0
8.760000 0.412287 5
8.765000 0.408199 0
8.770000 0.399918 0
8.775000 0.387626 0
8.780000 0.371604 0
8.785000 0.352215 0
8.790000 0.329893 0
8.795000 0.305126 0
8.800000 0.278439 0
8.805000 0.250373 0
8.810000 0.221467 0
8.815000 0.192245 0
8.820000 0.163195 0
8.825000 0.134763 0
8.830000 0.107336 0
8.835000 0.081241 0
8.840000 0.056739 0
8.845000 0.034024 0
8.850000 0.013226 0
8.855000 -0.005586 0
8.860000 -0.022395 0
8.865000 -0.037235 0
8.870000 -0.050177 0
8.875000 -0.061322 0
8.880000 -0.070797 0
8.885000 -0.078743 0
8.890000 -0.085308 0
8.895000 -0.090646 0
8.900000 -0.094905 0
8.905000 -0.098230 0
8.910000 -0.100754 0
8.915000 -0.102602 0
8.920000 -0.103884 0
8.925000 -0.104698 0
8.930000 -0.105130 0
8.935000 -0.105254 0
8.940000 -0.105131 0
8.945000 -0.104303 0
8.950000 -0.103360 0
8.955000 -0.102422 0
8.960000 -0.101488 0
8.965000 -0.100559 0
8.970000 -0.099634 0
8.975000 -0.098714 0
8.980000 -0.097799 0
8.985000 -0.096888 0
8.990000 -0.095982 0
8.995000 -0.095080 0
9.000000 -0.094182 0
9.005000 -0.093289 0
9.010000 -0.092399 0
9.015000 -0.091512 0
9.020000 -0.090627 0
9.025000 -0.089740 0
9.030000 -0.088850 0
9.035000 -0.087947 0
9.040000 -0.087022 0
9.045000 -0.086057 0
9.050000 -0.085025 0
9.055000 -0.083885 0
9.060000 -0.082576 0
9.065000 -0.081015 0
9.070000 -0.079082 0
9.075000 -0.076622 0
9.080000 -0.073432 0
9.085000 -0.069262 0
9.090000 -0.063814 0
9.095000 -0.056753 0
9.100000 -0.047720 0
9.105000 -0.036359 0
9.110000 -0.022358 0
9.115000 -0.005489 0
9.120000 0.014337 0
9.125000 0.037025 0
9.130000 0.062247 0
9.135000 0.089421 0
9.140000 0.117706 0
9.145000 0.146024 0
9.150000 0.173123 0
9.155000 0.197659 0
9.160000 0.218303 0
9.165000 0.233860 0
9.170000 0.243386 0
9.175000 0.246275 1
9.180000 0.242332 0
9.185000 0.231786 0
9.190000 0.215274 0
9.195000 0.193773 0
9.200000 0.168506 0
9.205000 0.140827 0
9.210000 0.112096 0
9.215000 0.083561 0
9.220000 0.056230 0
9.225000 0.030697 0
9.230000 0.006881 0
9.235000 -0.016361 0
9.240000 -0.041545 0
9.245000 -0.072300 0
9.250000 -0.111833 0
9.255000 -0.159976 0
9.260000 -0.209972 0
9.265000 -0.247205 0
9.270000 -0.251269 2
9.275000 -0.200372 0
9.280000 -0.076157 0
9.285000 0.130588 0
9.290000 0.410826 0
9.295000 0.726558 0
9.300000 1.009091 0
9.305000 1.177801 3
9.310000 1.175863 0
9.315000 1.000256 0
9.320000 0.703439 0
9.325000 0.365253 0
9.330000 0.057651 0
9.335000 -0.174942 0
9.340000 -0.316064 0
9.345000 -0.369549 4
9.350000 -0.353052 0
9.355000 -0.292799 0
9.360000 -0.216513 0
9.365000 -0.145535 0
9.370000 -0.090368 0
9.375000 -0.051710 0
9.380000 -0.024933 0
9.385000 -0.004483 0
9.390000 0.013793 0
9.395000 0.032249 0
9.400000 0.051953 0
9.405000 0.073270 0
9.410000 0.096239 0
9.415000 0.120746 0
9.420000 0.146586 0
9.425000 0.173485 0
9.430000 0.201105 0
9.435000 0.229046 0
9.440000 0.256860 0
9.445000 0.284058 0
9.450000 0.310122 0
9.455000 0.334523 0
9.460000 0.356737 0
9.465000 0.376263 0
9.470000 0.392641 0
9.475000 0.405472 0
9.480000 0.414430 0
9.485000 0.419279 0
9.490000 0.419880 5
9.495000 0.416197 0
9.500000 0.408302 0
9.505000 0.396369 0
9.510000 0.380668 0
9.515000 0.361558 0
9.520000 0.339466 0
9.525000 0.314878 0
9.530000 0.288315 0
9.535000 0.260319 0
9.540000 0.231433 0
9.545000 0.202182 0
9.550000 0.173062 0
9.555000 0.144521 0
9.560000 0.116954 0
9.565000 0.090695 0
9.570000 0.066010 0
9.575000 0.043101 0
9.580000 0.022102 0
9.585000 0.003088 0
9.590000 -0.013921 0
9.595000 -0.028953 0
9.600000 -0.042078 0
9.605000 -0.053396 0
9.610000 -0.063031 0
9.615000 -0.071123 0
9.620000 -0.077822 0
9.625000 -0.083280 0
9.630000 -0.087648 0
9.635000 -0.091070 0
9.640000 -0.093681 0
9.645000 -0.095607 0
9.650000 -0.096958 0
9.655000 -0.097835 0
9.660000 -0.098324 0
9.665000 -0.098499 0
9.670000 -0.098424 0
9.675000 -0.098058 0
9.680000 -0.097146 0
9.685000 -0.096239 0
9.690000 -0.095336 0
9.695000 -0.094437 0
9.700000 -0.093543 0
9.705000 -0.092654 0
9.710000 -0.091769 0
9.715000 -0.090888 0
9.720000 -0.090012 0
9.725000 -0.089140 0
9.730000 -0.088272 0
9.735000 -0.087408 0
9.740000 -0.086547 0
9.745000 -0.085689 0
9.750000 -0.084833 0
9.755000 -0.083976 0
9.760000 -0.083115 0
9.765000 -0.082242 0
9.770000 -0.081346 0
9.775000 -0.080412 0
9.780000 -0.079411 0
9.785000 -0.078304 0
9.790000 -0.077031 0
9.795000 -0.075508 0
9.800000 -0.073618 0
9.805000 -0.071205 0
9.810000 -0.068069 0
9.815000 -0.063960 0
9.820000 -0.058582 0
9.825000 -0.051597 0
9.830000 -0.042648 0
9.835000 -0.031378 0
9.840000 -0.017471 0
9.845000 -0.000697 0
9.850000 0.019038 0
9.855000 0.041642 0
9.860000 0.066793 0
9.865000 0.093913 0
9.870000 0.122161 0
9.875000 0.150464 0
9.880000 0.177568 0
9.885000 0.202125 0
9.890000 0.222804 0
9.895000 0.238404 0
9.900000 0.247975 0
9.905000 0.250906 1
9.910000 0.246997 0
9.915000 0.236475 0
9.920000 0.219974 0
9.925000 0.198472 0
9.930000 0.173194 0
9.935000 0.145497 0
9.940000 0.116743 0
9.945000 0.088185 0
9.950000 0.060831 0
9.955000 0.035279 0
9.960000 0.011444 0
9.965000 -0.011823 0
9.970000 -0.037050 0
9.975000 -0.067877 0
9.980000 -0.107507 0
9.985000 -0.155730 0
9.990000 -0.205705 0
9.995000 -0.242712 0
10.000000 -0.246255 2
10.005000 -0.194508 0
10.010000 -0.069151 0
10.015000 0.138855 0
10.020000 0.420073 0
10.025000 0.735866 0
10.030000 1.016941 0
10.035000 1.182592 3
10.040000 1.176734 0
10.045000 0.996026 0
10.050000 0.695173 0
10.055000 0.357076 0
10.060000 0.054593 0
10.065000 -0.168956 0
10.070000 -0.299052 0
10.075000 -0.341670 4
10.080000 -0.316639 0
10.085000 -0.251866 0
10.090000 -0.175412 0
10.095000 -0.107390 0
10.100000 -0.056300 0
10.105000 -0.021181 0
10.110000 0.003330 0
10.115000 0.022730 0
10.120000 0.040779 0
10.125000 0.059451 0
10.130000 0.079570 0
10.135000 0.101369 0
10.140000 0.124823 0
10.145000 0.149775 0
10.150000 0.175985 0
10.155000 0.203141 0
10.160000 0.230864 0
10.165000 0.258720 0
10.170000 0.286223 0
10.175000 0.312850 0
10.180000 0.338057 0
10.185000 0.361297 0
10.190000 0.382037 0
10.195000 0.399779 0
10.200000 0.414079 0
10.205000 0.424567 0
10.210000 0.430958 0
10.215000 0.433068 5
10.220000 0.430821 0
10.225000 0.424250 0
10.230000 0.413502 0
10.235000 0.398825 0
10.240000 0.380565 0
10.245000 0.359144 0
10.250000 0.335051 0
10.255000 0.308819 0
10.260000 0.281006 0
10.265000 0.252174 0
10.270000 0.222874 0
10.275000 0.193622 0
10.280000 0.164893 0
10.285000 0.137105 0
10.290000 0.110610 0
10.295000 0.085691 0
10.300000 0.062564 0
10.305000 0.041373 0
10.310000 0.022198 0
10.315000 0.005062 0
10.320000 -0.010063 0
10.325000 -0.023249 0
10.330000 -0.034600 0
10.335000 -0.044244 0
10.340000 -0.052329 0
10.345000 -0.059008 0
10.350000 -0.064440 0
10.355000 -0.068780 0
10.360000 -0.072176 0
10.365000 -0.074766 0
10.370000 -0.076679 0
10.375000 -0.078027 0
10.380000 -0.078910 0
10.385000 -0.079416 0
10.390000 -0.079619 0
10.395000 -0.079581 0
10.400000 -0.078874 0
10.405000 -0.078057 0
10.410000 -0.077245 0
10.415000 -0.076437 0
10.420000 -0.075633 0
10.425000 -0.074833 0
10.430000 -0.074036 0
10.435000 -0.073244 0
10.440000 -0.072456 0
10.445000 -0.071671 0
10.450000 -0.070891 0
10.455000 -0.070113 0
10.460000 -0.069340 0
10.465000 -0.068569 0
10.470000 -0.067799 0
10.475000 -0.067030 0
10.480000 -0.066257 0
10.485000 -0.065476 0
10.490000 -0.064677 0
10.495000 -0.063845 0
10.500000 -0.062956 0
10.505000 -0.061976 0
10.510000 -0.060849 0
10.515000 -0.059497 0
10.520000 -0.057812 0
10.525000 -0.055644 0
10.530000 -0.052798 0
10.535000 -0.049031 0
10.540000 -0.044045 0
10.545000 -0.037500 0
10.550000 -0.029028 0
10.555000 -0.018258 0
10.560000 -0.004850 0
10.565000 0.011449 0
10.570000 0.030761 0
10.575000 0.053014 0
10.580000 0.077902 0
10.585000 0.104849 0
10.590000 0.133003 0
10.595000 0.161262 0
10.600000 0.188333 0
10.605000 0.212823 0
10.610000 0.233351 0
10.615000 0.248681 0
10.620000 0.257839 0
10.625000 0.260217 1
10.630000 0.255637 0
10.635000 0.244376 0
10.640000 0.227133 0
10.645000 0.204956 0
10.650000 0.179143 0
10.655000 0.151104 0
10.660000 0.122242 0
10.665000 0.093812 0
10.670000 0.066784 0
10.675000 0.041641 0
10.680000 0.018057 0
10.685000 -0.005520 0
10.690000 -0.032108 0
10.695000 -0.065576 0
10.700000 -0.108479 0
10.705000 -0.158586 0
10.710000 -0.205885 0
10.715000 -0.232483 2
10.720000 -0.216035 0
10.725000 -0.134835 0
10.730000 0.026855 0
10.735000 0.271282 0
10.740000 0.575830 0
10.745000 0.884361 0
10.750000 1.115450 0
10.755000 1.193846 3
10.760000 1.086927 0
10.765000 0.827327 0
10.770000 0.494275 0
10.775000 0.171428 0
10.780000 -0.083615 0
10.785000 -0.245792 0
10.790000 -0.314944 4
10.795000 -0.307663 0
10.800000 -0.251177 0
10.805000 -0.175525 0
10.810000 -0.104379 0
10.815000 -0.049485 0
10.820000 -0.011616 0
10.825000 0.014290 0
10.830000 0.034134 0
10.835000 0.052151 0
10.840000 0.070625 0
10.845000 0.090519 0
10.850000 0.112123 0
10.855000 0.135424 0
10.860000 0.160266 0
10.865000 0.186401 0
10.870000 0.213506 0
10.875000 0.241188 0
10.880000 0.268993 0
10.885000 0.296413 0
10.890000 0.322902 0
10.895000 0.347894 0
10.900000 0.370819 0
10.905000 0.391125 0
10.910000 0.408302 0
10.915000 0.421899 0
10.920000 0.431544 0
10.925000 0.436962 0
10.930000 0.437985 5
10.935000 0.434561 0
10.940000 0.426756 0
10.945000 0.414754 0
10.950000 0.398843 0
10.955000 0.379412 0
10.960000 0.356925 0
10.965000 0.331910 0
10.970000 0.304934 0
10.975000 0.276581 0
10.980000 0.247433 0
10.985000 0.218050 0
10.990000 0.188950 0
10.995000 0.160600 0
11.000000 0.133401 0
11.005000 0.107683 0
11.010000 0.083701 0
11.015000 0.061638 0
11.020000 0.041605 0
11.025000 0.023647 0
11.030000 0.007755 0
11.035000 -0.006130 0
11.040000 -0.018107 0
11.045000 -0.028303 0
11.050000 -0.036864 0
11.055000 -0.043951 0
11.060000 -0.049726 0
11.065000 -0.054353 0
11.070000 -0.057986 0
11.075000 -0.060774 0
11.080000 -0.062850 0
11.085000 -0.064333 0
11.090000 -0.065332 0
11.095000 -0.065936 0
11.100000 -0.066225 0
11.105000 -0.066265 0
11.110000 -0.065626 0
11.115000 -0.064875 0
11.120000 -0.064129 0
11.125000 -0.063386 0
11.130000 -0.062647 0
11.135000 -0.061912 0
11.140000 -0.061180 0
11.145000 -0.060452 0
11.150000 -0.059727 0
11.155000 -0.059006 0
11.160000 -0.058288 0
11.165000 -0.057574 0
11.170000 -0.056863 0
11.175000 -0.056154 0
11.180000 -0.055445 0
11.185000 -0.054736 0
11.190000 -0.054022 0
11.195000 -0.053296 0
11.200000 -0.052547 0
11.205000 -0.051757 0
11.210000 -0.050898 0
11.215000 -0.049926 0
11.220000 -0.048775 0
11.225000 -0.047352 0
11.230000 -0.045525 0
11.235000 -0.043120 0
11.240000 -0.039908 0
11.245000 -0.035609 0
11.250000 -0.029889 0
11.255000 -0.022376 0
11.260000 -0.012679 0
11.265000 -0.000428 0
11.270000 0.014685 0
11.275000 0.032846 0
11.280000 0.054061 0
11.285000 0.078100 0
11.290000 0.104456 0
11.295000 0.132329 0
11.300000 0.160644 0
11.305000 0.188098 0
11.310000 0.213258 0
11.315000 0.234673 0
11.320000 0.251015 0
11.325000 0.261211 0
11.330000 0.264561 1
11.335000 0.260812 0
11.340000 0.250194 0
11.345000 0.233389 0
11.350000 0.211463 0
11.355000 0.185751 0
11.360000 0.157720 0
11.365000 0.128827 0
11.370000 0.100381 0
11.375000 0.073382 0
11.380000 0.048308 0
11.385000 0.024754 0
11.390000 0.000987 0
11.395000 -0.026268 0
11.400000 -0.061015 0
11.405000 -0.105435 0
11.410000 -0.156062 0
11.415000 -0.200904 0
11.420000 -0.220058 2
11.425000 -0.189976 0
11.430000 -0.089043 0
11.435000 0.096360 0
11.440000 0.362570 0
11.445000 0.676002 0
11.450000 0.967747 0
11.455000 1.150812 0
11.460000 1.159830 3
11.465000 0.987268 0
11.470000 0.688713 0
11.475000 0.350805 0
11.480000 0.049982 0
11.485000 -0.169039 0
11.490000 -0.292220 0
11.495000 -0.327087 4
11.500000 -0.295583 0
11.505000 -0.227495 0
11.510000 -0.151477 0
11.515000 -0.086598 0
11.520000 -0.039476 0
11.525000 -0.007606 0
11.530000 0.014984 0
11.535000 0.033651 0
11.540000 0.051734 0
11.545000 0.070840 0
11.550000 0.091563 0
11.555000 0.114022 0
11.560000 0.138125 0
11.565000 0.163669 0
11.570000 0.190364 0
11.575000 0.217851 0
11.580000 0.245701 0
11.585000 0.273426 0
11.590000 0.300494 0
11.595000 0.326339 0
11.600000 0.350386 0
11.605000 0.372066 0
11.610000 0.390841 0
11.615000 0.406225 0
11.620000 0.417801 0
11.625000 0.425245 0
11.630000 0.428337 5
11.635000 0.426968 0
11.640000 0.421153 0
11.645000 0.411024 0
11.650000 0.396826 0
11.655000 0.378910 0
11.660000 0.357713 0
11.665000 0.333744 0
11.670000 0.307561 0
11.675000 0.279748 0
11.680000 0.250898 0
11.685000 0.221586 0
11.690000 0.192356 0
11.695000 0.163699 0
11.700000 0.136049 0
11.705000 0.109767 0
11.710000 0.085140 0
11.715000 0.062379 0
11.720000 0.041624 0
11.725000 0.022945 0
11.730000 0.006350 0
11.735000 -0.008203 0
11.740000 -0.020800 0
11.745000 -0.031560 0
11.750000 -0.040627 0
11.755000 -0.048157 0
11.760000 -0.054314 0
11.765000 -0.059265 0
11.770000 -0.063169 0
11.775000 -0.066178 0
11.780000 -0.068430 0
11.785000 -0.070052 0
11.790000 -0.071155 0
11.795000 -0.071837 0
11.800000 -0.072181 0
11.805000 -0.072256 0
11.810000 -0.072027 0
11.815000 -0.071245 0
11.820000 -0.070466 0
11.825000 -0.069692 0
11.830000 -0.068921 0
11.835000 -0.068155 0
11.840000 -0.067392 0
11.845000 -0.066633 0
11.850000 -0.065877 0
11.855000 -0.065126 0
11.860000 -0.064378 0
11.865000 -0.063633 0
11.870000 -0.062892 0
11.875000 -0.062153 0
11.880000 -0.061415 0
11.885000 -0.060677 0
11.890000 -0.059936 0
11.895000 -0.059184 0
11.900000 -0.058412 0
11.905000 -0.057603 0
11.910000 -0.056731 0
11.915000 -0.055755 0
11.920000 -0.054613 0
11.925000 -0.053216 0
11.930000 -0.051438 0
11.935000 -0.049111 0
11.940000 -0.046013 0
11.945000 -0.041869 0
11.950000 -0.036349 0
11.955000 -0.029083 0
11.960000 -0.019676 0
11.965000 -0.007749 0
11.970000 0.007021 0
11.975000 0.024839 0
11.980000 0.045736 0
11.985000 0.069510 0
11.990000 0.095682 0
11.995000 0.123477 0
12.000000 0.151832 0
12.005000 0.179454 0
12.010000 0.204901 0
12.015000 0.226705 0
12.020000 0.243511 0
12.025000 0.254209 0
12.030000 0.258063 1
12.035000 0.254786 0
12.040000 0.244579 0
12.045000 0.228106 0
12.050000 0.206427 0
12.055000 0.180878 0
12.060000 0.152937 0
12.065000 0.124080 0
12.070000 0.095633 0
12.075000 0.068621 0
12.080000 0.043537 0
12.085000 0.019996 0
12.090000 -0.003734 0
12.095000 -0.030947 0
12.100000 -0.065682 0
12.105000 -0.110135 0
12.110000 -0.160754 0
12.115000 -0.205334 0
12.120000 -0.223684 2
12.125000 -0.192015 0
12.130000 -0.088631 0
12.135000 0.099843 0
12.140000 0.368849 0
12.145000 0.683032 0
12.150000 0.971430 0
12.155000 1.146278 3
12.160000 1.144069 0
12.165000 0.961513 0
12.170000 0.657750 0
12.175000 0.320296 0
12.180000 0.024183 0
12.185000 -0.188027 0
12.190000 -0.304098 0
12.195000 -0.332884 4
12.200000 -0.297299 0
12.205000 -0.227539 0
12.210000 -0.151871 0
12.215000 -0.088411 0
12.220000 -0.042812 0
12.225000 -0.012021 0
12.230000 0.010034 0
12.235000 0.028566 0
12.240000 0.046735 0
12.245000 0.066024 0
12.250000 0.086962 0
12.255000 0.109637 0
12.260000 0.133944 0
12.265000 0.159666 0
12.270000 0.186507 0
12.275000 0.214094 0
12.280000 0.241991 0
12.285000 0.269700 0
12.290000 0.296683 0
12.295000 0.322369 0
12.300000 0.346178 0
12.305000 0.367543 0
12.310000 0.385928 0
12.315000 0.400852 0
12.320000 0.411909 0
12.325000 0.418787 0
12.330000 0.421278 5
12.335000 0.419293 0
12.340000 0.412863 0
12.345000 0.402137 0
12.350000 0.387380 0
12.355000 0.368957 0
12.360000 0.347321 0
12.365000 0.322991 0
12.370000 0.296535 0
12.375000 0.268543 0
12.380000 0.239608 0
12.385000 0.210305 0
12.390000 0.181170 0
12.395000 0.152692 0
12.400000 0.125290 0
12.405000 0.099317 0
12.410000 0.075046 0
12.415000 0.052677 0
12.420000 0.032336 0
12.425000 0.014081 0
12.430000 -0.002089 0
12.435000 -0.016226 0
12.440000 -0.028424 0
12.445000 -0.038807 0
12.450000 -0.047524 0
12.455000 -0.054734 0
12.460000 -0.060602 0
12.465000 -0.065295 0
12.470000 -0.068971 0
12.475000 -0.071781 0
12.480000 -0.073861 0
12.485000 -0.075335 0
12.490000 -0.076313 0
12.495000 -0.076887 0
12.500000 -0.077139 0
12.505000 -0.077137 0
12.510000 -0.076445 0
12.515000 -0.075641 0
12.520000 -0.074841 0
12.525000 -0.074045 0
12.530000 -0.073252 0
12.535000 -0.072464 0
12.540000 -0.071680 0
12.545000 -0.070899 0
12.550000 -0.070122 0
12.555000 -0.069350 0
12.560000 -0.068580 0
12.565000 -0.067815 0
12.570000 -0.067052 0
12.575000 -0.066292 0
12.580000 -0.065533 0
12.585000 -0.064773 0
12.590000 -0.064008 0
12.595000 -0.063231 0
12.600000 -0.062429 0
12.605000 -0.061585 0
12.610000 -0.060668 0
12.615000 -0.059631 0
12.620000 -0.058406 0
12.625000 -0.056893 0
12.630000 -0.054954 0
12.635000 -0.052406 0
12.640000 -0.049010 0
12.645000 -0.044473 0
12.650000 -0.038449 0
12.655000 -0.030556 0
12.660000 -0.020399 0
12.665000 -0.007607 0
12.670000 0.008112 0
12.675000 0.026919 0
12.680000 0.048777 0
12.685000 0.073398 0
12.690000 0.100209 0
12.695000 0.128334 0
12.700000 0.156624 0
12.705000 0.183718 0
12.710000 0.208147 0
12.715000 0.228455 0
12.720000 0.243347 0
12.725000 0.251824 0
12.730000 0.253289 1
12.735000 0.247619 0
12.740000 0.235181 0
12.745000 0.216790 0
12.750000 0.193619 0
12.755000 0.167079 0
12.760000 0.138670 0
12.765000 0.109840 0
12.770000 0.081831 0
12.775000 0.055515 0
12.780000 0.031116 0
12.785000 0.007809 0
12.790000 -0.016731 0
12.795000 -0.046270 0
12.800000 -0.084580 0
12.805000 -0.132181 0
12.810000 -0.182424 0
12.815000 -0.219692 0
12.820000 -0.221671 2
12.825000 -0.164588 0
12.830000 -0.029024 0
12.835000 0.192889 0
12.840000 0.485943 0
12.845000 0.800081 0
12.850000 1.053490 0
12.855000 1.162225 3
12.860000 1.083875 0
12.865000 0.842705 0
12.870000 0.514763 0
12.875000 0.186702 0
12.880000 -0.078621 0
12.885000 -0.251913 0
12.890000 -0.330534 4
12.895000 -0.329778 0
12.900000 -0.276503 0
12.905000 -0.201337 0
12.910000 -0.129169 0
12.915000 -0.072915 0
12.920000 -0.034003 0
12.925000 -0.007502 0
12.930000 0.012619 0
12.935000 0.030758 0
12.940000 0.049303 0
12.945000 0.069265 0
12.950000 0.090948 0
12.955000 0.114341 0
12.960000 0.139289 0
12.965000 0.165539 0
12.970000 0.192763 0
12.975000 0.220560 0
12.980000 0.248468 0
12.985000 0.275969 0
12.990000 0.302508 0
12.995000 0.327508 0
13.000000 0.350393 0
13.005000 0.370603 0
13.010000 0.387622 0
13.015000 0.401000 0
13.020000 0.410366 0
13.025000 0.415450 0
13.030000 0.416093 5
13.035000 0.412256 0
13.040000 0.404019 0
13.045000 0.391583 0
13.050000 0.375256 0
13.055000 0.355442 0
13.060000 0.332626 0
13.065000 0.307350 0
13.070000 0.280195 0
13.075000 0.251755 0
13.080000 0.222618 0
13.085000 0.193346 0
13.090000 0.164457 0
13.095000 0.136412 0
13.100000 0.109602 0
13.105000 0.084348 0
13.110000 0.060891 0
13.115000 0.039399 0
13.120000 0.019968 0
13.125000 0.002632 0
13.130000 -0.012636 0
13.135000 -0.025906 0
13.140000 -0.037286 0
13.145000 -0.046913 0
13.150000 -0.054939 0
13.155000 -0.061530 0
13.160000 -0.066850 0
13.165000 -0.071064 0
13.170000 -0.074328 0
13.175000 -0.076785 0
13.180000 -0.078568 0
13.185000 -0.079794 0
13.190000 -0.080566 0
13.195000 -0.080971 0
13.200000 -0.081085 0
13.205000 -0.080868 0
13.210000 -0.080041 0
13.215000 -0.079219 0
13.220000 -0.078401 0
13.225000 -0.077587 0
13.230000 -0.076777 0
13.235000 -0.075971 0
13.240000 -0.075169 0
13.245000 -0.074371 0
13.250000 -0.073577 0
13.255000 -0.072787 0
13.260000 -0.072001 0
13.265000 -0.071218 0
13.270000 -0.070438 0
13.275000 -0.069660 0
13.280000 -0.068882 0
13.285000 -0.068102 0
13.290000 -0.067315 0
13.295000 -0.066510 0
13.300000 -0.065675 0
13.305000 -0.064784 0
13.310000 -0.063803 0
13.315000 -0.062674 0
13.320000 -0.061317 0
13.325000 -0.059615 0
13.330000 -0.057412 0
13.335000 -0.054499 0
13.340000 -0.050613 0
13.345000 -0.045435 0
13.350000 -0.038602 0
13.355000 -0.029721 0
13.360000 -0.018401 0
13.365000 -0.004301 0
13.370000 0.012821 0
13.375000 0.033043 0
13.380000 0.056221 0
13.385000 0.081941 0
13.390000 0.109490 0
13.395000 0.137864 0
13.400000 0.165806 0
13.405000 0.191888 0
13.410000 0.214630 0
13.415000 0.232631 0
13.420000 0.244713 0
13.425000 0.250049 1
13.430000 0.248252 0
13.435000 0.239425 0
13.440000 0.224148 0
13.445000 0.203416 0
13.450000 0.178530 0
13.455000 0.150960 0
13.460000 0.122202 0
13.465000 0.093630 0
13.470000 0.066341 0
13.475000 0.040950 0
13.480000 0.017256 0
13.485000 -0.006218 0
13.490000 -0.032535 0
13.495000 -0.065760 0
13.500000 -0.108657 0
13.505000 -0.158843 0
13.510000 -0.205486 0
13.515000 -0.229309 2
13.520000 -0.206574 0
13.525000 -0.114782 0
13.530000 0.061228 0
13.535000 0.320235 0
13.540000 0.631698 0
13.545000 0.928701 0
13.550000 1.123174 0
13.555000 1.145490 3
13.560000 0.985816 0
13.565000 0.695597 0
13.570000 0.357852 0
13.575000 0.049222 0
13.580000 -0.182845 0
13.585000 -0.321081 0
13.590000 -0.370009 4
13.595000 -0.348845 0
13.600000 -0.285595 0
13.605000 -0.209027 0
13.610000 -0.140184 0
13.615000 -0.088261 0
13.620000 -0.052570 0
13.625000 -0.027733 0
13.630000 -0.008138 0
13.635000 0.010066 0
13.640000 0.028897 0
13.645000 0.049187 0
13.650000 0.071174 0
13.655000 0.094826 0
13.660000 0.119983 0
13.665000 0.146396 0
13.670000 0.173746 0
13.675000 0.201646 0
13.680000 0.229649 0
13.685000 0.257258 0
13.690000 0.283939 0
13.695000 0.309139 0
13.700000 0.332302 0
13.705000 0.352888 0
13.710000 0.370396 0
13.715000 0.384384 0
13.720000 0.394483 0
13.725000 0.400419 0
13.730000 0.402019 5
13.735000 0.399223 0
13.740000 0.392083 0
13.745000 0.380767 0
13.750000 0.365544 0
13.755000 0.346782 0
13.760000 0.324926 0
13.765000 0.300482 0
13.770000 0.273999 0
13.775000 0.246047 0
13.780000 0.217196 0
13.785000 0.188000 0
13.790000 0.158976 0
13.795000 0.130590 0
13.800000 0.103252 0
13.805000 0.077302 0
13.810000 0.053008 0
13.815000 0.030567 0
13.820000 0.010108 0
13.825000 -0.008306 0
13.830000 -0.024670 0
13.835000 -0.039026 0
13.840000 -0.051460 0
13.845000 -0.062087 0
13.850000 -0.071044 0
13.855000 -0.078484 0
13.860000 -0.084567 0
13.865000 -0.089451 0
13.870000 -0.093293 0
13.875000 -0.096240 0
13.880000 -0.098429 0
13.885000 -0.099982 0
13.890000 -0.101010 0
13.895000 -0.101610 0
13.900000 -0.101863 0
13.905000 -0.101840 0
13.910000 -0.101500 0
13.915000 -0.100571 0
13.920000 -0.099646 0
13.925000 -0.098726 0
13.930000 -0.097811 0
13.935000 -0.096900 0
13.940000 -0.095994 0
13.945000 -0.095092 0
13.950000 -0.094195 0
13.955000 -0.093302 0
13.960000 -0.092414 0
13.965000 -0.091529 0
13.970000 -0.090649 0
13.975000 -0.089772 0
13.980000 -0.088898 0
13.985000 -0.088026 0
13.990000 -0.087152 0
13.995000 -0.086272 0
14.000000 -0.085379 0
14.005000 -0.084460 0
14.010000 -0.083496 0
14.015000 -0.082454 0
14.020000 -0.081287 0
14.025000 -0.079926 0
14.030000 -0.078272 0
14.035000 -0.076187 0
14.040000 -0.073491 0
14.045000 -0.069952 0
14.050000 -0.065284 0
14.055000 -0.059155 0
14.060000 -0.051197 0
14.065000 -0.041028 0
14.070000 -0.028292 0
14.075000 -0.012699 0
14.080000 0.005915 0
14.085000 0.027536 0
14.090000 0.051915 0
14.095000 0.078536 0
14.100000 0.106601 0
14.105000 0.135042 0
14.110000 0.162582 0
14.115000 0.187815 0
14.120000 0.209328 0
14.125000 0.225822 0
14.130000 0.236249 0
14.135000 0.239917 1
14.140000 0.236569 0
14.145000 0.226408 0
14.150000 0.210084 0
14.155000 0.188616 0
14.160000 0.163294 0
14.165000 0.135546 0
14.170000 0.106805 0
14.175000 0.078370 0
14.180000 0.051267 0
14.185000 0.026045 0
14.190000 0.002462 0
14.195000 -0.020948 0
14.200000 -0.047152 0
14.205000 -0.080069 0
14.210000 -0.122449 0
14.215000 -0.172325 0
14.220000 -0.219844 0
14.225000 -0.247026 2
14.230000 -0.231206 0
14.235000 -0.150280 0
14.240000 0.011786 0
14.245000 0.257189 0
14.250000 0.562545 0
14.255000 0.870113 0
14.260000 1.096814 0
14.265000 1.167252 3
14.270000 1.055615 0
14.275000 0.796466 0
14.280000 0.464472 0
14.285000 0.138927 0
14.290000 -0.123988 0
14.295000 -0.298074 0
14.300000 -0.380773 0
14.305000 -0.385632 4
14.310000 -0.336886 0
14.315000 -0.263008 0
14.320000 -0.188492 0
14.325000 -0.127695 0
14.330000 -0.084102 0
14.335000 -0.054178 0
14.340000 -0.032233 0
14.345000 -0.013525 0
14.350000 0.004836 0
14.355000 0.024240 0
14.360000 0.045209 0
14.365000 0.067850 0
14.370000 0.092078 0
14.375000 0.117709 0
14.380000 0.144483 0
14.385000 0.172071 0
14.390000 0.200086 0
14.395000 0.228084 0
14.400000 0.255578 0
14.405000 0.282049 0
14.410000 0.306963 0
14.415000 0.329787 0
14.420000 0.350006 0
14.425000 0.367146 0
14.430000 0.380788 0
14.435000 0.390589 0
14.440000 0.396290 0
14.445000 0.397733 5
14.450000 0.394863 0
14.455000 0.387737 0
14.460000 0.376512 0
14.465000 0.361450 0
14.470000 0.342900 0
14.475000 0.321286 0
14.480000 0.297092 0
14.485000 0.270844 0
14.490000 0.243088 0
14.495000 0.214374 0
14.500000 0.185238 0
14.505000 0.156183 0
14.510000 0.127671 0
14.515000 0.100105 0
14.520000 0.073828 0
14.525000 0.049117 0
14.530000 0.026179 0
14.535000 0.005156 0
14.540000 -0.013874 0
14.545000 -0.030887 0
14.550000 -0.045911 0
14.555000 -0.059013 0
14.560000 -0.070293 0
14.565000 -0.079878 0
14.570000 -0.087908 0
14.575000 -0.094535 0
14.580000 -0.099914 0
14.585000 -0.104196 0
14.590000 -0.107527 0
14.595000 -0.110045 0
14.600000 -0.111876 0
14.605000 -0.113132 0
14.610000 -0.113914 0
14.615000 -0.114309 0
14.620000 -0.114392 0
14.625000 -0.114226 0
14.630000 -0.113353 0
14.635000 -0.112365 0
14.640000 -0.111381 0
14.645000 -0.110403 0
14.650000 -0.109429 0
14.655000 -0.108460 0
14.660000 -0.107497 0
14.665000 -0.106537 0
14.670000 -0.105583 0
14.675000 -0.104633 0
14.680000 -0.103688 0
14.685000 -0.102748 0
14.690000 -0.101811 0
14.695000 -0.100879 0
14.700000 -0.099949 0
14.705000 -0.099022 0
14.710000 -0.098093 0
14.715000 -0.097159 0
14.720000 -0.096212 0
14.725000 -0.095241 0
14.730000 -0.094226 0
14.735000 -0.093139 0
14.740000 -0.091936 0
14.745000 -0.090551 0
14.750000 -0.088893 0
14.755000 -0.086837 0
14.760000 -0.084216 0
14.765000 -0.080815 0
14.770000 -0.076371 0
14.775000 -0.070573 0
14.780000 -0.063073 0
14.785000 -0.053506 0
14.790000 -0.041517 0
14.795000 -0.026805 0
14.800000 -0.009167 0
14.805000 0.011446 0
14.810000 0.034881 0
14.815000 0.060739 0
14.820000 0.088358 0
14.825000 0.116814 0
14.830000 0.144958 0
14.835000 0.171481 0
14.840000 0.195011 0
14.845000 0.214229 0
14.850000 0.227990 0
14.855000 0.235437 0
14.860000 0.236086 1
14.865000 0.229884 0
14.870000 0.217208 0
14.875000 0.198834 0
14.880000 0.175856 0
14.885000 0.149576 0
14.890000 0.121385 0
14.895000 0.092635 0
14.900000 0.064513 0
14.905000 0.037902 0
14.910000 0.013169 0
14.915000 -0.010158 0
14.920000 -0.033799 0
14.925000 -0.060877 0
14.930000 -0.095168 0
14.935000 -0.138852 0
14.940000 -0.189113 0
14.945000 -0.235448 0
14.950000 -0.259875 2
14.955000 -0.240423 0
14.960000 -0.156027 0
14.965000 0.008340 0
14.970000 0.254348 0
14.975000 0.559337 0
14.980000 0.868140 0
14.985000 1.101101 0
14.990000 1.184159 3
14.995000 1.086533 0
15.000000 0.837124 0
15.005000 0.508048 0
15.010000 0.179077 0
15.015000 -0.091317 0
15.020000 -0.274492 0
15.025000 -0.366006 0
15.030000 -0.377979 4
15.035000 -0.333650 0
15.040000 -0.261241 0
15.045000 -0.185907 0
15.050000 -0.123198 0
15.055000 -0.077694 0
15.060000 -0.046446 0
15.065000 -0.023846 0
15.070000 -0.004976 0
15.075000 0.013271 0
15.080000 0.032434 0
15.085000 0.053117 0
15.090000 0.075465 0
15.095000 0.099416 0
15.100000 0.124798 0
15.105000 0.151361 0
15.110000 0.178791 0
15.115000 0.206711 0
15.120000 0.234688 0
15.125000 0.262245 0
15.130000 0.288871 0
15.135000 0.314035 0
15.140000 0.337208 0
15.145000 0.357873 0
15.150000 0.375550 0
15.155000 0.389813 0
15.160000 0.400305 0
15.165000 0.406752 0
15.170000 0.408978 5
15.175000 0.406908 0
15.180000 0.400576 0
15.185000 0.390119 0
15.190000 0.375776 0
15.195000 0.357877 0
15.200000 0.336829 0
15.205000 0.313101 0
15.210000 0.287209 0
15.215000 0.259692 0
15.220000 0.231098 0
15.225000 0.201963 0
15.230000 0.172797 0
15.235000 0.144068 0
15.240000 0.116192 0
15.245000 0.089525 0
15.250000 0.064357 0
15.255000 0.040913 0
15.260000 0.019347 0
15.265000 -0.000245 0
15.270000 -0.017828 0
15.275000 -0.033416 0
15.280000 -0.047066 0
15.285000 -0.058871 0
15.290000 -0.068949 0
15.295000 -0.077437 0
15.300000 -0.084484 0
15.305000 -0.090243 0
15.310000 -0.094865 0
15.315000 -0.098499 0
15.320000 -0.101283 0
15.325000 -0.103346 0
15.330000 -0.104803 0
15.335000 -0.105759 0
15.340000 -0.106304 0
15.345000 -0.106516 0
15.350000 -0.106461 0
15.355000 -0.106095 0
15.360000 -0.105143 0
15.365000 -0.104195 0
15.370000 -0.103253 0
15.375000 -0.102315 0
15.380000 -0.101382 0
15.385000 -0.100453 0
15.390000 -0.099529 0
15.395000 -0.098609 0
15.400000 -0.097695 0
15.405000 -0.096784 0
15.410000 -0.095878 0
15.415000 -0.094976 0
15.420000 -0.094078 0
15.425000 -0.093183 0
15.430000 -0.092291 0
15.435000 -0.091398 0
15.440000 -0.090501 0
15.445000 -0.089596 0
15.450000 -0.088670 0
15.455000 -0.087710 0
15.460000 -0.086690 0
15.465000 -0.085572 0
15.470000 -0.084302 0
15.475000 -0.082799 0
15.480000 -0.080953 0
15.485000 -0.078616 0
15.490000 -0.075593 0
15.495000 -0.071644 0
15.500000 -0.066477 0
15.505000 -0.059761 0
15.510000 -0.051136 0
15.515000 -0.040242 0
15.520000 -0.026752 0
15.525000 -0.010416 0
15.530000 0.008886 0
15.535000 0.031094 0
15.540000 0.055923 0
15.545000 0.082830 0
15.550000 0.111010 0
15.555000 0.139414 0
15.560000 0.166802 0
15.565000 0.191826 0
15.570000 0.213137 0
15.575000 0.229504 0
15.580000 0.239930 0
15.585000 0.243755 1
15.590000 0.240720 0
15.595000 0.231003 0
15.600000 0.215195 0
15.605000 0.194242 0
15.610000 0.169354 0
15.615000 0.141887 0
15.620000 0.113216 0
15.625000 0.084619 0
15.630000 0.057141 0
15.635000 0.031436 0
15.640000 0.007499 0
15.645000 -0.015707 0
15.650000 -0.040596 0
15.655000 -0.070768 0
15.660000 -0.109580 0
15.665000 -0.157237 0
15.670000 -0.207473 0
15.675000 -0.246059 0
15.680000 -0.252677 2
15.685000 -0.205308 0
15.690000 -0.085130 0
15.695000 0.117787 0
15.700000 0.395437 0
15.705000 0.710899 0
15.710000 0.995936 0
15.715000 1.169170 0
15.720000 1.172066 3
15.725000 1.000237 0
15.730000 0.705347 0
15.735000 0.367247 0
15.740000 0.058539 0
15.745000 -0.175626 0
15.750000 -0.318286 0
15.755000 -0.373002 4
15.760000 -0.357302 0
15.765000 -0.297406 0
15.770000 -0.221147 0
15.775000 -0.150030 0
15.780000 -0.094699 0
15.785000 -0.055920 0
15.790000 -0.029073 0
15.795000 -0.008587 0
15.800000 0.009711 0
15.805000 0.028187 0
15.810000 0.047912 0
15.815000 0.069252 0
15.820000 0.092247 0
15.825000 0.116780 0
15.830000 0.142648 0
15.835000 0.169575 0
15.840000 0.197219 0
15.845000 0.225182 0
15.850000 0.253013 0
15.855000 0.280220 0
15.860000 0.306285 0
15.865000 0.330676 0
15.870000 0.352868 0
15.875000 0.372360 0
15.880000 0.388691 0
15.885000 0.401462 0
15.890000 0.410349 0
15.895000 0.415115 0
15.900000 0.415625 5
15.905000 0.411846 0
15.910000 0.403852 0
15.915000 0.391820 0
15.920000 0.376027 0
15.925000 0.356830 0
15.930000 0.334663 0
15.935000 0.310014 0
15.940000 0.283407 0
15.945000 0.255386 0
15.950000 0.226494 0
15.955000 0.197257 0
15.960000 0.168171 0
15.965000 0.139684 0
15.970000 0.112189 0
15.975000 0.086016 0
15.980000 0.061432 0
15.985000 0.038632 0
15.990000 0.017752 0
15.995000 -0.001139 0
16.000000 -0.018022 0
16.005000 -0.032930 0
16.010000 -0.045932 0
16.015000 -0.057131 0
16.020000 -0.066653 0
16.025000 -0.074639 0
16.030000 -0.081240 0
16.035000 -0.086608 0
16.040000 -0.090894 0
16.045000 -0.094242 0
16.050000 -0.096787 0
16.055000 -0.098654 0
16.060000 -0.099954 0
16.065000 -0.100785 0
16.070000 -0.101233 0
16.075000 -0.101373 0
16.080000 -0.101267 0
16.085000 -0.100458 0
16.090000 -0.099534 0
16.095000 -0.098614 0
16.100000 -0.097700 0
16.105000 -0.096789 0
16.110000 -0.095884 0
16.115000 -0.094982 0
16.120000 -0.094086 0
16.125000 -0.093193 0
16.130000 -0.092306 0
16.135000 -0.091422 0
16.140000 -0.090543 0
16.145000 -0.089667 0
16.150000 -0.088795 0
16.155000 -0.087926 0
16.160000 -0.087058 0
16.165000 -0.086190 0
16.170000 -0.085316 0
16.175000 -0.084430 0
16.180000 -0.083520 0
16.185000 -0.082568 0
16.190000 -0.081547 0
16.195000 -0.080414 0
16.200000 -0.079106 0
16.205000 -0.077537 0
16.210000 -0.075584 0
16.215000 -0.073088 0
16.220000 -0.069840 0
16.225000 -0.065585 0
16.230000 -0.060020 0
16.235000 -0.052805 0
16.240000 -0.043577 0
16.245000 -0.031983 0
16.250000 -0.017713 0
16.255000 -0.000552 0
16.260000 0.019575 0
16.265000 0.042546 0
16.270000 0.068007 0
16.275000 0.095343 0
16.280000 0.123678 0
16.285000 0.151906 0
16.290000 0.178751 0
16.295000 0.202859 0
16.300000 0.222903 0
16.305000 0.237710 0
16.310000 0.246369 0
16.315000 0.248324 1
16.320000 0.243435 0
16.325000 0.231992 0
16.330000 0.214688 0
16.335000 0.192546 0
16.340000 0.166823 0
16.345000 0.138888 0
16.350000 0.110098 0
16.355000 0.081681 0
16.360000 0.054596 0
16.365000 0.029355 0
16.370000 0.005732 0
16.375000 -0.017634 0
16.380000 -0.043503 0
16.385000 -0.075601 0
16.390000 -0.116809 0
16.395000 -0.166011 0
16.400000 -0.215019 0
16.405000 -0.247853 2
16.410000 -0.243390 0
16.415000 -0.180000 0
16.420000 -0.040447 0
16.425000 0.181874 0
16.430000 0.473028 0
16.435000 0.788417 0
16.440000 1.054420 0
16.445000 1.191701 3
16.450000 1.152532 0
16.455000 0.946419 0
16.460000 0.634429 0
16.465000 0.297407 0
16.470000 0.002569 0
16.475000 -0.211812 0
16.480000 -0.334097 0
16.485000 -0.371397 4
16.490000 -0.343591 0
16.495000 -0.277875 0
16.500000 -0.201262 0
16.505000 -0.133052 0
16.510000 -0.081481 0
16.515000 -0.045736 0
16.520000 -0.020692 0
16.525000 -0.000967 0
16.530000 0.017206 0
16.535000 0.035866 0
16.540000 0.055891 0
16.545000 0.077555 0
16.550000 0.100858 0
16.555000 0.125662 0
16.560000 0.151749 0
16.565000 0.178829 0
16.570000 0.206551 0
16.575000 0.234506 0
16.580000 0.262236 0
16.585000 0.289242 0
16.590000 0.315005 0
16.595000 0.338995 0
16.600000 0.360689 0
16.605000 0.379595 0
16.610000 0.395265 0
16.615000 0.407311 0
16.620000 0.415427 0
16.625000 0.419396 5
16.630000 0.419099 0
16.635000 0.414525 0
16.640000 0.405766 0
16.645000 0.393018 0
16.650000 0.376570 0
16.655000 0.356797 0
16.660000 0.334139 0
16.665000 0.309092 0
16.670000 0.282183 0
16.675000 0.253956 0
16.680000 0.224951 0
16.685000 0.195690 0
16.690000 0.166658 0
16.695000 0.138294 0
16.700000 0.110980 0
16.705000 0.085036 0
16.710000 0.060714 0
16.715000 0.038202 0
16.720000 0.017622 0
16.725000 -0.000965 0
16.730000 -0.017548 0
16.735000 -0.032167 0
16.740000 -0.044896 0
16.745000 -0.055843 0
16.750000 -0.065136 0
16.755000 -0.072917 0
16.760000 -0.079337 0
16.765000 -0.084548 0
16.770000 -0.088701 0
16.775000 -0.091937 0
16.780000 -0.094390 0
16.785000 -0.096182 0
16.790000 -0.097423 0
16.795000 -0.098209 0
16.800000 -0.098623 0
16.805000 -0.098739 0
16.810000 -0.098616 0
16.815000 -0.097816 0
16.820000 -0.096905 0
16.825000 -0.095999 0
16.830000 -0.095097 0
16.835000 -0.094200 0
16.840000 -0.093307 0
16.845000 -0.092419 0
16.850000 -0.091535 0
16.855000 -0.090655 0
16.860000 -0.089780 0
16.865000 -0.088909 0
16.870000 -0.088042 0
16.875000 -0.087179 0
16.880000 -0.086319 0
16.885000 -0.085462 0
16.890000 -0.084607 0
16.895000 -0.083749 0
16.900000 -0.082886 0
16.905000 -0.082009 0
16.910000 -0.081108 0
16.915000 -0.080161 0
16.920000 -0.079142 0
16.925000 -0.078005 0
16.930000 -0.076685 0
16.935000 -0.075093 0
16.940000 -0.073104 0
16.945000 -0.070552 0
16.950000 -0.067226 0
16.955000 -0.062866 0
16.960000 -0.057165 0
16.965000 -0.049781 0
16.970000 -0.040352 0
16.975000 -0.028528 0
16.980000 -0.014007 0
16.985000 0.003416 0
16.990000 0.023798 0
16.995000 0.047000 0
17.000000 0.072643 0
17.005000 0.100093 0
17.010000 0.128453 0
17.015000 0.156604 0
17.020000 0.183262 0
17.025000 0.207073 0
17.030000 0.226725 0
17.035000 0.241061 0
17.040000 0.249199 0
17.045000 0.250616 1
17.050000 0.245205 0
17.055000 0.233287 0
17.060000 0.215581 0
17.065000 0.193127 0
17.070000 0.167192 0
17.075000 0.139143 0
17.080000 0.110331 0
17.085000 0.081966 0
17.090000 0.054981 0
17.095000 0.029850 0
17.100000 0.006287 0
17.105000 -0.017149 0
17.110000 -0.043292 0
17.115000 -0.075877 0
17.120000 -0.117640 0
17.125000 -0.167133 0
17.130000 -0.215742 0
17.135000 -0.247149 2
17.140000 -0.240131 0
17.145000 -0.173220 0
17.150000 -0.029591 0
17.155000 0.196594 0
17.160000 0.490153 0
17.165000 0.805047 0
17.170000 1.066897 0
17.175000 1.197143 3
17.180000 1.148224 0
17.185000 0.932361 0
17.190000 0.615115 0
17.195000 0.279768 0
17.200000 -0.007036 0
17.205000 -0.209361 0
17.210000 -0.318204 0
17.215000 -0.343192 4
17.220000 -0.306511 0
17.225000 -0.236803 0
17.230000 -0.160879 0
17.235000 -0.096294 0
17.240000 -0.049063 0
17.245000 -0.016793 0
17.250000 0.006181 0
17.255000 0.025043 0
17.260000 0.043117 0
17.265000 0.062067 0
17.270000 0.082545 0
17.275000 0.104712 0
17.280000 0.128506 0
17.285000 0.153752 0
17.290000 0.180194 0
17.295000 0.207507 0
17.300000 0.235302 0
17.305000 0.263133 0
17.310000 0.290507 0
17.315000 0.316898 0
17.320000 0.341760 0
17.325000 0.364548 0
17.330000 0.384738 0
17.335000 0.401842 0
17.340000 0.415430 0
17.345000 0.425147 0
17.350000 0.430730 0
17.355000 0.432013 5
17.360000 0.428943 0
17.365000 0.421575 0
17.370000 0.410074 0
17.375000 0.394708 0
17.380000 0.375834 0
17.385000 0.353891 0
17.390000 0.329373 0
17.395000 0.302820 0
17.400000 0.274788 0
17.405000 0.245839 0
17.410000 0.216516 0
17.415000 0.187330 0
17.420000 0.158743 0
17.425000 0.131160 0
17.430000 0.104923 0
17.435000 0.080303 0
17.440000 0.057500 0
17.445000 0.036649 0
17.450000 0.017819 0
17.455000 0.001025 0
17.460000 -0.013771 0
17.465000 -0.026645 0
17.470000 -0.037705 0
17.475000 -0.047084 0
17.480000 -0.054929 0
17.485000 -0.061395 0
17.490000 -0.066640 0
17.495000 -0.070818 0
17.500000 -0.074075 0
17.505000 -0.076548 0
17.510000 -0.078362 0
17.515000 -0.079627 0
17.520000 -0.080443 0
17.525000 -0.080893 0
17.530000 -0.081050 0
17.535000 -0.080975 0
17.540000 -0.080257 0
17.545000 -0.079434 0
17.550000 -0.078615 0
17.555000 -0.077800 0
17.560000 -0.076989 0
17.565000 -0.076182 0
17.570000 -0.075379 0
17.575000 -0.074580 0
17.580000 -0.073785 0
17.585000 -0.072994 0
17.590000 -0.072206 0
17.595000 -0.071423 0
17.600000 -0.070642 0
17.605000 -0.069864 0
17.610000 -0.069088 0
17.615000 -0.068312 0
17.620000 -0.067532 0
17.625000 -0.066742 0
17.630000 -0.065933 0
17.635000 -0.065089 0
17.640000 -0.064186 0
17.645000 -0.063185 0
17.650000 -0.062030 0
17.655000 -0.060641 0
17.660000 -0.058904 0
17.665000 -0.056667 0
17.670000 -0.053729 0
17.675000 -0.049841 0
17.680000 -0.044702 0
17.685000 -0.037970 0
17.690000 -0.029275 0
17.695000 -0.018248 0
17.700000 -0.004558 0
17.705000 0.012039 0
17.710000 0.031646 0
17.715000 0.054173 0
17.720000 0.079288 0
17.725000 0.106391 0
17.730000 0.134608 0
17.735000 0.162821 0
17.740000 0.189725 0
17.745000 0.213928 0
17.750000 0.234061 0
17.755000 0.248908 0
17.760000 0.257525 0
17.765000 0.259339 1
17.770000 0.254210 0
17.775000 0.242450 0
17.780000 0.224785 0
17.785000 0.202288 0
17.790000 0.176261 0
17.795000 0.148120 0
17.800000 0.119253 0
17.805000 0.090900 0
17.810000 0.063999 0
17.815000 0.038990 0
17.820000 0.015477 0
17.825000 -0.008184 0
17.830000 -0.035092 0
17.835000 -0.069103 0
17.840000 -0.112578 0
17.845000 -0.162880 0
17.850000 -0.209517 0
17.855000 -0.234255 2
17.860000 -0.214706 0
17.865000 -0.129406 0
17.870000 0.036833 0
17.875000 0.285239 0
17.880000 0.591644 0
17.885000 0.898373 0
17.890000 1.123608 0
17.895000 1.193624 3
17.900000 1.078455 0
17.905000 0.813457 0
17.910000 0.479123 0
17.915000 0.158494 0
17.920000 -0.092348 0
17.925000 -0.249745 0
17.930000 -0.314538 4
17.935000 -0.304026 0
17.940000 -0.245833 0
17.945000 -0.169928 0
17.950000 -0.099474 0
17.955000 -0.045568 0
17.960000 -0.008520 0
17.965000 0.016897 0
17.970000 0.036538 0
17.975000 0.054530 0
17.980000 0.073062 0
17.985000 0.093046 0
17.990000 0.114746 0
17.995000 0.138139 0
18.000000 0.163060 0
18.005000 0.189259 0
18.010000 0.216406 0
18.015000 0.244105 0
18.020000 0.271895 0
18.025000 0.299266 0
18.030000 0.325669 0
18.035000 0.350537 0
18.040000 0.373299 0
18.045000 0.393404 0
18.050000 0.410346 0
18.055000 0.423676 0
18.060000 0.433030 0
18.065000 0.438138 0
18.070000 0.438840 5
18.075000 0.435093 0
18.080000 0.426972 0
18.085000 0.414667 0
18.090000 0.398477 0
18.095000 0.378795 0
18.100000 0.356094 0
18.105000 0.330904 0
18.110000 0.303796 0
18.115000 0.275355 0
18.120000 0.246164 0
18.125000 0.216780 0
18.130000 0.187718 0
18.135000 0.159442 0
18.140000 0.132346 0
18.145000 0.106757 0
18.150000 0.082922 0
18.155000 0.061020 0
18.160000 0.041155 0
18.165000 0.023369 0
18.170000 0.007646 0
18.175000 -0.006076 0
18.180000 -0.017898 0
18.185000 -0.027949 0
18.190000 -0.036379 0
18.195000 -0.043347 0
18.200000 -0.049018 0
18.205000 -0.053554 0
18.210000 -0.057110 0
18.215000 -0.059832 0
18.220000 -0.061853 0
18.225000 -0.063293 0
18.230000 -0.064256 0
18.235000 -0.064833 0
18.240000 -0.065101 0
18.245000 -0.065125 0
18.250000 -0.064489 0
18.255000 -0.063744 0
18.260000 -0.063003 0
18.265000 -0.062266 0
18.270000 -0.061532 0
18.275000 -0.060803 0
18.280000 -0.060076 0
18.285000 -0.059354 0
18.290000 -0.058635 0
18.295000 -0.057919 0
18.300000 -0.057207 0
18.305000 -0.056498 0
18.310000 -0.055792 0
18.315000 -0.055088 0
18.320000 -0.054385 0
18.325000 -0.053680 0
18.330000 -0.052969 0
18.335000 -0.052246 0
18.340000 -0.051499 0
18.345000 -0.050708 0
18.350000 -0.049844 0
18.355000 -0.048860 0
18.360000 -0.047688 0
18.365000 -0.046230 0
18.370000 -0.044352 0
18.375000 -0.041870 0
18.380000 -0.038551 0
18.385000 -0.034108 0
18.390000 -0.028200 0
18.395000 -0.020452 0
18.400000 -0.010473 0
18.405000 0.002104 0
18.410000 0.017576 0
18.415000 0.036109 0
18.420000 0.057684 0
18.425000 0.082038 0
18.430000 0.108628 0
18.435000 0.136616 0
18.440000 0.164894 0
18.445000 0.192136 0
18.450000 0.216895 0
18.455000 0.237728 0
18.460000 0.253330 0
18.465000 0.262669 0
18.470000 0.265096 1
18.475000 0.260423 0
18.480000 0.248939 0
18.485000 0.231386 0
18.490000 0.208872 0
18.495000 0.182760 0
18.500000 0.154527 0
18.505000 0.125620 0
18.510000 0.097317 0
18.515000 0.070565 0
18.520000 0.045744 0
18.525000 0.022296 0
18.530000 -0.001732 0
18.535000 -0.029803 0
18.540000 -0.065866 0
18.545000 -0.111554 0
18.550000 -0.162304 0
18.555000 -0.204846 0
18.560000 -0.218407 2
18.565000 -0.179339 0
18.570000 -0.066739 0
18.575000 0.131217 0
18.580000 0.407286 0
18.585000 0.722603 0
18.590000 1.003750 0
18.595000 1.163997 3
18.600000 1.144596 0
18.605000 0.948585 0
18.610000 0.638744 0
18.615000 0.302078 0
18.620000 0.010805 0
18.625000 -0.195301 0
18.630000 -0.305771 0
18.635000 -0.330372 4
18.640000 -0.292376 0
18.645000 -0.221813 0
18.650000 -0.146370 0
18.655000 -0.083494 0
18.660000 -0.038402 0
18.665000 -0.007904 0
18.670000 0.014027 0
18.675000 0.032519 0
18.680000 0.050673 0
18.685000 0.069946 0
18.690000 0.090858 0
18.695000 0.113500 0
18.700000 0.137766 0
18.705000 0.163443 0
18.710000 0.190239 0
18.715000 0.217789 0
18.720000 0.245660 0
18.725000 0.273363 0
18.730000 0.300366 0
18.735000 0.326105 0
18.740000 0.350007 0
18.745000 0.371508 0
18.750000 0.390077 0
18.755000 0.405232 0
18.760000 0.416567 0
18.765000 0.423765 0
18.770000 0.426612 5
18.775000 0.425009 0
18.780000 0.418975 0
18.785000 0.408649 0
18.790000 0.394281 0
18.795000 0.376221 0
18.800000 0.354911 0
18.805000 0.330857 0
18.810000 0.304617 0
18.815000 0.276772 0
18.820000 0.247910 0
18.825000 0.218604 0
18.830000 0.189393 0
18.835000 0.160766 0
18.840000 0.133150 0
18.845000 0.106904 0
18.850000 0.082312 0
18.855000 0.059585 0
18.860000 0.038858 0
18.865000 0.020202 0
18.870000 0.003625 0
18.875000 -0.010916 0
18.880000 -0.023506 0
18.885000 -0.034264 0
18.890000 -0.043331 0
18.895000 -0.050864 0
18.900000 -0.057026 0
18.905000 -0.061983 0
18.910000 -0.065892 0
18.915000 -0.068905 0
18.920000 -0.071161 0
18.925000 -0.072786 0
18.930000 -0.073890 0
18.935000 -0.074571 0
18.940000 -0.074912 0
18.945000 -0.074982 0
18.950000 -0.074747 0
18.955000 -0.073951 0
18.960000 -0.073159 0
18.965000 -0.072371 0
18.970000 -0.071587 0
18.975000 -0.070807 0
18.980000 -0.070031 0
18.985000 -0.069259 0
18.990000 -0.068490 0
18.995000 -0.067726 0
19.000000 -0.066965 0
19.005000 -0.066207 0
19.010000 -0.065453 0
19.015000 -0.064702 0
19.020000 -0.063952 0
19.025000 -0.063202 0
19.030000 -0.062448 0
19.035000 -0.061685 0
19.040000 -0.060904 0
19.045000 -0.060088 0
19.050000 -0.059211 0
19.055000 -0.058236 0
19.060000 -0.057103 0
19.065000 -0.055726 0
19.070000 -0.053985 0
19.075000 -0.051717 0
19.080000 -0.048709 0
19.085000 -0.044691 0
19.090000 -0.039344 0
19.095000 -0.032300 0
19.100000 -0.023172 0
19.105000 -0.011575 0
19.110000 0.002819 0
19.115000 0.020235 0
19.120000 0.040729 0
19.125000 0.064136 0
19.130000 0.090018 0
19.135000 0.117647 0
19.140000 0.146005 0
19.145000 0.173834 0
19.150000 0.199717 0
19.155000 0.222188 0
19.160000 0.239872 0
19.165000 0.251620 0
19.170000 0.256633 1
19.175000 0.254548 0
19.180000 0.245484 0
19.185000 0.230029 0
19.190000 0.209176 0
19.195000 0.184214 0
19.200000 0.156600 0
19.205000 0.127812 0
19.210000 0.099209 0
19.215000 0.071877 0
19.220000 0.046430 0
19.225000 0.022686 0
19.230000 -0.000784 0
19.235000 -0.026967 0
19.240000 -0.059881 0
19.245000 -0.102374 0
19.250000 -0.152403 0
19.255000 -0.199703 0
19.260000 -0.225600 2
19.265000 -0.206726 0
19.270000 -0.120571 0
19.275000 0.048628 0
19.280000 0.301374 0
19.285000 0.610361 0
19.290000 0.912419 0
19.295000 1.120992 0
19.300000 1.163308 3
19.305000 1.020799 0
19.310000 0.739325 0
19.315000 0.402267 0
19.320000 0.089599 0
19.325000 -0.147856 0
19.330000 -0.290809 0
19.335000 -0.342970 4
19.340000 -0.323497 0
19.345000 -0.260836 0
19.350000 -0.184417 0
19.355000 -0.115789 0
19.360000 -0.064280 0
19.365000 -0.029080 0
19.370000 -0.004648 0
19.375000 0.014699 0
19.380000 0.032792 0
19.385000 0.051603 0
19.390000 0.071924 0
19.395000 0.093965 0
19.400000 0.117681 0
19.405000 0.142896 0
19.410000 0.169347 0
19.415000 0.196700 0
19.420000 0.224550 0
19.425000 0.252432 0
19.430000 0.279832 0
19.435000 0.306199 0
19.440000 0.330966 0
19.445000 0.353566 0
19.450000 0.373455 0
19.455000 0.390130 0
19.460000 0.403156 0
19.465000 0.412176 0
19.470000 0.416935 0
19.475000 0.417284 5
19.480000 0.413193 0
19.485000 0.404748 0
19.490000 0.392150 0
19.495000 0.375707 0
19.500000 0.355820 0
19.505000 0.332966 0
19.510000 0.307679 0
19.515000 0.280529 0
19.520000 0.252102 0
19.525000 0.222975 0
19.530000 0.193702 0
19.535000 0.164792 0
19.540000 0.136702 0
19.545000 0.109820 0
19.550000 0.084464 0
19.555000 0.060878 0
19.560000 0.039230 0
19.565000 0.019621 0
19.570000 0.002089 0
19.575000 -0.013387 0
19.580000 -0.026871 0
19.585000 -0.038468 0
19.590000 -0.048306 0
19.595000 -0.056536 0
19.600000 -0.063318 0
19.605000 -0.068815 0
19.610000 -0.073190 0
19.615000 -0.076595 0
19.620000 -0.079177 0
19.625000 -0.081067 0
19.630000 -0.082382 0
19.635000 -0.083228 0
19.640000 -0.083693 0
19.645000 -0.083853 0
19.650000 -0.083773 0
19.655000 -0.083042 0
19.660000 -0.082205 0
19.665000 -0.081372 0
19.670000 -0.080543 0
19.675000 -0.079719 0
19.680000 -0.078898 0
19.685000 -0.078082 0
19.690000 -0.077269 0
19.695000 -0.076461 0
19.700000 -0.075656 0
19.705000 -0.074856 0
19.710000 -0.074059 0
19.715000 -0.073265 0
19.720000 -0.072474 0
19.725000 -0.071684 0
19.730000 -0.070892 0
19.735000 -0.070096 0
19.740000 -0.069287 0
19.745000 -0.068454 0
19.750000 -0.067578 0
19.755000 -0.066627 0
19.760000 -0.065557 0
19.765000 -0.064299 0
19.770000 -0.062755 0
19.775000 -0.060789 0
19.780000 -0.058220 0
19.785000 -0.054814 0
19.790000 -0.050284 0
19.795000 -0.044290 0
19.800000 -0.036459 0
19.805000 -0.026400 0
19.810000 -0.013748 0
19.815000 0.001793 0
19.820000 0.020389 0
19.825000 0.042023 0
19.830000 0.066434 0
19.835000 0.093083 0
19.840000 0.121138 0
19.845000 0.149495 0
19.850000 0.176837 0
19.855000 0.201721 0
19.860000 0.222708 0
19.865000 0.238493 0
19.870000 0.248040 0
19.875000 0.250696 1
19.880000 0.246261 0
19.885000 0.235013 0
19.890000 0.217680 0
19.895000 0.195361 0
19.900000 0.169406 0
19.905000 0.141287 0
19.910000 0.112451 0
19.915000 0.084180 0
19.920000 0.057431 0
19.925000 0.032611 0
19.930000 0.009206 0
19.935000 -0.014669 0
19.940000 -0.042414 0
19.945000 -0.077991 0
19.950000 -0.123209 0
19.955000 -0.173880 0
19.960000 -0.217190 0
19.965000 -0.232705 2
19.970000 -0.196860 0
19.975000 -0.088536 0
19.980000 0.104751 0
19.985000 0.377163 0
19.990000 0.691992 0
19.995000 0.977731 0
20.000000 1.147638 3
20.005000 1.140372 0
20.010000 0.954274 0
20.015000 0.649049 0
20.020000 0.311727 0
20.025000 0.016413 0
20.030000 -0.195028 0
20.035000 -0.310660 0
20.040000 -0.339353 4
20.045000 -0.303872 0
20.050000 -0.234196 0
20.055000 -0.158441 0
20.060000 -0.094720 0
20.065000 -0.048795 0
20.070000 -0.017731 0
20.075000 0.004491 0
20.080000 0.023093 0
20.085000 0.041269 0
20.090000 0.060529 0
20.095000 0.081423 0
20.100000 0.104049 0
20.105000 0.128307 0
20.110000 0.153988 0
20.115000 0.180798 0
20.120000 0.208375 0
20.125000 0.236287 0
20.130000 0.264044 0
20.135000 0.291113 0
20.140000 0.316929 0
20.145000 0.340917 0
20.150000 0.362511 0
20.155000 0.381176 0
20.160000 0.396430 0
20.165000 0.407863 0
20.170000 0.415154 0
20.175000 0.418090 5
20.180000 0.416569 0
20.185000 0.410610 0
20.190000 0.400350 0
20.195000 0.386039 0
20.200000 0.368029 0
20.205000 0.346763 0
20.210000 0.322748 0
20.215000 0.296543 0
20.220000 0.268732 0
20.225000 0.239906 0
20.230000 0.210638 0
20.235000 0.181468 0
20.240000 0.152887 0
20.245000 0.125324 0
20.250000 0.099136 0
20.255000 0.074608 0
20.260000 0.051950 0
20.265000 0.031297 0
20.270000 0.012719 0
20.275000 -0.003778 0
20.280000 -0.018237 0
20.285000 -0.030746 0
20.290000 -0.041422 0
20.295000 -0.050410 0
20.300000 -0.057866 0
20.305000 -0.063954 0
20.310000 -0.068840 0
20.315000 -0.072682 0
20.320000 -0.075633 0
20.325000 -0.077829 0
20.330000 -0.079399 0
20.335000 -0.080451 0
20.340000 -0.081083 0
20.345000 -0.081378 0
20.350000 -0.081406 0
20.355000 -0.081131 0
20.360000 -0.080303 0
20.365000 -0.079480 0
20.370000 -0.078660 0
20.375000 -0.077845 0
20.380000 -0.077034 0
20.385000 -0.076227 0
20.390000 -0.075423 0
20.395000 -0.074624 0
20.400000 -0.073829 0
20.405000 -0.073038 0
20.410000 -0.072250 0
20.415000 -0.071465 0
20.420000 -0.070684 0
20.425000 -0.069904 0
20.430000 -0.069124 0
20.435000 -0.068340 0
20.440000 -0.067546 0
20.445000 -0.066733 0
20.450000 -0.065884 0
20.455000 -0.064972 0
20.460000 -0.063958 0
20.465000 -0.062779 0
20.470000 -0.061348 0
20.475000 -0.059540 0
20.480000 -0.057188 0
20.485000 -0.054073 0
20.490000 -0.049920 0
20.495000 -0.044403 0
20.500000 -0.037152 0
20.505000 -0.027776 0
20.510000 -0.015892 0
20.515000 -0.001179 0
20.520000 0.016575 0
20.525000 0.037406 0
20.530000 0.061123 0
20.535000 0.087257 0
20.540000 0.115044 0
20.545000 0.143438 0
20.550000 0.171152 0
20.555000 0.196754 0
20.560000 0.218777 0
20.565000 0.235860 0
20.570000 0.246885 0
20.575000 0.251097 1
20.580000 0.248189 0
20.585000 0.238337 0
20.590000 0.222186 0
20.595000 0.200773 0
20.600000 0.175422 0
20.605000 0.147604 0
20.610000 0.118794 0
20.615000 0.090329 0
20.620000 0.063251 0
20.625000 0.038091 0
20.630000 0.014526 0
20.635000 -0.009080 0
20.640000 -0.035930 0
20.645000 -0.070063 0
20.650000 -0.113893 0
20.655000 -0.164352 0
20.660000 -0.209842 0
20.665000 -0.230636 2
20.670000 -0.203063 0
20.675000 -0.105154 0
20.680000 0.077262 0
20.685000 0.341305 0
20.690000 0.654250 0
20.695000 0.947573 0
20.700000 1.133699 0
20.705000 1.145930 3
20.710000 0.977426 0
20.715000 0.682206 0
20.720000 0.344263 0
20.725000 0.039243 0
20.730000 -0.187179 0
20.735000 -0.319298 0
20.740000 -0.362799 4
20.745000 -0.337777 0
20.750000 -0.272699 0
20.755000 -0.196159 0
20.760000 -0.128473 0
20.765000 -0.077982 0
20.770000 -0.043428 0
20.775000 -0.019255 0
20.780000 0.000068 0
20.785000 0.018236 0
20.790000 0.037143 0
20.795000 0.057553 0
20.800000 0.079669 0
20.805000 0.103444 0
20.810000 0.128706 0
20.815000 0.155199 0
20.820000 0.182595 0
20.825000 0.210498 0
20.830000 0.238454 0
20.835000 0.265959 0
20.840000 0.292474 0
20.845000 0.317441 0
20.850000 0.340303 0
20.855000 0.360521 0
20.860000 0.377599 0
20.865000 0.391099 0
20.870000 0.400663 0
20.875000 0.406026 0
20.880000 0.407030 5
20.885000 0.403629 0
20.890000 0.395890 0
20.895000 0.383996 0
20.900000 0.368232 0
20.905000 0.348979 0
20.910000 0.326694 0
20.915000 0.301892 0
20.920000 0.275130 0
20.925000 0.246981 0
20.930000 0.218017 0
20.935000 0.188789 0
20.940000 0.159808 0
20.945000 0.131537 0
20.950000 0.104374 0
20.955000 0.078651 0
20.960000 0.054624 0
20.965000 0.032482 0
20.970000 0.012341 0
20.975000 -0.005747 0
20.980000 -0.021783 0
20.985000 -0.035821 0
20.990000 -0.047950 0
20.995000 -0.058291 0
21.000000 -0.066986 0
21.005000 -0.074189 0
21.010000 -0.080062 0
21.015000 -0.084764 0
21.020000 -0.088450 0
21.025000 -0.091266 0
21.030000 -0.093347 0
21.035000 -0.094815 0
21.040000 -0.095777 0
21.045000 -0.096326 0
21.050000 -0.096544 0
21.055000 -0.096498 0
21.060000 -0.096151 0
21.065000 -0.095249 0
21.070000 -0.094351 0
21.075000 -0.093457 0
21.080000 -0.092568 0
21.085000 -0.091683 0
21.090000 -0.090803 0
21.095000 -0.089927 0
21.100000 -0.089056 0
21.105000 -0.088188 0
21.110000 -0.087325 0
21.115000 -0.086466 0
21.120000 -0.085611 0
21.125000 -0.084759 0
21.130000 -0.083910 0
21.135000 -0.083061 0
21.140000 -0.082210 0
21.145000 -0.081351 0
21.150000 -0.080477 0
21.155000 -0.079572 0
21.160000 -0.078614 0
21.165000 -0.077569 0
21.170000 -0.076382 0
21.175000 -0.074978 0
21.180000 -0.073248 0
21.185000 -0.071043 0
21.190000 -0.068168 0
21.195000 -0.064376 0
21.200000 -0.059366 0
21.205000 -0.052794 0
21.210000 -0.044282 0
21.215000 -0.033451 0
21.220000 -0.019956 0
21.225000 -0.003537 0
21.230000 0.015928 0
21.235000 0.038360 0
21.240000 0.063437 0
21.245000 0.090556 0
21.250000 0.118834 0
21.255000 0.147130 0
21.260000 0.174110 0
21.265000 0.198349 0
21.270000 0.218446 0
21.275000 0.233162 0
21.280000 0.241541 0
21.285000 0.243018 1
21.290000 0.237477 0
21.295000 0.225268 0
21.300000 0.207168 0
21.305000 0.184302 0
21.310000 0.158023 0
21.315000 0.129783 0
21.320000 0.100991 0
21.325000 0.072882 0
21.330000 0.046353 0
21.335000 0.021736 0
21.340000 -0.001572 0
21.345000 -0.025541 0
21.350000 -0.053602 0
21.355000 -0.089621 0
21.360000 -0.135173 0
21.365000 -0.185813 0
21.370000 -0.228642 0
21.375000 -0.243418 2
21.380000 -0.206960 0
21.385000 -0.098548 0
21.390000 0.094098 0
21.395000 0.365460 0
21.400000 0.680043 0
21.405000 0.968254 0
21.410000 1.144661 0
21.415000 1.146989 3
21.420000 0.972659 0
21.425000 0.675905 0
21.430000 0.337878 0
21.435000 0.031513 0
21.440000 -0.198572 0
21.445000 -0.336284 0
21.450000 -0.386112 4
21.455000 -0.366510 0
21.460000 -0.304427 0
21.465000 -0.227861 0
21.470000 -0.157821 0
21.475000 -0.104100 0
21.480000 -0.066738 0
21.485000 -0.040779 0
21.490000 -0.020655 0
21.495000 -0.002358 0
21.500000 0.016314 0
21.505000 0.036325 0
21.510000 0.057982 0
21.515000 0.081296 0
21.520000 0.106134 0
21.525000 0.132275 0
21.530000 0.159428 0
21.535000 0.187237 0
21.540000 0.215287 0
21.545000 0.243111 0
21.550000 0.270205 0
21.555000 0.296039 0
21.560000 0.320073 0
21.565000 0.341778 0
21.570000 0.360653 0
21.575000 0.376244 0
21.580000 0.388163 0
21.585000 0.396101 0
21.590000 0.399844 5
21.595000 0.399281 0
21.600000 0.394407 0
21.605000 0.385327 0
21.610000 0.372250 0
21.615000 0.355481 0
21.620000 0.335407 0
21.625000 0.312487 0
21.630000 0.287229 0
21.635000 0.260172 0
21.640000 0.231872 0
21.645000 0.202874 0
21.650000 0.173703 0
21.655000 0.144847 0
21.660000 0.116741 0
21.665000 0.089762 0
21.670000 0.064221 0
21.675000 0.040362 0
21.680000 0.018359 0
21.685000 -0.001677 0
21.690000 -0.019697 0
21.695000 -0.035704 0
21.700000 -0.049746 0
21.705000 -0.061910 0
21.710000 -0.072312 0
21.715000 -0.081085 0
21.720000 -0.088379 0
21.725000 -0.094347 0
21.730000 -0.099144 0
21.735000 -0.102920 0
21.740000 -0.105818 0
21.745000 -0.107970 0
21.750000 -0.109494 0
21.755000 -0.110498 0
21.760000 -0.111076 0
21.765000 -0.111308 0
21.770000 -0.111263 0
21.775000 -0.110895 0
21.780000 -0.109919 0
21.785000 -0.108948 0
21.790000 -0.107982 0
21.795000 -0.107020 0
21.800000 -0.106063 0
21.805000 -0.105111 0
21.810000 -0.104164 0
21.815000 -0.103222 0
21.820000 -0.102284 0
21.825000 -0.101350 0
21.830000 -0.100422 0
21.835000 -0.099497 0
21.840000 -0.098577 0
21.845000 -0.097659 0
21.850000 -0.096744 0
21.855000 -0.095830 0
21.860000 -0.094912 0
21.865000 -0.093984 0
21.870000 -0.093038 0
21.875000 -0.092057 0
21.880000 -0.091016 0
21.885000 -0.089878 0
21.890000 -0.088587 0
21.895000 -0.087062 0
21.900000 -0.085192 0
21.905000 -0.082825 0
21.910000 -0.079766 0
21.915000 -0.075768 0
21.920000 -0.070537 0
21.925000 -0.063737 0
21.930000 -0.055002 0
21.935000 -0.043969 0
21.940000 -0.030310 0
21.945000 -0.013778 0
21.950000 0.005739 0
21.955000 0.028168 0
21.960000 0.053201 0
21.965000 0.080270 0
21.970000 0.108539 0
21.975000 0.136928 0
21.980000 0.164168 0
21.985000 0.188891 0
21.990000 0.209740 0
21.995000 0.225490 0
22.000000 0.235166 0
22.005000 0.238149 1
22.010000 0.234232 0
22.015000 0.223651 0
22.020000 0.207060 0
22.025000 0.185460 0
22.030000 0.160104 0
22.035000 0.132375 0
22.040000 0.103656 0
22.045000 0.075210 0
22.050000 0.048038 0
22.055000 0.022705 0
22.060000 -0.000954 0
22.065000 -0.024236 0
22.070000 -0.049861 0
22.075000 -0.081586 0
22.080000 -0.122424 0
22.085000 -0.171437 0
22.090000 -0.220544 0
22.095000 -0.253688 2
22.100000 -0.249488 0
22.105000 -0.185998 0
22.110000 -0.045749 0
22.115000 0.177822 0
22.120000 0.470155 0
22.125000 0.785263 0
22.130000 1.047884 0
22.135000 1.178096 3
22.140000 1.129501 0
22.145000 0.914782 0
22.150000 0.598443 0
22.155000 0.262782 0
22.160000 -0.025830 0
22.165000 -0.231111 0
22.170000 -0.343441 0
22.175000 -0.371735 4
22.180000 -0.337452 0
22.185000 -0.268735 0
22.190000 -0.192410 0
22.195000 -0.126547 0
22.200000 -0.077841 0
22.205000 -0.044387 0
22.210000 -0.020682 0
22.215000 -0.001475 0
22.220000 0.016702 0
22.225000 0.035632 0
22.230000 0.056038 0
22.235000 0.078116 0
22.240000 0.101825 0
22.245000 0.127004 0
22.250000 0.153409 0
22.255000 0.180730 0
22.260000 0.208591 0
22.265000 0.236559 0
22.270000 0.264156 0
22.275000 0.290865 0
22.280000 0.316150 0
22.285000 0.339474 0
22.290000 0.360310 0
22.295000 0.378171 0
22.300000 0.392618 0
22.305000 0.403286 0
22.310000 0.409893 0
22.315000 0.412255 5
22.320000 0.410293 0
22.325000 0.404038 0
22.330000 0.393626 0
22.335000 0.379299 0
22.340000 0.361388 0
22.345000 0.340308 0
22.350000 0.316534 0
22.355000 0.290587 0
22.360000 0.263016 0
22.365000 0.234376 0
22.370000 0.205209 0
22.375000 0.176030 0
22.380000 0.147312 0
22.385000 0.119474 0
22.390000 0.092873 0
22.395000 0.067799 0
22.400000 0.044472 0
22.405000 0.023047 0
22.410000 0.003614 0
22.415000 -0.013796 0
22.420000 -0.029203 0
22.425000 -0.042667 0
22.430000 -0.054287 0
22.435000 -0.064184 0
22.440000 -0.072501 0
22.445000 -0.079387 0
22.450000 -0.084998 0
22.455000 -0.089489 0
22.460000 -0.093006 0
22.465000 -0.095691 0
22.470000 -0.097669 0
22.475000 -0.099058 0
22.480000 -0.099960 0
22.485000 -0.100464 0
22.490000 -0.100646 0
22.495000 -0.100572 0
22.500000 -0.100202 0
22.505000 -0.099280 0
22.510000 -0.098361 0
22.515000 -0.097448 0
22.520000 -0.096539 0
22.525000 -0.095634 0
22.530000 -0.094734 0
22.535000 -0.093839 0
22.540000 -0.092948 0
22.545000 -0.092061 0
22.550000 -0.091179 0
22.555000 -0.090301 0
22.560000 -0.089427 0
22.565000 -0.088556 0
22.570000 -0.087688 0
22.575000 -0.086821 0
22.580000 -0.085954 0
22.585000 -0.085081 0
22.590000 -0.084195 0
22.595000 -0.083285 0
22.600000 -0.082332 0
22.605000 -0.081307 0
22.610000 -0.080166 0
22.615000 -0.078845 0
22.620000 -0.077252 0
22.625000 -0.075261 0
22.630000 -0.072704 0
22.635000 -0.069367 0
22.640000 -0.064985 0
22.645000 -0.059244 0
22.650000 -0.051795 0
22.655000 -0.042269 0
22.660000 -0.030309 0
22.665000 -0.015613 0
22.670000 0.002022 0
22.675000 0.022641 0
22.680000 0.046086 0
22.685000 0.071950 0
22.690000 0.099559 0
22.695000 0.127974 0
22.700000 0.156030 0
22.705000 0.182406 0
22.710000 0.205720 0
22.715000 0.224649 0
22.720000 0.238052 0
22.725000 0.245082 0
22.730000 0.245277 1
22.735000 0.238608 0
22.740000 0.225481 0
22.745000 0.206703 0
22.750000 0.183391 0
22.755000 0.156869 0
22.760000 0.128538 0
22.765000 0.099751 0
22.770000 0.071683 0
22.775000 0.045189 0
22.780000 0.020576 0
22.785000 -0.002732 0
22.790000 -0.026607 0
22.795000 -0.054315 0
22.800000 -0.089624 0
22.805000 -0.134353 0
22.810000 -0.184901 0
22.815000 -0.229746 0
22.820000 -0.250072 2
22.825000 -0.223603 0
22.830000 -0.129595 0
22.835000 0.045844 0
22.840000 0.301827 0
22.845000 0.611347 0
22.850000 0.914419 0
22.855000 1.129371 0
22.860000 1.185813 3
22.865000 1.060954 0
22.870000 0.792482 0
22.875000 0.457935 0
22.880000 0.136445 0
22.885000 -0.117994 0
22.890000 -0.281713 0
22.895000 -0.354270 4
22.900000 -0.350976 0
22.905000 -0.297367 0
22.910000 -0.222262 0
22.915000 -0.149318 0
22.920000 -0.091360 0
22.925000 -0.050492 0
22.930000 -0.022468 0
22.935000 -0.001529 0
22.940000 0.016817 0
22.945000 0.035173 0
22.950000 0.054734 0
22.955000 0.075918 0
22.960000 0.098780 0
22.965000 0.123210 0
22.970000 0.149001 0
22.975000 0.175874 0
22.980000 0.203480 0
22.985000 0.231412 0
22.990000 0.259208 0
22.995000 0.286363 0
23.000000 0.312346 0
23.005000 0.336613 0
23.010000 0.358626 0
23.015000 0.377873 0
23.020000 0.393887 0
23.025000 0.406265 0
23.030000 0.414684 0
23.035000 0.418911 5
23.040000 0.418820 0
23.045000 0.414393 0
23.050000 0.405722 0
23.055000 0.393003 0
23.060000 0.376535 0
23.065000 0.356700 0
23.070000 0.333954 0
23.075000 0.308805 0
23.080000 0.281797 0
23.085000 0.253488 0
23.090000 0.224432 0
23.095000 0.195161 0
23.100000 0.166170 0
23.105000 0.137903 0
23.110000 0.110746 0
23.115000 0.085016 0
23.120000 0.060964 0
23.125000 0.038770 0
23.130000 0.018548 0
23.135000 0.000352 0
23.140000 -0.015821 0
23.145000 -0.030018 0
23.150000 -0.042324 0
23.155000 -0.052856 0
23.160000 -0.061749 0
23.165000 -0.069154 0
23.170000 -0.075224 0
23.175000 -0.080117 0
23.180000 -0.083985 0
23.185000 -0.086970 0
23.190000 -0.089206 0
23.195000 -0.090813 0
23.200000 -0.091900 0
23.205000 -0.092560 0
23.210000 -0.092874 0
23.215000 -0.092911 0
23.220000 -0.092628 0
23.225000 -0.091743 0
23.230000 -0.090863 0
23.235000 -0.089986 0
23.240000 -0.089115 0
23.245000 -0.088247 0
23.250000 -0.087384 0
23.255000 -0.086525 0
23.260000 -0.085671 0
23.265000 -0.084820 0
23.270000 -0.083974 0
23.275000 -0.083132 0
23.280000 -0.082294 0
23.285000 -0.081459 0
23.290000 -0.080627 0
23.295000 -0.079796 0
23.300000 -0.078965 0
23.305000 -0.078130 0
23.310000 -0.077284 0
23.315000 -0.076417 0
23.320000 -0.075511 0
23.325000 -0.074541 0
23.330000 -0.073465 0
23.335000 -0.072225 0
23.340000 -0.070734 0
23.345000 -0.068873 0
23.350000 -0.066484 0
23.355000 -0.063359 0
23.360000 -0.059243 0
23.365000 -0.053828 0
23.370000 -0.046768 0
23.375000 -0.037694 0
23.380000 -0.026241 0
23.385000 -0.012090 0
23.390000 0.004985 0
23.395000 0.025061 0
23.400000 0.048018 0
23.405000 0.073490 0
23.410000 0.100844 0
23.415000 0.129175 0
23.420000 0.157341 0
23.425000 0.184031 0
23.430000 0.207853 0
23.435000 0.227459 0
23.440000 0.241665 0
23.445000 0.249571 0
23.450000 0.250653 1
23.455000 0.244824 0
23.460000 0.232440 0
23.465000 0.214264 0
23.470000 0.191391 0
23.475000 0.165137 0
23.480000 0.136910 0
23.485000 0.108085 0
23.490000 0.079872 0
23.495000 0.053171 0
23.500000 0.028361 0
23.505000 0.004961 0
23.510000 -0.018783 0
23.515000 -0.046054 0
23.520000 -0.080678 0
23.525000 -0.124763 0
23.530000 -0.175205 0
23.535000 -0.220990 0
23.540000 -0.243572 2
23.545000 -0.220583 0
23.550000 -0.130889 0
23.555000 0.040064 0
23.560000 0.292430 0
23.565000 0.600541 0
23.570000 0.905408 0
23.575000 1.125141 0
23.580000 1.187688 3
23.585000 1.068619 0
23.590000 0.804548 0
23.595000 0.471182 0
23.600000 0.147324 0
23.605000 -0.112109 0
23.610000 -0.282119 0
23.615000 -0.361005 0
23.620000 -0.362927 4
23.625000 -0.312495 0
23.630000 -0.238210 0
23.635000 -0.164218 0
23.640000 -0.104344 0
23.645000 -0.061631 0
23.650000 -0.032333 0
23.655000 -0.010746 0
23.660000 0.007789 0
23.665000 0.026078 0
23.670000 0.045452 0
23.675000 0.066406 0
23.680000 0.089031 0
23.685000 0.113239 0
23.690000 0.138838 0
23.695000 0.165566 0
23.700000 0.193090 0
23.705000 0.221018 0
23.710000 0.248905 0
23.715000 0.276260 0
23.720000 0.302563 0
23.725000 0.327278 0
23.730000 0.349873 0
23.735000 0.369834 0
23.740000 0.386689 0
23.745000 0.400024 0
23.750000 0.409497 0
23.755000 0.414858 0
23.760000 0.415952 5
23.765000 0.412733 0
23.770000 0.405261 0
23.775000 0.393703 0
23.780000 0.378325 0
23.785000 0.359482 0
23.790000 0.337602 0
23.795000 0.313175 0
23.800000 0.286726 0
23.805000 0.258804 0
23.810000 0.229959 0
23.815000 0.200726 0
23.820000 0.171607 0
23.825000 0.143059 0
23.830000 0.115483 0
23.835000 0.089218 0
23.840000 0.064535 0
23.845000 0.041639 0
23.850000 0.020666 0
23.855000 0.001691 0
23.860000 -0.015266 0
23.865000 -0.030236 0
23.870000 -0.043288 0
23.875000 -0.054527 0
23.880000 -0.064078 0
23.885000 -0.072084 0
23.890000 -0.078697 0
23.895000 -0.084071 0
23.900000 -0.088359 0
23.905000 -0.091706 0
23.910000 -0.094249 0
23.915000 -0.096112 0
23.920000 -0.097408 0
23.925000 -0.098236 0
23.930000 -0.098683 0
23.935000 -0.098823 0
23.940000 -0.098718 0
23.945000 -0.097920 0
23.950000 -0.097008 0
23.955000 -0.096101 0
23.960000 -0.095199 0
23.965000 -0.094301 0
23.970000 -0.093408 0
23.975000 -0.092519 0
23.980000 -0.091635 0
23.985000 -0.090755 0
23.990000 -0.089879 0
23.995000 -0.089008 0
24.000000 -0.088140 0
24.005000 -0.087277 0
24.010000 -0.086417 0
24.015000 -0.085559 0
24.020000 -0.084703 0
24.025000 -0.083844 0
24.030000 -0.082980 0
24.035000 -0.082102 0
24.040000 -0.081198 0
24.045000 -0.080248 0
24.050000 -0.079222 0
24.055000 -0.078074 0
24.060000 -0.076738 0
24.065000 -0.075118 0
24.070000 -0.073087 0
24.075000 -0.070471 0
24.080000 -0.067054 0
24.085000 -0.062566 0
24.090000 -0.056692 0
24.095000 -0.049082 0
24.100000 -0.039369 0
24.105000 -0.027202 0
24.110000 -0.012285 0
24.115000 0.005572 0
24.120000 0.026400 0
24.125000 0.050023 0
24.130000 0.076021 0
24.135000 0.103702 0
24.140000 0.132119 0
24.145000 0.160102 0
24.150000 0.186329 0
24.155000 0.209428 0
24.160000 0.228090 0
24.165000 0.241192 0
24.170000 0.247911 1
24.175000 0.247805 0
24.180000 0.240861 0
24.185000 0.227504 0
24.190000 0.208545 0
24.195000 0.185106 0
24.200000 0.158505 0
24.205000 0.130136 0
24.210000 0.101341 0
24.215000 0.073285 0
24.220000 0.046808 0
24.225000 0.022206 0
24.230000 -0.001105 0
24.235000 -0.025000 0
24.240000 -0.052731 0
24.245000 -0.088046 0
24.250000 -0.132756 0
24.255000 -0.183304 0
24.260000 -0.228287 0
24.265000 -0.249053 2
24.270000 -0.223465 0
24.275000 -0.130842 0
24.280000 0.042811 0
24.285000 0.297040 0
24.290000 0.605756 0
24.295000 0.910168 0
24.300000 1.129323 0
24.305000 1.192213 3
24.310000 1.073911 0
24.315000 0.809673 0
24.320000 0.476103 0
24.325000 0.152808 0
24.330000 -0.105051 0
24.335000 -0.272707 0
24.340000 -0.348924 4
24.345000 -0.348439 0
24.350000 -0.296439 0
24.355000 -0.221739 0
24.360000 -0.148350 0
24.365000 -0.089611 0
24.370000 -0.048033 0
24.375000 -0.019555 0
24.380000 0.001586 0
24.385000 0.019963 0
24.390000 0.038262 0
24.395000 0.057728 0
24.400000 0.078806 0
24.405000 0.101563 0
24.410000 0.125896 0
24.415000 0.151602 0
24.420000 0.178405 0
24.425000 0.205961 0
24.430000 0.233867 0
24.435000 0.261663 0
24.440000 0.288849 0
24.445000 0.314893 0
24.450000 0.339254 0
24.455000 0.361393 0
24.460000 0.380798 0
24.465000 0.396998 0
24.470000 0.409587 0
24.475000 0.418236 0
24.480000 0.422709 0
24.485000 0.422871 5
24.490000 0.418698 0
24.495000 0.410275 0
24.500000 0.397791 0
24.505000 0.381539 0
24.510000 0.361895 0
24.515000 0.339310 0
24.520000 0.314288 0
24.525000 0.287371 0
24.530000 0.259116 0
24.535000 0.230076 0
24.540000 0.200786 0
24.545000 0.171742 0
24.550000 0.143392 0
24.555000 0.116125 0
24.560000 0.090264 0
24.565000 0.066064 0
24.570000 0.043709 0
24.575000 0.023319 0
24.580000 0.004952 0
24.585000 -0.011392 0
24.590000 -0.025755 0
24.595000 -0.038222 0
24.600000 -0.048905 0
24.605000 -0.057940 0
24.610000 -0.065474 0
24.615000 -0.071662 0
24.620000 -0.076661 0
24.625000 -0.080623 0
24.630000 -0.083692 0
24.635000 -0.086001 0
24.640000 -0.087673 0
24.645000 -0.088815 0
24.650000 -0.089523 0
24.655000 -0.089879 0
24.660000 -0.089953 0
24.665000 -0.089699 0
24.670000 -0.088829 0
24.675000 -0.087963 0
24.680000 -0.087101 0
24.685000 -0.086244 0
24.690000 -0.085391 0
24.695000 -0.084542 0
24.700000 -0.083697 0
24.705000 -0.082857 0
24.710000 -0.082020 0
24.715000 -0.081188 0
24.720000 -0.080360 0
24.725000 -0.079535 0
24.730000 -0.078715 0
24.735000 -0.077896 0
24.740000 -0.077080 0
24.745000 -0.076263 0
24.750000 -0.075442 0
24.755000 -0.074612 0
24.760000 -0.073761 0
24.765000 -0.072874 0
24.770000 -0.071925 0
24.775000 -0.070877 0
24.780000 -0.069670 0
24.785000 -0.068224 0
24.790000 -0.066423 0
24.795000 -0.064112 0
24.800000 -0.061091 0
24.805000 -0.057109 0
24.810000 -0.051864 0
24.815000 -0.045015 0
24.820000 -0.036193 0
24.825000 -0.025033 0
24.830000 -0.011209 0
24.835000 0.005517 0
24.840000 0.025244 0
24.845000 0.047874 0
24.850000 0.073073 0
24.855000 0.100239 0
24.860000 0.128498 0
24.865000 0.156735 0
24.870000 0.183656 0
24.875000 0.207875 0
24.880000 0.228033 0
24.885000 0.242923 0
24.890000 0.251606 0
24.895000 0.253512 1
24.900000 0.248498 0
24.905000 0.236866 0
24.910000 0.219334 0
24.915000 0.196961 0
24.920000 0.171038 0
24.925000 0.142967 0
24.930000 0.114134 0
24.935000 0.085774 0
24.940000 0.058834 0
24.945000 0.033776 0
24.950000 0.010251 0
24.955000 -0.013308 0
24.960000 -0.039915 0
24.965000 -0.073402 0
24.970000 -0.116286 0
24.975000 -0.166348 0
24.980000 -0.213691 0
24.985000 -0.240636 2
24.990000 -0.225066 0
24.995000 -0.145420 0
25.000000 0.014088 0
25.005000 0.256178 0
25.010000 0.559394 0
25.015000 0.869296 0
25.020000 1.105730 0
25.025000 1.192955 3
25.030000 1.097010 0
25.035000 0.845452 0
25.040000 0.514755 0
25.045000 0.188510 0
25.050000 -0.073830 0
25.055000 -0.244970 0
25.060000 -0.322859 4
25.065000 -0.322505 0
25.070000 -0.269986 0
25.075000 -0.195117 0
25.080000 -0.122430 0
25.085000 -0.065084 0
25.090000 -0.025026 0
25.095000 0.002283 0
25.100000 0.022767 0
25.105000 0.040919 0
25.110000 0.059264 0
25.115000 0.078920 0
25.120000 0.100252 0
25.125000 0.123284 0
25.130000 0.147884 0
25.135000 0.173821 0
25.140000 0.200792 0
25.145000 0.228423 0
25.150000 0.256276 0
25.155000 0.283862 0
25.160000 0.310649 0
25.165000 0.336080 0
25.170000 0.359594 0
25.175000 0.380639 0
25.180000 0.398698 0
25.185000 0.413311 0
25.190000 0.424088 0
25.195000 0.430730 0
25.200000 0.433042 5
25.205000 0.430938 0
25.210000 0.424451 0
25.215000 0.413728 0
25.220000 0.399023 0
25.225000 0.380690 0
25.230000 0.359166 0
25.235000 0.334954 0
25.240000 0.308603 0
25.245000 0.280687 0
25.250000 0.251782 0
25.255000 0.222451 0
25.260000 0.193222 0
25.265000 0.164576 0
25.270000 0.136933 0
25.275000 0.110645 0
25.280000 0.085994 0
25.285000 0.063186 0
25.290000 0.042360 0
25.295000 0.023585 0
25.300000 0.006873 0
25.305000 -0.007816 0
25.310000 -0.020563 0
25.315000 -0.031482 0
25.320000 -0.040711 0
25.325000 -0.048404 0
25.330000 -0.054719 0
25.335000 -0.059820 0
25.340000 -0.063864 0
25.345000 -0.067000 0
25.350000 -0.069366 0
25.355000 -0.071088 0
25.360000 -0.072278 0
25.365000 -0.073033 0
25.370000 -0.073437 0
25.375000 -0.073561 0
25.380000 -0.073365 0
25.385000 -0.072576 0
25.390000 -0.071791 0
25.395000 -0.071010 0
25.400000 -0.070233 0
25.405000 -0.069459 0
25.410000 -0.068690 0
25.415000 -0.067924 0
25.420000 -0.067163 0
25.425000 -0.066405 0
25.430000 -0.065650 0
25.435000 -0.064899 0
25.440000 -0.064152 0
25.445000 -0.063407 0
25.450000 -0.062665 0
25.455000 -0.061923 0
25.460000 -0.061178 0
25.465000 -0.060427 0
25.470000 -0.059662 0
25.475000 -0.058868 0
25.480000 -0.058025 0
25.485000 -0.057101 0
25.490000 -0.056045 0
25.495000 -0.054785 0
25.500000 -0.053218 0
25.505000 -0.051200 0
25.510000 -0.048543 0
25.515000 -0.045006 0
25.520000 -0.040297 0
25.525000 -0.034073 0
25.530000 -0.025958 0
25.535000 -0.015570 0
25.540000 -0.002553 0
25.545000 0.013369 0
25.550000 0.032339 0
25.555000 0.054309 0
25.560000 0.078988 0
25.565000 0.105806 0
25.570000 0.133908 0
25.575000 0.162175 0
25.580000 0.189285 0
25.585000 0.213809 0
25.590000 0.234329 0
25.595000 0.249574 0
25.600000 0.258548 0
25.605000 0.260640 1
25.610000 0.255685 0
25.615000 0.243991 0
25.620000 0.226301 0
25.625000 0.203719 0
25.630000 0.177591 0
25.635000 0.149372 0
25.640000 0.120490 0
25.645000 0.092204 0
25.650000 0.065451 0
25.655000 0.040617 0
25.660000 0.017178 0
25.665000 -0.006742 0
25.670000 -0.034511 0
25.675000 -0.070048 0
25.680000 -0.115181 0
25.685000 -0.165880 0
25.690000 -0.209649 0
25.695000 -0.226431 2
25.700000 -0.192936 0
25.705000 -0.088094 0
25.710000 0.100970 0
25.715000 0.369673 0
25.720000 0.683646 0
25.725000 0.973970 0
25.730000 1.154730 0
25.735000 1.162031 3
25.740000 0.989553 0
25.745000 0.691989 0
25.750000 0.353972 0
25.755000 0.050819 0
25.760000 -0.172607 0
25.765000 -0.301394 0
25.770000 -0.341885 4
25.775000 -0.314718 0
25.780000 -0.248681 0
25.785000 -0.172297 0
25.790000 -0.105455 0
25.795000 -0.055970 0
25.800000 -0.022227 0
25.805000 0.001443 0
25.810000 0.020520 0
25.815000 0.038598 0
25.820000 0.057491 0
25.825000 0.077916 0
25.830000 0.100055 0
25.835000 0.123848 0
25.840000 0.149117 0
25.845000 0.175599 0
25.850000 0.202958 0
25.855000 0.230793 0
25.860000 0.258641 0
25.865000 0.285994 0
25.870000 0.312307 0
25.875000 0.337019 0
25.880000 0.359570 0
25.885000 0.379423 0
25.890000 0.396082 0
25.895000 0.409117 0
25.900000 0.418175 0
25.905000 0.423001 0
25.910000 0.423446 5
25.915000 0.419478 0
25.920000 0.411177 0
25.925000 0.398738 0
25.930000 0.382460 0
25.935000 0.362736 0
25.940000 0.340031 0
25.945000 0.314872 0
25.950000 0.287820 0
25.955000 0.259452 0
25.960000 0.230341 0
25.965000 0.201035 0
25.970000 0.172045 0
25.975000 0.143826 0
25.980000 0.116769 0
25.985000 0.091196 0
25.990000 0.067356 0
25.995000 0.045427 0
26.000000 0.025516 0
26.005000 0.007667 0
26.010000 -0.008131 0
26.015000 -0.021936 0
26.020000 -0.033846 0
26.025000 -0.043986 0
26.030000 -0.052500 0
26.035000 -0.059545 0
26.040000 -0.065284 0
26.045000 -0.069876 0
26.050000 -0.073476 0
26.055000 -0.076228 0
26.060000 -0.078266 0
26.065000 -0.079710 0
26.070000 -0.080664 0
26.075000 -0.081221 0
26.080000 -0.081460 0
26.085000 -0.081445 0
26.090000 -0.080733 0
26.095000 -0.079907 0
26.100000 -0.079086 0
26.105000 -0.078269 0
26.110000 -0.077455 0
26.115000 -0.076646 0
26.120000 -0.075841 0
26.125000 -0.075039 0
26.130000 -0.074242 0
26.135000 -0.073449 0
26.140000 -0.072659 0
26.145000 -0.071873 0
26.150000 -0.071091 0
26.155000 -0.070311 0
26.160000 -0.069533 0
26.165000 -0.068754 0
26.170000 -0.067972 0
26.175000 -0.067181 0
26.180000 -0.066370 0
26.185000 -0.065524 0
26.190000 -0.064618 0
26.195000 -0.063612 0
26.200000 -0.062447 0
26.205000 -0.061040 0
26.210000 -0.059272 0
26.215000 -0.056982 0
26.220000 -0.053960 0
26.225000 -0.049945 0
26.230000 -0.044622 0
26.235000 -0.037633 0
26.240000 -0.028596 0
26.245000 -0.017134 0
26.250000 -0.002919 0
26.255000 0.014278 0
26.260000 0.034529 0
26.265000 0.057691 0
26.270000 0.083362 0
26.275000 0.110856 0
26.280000 0.139206 0
26.285000 0.167200 0
26.290000 0.193462 0
26.295000 0.216551 0
26.300000 0.235094 0
26.305000 0.247920 0
26.310000 0.254177 1
26.315000 0.253430 0
26.320000 0.245707 0
26.325000 0.231500 0
26.330000 0.211709 0
26.335000 0.187549 0
26.340000 0.160429 0
26.345000 0.131806 0
26.350000 0.103057 0
26.355000 0.075330 0
26.360000 0.049375 0
26.365000 0.025262 0
26.370000 0.001972 0
26.375000 -0.022992 0
26.380000 -0.053420 0
26.385000 -0.092804 0
26.390000 -0.141071 0
26.395000 -0.190954 0
26.400000 -0.226602 2
26.405000 -0.226038 0
26.410000 -0.166226 0
26.415000 -0.028557 0
26.420000 0.194251 0
26.425000 0.487154 0
26.430000 0.801631 0
26.435000 1.058444 0
26.440000 1.175258 3
26.445000 1.108612 0
26.450000 0.878663 0
26.455000 0.555532 0
26.460000 0.223121 0
26.465000 -0.054418 0
26.470000 -0.244471 0
26.475000 -0.340812 0
26.480000 -0.355256 4
26.485000 -0.311649 0
26.490000 -0.239292 0
26.495000 -0.164271 0
26.500000 -0.102444 0
26.505000 -0.058123 0
26.510000 -0.027929 0
26.515000 -0.006006 0
26.520000 0.012579 0
26.525000 0.030821 0
26.530000 0.050142 0
26.535000 0.071066 0
26.540000 0.093689 0
26.545000 0.117919 0
26.550000 0.143557 0
26.555000 0.170326 0
26.560000 0.197882 0
26.565000 0.225815 0
26.570000 0.253658 0
26.575000 0.280903 0
26.580000 0.307009 0
26.585000 0.331422 0
26.590000 0.353593 0
26.595000 0.372998 0
26.600000 0.389160 0
26.605000 0.401664 0
26.610000 0.410178 0
26.615000 0.414465 5
26.620000 0.414394 0
26.625000 0.409946 0
26.630000 0.401215 0
26.635000 0.388405 0
26.640000 0.371821 0
26.645000 0.351857 0
26.650000 0.328979 0
26.655000 0.303707 0
26.660000 0.276597 0
26.665000 0.248218 0
26.670000 0.219132 0
26.675000 0.189880 0
26.680000 0.160960 0
26.685000 0.132818 0
26.690000 0.105840 0
26.695000 0.080340 0
26.700000 0.056562 0
26.705000 0.034681 0
26.710000 0.014803 0
26.715000 -0.003029 0
26.720000 -0.018824 0
26.725000 -0.032639 0
26.730000 -0.044569 0
26.735000 -0.054735 0
26.740000 -0.063281 0
26.745000 -0.070359 0
26.750000 -0.076130 0
26.755000 -0.080751 0
26.760000 -0.084375 0
26.765000 -0.087146 0
26.770000 -0.089196 0
26.775000 -0.090644 0
26.780000 -0.091596 0
26.785000 -0.092143 0
26.790000 -0.092365 0
26.795000 -0.092328 0
26.800000 -0.091994 0
26.805000 -0.091112 0
26.810000 -0.090235 0
26.815000 -0.089362 0
26.820000 -0.088493 0
26.825000 -0.087629 0
26.830000 -0.086769 0
26.835000 -0.085913 0
26.840000 -0.085061 0
26.845000 -0.084214 0
26.850000 -0.083371 0
26.855000 -0.082531 0
26.860000 -0.081696 0
26.865000 -0.080864 0
26.870000 -0.080034 0
26.875000 -0.079204 0
26.880000 -0.078373 0
26.885000 -0.077534 0
26.890000 -0.076679 0
26.895000 -0.075796 0
26.900000 -0.074861 0
26.905000 -0.073841 0
26.910000 -0.072685 0
26.915000 -0.071319 0
26.920000 -0.069638 0
26.925000 -0.067497 0
26.930000 -0.064708 0
26.935000 -0.061032 0
26.940000 -0.056175 0
26.945000 -0.049799 0
26.950000 -0.041535 0
26.955000 -0.031004 0
26.960000 -0.017860 0
26.965000 -0.001832 0
26.970000 0.017220 0
26.975000 0.039246 0
26.980000 0.063963 0
26.985000 0.090815 0
26.990000 0.118965 0
26.995000 0.147319 0
27.000000 0.174582 0
27.005000 0.199350 0
27.010000 0.220224 0
27.015000 0.235939 0
27.020000 0.245495 0
27.025000 0.248255 1
27.030000 0.244019 0
27.035000 0.233047 0
27.040000 0.216030 0
27.045000 0.194021 0
27.050000 0.168324 0
27.055000 0.140364 0
27.060000 0.111558 0
27.065000 0.083179 0
27.070000 0.056206 0
27.075000 0.031128 0
27.080000 0.007607 0
27.085000 -0.015944 0
27.090000 -0.042599 0
27.095000 -0.076264 0
27.100000 -0.119434 0
27.105000 -0.169625 0
27.110000 -0.216384 0
27.115000 -0.241339 2
27.120000 -0.221821 0
27.125000 -0.136082 0
27.130000 0.031210 0
27.135000 0.281047 0
27.140000 0.588337 0
27.145000 0.893808 0
27.150000 1.114262 0
27.155000 1.176201 3
27.160000 1.054128 0
27.165000 0.785512 0
27.170000 0.450608 0
27.175000 0.130993 0
27.180000 -0.118621 0
27.185000 -0.275279 0
27.190000 -0.339952 4
27.195000 -0.329720 0
27.200000 -0.271818 0
27.205000 -0.195870 0
27.210000 -0.124947 0
27.215000 -0.070326 0
27.220000 -0.032580 0
27.225000 -0.006654 0
27.230000 0.013280 0
27.235000 0.031401 0
27.240000 0.049968 0
27.245000 0.069941 0
27.250000 0.091612 0
27.255000 0.114970 0
27.260000 0.139865 0
27.265000 0.166054 0
27.270000 0.193221 0
27.275000 0.220980 0
27.280000 0.248884 0
27.285000 0.276435 0
27.290000 0.303094 0
27.295000 0.328303 0
27.300000 0.351498 0
27.305000 0.372132 0
27.310000 0.389696 0
27.315000 0.403738 0
27.320000 0.413883 0
27.325000 0.419848 0
27.330000 0.421457 5
27.335000 0.418644 0
27.340000 0.411461 0
27.345000 0.400075 0
27.350000 0.384759 0
27.355000 0.365885 0
27.360000 0.343901 0
27.365000 0.319322 0
27.370000 0.292703 0
27.375000 0.264621 0
27.380000 0.235653 0
27.385000 0.206357 0
27.390000 0.177254 0
27.395000 0.148815 0
27.400000 0.121449 0
27.405000 0.095497 0
27.410000 0.071226 0
27.415000 0.048830 0
27.420000 0.028435 0
27.425000 0.010099 0
27.430000 -0.006177 0
27.435000 -0.020441 0
27.440000 -0.032781 0
27.445000 -0.043317 0
27.450000 -0.052190 0
27.455000 -0.059556 0
27.460000 -0.065576 0
27.465000 -0.070411 0
27.470000 -0.074218 0
27.475000 -0.077145 0
27.480000 -0.079328 0
27.485000 -0.080889 0
27.490000 -0.081938 0
27.495000 -0.082569 0
27.500000 -0.082865 0
27.505000 -0.082895 0
27.510000 -0.082619 0
27.515000 -0.081784 0
27.520000 -0.080953 0
27.525000 -0.080127 0
27.530000 -0.079304 0
27.535000 -0.078485 0
27.540000 -0.077671 0
27.545000 -0.076861 0
27.550000 -0.076054 0
27.555000 -0.075252 0
27.560000 -0.074453 0
27.565000 -0.073659 0
27.570000 -0.072867 0
27.575000 -0.072079 0
27.580000 -0.071292 0
27.585000 -0.070506 0
27.590000 -0.069718 0
27.595000 -0.068921 0
27.600000 -0.068107 0
27.605000 -0.067262 0
27.610000 -0.066362 0
27.615000 -0.065372 0
27.620000 -0.064237 0
27.625000 -0.062878 0
27.630000 -0.061183 0
27.635000 -0.059001 0
27.640000 -0.056131 0
27.645000 -0.052320 0
27.650000 -0.047264 0
27.655000 -0.040611 0
27.660000 -0.031980 0
27.665000 -0.020990 0
27.670000 -0.007299 0
27.675000 0.009346 0
27.680000 0.029049 0
27.685000 0.051710 0
27.690000 0.076977 0
27.695000 0.104215 0
27.700000 0.132502 0
27.705000 0.160665 0
27.710000 0.187345 0
27.715000 0.211102 0
27.720000 0.230538 0
27.725000 0.244434 0
27.730000 0.251873 0
27.735000 0.252343 1
27.740000 0.245792 0
27.745000 0.232634 0
27.750000 0.213710 0
27.755000 0.190192 0
27.760000 0.163469 0
27.765000 0.135002 0
27.770000 0.106195 0
27.775000 0.078246 0
27.780000 0.051986 0
27.785000 0.027620 0
27.790000 0.004332 0
27.795000 -0.020134 0
27.800000 -0.049432 0
27.805000 -0.087286 0
27.810000 -0.134435 0
27.815000 -0.184887 0
27.820000 -0.224009 0
27.825000 -0.230418 2
27.830000 -0.180835 0
27.835000 -0.055577 0
27.840000 0.154928 0
27.845000 0.439724 0
27.850000 0.755443 0
27.855000 1.026038 0
27.860000 1.166921 3
27.865000 1.126290 0
27.870000 0.914679 0
27.875000 0.598426 0
27.880000 0.263300 0
27.885000 -0.022090 0
27.890000 -0.221226 0
27.895000 -0.325563 0
27.900000 -0.345771 4
27.905000 -0.305352 0
27.910000 -0.233994 0
27.915000 -0.158674 0
27.920000 -0.096162 0
27.925000 -0.051306 0
27.930000 -0.020859 0
27.935000 0.001122 0
27.940000 0.019685 0
27.945000 0.037893 0
27.950000 0.057195 0
27.955000 0.078117 0
27.960000 0.100755 0
27.965000 0.125009 0
27.970000 0.150675 0
27.975000 0.177469 0
27.980000 0.205034 0
27.985000 0.232950 0
27.990000 0.260740 0
27.995000 0.287882 0
28.000000 0.313823 0
28.005000 0.338000 0
28.010000 0.359855 0
28.015000 0.378861 0
28.020000 0.394537 0
28.025000 0.406471 0
28.030000 0.414340 0
28.035000 0.417916 5
28.040000 0.417085 0
28.045000 0.411847 0
28.050000 0.402317 0
28.055000 0.388724 0
28.060000 0.371395 0
28.065000 0.350749 0
28.070000 0.327273 0
28.075000 0.301506 0
28.080000 0.274018 0
28.085000 0.245389 0
28.090000 0.216187 0
28.095000 0.186953 0
28.100000 0.158180 0
28.105000 0.130307 0
28.110000 0.103706 0
28.115000 0.078676 0
28.120000 0.055444 0
28.125000 0.034166 0
28.130000 0.014928 0
28.135000 -0.002243 0
28.140000 -0.017376 0
28.145000 -0.030541 0
28.150000 -0.041846 0
28.155000 -0.051423 0
28.160000 -0.059423 0
28.165000 -0.066005 0
28.170000 -0.071331 0
28.175000 -0.075561 0
28.180000 -0.078846 0
28.185000 -0.081328 0
28.190000 -0.083135 0
28.195000 -0.084385 0
28.200000 -0.085176 0
28.205000 -0.085598 0
28.210000 -0.085723 0
28.215000 -0.085615 0
28.220000 -0.084872 0
28.225000 -0.084026 0
28.230000 -0.083184 0
28.235000 -0.082346 0
28.240000 -0.081512 0
28.245000 -0.080683 0
28.250000 -0.079857 0
28.255000 -0.079036 0
28.260000 -0.078219 0
28.265000 -0.077405 0
28.270000 -0.076596 0
28.275000 -0.075790 0
28.280000 -0.074988 0
28.285000 -0.074188 0
28.290000 -0.073389 0
28.295000 -0.072590 0
28.300000 -0.071785 0
28.305000 -0.070967 0
28.310000 -0.070126 0
28.315000 -0.069242 0
28.320000 -0.068285 0
28.325000 -0.067209 0
28.330000 -0.065948 0
28.335000 -0.064406 0
28.340000 -0.062449 0
28.345000 -0.059899 0
28.350000 -0.056527 0
28.355000 -0.052051 0
28.360000 -0.046137 0
28.365000 -0.038416 0
28.370000 -0.028502 0
28.375000 -0.016031 0
