0.000000 1.162114 3
0.005000 1.042381 0
0.010000 0.743823 0
0.015000 0.371941 0
0.020000 0.031319 0
0.025000 -0.214377 0
0.030000 -0.344995 0
0.035000 -0.370792 4
0.040000 -0.321626 0
0.045000 -0.236541 0
0.050000 -0.149958 0
0.055000 -0.080866 0
0.060000 -0.032074 0
0.065000 0.002591 0
0.070000 0.030591 0
0.075000 0.056953 0
0.080000 0.084030 0
0.085000 0.112525 0
0.090000 0.142369 0
0.095000 0.173176 0
0.100000 0.204405 0
0.105000 0.235422 0
0.110000 0.265528 0
0.115000 0.293985 0
0.120000 0.320045 0
0.125000 0.342984 0
0.130000 0.362131 0
0.135000 0.376901 0
0.140000 0.386828 0
0.145000 0.391584 5
0.150000 0.390997 0
0.155000 0.385063 0
0.160000 0.373946 0
0.165000 0.357968 0
0.170000 0.337595 0
0.175000 0.313414 0
0.180000 0.286101 0
0.185000 0.256396 0
0.190000 0.225064 0
0.195000 0.192862 0
0.200000 0.160514 0
0.205000 0.128683 0
0.210000 0.097948 0
0.215000 0.068794 0
0.220000 0.041602 0
0.225000 0.016648 0
0.230000 -0.005896 0
0.235000 -0.025951 0
0.240000 -0.043520 0
0.245000 -0.058677 0
0.250000 -0.071553 0
0.255000 -0.082315 0
0.260000 -0.091161 0
0.265000 -0.098300 0
0.270000 -0.103947 0
0.275000 -0.108309 0
0.280000 -0.111585 0
0.285000 -0.113955 0
0.290000 -0.115582 0
0.295000 -0.116606 0
0.300000 -0.115930 0
0.305000 -0.114970 0
0.310000 -0.114015 0
0.315000 -0.113064 0
0.320000 -0.112119 0
0.325000 -0.111177 0
0.330000 -0.110240 0
0.335000 -0.109307 0
0.340000 -0.108376 0
0.345000 -0.107446 0
0.350000 -0.106513 0
0.355000 -0.105569 0
0.360000 -0.104603 0
0.365000 -0.103594 0
0.370000 -0.102508 0
0.375000 -0.101287 0
0.380000 -0.099848 0
0.385000 -0.098064 0
0.390000 -0.095754 0
0.395000 -0.092671 0
0.400000 -0.088496 0
0.405000 -0.082828 0
0.410000 -0.075204 0
0.415000 -0.065117 0
0.420000 -0.052066 0
0.425000 -0.035623 0
0.430000 -0.015516 0
0.435000 0.008284 0
0.440000 0.035470 0
0.445000 0.065341 0
0.450000 0.096782 0
0.455000 0.128297 0
0.460000 0.158106 0
0.465000 0.184303 0
0.470000 0.205053 0
0.475000 0.218802 0
0.480000 0.224471 1
0.485000 0.221595 0
0.490000 0.210388 0
0.495000 0.191713 0
0.500000 0.166976 0
0.505000 0.137949 0
0.510000 0.106547 0
0.515000 0.074582 0
0.520000 0.043434 0
0.525000 0.013567 0
0.530000 -0.016190 0
0.535000 -0.049216 0
0.540000 -0.090398 0
0.545000 -0.142751 0
0.550000 -0.201714 0
0.555000 -0.250790 0
0.560000 -0.262895 2
0.565000 -0.207320 0
0.570000 -0.058386 0
0.575000 0.193978 0
0.580000 0.527216 0
0.585000 0.869987 0
0.590000 1.112566 0
0.595000 1.158050 3
0.600000 0.984949 0
0.605000 0.657929 0
0.610000 0.284999 0
0.615000 -0.039105 0
0.620000 -0.262258 0
0.625000 -0.371875 0
0.630000 -0.382181 4
0.635000 -0.324594 0
0.640000 -0.237353 0
0.645000 -0.152267 0
0.650000 -0.085571 0
0.655000 -0.038525 0
0.660000 -0.004680 0
0.665000 0.023107 0
0.670000 0.049510 0
0.675000 0.076688 0
0.680000 0.105270 0
0.685000 0.135175 0
0.690000 0.166021 0
0.695000 0.197284 0
0.700000 0.228347 0
0.705000 0.258531 0
0.710000 0.287120 0
0.715000 0.313387 0
0.720000 0.336624 0
0.725000 0.356175 0
0.730000 0.371463 0
0.735000 0.382019 0
0.740000 0.387508 0
0.745000 0.387743 5
0.750000 0.382695 0
0.755000 0.372497 0
0.760000 0.357437 0
0.765000 0.337942 0
0.770000 0.314562 0
0.775000 0.287939 0
0.780000 0.258780 0
0.785000 0.227825 0
0.790000 0.195817 0
0.795000 0.163471 0
0.800000 0.131451 0
0.805000 0.100347 0
0.810000 0.070660 0
0.815000 0.042795 0
0.820000 0.017054 0
0.825000 -0.006360 0
0.830000 -0.027336 0
0.835000 -0.045851 0
0.840000 -0.061949 0
0.845000 -0.075736 0
0.850000 -0.087363 0
0.855000 -0.097009 0
0.860000 -0.104875 0
0.865000 -0.111169 0
0.870000 -0.116097 0
0.875000 -0.119856 0
0.880000 -0.122632 0
0.885000 -0.124592 0
0.890000 -0.125884 0
0.895000 -0.126383 0
0.900000 -0.125371 0
0.905000 -0.124363 0
0.910000 -0.123361 0
0.915000 -0.122364 0
0.920000 -0.121372 0
0.925000 -0.120384 0
0.930000 -0.119401 0
0.935000 -0.118421 0
0.940000 -0.117444 0
0.945000 -0.116467 0
0.950000 -0.115485 0
0.955000 -0.114492 0
0.960000 -0.113472 0
0.965000 -0.112403 0
0.970000 -0.111247 0
0.975000 -0.109945 0
0.980000 -0.108405 0
0.985000 -0.106497 0
0.990000 -0.104034 0
0.995000 -0.100764 0
1.000000 -0.096365 0
1.005000 -0.090437 0
1.010000 -0.082524 0
1.015000 -0.072130 0
1.020000 -0.058774 0
1.025000 -0.042046 0
1.030000 -0.021696 0
1.035000 0.002288 0
1.040000 0.029592 0
1.045000 0.059525 0
1.050000 0.090997 0
1.055000 0.122551 0
1.060000 0.152461 0
1.065000 0.178875 0
1.070000 0.199999 0
1.075000 0.214303 0
1.080000 0.220700 1
1.085000 0.218684 0
1.090000 0.208398 0
1.095000 0.190616 0
1.100000 0.166647 0
1.105000 0.138177 0
1.110000 0.107064 0
1.115000 0.075105 0
1.120000 0.043751 0
1.125000 0.013676 0
1.130000 -0.015857 0
1.135000 -0.047647 0
1.140000 -0.086288 0
1.145000 -0.135660 0
1.150000 -0.193860 0
1.155000 -0.248255 0
1.160000 -0.274991 2
1.165000 -0.244383 0
1.170000 -0.128924 0
1.175000 0.087796 0
1.180000 0.397222 0
1.185000 0.748048 0
1.190000 1.043695 0
1.195000 1.177109 3
1.200000 1.091437 0
1.205000 0.817069 0
1.210000 0.450087 0
1.215000 0.095973 0
1.220000 -0.174338 0
1.225000 -0.332951 0
1.230000 -0.383800 4
1.235000 -0.351659 0
1.240000 -0.273042 0
1.245000 -0.183961 0
1.250000 -0.108023 0
1.255000 -0.052557 0
1.260000 -0.013628 0
1.265000 0.016184 0
1.270000 0.042803 0
1.275000 0.069439 0
1.280000 0.097305 0
1.285000 0.126582 0
1.290000 0.157003 0
1.295000 0.188106 0
1.300000 0.219317 0
1.305000 0.249992 0
1.310000 0.279433 0
1.315000 0.306921 0
1.320000 0.331741 0
1.325000 0.353210 0
1.330000 0.370712 0
1.335000 0.383725 0
1.340000 0.391844 0
1.345000 0.394805 5
1.350000 0.392498 0
1.355000 0.384970 0
1.360000 0.372427 0
1.365000 0.355221 0
1.370000 0.333836 0
1.375000 0.308864 0
1.380000 0.280974 0
1.385000 0.250888 0
1.390000 0.219345 0
1.395000 0.187075 0
1.400000 0.154767 0
1.405000 0.123050 0
1.410000 0.092474 0
1.415000 0.063495 0
1.420000 0.036473 0
1.425000 0.011664 0
1.430000 -0.010768 0
1.435000 -0.030751 0
1.440000 -0.048292 0
1.445000 -0.063461 0
1.450000 -0.076383 0
1.455000 -0.087221 0
1.460000 -0.096163 0
1.465000 -0.103411 0
1.470000 -0.109173 0
1.475000 -0.113651 0
1.480000 -0.117036 0
1.485000 -0.119507 0
1.490000 -0.121222 0
1.495000 -0.122322 0
1.500000 -0.122696 0
1.505000 -0.121703 0
1.510000 -0.120714 0
1.515000 -0.119730 0
1.520000 -0.118751 0
1.525000 -0.117776 0
1.530000 -0.116806 0
1.535000 -0.115841 0
1.540000 -0.114878 0
1.545000 -0.113917 0
1.550000 -0.112956 0
1.555000 -0.111987 0
1.560000 -0.111003 0
1.565000 -0.109986 0
1.570000 -0.108911 0
1.575000 -0.107733 0
1.580000 -0.106385 0
1.585000 -0.104765 0
1.590000 -0.102729 0
1.595000 -0.100073 0
1.600000 -0.096526 0
1.605000 -0.091745 0
1.610000 -0.085317 0
1.615000 -0.076773 0
1.620000 -0.065621 0
1.625000 -0.051393 0
1.630000 -0.033720 0
1.635000 -0.012407 0
1.640000 0.012477 0
1.645000 0.040528 0
1.650000 0.070956 0
1.655000 0.102580 0
1.660000 0.133878 0
1.665000 0.163087 0
1.670000 0.188366 0
1.675000 0.207978 0
1.680000 0.220493 0
1.685000 0.224958 1
1.690000 0.221015 0
1.695000 0.208952 0
1.700000 0.189667 0
1.705000 0.164559 0
1.710000 0.135354 0
1.715000 0.103905 0
1.720000 0.071952 0
1.725000 0.040820 0
1.730000 0.010953 0
1.735000 -0.018743 0
1.740000 -0.051463 0
1.745000 -0.091914 0
1.750000 -0.143317 0
1.755000 -0.202135 0
1.760000 -0.253685 0
1.765000 -0.272750 2
1.770000 -0.229647 0
1.775000 -0.098231 0
1.780000 0.134870 0
1.785000 0.455476 0
1.790000 0.804983 0
1.795000 1.082628 0
1.800000 1.185609 3
1.805000 1.069171 0
1.810000 0.775577 0
1.815000 0.404666 0
1.820000 0.058029 0
1.825000 -0.199717 0
1.830000 -0.345466 0
1.835000 -0.385912 4
1.840000 -0.347264 0
1.845000 -0.266186 0
1.850000 -0.177548 0
1.855000 -0.103248 0
1.860000 -0.049306 0
1.865000 -0.011289 0
1.870000 0.018154 0
1.875000 0.044706 0
1.880000 0.071388 0
1.885000 0.099320 0
1.890000 0.128650 0
1.895000 0.159101 0
1.900000 0.190211 0
1.905000 0.221411 0
1.910000 0.252061 0
1.915000 0.281472 0
1.920000 0.308934 0
1.925000 0.333738 0
1.930000 0.355210 0
1.935000 0.372743 0
1.940000 0.385817 0
1.945000 0.394031 0
1.950000 0.397123 5
1.955000 0.394978 0
1.960000 0.387638 0
1.965000 0.375301 0
1.970000 0.358309 0
1.975000 0.337135 0
1.980000 0.312357 0
1.985000 0.284634 0
1.990000 0.254677 0
1.995000 0.223217 0
2.000000 0.190975 0
2.005000 0.158638 0
2.010000 0.126835 0
2.015000 0.096115 0
2.020000 0.066941 0
2.025000 0.039678 0
2.030000 0.014592 0
2.035000 -0.008146 0
2.040000 -0.028454 0
2.045000 -0.046327 0
2.050000 -0.061829 0
2.055000 -0.075076 0
2.060000 -0.086223 0
2.065000 -0.095455 0
2.070000 -0.102969 0
2.075000 -0.108970 0
2.080000 -0.113659 0
2.085000 -0.117229 0
2.090000 -0.119857 0
2.095000 -0.121705 0
2.100000 -0.122915 0
2.105000 -0.123365 0
2.110000 -0.122368 0
2.115000 -0.121376 0
2.120000 -0.120389 0
2.125000 -0.119406 0
2.130000 -0.118429 0
2.135000 -0.117456 0
2.140000 -0.116487 0
2.145000 -0.115522 0
2.150000 -0.114559 0
2.155000 -0.113596 0
2.160000 -0.112628 0
2.165000 -0.111647 0
2.170000 -0.110640 0
2.175000 -0.109584 0
2.180000 -0.108440 0
2.185000 -0.107151 0
2.190000 -0.105627 0
2.195000 -0.103739 0
2.200000 -0.101305 0
2.205000 -0.098080 0
2.210000 -0.093749 0
2.215000 -0.087925 0
2.220000 -0.080161 0
2.225000 -0.069972 0
2.230000 -0.056883 0
2.235000 -0.040484 0
2.240000 -0.020512 0
2.245000 0.003071 0
2.250000 0.029996 0
2.255000 0.059629 0
2.260000 0.090949 0
2.265000 0.122572 0
2.270000 0.152835 0
2.275000 0.179927 0
2.280000 0.202067 0
2.285000 0.217692 0
2.290000 0.225646 1
2.295000 0.225315 0
2.300000 0.216709 0
2.305000 0.200462 0
2.310000 0.177755 0
2.315000 0.150174 0
2.320000 0.119522 0
2.325000 0.087600 0
2.330000 0.055955 0
2.335000 0.025507 0
2.340000 -0.004009 0
2.345000 -0.034718 0
2.350000 -0.070743 0
2.355000 -0.116548 0
2.360000 -0.172689 0
2.365000 -0.230543 0
2.370000 -0.270046 2
2.375000 -0.263181 0
2.380000 -0.181272 0
2.385000 -0.003033 0
2.390000 0.274353 0
2.395000 0.618317 0
2.400000 0.949658 0
2.405000 1.160797 0
2.410000 1.168501 3
2.415000 0.965611 0
2.420000 0.625130 0
2.425000 0.253764 0
2.430000 -0.060625 0
2.435000 -0.272256 0
2.440000 -0.372123 0
2.445000 -0.375960 4
2.450000 -0.315333 0
2.455000 -0.227537 0
2.460000 -0.142973 0
2.465000 -0.076836 0
2.470000 -0.030041 0
2.475000 0.003762 0
2.480000 0.031544 0
2.485000 0.057900 0
2.490000 0.084980 0
2.495000 0.113438 0
2.500000 0.143216 0
2.505000 0.173956 0
2.510000 0.205152 0
2.515000 0.236211 0
2.520000 0.266478 0
2.525000 0.295257 0
2.530000 0.321839 0
2.535000 0.345532 0
2.540000 0.365684 0
2.545000 0.381719 0
2.550000 0.393160 0
2.555000 0.399654 0
2.560000 0.400988 5
2.565000 0.397099 0
2.570000 0.388081 0
2.575000 0.374179 0
2.580000 0.355777 0
2.585000 0.333379 0
2.590000 0.307590 0
2.595000 0.279082 0
2.600000 0.248572 0
2.605000 0.216784 0
2.610000 0.184428 0
2.615000 0.152171 0
2.620000 0.120616 0
2.625000 0.090285 0
2.630000 0.061608 0
2.635000 0.034922 0
2.640000 0.010463 0
2.645000 -0.011625 0
2.650000 -0.031282 0
2.655000 -0.048524 0
2.660000 -0.063428 0
2.665000 -0.076122 0
2.670000 -0.086768 0
2.675000 -0.095555 0
2.680000 -0.102681 0
2.685000 -0.108349 0
2.690000 -0.112758 0
2.695000 -0.116096 0
2.700000 -0.118535 0
2.705000 -0.120231 0
2.710000 -0.121322 0
2.715000 -0.121695 0
2.720000 -0.120706 0
2.725000 -0.119722 0
2.730000 -0.118743 0
2.735000 -0.117769 0
2.740000 -0.116800 0
2.745000 -0.115835 0
2.750000 -0.114874 0
2.755000 -0.113916 0
2.760000 -0.112961 0
2.765000 -0.112004 0
2.770000 -0.111042 0
2.775000 -0.110065 0
2.780000 -0.109058 0
2.785000 -0.107996 0
2.790000 -0.106839 0
2.795000 -0.105523 0
2.800000 -0.103956 0
2.805000 -0.101999 0
2.810000 -0.099463 0
2.815000 -0.096095 0
2.820000 -0.091568 0
2.825000 -0.085490 0
2.830000 -0.077408 0
2.835000 -0.066840 0
2.840000 -0.053317 0
2.845000 -0.036450 0
2.850000 -0.016002 0
2.855000 0.008028 0
2.860000 0.035328 0
2.865000 0.065221 0
2.870000 0.096647 0
2.875000 0.128193 0
2.880000 0.158181 0
2.885000 0.184808 0
2.890000 0.206318 0
2.895000 0.221196 0
2.900000 0.228340 1
2.905000 0.227201 0
2.910000 0.217848 0
2.915000 0.200966 0
2.920000 0.177769 0
2.925000 0.149859 0
2.930000 0.119034 0
2.935000 0.087076 0
2.940000 0.055486 0
2.945000 0.025119 0
2.950000 -0.004394 0
2.955000 -0.035297 0
2.960000 -0.071778 0
2.965000 -0.118189 0
2.970000 -0.174723 0
2.975000 -0.232260 0
2.980000 -0.270381 2
2.985000 -0.261064 0
2.990000 -0.175961 0
2.995000 0.005635 0
3.000000 0.285669 0
3.005000 0.630514 0
3.010000 0.960364 0
3.015000 1.168211 0
3.020000 1.172401 3
3.025000 0.966455 0
3.030000 0.623761 0
3.035000 0.253196 0
3.040000 -0.057035 0
3.045000 -0.262230 0
3.050000 -0.354935 4
3.055000 -0.352549 0
3.060000 -0.288145 0
3.065000 -0.199646 0
3.070000 -0.116757 0
3.075000 -0.053189 0
3.080000 -0.008583 0
3.085000 0.023921 0
3.090000 0.051189 0
3.095000 0.077491 0
3.100000 0.104714 0
3.105000 0.133354 0
3.110000 0.163279 0
3.115000 0.194084 0
3.120000 0.225235 0
3.125000 0.256111 0
3.130000 0.286030 0
3.135000 0.314278 0
3.140000 0.340132 0
3.145000 0.362893 0
3.150000 0.381914 0
3.155000 0.396631 0
3.160000 0.406591 0
3.165000 0.411474 5
3.170000 0.411108 0
3.175000 0.405480 0
3.180000 0.394735 0
3.185000 0.379173 0
3.190000 0.359230 0
3.195000 0.335460 0
3.200000 0.308508 0
3.205000 0.279082 0
3.210000 0.247919 0
3.215000 0.215756 0
3.220000 0.183302 0
3.225000 0.151213 0
3.230000 0.120071 0
3.235000 0.090368 0
3.240000 0.062502 0
3.245000 0.036769 0
3.250000 0.013365 0
3.255000 -0.007605 0
3.260000 -0.026119 0
3.265000 -0.042226 0
3.270000 -0.056033 0
3.275000 -0.067690 0
3.280000 -0.077378 0
3.285000 -0.085296 0
3.290000 -0.091651 0
3.295000 -0.096647 0
3.300000 -0.100483 0
3.305000 -0.103340 0
3.310000 -0.105385 0
3.315000 -0.106767 0
3.320000 -0.107357 0
3.325000 -0.106439 0
3.330000 -0.105527 0
3.335000 -0.104618 0
3.340000 -0.103715 0
3.345000 -0.102815 0
3.350000 -0.101920 0
3.355000 -0.101029 0
3.360000 -0.100141 0
3.365000 -0.099255 0
3.370000 -0.098369 0
3.375000 -0.097478 0
3.380000 -0.096575 0
3.385000 -0.095645 0
3.390000 -0.094667 0
3.395000 -0.093603 0
3.400000 -0.092396 0
3.405000 -0.090955 0
3.410000 -0.089152 0
3.415000 -0.086804 0
3.420000 -0.083665 0
3.425000 -0.079414 0
3.430000 -0.073661 0
3.435000 -0.065953 0
3.440000 -0.055797 0
3.445000 -0.042713 0
3.450000 -0.026288 0
3.455000 -0.006260 0
3.460000 0.017400 0
3.465000 0.044406 0
3.470000 0.074095 0
3.475000 0.105413 0
3.480000 0.136937 0
3.485000 0.166965 0
3.490000 0.193658 0
3.495000 0.215222 0
3.500000 0.230102 0
3.505000 0.237173 1
3.510000 0.235874 0
3.515000 0.226285 0
3.520000 0.209120 0
3.525000 0.185632 0
3.530000 0.157470 0
3.535000 0.126472 0
3.540000 0.094447 0
3.545000 0.062892 0
3.550000 0.032595 0
3.555000 0.003024 0
3.560000 -0.028343 0
3.565000 -0.065938 0
3.570000 -0.113943 0
3.575000 -0.171525 0
3.580000 -0.227666 0
3.585000 -0.259921 2
3.590000 -0.239098 0
3.595000 -0.137049 0
3.600000 0.064780 0
3.605000 0.362577 0
3.610000 0.712382 0
3.615000 1.023654 0
3.620000 1.187773 3
3.625000 1.136674 0
3.630000 0.886645 0
3.635000 0.526726 0
3.640000 0.164616 0
3.645000 -0.121906 0
3.650000 -0.298704 0
3.655000 -0.365521 4
3.660000 -0.344390 0
3.665000 -0.270667 0
3.670000 -0.181331 0
3.675000 -0.102486 0
3.680000 -0.043896 0
3.685000 -0.002889 0
3.690000 0.027836 0
3.695000 0.054605 0
3.700000 0.081037 0
3.705000 0.108595 0
3.710000 0.137575 0
3.715000 0.167760 0
3.720000 0.198711 0
3.725000 0.229869 0
3.730000 0.260599 0
3.735000 0.290212 0
3.740000 0.317991 0
3.745000 0.343217 0
3.750000 0.365202 0
3.755000 0.383316 0
3.760000 0.397020 0
3.765000 0.405890 0
3.770000 0.409636 5
3.775000 0.408123 0
3.780000 0.401372 0
3.785000 0.389563 0
3.790000 0.373025 0
3.795000 0.352222 0
3.800000 0.327727 0
3.805000 0.300201 0
3.810000 0.270358 0
3.815000 0.238935 0
3.820000 0.206666 0
3.825000 0.174248 0
3.830000 0.142321 0
3.835000 0.111449 0
3.840000 0.082105 0
3.845000 0.054663 0
3.850000 0.029399 0
3.855000 0.006490 0
3.860000 -0.013976 0
3.865000 -0.031995 0
3.870000 -0.047626 0
3.875000 -0.060986 0
3.880000 -0.072231 0
3.885000 -0.081548 0
3.890000 -0.089137 0
3.895000 -0.095203 0
3.900000 -0.099952 0
3.905000 -0.103576 0
3.910000 -0.106256 0
3.915000 -0.108155 0
3.920000 -0.109416 0
3.925000 -0.109920 0
3.930000 -0.108989 0
3.935000 -0.108064 0
3.940000 -0.107143 0
3.945000 -0.106227 0
3.950000 -0.105315 0
3.955000 -0.104407 0
3.960000 -0.103504 0
3.965000 -0.102603 0
3.970000 -0.101704 0
3.975000 -0.100805 0
3.980000 -0.099899 0
3.985000 -0.098980 0
3.990000 -0.098031 0
3.995000 -0.097029 0
4.000000 -0.095933 0
4.005000 -0.094682 0
4.010000 -0.093179 0
4.015000 -0.091289 0
4.020000 -0.088819 0
4.025000 -0.085511 0
4.030000 -0.081037 0
4.035000 -0.074993 0
4.040000 -0.066919 0
4.045000 -0.056325 0
4.050000 -0.042735 0
4.055000 -0.025755 0
4.060000 -0.005154 0
4.065000 0.019052 0
4.070000 0.046525 0
4.075000 0.076546 0
4.080000 0.108003 0
4.085000 0.139429 0
4.090000 0.169096 0
4.095000 0.195164 0
4.100000 0.215864 0
4.105000 0.229698 0
4.110000 0.235615 1
4.115000 0.233143 0
4.120000 0.222455 0
4.125000 0.204341 0
4.130000 0.180121 0
4.135000 0.151474 0
4.140000 0.120246 0
4.145000 0.088217 0
4.150000 0.056815 0
4.155000 0.026690 0
4.160000 -0.002914 0
4.165000 -0.034795 0
4.170000 -0.073522 0
4.175000 -0.122939 0
4.180000 -0.181181 0
4.185000 -0.235775 0
4.190000 -0.263133 2
4.195000 -0.233821 0
4.200000 -0.120433 0
4.205000 0.093672 0
4.210000 0.400858 0
4.215000 0.751616 0
4.220000 1.051229 0
4.225000 1.192770 3
4.230000 1.115074 0
4.235000 0.843238 0
4.240000 0.476186 0
4.245000 0.123326 0
4.250000 -0.142645 0
4.255000 -0.294340 0
4.260000 -0.337435 4
4.265000 -0.299036 0
4.270000 -0.217642 0
4.275000 -0.129624 0
4.280000 -0.057111 0
4.285000 -0.005336 0
4.290000 0.030979 0
4.295000 0.059490 0
4.300000 0.085734 0
4.305000 0.112452 0
4.310000 0.140547 0
4.315000 0.170036 0
4.320000 0.200564 0
4.325000 0.231606 0
4.330000 0.262540 0
4.335000 0.292670 0
4.340000 0.321262 0
4.345000 0.347563 0
4.350000 0.370840 0
4.355000 0.390410 0
4.360000 0.405672 0
4.365000 0.416139 0
4.370000 0.421462 5
4.375000 0.421446 0
4.380000 0.416064 0
4.385000 0.405458 0
4.390000 0.389932 0
4.395000 0.369937 0
4.400000 0.346046 0
4.405000 0.318931 0
4.410000 0.289328 0
4.415000 0.258001 0
4.420000 0.225717 0
4.425000 0.193206 0
4.430000 0.161141 0
4.435000 0.130114 0
4.440000 0.100625 0
4.445000 0.073065 0
4.450000 0.047724 0
4.455000 0.024785 0
4.460000 0.004337 0
4.465000 -0.013616 0
4.470000 -0.029143 0
4.475000 -0.042369 0
4.480000 -0.053459 0
4.485000 -0.062609 0
4.490000 -0.070030 0
4.495000 -0.075936 0
4.500000 -0.080537 0
4.505000 -0.084032 0
4.510000 -0.086605 0
4.515000 -0.088420 0
4.520000 -0.089622 0
4.525000 -0.089086 0
4.530000 -0.088260 0
4.535000 -0.087438 0
4.540000 -0.086620 0
4.545000 -0.085806 0
4.550000 -0.084996 0
4.555000 -0.084190 0
4.560000 -0.083386 0
4.565000 -0.082585 0
4.570000 -0.081784 0
4.575000 -0.080979 0
4.580000 -0.080164 0
4.585000 -0.079327 0
4.590000 -0.078447 0
4.595000 -0.077490 0
4.600000 -0.076403 0
4.605000 -0.075099 0
4.610000 -0.073456 0
4.615000 -0.071294 0
4.620000 -0.068368 0
4.625000 -0.064358 0
4.630000 -0.058868 0
4.635000 -0.051433 0
4.640000 -0.041544 0
4.645000 -0.028698 0
4.650000 -0.012464 0
4.655000 0.007441 0
4.660000 0.031047 0
4.665000 0.058058 0
4.670000 0.087776 0
4.675000 0.119089 0
4.680000 0.150501 0
4.685000 0.180226 0
4.690000 0.206353 0
4.695000 0.227037 0
4.700000 0.240715 0
4.705000 0.246302 1
4.710000 0.243328 0
4.715000 0.232006 0
4.720000 0.213205 0
4.725000 0.188336 0
4.730000 0.159179 0
4.735000 0.127658 0
4.740000 0.095588 0
4.745000 0.064350 0
4.750000 0.034391 0
4.755000 0.004507 0
4.760000 -0.028732 0
4.765000 -0.070236 0
4.770000 -0.122933 0
4.775000 -0.182006 0
4.780000 -0.230586 0
4.785000 -0.241281 2
4.790000 -0.183286 0
4.795000 -0.031124 0
4.800000 0.224552 0
4.805000 0.559597 0
4.810000 0.900555 0
4.815000 1.136607 0
4.820000 1.172443 3
4.825000 0.988966 0
4.830000 0.655694 0
4.835000 0.283541 0
4.840000 -0.033483 0
4.845000 -0.245964 0
4.850000 -0.344157 0
4.855000 -0.344848 4
4.860000 -0.281545 0
4.865000 -0.193187 0
4.870000 -0.110398 0
4.875000 -0.047210 0
4.880000 -0.003101 0
4.885000 0.029033 0
4.890000 0.056143 0
4.895000 0.082458 0
4.900000 0.109780 0
4.905000 0.138547 0
4.910000 0.168582 0
4.915000 0.199454 0
4.920000 0.230600 0
4.925000 0.261371 0
4.930000 0.291062 0
4.935000 0.318934 0
4.940000 0.344248 0
4.945000 0.366293 0
4.950000 0.384420 0
4.955000 0.398071 0
4.960000 0.406812 0
4.965000 0.410349 5
4.970000 0.408547 0
4.975000 0.401437 0
4.980000 0.389214 0
4.985000 0.372231 0
4.990000 0.350974 0
4.995000 0.326047 0
5.000000 0.298138 0
5.005000 0.267986 0
5.010000 0.236353 0
5.015000 0.203989 0
5.020000 0.171602 0
5.025000 0.139837 0
5.030000 0.109255 0
5.035000 0.080321 0
5.040000 0.053394 0
5.045000 0.028733 0
5.050000 0.006494 0
5.055000 -0.013259 0
5.060000 -0.030542 0
5.065000 -0.045436 0
5.070000 -0.058077 0
5.075000 -0.068638 0
5.080000 -0.077316 0
5.085000 -0.084322 0
5.090000 -0.089866 0
5.095000 -0.094156 0
5.100000 -0.097385 0
5.105000 -0.099732 0
5.110000 -0.101355 0
5.115000 -0.102393 0
5.120000 -0.101779 0
5.125000 -0.100889 0
5.130000 -0.100004 0
5.135000 -0.099124 0
5.140000 -0.098247 0
5.145000 -0.097375 0
5.150000 -0.096507 0
5.155000 -0.095642 0
5.160000 -0.094779 0
5.165000 -0.093916 0
5.170000 -0.093050 0
5.175000 -0.092172 0
5.180000 -0.091271 0
5.185000 -0.090324 0
5.190000 -0.089297 0
5.195000 -0.088132 0
5.200000 -0.086744 0
5.205000 -0.085003 0
5.210000 -0.082727 0
5.215000 -0.079669 0
5.220000 -0.075506 0
5.225000 -0.069840 0
5.230000 -0.062205 0
5.235000 -0.052100 0
5.240000 -0.039028 0
5.245000 -0.022567 0
5.250000 -0.002448 0
5.255000 0.021347 0
5.260000 0.048509 0
5.265000 0.078339 0
5.270000 0.109722 0
5.275000 0.141171 0
5.280000 0.170917 0
5.285000 0.197068 0
5.290000 0.217800 0
5.295000 0.231566 0
5.300000 0.237289 1
5.305000 0.234498 0
5.310000 0.223394 0
5.315000 0.204821 0
5.320000 0.180166 0
5.325000 0.151181 0
5.330000 0.119768 0
5.335000 0.087734 0
5.340000 0.056477 0
5.345000 0.026505 0
5.350000 -0.003256 0
5.355000 -0.036055 0
5.360000 -0.076729 0
5.365000 -0.128513 0
5.370000 -0.187474 0
5.375000 -0.237985 0
5.380000 -0.253649 2
5.385000 -0.203936 0
5.390000 -0.062675 0
5.395000 0.181806 0
5.400000 0.510370 0
5.405000 0.856267 0
5.410000 1.112233 0
5.415000 1.178148 3
5.420000 1.021476 0
5.425000 0.700275 0
5.430000 0.327247 0
5.435000 0.003142 0
5.440000 -0.217004 0
5.445000 -0.320777 0
5.450000 -0.324374 4
5.455000 -0.261963 0
5.460000 -0.173744 0
5.465000 -0.091327 0
5.470000 -0.028927 0
5.475000 0.014326 0
5.480000 0.045868 0
5.485000 0.072724 0
5.490000 0.099021 0
5.495000 0.126440 0
5.500000 0.155328 0
5.505000 0.185458 0
5.510000 0.216358 0
5.515000 0.247429 0
5.520000 0.277988 0
5.525000 0.307297 0
5.530000 0.334591 0
5.535000 0.359107 0
5.540000 0.380125 0
5.545000 0.396995 0
5.550000 0.409175 0
5.555000 0.416256 0
5.560000 0.417985 5
5.565000 0.414279 0
5.570000 0.405228 0
5.575000 0.391096 0
5.580000 0.372301 0
5.585000 0.349399 0
5.590000 0.323051 0
5.595000 0.293996 0
5.600000 0.263013 0
5.605000 0.230886 0
5.610000 0.198373 0
5.615000 0.166176 0
5.620000 0.134920 0
5.625000 0.105132 0
5.630000 0.077234 0
5.635000 0.051537 0
5.640000 0.028248 0
5.645000 0.007469 0
5.650000 -0.010785 0
5.655000 -0.026576 0
5.660000 -0.040024 0
5.665000 -0.051298 0
5.670000 -0.060594 0
5.675000 -0.068127 0
5.680000 -0.074115 0
5.685000 -0.078774 0
5.690000 -0.082309 0
5.695000 -0.084906 0
5.700000 -0.086736 0
5.705000 -0.087944 0
5.710000 -0.087416 0
5.715000 -0.086598 0
5.720000 -0.085784 0
5.725000 -0.084975 0
5.730000 -0.084169 0
5.735000 -0.083367 0
5.740000 -0.082568 0
5.745000 -0.081773 0
5.750000 -0.080979 0
5.755000 -0.080186 0
5.760000 -0.079388 0
5.765000 -0.078578 0
5.770000 -0.077743 0
5.775000 -0.076861 0
5.780000 -0.075893 0
5.785000 -0.074781 0
5.790000 -0.073430 0
5.795000 -0.071704 0
5.800000 -0.069406 0
5.805000 -0.066272 0
5.810000 -0.061955 0
5.815000 -0.056031 0
5.820000 -0.048011 0
5.825000 -0.037373 0
5.830000 -0.023612 0
5.835000 -0.006322 0
5.840000 0.014719 0
5.845000 0.039451 0
5.850000 0.067444 0
5.855000 0.097849 0
5.860000 0.129386 0
5.865000 0.160409 0
5.870000 0.189025 0
5.875000 0.213280 0
5.880000 0.231374 0
5.885000 0.241878 0
5.890000 0.243926 1
5.895000 0.237325 0
5.900000 0.222587 0
5.905000 0.200862 0
5.910000 0.173788 0
5.915000 0.143282 0
5.920000 0.111293 0
5.925000 0.079509 0
5.930000 0.048948 0
5.935000 0.019309 0
5.940000 -0.011790 0
5.945000 -0.048898 0
5.950000 -0.096567 0
5.955000 -0.154168 0
5.960000 -0.210072 0
5.965000 -0.240238 2
5.970000 -0.213573 0
5.975000 -0.100742 0
5.980000 0.115955 0
5.985000 0.427309 0
5.990000 0.777639 0
5.995000 1.063253 0
6.000000 1.173501 3
6.005000 1.058727 0
6.010000 0.763579 0
6.015000 0.392145 0
6.020000 0.049193 0
6.025000 -0.200477 0
6.030000 -0.335524 0
6.035000 -0.365213 4
6.040000 -0.318603 0
6.045000 -0.234380 0
6.050000 -0.147292 0
6.055000 -0.077102 0
6.060000 -0.027315 0
6.065000 0.007933 0
6.070000 0.036136 0
6.075000 0.062472 0
6.080000 0.089427 0
6.085000 0.117779 0
6.090000 0.147496 0
6.095000 0.178208 0
6.100000 0.209388 0
6.105000 0.240411 0
6.110000 0.270588 0
6.115000 0.299186 0
6.120000 0.325463 0
6.125000 0.348695 0
6.130000 0.368208 0
6.135000 0.383412 0
6.140000 0.393829 0
6.145000 0.399119 5
6.150000 0.399093 0
6.155000 0.393729 0
6.160000 0.383170 0
6.165000 0.367719 0
6.170000 0.347824 0
6.175000 0.324052 0
6.180000 0.297070 0
6.185000 0.267603 0
6.190000 0.236412 0
6.195000 0.204251 0
6.200000 0.171848 0
6.205000 0.139871 0
6.210000 0.108907 0
6.215000 0.079455 0
6.220000 0.051908 0
6.225000 0.026557 0
6.230000 0.003588 0
6.235000 -0.016905 0
6.240000 -0.034914 0
6.245000 -0.050501 0
6.250000 -0.063788 0
6.255000 -0.074937 0
6.260000 -0.084138 0
6.265000 -0.091599 0
6.270000 -0.097533 0
6.275000 -0.102148 0
6.280000 -0.105644 0
6.285000 -0.108203 0
6.290000 -0.109991 0
6.295000 -0.111152 0
6.300000 -0.111581 0
6.305000 -0.110643 0
6.310000 -0.109709 0
6.315000 -0.108780 0
6.320000 -0.107856 0
6.325000 -0.106936 0
6.330000 -0.106020 0
6.335000 -0.105108 0
6.340000 -0.104198 0
6.345000 -0.103290 0
6.350000 -0.102380 0
6.355000 -0.101462 0
6.360000 -0.100524 0
6.365000 -0.099550 0
6.370000 -0.098508 0
6.375000 -0.097349 0
6.380000 -0.095996 0
6.385000 -0.094336 0
6.390000 -0.092203 0
6.395000 -0.089372 0
6.400000 -0.085541 0
6.405000 -0.080337 0
6.410000 -0.073311 0
6.415000 -0.063969 0
6.420000 -0.051805 0
6.425000 -0.036368 0
6.430000 -0.017331 0
6.435000 0.005408 0
6.440000 0.031649 0
6.445000 0.060812 0
6.450000 0.091909 0
6.455000 0.123555 0
6.460000 0.154053 0
6.465000 0.181525 0
6.470000 0.204105 0
6.475000 0.220141 0
6.480000 0.228395 1
6.485000 0.228205 0
6.490000 0.219567 0
6.495000 0.203143 0
6.500000 0.180173 0
6.505000 0.152321 0
6.510000 0.121472 0
6.515000 0.089491 0
6.520000 0.057936 0
6.525000 0.027646 0
6.530000 -0.001903 0
6.535000 -0.033298 0
6.540000 -0.071102 0
6.545000 -0.119536 0
6.550000 -0.177399 0
6.555000 -0.232714 0
6.560000 -0.261754 2
6.565000 -0.234314 0
6.570000 -0.122024 0
6.575000 0.092414 0
6.580000 0.400956 0
6.585000 0.751672 0
6.590000 1.045920 0
6.595000 1.174672 3
6.600000 1.080953 0
6.605000 0.798224 0
6.610000 0.428783 0
6.615000 0.080827 0
6.620000 -0.176369 0
6.625000 -0.318497 0
6.630000 -0.353388 4
6.635000 -0.309633 0
6.640000 -0.226263 0
6.645000 -0.138921 0
6.650000 -0.068232 0
6.655000 -0.018135 0
6.660000 0.017201 0
6.665000 0.045381 0
6.670000 0.071673 0
6.675000 0.098594 0
6.680000 0.126925 0
6.685000 0.156626 0
6.690000 0.187319 0
6.695000 0.218465 0
6.700000 0.249427 0
6.705000 0.279504 0
6.710000 0.307952 0
6.715000 0.334019 0
6.720000 0.356972 0
6.725000 0.376134 0
6.730000 0.390913 0
6.735000 0.400837 0
6.740000 0.405572 5
6.745000 0.404945 0
6.750000 0.398951 0
6.755000 0.387753 0
6.760000 0.371677 0
6.765000 0.351193 0
6.770000 0.326894 0
6.775000 0.299462 0
6.780000 0.269644 0
6.785000 0.238210 0
6.790000 0.205923 0
6.795000 0.173512 0
6.800000 0.141641 0
6.805000 0.110892 0
6.810000 0.081749 0
6.815000 0.054590 0
6.820000 0.029689 0
6.825000 0.007215 0
6.830000 -0.012759 0
6.835000 -0.030240 0
6.840000 -0.045308 0
6.845000 -0.058095 0
6.850000 -0.068774 0
6.855000 -0.077546 0
6.860000 -0.084622 0
6.865000 -0.090217 0
6.870000 -0.094542 0
6.875000 -0.097794 0
6.880000 -0.100152 0
6.885000 -0.101779 0
6.890000 -0.102817 0
6.895000 -0.102201 0
6.900000 -0.101309 0
6.905000 -0.100422 0
6.910000 -0.099539 0
6.915000 -0.098661 0
6.920000 -0.097786 0
6.925000 -0.096916 0
6.930000 -0.096049 0
6.935000 -0.095184 0
6.940000 -0.094319 0
6.945000 -0.093449 0
6.950000 -0.092568 0
6.955000 -0.091661 0
6.960000 -0.090706 0
6.965000 -0.089664 0
6.970000 -0.088477 0
6.975000 -0.087050 0
6.980000 -0.085249 0
6.985000 -0.082881 0
6.990000 -0.079683 0
6.995000 -0.075317 0
7.000000 -0.069368 0
7.005000 -0.061356 0
7.010000 -0.050768 0
7.015000 -0.037108 0
7.020000 -0.019970 0
7.025000 0.000878 0
7.030000 0.025397 0
7.035000 0.053197 0
7.040000 0.083479 0
7.045000 0.115027 0
7.050000 0.146255 0
7.055000 0.175326 0
7.060000 0.200315 0
7.065000 0.219422 0
7.070000 0.231184 0
7.075000 0.234655 1
7.080000 0.229538 0
7.085000 0.216223 0
7.090000 0.195735 0
7.095000 0.169610 0
7.100000 0.139694 0
7.105000 0.107915 0
7.110000 0.076017 0
7.115000 0.045192 0
7.120000 0.015515 0
7.125000 -0.014803 0
7.130000 -0.049784 0
7.135000 -0.094285 0
7.140000 -0.149686 0
7.145000 -0.207992 0
7.150000 -0.248820 2
7.155000 -0.242832 0
7.160000 -0.159734 0
7.165000 0.022715 0
7.170000 0.306193 0
7.175000 0.652940 0
7.180000 0.974989 0
7.185000 1.158791 3
7.190000 1.128056 0
7.195000 0.893592 0
7.200000 0.539371 0
7.205000 0.173514 0
7.210000 -0.122428 0
7.215000 -0.310444 0
7.220000 -0.387523 4
7.225000 -0.373795 0
7.230000 -0.303610 0
7.235000 -0.214298 0
7.240000 -0.133457 0
7.245000 -0.072515 0
7.250000 -0.029787 0
7.255000 0.001845 0
7.260000 0.028944 0
7.265000 0.055422 0
7.270000 0.082930 0
7.275000 0.111857 0
7.280000 0.142028 0
7.285000 0.173023 0
7.290000 0.204297 0
7.295000 0.235226 0
7.300000 0.265128 0
7.305000 0.293290 0
7.310000 0.318995 0
7.315000 0.341550 0
7.320000 0.360319 0
7.325000 0.374750 0
7.330000 0.384404 0
7.335000 0.388974 5
7.340000 0.388302 0
7.345000 0.382388 0
7.350000 0.371388 0
7.355000 0.355611 0
7.360000 0.335500 0
7.365000 0.311612 0
7.370000 0.284596 0
7.375000 0.255156 0
7.380000 0.224026 0
7.385000 0.191940 0
7.390000 0.159600 0
7.395000 0.127654 0
7.400000 0.096678 0
7.405000 0.067157 0
7.410000 0.039482 0
7.415000 0.013942 0
7.420000 -0.009270 0
7.425000 -0.030052 0
7.430000 -0.048386 0
7.435000 -0.064323 0
7.440000 -0.077969 0
7.445000 -0.089475 0
7.450000 -0.099022 0
7.455000 -0.106808 0
7.460000 -0.113038 0
7.465000 -0.117917 0
7.470000 -0.121639 0
7.475000 -0.124387 0
7.480000 -0.126327 0
7.485000 -0.127605 0
7.490000 -0.128093 0
7.495000 -0.127072 0
7.500000 -0.126056 0
7.505000 -0.125046 0
7.510000 -0.124040 0
7.515000 -0.123040 0
7.520000 -0.122044 0
7.525000 -0.121052 0
7.530000 -0.120064 0
7.535000 -0.119079 0
7.540000 -0.118094 0
7.545000 -0.117105 0
7.550000 -0.116105 0
7.555000 -0.115080 0
7.560000 -0.114008 0
7.565000 -0.112853 0
7.570000 -0.111558 0
7.575000 -0.110037 0
7.580000 -0.108164 0
7.585000 -0.105760 0
7.590000 -0.102582 0
7.595000 -0.098320 0
7.600000 -0.092588 0
7.605000 -0.084937 0
7.610000 -0.074883 0
7.615000 -0.061942 0
7.620000 -0.045697 0
7.625000 -0.025872 0
7.630000 -0.002418 0
7.635000 0.024409 0
7.640000 0.053985 0
7.645000 0.085295 0
7.650000 0.116954 0
7.655000 0.147292 0
7.660000 0.174485 0
7.665000 0.196735 0
7.670000 0.212463 0
7.675000 0.220498 1
7.680000 0.220217 0
7.685000 0.211628 0
7.690000 0.195370 0
7.695000 0.172637 0
7.700000 0.145028 0
7.705000 0.114363 0
7.710000 0.082456 0
7.715000 0.050855 0
7.720000 0.020466 0
7.725000 -0.009024 0
7.730000 -0.039828 0
7.735000 -0.076157 0
7.740000 -0.122447 0
7.745000 -0.178944 0
7.750000 -0.236403 0
7.755000 -0.274042 2
7.760000 -0.263378 0
7.765000 -0.175726 0
7.770000 0.009555 0
7.775000 0.293428 0
7.780000 0.639803 0
7.785000 0.965512 0
7.790000 1.161873 3
7.795000 1.149600 0
7.800000 0.928826 0
7.805000 0.579704 0
7.810000 0.211471 0
7.815000 -0.090779 0
7.820000 -0.285922 0
7.825000 -0.369111 4
7.830000 -0.359542 0
7.835000 -0.291327 0
7.840000 -0.202262 0
7.845000 -0.120824 0
7.850000 -0.059203 0
7.855000 -0.016060 0
7.860000 0.015712 0
7.865000 0.042792 0
7.870000 0.069189 0
7.875000 0.096605 0
7.880000 0.125447 0
7.885000 0.155542 0
7.890000 0.186467 0
7.895000 0.217674 0
7.900000 0.248533 0
7.905000 0.278356 0
7.910000 0.306424 0
7.915000 0.332014 0
7.920000 0.354428 0
7.925000 0.373026 0
7.930000 0.387255 0
7.935000 0.396674 0
7.940000 0.400980 5
7.945000 0.400019 0
7.950000 0.393797 0
7.955000 0.382481 0
7.960000 0.366389 0
7.965000 0.345973 0
7.970000 0.321804 0
7.975000 0.294538 0
7.980000 0.264890 0
7.985000 0.233600 0
7.990000 0.201407 0
7.995000 0.169016 0
8.000000 0.137074 0
8.005000 0.106153 0
8.010000 0.076737 0
8.015000 0.049206 0
8.020000 0.023845 0
8.025000 0.000837 0
8.030000 -0.019726 0
8.035000 -0.037833 0
8.040000 -0.053542 0
8.045000 -0.066969 0
8.050000 -0.078269 0
8.055000 -0.087627 0
8.060000 -0.095244 0
8.065000 -0.101329 0
8.070000 -0.106086 0
8.075000 -0.109710 0
8.080000 -0.112382 0
8.085000 -0.114267 0
8.090000 -0.115510 0
8.095000 -0.115991 0
8.100000 -0.115031 0
8.105000 -0.114075 0
8.110000 -0.113124 0
8.115000 -0.112178 0
8.120000 -0.111237 0
8.125000 -0.110300 0
8.130000 -0.109366 0
8.135000 -0.108437 0
8.140000 -0.107509 0
8.145000 -0.106580 0
8.150000 -0.105646 0
8.155000 -0.104697 0
8.160000 -0.103720 0
8.165000 -0.102688 0
8.170000 -0.101562 0
8.175000 -0.100277 0
8.180000 -0.098739 0
8.185000 -0.096808 0
8.190000 -0.094289 0
8.195000 -0.090922 0
8.200000 -0.086373 0
8.205000 -0.080235 0
8.210000 -0.072043 0
8.215000 -0.061304 0
8.220000 -0.047541 0
8.225000 -0.030366 0
8.230000 -0.009554 0
8.235000 0.014863 0
8.240000 0.042526 0
8.245000 0.072692 0
8.250000 0.104220 0
8.255000 0.135617 0
8.260000 0.165134 0
8.265000 0.190920 0
8.270000 0.211210 0
8.275000 0.224524 0
8.280000 0.229843 1
8.285000 0.226744 0
8.290000 0.215447 0
8.295000 0.196797 0
8.300000 0.172155 0
8.305000 0.143232 0
8.310000 0.111889 0
8.315000 0.079893 0
8.320000 0.048629 0
8.325000 0.018645 0
8.330000 -0.011002 0
8.335000 -0.043340 0
8.340000 -0.083052 0
8.345000 -0.133656 0
8.350000 -0.192307 0
8.355000 -0.245130 0
8.360000 -0.267394 2
8.365000 -0.229337 0
8.370000 -0.104204 0
8.375000 0.122621 0
8.380000 0.439136 0
8.385000 0.789379 0
8.390000 1.073844 0
8.395000 1.187825 3
8.400000 1.082987 0
8.405000 0.798148 0
8.410000 0.429156 0
8.415000 0.077234 0
8.420000 -0.190631 0
8.425000 -0.348366 0
8.430000 -0.400000 4
8.435000 -0.369407 0
8.440000 -0.291828 0
8.445000 -0.202450 0
8.450000 -0.125032 0
8.455000 -0.067725 0
8.460000 -0.027346 0
8.465000 0.003249 0
8.470000 0.030102 0
8.475000 0.056660 0
8.480000 0.084324 0
8.485000 0.113387 0
8.490000 0.143645 0
8.495000 0.174677 0
8.500000 0.205950 0
8.505000 0.236852 0
8.510000 0.266720 0
8.515000 0.294861 0
8.520000 0.320577 0
8.525000 0.343196 0
8.530000 0.362098 0
8.535000 0.376745 0
8.540000 0.386703 0
8.545000 0.391666 5
8.550000 0.391468 0
8.555000 0.386097 0
8.560000 0.375687 0
8.565000 0.360522 0
8.570000 0.341017 0
8.575000 0.317698 0
8.580000 0.291181 0
8.585000 0.262145 0
8.590000 0.231301 0
8.595000 0.199363 0
8.600000 0.167022 0
8.605000 0.134923 0
8.610000 0.103644 0
8.615000 0.073681 0
8.620000 0.045439 0
8.625000 0.019229 0
8.630000 -0.004734 0
8.635000 -0.026324 0
8.640000 -0.045498 0
8.645000 -0.062282 0
8.650000 -0.076762 0
8.655000 -0.089070 0
8.660000 -0.099373 0
8.665000 -0.107856 0
8.670000 -0.114719 0
8.675000 -0.120160 0
8.680000 -0.124374 0
8.685000 -0.127546 0
8.690000 -0.129843 0
8.695000 -0.131418 0
8.700000 -0.132404 0
8.705000 -0.131657 0
8.710000 -0.130618 0
8.715000 -0.129585 0
8.720000 -0.128557 0
8.725000 -0.127534 0
8.730000 -0.126515 0
8.735000 -0.125502 0
8.740000 -0.124493 0
8.745000 -0.123487 0
8.750000 -0.122484 0
8.755000 -0.121479 0
8.760000 -0.120470 0
8.765000 -0.119445 0
8.770000 -0.118392 0
8.775000 -0.117285 0
8.780000 -0.116084 0
8.785000 -0.114728 0
8.790000 -0.113125 0
8.795000 -0.111142 0
8.800000 -0.108593 0
8.805000 -0.105233 0
8.810000 -0.100744 0
8.815000 -0.094741 0
8.820000 -0.086782 0
8.825000 -0.076393 0
8.830000 -0.063108 0
8.835000 -0.046534 0
8.840000 -0.026418 0
8.845000 -0.002732 0
8.850000 0.024253 0
8.855000 0.053914 0
8.860000 0.085250 0
8.865000 0.116909 0
8.870000 0.147268 0
8.875000 0.174555 0
8.880000 0.197019 0
8.885000 0.213115 0
8.890000 0.221680 0
8.895000 0.222071 1
8.900000 0.214245 0
8.905000 0.198769 0
8.910000 0.176749 0
8.915000 0.149703 0
8.920000 0.119380 0
8.925000 0.087561 0
8.930000 0.055814 0
8.935000 0.025171 0
8.940000 -0.004387 0
8.945000 -0.034577 0
8.950000 -0.069124 0
8.955000 -0.112596 0
8.960000 -0.166791 0
8.965000 -0.225602 0
8.970000 -0.271851 0
8.975000 -0.279372 2
8.980000 -0.219503 0
8.985000 -0.068662 0
8.990000 0.182285 0
8.995000 0.512996 0
9.000000 0.859064 0
9.005000 1.119184 0
9.010000 1.197727 3
9.015000 1.058596 0
9.020000 0.751122 0
9.025000 0.378311 0
9.030000 0.039117 0
9.035000 -0.206636 0
9.040000 -0.339784 0
9.045000 -0.369680 4
9.050000 -0.324278 0
9.055000 -0.240782 0
9.060000 -0.153085 0
9.065000 -0.081219 0
9.070000 -0.029596 0
9.075000 0.006942 0
9.080000 0.035717 0
9.085000 0.062099 0
9.090000 0.088831 0
9.095000 0.116871 0
9.100000 0.146291 0
9.105000 0.176784 0
9.110000 0.207869 0
9.115000 0.238968 0
9.120000 0.269430 0
9.125000 0.298562 0
9.130000 0.325649 0
9.135000 0.349986 0
9.140000 0.370904 0
9.145000 0.387803 0
9.150000 0.400180 0
9.155000 0.407648 0
9.160000 0.409965 5
9.165000 0.407036 0
9.170000 0.398926 0
9.175000 0.385854 0
9.180000 0.368181 0
9.185000 0.346397 0
9.190000 0.321096 0
9.195000 0.292947 0
9.200000 0.262665 0
9.205000 0.230985 0
9.210000 0.198626 0
9.215000 0.166268 0
9.220000 0.134530 0
9.225000 0.103952 0
9.230000 0.074983 0
9.235000 0.047972 0
9.240000 0.023173 0
9.245000 0.000743 0
9.250000 -0.019250 0
9.255000 -0.036811 0
9.260000 -0.052013 0
9.265000 -0.064979 0
9.270000 -0.075871 0
9.275000 -0.084876 0
9.280000 -0.092194 0
9.285000 -0.098030 0
9.290000 -0.102585 0
9.295000 -0.106048 0
9.300000 -0.108596 0
9.305000 -0.110388 0
9.310000 -0.111563 0
9.315000 -0.112006 0
9.320000 -0.111066 0
9.325000 -0.110130 0
9.330000 -0.109199 0
9.335000 -0.108272 0
9.340000 -0.107350 0
9.345000 -0.106433 0
9.350000 -0.105519 0
9.355000 -0.104608 0
9.360000 -0.103699 0
9.365000 -0.102788 0
9.370000 -0.101872 0
9.375000 -0.100941 0
9.380000 -0.099979 0
9.385000 -0.098963 0
9.390000 -0.097850 0
9.395000 -0.096577 0
9.400000 -0.095049 0
9.405000 -0.093127 0
9.410000 -0.090618 0
9.415000 -0.087264 0
9.420000 -0.082736 0
9.425000 -0.076633 0
9.430000 -0.068498 0
9.435000 -0.057844 0
9.440000 -0.044200 0
9.445000 -0.027180 0
9.450000 -0.006555 0
9.455000 0.017659 0
9.460000 0.045125 0
9.465000 0.075132 0
9.470000 0.106584 0
9.475000 0.138031 0
9.480000 0.167763 0
9.485000 0.193959 0
9.490000 0.214862 0
9.495000 0.228974 0
9.500000 0.235235 1
9.505000 0.233154 0
9.510000 0.222871 0
9.515000 0.205141 0
9.520000 0.181244 0
9.525000 0.152831 0
9.530000 0.121726 0
9.535000 0.089705 0
9.540000 0.058220 0
9.545000 0.028000 0
9.550000 -0.001562 0
9.555000 -0.033050 0
9.560000 -0.070889 0
9.565000 -0.119154 0
9.570000 -0.176832 0
9.575000 -0.232816 0
9.580000 -0.264787 2
9.585000 -0.243854 0
9.590000 -0.142194 0
9.595000 0.058611 0
9.600000 0.355129 0
9.605000 0.704664 0
9.610000 1.018527 0
9.615000 1.189044 3
9.620000 1.147183 0
9.625000 0.905444 0
9.630000 0.548876 0
9.635000 0.183882 0
9.640000 -0.110275 0
9.645000 -0.296973 0
9.650000 -0.373612 4
9.655000 -0.360130 0
9.660000 -0.290369 0
9.665000 -0.201168 0
9.670000 -0.119977 0
9.675000 -0.058447 0
9.680000 -0.015203 0
9.685000 0.016702 0
9.690000 0.043839 0
9.695000 0.070206 0
9.700000 0.097536 0
9.705000 0.126273 0
9.710000 0.156269 0
9.715000 0.187124 0
9.720000 0.218312 0
9.725000 0.249223 0
9.730000 0.279192 0
9.735000 0.307516 0
9.740000 0.333490 0
9.745000 0.356425 0
9.750000 0.375686 0
9.755000 0.390716 0
9.760000 0.401063 0
9.765000 0.406404 0
9.770000 0.406558 5
9.775000 0.401497 0
9.780000 0.391349 0
9.785000 0.376389 0
9.790000 0.357032 0
9.795000 0.333804 0
9.800000 0.307328 0
9.805000 0.278289 0
9.810000 0.247407 0
9.815000 0.215406 0
9.820000 0.182988 0
9.825000 0.150808 0
9.830000 0.119452 0
9.835000 0.089422 0
9.840000 0.061130 0
9.845000 0.034887 0
9.850000 0.010912 0
9.855000 -0.010672 0
9.860000 -0.029822 0
9.865000 -0.046570 0
9.870000 -0.061004 0
9.875000 -0.073260 0
9.880000 -0.083509 0
9.885000 -0.091941 0
9.890000 -0.098756 0
9.895000 -0.104158 0
9.900000 -0.108343 0
9.905000 -0.111496 0
9.910000 -0.113785 0
9.915000 -0.115364 0
9.920000 -0.116364 0
9.925000 -0.115687 0
9.930000 -0.114728 0
9.935000 -0.113774 0
9.940000 -0.112825 0
9.945000 -0.111880 0
9.950000 -0.110940 0
9.955000 -0.110004 0
9.960000 -0.109072 0
9.965000 -0.108143 0
9.970000 -0.107215 0
9.975000 -0.106285 0
9.980000 -0.105348 0
9.985000 -0.104393 0
9.990000 -0.103404 0
9.995000 -0.102353 0
10.000000 -0.101194 0
10.005000 -0.099860 0
10.010000 -0.098247 0
10.015000 -0.096209 0
10.020000 -0.093542 0
10.025000 -0.089977 0
10.030000 -0.085174 0
10.035000 -0.078725 0
10.040000 -0.070168 0
10.045000 -0.059019 0
10.050000 -0.044823 0
10.055000 -0.027214 0
10.060000 -0.006001 0
10.065000 0.018755 0
10.070000 0.046666 0
10.075000 0.076972 0
10.080000 0.108530 0
10.085000 0.139862 0
10.090000 0.169248 0
10.095000 0.194881 0
10.100000 0.215040 0
10.105000 0.228287 0
10.110000 0.233631 1
10.115000 0.230653 0
10.120000 0.219560 0
10.125000 0.201161 0
10.130000 0.176770 0
10.135000 0.148047 0
10.140000 0.116806 0
10.145000 0.084792 0
10.150000 0.053404 0
10.155000 0.023286 0
10.160000 -0.006287 0
10.165000 -0.038018 0
10.170000 -0.076369 0
10.175000 -0.125234 0
10.180000 -0.183179 0
10.185000 -0.238616 0
10.190000 -0.268978 2
10.195000 -0.245513 0
10.200000 -0.140826 0
10.205000 0.062873 0
10.210000 0.361350 0
10.215000 0.711200 0
10.220000 1.023750 0
10.225000 1.192324 3
10.230000 1.145839 0
10.235000 0.897777 0
10.240000 0.538045 0
10.245000 0.176198 0
10.250000 -0.108874 0
10.255000 -0.283008 0
10.260000 -0.346577 4
10.265000 -0.322588 0
10.270000 -0.247339 0
10.275000 -0.158164 0
10.280000 -0.080677 0
10.285000 -0.023743 0
10.290000 0.015993 0
10.295000 0.046031 0
10.300000 0.072566 0
10.305000 0.099008 0
10.310000 0.126667 0
10.315000 0.155754 0
10.320000 0.186007 0
10.325000 0.216957 0
10.330000 0.248025 0
10.335000 0.278551 0
10.340000 0.307829 0
10.345000 0.335126 0
10.350000 0.359713 0
10.355000 0.380898 0
10.360000 0.398057 0
10.365000 0.410664 0
10.370000 0.418315 0
10.375000 0.420751 5
10.380000 0.417871 0
10.385000 0.409738 0
10.390000 0.396575 0
10.395000 0.378754 0
10.400000 0.356781 0
10.405000 0.331268 0
10.410000 0.302906 0
10.415000 0.272432 0
10.420000 0.240600 0
10.425000 0.208146 0
10.430000 0.175765 0
10.435000 0.144082 0
10.440000 0.113642 0
10.445000 0.084890 0
10.450000 0.058171 0
10.455000 0.033728 0
10.460000 0.011704 0
10.465000 -0.007844 0
10.470000 -0.024940 0
10.475000 -0.039671 0
10.480000 -0.052173 0
10.485000 -0.062621 0
10.490000 -0.071210 0
10.495000 -0.078150 0
10.500000 -0.083649 0
10.505000 -0.087911 0
10.510000 -0.091128 0
10.515000 -0.093474 0
10.520000 -0.095106 0
10.525000 -0.096159 0
10.530000 -0.095575 0
10.535000 -0.094716 0
10.540000 -0.093862 0
10.545000 -0.093012 0
10.550000 -0.092166 0
10.555000 -0.091324 0
10.560000 -0.090486 0
10.565000 -0.089651 0
10.570000 -0.088818 0
10.575000 -0.087985 0
10.580000 -0.087149 0
10.585000 -0.086301 0
10.590000 -0.085431 0
10.595000 -0.084516 0
10.600000 -0.083524 0
10.605000 -0.082399 0
10.610000 -0.081057 0
10.615000 -0.079376 0
10.620000 -0.077178 0
10.625000 -0.074225 0
10.630000 -0.070203 0
10.635000 -0.064725 0
10.640000 -0.057337 0
10.645000 -0.047544 0
10.650000 -0.034851 0
10.655000 -0.018830 0
10.660000 0.000807 0
10.665000 0.024114 0
10.670000 0.050830 0
10.675000 0.080317 0
10.680000 0.111529 0
10.685000 0.143043 0
10.690000 0.173145 0
10.695000 0.199968 0
10.700000 0.221685 0
10.705000 0.236707 0
10.710000 0.243877 1
10.715000 0.242616 0
10.720000 0.233000 0
10.725000 0.215751 0
10.730000 0.192147 0
10.735000 0.163865 0
10.740000 0.132775 0
10.745000 0.100706 0
10.750000 0.069162 0
10.755000 0.038893 0
10.760000 0.009264 0
10.765000 -0.022422 0
10.770000 -0.060748 0
10.775000 -0.109760 0
10.780000 -0.167896 0
10.785000 -0.222844 0
10.790000 -0.250823 2
10.795000 -0.221910 0
10.800000 -0.108192 0
10.805000 0.107182 0
10.810000 0.415959 0
10.815000 0.766647 0
10.820000 1.061800 0
10.825000 1.193416 3
10.830000 1.103918 0
10.835000 0.825164 0
10.840000 0.456709 0
10.845000 0.105766 0
10.850000 -0.157450 0
10.855000 -0.306958 0
10.860000 -0.348855 4
10.865000 -0.310086 0
10.870000 -0.228669 0
10.875000 -0.140521 0
10.880000 -0.067627 0
10.885000 -0.015370 0
10.890000 0.021330 0
10.895000 0.050051 0
10.900000 0.076359 0
10.905000 0.103060 0
10.910000 0.131110 0
10.915000 0.160555 0
10.920000 0.191061 0
10.925000 0.222121 0
10.930000 0.253124 0
10.935000 0.283392 0
10.940000 0.312201 0
10.945000 0.338810 0
10.950000 0.362493 0
10.955000 0.382568 0
10.960000 0.398432 0
10.965000 0.409589 0
10.970000 0.415674 0
10.975000 0.416475 5
10.980000 0.411940 0
10.985000 0.402184 0
10.990000 0.387482 0
10.995000 0.368255 0
11.000000 0.345051 0
11.005000 0.318517 0
11.010000 0.289369 0
11.015000 0.258359 0
11.020000 0.226244 0
11.025000 0.193754 0
11.030000 0.161568 0
11.035000 0.130289 0
11.040000 0.100432 0
11.045000 0.072408 0
11.050000 0.046527 0
11.055000 0.022995 0
11.060000 0.001924 0
11.065000 -0.016663 0
11.070000 -0.032815 0
11.075000 -0.046641 0
11.080000 -0.058296 0
11.085000 -0.067964 0
11.090000 -0.075850 0
11.095000 -0.082166 0
11.100000 -0.087122 0
11.105000 -0.090917 0
11.110000 -0.093738 0
11.115000 -0.095754 0
11.120000 -0.097114 0
11.125000 -0.097700 0
11.130000 -0.096831 0
11.135000 -0.095966 0
11.140000 -0.095106 0
11.145000 -0.094249 0
11.150000 -0.093397 0
11.155000 -0.092549 0
11.160000 -0.091704 0
11.165000 -0.090862 0
11.170000 -0.090022 0
11.175000 -0.089180 0
11.180000 -0.088331 0
11.185000 -0.087467 0
11.190000 -0.086570 0
11.195000 -0.085615 0
11.200000 -0.084557 0
11.205000 -0.083329 0
11.210000 -0.081827 0
11.215000 -0.079901 0
11.220000 -0.077343 0
11.225000 -0.073874 0
11.230000 -0.069140 0
11.235000 -0.062712 0
11.240000 -0.054109 0
11.245000 -0.042823 0
11.250000 -0.028383 0
11.255000 -0.010421 0
11.260000 0.011235 0
11.265000 0.036477 0
11.270000 0.064839 0
11.275000 0.095451 0
11.280000 0.127040 0
11.285000 0.157992 0
11.290000 0.186470 0
11.295000 0.210592 0
11.300000 0.228628 0
11.305000 0.239205 0
11.310000 0.241483 1
11.315000 0.235259 0
11.320000 0.221001 0
11.325000 0.199784 0
11.330000 0.173160 0
11.335000 0.142963 0
11.340000 0.111083 0
11.345000 0.079204 0
11.350000 0.048441 0
11.355000 0.018773 0
11.360000 -0.011679 0
11.365000 -0.046958 0
11.370000 -0.091811 0
11.375000 -0.147418 0
11.380000 -0.205689 0
11.385000 -0.246455 2
11.390000 -0.240857 0
11.395000 -0.159098 0
11.400000 0.020883 0
11.405000 0.301438 0
11.410000 0.647020 0
11.415000 0.973007 0
11.420000 1.167711 3
11.425000 1.148594 0
11.430000 0.918449 0
11.435000 0.564140 0
11.440000 0.199466 0
11.445000 -0.090890 0
11.450000 -0.269235 0
11.455000 -0.334846 4
11.460000 -0.311113 0
11.465000 -0.235503 0
11.470000 -0.146474 0
11.475000 -0.069967 0
11.480000 -0.014384 0
11.485000 0.024238 0
11.490000 0.053676 0
11.495000 0.080056 0
11.500000 0.106601 0
11.505000 0.134461 0
11.510000 0.163754 0
11.515000 0.194163 0
11.520000 0.225176 0
11.525000 0.256176 0
11.530000 0.286467 0
11.535000 0.315310 0
11.540000 0.341944 0
11.545000 0.365624 0
11.550000 0.385649 0
11.555000 0.401403 0
11.560000 0.412377 0
11.565000 0.418204 0
11.570000 0.418671 5
11.575000 0.413737 0
11.580000 0.403531 0
11.585000 0.388347 0
11.590000 0.368633 0
11.595000 0.344962 0
11.600000 0.318009 0
11.605000 0.288514 0
11.610000 0.257252 0
11.615000 0.224997 0
11.620000 0.192492 0
11.625000 0.160417 0
11.630000 0.129376 0
11.635000 0.099874 0
11.640000 0.072310 0
11.645000 0.046976 0
11.650000 0.024059 0
11.655000 0.003647 0
11.660000 -0.014257 0
11.665000 -0.029723 0
11.670000 -0.042879 0
11.675000 -0.053893 0
11.680000 -0.062965 0
11.685000 -0.070307 0
11.690000 -0.076136 0
11.695000 -0.080665 0
11.700000 -0.084095 0
11.705000 -0.086608 0
11.710000 -0.088371 0
11.715000 -0.089528 0
11.720000 -0.088986 0
11.725000 -0.088160 0
11.730000 -0.087339 0
11.735000 -0.086521 0
11.740000 -0.085708 0
11.745000 -0.084898 0
11.750000 -0.084092 0
11.755000 -0.083289 0
11.760000 -0.082487 0
11.765000 -0.081686 0
11.770000 -0.080880 0
11.775000 -0.080063 0
11.780000 -0.079220 0
11.785000 -0.078330 0
11.790000 -0.077355 0
11.795000 -0.076236 0
11.800000 -0.074880 0
11.805000 -0.073153 0
11.810000 -0.070861 0
11.815000 -0.067744 0
11.820000 -0.063460 0
11.825000 -0.057593 0
11.830000 -0.049659 0
11.835000 -0.039143 0
11.840000 -0.025543 0
11.845000 -0.008449 0
11.850000 0.012369 0
11.855000 0.036872 0
11.860000 0.064662 0
11.865000 0.094927 0
11.870000 0.126432 0
11.875000 0.157573 0
11.880000 0.186493 0
11.885000 0.211253 0
11.890000 0.230047 0
11.895000 0.241416 0
11.900000 0.244434 1
11.905000 0.238835 0
11.910000 0.225044 0
11.915000 0.204128 0
11.920000 0.177659 0
11.925000 0.147509 0
11.930000 0.115619 0
11.935000 0.083720 0
11.940000 0.052951 0
11.945000 0.023269 0
11.950000 -0.007319 0
11.955000 -0.043030 0
11.960000 -0.088661 0
11.965000 -0.144952 0
11.970000 -0.202651 0
11.975000 -0.240017 2
11.980000 -0.226961 0
11.985000 -0.133395 0
11.990000 0.061482 0
11.995000 0.355690 0
12.000000 0.705067 0
12.005000 1.015379 0
12.010000 1.172999 3
12.015000 1.109209 0
12.020000 0.846265 0
12.025000 0.481399 0
12.030000 0.125976 0
12.035000 -0.144390 0
12.040000 -0.300310 0
12.045000 -0.346505 4
12.050000 -0.309793 0
12.055000 -0.228888 0
12.060000 -0.140708 0
12.065000 -0.067898 0
12.070000 -0.015932 0
12.075000 0.020464 0
12.080000 0.049018 0
12.085000 0.075312 0
12.090000 0.102099 0
12.095000 0.130274 0
12.100000 0.159845 0
12.105000 0.190449 0
12.110000 0.221554 0
12.115000 0.252526 0
12.120000 0.282663 0
12.125000 0.311219 0
12.130000 0.337437 0
12.135000 0.360577 0
12.140000 0.379953 0
12.145000 0.394966 0
12.150000 0.405131 0
12.155000 0.410105 5
12.160000 0.409705 0
12.165000 0.403919 0
12.170000 0.392904 0
12.175000 0.376980 0
12.180000 0.356616 0
12.185000 0.332402 0
12.190000 0.305027 0
12.195000 0.275236 0
12.200000 0.243805 0
12.205000 0.211503 0
12.210000 0.179064 0
12.215000 0.147156 0
12.220000 0.116367 0
12.225000 0.087184 0
12.230000 0.059989 0
12.235000 0.035058 0
12.240000 0.012561 0
12.245000 -0.007428 0
12.250000 -0.024917 0
12.255000 -0.039987 0
12.260000 -0.052772 0
12.265000 -0.063445 0
12.270000 -0.072209 0
12.275000 -0.079276 0
12.280000 -0.084864 0
12.285000 -0.089183 0
12.290000 -0.092431 0
12.295000 -0.094788 0
12.300000 -0.096418 0
12.305000 -0.097461 0
12.310000 -0.096868 0
12.315000 -0.096003 0
12.320000 -0.095143 0
12.325000 -0.094286 0
12.330000 -0.093434 0
12.335000 -0.092586 0
12.340000 -0.091741 0
12.345000 -0.090900 0
12.350000 -0.090060 0
12.355000 -0.089220 0
12.360000 -0.088375 0
12.365000 -0.087517 0
12.370000 -0.086633 0
12.375000 -0.085697 0
12.380000 -0.084670 0
12.385000 -0.083490 0
12.390000 -0.082060 0
12.395000 -0.080238 0
12.400000 -0.077825 0
12.405000 -0.074549 0
12.410000 -0.070063 0
12.415000 -0.063940 0
12.420000 -0.055693 0
12.425000 -0.044805 0
12.430000 -0.030783 0
12.435000 -0.013233 0
12.440000 0.008050 0
12.445000 0.032987 0
12.450000 0.061137 0
12.455000 0.091642 0
12.460000 0.123226 0
12.465000 0.154251 0
12.470000 0.182846 0
12.475000 0.207080 0
12.480000 0.225176 0
12.485000 0.235729 0
12.490000 0.237878 1
12.495000 0.231430 0
12.500000 0.216880 0
12.505000 0.195352 0
12.510000 0.168455 0
12.515000 0.138077 0
12.520000 0.106147 0
12.525000 0.074354 0
12.530000 0.043749 0
12.535000 0.014134 0
12.540000 -0.016697 0
12.545000 -0.053124 0
12.550000 -0.099797 0
12.555000 -0.156765 0
12.560000 -0.213656 0
12.565000 -0.247743 2
12.570000 -0.228628 0
12.575000 -0.126710 0
12.580000 0.077419 0
12.585000 0.378905 0
12.590000 0.729277 0
12.595000 1.030967 0
12.600000 1.171665 3
12.605000 1.089281 0
12.610000 0.813743 0
12.615000 0.445779 0
12.620000 0.095041 0
12.625000 -0.166781 0
12.630000 -0.313579 0
12.635000 -0.352160 4
12.640000 -0.310606 0
12.645000 -0.227952 0
12.650000 -0.140330 0
12.655000 -0.069024 0
12.660000 -0.018414 0
12.665000 0.017198 0
12.670000 0.045470 0
12.675000 0.071765 0
12.680000 0.098660 0
12.685000 0.126963 0
12.690000 0.156644 0
12.695000 0.187325 0
12.700000 0.218467 0
12.705000 0.249432 0
12.710000 0.279516 0
12.715000 0.307973 0
12.720000 0.334045 0
12.725000 0.356999 0
12.730000 0.376153 0
12.735000 0.390914 0
12.740000 0.400807 0
12.745000 0.405499 5
12.750000 0.404817 0
12.755000 0.398757 0
12.760000 0.387486 0
12.765000 0.371333 0
12.770000 0.350772 0
12.775000 0.326400 0
12.780000 0.298905 0
12.785000 0.269036 0
12.790000 0.237567 0
12.795000 0.205266 0
12.800000 0.172860 0
12.805000 0.141016 0
12.810000 0.110314 0
12.815000 0.081236 0
12.820000 0.054160 0
12.825000 0.029355 0
12.830000 0.006987 0
12.835000 -0.012875 0
12.840000 -0.030241 0
12.845000 -0.045194 0
12.850000 -0.057870 0
12.855000 -0.068445 0
12.860000 -0.077119 0
12.865000 -0.084106 0
12.870000 -0.089623 0
12.875000 -0.093879 0
12.880000 -0.097071 0
12.885000 -0.099380 0
12.890000 -0.100967 0
12.895000 -0.101971 0
12.900000 -0.101354 0
12.905000 -0.100467 0
12.910000 -0.099584 0
12.915000 -0.098705 0
12.920000 -0.097831 0
12.925000 -0.096961 0
12.930000 -0.096094 0
12.935000 -0.095231 0
12.940000 -0.094370 0
12.945000 -0.093508 0
12.950000 -0.092641 0
12.955000 -0.091762 0
12.960000 -0.090855 0
12.965000 -0.089897 0
12.970000 -0.088847 0
12.975000 -0.087643 0
12.980000 -0.086187 0
12.985000 -0.084338 0
12.990000 -0.081894 0
12.995000 -0.078585 0
13.000000 -0.074062 0
13.005000 -0.067899 0
13.010000 -0.059608 0
13.015000 -0.048673 0
13.020000 -0.034604 0
13.025000 -0.017007 0
13.030000 0.004319 0
13.035000 0.029295 0
13.040000 0.057477 0
13.045000 0.088008 0
13.050000 0.119611 0
13.055000 0.150652 0
13.060000 0.179261 0
13.065000 0.203512 0
13.070000 0.221632 0
13.075000 0.232216 0
13.080000 0.234405 1
13.085000 0.228003 0
13.090000 0.213503 0
13.095000 0.192026 0
13.100000 0.165173 0
13.105000 0.134830 0
13.110000 0.102923 0
13.115000 0.071139 0
13.120000 0.040539 0
13.125000 0.010939 0
13.130000 -0.019839 0
13.135000 -0.056146 0
13.140000 -0.102648 0
13.145000 -0.159495 0
13.150000 -0.216511 0
13.155000 -0.251177 2
13.160000 -0.233206 0
13.165000 -0.132962 0
13.170000 0.069213 0
13.175000 0.369106 0
13.180000 0.719335 0
13.185000 1.023318 0
13.190000 1.168602 3
13.195000 1.092701 0
13.200000 0.822943 0
13.205000 0.456681 0
13.210000 0.102538 0
13.215000 -0.166464 0
13.220000 -0.322076 0
13.225000 -0.369002 4
13.230000 -0.333385 0
13.235000 -0.253070 0
13.240000 -0.164503 0
13.245000 -0.090557 0
13.250000 -0.037323 0
13.255000 0.000001 0
13.260000 0.029029 0
13.265000 0.055463 0
13.270000 0.082221 0
13.275000 0.110313 0
13.280000 0.139809 0
13.285000 0.170383 0
13.290000 0.201531 0
13.295000 0.232645 0
13.300000 0.263044 0
13.305000 0.292005 0
13.310000 0.318785 0
13.315000 0.342653 0
13.320000 0.362927 0
13.325000 0.378997 0
13.330000 0.390364 0
13.335000 0.396658 0
13.340000 0.397663 5
13.345000 0.393324 0
13.350000 0.383752 0
13.355000 0.369221 0
13.360000 0.350151 0
13.365000 0.327089 0
13.370000 0.300683 0
13.375000 0.271649 0
13.380000 0.240743 0
13.385000 0.208723 0
13.390000 0.176322 0
13.395000 0.144221 0
13.400000 0.113025 0
13.405000 0.083249 0
13.410000 0.055309 0
13.415000 0.029514 0
13.420000 0.006071 0
13.425000 -0.014909 0
13.430000 -0.033401 0
13.435000 -0.049456 0
13.440000 -0.063183 0
13.445000 -0.074738 0
13.450000 -0.084306 0
13.455000 -0.092092 0
13.460000 -0.098309 0
13.465000 -0.103166 0
13.470000 -0.106865 0
13.475000 -0.109592 0
13.480000 -0.111516 0
13.485000 -0.112786 0
13.490000 -0.113285 0
13.495000 -0.112339 0
13.500000 -0.111397 0
13.505000 -0.110459 0
13.510000 -0.109526 0
13.515000 -0.108598 0
13.520000 -0.107674 0
13.525000 -0.106754 0
13.530000 -0.105837 0
13.535000 -0.104921 0
13.540000 -0.104005 0
13.545000 -0.103082 0
13.550000 -0.102143 0
13.555000 -0.101171 0
13.560000 -0.100140 0
13.565000 -0.099004 0
13.570000 -0.097694 0
13.575000 -0.096104 0
13.580000 -0.094083 0
13.585000 -0.091417 0
13.590000 -0.087824 0
13.595000 -0.082944 0
13.600000 -0.076347 0
13.605000 -0.067543 0
13.610000 -0.056027 0
13.615000 -0.041329 0
13.620000 -0.023089 0
13.625000 -0.001147 0
13.630000 0.024368 0
13.635000 0.052966 0
13.640000 0.083749 0
13.645000 0.115417 0
13.650000 0.146332 0
13.655000 0.174645 0
13.660000 0.198471 0
13.665000 0.216093 0
13.670000 0.226168 0
13.675000 0.227894 1
13.680000 0.221120 0
13.685000 0.206359 0
13.690000 0.184734 0
13.695000 0.157828 0
13.700000 0.127494 0
13.705000 0.095622 0
13.710000 0.063868 0
13.715000 0.033281 0
13.720000 0.003714 0
13.725000 -0.026907 0
13.730000 -0.062789 0
13.735000 -0.108591 0
13.740000 -0.164888 0
13.745000 -0.222506 0
13.750000 -0.260177 2
13.755000 -0.248520 0
13.760000 -0.158009 0
13.765000 0.032198 0
13.770000 0.321612 0
13.775000 0.669869 0
13.780000 0.987671 0
13.785000 1.163185 3
13.790000 1.124008 0
13.795000 0.882231 0
13.800000 0.525013 0
13.805000 0.161255 0
13.810000 -0.128897 0
13.815000 -0.309487 0
13.820000 -0.379304 4
13.825000 -0.359996 0
13.830000 -0.286961 0
13.835000 -0.197565 0
13.840000 -0.118387 0
13.845000 -0.059502 0
13.850000 -0.018320 0
13.855000 0.012504 0
13.860000 0.039349 0
13.865000 0.065861 0
13.870000 0.093508 0
13.875000 0.122582 0
13.880000 0.152861 0
13.885000 0.183898 0
13.890000 0.215131 0
13.895000 0.245917 0
13.900000 0.275561 0
13.905000 0.303340 0
13.910000 0.328529 0
13.915000 0.350437 0
13.920000 0.368433 0
13.925000 0.381978 0
13.930000 0.390651 0
13.935000 0.394169 5
13.940000 0.392404 0
13.945000 0.385387 0
13.950000 0.373310 0
13.955000 0.356515 0
13.960000 0.335477 0
13.965000 0.310783 0
13.970000 0.283104 0
13.975000 0.253162 0
13.980000 0.221701 0
13.985000 0.189458 0
13.990000 0.157132 0
13.995000 0.125359 0
14.000000 0.094700 0
14.005000 0.065619 0
14.010000 0.038485 0
14.015000 0.013562 0
14.020000 -0.008983 0
14.025000 -0.029072 0
14.030000 -0.046707 0
14.035000 -0.061960 0
14.040000 -0.074954 0
14.045000 -0.085850 0
14.050000 -0.094839 0
14.055000 -0.102125 0
14.060000 -0.107914 0
14.065000 -0.112412 0
14.070000 -0.115813 0
14.075000 -0.118293 0
14.080000 -0.120015 0
14.085000 -0.121120 0
14.090000 -0.121499 0
14.095000 -0.120511 0
14.100000 -0.119528 0
14.105000 -0.118550 0
14.110000 -0.117577 0
14.115000 -0.116609 0
14.120000 -0.115644 0
14.125000 -0.114684 0
14.130000 -0.113728 0
14.135000 -0.112772 0
14.140000 -0.111816 0
14.145000 -0.110852 0
14.150000 -0.109872 0
14.155000 -0.108859 0
14.160000 -0.107784 0
14.165000 -0.106603 0
14.170000 -0.105247 0
14.175000 -0.103610 0
14.180000 -0.101542 0
14.185000 -0.098835 0
14.190000 -0.095210 0
14.195000 -0.090317 0
14.200000 -0.083733 0
14.205000 -0.074982 0
14.210000 -0.063568 0
14.215000 -0.049029 0
14.220000 -0.031003 0
14.225000 -0.009317 0
14.230000 0.015927 0
14.235000 0.044283 0
14.240000 0.074912 0
14.245000 0.106581 0
14.250000 0.137721 0
14.255000 0.166540 0
14.260000 0.191184 0
14.265000 0.209934 0
14.270000 0.221404 0
14.275000 0.224707 1
14.280000 0.219575 0
14.285000 0.206388 0
14.290000 0.186133 0
14.295000 0.160278 0
14.300000 0.130599 0
14.305000 0.098958 0
14.310000 0.067065 0
14.315000 0.036144 0
14.320000 0.006435 0
14.325000 -0.023503 0
14.330000 -0.057250 0
14.335000 -0.099583 0
14.340000 -0.152928 0
14.345000 -0.211866 0
14.350000 -0.259356 0
14.355000 -0.268544 2
14.360000 -0.209598 0
14.365000 -0.057911 0
14.370000 0.195755 0
14.375000 0.528999 0
14.380000 0.872493 0
14.385000 1.119665 0
14.390000 1.174800 3
14.395000 1.012292 0
14.400000 0.691578 0
14.405000 0.318263 0
14.410000 -0.012002 0
14.415000 -0.244517 0
14.420000 -0.364162 0
14.425000 -0.383015 4
14.430000 -0.330782 0
14.435000 -0.245056 0
14.440000 -0.158514 0
14.445000 -0.089161 0
14.450000 -0.039778 0
14.455000 -0.004552 0
14.460000 0.023748 0
14.465000 0.050147 0
14.470000 0.077100 0
14.475000 0.105407 0
14.480000 0.135070 0
14.485000 0.165750 0
14.490000 0.196949 0
14.495000 0.228075 0
14.500000 0.258471 0
14.505000 0.287436 0
14.510000 0.314254 0
14.515000 0.338221 0
14.520000 0.358675 0
14.525000 0.375027 0
14.530000 0.386786 0
14.535000 0.393588 0
14.540000 0.395209 5
14.545000 0.391577 0
14.550000 0.382782 0
14.555000 0.369063 0
14.560000 0.350805 0
14.565000 0.328516 0
14.570000 0.302803 0
14.575000 0.274346 0
14.580000 0.243869 0
14.585000 0.212104 0
14.590000 0.179770 0
14.595000 0.147540 0
14.600000 0.116021 0
14.605000 0.085742 0
14.610000 0.057137 0
14.615000 0.030539 0
14.620000 0.006187 0
14.625000 -0.015776 0
14.630000 -0.035296 0
14.635000 -0.052390 0
14.640000 -0.067140 0
14.645000 -0.079678 0
14.650000 -0.090170 0
14.655000 -0.098807 0
14.660000 -0.105791 0
14.665000 -0.111327 0
14.670000 -0.115614 0
14.675000 -0.118842 0
14.680000 -0.121184 0
14.685000 -0.122794 0
14.690000 -0.123811 0
14.695000 -0.123104 0
14.700000 -0.122108 0
14.705000 -0.121117 0
14.710000 -0.120131 0
14.715000 -0.119150 0
14.720000 -0.118174 0
14.725000 -0.117202 0
14.730000 -0.116234 0
14.735000 -0.115269 0
14.740000 -0.114306 0
14.745000 -0.113341 0
14.750000 -0.112370 0
14.755000 -0.111381 0
14.760000 -0.110358 0
14.765000 -0.109273 0
14.770000 -0.108082 0
14.775000 -0.106715 0
14.780000 -0.105069 0
14.785000 -0.102995 0
14.790000 -0.100287 0
14.795000 -0.096673 0
14.800000 -0.091807 0
14.805000 -0.085276 0
14.810000 -0.076611 0
14.815000 -0.065324 0
14.820000 -0.050955 0
14.825000 -0.033142 0
14.830000 -0.011700 0
14.835000 0.013291 0
14.840000 0.041420 0
14.845000 0.071891 0
14.850000 0.103524 0
14.855000 0.134801 0
14.860000 0.163970 0
14.865000 0.189204 0
14.870000 0.208783 0
14.875000 0.221287 0
14.880000 0.225771 1
14.885000 0.221878 0
14.890000 0.209892 0
14.895000 0.190697 0
14.900000 0.165674 0
14.905000 0.136536 0
14.910000 0.105119 0
14.915000 0.073158 0
14.920000 0.041983 0
14.925000 0.012078 0
14.930000 -0.017577 0
14.935000 -0.050064 0
14.940000 -0.090035 0
14.945000 -0.140871 0
14.950000 -0.199550 0
14.955000 -0.252161 0
14.960000 -0.274165 2
14.965000 -0.236145 0
14.970000 -0.111657 0
14.975000 0.113880 0
14.980000 0.429095 0
14.985000 0.779631 0
14.990000 1.067915 0
14.995000 1.189677 3
15.000000 1.094224 0
15.005000 0.815083 0
15.010000 0.447293 0
15.015000 0.093446 0
15.020000 -0.177575 0
15.025000 -0.338378 0
15.030000 -0.392350 4
15.035000 -0.363139 0
15.040000 -0.286086 0
15.045000 -0.196716 0
15.050000 -0.119150 0
15.055000 -0.061743 0
15.060000 -0.021351 0
15.065000 0.009214 0
15.070000 0.036033 0
15.075000 0.062567 0
15.080000 0.090218 0
15.085000 0.119272 0
15.090000 0.149520 0
15.095000 0.180537 0
15.100000 0.211783 0
15.105000 0.242641 0
15.110000 0.272441 0
15.115000 0.300486 0
15.120000 0.326074 0
15.125000 0.348529 0
15.130000 0.367230 0
15.135000 0.381639 0
15.140000 0.391325 0
15.145000 0.395986 5
15.150000 0.395465 0
15.155000 0.389756 0
15.160000 0.379006 0
15.165000 0.363509 0
15.170000 0.343689 0
15.175000 0.320085 0
15.180000 0.293323 0
15.185000 0.264090 0
15.190000 0.233102 0
15.195000 0.201077 0
15.200000 0.168710 0
15.205000 0.136642 0
15.210000 0.105448 0
15.215000 0.075620 0
15.220000 0.047556 0
15.225000 0.021558 0
15.230000 -0.002168 0
15.235000 -0.023504 0
15.240000 -0.042414 0
15.245000 -0.058935 0
15.250000 -0.073159 0
15.255000 -0.085224 0
15.260000 -0.095299 0
15.265000 -0.103576 0
15.270000 -0.110254 0
15.275000 -0.115533 0
15.280000 -0.119610 0
15.285000 -0.122666 0
15.290000 -0.124869 0
15.295000 -0.126369 0
15.300000 -0.127298 0
15.305000 -0.126564 0
15.310000 -0.125551 0
15.315000 -0.124543 0
15.320000 -0.123539 0
15.325000 -0.122541 0
15.330000 -0.121548 0
15.335000 -0.120559 0
15.340000 -0.119575 0
15.345000 -0.118593 0
15.350000 -0.117613 0
15.355000 -0.116632 0
15.360000 -0.115643 0
15.365000 -0.114637 0
15.370000 -0.113598 0
15.375000 -0.112497 0
15.380000 -0.111292 0
15.385000 -0.109913 0
15.390000 -0.108261 0
15.395000 -0.106191 0
15.400000 -0.103503 0
15.405000 -0.099933 0
15.410000 -0.095146 0
15.415000 -0.088739 0
15.420000 -0.080255 0
15.425000 -0.069216 0
15.430000 -0.055164 0
15.435000 -0.037731 0
15.440000 -0.016712 0
15.445000 0.007850 0
15.450000 0.035596 0
15.455000 0.065797 0
15.460000 0.097349 0
15.465000 0.128806 0
15.470000 0.158477 0
15.475000 0.184568 0
15.480000 0.205354 0
15.485000 0.219372 0
15.490000 0.225589 1
15.495000 0.223528 0
15.500000 0.213329 0
15.505000 0.195733 0
15.510000 0.171995 0
15.515000 0.143735 0
15.520000 0.112745 0
15.525000 0.080781 0
15.530000 0.049295 0
15.535000 0.019053 0
15.540000 -0.010441 0
15.545000 -0.041583 0
15.550000 -0.078639 0
15.555000 -0.125805 0
15.560000 -0.182791 0
15.565000 -0.239810 0
15.570000 -0.275955 2
15.575000 -0.263166 0
15.580000 -0.173497 0
15.585000 0.012983 0
15.590000 0.296939 0
15.595000 0.643063 0
15.600000 0.970374 0
15.605000 1.172445 3
15.610000 1.170026 0
15.615000 0.958964 0
15.620000 0.614483 0
15.625000 0.244244 0
15.630000 -0.065189 0
15.635000 -0.270062 0
15.640000 -0.363115 4
15.645000 -0.361472 0
15.650000 -0.297706 0
15.655000 -0.209315 0
15.660000 -0.125950 0
15.665000 -0.061617 0
15.670000 -0.016320 0
15.675000 0.016614 0
15.680000 0.044055 0
15.685000 0.070370 0
15.690000 0.097533 0
15.695000 0.126096 0
15.700000 0.155956 0
15.705000 0.186730 0
15.710000 0.217897 0
15.715000 0.248851 0
15.720000 0.278923 0
15.725000 0.307410 0
15.730000 0.333598 0
15.735000 0.356792 0
15.740000 0.376345 0
15.745000 0.391689 0
15.750000 0.402360 0
15.755000 0.408022 0
15.760000 0.408483 5
15.765000 0.403706 0
15.770000 0.393811 0
15.775000 0.379068 0
15.780000 0.359886 0
15.785000 0.336795 0
15.790000 0.310416 0
15.795000 0.281438 0
15.800000 0.250587 0
15.805000 0.218594 0
15.810000 0.186165 0
15.815000 0.153963 0
15.820000 0.122580 0
15.825000 0.092523 0
15.830000 0.064207 0
15.835000 0.037948 0
15.840000 0.013965 0
15.845000 -0.007617 0
15.850000 -0.026756 0
15.855000 -0.043484 0
15.860000 -0.057891 0
15.865000 -0.070116 0
15.870000 -0.080330 0
15.875000 -0.088725 0
15.880000 -0.095504 0
15.885000 -0.100872 0
15.890000 -0.105026 0
15.895000 -0.108151 0
15.900000 -0.110418 0
15.905000 -0.111979 0
15.910000 -0.112966 0
15.915000 -0.112301 0
15.920000 -0.111359 0
15.925000 -0.110422 0
15.930000 -0.109489 0
15.935000 -0.108561 0
15.940000 -0.107638 0
15.945000 -0.106718 0
15.950000 -0.105802 0
15.955000 -0.104889 0
15.960000 -0.103977 0
15.965000 -0.103063 0
15.970000 -0.102140 0
15.975000 -0.101198 0
15.980000 -0.100218 0
15.985000 -0.099172 0
15.990000 -0.098012 0
15.995000 -0.096663 0
16.000000 -0.095019 0
16.005000 -0.092924 0
16.010000 -0.090164 0
16.015000 -0.086459 0
16.020000 -0.081455 0
16.025000 -0.074732 0
16.030000 -0.065817 0
16.035000 -0.054226 0
16.040000 -0.039506 0
16.045000 -0.021315 0
16.050000 0.000505 0
16.055000 0.025840 0
16.060000 0.054236 0
16.065000 0.084857 0
16.070000 0.116483 0
16.075000 0.147570 0
16.080000 0.176356 0
16.085000 0.201020 0
16.090000 0.219870 0
16.095000 0.231535 0
16.100000 0.235127 1
16.105000 0.230356 0
16.110000 0.217565 0
16.115000 0.197692 0
16.120000 0.172154 0
16.125000 0.142678 0
16.130000 0.111097 0
16.135000 0.079117 0
16.140000 0.048009 0
16.145000 0.018150 0
16.150000 -0.011639 0
16.155000 -0.044610 0
16.160000 -0.085444 0
16.165000 -0.137197 0
16.170000 -0.196104 0
16.175000 -0.247361 0
16.180000 -0.265864 2
16.185000 -0.222233 0
16.190000 -0.090648 0
16.195000 0.142096 0
16.200000 0.462109 0
16.205000 0.811824 0
16.210000 1.091893 0
16.215000 1.200000 3
16.220000 1.089829 0
16.225000 0.800430 0
16.230000 0.430259 0
16.235000 0.081278 0
16.240000 -0.180584 0
16.245000 -0.330931 0
16.250000 -0.375468 4
16.255000 -0.339643 0
16.260000 -0.259750 0
16.265000 -0.170890 0
16.270000 -0.095649 0
16.275000 -0.040741 0
16.280000 -0.002097 0
16.285000 0.027601 0
16.290000 0.054159 0
16.295000 0.080732 0
16.300000 0.108519 0
16.305000 0.137708 0
16.310000 0.168041 0
16.315000 0.199067 0
16.320000 0.230226 0
16.325000 0.260884 0
16.330000 0.290359 0
16.335000 0.317943 0
16.340000 0.342929 0
16.345000 0.364644 0
16.350000 0.382474 0
16.355000 0.395895 0
16.360000 0.404497 0
16.365000 0.408005 5
16.370000 0.406290 0
16.375000 0.399381 0
16.380000 0.387461 0
16.385000 0.370857 0
16.390000 0.350026 0
16.395000 0.325537 0
16.400000 0.298039 0
16.405000 0.268235 0
16.410000 0.236853 0
16.415000 0.204613 0
16.420000 0.172204 0
16.425000 0.140260 0
16.430000 0.109338 0
16.435000 0.079910 0
16.440000 0.052350 0
16.445000 0.026937 0
16.450000 0.003850 0
16.455000 -0.016816 0
16.460000 -0.035050 0
16.465000 -0.050905 0
16.470000 -0.064491 0
16.475000 -0.075959 0
16.480000 -0.085488 0
16.485000 -0.093275 0
16.490000 -0.099523 0
16.495000 -0.104433 0
16.500000 -0.108199 0
16.505000 -0.110999 0
16.510000 -0.112998 0
16.515000 -0.114339 0
16.520000 -0.114893 0
16.525000 -0.113938 0
16.530000 -0.112988 0
16.535000 -0.112043 0
16.540000 -0.111102 0
16.545000 -0.110166 0
16.550000 -0.109234 0
16.555000 -0.108307 0
16.560000 -0.107382 0
16.565000 -0.106461 0
16.570000 -0.105539 0
16.575000 -0.104614 0
16.580000 -0.103677 0
16.585000 -0.102717 0
16.590000 -0.101712 0
16.595000 -0.100629 0
16.600000 -0.099413 0
16.605000 -0.097982 0
16.610000 -0.096216 0
16.615000 -0.093945 0
16.620000 -0.090938 0
16.625000 -0.086895 0
16.630000 -0.081445 0
16.635000 -0.074153 0
16.640000 -0.064541 0
16.645000 -0.052129 0
16.650000 -0.036490 0
16.655000 -0.017325 0
16.660000 0.005459 0
16.665000 0.031664 0
16.670000 0.060742 0
16.675000 0.091759 0
16.680000 0.123411 0
16.685000 0.154095 0
16.690000 0.182026 0
16.695000 0.205405 0
16.700000 0.222613 0
16.705000 0.232388 0
16.710000 0.233984 1
16.715000 0.227262 0
16.720000 0.212712 0
16.725000 0.191390 0
16.730000 0.164794 0
16.735000 0.134686 0
16.740000 0.102882 0
16.745000 0.071013 0
16.750000 0.040195 0
16.755000 0.010525 0
16.760000 -0.019591 0
16.765000 -0.053814 0
16.770000 -0.096805 0
16.775000 -0.150654 0
16.780000 -0.209586 0
16.785000 -0.256528 0
16.790000 -0.265055 2
16.795000 -0.206012 0
16.800000 -0.055349 0
16.805000 0.196219 0
16.810000 0.527696 0
16.815000 0.872870 0
16.820000 1.128327 0
16.825000 1.198133 3
16.830000 1.047841 0
16.835000 0.732045 0
16.840000 0.358733 0
16.845000 0.027477 0
16.850000 -0.204670 0
16.855000 -0.322192 0
16.860000 -0.337999 4
16.865000 -0.283245 0
16.870000 -0.196779 0
16.875000 -0.111485 0
16.880000 -0.044476 0
16.885000 0.002643 0
16.890000 0.036356 0
16.895000 0.063937 0
16.900000 0.090140 0
16.905000 0.117142 0
16.910000 0.145566 0
16.915000 0.175318 0
16.920000 0.206003 0
16.925000 0.237079 0
16.930000 0.267918 0
16.935000 0.297824 0
16.940000 0.326067 0
16.945000 0.351907 0
16.950000 0.374628 0
16.955000 0.393567 0
16.960000 0.408148 0
16.965000 0.417909 0
16.970000 0.422525 5
16.975000 0.421829 0
16.980000 0.415813 0
16.985000 0.404638 0
16.990000 0.388620 0
16.995000 0.368218 0
17.000000 0.344007 0
17.005000 0.316657 0
17.010000 0.286897 0
17.015000 0.255483 0
17.020000 0.223167 0
17.025000 0.190667 0
17.030000 0.158642 0
17.035000 0.127674 0
17.040000 0.098248 0
17.045000 0.070749 0
17.050000 0.045458 0
17.055000 0.022556 0
17.060000 0.002127 0
17.065000 -0.015824 0
17.070000 -0.031365 0
17.075000 -0.044618 0
17.080000 -0.055747 0
17.085000 -0.064944 0
17.090000 -0.072416 0
17.095000 -0.078374 0
17.100000 -0.083027 0
17.105000 -0.086571 0
17.110000 -0.089188 0
17.115000 -0.091041 0
17.120000 -0.092275 0
17.125000 -0.092783 0
17.130000 -0.091939 0
17.135000 -0.091098 0
17.140000 -0.090262 0
17.145000 -0.089430 0
17.150000 -0.088602 0
17.155000 -0.087777 0
17.160000 -0.086956 0
17.165000 -0.086138 0
17.170000 -0.085319 0
17.175000 -0.084499 0
17.180000 -0.083669 0
17.185000 -0.082820 0
17.190000 -0.081934 0
17.195000 -0.080979 0
17.200000 -0.079906 0
17.205000 -0.078640 0
17.210000 -0.077065 0
17.215000 -0.075020 0
17.220000 -0.072276 0
17.225000 -0.068538 0
17.230000 -0.063429 0
17.235000 -0.056508 0
17.240000 -0.047280 0
17.245000 -0.035244 0
17.250000 -0.019945 0
17.255000 -0.001060 0
17.260000 0.021522 0
17.265000 0.047605 0
17.270000 0.076624 0
17.275000 0.107602 0
17.280000 0.139172 0
17.285000 0.169651 0
17.290000 0.197174 0
17.295000 0.219876 0
17.300000 0.236103 0
17.305000 0.244603 0
17.310000 0.244692 1
17.315000 0.236339 0
17.320000 0.220173 0
17.325000 0.197405 0
17.330000 0.169678 0
17.335000 0.138861 0
17.340000 0.106818 0
17.345000 0.075130 0
17.350000 0.044686 0
17.355000 0.015066 0
17.360000 -0.016163 0
17.365000 -0.053461 0
17.370000 -0.101186 0
17.375000 -0.158704 0
17.380000 -0.214956 0
17.385000 -0.247052 2
17.390000 -0.225122 0
17.395000 -0.120472 0
17.400000 0.085420 0
17.405000 0.387311 0
17.410000 0.737675 0
17.415000 1.041468 0
17.420000 1.188583 3
17.425000 1.116228 0
17.430000 0.849633 0
17.435000 0.484311 0
17.440000 0.128304 0
17.445000 -0.144659 0
17.450000 -0.305169 0
17.455000 -0.356798 4
17.460000 -0.324641 0
17.465000 -0.245864 0
17.470000 -0.157017 0
17.475000 -0.081789 0
17.480000 -0.027204 0
17.485000 0.011005 0
17.490000 0.040391 0
17.495000 0.066830 0
17.500000 0.093425 0
17.505000 0.121304 0
17.510000 0.150597 0
17.515000 0.181007 0
17.520000 0.212049 0
17.525000 0.243130 0
17.530000 0.273585 0
17.535000 0.302701 0
17.540000 0.329743 0
17.545000 0.353985 0
17.550000 0.374743 0
17.555000 0.391400 0
17.560000 0.403446 0
17.565000 0.410493 0
17.570000 0.412302 5
17.575000 0.408791 0
17.580000 0.400045 0
17.585000 0.386305 0
17.590000 0.367964 0
17.595000 0.345542 0
17.600000 0.319664 0
17.605000 0.291028 0
17.610000 0.260377 0
17.615000 0.228463 0
17.620000 0.196020 0
17.625000 0.163735 0
17.630000 0.132225 0
17.635000 0.102021 0
17.640000 0.073558 0
17.645000 0.047166 0
17.650000 0.023074 0
17.655000 0.001415 0
17.660000 -0.017768 0
17.665000 -0.034505 0
17.670000 -0.048892 0
17.675000 -0.061072 0
17.680000 -0.071221 0
17.685000 -0.079540 0
17.690000 -0.086237 0
17.695000 -0.091521 0
17.700000 -0.095595 0
17.705000 -0.098647 0
17.710000 -0.100851 0
17.715000 -0.102361 0
17.720000 -0.103309 0
17.725000 -0.102679 0
17.730000 -0.101785 0
17.735000 -0.100895 0
17.740000 -0.100010 0
17.745000 -0.099129 0
17.750000 -0.098253 0
17.755000 -0.097380 0
17.760000 -0.096510 0
17.765000 -0.095643 0
17.770000 -0.094775 0
17.775000 -0.093903 0
17.780000 -0.093019 0
17.785000 -0.092110 0
17.790000 -0.091153 0
17.795000 -0.090112 0
17.800000 -0.088928 0
17.805000 -0.087513 0
17.810000 -0.085736 0
17.815000 -0.083414 0
17.820000 -0.080294 0
17.825000 -0.076055 0
17.830000 -0.070297 0
17.835000 -0.062558 0
17.840000 -0.052341 0
17.845000 -0.039155 0
17.850000 -0.022585 0
17.855000 -0.002375 0
17.860000 0.021490 0
17.865000 0.048696 0
17.870000 0.078544 0
17.875000 0.109930 0
17.880000 0.141380 0
17.885000 0.171145 0
17.890000 0.197350 0
17.895000 0.218190 0
17.900000 0.232127 0
17.905000 0.238083 1
17.910000 0.235574 0
17.915000 0.224775 0
17.920000 0.206501 0
17.925000 0.182103 0
17.930000 0.153302 0
17.935000 0.121979 0
17.940000 0.089936 0
17.945000 0.058593 0
17.950000 0.028538 0
17.955000 -0.001146 0
17.960000 -0.033499 0
17.965000 -0.073255 0
17.970000 -0.123976 0
17.975000 -0.182710 0
17.980000 -0.235239 0
17.985000 -0.256336 2
17.990000 -0.215821 0
17.995000 -0.086834 0
18.000000 0.144673 0
18.005000 0.464782 0
18.010000 0.814117 0
18.015000 1.090076 0
18.020000 1.188485 3
18.025000 1.062505 0
18.030000 0.758811 0
18.035000 0.386183 0
18.040000 0.049907 0
18.045000 -0.187905 0
18.050000 -0.309324 0
18.055000 -0.326823 4
18.060000 -0.272270 0
18.065000 -0.185712 0
18.070000 -0.100878 0
18.075000 -0.034895 0
18.080000 0.011130 0
18.085000 0.044099 0
18.090000 0.071372 0
18.095000 0.097574 0
18.100000 0.124725 0
18.105000 0.153337 0
18.110000 0.183254 0
18.115000 0.214036 0
18.120000 0.245107 0
18.125000 0.275801 0
18.130000 0.305392 0
18.135000 0.333119 0
18.140000 0.358223 0
18.145000 0.379973 0
18.150000 0.397708 0
18.155000 0.410862 0
18.160000 0.419000 0
18.165000 0.421837 5
18.170000 0.419255 0
18.175000 0.411306 0
18.180000 0.398219 0
18.185000 0.380376 0
18.190000 0.358304 0
18.195000 0.332642 0
18.200000 0.304110 0
18.205000 0.273477 0
18.210000 0.241527 0
18.215000 0.209023 0
18.220000 0.176678 0
18.225000 0.145134 0
18.230000 0.114940 0
18.235000 0.086541 0
18.240000 0.060274 0
18.245000 0.036369 0
18.250000 0.014952 0
18.255000 -0.003941 0
18.260000 -0.020355 0
18.265000 -0.034396 0
18.270000 -0.046221 0
18.275000 -0.056020 0
18.280000 -0.064002 0
18.285000 -0.070387 0
18.290000 -0.075390 0
18.295000 -0.079218 0
18.300000 -0.082062 0
18.305000 -0.084096 0
18.310000 -0.085472 0
18.315000 -0.086082 0
18.320000 -0.085271 0
18.325000 -0.084464 0
18.330000 -0.083661 0
18.335000 -0.082861 0
18.340000 -0.082066 0
18.345000 -0.081274 0
18.350000 -0.080486 0
18.355000 -0.079699 0
18.360000 -0.078913 0
18.365000 -0.078125 0
18.370000 -0.077327 0
18.375000 -0.076509 0
18.380000 -0.075652 0
18.385000 -0.074724 0
18.390000 -0.073672 0
18.395000 -0.072416 0
18.400000 -0.070833 0
18.405000 -0.068750 0
18.410000 -0.065925 0
18.415000 -0.062039 0
18.420000 -0.056695 0
18.425000 -0.049426 0
18.430000 -0.039715 0
18.435000 -0.027049 0
18.440000 -0.010981 0
18.445000 0.008782 0
18.450000 0.032285 0
18.455000 0.059233 0
18.460000 0.088925 0
18.465000 0.120232 0
18.470000 0.151630 0
18.475000 0.181303 0
18.480000 0.207303 0
18.485000 0.227757 0
18.490000 0.241091 0
18.495000 0.246224 1
18.500000 0.242715 0
18.505000 0.230823 0
18.510000 0.211477 0
18.515000 0.186149 0
18.520000 0.156674 0
18.525000 0.125009 0
18.530000 0.092974 0
18.535000 0.061890 0
18.540000 0.032047 0
18.545000 0.001935 0
18.550000 -0.032248 0
18.555000 -0.075489 0
18.560000 -0.129911 0
18.565000 -0.188716 0
18.570000 -0.232518 2
18.575000 -0.232152 0
18.580000 -0.156636 0
18.585000 0.017646 0
18.590000 0.294604 0
18.595000 0.639355 0
18.600000 0.965723 0
18.605000 1.158717 3
18.610000 1.138010 0
18.615000 0.908433 0
18.620000 0.555015 0
18.625000 0.189419 0
18.630000 -0.104330 0
18.635000 -0.287852 0
18.640000 -0.359151 4
18.645000 -0.340101 0
18.650000 -0.266864 0
18.655000 -0.177580 0
18.660000 -0.099094 0
18.665000 -0.041193 0
18.670000 -0.000864 0
18.675000 0.029449 0
18.680000 0.056100 0
18.685000 0.082608 0
18.690000 0.110330 0
18.695000 0.139490 0
18.700000 0.169825 0
18.705000 0.200860 0
18.710000 0.232007 0
18.715000 0.262598 0
18.720000 0.291916 0
18.725000 0.319219 0
18.730000 0.343768 0
18.735000 0.364867 0
18.740000 0.381885 0
18.745000 0.394297 0
18.750000 0.401700 0
18.755000 0.403843 5
18.760000 0.400636 0
18.765000 0.392152 0
18.770000 0.378633 0
18.775000 0.360468 0
18.780000 0.338181 0
18.785000 0.312401 0
18.790000 0.283834 0
18.795000 0.253231 0
18.800000 0.221354 0
18.805000 0.188946 0
18.810000 0.156700 0
18.815000 0.125241 0
18.820000 0.095105 0
18.825000 0.066728 0
18.830000 0.040443 0
18.835000 0.016479 0
18.840000 -0.005036 0
18.845000 -0.024059 0
18.850000 -0.040628 0
18.855000 -0.054840 0
18.860000 -0.066843 0
18.865000 -0.076819 0
18.870000 -0.084970 0
18.875000 -0.091508 0
18.880000 -0.096644 0
18.885000 -0.100582 0
18.890000 -0.103513 0
18.895000 -0.105608 0
18.900000 -0.107021 0
18.905000 -0.107626 0
18.910000 -0.106708 0
18.915000 -0.105793 0
18.920000 -0.104884 0
18.925000 -0.103979 0
18.930000 -0.103078 0
18.935000 -0.102182 0
18.940000 -0.101289 0
18.945000 -0.100400 0
18.950000 -0.099512 0
18.955000 -0.098624 0
18.960000 -0.097730 0
18.965000 -0.096823 0
18.970000 -0.095886 0
18.975000 -0.094895 0
18.980000 -0.093809 0
18.985000 -0.092564 0
18.990000 -0.091060 0
18.995000 -0.089154 0
19.000000 -0.086645 0
19.005000 -0.083263 0
19.010000 -0.078661 0
19.015000 -0.072418 0
19.020000 -0.064052 0
19.025000 -0.053058 0
19.030000 -0.038952 0
19.035000 -0.021350 0
19.040000 -0.000053 0
19.045000 0.024868 0
19.050000 0.052982 0
19.055000 0.083461 0
19.060000 0.115064 0
19.065000 0.146199 0
19.070000 0.175039 0
19.075000 0.199685 0
19.080000 0.218377 0
19.085000 0.229698 0
19.090000 0.232748 1
19.095000 0.227269 0
19.100000 0.213674 0
19.105000 0.192998 0
19.110000 0.166769 0
19.115000 0.136814 0
19.120000 0.105037 0
19.125000 0.073155 0
19.130000 0.042341 0
19.135000 0.012675 0
19.140000 -0.017590 0
19.145000 -0.052397 0
19.150000 -0.096562 0
19.155000 -0.151635 0
19.160000 -0.210129 0
19.165000 -0.252405 2
19.170000 -0.249752 0
19.175000 -0.172088 0
19.180000 0.003325 0
19.185000 0.280072 0
19.190000 0.624401 0
19.195000 0.953136 0
19.200000 1.154221 3
19.205000 1.144529 0
19.210000 0.922410 0
19.215000 0.571197 0
19.220000 0.204896 0
19.225000 -0.089832 0
19.230000 -0.273325 0
19.235000 -0.343527 4
19.240000 -0.322972 0
19.245000 -0.248750 0
19.250000 -0.159592 0
19.255000 -0.082185 0
19.260000 -0.025656 0
19.265000 0.013599 0
19.270000 0.043337 0
19.275000 0.069810 0
19.280000 0.096358 0
19.285000 0.124198 0
19.290000 0.153477 0
19.295000 0.183891 0
19.300000 0.214935 0
19.305000 0.245993 0
19.310000 0.276375 0
19.315000 0.305342 0
19.320000 0.332133 0
19.325000 0.356001 0
19.330000 0.376244 0
19.335000 0.392239 0
19.340000 0.403475 0
19.345000 0.409576 0
19.350000 0.410323 5
19.355000 0.405667 0
19.360000 0.395729 0
19.365000 0.380797 0
19.370000 0.361312 0
19.375000 0.337842 0
19.380000 0.311059 0
19.385000 0.281700 0
19.390000 0.250540 0
19.395000 0.218353 0
19.400000 0.185883 0
19.405000 0.153817 0
19.410000 0.122760 0
19.415000 0.093221 0
19.420000 0.065604 0
19.425000 0.040208 0
19.430000 0.017221 0
19.435000 -0.003262 0
19.440000 -0.021236 0
19.445000 -0.036768 0
19.450000 -0.049982 0
19.455000 -0.061048 0
19.460000 -0.070162 0
19.465000 -0.077537 0
19.470000 -0.083390 0
19.475000 -0.087934 0
19.480000 -0.091370 0
19.485000 -0.093883 0
19.490000 -0.095639 0
19.495000 -0.096782 0
19.500000 -0.096208 0
19.505000 -0.095346 0
19.510000 -0.094489 0
19.515000 -0.093636 0
19.520000 -0.092787 0
19.525000 -0.091942 0
19.530000 -0.091100 0
19.535000 -0.090262 0
19.540000 -0.089427 0
19.545000 -0.088591 0
19.550000 -0.087751 0
19.555000 -0.086900 0
19.560000 -0.086025 0
19.565000 -0.085104 0
19.570000 -0.084100 0
19.575000 -0.082955 0
19.580000 -0.081579 0
19.585000 -0.079838 0
19.590000 -0.077543 0
19.595000 -0.074434 0
19.600000 -0.070176 0
19.605000 -0.064355 0
19.610000 -0.056488 0
19.615000 -0.046062 0
19.620000 -0.032572 0
19.625000 -0.015604 0
19.630000 0.005085 0
19.635000 0.029467 0
19.640000 0.057160 0
19.645000 0.087372 0
19.650000 0.118886 0
19.655000 0.150111 0
19.660000 0.179196 0
19.665000 0.204204 0
19.670000 0.223317 0
19.675000 0.235058 0
19.680000 0.238475 1
19.685000 0.233271 0
19.690000 0.219842 0
19.695000 0.199232 0
19.700000 0.172993 0
19.705000 0.142990 0
19.710000 0.111166 0
19.715000 0.079267 0
19.720000 0.048469 0
19.725000 0.018793 0
19.730000 -0.011656 0
19.735000 -0.047013 0
19.740000 -0.092128 0
19.745000 -0.148037 0
19.750000 -0.206007 0
19.755000 -0.244793 2
19.760000 -0.234502 0
19.765000 -0.144862 0
19.770000 0.045546 0
19.775000 0.336091 0
19.780000 0.684752 0
19.785000 0.999128 0
19.790000 1.165213 3
19.795000 1.114196 0
19.800000 0.863627 0
19.805000 0.503407 0
19.810000 0.141960 0
19.815000 -0.142844 0
19.820000 -0.317243 0
19.825000 -0.381521 4
19.830000 -0.358311 0
19.835000 -0.283467 0
19.840000 -0.194080 0
19.845000 -0.115892 0
19.850000 -0.058118 0
19.855000 -0.017700 0
19.860000 0.012768 0
19.865000 0.039531 0
19.870000 0.066089 0
19.875000 0.093821 0
19.880000 0.122977 0
19.885000 0.153318 0
19.890000 0.184388 0
19.895000 0.215620 0
19.900000 0.246367 0
19.905000 0.275931 0
19.910000 0.303588 0
19.915000 0.328614 0
19.920000 0.350321 0
19.925000 0.368081 0
19.930000 0.381362 0
19.935000 0.389750 0
19.940000 0.392970 5
19.945000 0.390904 0
19.950000 0.383592 0
19.955000 0.371235 0
19.960000 0.354183 0
19.965000 0.332919 0
19.970000 0.308036 0
19.975000 0.280209 0
19.980000 0.250162 0
19.985000 0.218640 0
19.990000 0.186379 0
19.995000 0.154074 0
20.000000 0.122359 0
20.005000 0.091788 0
20.010000 0.062821 0
20.015000 0.035819 0
20.020000 0.011042 0
20.025000 -0.011350 0
20.030000 -0.031283 0
20.035000 -0.048765 0
20.040000 -0.063871 0
20.045000 -0.076725 0
20.050000 -0.087493 0
20.055000 -0.096366 0
20.060000 -0.103547 0
20.065000 -0.109246 0
20.070000 -0.113665 0
20.075000 -0.116998 0
20.080000 -0.119421 0
20.085000 -0.121096 0
20.090000 -0.122161 0
20.095000 -0.122511 0
20.100000 -0.121518 0
20.105000 -0.120530 0
20.110000 -0.119547 0
20.115000 -0.118569 0
20.120000 -0.117596 0
20.125000 -0.116627 0
20.130000 -0.115662 0
20.135000 -0.114700 0
20.140000 -0.113740 0
20.145000 -0.112778 0
20.150000 -0.111808 0
20.155000 -0.110822 0
20.160000 -0.109800 0
20.165000 -0.108715 0
20.170000 -0.107520 0
20.175000 -0.106144 0
20.180000 -0.104479 0
20.185000 -0.102371 0
20.190000 -0.099607 0
20.195000 -0.095905 0
20.200000 -0.090908 0
20.205000 -0.084189 0
20.210000 -0.075271 0
20.215000 -0.063657 0
20.220000 -0.048887 0
20.225000 -0.030612 0
20.230000 -0.008675 0
20.235000 0.016804 0
20.240000 0.045350 0
20.245000 0.076098 0
20.250000 0.107789 0
20.255000 0.138834 0
20.260000 0.167430 0
20.265000 0.191725 0
20.270000 0.210018 0
20.275000 0.220949 0
20.280000 0.223674 1
20.285000 0.217967 0
20.290000 0.204254 0
20.295000 0.183560 0
20.300000 0.157382 0
20.305000 0.127509 0
20.310000 0.095803 0
20.315000 0.063951 0
20.320000 0.033128 0
20.325000 0.003478 0
20.330000 -0.026583 0
20.335000 -0.060780 0
20.340000 -0.103874 0
20.345000 -0.157921 0
20.350000 -0.216744 0
20.355000 -0.262455 0
20.360000 -0.267713 2
20.365000 -0.202778 0
20.370000 -0.043750 0
20.375000 0.216947 0
20.380000 0.553873 0
20.385000 0.894183 0
20.390000 1.130037 0
20.395000 1.168979 3
20.400000 0.990152 0
20.405000 0.659587 0
20.410000 0.287018 0
20.415000 -0.033137 0
20.420000 -0.250243 0
20.425000 -0.353324 0
20.430000 -0.358075 4
20.435000 -0.297136 0
20.440000 -0.209191 0
20.445000 -0.125406 0
20.450000 -0.060756 0
20.455000 -0.015451 0
20.460000 0.017359 0
20.465000 0.044721 0
20.470000 0.071052 0
20.475000 0.098300 0
20.480000 0.126979 0
20.485000 0.156951 0
20.490000 0.187805 0
20.495000 0.218993 0
20.500000 0.249880 0
20.505000 0.279771 0
20.510000 0.307937 0
20.515000 0.333643 0
20.520000 0.356178 0
20.525000 0.374890 0
20.530000 0.389213 0
20.535000 0.398698 0
20.540000 0.403033 5
20.545000 0.402061 0
20.550000 0.395789 0
20.555000 0.384385 0
20.560000 0.368175 0
20.565000 0.347623 0
20.570000 0.323310 0
20.575000 0.295904 0
20.580000 0.266134 0
20.585000 0.234752 0
20.590000 0.202507 0
20.595000 0.170110 0
20.600000 0.138215 0
20.605000 0.107396 0
20.610000 0.078131 0
20.615000 0.050801 0
20.620000 0.025682 0
20.625000 0.002949 0
20.630000 -0.017316 0
20.635000 -0.035110 0
20.640000 -0.050503 0
20.645000 -0.063616 0
20.650000 -0.074615 0
20.655000 -0.083690 0
20.660000 -0.091048 0
20.665000 -0.096899 0
20.670000 -0.101449 0
20.675000 -0.104896 0
20.680000 -0.107419 0
20.685000 -0.109181 0
20.690000 -0.110325 0
20.695000 -0.110745 0
20.700000 -0.109810 0
20.705000 -0.108881 0
20.710000 -0.107956 0
20.715000 -0.107036 0
20.720000 -0.106120 0
20.725000 -0.105208 0
20.730000 -0.104300 0
20.735000 -0.103395 0
20.740000 -0.102491 0
20.745000 -0.101584 0
20.750000 -0.100670 0
20.755000 -0.099738 0
20.760000 -0.098769 0
20.765000 -0.097733 0
20.770000 -0.096583 0
20.775000 -0.095245 0
20.780000 -0.093605 0
20.785000 -0.091505 0
20.790000 -0.088722 0
20.795000 -0.084964 0
20.800000 -0.079864 0
20.805000 -0.072981 0
20.810000 -0.063829 0
20.815000 -0.051905 0
20.820000 -0.036755 0
20.825000 -0.018043 0
20.830000 0.004357 0
20.835000 0.030275 0
20.840000 0.059176 0
20.845000 0.090122 0
20.850000 0.121778 0
20.855000 0.152491 0
20.860000 0.180414 0
20.865000 0.203685 0
20.870000 0.220628 0
20.875000 0.229957 0
20.880000 0.230932 1
20.885000 0.223458 0
20.890000 0.208100 0
20.895000 0.186011 0
20.900000 0.158790 0
20.905000 0.128284 0
20.910000 0.096361 0
20.915000 0.064641 0
20.920000 0.034113 0
20.925000 0.004550 0
20.930000 -0.026211 0
20.935000 -0.062421 0
20.940000 -0.108645 0
20.945000 -0.165204 0
20.950000 -0.222619 0
20.955000 -0.259492 2
20.960000 -0.246572 0
20.965000 -0.154654 0
20.970000 0.036728 0
20.975000 0.326767 0
20.980000 0.675100 0
20.985000 0.993012 0
20.990000 1.169528 3
20.995000 1.133648 0
21.000000 0.896362 0
21.005000 0.541460 0
21.010000 0.175625 0
21.015000 -0.120780 0
21.020000 -0.310099 0
21.025000 -0.389066 4
21.030000 -0.377213 0
21.035000 -0.308210 0
21.040000 -0.219007 0
21.045000 -0.137393 0
21.050000 -0.075361 0
21.055000 -0.031735 0
21.060000 0.000400 0
21.065000 0.027660 0
21.070000 0.054098 0
21.075000 0.081483 0
21.080000 0.110273 0
21.085000 0.140328 0
21.090000 0.171251 0
21.095000 0.202515 0
21.100000 0.233512 0
21.105000 0.263575 0
21.110000 0.292002 0
21.115000 0.318087 0
21.120000 0.341140 0
21.125000 0.360524 0
21.130000 0.375680 0
21.135000 0.386154 0
21.140000 0.391622 0
21.145000 0.391901 5
21.150000 0.386961 0
21.155000 0.376929 0
21.160000 0.362080 0
21.165000 0.342825 0
21.170000 0.319694 0
21.175000 0.293308 0
21.180000 0.264353 0
21.185000 0.233549 0
21.190000 0.201621 0
21.195000 0.169274 0
21.200000 0.137160 0
21.205000 0.105869 0
21.210000 0.075904 0
21.215000 0.047676 0
21.220000 0.021498 0
21.225000 -0.002413 0
21.230000 -0.023931 0
21.235000 -0.043014 0
21.240000 -0.059694 0
21.245000 -0.074059 0
21.250000 -0.086247 0
21.255000 -0.096426 0
21.260000 -0.104788 0
21.265000 -0.111534 0
21.270000 -0.116867 0
21.275000 -0.120983 0
21.280000 -0.124068 0
21.285000 -0.126290 0
21.290000 -0.127802 0
21.295000 -0.128737 0
21.300000 -0.127997 0
21.305000 -0.126977 0
21.310000 -0.125962 0
21.315000 -0.124952 0
21.320000 -0.123947 0
21.325000 -0.122946 0
21.330000 -0.121950 0
21.335000 -0.120959 0
21.340000 -0.119970 0
21.345000 -0.118984 0
21.350000 -0.117995 0
21.355000 -0.116999 0
21.360000 -0.115986 0
21.365000 -0.114938 0
21.370000 -0.113828 0
21.375000 -0.112610 0
21.380000 -0.111215 0
21.385000 -0.109540 0
21.390000 -0.107436 0
21.395000 -0.104699 0
21.400000 -0.101058 0
21.405000 -0.096171 0
21.410000 -0.089629 0
21.415000 -0.080969 0
21.420000 -0.069705 0
21.425000 -0.055383 0
21.430000 -0.037641 0
21.435000 -0.016291 0
21.440000 0.008598 0
21.445000 0.036631 0
21.450000 0.067036 0
21.455000 0.098661 0
21.460000 0.130018 0
21.465000 0.159382 0
21.470000 0.184943 0
21.475000 0.204984 0
21.480000 0.218074 0
21.485000 0.223236 1
21.490000 0.220069 0
21.495000 0.208798 0
21.500000 0.190249 0
21.505000 0.165750 0
21.510000 0.136972 0
21.515000 0.105731 0
21.520000 0.073768 0
21.525000 0.042467 0
21.530000 0.012438 0
21.535000 -0.017103 0
21.540000 -0.048933 0
21.545000 -0.087555 0
21.550000 -0.136768 0
21.555000 -0.194848 0
21.560000 -0.249772 0
21.565000 -0.278605 2
21.570000 -0.252476 0
21.575000 -0.144165 0
21.580000 0.063564 0
21.585000 0.365260 0
21.590000 0.715628 0
21.595000 1.024384 0
21.600000 1.185112 3
21.605000 1.131433 0
21.610000 0.879404 0
21.615000 0.518801 0
21.620000 0.157331 0
21.625000 -0.127710 0
21.630000 -0.302730 0
21.635000 -0.367889 4
21.640000 -0.345542 0
21.645000 -0.271228 0
21.650000 -0.181889 0
21.655000 -0.103381 0
21.660000 -0.045184 0
21.665000 -0.004454 0
21.670000 0.026141 0
21.675000 0.052885 0
21.680000 0.079344 0
21.685000 0.106946 0
21.690000 0.135972 0
21.695000 0.166194 0
21.700000 0.197168 0
21.705000 0.228335 0
21.710000 0.259056 0
21.715000 0.288640 0
21.720000 0.316367 0
21.725000 0.341519 0
21.730000 0.363407 0
21.735000 0.381404 0
21.740000 0.394971 0
21.745000 0.403690 0
21.750000 0.407274 5
21.755000 0.405593 0
21.760000 0.398674 0
21.765000 0.386702 0
21.770000 0.370012 0
21.775000 0.349073 0
21.780000 0.324463 0
21.785000 0.296845 0
21.790000 0.266937 0
21.795000 0.235477 0
21.800000 0.203199 0
21.805000 0.170800 0
21.810000 0.138918 0
21.815000 0.108112 0
21.820000 0.078854 0
21.825000 0.051514 0
21.830000 0.026364 0
21.835000 0.003576 0
21.840000 -0.016767 0
21.845000 -0.034660 0
21.850000 -0.050169 0
21.855000 -0.063413 0
21.860000 -0.074549 0
21.865000 -0.083765 0
21.870000 -0.091261 0
21.875000 -0.097246 0
21.880000 -0.101922 0
21.885000 -0.105482 0
21.890000 -0.108107 0
21.895000 -0.109959 0
21.900000 -0.111179 0
21.905000 -0.111653 0
21.910000 -0.110714 0
21.915000 -0.109780 0
21.920000 -0.108851 0
21.925000 -0.107926 0
21.930000 -0.107005 0
21.935000 -0.106089 0
21.940000 -0.105177 0
21.945000 -0.104268 0
21.950000 -0.103361 0
21.955000 -0.102452 0
21.960000 -0.101538 0
21.965000 -0.100608 0
21.970000 -0.099649 0
21.975000 -0.098634 0
21.980000 -0.097521 0
21.985000 -0.096247 0
21.990000 -0.094715 0
21.995000 -0.092783 0
22.000000 -0.090255 0
22.005000 -0.086868 0
22.010000 -0.082286 0
22.015000 -0.076102 0
22.020000 -0.067852 0
22.025000 -0.057042 0
22.030000 -0.043202 0
22.035000 -0.025945 0
22.040000 -0.005056 0
22.045000 0.019428 0
22.050000 0.047139 0
22.055000 0.077327 0
22.060000 0.108847 0
22.065000 0.140207 0
22.070000 0.169660 0
22.075000 0.195361 0
22.080000 0.215555 0
22.085000 0.228771 0
22.090000 0.234001 1
22.095000 0.230826 0
22.100000 0.219472 0
22.105000 0.200782 0
22.110000 0.176114 0
22.115000 0.147175 0
22.120000 0.115816 0
22.125000 0.083800 0
22.130000 0.052510 0
22.135000 0.022498 0
22.140000 -0.007157 0
22.145000 -0.039455 0
22.150000 -0.079052 0
22.155000 -0.129505 0
22.160000 -0.188117 0
22.165000 -0.241272 0
22.170000 -0.264491 2
22.175000 -0.228140 0
22.180000 -0.105402 0
22.185000 0.118733 0
22.190000 0.433246 0
22.195000 0.783754 0
22.200000 1.072036 0
22.205000 1.192980 3
22.210000 1.094927 0
22.215000 0.813094 0
22.220000 0.444465 0
22.225000 0.092521 0
22.230000 -0.174332 0
22.235000 -0.329813 0
22.240000 -0.378524 4
22.245000 -0.345328 0
22.250000 -0.266439 0
22.255000 -0.177396 0
22.260000 -0.101468 0
22.265000 -0.045905 0
22.270000 -0.006854 0
22.275000 0.023023 0
22.280000 0.049633 0
22.285000 0.076205 0
22.290000 0.103981 0
22.295000 0.133164 0
22.300000 0.163501 0
22.305000 0.194541 0
22.310000 0.225722 0
22.315000 0.256410 0
22.320000 0.285919 0
22.325000 0.313538 0
22.330000 0.338558 0
22.335000 0.360302 0
22.340000 0.378153 0
22.345000 0.391585 0
22.350000 0.400186 0
22.355000 0.403681 5
22.360000 0.401941 0
22.365000 0.394997 0
22.370000 0.383034 0
22.375000 0.366382 0
22.380000 0.345503 0
22.385000 0.320968 0
22.390000 0.293432 0
22.395000 0.263601 0
22.400000 0.232206 0
22.405000 0.199970 0
22.410000 0.167585 0
22.415000 0.135684 0
22.420000 0.104825 0
22.425000 0.075477 0
22.430000 0.048014 0
22.435000 0.022710 0
22.440000 -0.000256 0
22.445000 -0.020795 0
22.450000 -0.038897 0
22.455000 -0.054620 0
22.460000 -0.068077 0
22.465000 -0.079419 0
22.470000 -0.088830 0
22.475000 -0.096506 0
22.480000 -0.102652 0
22.485000 -0.107471 0
22.490000 -0.111154 0
22.495000 -0.113881 0
22.500000 -0.115816 0
22.505000 -0.117102 0
22.510000 -0.117613 0
22.515000 -0.116644 0
22.520000 -0.115681 0
22.525000 -0.114722 0
22.530000 -0.113768 0
22.535000 -0.112818 0
22.540000 -0.111873 0
22.545000 -0.110932 0
22.550000 -0.109995 0
22.555000 -0.109060 0
22.560000 -0.108125 0
22.565000 -0.107185 0
22.570000 -0.106234 0
22.575000 -0.105257 0
22.580000 -0.104233 0
22.585000 -0.103125 0
22.590000 -0.101877 0
22.595000 -0.100402 0
22.600000 -0.098576 0
22.605000 -0.096220 0
22.610000 -0.093095 0
22.615000 -0.088891 0
22.620000 -0.083227 0
22.625000 -0.075660 0
22.630000 -0.065706 0
22.635000 -0.052888 0
22.640000 -0.036788 0
22.645000 -0.017127 0
22.650000 0.006152 0
22.655000 0.032807 0
22.660000 0.062234 0
22.665000 0.093442 0
22.670000 0.125074 0
22.675000 0.155483 0
22.680000 0.182864 0
22.685000 0.205426 0
22.690000 0.221583 0
22.695000 0.230140 0
22.700000 0.230437 1
22.705000 0.222435 0
22.710000 0.206721 0
22.715000 0.184439 0
22.720000 0.157149 0
22.725000 0.126645 0
22.730000 0.094738 0
22.735000 0.063004 0
22.740000 0.032431 0
22.745000 0.002868 0
22.750000 -0.027647 0
22.755000 -0.063113 0
22.760000 -0.108088 0
22.765000 -0.163620 0
22.770000 -0.221936 0
22.775000 -0.263794 2
22.780000 -0.261545 0
22.785000 -0.186280 0
22.790000 -0.015829 0
22.795000 0.254575 0
22.800000 0.595658 0
22.805000 0.931609 0
22.810000 1.155452 0
22.815000 1.179944 3
22.820000 0.990485 0
22.825000 0.655174 0
22.830000 0.283080 0
22.835000 -0.033962 0
22.840000 -0.247550 0
22.845000 -0.347860 0
22.850000 -0.350964 4
22.855000 -0.289388 0
22.860000 -0.201387 0
22.865000 -0.117674 0
22.870000 -0.053004 0
22.875000 -0.007604 0
22.880000 0.025284 0
22.885000 0.052657 0
22.890000 0.078938 0
22.895000 0.106101 0
22.900000 0.134683 0
22.905000 0.164563 0
22.910000 0.195341 0
22.915000 0.226481 0
22.920000 0.257359 0
22.925000 0.287290 0
22.930000 0.315555 0
22.935000 0.341426 0
22.940000 0.364199 0
22.945000 0.383223 0
22.950000 0.397928 0
22.955000 0.407860 0
22.960000 0.412696 5
22.965000 0.412264 0
22.970000 0.406553 0
22.975000 0.395712 0
22.980000 0.380044 0
22.985000 0.359992 0
22.990000 0.336116 0
22.995000 0.309068 0
23.000000 0.279561 0
23.005000 0.248337 0
23.010000 0.216139 0
23.015000 0.183679 0
23.020000 0.151614 0
23.025000 0.120525 0
23.030000 0.090905 0
23.035000 0.063146 0
23.040000 0.037542 0
23.045000 0.014284 0
23.050000 -0.006528 0
23.055000 -0.024877 0
23.060000 -0.040818 0
23.065000 -0.054461 0
23.070000 -0.065961 0
23.075000 -0.075502 0
23.080000 -0.083285 0
23.085000 -0.089518 0
23.090000 -0.094408 0
23.095000 -0.098151 0
23.100000 -0.100930 0
23.105000 -0.102911 0
23.110000 -0.104241 0
23.115000 -0.104799 0
23.120000 -0.103894 0
23.125000 -0.102994 0
23.130000 -0.102099 0
23.135000 -0.101208 0
23.140000 -0.100321 0
23.145000 -0.099438 0
23.150000 -0.098559 0
23.155000 -0.097683 0
23.160000 -0.096809 0
23.165000 -0.095934 0
23.170000 -0.095053 0
23.175000 -0.094158 0
23.180000 -0.093234 0
23.185000 -0.092257 0
23.190000 -0.091185 0
23.195000 -0.089957 0
23.200000 -0.088476 0
23.205000 -0.086603 0
23.210000 -0.084145 0
23.215000 -0.080840 0
23.220000 -0.076354 0
23.225000 -0.070280 0
23.230000 -0.062151 0
23.235000 -0.051471 0
23.240000 -0.037763 0
23.245000 -0.020634 0
23.250000 0.000137 0
23.255000 0.024522 0
23.260000 0.052157 0
23.265000 0.082292 0
23.270000 0.113781 0
23.275000 0.145119 0
23.280000 0.174550 0
23.285000 0.200215 0
23.290000 0.220345 0
23.295000 0.233460 0
23.300000 0.238550 1
23.305000 0.235202 0
23.310000 0.223656 0
23.315000 0.204772 0
23.320000 0.179930 0
23.325000 0.150858 0
23.330000 0.119421 0
23.335000 0.087388 0
23.340000 0.056126 0
23.345000 0.026143 0
23.350000 -0.003585 0
23.355000 -0.036189 0
23.360000 -0.076399 0
23.365000 -0.127576 0
23.370000 -0.186409 0
23.375000 -0.238364 0
23.380000 -0.258166 2
23.385000 -0.215892 0
23.390000 -0.085101 0
23.395000 0.147789 0
23.400000 0.468508 0
23.405000 0.817803 0
23.410000 1.093877 0
23.415000 1.193440 3
23.420000 1.071994 0
23.425000 0.773437 0
23.430000 0.401523 0
23.435000 0.059378 0
23.440000 -0.189553 0
23.445000 -0.324472 0
23.450000 -0.354594 4
23.455000 -0.308594 0
23.460000 -0.224704 0
23.465000 -0.137454 0
23.470000 -0.066751 0
23.475000 -0.016420 0
23.480000 0.019179 0
23.485000 0.047498 0
23.490000 0.073785 0
23.495000 0.100610 0
23.500000 0.128806 0
23.505000 0.158375 0
23.510000 0.188966 0
23.515000 0.220065 0
23.520000 0.251061 0
23.525000 0.281278 0
23.530000 0.309994 0
23.535000 0.336475 0
23.540000 0.360001 0
23.545000 0.379901 0
23.550000 0.395580 0
23.555000 0.406551 0
23.560000 0.412459 0
23.565000 0.413097 5
23.570000 0.408422 0
23.575000 0.398552 0
23.580000 0.383764 0
23.585000 0.364478 0
23.590000 0.341240 0
23.595000 0.314694 0
23.600000 0.285550 0
23.605000 0.254555 0
23.610000 0.222460 0
23.615000 0.189990 0
23.620000 0.157818 0
23.625000 0.126545 0
23.630000 0.096680 0
23.635000 0.068635 0
23.640000 0.042719 0
23.645000 0.019139 0
23.650000 -0.001991 0
23.655000 -0.020646 0
23.660000 -0.036872 0
23.665000 -0.050776 0
23.670000 -0.062508 0
23.675000 -0.072251 0
23.680000 -0.080209 0
23.685000 -0.086590 0
23.690000 -0.091602 0
23.695000 -0.095447 0
23.700000 -0.098309 0
23.705000 -0.100357 0
23.710000 -0.101740 0
23.715000 -0.102336 0
23.720000 -0.101444 0
23.725000 -0.100556 0
23.730000 -0.099673 0
23.735000 -0.098794 0
23.740000 -0.097919 0
23.745000 -0.097048 0
23.750000 -0.096181 0
23.755000 -0.095317 0
23.760000 -0.094455 0
23.765000 -0.093592 0
23.770000 -0.092723 0
23.775000 -0.091840 0
23.780000 -0.090928 0
23.785000 -0.089962 0
23.790000 -0.088901 0
23.795000 -0.087683 0
23.800000 -0.086209 0
23.805000 -0.084340 0
23.810000 -0.081878 0
23.815000 -0.078559 0
23.820000 -0.074042 0
23.825000 -0.067915 0
23.830000 -0.059706 0
23.835000 -0.048914 0
23.840000 -0.035059 0
23.845000 -0.017752 0
23.850000 0.003221 0
23.855000 0.027813 0
23.860000 0.055633 0
23.865000 0.085899 0
23.870000 0.117426 0
23.875000 0.148673 0
23.880000 0.177852 0
23.885000 0.203087 0
23.890000 0.222612 0
23.895000 0.234971 0
23.900000 0.239200 1
23.905000 0.234946 0
23.910000 0.222522 0
23.915000 0.202862 0
23.920000 0.177408 0
23.925000 0.147932 0
23.930000 0.116318 0
23.935000 0.084317 0
23.940000 0.053223 0
23.945000 0.023377 0
23.950000 -0.006536 0
23.955000 -0.039993 0
23.960000 -0.081818 0
23.965000 -0.134726 0
23.970000 -0.193759 0
23.975000 -0.242235 0
23.980000 -0.253309 2
23.985000 -0.196809 0
23.990000 -0.047602 0
23.995000 0.204166 0
24.000000 0.536602 0
24.005000 0.880311 0
24.010000 1.127815 0
24.015000 1.182347 3
24.020000 1.017181 0
24.025000 0.693520 0
24.030000 0.320361 0
24.035000 -0.005337 0
24.040000 -0.229845 0
24.045000 -0.340002 0
24.050000 -0.350147 4
24.055000 -0.292193 0
24.060000 -0.204914 0
24.065000 -0.120335 0
24.070000 -0.054488 0
24.075000 -0.008268 0
24.080000 0.024999 0
24.085000 0.052476 0
24.090000 0.078749 0
24.095000 0.105881 0
24.100000 0.134438 0
24.105000 0.164307 0
24.110000 0.195084 0
24.115000 0.226226 0
24.120000 0.257100 0
24.125000 0.287012 0
24.130000 0.315233 0
24.135000 0.341025 0
24.140000 0.363676 0
24.145000 0.382528 0
24.150000 0.397009 0
24.155000 0.406665 0
24.160000 0.411175 5
24.165000 0.410378 0
24.170000 0.404271 0
24.175000 0.393019 0
24.180000 0.376941 0
24.185000 0.356497 0
24.190000 0.332266 0
24.195000 0.304915 0
24.200000 0.275171 0
24.205000 0.243790 0
24.210000 0.211521 0
24.215000 0.179079 0
24.220000 0.147121 0
24.225000 0.116223 0
24.230000 0.086870 0
24.235000 0.059445 0
24.240000 0.034227 0
24.245000 0.011393 0
24.250000 -0.008970 0
24.255000 -0.026859 0
24.260000 -0.042343 0
24.265000 -0.055541 0
24.270000 -0.066620 0
24.275000 -0.075768 0
24.280000 -0.083194 0
24.285000 -0.089107 0
24.290000 -0.093715 0
24.295000 -0.097215 0
24.300000 -0.099788 0
24.305000 -0.101597 0
24.310000 -0.102785 0
24.315000 -0.103247 0
24.320000 -0.102350 0
24.325000 -0.101458 0
24.330000 -0.100570 0
24.335000 -0.099686 0
24.340000 -0.098807 0
24.345000 -0.097932 0
24.350000 -0.097060 0
24.355000 -0.096191 0
24.360000 -0.095323 0
24.365000 -0.094452 0
24.370000 -0.093574 0
24.375000 -0.092676 0
24.380000 -0.091743 0
24.385000 -0.090742 0
24.390000 -0.089627 0
24.395000 -0.088321 0
24.400000 -0.086714 0
24.405000 -0.084645 0
24.410000 -0.081890 0
24.415000 -0.078157 0
24.420000 -0.073075 0
24.425000 -0.066205 0
24.430000 -0.057057 0
24.435000 -0.045130 0
24.440000 -0.029967 0
24.445000 -0.011235 0
24.450000 0.011188 0
24.455000 0.037128 0
24.460000 0.066041 0
24.465000 0.096981 0
24.470000 0.128604 0
24.475000 0.159249 0
24.480000 0.187062 0
24.485000 0.210180 0
24.490000 0.226930 0
24.495000 0.236035 0
24.500000 0.236767 1
24.505000 0.229049 0
24.510000 0.213463 0
24.515000 0.191179 0
24.520000 0.163807 0
24.525000 0.133203 0
24.530000 0.101235 0
24.535000 0.069512 0
24.540000 0.038999 0
24.545000 0.009414 0
24.550000 -0.021485 0
24.555000 -0.058012 0
24.560000 -0.104684 0
24.565000 -0.161550 0
24.570000 -0.218669 0
24.575000 -0.254180 2
24.580000 -0.238622 0
24.585000 -0.142912 0
24.590000 0.052865 0
24.595000 0.346601 0
24.600000 0.695758 0
24.605000 1.009584 0
24.610000 1.177175 3
24.615000 1.127298 0
24.620000 0.875233 0
24.625000 0.513793 0
24.630000 0.154135 0
24.635000 -0.125343 0
24.640000 -0.292057 0
24.645000 -0.348150 4
24.650000 -0.318391 0
24.655000 -0.240380 0
24.660000 -0.151517 0
24.665000 -0.076194 0
24.670000 -0.021688 0
24.675000 0.016350 0
24.680000 0.045602 0
24.685000 0.071993 0
24.690000 0.098608 0
24.695000 0.126540 0
24.700000 0.155892 0
24.705000 0.186346 0
24.710000 0.217398 0
24.715000 0.248438 0
24.720000 0.278783 0
24.725000 0.307703 0
24.730000 0.334449 0
24.735000 0.358284 0
24.740000 0.378518 0
24.745000 0.394536 0
24.750000 0.405833 0
24.755000 0.412037 0
24.760000 0.412928 5
24.765000 0.408454 0
24.770000 0.398728 0
24.775000 0.384027 0
24.780000 0.364779 0
24.785000 0.341538 0
24.790000 0.314959 0
24.795000 0.285768 0
24.800000 0.254725 0
24.805000 0.222595 0
24.810000 0.190117 0
24.815000 0.157972 0
24.820000 0.126768 0
24.825000 0.097018 0
24.830000 0.069133 0
24.835000 0.043420 0
24.840000 0.020081 0
24.845000 -0.000781 0
24.850000 -0.019146 0
24.855000 -0.035070 0
24.860000 -0.048669 0
24.865000 -0.060103 0
24.870000 -0.069561 0
24.875000 -0.077251 0
24.880000 -0.083387 0
24.885000 -0.088181 0
24.890000 -0.091834 0
24.895000 -0.094532 0
24.900000 -0.096442 0
24.905000 -0.097713 0
24.910000 -0.098236 0
24.915000 -0.097364 0
24.920000 -0.096497 0
24.925000 -0.095633 0
24.930000 -0.094775 0
24.935000 -0.093920 0
24.940000 -0.093069 0
24.945000 -0.092221 0
24.950000 -0.091377 0
24.955000 -0.090533 0
24.960000 -0.089686 0
24.965000 -0.088832 0
24.970000 -0.087958 0
24.975000 -0.087048 0
24.980000 -0.086070 0
24.985000 -0.084975 0
24.990000 -0.083687 0
24.995000 -0.082090 0
25.000000 -0.080021 0
25.005000 -0.077250 0
25.010000 -0.073475 0
25.015000 -0.068318 0
25.020000 -0.061327 0
25.025000 -0.052005 0
25.030000 -0.039841 0
25.035000 -0.024382 0
25.040000 -0.005305 0
25.045000 0.017489 0
25.050000 0.043785 0
25.055000 0.072987 0
25.060000 0.104082 0
25.065000 0.135660 0
25.070000 0.166000 0
25.075000 0.193207 0
25.080000 0.215405 0
25.085000 0.230949 0
25.090000 0.238624 1
25.095000 0.237802 0
25.100000 0.228526 0
25.105000 0.211509 0
25.110000 0.188038 0
25.115000 0.159815 0
25.120000 0.128746 0
25.125000 0.096696 0
25.130000 0.065190 0
25.135000 0.034973 0
25.140000 0.005340 0
25.145000 -0.026546 0
25.150000 -0.065407 0
25.155000 -0.115182 0
25.160000 -0.173657 0
25.165000 -0.227306 0
25.170000 -0.251052 2
25.175000 -0.214233 0
25.180000 -0.089133 0
25.185000 0.139286 0
25.190000 0.457943 0
25.195000 0.807394 0
25.200000 1.083540 0
25.205000 1.180340 3
25.210000 1.054210 0
25.215000 0.752897 0
25.220000 0.380702 0
25.225000 0.040094 0
25.230000 -0.206499 0
25.235000 -0.339054 0
25.240000 -0.367265 4
25.245000 -0.320083 0
25.250000 -0.235774 0
25.255000 -0.148641 0
25.260000 -0.078256 0
25.265000 -0.028192 0
25.270000 0.007280 0
25.275000 0.035589 0
25.280000 0.061932 0
25.285000 0.088837 0
25.290000 0.117118 0
25.295000 0.146767 0
25.300000 0.177430 0
25.305000 0.208592 0
25.310000 0.239641 0
25.315000 0.269901 0
25.320000 0.298650 0
25.325000 0.325155 0
25.330000 0.348697 0
25.335000 0.368605 0
25.340000 0.384287 0
25.345000 0.395257 0
25.350000 0.401163 0
25.355000 0.401799 5
25.360000 0.397125 0
25.365000 0.387259 0
25.370000 0.372479 0
25.375000 0.353209 0
25.380000 0.329994 0
25.385000 0.303477 0
25.390000 0.274369 0
25.395000 0.243417 0
25.400000 0.211371 0
25.405000 0.178955 0
25.410000 0.146842 0
25.415000 0.115629 0
25.420000 0.085827 0
25.425000 0.057846 0
25.430000 0.031995 0
25.435000 0.008480 0
25.440000 -0.012587 0
25.445000 -0.031179 0
25.450000 -0.047345 0
25.455000 -0.061189 0
25.460000 -0.072863 0
25.465000 -0.082551 0
25.470000 -0.090453 0
25.475000 -0.096781 0
25.480000 -0.101741 0
25.485000 -0.105534 0
25.490000 -0.108345 0
25.495000 -0.110343 0
25.500000 -0.111677 0
25.505000 -0.112224 0
25.510000 -0.111282 0
25.515000 -0.110345 0
25.520000 -0.109413 0
25.525000 -0.108485 0
25.530000 -0.107562 0
25.535000 -0.106643 0
25.540000 -0.105729 0
25.545000 -0.104817 0
25.550000 -0.103907 0
25.555000 -0.102997 0
25.560000 -0.102081 0
25.565000 -0.101152 0
25.570000 -0.100193 0
25.575000 -0.099182 0
25.580000 -0.098076 0
25.585000 -0.096813 0
25.590000 -0.095296 0
25.595000 -0.093386 0
25.600000 -0.090885 0
25.605000 -0.087529 0
25.610000 -0.082980 0
25.615000 -0.076826 0
25.620000 -0.068595 0
25.625000 -0.057787 0
25.630000 -0.043922 0
25.635000 -0.026610 0
25.640000 -0.005635 0
25.645000 0.018959 0
25.650000 0.046788 0
25.655000 0.077072 0
25.660000 0.108634 0
25.665000 0.139938 0
25.670000 0.169198 0
25.675000 0.194543 0
25.680000 0.214201 0
25.685000 0.226714 0
25.690000 0.231109 1
25.695000 0.227026 0
25.700000 0.214765 0
25.705000 0.195252 0
25.710000 0.169920 0
25.715000 0.140536 0
25.720000 0.108982 0
25.725000 0.077014 0
25.730000 0.045937 0
25.735000 0.016112 0
25.740000 -0.013735 0
25.745000 -0.047039 0
25.750000 -0.088620 0
25.755000 -0.141281 0
25.760000 -0.200275 0
25.765000 -0.249182 0
25.770000 -0.261327 2
25.775000 -0.206549 0
25.780000 -0.059529 0
25.785000 0.190066 0
25.790000 0.521284 0
25.795000 0.865905 0
25.800000 1.116994 0
25.805000 1.176854 3
25.810000 1.016241 0
25.815000 0.694383 0
25.820000 0.321244 0
25.825000 -0.004736 0
25.830000 -0.228985 0
25.835000 -0.338232 0
25.840000 -0.347162 4
25.845000 -0.288245 0
25.850000 -0.200707 0
25.855000 -0.116598 0
25.860000 -0.051577 0
25.865000 -0.006106 0
25.870000 0.026712 0
25.875000 0.054026 0
25.880000 0.080315 0
25.885000 0.107540 0
25.890000 0.136208 0
25.895000 0.166171 0
25.900000 0.197007 0
25.905000 0.228156 0
25.910000 0.258971 0
25.915000 0.288746 0
25.920000 0.316738 0
25.925000 0.342204 0
25.930000 0.364426 0
25.935000 0.382748 0
25.940000 0.396605 0
25.945000 0.405553 0
25.950000 0.409292 5
25.955000 0.407679 0
25.960000 0.400741 0
25.965000 0.388667 0
25.970000 0.371807 0
25.975000 0.350649 0
25.980000 0.325796 0
25.985000 0.297937 0
25.990000 0.267817 0
25.995000 0.236201 0
26.000000 0.203843 0
26.005000 0.171456 0
26.010000 0.139689 0
26.015000 0.109106 0
26.020000 0.080174 0
26.025000 0.053257 0
26.030000 0.028611 0
26.035000 0.006394 0
26.040000 -0.013329 0
26.045000 -0.030577 0
26.050000 -0.045431 0
26.055000 -0.058030 0
26.060000 -0.068547 0
26.065000 -0.077181 0
26.070000 -0.084143 0
26.075000 -0.089647 0
26.080000 -0.093900 0
26.085000 -0.097096 0
26.090000 -0.099413 0
26.095000 -0.101010 0
26.100000 -0.102027 0
26.105000 -0.101411 0
26.110000 -0.100524 0
26.115000 -0.099640 0
26.120000 -0.098762 0
26.125000 -0.097887 0
26.130000 -0.097016 0
26.135000 -0.096150 0
26.140000 -0.095287 0
26.145000 -0.094425 0
26.150000 -0.093564 0
26.155000 -0.092698 0
26.160000 -0.091821 0
26.165000 -0.090918 0
26.170000 -0.089968 0
26.175000 -0.088933 0
26.180000 -0.087753 0
26.185000 -0.086340 0
26.190000 -0.084558 0
26.195000 -0.082220 0
26.200000 -0.079069 0
26.205000 -0.074772 0
26.210000 -0.068922 0
26.215000 -0.061047 0
26.220000 -0.050637 0
26.225000 -0.037200 0
26.230000 -0.020324 0
26.235000 0.000236 0
26.240000 0.024465 0
26.245000 0.052007 0
26.250000 0.082104 0
26.255000 0.113588 0
26.260000 0.144919 0
26.265000 0.174292 0
26.270000 0.199800 0
26.275000 0.219637 0
26.280000 0.232304 0
26.285000 0.236798 1
26.290000 0.232742 0
26.295000 0.220437 0
26.300000 0.200825 0
26.305000 0.175369 0
26.310000 0.145869 0
26.315000 0.114240 0
26.320000 0.082257 0
26.325000 0.051214 0
26.330000 0.021410 0
26.335000 -0.008583 0
26.340000 -0.042409 0
26.345000 -0.084964 0
26.350000 -0.138652 0
26.355000 -0.197601 0
26.360000 -0.243825 0
26.365000 -0.249388 2
26.370000 -0.183764 0
26.375000 -0.022537 0
26.380000 0.241477 0
26.385000 0.580538 0
26.390000 0.917492 0
26.395000 1.140930 0
26.400000 1.159971 3
26.405000 0.963270 0
26.410000 0.625011 0
26.415000 0.253443 0
26.420000 -0.061546 0
26.425000 -0.273054 0
26.430000 -0.371924 0
26.435000 -0.374323 4
26.440000 -0.312535 0
26.445000 -0.224437 0
26.450000 -0.140481 0
26.455000 -0.075410 0
26.460000 -0.029593 0
26.465000 0.003610 0
26.470000 0.031170 0
26.475000 0.057546 0
26.480000 0.084758 0
26.485000 0.113376 0
26.490000 0.143298 0
26.495000 0.174138 0
26.500000 0.205370 0
26.505000 0.236380 0
26.510000 0.266496 0
26.515000 0.295007 0
26.520000 0.321192 0
26.525000 0.344352 0
26.530000 0.363834 0
26.535000 0.379070 0
26.540000 0.389595 0
26.545000 0.395077 0
26.550000 0.395330 5
26.555000 0.390323 0
26.560000 0.380186 0
26.565000 0.365201 0
26.570000 0.345790 0
26.575000 0.322494 0
26.580000 0.295945 0
26.585000 0.266844 0
26.590000 0.235923 0
26.595000 0.203919 0
26.600000 0.171543 0
26.605000 0.139455 0
26.610000 0.108245 0
26.615000 0.078416 0
26.620000 0.050376 0
26.625000 0.024432 0
26.630000 0.000792 0
26.635000 -0.020426 0
26.640000 -0.039192 0
26.645000 -0.055545 0
26.650000 -0.069584 0
26.655000 -0.081456 0
26.660000 -0.091335 0
26.665000 -0.099418 0
26.670000 -0.105912 0
26.675000 -0.111021 0
26.680000 -0.114942 0
26.685000 -0.117861 0
26.690000 -0.119946 0
26.695000 -0.121347 0
26.700000 -0.122196 0
26.705000 -0.121471 0
26.710000 -0.120483 0
26.715000 -0.119500 0
26.720000 -0.118522 0
26.725000 -0.117549 0
26.730000 -0.116581 0
26.735000 -0.115616 0
26.740000 -0.114656 0
26.745000 -0.113698 0
26.750000 -0.112741 0
26.755000 -0.111780 0
26.760000 -0.110809 0
26.765000 -0.109816 0
26.770000 -0.108779 0
26.775000 -0.107665 0
26.780000 -0.106421 0
26.785000 -0.104964 0
26.790000 -0.103173 0
26.795000 -0.100878 0
26.800000 -0.097846 0
26.805000 -0.093773 0
26.810000 -0.088282 0
26.815000 -0.080933 0
26.820000 -0.071241 0
26.825000 -0.058718 0
26.830000 -0.042936 0
26.835000 -0.023594 0
26.840000 -0.000611 0
26.845000 0.025801 0
26.850000 0.055062 0
26.855000 0.086204 0
26.860000 0.117882 0
26.865000 0.148449 0
26.870000 0.176088 0
26.875000 0.198985 0
26.880000 0.215523 0
26.885000 0.224469 0
26.890000 0.225133 1
26.895000 0.217446 0
26.900000 0.201981 0
26.905000 0.179877 0
26.910000 0.152700 0
26.915000 0.122258 0
26.920000 0.090381 0
26.925000 0.058666 0
26.930000 0.028113 0
26.935000 -0.001428 0
26.940000 -0.031948 0
26.945000 -0.067495 0
26.950000 -0.112653 0
26.955000 -0.168360 0
26.960000 -0.226505 0
26.965000 -0.267359 2
26.970000 -0.262842 0
26.975000 -0.183879 0
26.980000 -0.008581 0
26.985000 0.266631 0
26.990000 0.609903 0
26.995000 0.942112 0
27.000000 1.154767 0
27.005000 1.163381 3
27.010000 0.959426 0
27.015000 0.616732 0
27.020000 0.246583 0
27.025000 -0.061322 0
27.030000 -0.262307 0
27.035000 -0.349847 4
27.040000 -0.342711 0
27.045000 -0.275381 0
27.050000 -0.186463 0
27.055000 -0.105137 0
27.060000 -0.043834 0
27.065000 -0.001093 0
27.070000 0.030371 0
27.075000 0.057295 0
27.080000 0.083655 0
27.085000 0.111095 0
27.090000 0.139979 0
27.095000 0.170101 0
27.100000 0.201020 0
27.105000 0.232164 0
27.110000 0.262885 0
27.115000 0.292474 0
27.120000 0.320195 0
27.125000 0.345312 0
27.130000 0.367119 0
27.135000 0.384974 0
27.140000 0.398330 0
27.145000 0.406761 0
27.150000 0.409984 5
27.155000 0.407874 0
27.160000 0.400472 0
27.165000 0.387982 0
27.170000 0.370761 0
27.175000 0.349303 0
27.180000 0.324214 0
27.185000 0.296183 0
27.190000 0.265949 0
27.195000 0.234271 0
27.200000 0.201895 0
27.205000 0.169525 0
27.210000 0.137801 0
27.215000 0.107277 0
27.220000 0.078414 0
27.225000 0.051567 0
27.230000 0.026989 0
27.235000 0.004831 0
27.240000 -0.014843 0
27.245000 -0.032053 0
27.250000 -0.046881 0
27.255000 -0.059463 0
27.260000 -0.069973 0
27.265000 -0.078608 0
27.270000 -0.085577 0
27.275000 -0.091092 0
27.280000 -0.095358 0
27.285000 -0.098568 0
27.290000 -0.100898 0
27.295000 -0.102508 0
27.300000 -0.103535 0
27.305000 -0.102915 0
27.310000 -0.102020 0
27.315000 -0.101129 0
27.320000 -0.100243 0
27.325000 -0.099361 0
27.330000 -0.098483 0
27.335000 -0.097609 0
27.340000 -0.096739 0
27.345000 -0.095871 0
27.350000 -0.095002 0
27.355000 -0.094131 0
27.360000 -0.093248 0
27.365000 -0.092342 0
27.370000 -0.091391 0
27.375000 -0.090360 0
27.380000 -0.089193 0
27.385000 -0.087804 0
27.390000 -0.086067 0
27.395000 -0.083801 0
27.400000 -0.080761 0
27.405000 -0.076626 0
27.410000 -0.071001 0
27.415000 -0.063426 0
27.420000 -0.053400 0
27.425000 -0.040427 0
27.430000 -0.024082 0
27.435000 -0.004092 0
27.440000 0.019573 0
27.445000 0.046618 0
27.450000 0.076362 0
27.455000 0.107710 0
27.460000 0.139195 0
27.465000 0.169064 0
27.470000 0.195431 0
27.475000 0.216470 0
27.480000 0.230623 0
27.485000 0.236788 1
27.490000 0.234461 0
27.495000 0.223806 0
27.500000 0.205632 0
27.505000 0.181293 0
27.510000 0.152519 0
27.515000 0.121205 0
27.520000 0.089166 0
27.525000 0.057832 0
27.530000 0.027788 0
27.535000 -0.001904 0
27.540000 -0.034332 0
27.545000 -0.074272 0
27.550000 -0.125239 0
27.555000 -0.184042 0
27.560000 -0.236042 0
27.565000 -0.255579 2
27.570000 -0.212239 0
27.575000 -0.079261 0
27.580000 0.156702 0
27.585000 0.479936 0
27.590000 0.828245 0
27.595000 1.096895 0
27.600000 1.182769 3
27.605000 1.047654 0
27.610000 0.742707 0
27.615000 0.370225 0
27.620000 0.029532 0
27.625000 -0.218687 0
27.630000 -0.354495 0
27.635000 -0.386665 4
27.640000 -0.342721 0
27.645000 -0.259696 0
27.650000 -0.171675 0
27.655000 -0.099122 0
27.660000 -0.046839 0
27.665000 -0.009855 0
27.670000 0.019155 0
27.675000 0.045639 0
27.680000 0.072412 0
27.685000 0.100476 0
27.690000 0.129924 0
27.695000 0.160459 0
27.700000 0.191607 0
27.705000 0.222792 0
27.710000 0.253369 0
27.715000 0.282647 0
27.720000 0.309913 0
27.725000 0.334462 0
27.730000 0.355625 0
27.735000 0.372799 0
27.740000 0.385476 0
27.745000 0.393266 0
27.750000 0.395918 5
27.755000 0.393331 0
27.760000 0.385561 0
27.765000 0.372818 0
27.770000 0.355457 0
27.775000 0.333958 0
27.780000 0.308910 0
27.785000 0.280976 0
27.790000 0.250869 0
27.795000 0.219321 0
27.800000 0.187051 0
27.805000 0.154742 0
27.810000 0.123016 0
27.815000 0.092415 0
27.820000 0.063395 0
27.825000 0.036311 0
27.830000 0.011422 0
27.835000 -0.011109 0
27.840000 -0.031207 0
27.845000 -0.048874 0
27.850000 -0.064177 0
27.855000 -0.077238 0
27.860000 -0.088213 0
27.865000 -0.097289 0
27.870000 -0.104664 0
27.875000 -0.110544 0
27.880000 -0.115128 0
27.885000 -0.118608 0
27.890000 -0.121161 0
27.895000 -0.122945 0
27.900000 -0.124104 0
27.905000 -0.124517 0
27.910000 -0.123514 0
27.915000 -0.122516 0
27.920000 -0.121523 0
27.925000 -0.120535 0
27.930000 -0.119552 0
27.935000 -0.118573 0
27.940000 -0.117599 0
27.945000 -0.116628 0
27.950000 -0.115659 0
27.955000 -0.114690 0
27.960000 -0.113715 0
27.965000 -0.112728 0
27.970000 -0.111712 0
27.975000 -0.110644 0
27.980000 -0.109486 0
27.985000 -0.108175 0
27.990000 -0.106622 0
27.995000 -0.104692 0
28.000000 -0.102200 0
28.005000 -0.098894 0
28.010000 -0.094454 0
28.015000 -0.088488 0
28.020000 -0.080545 0
28.025000 -0.070138 0
28.030000 -0.056796 0
28.035000 -0.040118 0
28.040000 -0.019855 0
28.045000 0.004010 0
28.050000 0.031179 0
28.055000 0.060991 0
28.060000 0.092394 0
28.065000 0.123979 0
28.070000 0.154066 0
28.075000 0.180841 0
28.080000 0.202532 0
28.085000 0.217603 0
28.090000 0.224936 1
28.095000 0.223962 0
28.100000 0.214742 0
28.105000 0.197954 0
28.110000 0.174818 0
28.115000 0.146941 0
28.120000 0.116133 0
28.125000 0.084189 0
28.130000 0.052618 0
28.135000 0.022275 0
28.140000 -0.007225 0
28.145000 -0.038168 0
28.150000 -0.074791 0
28.155000 -0.121440 0
28.160000 -0.178150 0
28.165000 -0.235449 0
28.170000 -0.272485 2
28.175000 -0.260922 0
28.180000 -0.172361 0
28.185000 0.013551 0
28.190000 0.297612 0
28.195000 0.643938 0
28.200000 0.970099 0
28.205000 1.168248 3
28.210000 1.158009 0
28.215000 0.937020 0
28.220000 0.587071 0
28.225000 0.219542 0
28.230000 -0.079646 0
28.235000 -0.269895 0
28.240000 -0.347521 4
28.245000 -0.333157 0
28.250000 -0.262242 0
28.255000 -0.173059 0
28.260000 -0.093379 0
28.265000 -0.034068 0
28.270000 0.007245 0
28.275000 0.038003 0
28.280000 0.064723 0
28.285000 0.091117 0
28.290000 0.118668 0
28.295000 0.147660 0
28.300000 0.177856 0
28.305000 0.208798 0
28.310000 0.239907 0
28.315000 0.270527 0
28.320000 0.299944 0
28.325000 0.327422 0
28.330000 0.352225 0
28.335000 0.373652 0
28.340000 0.391069 0
28.345000 0.403939 0
28.350000 0.411848 0
28.355000 0.414529 5
28.360000 0.411874 0
28.365000 0.403937 0
28.370000 0.390940 0
28.375000 0.373255 0
28.380000 0.351388 0
28.385000 0.325954 0
28.390000 0.297648 0
