0.000000 1.137489 3
0.005000 1.055545 0
0.010000 0.846125 0
0.015000 0.561160 0
0.020000 0.261735 0
0.025000 -0.002477 0
0.030000 -0.202199 0
0.035000 -0.326996 0
0.040000 -0.380114 4
0.045000 -0.374403 0
0.050000 -0.329079 0
0.055000 -0.265417 0
0.060000 -0.201543 0
0.065000 -0.148609 0
0.070000 -0.110165 0
0.075000 -0.084346 0
0.080000 -0.067021 0
0.085000 -0.054172 0
0.090000 -0.042943 0
0.095000 -0.031674 0
0.100000 -0.019535 0
0.105000 -0.006151 0
0.110000 0.008637 0
0.115000 0.024891 0
0.120000 0.042621 0
0.125000 0.061794 0
0.130000 0.082339 0
0.135000 0.104142 0
0.140000 0.127047 0
0.145000 0.150852 0
0.150000 0.175312 0
0.155000 0.200142 0
0.160000 0.225017 0
0.165000 0.249582 0
0.170000 0.273458 0
0.175000 0.296253 0
0.180000 0.317569 0
0.185000 0.337015 0
0.190000 0.354219 0
0.195000 0.368838 0
0.200000 0.380573 0
0.205000 0.389174 0
0.210000 0.394451 0
0.215000 0.396283 5
0.220000 0.394616 0
0.225000 0.389474 0
0.230000 0.380950 0
0.235000 0.369208 0
0.240000 0.354476 0
0.245000 0.337039 0
0.250000 0.317229 0
0.255000 0.295414 0
0.260000 0.271989 0
0.265000 0.247360 0
0.270000 0.221937 0
0.275000 0.196119 0
0.280000 0.170285 0
0.285000 0.144788 0
0.290000 0.119943 0
0.295000 0.096025 0
0.300000 0.073266 0
0.305000 0.051849 0
0.310000 0.031915 0
0.315000 0.013556 0
0.320000 -0.003173 0
0.325000 -0.018260 0
0.330000 -0.031723 0
0.335000 -0.043609 0
0.340000 -0.053990 0
0.345000 -0.062953 0
0.350000 -0.070602 0
0.355000 -0.077045 0
0.360000 -0.082398 0
0.365000 -0.086775 0
0.370000 -0.090289 0
0.375000 -0.093047 0
0.380000 -0.095151 0
0.385000 -0.096694 0
0.390000 -0.097761 0
0.395000 -0.098428 0
0.400000 -0.098762 0
0.405000 -0.098823 0
0.410000 -0.098660 0
0.415000 -0.098316 0
0.420000 -0.097828 0
0.425000 -0.097226 0
0.430000 -0.096535 0
0.435000 -0.095742 0
0.440000 -0.094756 0
0.445000 -0.093776 0
0.450000 -0.092800 0
0.455000 -0.091830 0
0.460000 -0.090864 0
0.465000 -0.089903 0
0.470000 -0.088946 0
0.475000 -0.087995 0
0.480000 -0.087048 0
0.485000 -0.086106 0
0.490000 -0.085169 0
0.495000 -0.084236 0
0.500000 -0.083308 0
0.505000 -0.082385 0
0.510000 -0.081466 0
0.515000 -0.080552 0
0.520000 -0.079642 0
0.525000 -0.078736 0
0.530000 -0.077835 0
0.535000 -0.076938 0
0.540000 -0.076045 0
0.545000 -0.075155 0
0.550000 -0.074267 0
0.555000 -0.073379 0
0.560000 -0.072488 0
0.565000 -0.071589 0
0.570000 -0.070676 0
0.575000 -0.069735 0
0.580000 -0.068750 0
0.585000 -0.067695 0
0.590000 -0.066532 0
0.595000 -0.065208 0
0.600000 -0.063652 0
0.605000 -0.061769 0
0.610000 -0.059433 0
0.615000 -0.056489 0
0.620000 -0.052749 0
0.625000 -0.047989 0
0.630000 -0.041959 0
0.635000 -0.034393 0
0.640000 -0.025019 0
0.645000 -0.013587 0
0.650000 0.000107 0
0.655000 0.016190 0
0.660000 0.034676 0
0.665000 0.055439 0
0.670000 0.078188 0
0.675000 0.102450 0
0.680000 0.127573 0
0.685000 0.152746 0
0.690000 0.177030 0
0.695000 0.199418 0
0.700000 0.218899 0
0.705000 0.234532 0
0.710000 0.245524 0
0.715000 0.251294 0
0.720000 0.251525 1
0.725000 0.246193 0
0.730000 0.235569 0
0.735000 0.220197 0
0.740000 0.200848 0
0.745000 0.178454 0
0.750000 0.154036 0
0.755000 0.128630 0
0.760000 0.103206 0
0.765000 0.078616 0
0.770000 0.055532 0
0.775000 0.034382 0
0.780000 0.015253 0
0.785000 -0.002285 0
0.790000 -0.019412 0
0.795000 -0.038241 0
0.800000 -0.061630 0
0.805000 -0.092252 0
0.810000 -0.130771 0
0.815000 -0.173680 0
0.820000 -0.211988 0
0.825000 -0.231782 2
0.830000 -0.216627 0
0.835000 -0.150644 0
0.840000 -0.021621 0
0.845000 0.174818 0
0.850000 0.428745 0
0.855000 0.709201 0
0.860000 0.963866 0
0.865000 1.131364 0
0.870000 1.164250 3
0.875000 1.048384 0
0.880000 0.813326 0
0.885000 0.518148 0
0.890000 0.224940 0
0.895000 -0.020561 0
0.900000 -0.194704 0
0.905000 -0.292159 0
0.910000 -0.320432 4
0.915000 -0.295986 0
0.920000 -0.240403 0
0.925000 -0.175086 0
0.930000 -0.115913 0
0.935000 -0.070566 0
0.940000 -0.039511 0
0.945000 -0.019177 0
0.950000 -0.005108 0
0.955000 0.006251 0
0.960000 0.017106 0
0.965000 0.028608 0
0.970000 0.041285 0
0.975000 0.055361 0
0.980000 0.070927 0
0.985000 0.088005 0
0.990000 0.106574 0
0.995000 0.126570 0
1.000000 0.147885 0
1.005000 0.170363 0
1.010000 0.193804 0
1.015000 0.217959 0
1.020000 0.242534 0
1.025000 0.267196 0
1.030000 0.291575 0
1.035000 0.315279 0
1.040000 0.337895 0
1.045000 0.359010 0
1.050000 0.378213 0
1.055000 0.395117 0
1.060000 0.409366 0
1.065000 0.420648 0
1.070000 0.428707 0
1.075000 0.433353 0
1.080000 0.434465 5
1.085000 0.432002 0
1.090000 0.425998 0
1.095000 0.416567 0
1.100000 0.403894 0
1.105000 0.388232 0
1.110000 0.369892 0
1.115000 0.349234 0
1.120000 0.326651 0
1.125000 0.302560 0
1.130000 0.277390 0
1.135000 0.251565 0
1.140000 0.225495 0
1.145000 0.199566 0
1.150000 0.174129 0
1.155000 0.149495 0
1.160000 0.125930 0
1.165000 0.103652 0
1.170000 0.082828 0
1.175000 0.063577 0
1.180000 0.045972 0
1.185000 0.030045 0
1.190000 0.015788 0
1.195000 0.003161 0
1.200000 -0.007900 0
1.205000 -0.017484 0
1.210000 -0.025693 0
1.215000 -0.032640 0
1.220000 -0.038444 0
1.225000 -0.043225 0
1.230000 -0.047101 0
1.235000 -0.050186 0
1.240000 -0.052586 0
1.245000 -0.054400 0
1.250000 -0.055718 0
1.255000 -0.056620 0
1.260000 -0.057178 0
1.265000 -0.057452 0
1.270000 -0.057496 0
1.275000 -0.057355 0
1.280000 -0.057066 0
1.285000 -0.056661 0
1.290000 -0.056165 0
1.295000 -0.055567 0
1.300000 -0.054782 0
1.305000 -0.054001 0
1.310000 -0.053224 0
1.315000 -0.052451 0
1.320000 -0.051681 0
1.325000 -0.050916 0
1.330000 -0.050154 0
1.335000 -0.049396 0
1.340000 -0.048641 0
1.345000 -0.047891 0
1.350000 -0.047144 0
1.355000 -0.046401 0
1.360000 -0.045662 0
1.365000 -0.044926 0
1.370000 -0.044194 0
1.375000 -0.043466 0
1.380000 -0.042741 0
1.385000 -0.042020 0
1.390000 -0.041302 0
1.395000 -0.040586 0
1.400000 -0.039874 0
1.405000 -0.039163 0
1.410000 -0.038452 0
1.415000 -0.037738 0
1.420000 -0.037018 0
1.425000 -0.036283 0
1.430000 -0.035525 0
1.435000 -0.034726 0
1.440000 -0.033862 0
1.445000 -0.032897 0
1.450000 -0.031780 0
1.455000 -0.030440 0
1.460000 -0.028783 0
1.465000 -0.026682 0
1.470000 -0.023981 0
1.475000 -0.020485 0
1.480000 -0.015965 0
1.485000 -0.010161 0
1.490000 -0.002795 0
1.495000 0.006417 0
1.500000 0.017737 0
1.505000 0.031377 0
1.510000 0.047464 0
1.515000 0.066006 0
1.520000 0.086857 0
1.525000 0.109691 0
1.530000 0.133992 0
1.535000 0.159050 0
1.540000 0.183990 0
1.545000 0.207814 0
1.550000 0.229462 0
1.555000 0.247887 0
1.560000 0.262140 0
1.565000 0.271449 0
1.570000 0.275288 1
1.575000 0.273423 0
1.580000 0.265939 0
1.585000 0.253231 0
1.590000 0.235966 0
1.595000 0.215029 0
1.600000 0.191446 0
1.605000 0.166299 0
1.610000 0.140644 0
1.615000 0.115442 0
1.620000 0.091488 0
1.625000 0.069354 0
1.630000 0.049297 0
1.635000 0.031112 0
1.640000 0.013892 0
1.645000 -0.004217 0
1.650000 -0.026001 0
1.655000 -0.054467 0
1.660000 -0.091143 0
1.665000 -0.133721 0
1.670000 -0.174246 0
1.675000 -0.199178 2
1.680000 -0.191635 0
1.685000 -0.134696 0
1.690000 -0.014778 0
1.695000 0.174107 0
1.700000 0.423620 0
1.705000 0.703561 0
1.710000 0.960595 0
1.715000 1.130683 0
1.720000 1.163729 3
1.725000 1.046889 0
1.730000 0.810944 0
1.735000 0.515434 0
1.740000 0.222670 0
1.745000 -0.021689 0
1.750000 -0.194242 0
1.755000 -0.289945 0
1.760000 -0.316596 4
1.765000 -0.290939 0
1.770000 -0.234751 0
1.775000 -0.169446 0
1.780000 -0.110725 0
1.785000 -0.066003 0
1.790000 -0.035516 0
1.795000 -0.015581 0
1.800000 -0.001728 0
1.805000 0.009548 0
1.810000 0.020403 0
1.815000 0.031949 0
1.820000 0.044692 0
1.825000 0.058848 0
1.830000 0.074500 0
1.835000 0.091669 0
1.840000 0.110331 0
1.845000 0.130417 0
1.850000 0.151816 0
1.855000 0.174369 0
1.860000 0.197868 0
1.865000 0.222060 0
1.870000 0.246647 0
1.875000 0.271289 0
1.880000 0.295614 0
1.885000 0.319221 0
1.890000 0.341699 0
1.895000 0.362629 0
1.900000 0.381602 0
1.905000 0.398229 0
1.910000 0.412158 0
1.915000 0.423080 0
1.920000 0.430744 0
1.925000 0.434968 0
1.930000 0.435640 5
1.935000 0.432726 0
1.940000 0.426272 0
1.945000 0.416401 0
1.950000 0.403308 0
1.955000 0.387257 0
1.960000 0.368567 0
1.965000 0.347605 0
1.970000 0.324772 0
1.975000 0.300488 0
1.980000 0.275185 0
1.985000 0.249289 0
1.990000 0.223207 0
1.995000 0.197324 0
2.000000 0.171987 0
2.005000 0.147502 0
2.010000 0.124127 0
2.015000 0.102074 0
2.020000 0.081503 0
2.025000 0.062525 0
2.030000 0.045206 0
2.035000 0.029570 0
2.040000 0.015604 0
2.045000 0.003263 0
2.050000 -0.007523 0
2.055000 -0.016847 0
2.060000 -0.024814 0
2.065000 -0.031538 0
2.070000 -0.037140 0
2.075000 -0.041739 0
2.080000 -0.045455 0
2.085000 -0.048400 0
2.090000 -0.050680 0
2.095000 -0.052393 0
2.100000 -0.053626 0
2.105000 -0.054459 0
2.110000 -0.054960 0
2.115000 -0.055189 0
2.120000 -0.055199 0
2.125000 -0.055032 0
2.130000 -0.054725 0
2.135000 -0.054307 0
2.140000 -0.053804 0
2.145000 -0.053206 0
2.150000 -0.052432 0
2.155000 -0.051663 0
2.160000 -0.050897 0
2.165000 -0.050136 0
2.170000 -0.049378 0
2.175000 -0.048624 0
2.180000 -0.047873 0
2.185000 -0.047127 0
2.190000 -0.046384 0
2.195000 -0.045644 0
2.200000 -0.044909 0
2.205000 -0.044177 0
2.210000 -0.043449 0
2.215000 -0.042724 0
2.220000 -0.042003 0
2.225000 -0.041286 0
2.230000 -0.040572 0
2.235000 -0.039861 0
2.240000 -0.039154 0
2.245000 -0.038449 0
2.250000 -0.037746 0
2.255000 -0.037045 0
2.260000 -0.036343 0
2.265000 -0.035637 0
2.270000 -0.034923 0
2.275000 -0.034192 0
2.280000 -0.033432 0
2.285000 -0.032624 0
2.290000 -0.031741 0
2.295000 -0.030742 0
2.300000 -0.029570 0
2.305000 -0.028146 0
2.310000 -0.026364 0
2.315000 -0.024090 0
2.320000 -0.021151 0
2.325000 -0.017340 0
2.330000 -0.012416 0
2.335000 -0.006109 0
2.340000 0.001866 0
2.345000 0.011787 0
2.350000 0.023906 0
2.355000 0.038408 0
2.360000 0.055383 0
2.365000 0.074786 0
2.370000 0.096407 0
2.375000 0.119849 0
2.380000 0.144519 0
2.385000 0.169637 0
2.390000 0.194271 0
2.395000 0.217385 0
2.400000 0.237909 0
2.405000 0.254819 0
2.410000 0.267219 0
2.415000 0.274422 0
2.420000 0.276010 1
2.425000 0.271875 0
2.430000 0.262227 0
2.435000 0.247579 0
2.440000 0.228699 0
2.445000 0.206545 0
2.450000 0.182180 0
2.455000 0.156693 0
2.460000 0.131114 0
2.465000 0.106346 0
2.470000 0.083103 0
2.475000 0.061839 0
2.480000 0.042639 0
2.485000 0.025025 0
2.490000 0.007699 0
2.495000 -0.011643 0
2.500000 -0.036045 0
2.505000 -0.068141 0
2.510000 -0.108053 0
2.515000 -0.151062 0
2.520000 -0.186500 0
2.525000 -0.198855 2
2.530000 -0.170711 0
2.535000 -0.086158 0
2.540000 0.065608 0
2.545000 0.284930 0
2.550000 0.553958 0
2.555000 0.830863 0
2.560000 1.054456 0
2.565000 1.163569 3
2.570000 1.123477 0
2.575000 0.942934 0
2.580000 0.669910 0
2.585000 0.368700 0
2.590000 0.095320 0
2.595000 -0.115401 0
2.600000 -0.249760 0
2.605000 -0.309642 4
2.610000 -0.307756 0
2.615000 -0.264012 0
2.620000 -0.200834 0
2.625000 -0.137396 0
2.630000 -0.085352 0
2.635000 -0.048168 0
2.640000 -0.023637 0
2.645000 -0.007341 0
2.650000 0.004833 0
2.655000 0.015697 0
2.660000 0.026816 0
2.665000 0.038944 0
2.670000 0.052407 0
2.675000 0.067340 0
2.680000 0.083791 0
2.685000 0.101754 0
2.690000 0.121182 0
2.695000 0.141983 0
2.700000 0.164022 0
2.705000 0.187111 0
2.710000 0.211018 0
2.715000 0.235463 0
2.720000 0.260124 0
2.725000 0.284641 0
2.730000 0.308623 0
2.735000 0.331661 0
2.740000 0.353336 0
2.745000 0.373231 0
2.750000 0.390945 0
2.755000 0.406107 0
2.760000 0.418385 0
2.765000 0.427501 0
2.770000 0.433241 0
2.775000 0.435461 5
2.780000 0.434092 0
2.785000 0.429147 0
2.790000 0.420715 0
2.795000 0.408962 0
2.800000 0.394126 0
2.805000 0.376504 0
2.810000 0.356446 0
2.815000 0.334341 0
2.820000 0.310606 0
2.825000 0.285671 0
2.830000 0.259967 0
2.835000 0.233912 0
2.840000 0.207904 0
2.845000 0.182307 0
2.850000 0.157444 0
2.855000 0.133597 0
2.860000 0.110996 0
2.865000 0.089822 0
2.870000 0.070205 0
2.875000 0.052231 0
2.880000 0.035938 0
2.885000 0.021328 0
2.890000 0.008367 0
2.895000 -0.003007 0
2.900000 -0.012878 0
2.905000 -0.021348 0
2.910000 -0.028529 0
2.915000 -0.034539 0
2.920000 -0.039500 0
2.925000 -0.043533 0
2.930000 -0.046752 0
2.935000 -0.049266 0
2.940000 -0.051177 0
2.945000 -0.052578 0
2.950000 -0.053549 0
2.955000 -0.054164 0
2.960000 -0.054487 0
2.965000 -0.054572 0
2.970000 -0.054466 0
2.975000 -0.054207 0
2.980000 -0.053828 0
2.985000 -0.053355 0
2.990000 -0.052777 0
2.995000 -0.052006 0
3.000000 -0.051238 0
3.005000 -0.050475 0
3.010000 -0.049715 0
3.015000 -0.048960 0
3.020000 -0.048208 0
3.025000 -0.047459 0
3.030000 -0.046715 0
3.035000 -0.045974 0
3.040000 -0.045237 0
3.045000 -0.044503 0
3.050000 -0.043773 0
3.055000 -0.043047 0
3.060000 -0.042324 0
3.065000 -0.041605 0
3.070000 -0.040890 0
3.075000 -0.040178 0
3.080000 -0.039469 0
3.085000 -0.038764 0
3.090000 -0.038061 0
3.095000 -0.037361 0
3.100000 -0.036663 0
3.105000 -0.035964 0
3.110000 -0.035263 0
3.115000 -0.034554 0
3.120000 -0.033832 0
3.125000 -0.033085 0
3.130000 -0.032296 0
3.135000 -0.031441 0
3.140000 -0.030482 0
3.145000 -0.029367 0
3.150000 -0.028024 0
3.155000 -0.026355 0
3.160000 -0.024232 0
3.165000 -0.021493 0
3.170000 -0.017939 0
3.175000 -0.013337 0
3.180000 -0.007422 0
3.185000 0.000089 0
3.190000 0.009480 0
3.195000 0.021014 0
3.200000 0.034896 0
3.205000 0.051245 0
3.210000 0.070053 0
3.215000 0.091154 0
3.220000 0.114195 0
3.225000 0.138630 0
3.230000 0.163719 0
3.235000 0.188560 0
3.240000 0.212131 0
3.245000 0.233358 0
3.250000 0.251194 0
3.255000 0.264704 0
3.260000 0.273143 0
3.265000 0.276024 1
3.270000 0.273166 0
3.275000 0.264710 0
3.280000 0.251105 0
3.285000 0.233072 0
3.290000 0.211537 0
3.295000 0.187554 0
3.300000 0.162215 0
3.305000 0.136574 0
3.310000 0.111571 0
3.315000 0.087967 0
3.320000 0.066278 0
3.325000 0.046678 0
3.330000 0.028820 0
3.335000 0.011585 0
3.340000 -0.007142 0
3.345000 -0.030329 0
3.350000 -0.060841 0
3.355000 -0.099469 0
3.360000 -0.142534 0
3.365000 -0.180423 0
3.370000 -0.198272 2
3.375000 -0.178685 0
3.380000 -0.105164 0
3.385000 0.034366 0
3.390000 0.242611 0
3.395000 0.505389 0
3.400000 0.784895 0
3.405000 1.022005 0
3.410000 1.153452 3
3.415000 1.139373 0
3.420000 0.982519 0
3.425000 0.723436 0
3.430000 0.423057 0
3.435000 0.138802 0
3.440000 -0.090411 0
3.445000 -0.246517 0
3.450000 -0.327685 0
3.455000 -0.343423 4
3.460000 -0.311126 0
3.465000 -0.252208 0
3.470000 -0.186887 0
3.475000 -0.129387 0
3.480000 -0.085984 0
3.485000 -0.056380 0
3.490000 -0.036843 0
3.495000 -0.023069 0
3.500000 -0.011724 0
3.505000 -0.000760 0
3.510000 0.010886 0
3.515000 0.023706 0
3.520000 0.037908 0
3.525000 0.053580 0
3.530000 0.070741 0
3.535000 0.089372 0
3.540000 0.109410 0
3.545000 0.130752 0
3.550000 0.153248 0
3.555000 0.176706 0
3.560000 0.200887 0
3.565000 0.225508 0
3.570000 0.250249 0
3.575000 0.274755 0
3.580000 0.298645 0
3.585000 0.321521 0
3.590000 0.342980 0
3.595000 0.362622 0
3.600000 0.380065 0
3.605000 0.394956 0
3.610000 0.406981 0
3.615000 0.415880 0
3.620000 0.421450 0
3.625000 0.423560 5
3.630000 0.422146 0
3.635000 0.417222 0
3.640000 0.408877 0
3.645000 0.397271 0
3.650000 0.382629 0
3.655000 0.365238 0
3.660000 0.345430 0
3.665000 0.323579 0
3.670000 0.300083 0
3.675000 0.275358 0
3.680000 0.249817 0
3.685000 0.223867 0
3.690000 0.197895 0
3.695000 0.172258 0
3.700000 0.147278 0
3.705000 0.123234 0
3.710000 0.100361 0
3.715000 0.078845 0
3.720000 0.058827 0
3.725000 0.040400 0
3.730000 0.023617 0
3.735000 0.008489 0
3.740000 -0.005003 0
3.745000 -0.016910 0
3.750000 -0.027306 0
3.755000 -0.036281 0
3.760000 -0.043941 0
3.765000 -0.050398 0
3.770000 -0.055767 0
3.775000 -0.060166 0
3.780000 -0.063709 0
3.785000 -0.066504 0
3.790000 -0.068652 0
3.795000 -0.070249 0
3.800000 -0.071377 0
3.805000 -0.072115 0
3.810000 -0.072527 0
3.815000 -0.072672 0
3.820000 -0.072601 0
3.825000 -0.072354 0
3.830000 -0.071969 0
3.835000 -0.071473 0
3.840000 -0.070892 0
3.845000 -0.070214 0
3.850000 -0.069356 0
3.855000 -0.068502 0
3.860000 -0.067653 0
3.865000 -0.066808 0
3.870000 -0.065966 0
3.875000 -0.065130 0
3.880000 -0.064297 0
3.885000 -0.063468 0
3.890000 -0.062644 0
3.895000 -0.061823 0
3.900000 -0.061007 0
3.905000 -0.060195 0
3.910000 -0.059387 0
3.915000 -0.058583 0
3.920000 -0.057783 0
3.925000 -0.056987 0
3.930000 -0.056194 0
3.935000 -0.055406 0
3.940000 -0.054621 0
3.945000 -0.053840 0
3.950000 -0.053061 0
3.955000 -0.052285 0
3.960000 -0.051509 0
3.965000 -0.050732 0
3.970000 -0.049949 0
3.975000 -0.049155 0
3.980000 -0.048341 0
3.985000 -0.047492 0
3.990000 -0.046586 0
3.995000 -0.045592 0
4.000000 -0.044465 0
4.005000 -0.043143 0
4.010000 -0.041541 0
4.015000 -0.039548 0
4.020000 -0.037021 0
4.025000 -0.033784 0
4.030000 -0.029626 0
4.035000 -0.024307 0
4.040000 -0.017559 0
4.045000 -0.009108 0
4.050000 0.001314 0
4.055000 0.013937 0
4.060000 0.028928 0
4.065000 0.046352 0
4.070000 0.066143 0
4.075000 0.088073 0
4.080000 0.111734 0
4.085000 0.136532 0
4.090000 0.161699 0
4.095000 0.186322 0
4.100000 0.209396 0
4.105000 0.229885 0
4.110000 0.246802 0
4.115000 0.259282 0
4.120000 0.266658 0
4.125000 0.268520 1
4.130000 0.264750 0
4.135000 0.255535 0
4.140000 0.241351 0
4.145000 0.222922 0
4.150000 0.201158 0
4.155000 0.177079 0
4.160000 0.151742 0
4.165000 0.126155 0
4.170000 0.101218 0
4.175000 0.077663 0
4.180000 0.055986 0
4.185000 0.036363 0
4.190000 0.018485 0
4.195000 0.001325 0
4.200000 -0.017079 0
4.205000 -0.039536 0
4.210000 -0.068902 0
4.215000 -0.106347 0
4.220000 -0.149114 0
4.225000 -0.188926 0
4.230000 -0.212254 2
4.235000 -0.202566 0
4.240000 -0.143481 0
4.245000 -0.021967 0
4.250000 0.167584 0
4.255000 0.416921 0
4.260000 0.696790 0
4.265000 0.955634 0
4.270000 1.131086 0
4.275000 1.173146 3
4.280000 1.067250 0
4.285000 0.840947 0
4.290000 0.549289 0
4.295000 0.252552 0
4.300000 -0.002750 0
4.305000 -0.190755 0
4.310000 -0.303621 0
4.315000 -0.346371 4
4.320000 -0.333087 0
4.325000 -0.283615 0
4.330000 -0.219037 0
4.335000 -0.156531 0
4.340000 -0.105989 0
4.345000 -0.069909 0
4.350000 -0.045876 0
4.355000 -0.029657 0
4.360000 -0.017385 0
4.365000 -0.006407 0
4.370000 0.004782 0
4.375000 0.016919 0
4.380000 0.030335 0
4.385000 0.045169 0
4.390000 0.061472 0
4.395000 0.079248 0
4.400000 0.098460 0
4.405000 0.119028 0
4.410000 0.140835 0
4.415000 0.163716 0
4.420000 0.187465 0
4.425000 0.211832 0
4.430000 0.236523 0
4.435000 0.261213 0
4.440000 0.285541 0
4.445000 0.309128 0
4.450000 0.331580 0
4.455000 0.352500 0
4.460000 0.371499 0
4.465000 0.388211 0
4.470000 0.402297 0
4.475000 0.413465 0
4.480000 0.421474 0
4.485000 0.426142 0
4.490000 0.427357 5
4.495000 0.425077 0
4.500000 0.419332 0
4.505000 0.410226 0
4.510000 0.397932 0
4.515000 0.382685 0
4.520000 0.364776 0
4.525000 0.344541 0
4.530000 0.322353 0
4.535000 0.298607 0
4.540000 0.273710 0
4.545000 0.248070 0
4.550000 0.222084 0
4.555000 0.196128 0
4.560000 0.170549 0
4.565000 0.145658 0
4.570000 0.121724 0
4.575000 0.098972 0
4.580000 0.077582 0
4.585000 0.057687 0
4.590000 0.039375 0
4.595000 0.022695 0
4.600000 0.007657 0
4.605000 -0.005761 0
4.610000 -0.017611 0
4.615000 -0.027965 0
4.620000 -0.036913 0
4.625000 -0.044558 0
4.630000 -0.051011 0
4.635000 -0.056386 0
4.640000 -0.060797 0
4.645000 -0.064357 0
4.650000 -0.067172 0
4.655000 -0.069343 0
4.660000 -0.070962 0
4.665000 -0.072114 0
4.670000 -0.072872 0
4.675000 -0.073304 0
4.680000 -0.073467 0
4.685000 -0.073410 0
4.690000 -0.073176 0
4.695000 -0.072801 0
4.700000 -0.072314 0
4.705000 -0.071739 0
4.710000 -0.071065 0
4.715000 -0.070202 0
4.720000 -0.069344 0
4.725000 -0.068491 0
4.730000 -0.067641 0
4.735000 -0.066796 0
4.740000 -0.065955 0
4.745000 -0.065118 0
4.750000 -0.064285 0
4.755000 -0.063457 0
4.760000 -0.062632 0
4.765000 -0.061812 0
4.770000 -0.060996 0
4.775000 -0.060184 0
4.780000 -0.059376 0
4.785000 -0.058572 0
4.790000 -0.057772 0
4.795000 -0.056976 0
4.800000 -0.056183 0
4.805000 -0.055395 0
4.810000 -0.054610 0
4.815000 -0.053828 0
4.820000 -0.053048 0
4.825000 -0.052270 0
4.830000 -0.051491 0
4.835000 -0.050709 0
4.840000 -0.049918 0
4.845000 -0.049110 0
4.850000 -0.048274 0
4.855000 -0.047392 0
4.860000 -0.046437 0
4.865000 -0.045370 0
4.870000 -0.044138 0
4.875000 -0.042668 0
4.880000 -0.040862 0
4.885000 -0.038594 0
4.890000 -0.035707 0
4.895000 -0.032010 0
4.900000 -0.027278 0
4.905000 -0.021260 0
4.910000 -0.013689 0
4.915000 -0.004296 0
4.920000 0.007169 0
4.925000 0.020905 0
4.930000 0.037032 0
4.935000 0.055557 0
4.940000 0.076347 0
4.945000 0.099098 0
4.950000 0.123329 0
4.955000 0.148381 0
4.960000 0.173433 0
4.965000 0.197545 0
4.970000 0.219709 0
4.975000 0.238916 0
4.980000 0.254234 0
4.985000 0.264880 0
4.990000 0.270286 1
4.995000 0.270151 0
5.000000 0.264463 0
5.005000 0.253509 0
5.010000 0.237842 0
5.015000 0.218241 0
5.020000 0.195643 0
5.025000 0.171070 0
5.030000 0.145553 0
5.035000 0.120058 0
5.040000 0.095430 0
5.045000 0.072329 0
5.050000 0.051172 0
5.055000 0.032029 0
5.060000 0.014447 0
5.065000 -0.002786 0
5.070000 -0.021814 0
5.075000 -0.045506 0
5.080000 -0.076493 0
5.085000 -0.115331 0
5.090000 -0.158348 0
5.095000 -0.196382 0
5.100000 -0.215419 2
5.105000 -0.199020 0
5.110000 -0.131396 0
5.115000 -0.000520 0
5.120000 0.197671 0
5.125000 0.452755 0
5.130000 0.733202 0
5.135000 0.986316 0
5.140000 1.150864 0
5.145000 1.180129 3
5.150000 1.062689 0
5.155000 0.828003 0
5.160000 0.533303 0
5.165000 0.238981 0
5.170000 -0.009874 0
5.175000 -0.189289 0
5.180000 -0.293085 0
5.185000 -0.327661 4
5.190000 -0.308252 0
5.195000 -0.255444 0
5.200000 -0.190336 0
5.205000 -0.129365 0
5.210000 -0.081295 0
5.215000 -0.047628 0
5.220000 -0.025393 0
5.225000 -0.010249 0
5.230000 0.001525 0
5.235000 0.012374 0
5.240000 0.023633 0
5.245000 0.035942 0
5.250000 0.049580 0
5.255000 0.064664 0
5.260000 0.081233 0
5.265000 0.099281 0
5.270000 0.118759 0
5.275000 0.139578 0
5.280000 0.161608 0
5.285000 0.184670 0
5.290000 0.208542 0
5.295000 0.232960 0
5.300000 0.257615 0
5.305000 0.282168 0
5.310000 0.306246 0
5.315000 0.329458 0
5.320000 0.351405 0
5.325000 0.371683 0
5.330000 0.389906 0
5.335000 0.405710 0
5.340000 0.418766 0
5.345000 0.428794 0
5.350000 0.435569 0
5.355000 0.438934 5
5.360000 0.438798 0
5.365000 0.435146 0
5.370000 0.428037 0
5.375000 0.417604 0
5.380000 0.404047 0
5.385000 0.387628 0
5.390000 0.368661 0
5.395000 0.347503 0
5.400000 0.324544 0
5.405000 0.300190 0
5.410000 0.274857 0
5.415000 0.248953 0
5.420000 0.222873 0
5.425000 0.196986 0
5.430000 0.171627 0
5.435000 0.147092 0
5.440000 0.123634 0
5.445000 0.101459 0
5.450000 0.080726 0
5.455000 0.061547 0
5.460000 0.043992 0
5.465000 0.028089 0
5.470000 0.013831 0
5.475000 0.001179 0
5.480000 -0.009929 0
5.485000 -0.019578 0
5.490000 -0.027867 0
5.495000 -0.034904 0
5.500000 -0.040805 0
5.505000 -0.045686 0
5.510000 -0.049661 0
5.515000 -0.052841 0
5.520000 -0.055332 0
5.525000 -0.057230 0
5.530000 -0.058624 0
5.535000 -0.059593 0
5.540000 -0.060208 0
5.545000 -0.060531 0
5.550000 -0.060615 0
5.555000 -0.060505 0
5.560000 -0.060240 0
5.565000 -0.059853 0
5.570000 -0.059369 0
5.575000 -0.058810 0
5.580000 -0.058044 0
5.585000 -0.057247 0
5.590000 -0.056453 0
5.595000 -0.055664 0
5.600000 -0.054878 0
5.605000 -0.054097 0
5.610000 -0.053319 0
5.615000 -0.052545 0
5.620000 -0.051775 0
5.625000 -0.051009 0
5.630000 -0.050247 0
5.635000 -0.049488 0
5.640000 -0.048734 0
5.645000 -0.047983 0
5.650000 -0.047235 0
5.655000 -0.046492 0
5.660000 -0.045752 0
5.665000 -0.045016 0
5.670000 -0.044283 0
5.675000 -0.043553 0
5.680000 -0.042827 0
5.685000 -0.042102 0
5.690000 -0.041379 0
5.695000 -0.040656 0
5.700000 -0.039929 0
5.705000 -0.039194 0
5.710000 -0.038444 0
5.715000 -0.037667 0
5.720000 -0.036846 0
5.725000 -0.035955 0
5.730000 -0.034958 0
5.735000 -0.033801 0
5.740000 -0.032414 0
5.745000 -0.030700 0
5.750000 -0.028536 0
5.755000 -0.025763 0
5.760000 -0.022193 0
5.765000 -0.017600 0
5.770000 -0.011731 0
5.775000 -0.004316 0
5.780000 0.004919 0
5.785000 0.016227 0
5.790000 0.029815 0
5.795000 0.045807 0
5.800000 0.064218 0
5.805000 0.084914 0
5.810000 0.107593 0
5.815000 0.131770 0
5.820000 0.156778 0
5.825000 0.181787 0
5.830000 0.205841 0
5.835000 0.227918 0
5.840000 0.246999 0
5.845000 0.262139 0
5.850000 0.272552 0
5.855000 0.277672 1
5.860000 0.277204 0
5.865000 0.271156 0
5.870000 0.259833 0
5.875000 0.243813 0
5.880000 0.223899 0
5.885000 0.201051 0
5.890000 0.176309 0
5.895000 0.150714 0
5.900000 0.125236 0
5.905000 0.100712 0
5.910000 0.077789 0
5.915000 0.056854 0
5.920000 0.037920 0
5.925000 0.020438 0
5.930000 0.003053 0
5.935000 -0.016545 0
5.940000 -0.041314 0
5.945000 -0.073723 0
5.950000 -0.113752 0
5.955000 -0.156747 0
5.960000 -0.192413 0
5.965000 -0.205855 2
5.970000 -0.180296 0
5.975000 -0.100244 0
5.980000 0.045219 0
5.985000 0.257651 0
5.990000 0.522172 0
5.995000 0.801482 0
6.000000 1.038458 0
6.005000 1.172317 3
6.010000 1.162814 0
6.015000 1.009119 0
6.020000 0.751392 0
6.025000 0.451069 0
6.030000 0.166392 0
6.035000 -0.063101 0
6.040000 -0.219083 0
6.045000 -0.299740 0
6.050000 -0.314768 4
6.055000 -0.281850 0
6.060000 -0.222671 0
6.065000 -0.157564 0
6.070000 -0.100671 0
6.075000 -0.058045 0
6.080000 -0.029168 0
6.085000 -0.010184 0
6.090000 0.003233 0
6.095000 0.014376 0
6.100000 0.025237 0
6.105000 0.036838 0
6.110000 0.049643 0
6.115000 0.063852 0
6.120000 0.079543 0
6.125000 0.096734 0
6.130000 0.115398 0
6.135000 0.135470 0
6.140000 0.156839 0
6.145000 0.179349 0
6.150000 0.202800 0
6.155000 0.226944 0
6.160000 0.251489 0
6.165000 0.276107 0
6.170000 0.300434 0
6.175000 0.324081 0
6.180000 0.346645 0
6.185000 0.367716 0
6.190000 0.386893 0
6.195000 0.403793 0
6.200000 0.418066 0
6.205000 0.429404 0
6.210000 0.437554 0
6.215000 0.442325 0
6.220000 0.443596 5
6.225000 0.441320 0
6.230000 0.435529 0
6.235000 0.426327 0
6.240000 0.413891 0
6.245000 0.398466 0
6.250000 0.380352 0
6.255000 0.359898 0
6.260000 0.337488 0
6.265000 0.313531 0
6.270000 0.288447 0
6.275000 0.262655 0
6.280000 0.236562 0
6.285000 0.210550 0
6.290000 0.184972 0
6.295000 0.160142 0
6.300000 0.136328 0
6.305000 0.113754 0
6.310000 0.092593 0
6.315000 0.072974 0
6.320000 0.054976 0
6.325000 0.038640 0
6.330000 0.023965 0
6.335000 0.010921 0
6.340000 -0.000552 0
6.345000 -0.010535 0
6.350000 -0.019126 0
6.355000 -0.026433 0
6.360000 -0.032573 0
6.365000 -0.037663 0
6.370000 -0.041821 0
6.375000 -0.045159 0
6.380000 -0.047786 0
6.385000 -0.049801 0
6.390000 -0.051296 0
6.395000 -0.052352 0
6.400000 -0.053043 0
6.405000 -0.053432 0
6.410000 -0.053575 0
6.415000 -0.053518 0
6.420000 -0.053301 0
6.425000 -0.052957 0
6.430000 -0.052514 0
6.435000 -0.051994 0
6.440000 -0.051263 0
6.445000 -0.050500 0
6.450000 -0.049740 0
6.455000 -0.048984 0
6.460000 -0.048232 0
6.465000 -0.047483 0
6.470000 -0.046738 0
6.475000 -0.045997 0
6.480000 -0.045260 0
6.485000 -0.044527 0
6.490000 -0.043797 0
6.495000 -0.043070 0
6.500000 -0.042348 0
6.505000 -0.041628 0
6.510000 -0.040913 0
6.515000 -0.040201 0
6.520000 -0.039492 0
6.525000 -0.038787 0
6.530000 -0.038086 0
6.535000 -0.037387 0
6.540000 -0.036691 0
6.545000 -0.035997 0
6.550000 -0.035304 0
6.555000 -0.034610 0
6.560000 -0.033912 0
6.565000 -0.033205 0
6.570000 -0.032481 0
6.575000 -0.031728 0
6.580000 -0.030927 0
6.585000 -0.030050 0
6.590000 -0.029057 0
6.595000 -0.027893 0
6.600000 -0.026479 0
6.605000 -0.024715 0
6.610000 -0.022466 0
6.615000 -0.019566 0
6.620000 -0.015815 0
6.625000 -0.010978 0
6.630000 -0.004791 0
6.635000 0.003022 0
6.640000 0.012736 0
6.645000 0.024600 0
6.650000 0.038805 0
6.655000 0.055451 0
6.660000 0.074513 0
6.665000 0.095809 0
6.670000 0.118979 0
6.675000 0.143472 0
6.680000 0.168558 0
6.685000 0.193346 0
6.690000 0.216839 0
6.695000 0.237990 0
6.700000 0.255780 0
6.705000 0.269298 0
6.710000 0.277818 0
6.715000 0.280861 1
6.720000 0.278239 0
6.725000 0.270076 0
6.730000 0.256795 0
6.735000 0.239080 0
6.740000 0.217821 0
6.745000 0.194034 0
6.750000 0.168785 0
6.755000 0.143111 0
6.760000 0.117945 0
6.765000 0.094058 0
6.770000 0.071999 0
6.775000 0.052004 0
6.780000 0.033849 0
6.785000 0.016619 0
6.790000 -0.001533 0
6.795000 -0.023357 0
6.800000 -0.051815 0
6.805000 -0.088418 0
6.810000 -0.130955 0
6.815000 -0.171709 0
6.820000 -0.197484 2
6.825000 -0.191729 0
6.830000 -0.137725 0
6.835000 -0.021849 0
6.840000 0.162406 0
6.845000 0.408058 0
6.850000 0.687210 0
6.855000 0.949029 0
6.860000 1.130538 0
6.865000 1.179829 3
6.870000 1.078777 0
6.875000 0.852471 0
6.880000 0.559688 0
6.885000 0.264583 0
6.890000 0.015460 0
6.895000 -0.162225 0
6.900000 -0.262281 0
6.905000 -0.292019 4
6.910000 -0.268122 0
6.915000 -0.212644 0
6.920000 -0.147470 0
6.925000 -0.088738 0
6.930000 -0.044094 0
6.935000 -0.013799 0
6.940000 0.005903 0
6.945000 0.019551 0
6.950000 0.030682 0
6.955000 0.041448 0
6.960000 0.052945 0
6.965000 0.065670 0
6.970000 0.079828 0
6.975000 0.095502 0
6.980000 0.112707 0
6.985000 0.131415 0
6.990000 0.151552 0
6.995000 0.172999 0
7.000000 0.195590 0
7.005000 0.219107 0
7.010000 0.243286 0
7.015000 0.267816 0
7.020000 0.292347 0
7.025000 0.316493 0
7.030000 0.339847 0
7.035000 0.361984 0
7.040000 0.382481 0
7.045000 0.400923 0
7.050000 0.416921 0
7.055000 0.430125 0
7.060000 0.440232 0
7.065000 0.447004 0
7.070000 0.450269 5
7.075000 0.449935 0
7.080000 0.445988 0
7.085000 0.438495 0
7.090000 0.427602 0
7.095000 0.413530 0
7.100000 0.396563 0
7.105000 0.377044 0
7.110000 0.355357 0
7.115000 0.331919 0
7.120000 0.307163 0
7.125000 0.281527 0
7.130000 0.255441 0
7.135000 0.229311 0
7.140000 0.203516 0
7.145000 0.178395 0
7.150000 0.154240 0
7.155000 0.131296 0
7.160000 0.109758 0
7.165000 0.089766 0
7.170000 0.071416 0
7.175000 0.054755 0
7.180000 0.039791 0
7.185000 0.026494 0
7.190000 0.014806 0
7.195000 0.004645 0
7.200000 -0.004089 0
7.205000 -0.011510 0
7.210000 -0.017737 0
7.215000 -0.022894 0
7.220000 -0.027101 0
7.225000 -0.030478 0
7.230000 -0.033134 0
7.235000 -0.035174 0
7.240000 -0.036691 0
7.245000 -0.037770 0
7.250000 -0.038485 0
7.255000 -0.038902 0
7.260000 -0.039076 0
7.265000 -0.039055 0
7.270000 -0.038878 0
7.275000 -0.038579 0
7.280000 -0.038184 0
7.285000 -0.037683 0
7.290000 -0.036987 0
7.295000 -0.036294 0
7.300000 -0.035606 0
7.305000 -0.034920 0
7.310000 -0.034238 0
7.315000 -0.033559 0
7.320000 -0.032884 0
7.325000 -0.032212 0
7.330000 -0.031544 0
7.335000 -0.030879 0
7.340000 -0.030217 0
7.345000 -0.029558 0
7.350000 -0.028903 0
7.355000 -0.028251 0
7.360000 -0.027602 0
7.365000 -0.026956 0
7.370000 -0.026314 0
7.375000 -0.025674 0
7.380000 -0.025038 0
7.385000 -0.024403 0
7.390000 -0.023771 0
7.395000 -0.023140 0
7.400000 -0.022508 0
7.405000 -0.021873 0
7.410000 -0.021229 0
7.415000 -0.020569 0
7.420000 -0.019882 0
7.425000 -0.019149 0
7.430000 -0.018342 0
7.435000 -0.017423 0
7.440000 -0.016334 0
7.445000 -0.014997 0
7.450000 -0.013307 0
7.455000 -0.011128 0
7.460000 -0.008288 0
7.465000 -0.004576 0
7.470000 0.000253 0
7.475000 0.006471 0
7.480000 0.014368 0
7.485000 0.024231 0
7.490000 0.036312 0
7.495000 0.050801 0
7.500000 0.067787 0
7.505000 0.087219 0
7.510000 0.108878 0
7.515000 0.132349 0
7.520000 0.157018 0
7.525000 0.182080 0
7.530000 0.206577 0
7.535000 0.229446 0
7.540000 0.249601 0
7.545000 0.266007 0
7.550000 0.277773 0
7.555000 0.284228 0
7.560000 0.284985 1
7.565000 0.279979 0
7.570000 0.269469 0
7.575000 0.254023 0
7.580000 0.234457 0
7.585000 0.211773 0
7.590000 0.187062 0
7.595000 0.161428 0
7.600000 0.135900 0
7.605000 0.111361 0
7.610000 0.088487 0
7.615000 0.067667 0
7.620000 0.048874 0
7.625000 0.031440 0
7.630000 0.013790 0
7.635000 -0.006674 0
7.640000 -0.033097 0
7.645000 -0.067683 0
7.650000 -0.109338 0
7.655000 -0.151468 0
7.660000 -0.181461 0
7.665000 -0.182541 2
7.670000 -0.137105 0
7.675000 -0.030255 0
7.680000 0.146088 0
7.685000 0.386656 0
7.690000 0.664721 0
7.695000 0.929027 0
7.700000 1.114301 0
7.705000 1.165784 3
7.710000 1.065836 0
7.715000 0.842168 0
7.720000 0.550968 0
7.725000 0.254380 0
7.730000 0.000253 0
7.735000 -0.185150 0
7.740000 -0.294276 0
7.745000 -0.332847 4
7.750000 -0.315878 0
7.755000 -0.264117 0
7.760000 -0.199112 0
7.765000 -0.137831 0
7.770000 -0.089429 0
7.775000 -0.055566 0
7.780000 -0.033260 0
7.785000 -0.018102 0
7.790000 -0.006314 0
7.795000 0.004574 0
7.800000 0.015901 0
7.805000 0.028300 0
7.810000 0.042048 0
7.815000 0.057259 0
7.820000 0.073969 0
7.825000 0.092168 0
7.830000 0.111804 0
7.835000 0.132785 0
7.840000 0.154972 0
7.845000 0.178179 0
7.850000 0.202176 0
7.855000 0.226688 0
7.860000 0.251399 0
7.865000 0.275955 0
7.870000 0.299976 0
7.875000 0.323062 0
7.880000 0.344804 0
7.885000 0.364795 0
7.890000 0.382645 0
7.895000 0.397988 0
7.900000 0.410500 0
7.905000 0.419906 0
7.910000 0.425991 0
7.915000 0.428609 5
7.920000 0.427685 0
7.925000 0.423223 0
7.930000 0.415301 0
7.935000 0.404071 0
7.940000 0.389754 0
7.945000 0.372633 0
7.950000 0.353040 0
7.955000 0.331350 0
7.960000 0.307964 0
7.965000 0.283301 0
7.970000 0.257782 0
7.975000 0.231819 0
7.980000 0.205806 0
7.985000 0.180108 0
7.990000 0.155052 0
7.995000 0.130924 0
8.000000 0.107963 0
8.005000 0.086362 0
8.010000 0.066264 0
8.015000 0.047766 0
8.020000 0.030920 0
8.025000 0.015741 0
8.030000 0.002208 0
8.035000 -0.009731 0
8.040000 -0.020148 0
8.045000 -0.029138 0
8.050000 -0.036806 0
8.055000 -0.043266 0
8.060000 -0.048635 0
8.065000 -0.053033 0
8.070000 -0.056573 0
8.075000 -0.059366 0
8.080000 -0.061514 0
8.085000 -0.063112 0
8.090000 -0.064245 0
8.095000 -0.064990 0
8.100000 -0.065412 0
8.105000 -0.065571 0
8.110000 -0.065515 0
8.115000 -0.065288 0
8.120000 -0.064923 0
8.125000 -0.064451 0
8.130000 -0.063896 0
8.135000 -0.063246 0
8.140000 -0.062422 0
8.145000 -0.061603 0
8.150000 -0.060788 0
8.155000 -0.059977 0
8.160000 -0.059170 0
8.165000 -0.058367 0
8.170000 -0.057568 0
8.175000 -0.056773 0
8.180000 -0.055982 0
8.185000 -0.055195 0
8.190000 -0.054412 0
8.195000 -0.053633 0
8.200000 -0.052857 0
8.205000 -0.052086 0
8.210000 -0.051318 0
8.215000 -0.050554 0
8.220000 -0.049794 0
8.225000 -0.049037 0
8.230000 -0.048284 0
8.235000 -0.047534 0
8.240000 -0.046786 0
8.245000 -0.046041 0
8.250000 -0.045295 0
8.255000 -0.044546 0
8.260000 -0.043791 0
8.265000 -0.043022 0
8.270000 -0.042228 0
8.275000 -0.041392 0
8.280000 -0.040491 0
8.285000 -0.039488 0
8.290000 -0.038333 0
8.295000 -0.036954 0
8.300000 -0.035259 0
8.305000 -0.033122 0
8.310000 -0.030389 0
8.315000 -0.026868 0
8.320000 -0.022333 0
8.325000 -0.016530 0
8.330000 -0.009183 0
8.335000 -0.000013 0
8.340000 0.011238 0
8.345000 0.024782 0
8.350000 0.040752 0
8.355000 0.059161 0
8.360000 0.079877 0
8.365000 0.102593 0
8.370000 0.126815 0
8.375000 0.151860 0
8.380000 0.176881 0
8.385000 0.200903 0
8.390000 0.222885 0
8.395000 0.241791 0
8.400000 0.256669 0
8.405000 0.266730 0
8.410000 0.271419 1
8.415000 0.270461 0
8.420000 0.263891 0
8.425000 0.252049 0
8.430000 0.235552 0
8.435000 0.215239 0
8.440000 0.192102 0
8.445000 0.167201 0
8.450000 0.141589 0
8.455000 0.116239 0
8.460000 0.091973 0
8.465000 0.069409 0
8.470000 0.048884 0
8.475000 0.030320 0
8.480000 0.013018 0
8.485000 -0.004598 0
8.490000 -0.025067 0
8.495000 -0.051419 0
8.500000 -0.085781 0
8.505000 -0.127178 0
8.510000 -0.169472 0
8.515000 -0.200805 0
8.520000 -0.205211 2
8.525000 -0.165669 0
8.530000 -0.067371 0
8.535000 0.098625 0
8.540000 0.329695 0
8.545000 0.604064 0
8.550000 0.876492 0
8.555000 1.085255 0
8.560000 1.172854 3
8.565000 1.111004 0
8.570000 0.914423 0
8.575000 0.634120 0
8.580000 0.333616 0
8.585000 0.065968 0
8.590000 -0.137051 0
8.595000 -0.263848 0
8.600000 -0.317501 4
8.605000 -0.311318 0
8.610000 -0.265318 0
8.615000 -0.201554 0
8.620000 -0.138521 0
8.625000 -0.087198 0
8.630000 -0.050628 0
8.635000 -0.026462 0
8.640000 -0.010321 0
8.645000 0.001816 0
8.650000 0.012690 0
8.655000 0.023828 0
8.660000 0.035968 0
8.665000 0.049432 0
8.670000 0.064353 0
8.675000 0.080779 0
8.680000 0.098705 0
8.685000 0.118088 0
8.690000 0.138838 0
8.695000 0.160822 0
8.700000 0.183860 0
8.705000 0.207726 0
8.710000 0.232148 0
8.715000 0.256810 0
8.720000 0.281362 0
8.725000 0.305421 0
8.730000 0.328585 0
8.735000 0.350443 0
8.740000 0.370582 0
8.745000 0.388606 0
8.750000 0.404144 0
8.755000 0.416864 0
8.760000 0.426484 0
8.765000 0.432783 0
8.770000 0.435606 5
8.775000 0.434873 0
8.780000 0.430584 0
8.785000 0.422812 0
8.790000 0.411707 0
8.795000 0.397488 0
8.800000 0.380439 0
8.805000 0.360893 0
8.810000 0.339226 0
8.815000 0.315843 0
8.820000 0.291167 0
8.825000 0.265622 0
8.830000 0.239625 0
8.835000 0.213573 0
8.840000 0.187835 0
8.845000 0.162742 0
8.850000 0.138581 0
8.855000 0.115596 0
8.860000 0.093978 0
8.865000 0.073871 0
8.870000 0.055373 0
8.875000 0.038537 0
8.880000 0.023375 0
8.885000 0.009864 0
8.890000 -0.002047 0
8.895000 -0.012435 0
8.900000 -0.021393 0
8.905000 -0.029028 0
8.910000 -0.035458 0
8.915000 -0.040799 0
8.920000 -0.045172 0
8.925000 -0.048692 0
8.930000 -0.051469 0
8.935000 -0.053607 0
8.940000 -0.055200 0
8.945000 -0.056333 0
8.950000 -0.057082 0
8.955000 -0.057515 0
8.960000 -0.057687 0
8.965000 -0.057649 0
8.970000 -0.057443 0
8.975000 -0.057103 0
8.980000 -0.056657 0
8.985000 -0.056131 0
8.990000 -0.055381 0
8.995000 -0.054597 0
9.000000 -0.053816 0
9.005000 -0.053040 0
9.010000 -0.052268 0
9.015000 -0.051499 0
9.020000 -0.050734 0
9.025000 -0.049974 0
9.030000 -0.049216 0
9.035000 -0.048463 0
9.040000 -0.047713 0
9.045000 -0.046968 0
9.050000 -0.046225 0
9.055000 -0.045487 0
9.060000 -0.044752 0
9.065000 -0.044021 0
9.070000 -0.043294 0
9.075000 -0.042570 0
9.080000 -0.041849 0
9.085000 -0.041132 0
9.090000 -0.040417 0
9.095000 -0.039705 0
9.100000 -0.038993 0
9.105000 -0.038281 0
9.110000 -0.037566 0
9.115000 -0.036842 0
9.120000 -0.036101 0
9.125000 -0.035331 0
9.130000 -0.034514 0
9.135000 -0.033623 0
9.140000 -0.032616 0
9.145000 -0.031438 0
9.150000 -0.030012 0
9.155000 -0.028234 0
9.160000 -0.025971 0
9.165000 -0.023054 0
9.170000 -0.019280 0
9.175000 -0.014411 0
9.180000 -0.008183 0
9.185000 -0.000313 0
9.190000 0.009474 0
9.195000 0.021430 0
9.200000 0.035746 0
9.205000 0.052517 0
9.210000 0.071712 0
9.215000 0.093141 0
9.220000 0.116427 0
9.225000 0.141003 0
9.230000 0.166119 0
9.235000 0.190866 0
9.240000 0.214229 0
9.245000 0.235149 0
9.250000 0.252603 0
9.255000 0.265684 0
9.260000 0.273679 0
9.265000 0.276133 1
9.270000 0.272890 0
9.275000 0.264111 0
9.280000 0.250256 0
9.285000 0.232047 0
9.290000 0.210404 0
9.295000 0.186367 0
9.300000 0.161014 0
9.305000 0.135380 0
9.310000 0.110388 0
9.315000 0.086787 0
9.320000 0.065086 0
9.325000 0.045460 0
9.330000 0.027578 0
9.335000 0.010361 0
9.340000 -0.008243 0
9.345000 -0.031136 0
9.350000 -0.061183 0
9.355000 -0.099343 0
9.360000 -0.142332 0
9.365000 -0.181096 0
9.370000 -0.201318 2
9.375000 -0.185944 0
9.380000 -0.118500 0
9.385000 0.013535 0
9.390000 0.214153 0
9.395000 0.471744 0
9.400000 0.752097 0
9.405000 0.999067 0
9.410000 1.149372 0
9.415000 1.157963 3
9.420000 1.021823 0
9.425000 0.776464 0
9.430000 0.479116 0
9.435000 0.187469 0
9.440000 -0.056565 0
9.445000 -0.231250 0
9.450000 -0.331497 0
9.455000 -0.363986 4
9.460000 -0.343718 0
9.465000 -0.290718 0
9.470000 -0.225467 0
9.475000 -0.164015 0
9.480000 -0.115103 0
9.485000 -0.080451 0
9.490000 -0.057340 0
9.495000 -0.041568 0
9.500000 -0.029425 0
9.505000 -0.018408 0
9.510000 -0.007110 0
9.515000 0.005158 0
9.520000 0.018703 0
9.525000 0.033656 0
9.530000 0.050067 0
9.535000 0.067937 0
9.540000 0.087227 0
9.545000 0.107860 0
9.550000 0.129719 0
9.555000 0.152645 0
9.560000 0.176433 0
9.565000 0.200837 0
9.570000 0.225573 0
9.575000 0.250319 0
9.580000 0.274725 0
9.585000 0.298416 0
9.590000 0.321007 0
9.595000 0.342108 0
9.600000 0.361335 0
9.605000 0.378326 0
9.610000 0.392745 0
9.615000 0.404300 0
9.620000 0.412746 0
9.625000 0.417900 0
9.630000 0.419640 5
9.635000 0.417917 0
9.640000 0.412750 0
9.645000 0.404229 0
9.650000 0.392514 0
9.655000 0.377826 0
9.660000 0.360441 0
9.665000 0.340682 0
9.670000 0.318910 0
9.675000 0.295509 0
9.680000 0.270879 0
9.685000 0.245420 0
9.690000 0.219527 0
9.695000 0.193575 0
9.700000 0.167912 0
9.705000 0.142855 0
9.710000 0.118679 0
9.715000 0.095618 0
9.720000 0.073860 0
9.725000 0.053550 0
9.730000 0.034789 0
9.735000 0.017635 0
9.740000 0.002110 0
9.745000 -0.011799 0
9.750000 -0.024132 0
9.755000 -0.034954 0
9.760000 -0.044349 0
9.765000 -0.052413 0
9.770000 -0.059253 0
9.775000 -0.064980 0
9.780000 -0.069708 0
9.785000 -0.073547 0
9.790000 -0.076606 0
9.795000 -0.078985 0
9.800000 -0.080780 0
9.805000 -0.082075 0
9.810000 -0.082949 0
9.815000 -0.083471 0
9.820000 -0.083701 0
9.825000 -0.083692 0
9.830000 -0.083488 0
9.835000 -0.083128 0
9.840000 -0.082643 0
9.845000 -0.082059 0
9.850000 -0.081400 0
9.855000 -0.080523 0
9.860000 -0.079614 0
9.865000 -0.078709 0
9.870000 -0.077808 0
9.875000 -0.076912 0
9.880000 -0.076021 0
9.885000 -0.075134 0
9.890000 -0.074251 0
9.895000 -0.073373 0
9.900000 -0.072499 0
9.905000 -0.071630 0
9.910000 -0.070765 0
9.915000 -0.069904 0
9.920000 -0.069047 0
9.925000 -0.068195 0
9.930000 -0.067347 0
9.935000 -0.066503 0
9.940000 -0.065663 0
9.945000 -0.064828 0
9.950000 -0.063996 0
9.955000 -0.063168 0
9.960000 -0.062343 0
9.965000 -0.061520 0
9.970000 -0.060699 0
9.975000 -0.059876 0
9.980000 -0.059049 0
9.985000 -0.058212 0
9.990000 -0.057357 0
9.995000 -0.056470 0
10.000000 -0.055532 0
10.005000 -0.054515 0
10.010000 -0.053378 0
10.015000 -0.052064 0
10.020000 -0.050498 0
10.025000 -0.048578 0
10.030000 -0.046175 0
10.035000 -0.043129 0
10.040000 -0.039247 0
10.045000 -0.034303 0
10.050000 -0.028049 0
10.055000 -0.020218 0
10.060000 -0.010549 0
10.065000 0.001200 0
10.070000 0.015216 0
10.075000 0.031609 0
10.080000 0.050374 0
10.085000 0.071363 0
10.090000 0.094268 0
10.095000 0.118602 0
10.100000 0.143706 0
10.105000 0.168767 0
10.110000 0.192856 0
10.115000 0.214981 0
10.120000 0.234152 0
10.125000 0.249454 0
10.130000 0.260120 0
10.135000 0.265593 1
10.140000 0.265572 0
10.145000 0.260044 0
10.150000 0.249281 0
10.155000 0.233822 0
10.160000 0.214423 0
10.165000 0.191999 0
10.170000 0.167553 0
10.175000 0.142099 0
10.180000 0.116595 0
10.185000 0.091883 0
10.190000 0.068631 0
10.195000 0.047279 0
10.200000 0.027938 0
10.205000 0.010238 0
10.210000 -0.006903 0
10.215000 -0.025467 0
10.220000 -0.048211 0
10.225000 -0.077858 0
10.230000 -0.115438 0
10.235000 -0.158184 0
10.240000 -0.198075 0
10.245000 -0.222089 2
10.250000 -0.214294 0
10.255000 -0.158794 0
10.260000 -0.042684 0
10.265000 0.140252 0
10.270000 0.383733 0
10.275000 0.662127 0
10.280000 0.928161 0
10.285000 1.121859 0
10.290000 1.191087 3
10.295000 1.111559 0
10.300000 0.902209 0
10.305000 0.616451 0
10.310000 0.317183 0
10.315000 0.055079 0
10.320000 -0.140595 0
10.325000 -0.260050 0
10.330000 -0.307493 4
10.335000 -0.296912 0
10.340000 -0.248583 0
10.345000 -0.184320 0
10.350000 -0.121979 0
10.355000 -0.071806 0
10.360000 -0.036306 0
10.365000 -0.012892 0
10.370000 0.002818 0
10.375000 0.014752 0
10.380000 0.025548 0
10.385000 0.036665 0
10.390000 0.048804 0
10.395000 0.062272 0
10.400000 0.077196 0
10.405000 0.093620 0
10.410000 0.111539 0
10.415000 0.130906 0
10.420000 0.151632 0
10.425000 0.173583 0
10.430000 0.196581 0
10.435000 0.220398 0
10.440000 0.244763 0
10.445000 0.269365 0
10.450000 0.293853 0
10.455000 0.317848 0
10.460000 0.340951 0
10.465000 0.362752 0
10.470000 0.382844 0
10.475000 0.400832 0
10.480000 0.416347 0
10.485000 0.429059 0
10.490000 0.438688 0
10.495000 0.445011 0
10.500000 0.447875 5
10.505000 0.447198 0
10.510000 0.442976 0
10.515000 0.435280 0
10.520000 0.424256 0
10.525000 0.410118 0
10.530000 0.393146 0
10.535000 0.373667 0
10.540000 0.352054 0
10.545000 0.328708 0
10.550000 0.304046 0
10.555000 0.278492 0
10.560000 0.252459 0
10.565000 0.226344 0
10.570000 0.200514 0
10.575000 0.175303 0
10.580000 0.151000 0
10.585000 0.127848 0
10.590000 0.106044 0
10.595000 0.085735 0
10.600000 0.067023 0
10.605000 0.049962 0
10.610000 0.034571 0
10.615000 0.020830 0
10.620000 0.008690 0
10.625000 -0.001921 0
10.630000 -0.011095 0
10.635000 -0.018937 0
10.640000 -0.025562 0
10.645000 -0.031087 0
10.650000 -0.035631 0
10.655000 -0.039309 0
10.660000 -0.042231 0
10.665000 -0.044502 0
10.670000 -0.046215 0
10.675000 -0.047458 0
10.680000 -0.048307 0
10.685000 -0.048830 0
10.690000 -0.049085 0
10.695000 -0.049122 0
10.700000 -0.048985 0
10.705000 -0.048708 0
10.710000 -0.048322 0
10.715000 -0.047851 0
10.720000 -0.047284 0
10.725000 -0.046540 0
10.730000 -0.045800 0
10.735000 -0.045064 0
10.740000 -0.044331 0
10.745000 -0.043602 0
10.750000 -0.042877 0
10.755000 -0.042155 0
10.760000 -0.041437 0
10.765000 -0.040723 0
10.770000 -0.040012 0
10.775000 -0.039304 0
10.780000 -0.038600 0
10.785000 -0.037900 0
10.790000 -0.037203 0
10.795000 -0.036509 0
10.800000 -0.035819 0
10.805000 -0.035133 0
10.810000 -0.034449 0
10.815000 -0.033769 0
10.820000 -0.033091 0
10.825000 -0.032416 0
10.830000 -0.031742 0
10.835000 -0.031067 0
10.840000 -0.030390 0
10.845000 -0.029706 0
10.850000 -0.029007 0
10.855000 -0.028284 0
10.860000 -0.027519 0
10.865000 -0.026689 0
10.870000 -0.025757 0
10.875000 -0.024674 0
10.880000 -0.023368 0
10.885000 -0.021746 0
10.890000 -0.019684 0
10.895000 -0.017027 0
10.900000 -0.013584 0
10.905000 -0.009129 0
10.910000 -0.003406 0
10.915000 0.003859 0
10.920000 0.012947 0
10.925000 0.024118 0
10.930000 0.037583 0
10.935000 0.053476 0
10.940000 0.071812 0
10.945000 0.092458 0
10.950000 0.115109 0
10.955000 0.139267 0
10.960000 0.164250 0
10.965000 0.189208 0
10.970000 0.213166 0
10.975000 0.235078 0
10.980000 0.253907 0
10.985000 0.268699 0
10.990000 0.278666 0
10.995000 0.283253 1
11.000000 0.282186 0
11.005000 0.275503 0
11.010000 0.263548 0
11.015000 0.246941 0
11.020000 0.226527 0
11.025000 0.203299 0
11.030000 0.178322 0
11.035000 0.152650 0
11.040000 0.127254 0
11.045000 0.102958 0
11.050000 0.080375 0
11.055000 0.059835 0
11.060000 0.041252 0
11.065000 0.023907 0
11.070000 0.006200 0
11.075000 -0.014434 0
11.080000 -0.041032 0
11.085000 -0.075672 0
11.090000 -0.117260 0
11.095000 -0.159483 0
11.100000 -0.190305 0
11.105000 -0.193647 2
11.110000 -0.152473 0
11.115000 -0.052069 0
11.120000 0.116243 0
11.125000 0.349303 0
11.130000 0.624482 0
11.135000 0.895631 0
11.140000 1.100608 0
11.145000 1.182497 3
11.150000 1.115504 0
11.155000 0.916256 0
11.160000 0.635269 0
11.165000 0.334713 0
11.170000 0.066487 0
11.175000 -0.138118 0
11.180000 -0.267413 0
11.185000 -0.324030 4
11.190000 -0.320623 0
11.195000 -0.276521 0
11.200000 -0.213345 0
11.205000 -0.149638 0
11.210000 -0.096860 0
11.215000 -0.058675 0
11.220000 -0.033196 0
11.225000 -0.016224 0
11.230000 -0.003693 0
11.235000 0.007269 0
11.240000 0.018313 0
11.245000 0.030260 0
11.250000 0.043475 0
11.255000 0.058114 0
11.260000 0.074234 0
11.265000 0.091843 0
11.270000 0.110904 0
11.275000 0.131340 0
11.280000 0.153033 0
11.285000 0.175819 0
11.290000 0.199488 0
11.295000 0.223786 0
11.300000 0.248416 0
11.305000 0.273045 0
11.310000 0.297309 0
11.315000 0.320820 0
11.320000 0.343176 0
11.325000 0.363974 0
11.330000 0.382819 0
11.335000 0.399338 0
11.340000 0.413191 0
11.345000 0.424081 0
11.350000 0.431767 0
11.355000 0.436071 0
11.360000 0.436885 5
11.365000 0.434172 0
11.370000 0.427973 0
11.375000 0.418401 0
11.380000 0.405640 0
11.385000 0.389938 0
11.390000 0.371597 0
11.395000 0.350968 0
11.400000 0.328432 0
11.405000 0.304396 0
11.410000 0.279275 0
11.415000 0.253483 0
11.420000 0.227420 0
11.425000 0.201463 0
11.430000 0.175957 0
11.435000 0.151212 0
11.440000 0.127489 0
11.445000 0.105008 0
11.450000 0.083938 0
11.455000 0.064404 0
11.460000 0.046484 0
11.465000 0.030217 0
11.470000 0.015602 0
11.475000 0.002608 0
11.480000 -0.008824 0
11.485000 -0.018775 0
11.490000 -0.027340 0
11.495000 -0.034628 0
11.500000 -0.040752 0
11.505000 -0.045830 0
11.510000 -0.049977 0
11.515000 -0.053305 0
11.520000 -0.055922 0
11.525000 -0.057926 0
11.530000 -0.059407 0
11.535000 -0.060449 0
11.540000 -0.061122 0
11.545000 -0.061492 0
11.550000 -0.061612 0
11.555000 -0.061531 0
11.560000 -0.061287 0
11.565000 -0.060915 0
11.570000 -0.060442 0
11.575000 -0.059890 0
11.580000 -0.059121 0
11.585000 -0.058318 0
11.590000 -0.057519 0
11.595000 -0.056725 0
11.600000 -0.055934 0
11.605000 -0.055147 0
11.610000 -0.054364 0
11.615000 -0.053585 0
11.620000 -0.052810 0
11.625000 -0.052039 0
11.630000 -0.051271 0
11.635000 -0.050508 0
11.640000 -0.049748 0
11.645000 -0.048992 0
11.650000 -0.048240 0
11.655000 -0.047491 0
11.660000 -0.046746 0
11.665000 -0.046005 0
11.670000 -0.045267 0
11.675000 -0.044533 0
11.680000 -0.043801 0
11.685000 -0.043073 0
11.690000 -0.042345 0
11.695000 -0.041617 0
11.700000 -0.040887 0
11.705000 -0.040149 0
11.710000 -0.039397 0
11.715000 -0.038620 0
11.720000 -0.037801 0
11.725000 -0.036916 0
11.730000 -0.035929 0
11.735000 -0.034790 0
11.740000 -0.033428 0
11.745000 -0.031752 0
11.750000 -0.029639 0
11.755000 -0.026936 0
11.760000 -0.023454 0
11.765000 -0.018973 0
11.770000 -0.013240 0
11.775000 -0.005985 0
11.780000 0.003067 0
11.785000 0.014175 0
11.790000 0.027550 0
11.795000 0.043327 0
11.800000 0.061532 0
11.805000 0.082045 0
11.810000 0.104579 0
11.815000 0.128661 0
11.820000 0.153637 0
11.825000 0.178684 0
11.830000 0.202852 0
11.835000 0.225118 0
11.840000 0.244453 0
11.845000 0.259904 0
11.850000 0.270665 0
11.855000 0.276153 1
11.860000 0.276053 0
11.865000 0.270351 0
11.870000 0.259336 0
11.875000 0.243574 0
11.880000 0.223860 0
11.885000 0.201150 0
11.890000 0.176486 0
11.895000 0.150915 0
11.900000 0.125416 0
11.905000 0.100839 0
11.910000 0.077840 0
11.915000 0.056823 0
11.920000 0.037820 0
11.925000 0.020306 0
11.930000 0.002955 0
11.935000 -0.016520 0
11.940000 -0.041079 0
11.945000 -0.073242 0
11.950000 -0.113096 0
11.955000 -0.156116 0
11.960000 -0.192105 0
11.965000 -0.206192 2
11.970000 -0.181539 0
11.975000 -0.102537 0
11.980000 0.041887 0
11.985000 0.253487 0
11.990000 0.517587 0
11.995000 0.796999 0
12.000000 1.034507 0
12.005000 1.169033 3
12.010000 1.157660 0
12.015000 0.999685 0
12.020000 0.738028 0
12.025000 0.437082 0
12.030000 0.156418 0
12.035000 -0.064954 0
12.040000 -0.210249 0
12.045000 -0.279502 0
12.050000 -0.284388 4
12.055000 -0.244451 0
12.060000 -0.182470 0
12.065000 -0.118533 0
12.070000 -0.065329 0
12.075000 -0.027069 0
12.080000 -0.001857 0
12.085000 0.014732 0
12.090000 0.026942 0
12.095000 0.037713 0
12.100000 0.048692 0
12.105000 0.060668 0
12.110000 0.073985 0
12.115000 0.088784 0
12.120000 0.105113 0
12.125000 0.122968 0
12.130000 0.142301 0
12.135000 0.163019 0
12.140000 0.184981 0
12.145000 0.207999 0
12.150000 0.231833 0
12.155000 0.256198 0
12.160000 0.280764 0
12.165000 0.305163 0
12.170000 0.328997 0
12.175000 0.351849 0
12.180000 0.373292 0
12.185000 0.392904 0
12.190000 0.410279 0
12.195000 0.425043 0
12.200000 0.436866 0
12.205000 0.445472 0
12.210000 0.450651 0
12.215000 0.452267 5
12.220000 0.450263 0
12.225000 0.444663 0
12.230000 0.435570 0
12.235000 0.423167 0
12.240000 0.407704 0
12.245000 0.389497 0
12.250000 0.368909 0
12.255000 0.346342 0
12.260000 0.322223 0
12.265000 0.296990 0
12.270000 0.271081 0
12.275000 0.244916 0
12.280000 0.218891 0
12.285000 0.193366 0
12.290000 0.168661 0
12.295000 0.145047 0
12.300000 0.122745 0
12.305000 0.101923 0
12.310000 0.082702 0
12.315000 0.065152 0
12.320000 0.049302 0
12.325000 0.035141 0
12.330000 0.022624 0
12.335000 0.011680 0
12.340000 0.002218 0
12.345000 -0.005869 0
12.350000 -0.012700 0
12.355000 -0.018396 0
12.360000 -0.023080 0
12.365000 -0.026872 0
12.370000 -0.029889 0
12.375000 -0.032237 0
12.380000 -0.034015 0
12.385000 -0.035314 0
12.390000 -0.036212 0
12.395000 -0.036780 0
12.400000 -0.037078 0
12.405000 -0.037158 0
12.410000 -0.037064 0
12.415000 -0.036831 0
12.420000 -0.036490 0
12.425000 -0.036065 0
12.430000 -0.035415 0
12.435000 -0.034731 0
12.440000 -0.034050 0
12.445000 -0.033372 0
12.450000 -0.032697 0
12.455000 -0.032027 0
12.460000 -0.031359 0
12.465000 -0.030695 0
12.470000 -0.030034 0
12.475000 -0.029376 0
12.480000 -0.028722 0
12.485000 -0.028070 0
12.490000 -0.027423 0
12.495000 -0.026778 0
12.500000 -0.026136 0
12.505000 -0.025498 0
12.510000 -0.024863 0
12.515000 -0.024231 0
12.520000 -0.023602 0
12.525000 -0.022975 0
12.530000 -0.022351 0
12.535000 -0.021728 0
12.540000 -0.021105 0
12.545000 -0.020480 0
12.550000 -0.019849 0
12.555000 -0.019206 0
12.560000 -0.018542 0
12.565000 -0.017841 0
12.570000 -0.017080 0
12.575000 -0.016226 0
12.580000 -0.015231 0
12.585000 -0.014025 0
12.590000 -0.012518 0
12.595000 -0.010587 0
12.600000 -0.008076 0
12.605000 -0.004791 0
12.610000 -0.000502 0
12.615000 0.005053 0
12.620000 0.012160 0
12.625000 0.021109 0
12.630000 0.032172 0
12.635000 0.045573 0
12.640000 0.061450 0
12.645000 0.079818 0
12.650000 0.100534 0
12.655000 0.123271 0
12.660000 0.147500 0
12.665000 0.172494 0
12.670000 0.197355 0
12.675000 0.221055 0
12.680000 0.242504 0
12.685000 0.260633 0
12.690000 0.274477 0
12.695000 0.283259 0
12.700000 0.286464 1
12.705000 0.283887 0
12.710000 0.275649 0
12.715000 0.262195 0
12.720000 0.244245 0
12.725000 0.222734 0
12.730000 0.198730 0
12.735000 0.173345 0
12.740000 0.147649 0
12.745000 0.122598 0
12.750000 0.098963 0
12.755000 0.077266 0
12.760000 0.057671 0
12.765000 0.039805 0
12.770000 0.022495 0
12.775000 0.003541 0
12.780000 -0.020100 0
12.785000 -0.051272 0
12.790000 -0.090524 0
12.795000 -0.133664 0
12.800000 -0.170388 0
12.805000 -0.185202 2
12.810000 -0.160365 0
12.815000 -0.079435 0
12.820000 0.069022 0
12.825000 0.286001 0
12.830000 0.554082 0
12.835000 0.831230 0
12.840000 1.055243 0
12.845000 1.163684 3
12.850000 1.123428 0
12.855000 0.944128 0
12.860000 0.672421 0
12.865000 0.371132 0
12.870000 0.095586 0
12.875000 -0.119182 0
12.880000 -0.258766 0
12.885000 -0.324157 0
12.890000 -0.327071 4
12.895000 -0.286494 0
12.900000 -0.224360 0
12.905000 -0.160047 0
12.910000 -0.105983 0
12.915000 -0.066556 0
12.920000 -0.040206 0
12.925000 -0.022752 0
12.930000 -0.010011 0
12.935000 0.001013 0
12.940000 0.012059 0
12.945000 0.023989 0
12.950000 0.037188 0
12.955000 0.051818 0
12.960000 0.067941 0
12.965000 0.085562 0
12.970000 0.104648 0
12.975000 0.125120 0
12.980000 0.146858 0
12.985000 0.169694 0
12.990000 0.193415 0
12.995000 0.217762 0
13.000000 0.242433 0
13.005000 0.267089 0
13.010000 0.291359 0
13.015000 0.314847 0
13.020000 0.337146 0
13.025000 0.357847 0
13.030000 0.376551 0
13.035000 0.392881 0
13.040000 0.406495 0
13.045000 0.417099 0
13.050000 0.424452 0
13.055000 0.428383 0
13.060000 0.428789 5
13.065000 0.425643 0
13.070000 0.418997 0
13.075000 0.408976 0
13.080000 0.395776 0
13.085000 0.379658 0
13.090000 0.360937 0
13.095000 0.339975 0
13.100000 0.317165 0
13.105000 0.292922 0
13.110000 0.267667 0
13.115000 0.241818 0
13.120000 0.215777 0
13.125000 0.189921 0
13.130000 0.164592 0
13.135000 0.140094 0
13.140000 0.116682 0
13.145000 0.094566 0
13.150000 0.073907 0
13.155000 0.054819 0
13.160000 0.037371 0
13.165000 0.021589 0
13.170000 0.007466 0
13.175000 -0.005040 0
13.180000 -0.015995 0
13.185000 -0.025487 0
13.190000 -0.033616 0
13.195000 -0.040496 0
13.200000 -0.046242 0
13.205000 -0.050973 0
13.210000 -0.054807 0
13.215000 -0.057855 0
13.220000 -0.060222 0
13.225000 -0.062007 0
13.230000 -0.063297 0
13.235000 -0.064172 0
13.240000 -0.064703 0
13.245000 -0.064951 0
13.250000 -0.064968 0
13.255000 -0.064798 0
13.260000 -0.064481 0
13.265000 -0.064046 0
13.270000 -0.063520 0
13.275000 -0.062890 0
13.280000 -0.062068 0
13.285000 -0.061251 0
13.290000 -0.060437 0
13.295000 -0.059628 0
13.300000 -0.058823 0
13.305000 -0.058022 0
13.310000 -0.057224 0
13.315000 -0.056431 0
13.320000 -0.055642 0
13.325000 -0.054856 0
13.330000 -0.054075 0
13.335000 -0.053297 0
13.340000 -0.052524 0
13.345000 -0.051754 0
13.350000 -0.050988 0
13.355000 -0.050225 0
13.360000 -0.049467 0
13.365000 -0.048712 0
13.370000 -0.047961 0
13.375000 -0.047212 0
13.380000 -0.046467 0
13.385000 -0.045724 0
13.390000 -0.044981 0
13.395000 -0.044236 0
13.400000 -0.043487 0
13.405000 -0.042726 0
13.410000 -0.041944 0
13.415000 -0.041127 0
13.420000 -0.040253 0
13.425000 -0.039291 0
13.430000 -0.038194 0
13.435000 -0.036899 0
13.440000 -0.035320 0
13.445000 -0.033343 0
13.450000 -0.030822 0
13.455000 -0.027578 0
13.460000 -0.023396 0
13.465000 -0.018028 0
13.470000 -0.011204 0
13.475000 -0.002644 0
13.480000 0.007921 0
13.485000 0.020722 0
13.490000 0.035918 0
13.495000 0.053566 0
13.500000 0.073582 0
13.505000 0.095715 0
13.510000 0.119530 0
13.515000 0.144400 0
13.520000 0.169526 0
13.525000 0.193966 0
13.530000 0.216689 0
13.535000 0.236649 0
13.540000 0.252857 0
13.545000 0.264467 0
13.550000 0.270842 0
13.555000 0.271619 1
13.560000 0.266737 0
13.565000 0.256444 0
13.570000 0.241278 0
13.575000 0.222020 0
13.580000 0.199624 0
13.585000 0.175140 0
13.590000 0.149634 0
13.595000 0.124109 0
13.600000 0.099441 0
13.605000 0.076318 0
13.610000 0.055169 0
13.615000 0.036060 0
13.620000 0.018503 0
13.625000 0.001201 0
13.630000 -0.018117 0
13.635000 -0.042441 0
13.640000 -0.074370 0
13.645000 -0.114085 0
13.650000 -0.157103 0
13.655000 -0.193151 0
13.660000 -0.207163 2
13.665000 -0.182059 0
13.670000 -0.102033 0
13.675000 0.044033 0
13.680000 0.257602 0
13.685000 0.523132 0
13.690000 0.801987 0
13.695000 1.035504 0
13.700000 1.162230 3
13.705000 1.143751 0
13.710000 0.982624 0
13.715000 0.720802 0
13.720000 0.420013 0
13.725000 0.137592 0
13.730000 -0.088212 0
13.735000 -0.240143 0
13.740000 -0.317094 0
13.745000 -0.329220 4
13.750000 -0.294460 0
13.755000 -0.234509 0
13.760000 -0.169453 0
13.765000 -0.113044 0
13.770000 -0.070979 0
13.775000 -0.042528 0
13.780000 -0.023775 0
13.785000 -0.010428 0
13.790000 0.000745 0
13.795000 0.011690 0
13.800000 0.023396 0
13.805000 0.036315 0
13.810000 0.050640 0
13.815000 0.066445 0
13.820000 0.083748 0
13.825000 0.102521 0
13.830000 0.122696 0
13.835000 0.144163 0
13.840000 0.166765 0
13.845000 0.190300 0
13.850000 0.214521 0
13.855000 0.239136 0
13.860000 0.263815 0
13.865000 0.288197 0
13.870000 0.311892 0
13.875000 0.334499 0
13.880000 0.355609 0
13.885000 0.374821 0
13.890000 0.391755 0
13.895000 0.406060 0
13.900000 0.417432 0
13.905000 0.425617 0
13.910000 0.430427 0
13.915000 0.431740 5
13.920000 0.429511 0
13.925000 0.423771 0
13.930000 0.414624 0
13.935000 0.402249 0
13.940000 0.386886 0
13.945000 0.368838 0
13.950000 0.348450 0
13.955000 0.326108 0
13.960000 0.302218 0
13.965000 0.277199 0
13.970000 0.251469 0
13.975000 0.225434 0
13.980000 0.199476 0
13.985000 0.173948 0
13.990000 0.149161 0
13.995000 0.125386 0
14.000000 0.102845 0
14.005000 0.081713 0
14.010000 0.062118 0
14.015000 0.044141 0
14.020000 0.027823 0
14.025000 0.013165 0
14.030000 0.000136 0
14.035000 -0.011322 0
14.040000 -0.021290 0
14.045000 -0.029865 0
14.050000 -0.037155 0
14.055000 -0.043275 0
14.060000 -0.048344 0
14.065000 -0.052478 0
14.070000 -0.055790 0
14.075000 -0.058388 0
14.080000 -0.060371 0
14.085000 -0.061832 0
14.090000 -0.062852 0
14.095000 -0.063504 0
14.100000 -0.063853 0
14.105000 -0.063953 0
14.110000 -0.063853 0
14.115000 -0.063591 0
14.120000 -0.063202 0
14.125000 -0.062712 0
14.130000 -0.062145 0
14.135000 -0.061363 0
14.140000 -0.060549 0
14.145000 -0.059740 0
14.150000 -0.058934 0
14.155000 -0.058132 0
14.160000 -0.057334 0
14.165000 -0.056540 0
14.170000 -0.055750 0
14.175000 -0.054964 0
14.180000 -0.054182 0
14.185000 -0.053404 0
14.190000 -0.052630 0
14.195000 -0.051860 0
14.200000 -0.051093 0
14.205000 -0.050330 0
14.210000 -0.049571 0
14.215000 -0.048816 0
14.220000 -0.048065 0
14.225000 -0.047317 0
14.230000 -0.046572 0
14.235000 -0.045830 0
14.240000 -0.045091 0
14.245000 -0.044353 0
14.250000 -0.043614 0
14.255000 -0.042872 0
14.260000 -0.042122 0
14.265000 -0.041356 0
14.270000 -0.040562 0
14.275000 -0.039722 0
14.280000 -0.038810 0
14.285000 -0.037787 0
14.290000 -0.036598 0
14.295000 -0.035169 0
14.300000 -0.033401 0
14.305000 -0.031163 0
14.310000 -0.028294 0
14.315000 -0.024596 0
14.320000 -0.019838 0
14.325000 -0.013760 0
14.330000 -0.006087 0
14.335000 0.003456 0
14.340000 0.015123 0
14.345000 0.029110 0
14.350000 0.045529 0
14.355000 0.064370 0
14.360000 0.085471 0
14.365000 0.108493 0
14.370000 0.132908 0
14.375000 0.158007 0
14.380000 0.182918 0
14.385000 0.206655 0
14.390000 0.228177 0
14.395000 0.246461 0
14.400000 0.260579 0
14.405000 0.269782 0
14.410000 0.273559 1
14.415000 0.271685 0
14.420000 0.264245 0
14.425000 0.251622 0
14.430000 0.234471 0
14.435000 0.213656 0
14.440000 0.190177 0
14.445000 0.165098 0
14.450000 0.139460 0
14.455000 0.114210 0
14.460000 0.090145 0
14.465000 0.067845 0
14.470000 0.047597 0
14.475000 0.029255 0
14.480000 0.012018 0
14.485000 -0.005814 0
14.490000 -0.026877 0
14.495000 -0.054173 0
14.500000 -0.089561 0
14.505000 -0.131523 0
14.510000 -0.173235 0
14.515000 -0.202268 0
14.520000 -0.202425 2
14.525000 -0.156844 0
14.530000 -0.051237 0
14.535000 0.122340 0
14.540000 0.359553 0
14.545000 0.636257 0
14.550000 0.905068 0
14.555000 1.103785 0
14.560000 1.177042 3
14.565000 1.102003 0
14.570000 0.897516 0
14.575000 0.614537 0
14.580000 0.314348 0
14.585000 0.047537 0
14.590000 -0.155615 0
14.595000 -0.283916 0
14.600000 -0.340113 4
14.605000 -0.336727 0
14.610000 -0.292814 0
14.615000 -0.229699 0
14.620000 -0.165759 0
14.625000 -0.112480 0
14.630000 -0.073683 0
14.635000 -0.047651 0
14.640000 -0.030279 0
14.645000 -0.017514 0
14.650000 -0.006447 0
14.655000 0.004619 0
14.660000 0.016539 0
14.665000 0.029698 0
14.670000 0.044260 0
14.675000 0.060289 0
14.680000 0.077797 0
14.685000 0.096751 0
14.690000 0.117082 0
14.695000 0.138676 0
14.700000 0.161380 0
14.705000 0.184991 0
14.710000 0.209265 0
14.715000 0.233917 0
14.720000 0.258623 0
14.725000 0.283029 0
14.730000 0.306754 0
14.735000 0.329407 0
14.740000 0.350588 0
14.745000 0.369905 0
14.750000 0.386986 0
14.755000 0.401487 0
14.760000 0.413106 0
14.765000 0.421593 0
14.770000 0.426757 0
14.775000 0.428474 5
14.780000 0.426692 0
14.785000 0.421430 0
14.790000 0.412784 0
14.795000 0.400915 0
14.800000 0.386052 0
14.805000 0.368480 0
14.810000 0.348530 0
14.815000 0.326572 0
14.820000 0.303000 0
14.825000 0.278222 0
14.830000 0.252649 0
14.835000 0.226678 0
14.840000 0.200693 0
14.845000 0.175043 0
14.850000 0.150046 0
14.855000 0.125979 0
14.860000 0.103071 0
14.865000 0.081508 0
14.870000 0.061429 0
14.875000 0.042929 0
14.880000 0.026059 0
14.885000 0.010835 0
14.890000 -0.002764 0
14.895000 -0.014785 0
14.900000 -0.025298 0
14.905000 -0.034394 0
14.910000 -0.042174 0
14.915000 -0.048748 0
14.920000 -0.054231 0
14.925000 -0.058737 0
14.930000 -0.062381 0
14.935000 -0.065269 0
14.940000 -0.067503 0
14.945000 -0.069176 0
14.950000 -0.070373 0
14.955000 -0.071171 0
14.960000 -0.071636 0
14.965000 -0.071827 0
14.970000 -0.071795 0
14.975000 -0.071582 0
14.980000 -0.071225 0
14.985000 -0.070753 0
14.990000 -0.070192 0
14.995000 -0.069529 0
15.000000 -0.068674 0
15.005000 -0.067824 0
15.010000 -0.066978 0
15.015000 -0.066136 0
15.020000 -0.065298 0
15.025000 -0.064464 0
15.030000 -0.063635 0
15.035000 -0.062810 0
15.040000 -0.061988 0
15.045000 -0.061171 0
15.050000 -0.060358 0
15.055000 -0.059550 0
15.060000 -0.058745 0
15.065000 -0.057944 0
15.070000 -0.057147 0
15.075000 -0.056354 0
15.080000 -0.055565 0
15.085000 -0.054780 0
15.090000 -0.053998 0
15.095000 -0.053220 0
15.100000 -0.052445 0
15.105000 -0.051672 0
15.110000 -0.050901 0
15.115000 -0.050129 0
15.120000 -0.049354 0
15.125000 -0.048570 0
15.130000 -0.047770 0
15.135000 -0.046942 0
15.140000 -0.046068 0
15.145000 -0.045121 0
15.150000 -0.044064 0
15.155000 -0.042842 0
15.160000 -0.041383 0
15.165000 -0.039589 0
15.170000 -0.037336 0
15.175000 -0.034464 0
15.180000 -0.030782 0
15.185000 -0.026066 0
15.190000 -0.020064 0
15.195000 -0.012508 0
15.200000 -0.003128 0
15.205000 0.008327 0
15.210000 0.022057 0
15.215000 0.038181 0
15.220000 0.056709 0
15.225000 0.077503 0
15.230000 0.100261 0
15.235000 0.124497 0
15.240000 0.149548 0
15.245000 0.174590 0
15.250000 0.198679 0
15.255000 0.220802 0
15.260000 0.239948 0
15.265000 0.255184 0
15.270000 0.265727 0
15.275000 0.271013 1
15.280000 0.270744 0
15.285000 0.264917 0
15.290000 0.253826 0
15.295000 0.238033 0
15.300000 0.218325 0
15.305000 0.195645 0
15.310000 0.171020 0
15.315000 0.145484 0
15.320000 0.120003 0
15.325000 0.095418 0
15.330000 0.072384 0
15.335000 0.051307 0
15.340000 0.032241 0
15.345000 0.014702 0
15.350000 -0.002566 0
15.355000 -0.021755 0
15.360000 -0.045764 0
15.365000 -0.077177 0
15.370000 -0.116382 0
15.375000 -0.159419 0
15.380000 -0.196791 0
15.385000 -0.214225 2
15.390000 -0.195179 0
15.395000 -0.123949 0
15.400000 0.011183 0
15.405000 0.213585 0
15.410000 0.471594 0
15.415000 0.752040 0
15.420000 1.000911 0
15.425000 1.156980 0
15.430000 1.175362 3
15.435000 1.047498 0
15.440000 0.806044 0
15.445000 0.509358 0
15.450000 0.217196 0
15.455000 -0.026904 0
15.460000 -0.200508 0
15.465000 -0.298577 0
15.470000 -0.328315 4
15.475000 -0.305519 0
15.480000 -0.251016 0
15.485000 -0.185726 0
15.490000 -0.125556 0
15.495000 -0.078647 0
15.500000 -0.046029 0
15.505000 -0.024514 0
15.510000 -0.009757 0
15.515000 0.001872 0
15.520000 0.012719 0
15.525000 0.024049 0
15.530000 0.036460 0
15.535000 0.050216 0
15.540000 0.065422 0
15.545000 0.082116 0
15.550000 0.100286 0
15.555000 0.119880 0
15.560000 0.140808 0
15.565000 0.162933 0
15.570000 0.186074 0
15.575000 0.210005 0
15.580000 0.234458 0
15.585000 0.259121 0
15.590000 0.283651 0
15.595000 0.307674 0
15.600000 0.330798 0
15.605000 0.352621 0
15.610000 0.372743 0
15.615000 0.390776 0
15.620000 0.406359 0
15.625000 0.419169 0
15.630000 0.428928 0
15.635000 0.435417 0
15.640000 0.438484 5
15.645000 0.438044 0
15.650000 0.434091 0
15.655000 0.426688 0
15.660000 0.415976 0
15.665000 0.402158 0
15.670000 0.385503 0
15.675000 0.366330 0
15.680000 0.345000 0
15.685000 0.321902 0
15.690000 0.297447 0
15.695000 0.272048 0
15.700000 0.246116 0
15.705000 0.220041 0
15.710000 0.194190 0
15.715000 0.168897 0
15.720000 0.144452 0
15.725000 0.121106 0
15.730000 0.099059 0
15.735000 0.078466 0
15.740000 0.059436 0
15.745000 0.042035 0
15.750000 0.026286 0
15.755000 0.012181 0
15.760000 -0.000322 0
15.765000 -0.011288 0
15.770000 -0.020804 0
15.775000 -0.028969 0
15.780000 -0.035893 0
15.785000 -0.041690 0
15.790000 -0.046479 0
15.795000 -0.050372 0
15.800000 -0.053481 0
15.805000 -0.055909 0
15.810000 -0.057753 0
15.815000 -0.059101 0
15.820000 -0.060032 0
15.825000 -0.060614 0
15.830000 -0.060910 0
15.835000 -0.060971 0
15.840000 -0.060843 0
15.845000 -0.060564 0
15.850000 -0.060164 0
15.855000 -0.059670 0
15.860000 -0.059103 0
15.865000 -0.058335 0
15.870000 -0.057536 0
15.875000 -0.056741 0
15.880000 -0.055950 0
15.885000 -0.055163 0
15.890000 -0.054380 0
15.895000 -0.053601 0
15.900000 -0.052826 0
15.905000 -0.052054 0
15.910000 -0.051287 0
15.915000 -0.050523 0
15.920000 -0.049763 0
15.925000 -0.049007 0
15.930000 -0.048255 0
15.935000 -0.047506 0
15.940000 -0.046761 0
15.945000 -0.046020 0
15.950000 -0.045283 0
15.955000 -0.044548 0
15.960000 -0.043817 0
15.965000 -0.043089 0
15.970000 -0.042364 0
15.975000 -0.041639 0
15.980000 -0.040914 0
15.985000 -0.040184 0
15.990000 -0.039447 0
15.995000 -0.038693 0
16.000000 -0.037910 0
16.005000 -0.037082 0
16.010000 -0.036180 0
16.015000 -0.035167 0
16.020000 -0.033988 0
16.025000 -0.032569 0
16.030000 -0.030812 0
16.035000 -0.028589 0
16.040000 -0.025739 0
16.045000 -0.022068 0
16.050000 -0.017348 0
16.055000 -0.011323 0
16.060000 -0.003722 0
16.065000 0.005728 0
16.070000 0.017278 0
16.075000 0.031125 0
16.080000 0.047386 0
16.085000 0.066059 0
16.090000 0.086993 0
16.095000 0.109866 0
16.100000 0.134173 0
16.105000 0.159227 0
16.110000 0.184179 0
16.115000 0.208066 0
16.120000 0.229861 0
16.125000 0.248547 0
16.130000 0.263194 0
16.135000 0.273037 0
16.140000 0.277538 1
16.145000 0.276436 0
16.150000 0.269771 0
16.155000 0.257882 0
16.160000 0.241377 0
16.165000 0.221080 0
16.170000 0.197964 0
16.175000 0.173073 0
16.180000 0.147446 0
16.185000 0.122040 0
16.190000 0.097674 0
16.195000 0.074968 0
16.200000 0.054274 0
16.205000 0.035551 0
16.210000 0.018170 0
16.215000 0.000665 0
16.220000 -0.019379 0
16.225000 -0.044942 0
16.230000 -0.078317 0
16.235000 -0.119043 0
16.240000 -0.161815 0
16.245000 -0.195694 0
16.250000 -0.205393 2
16.255000 -0.174116 0
16.260000 -0.086720 0
16.265000 0.066899 0
16.270000 0.286745 0
16.275000 0.555469 0
16.280000 0.832989 0
16.285000 1.060600 0
16.290000 1.178667 3
16.295000 1.149618 0
16.300000 0.978324 0
16.305000 0.710194 0
16.310000 0.408854 0
16.315000 0.131353 0
16.320000 -0.085762 0
16.325000 -0.227234 0
16.330000 -0.293762 0
16.335000 -0.297127 4
16.340000 -0.256606 0
16.345000 -0.194502 0
16.350000 -0.130454 0
16.355000 -0.076936 0
16.360000 -0.038197 0
16.365000 -0.012494 0
16.370000 0.004468 0
16.375000 0.016895 0
16.380000 0.027746 0
16.385000 0.038712 0
16.390000 0.050618 0
16.395000 0.063827 0
16.400000 0.078490 0
16.405000 0.094663 0
16.410000 0.112348 0
16.415000 0.131502 0
16.420000 0.152043 0
16.425000 0.173839 0
16.430000 0.196715 0
16.435000 0.220445 0
16.440000 0.244759 0
16.445000 0.269342 0
16.450000 0.293843 0
16.455000 0.317877 0
16.460000 0.341041 0
16.465000 0.362917 0
16.470000 0.383092 0
16.475000 0.401162 0
16.480000 0.416751 0
16.485000 0.429523 0
16.490000 0.439191 0
16.495000 0.445529 0
16.500000 0.448378 5
16.505000 0.447658 0
16.510000 0.443363 0
16.515000 0.435568 0
16.520000 0.424422 0
16.525000 0.410148 0
16.530000 0.393030 0
16.535000 0.373404 0
16.540000 0.351651 0
16.545000 0.328181 0
16.550000 0.303418 0
16.555000 0.277792 0
16.560000 0.251723 0
16.565000 0.225612 0
16.570000 0.199828 0
16.575000 0.174705 0
16.580000 0.150531 0
16.585000 0.127549 0
16.590000 0.105950 0
16.595000 0.085876 0
16.600000 0.067423 0
16.605000 0.050641 0
16.610000 0.035541 0
16.615000 0.022097 0
16.620000 0.010254 0
16.625000 -0.000065 0
16.630000 -0.008958 0
16.635000 -0.016533 0
16.640000 -0.022908 0
16.645000 -0.028203 0
16.650000 -0.032538 0
16.655000 -0.036029 0
16.660000 -0.038787 0
16.665000 -0.040915 0
16.670000 -0.042506 0
16.675000 -0.043647 0
16.680000 -0.044411 0
16.685000 -0.044865 0
16.690000 -0.045066 0
16.695000 -0.045062 0
16.700000 -0.044894 0
16.705000 -0.044597 0
16.710000 -0.044199 0
16.715000 -0.043721 0
16.720000 -0.043031 0
16.725000 -0.042309 0
16.730000 -0.041590 0
16.735000 -0.040875 0
16.740000 -0.040163 0
16.745000 -0.039455 0
16.750000 -0.038750 0
16.755000 -0.038049 0
16.760000 -0.037351 0
16.765000 -0.036657 0
16.770000 -0.035966 0
16.775000 -0.035279 0
16.780000 -0.034595 0
16.785000 -0.033915 0
16.790000 -0.033238 0
16.795000 -0.032564 0
16.800000 -0.031894 0
16.805000 -0.031227 0
16.810000 -0.030562 0
16.815000 -0.029901 0
16.820000 -0.029242 0
16.825000 -0.028585 0
16.830000 -0.027928 0
16.835000 -0.027270 0
16.840000 -0.026606 0
16.845000 -0.025932 0
16.850000 -0.025237 0
16.855000 -0.024508 0
16.860000 -0.023724 0
16.865000 -0.022854 0
16.870000 -0.021852 0
16.875000 -0.020655 0
16.880000 -0.019177 0
16.885000 -0.017304 0
16.890000 -0.014891 0
16.895000 -0.011755 0
16.900000 -0.007678 0
16.905000 -0.002411 0
16.910000 0.004323 0
16.915000 0.012807 0
16.920000 0.023316 0
16.925000 0.036083 0
16.930000 0.051270 0
16.935000 0.068930 0
16.940000 0.088973 0
16.945000 0.111136 0
16.950000 0.134965 0
16.955000 0.159813 0
16.960000 0.184853 0
16.965000 0.209117 0
16.970000 0.231555 0
16.975000 0.251103 0
16.980000 0.266766 0
16.985000 0.277704 0
16.990000 0.283301 1
16.995000 0.283226 0
17.000000 0.277459 0
17.005000 0.266300 0
17.010000 0.250339 0
17.015000 0.230402 0
17.020000 0.207483 0
17.025000 0.182661 0
17.030000 0.157012 0
17.035000 0.131536 0
17.040000 0.107090 0
17.045000 0.084321 0
17.050000 0.063597 0
17.055000 0.044871 0
17.060000 0.027469 0
17.065000 0.009831 0
17.070000 -0.010600 0
17.075000 -0.036909 0
17.080000 -0.071288 0
17.085000 -0.112767 0
17.090000 -0.155075 0
17.095000 -0.186069 0
17.100000 -0.189429 2
17.105000 -0.147843 0
17.110000 -0.046388 0
17.115000 0.123608 0
17.120000 0.358523 0
17.125000 0.634578 0
17.130000 0.903947 0
17.135000 1.103162 0
17.140000 1.175541 3
17.145000 1.097448 0
17.150000 0.888942 0
17.155000 0.603488 0
17.160000 0.304256 0
17.165000 0.042182 0
17.170000 -0.153325 0
17.175000 -0.272453 0
17.180000 -0.319465 4
17.185000 -0.308453 0
17.190000 -0.259807 0
17.195000 -0.195418 0
17.200000 -0.133138 0
17.205000 -0.083142 0
17.210000 -0.047836 0
17.215000 -0.024564 0
17.220000 -0.008917 0
17.225000 0.003023 0
17.230000 0.013873 0
17.235000 0.025072 0
17.240000 0.037309 0
17.245000 0.050884 0
17.250000 0.065920 0
17.255000 0.082459 0
17.260000 0.100495 0
17.265000 0.119979 0
17.270000 0.140821 0
17.275000 0.162883 0
17.280000 0.185984 0
17.285000 0.209895 0
17.290000 0.234339 0
17.295000 0.259003 0
17.300000 0.283531 0
17.305000 0.307544 0
17.310000 0.330638 0
17.315000 0.352402 0
17.320000 0.372428 0
17.325000 0.390319 0
17.330000 0.405709 0
17.335000 0.418268 0
17.340000 0.427718 0
17.345000 0.433842 0
17.350000 0.436490 5
17.355000 0.435587 0
17.360000 0.431134 0
17.365000 0.423208 0
17.370000 0.411962 0
17.375000 0.397618 0
17.380000 0.380460 0
17.385000 0.360823 0
17.390000 0.339083 0
17.395000 0.315645 0
17.400000 0.290929 0
17.405000 0.265360 0
17.410000 0.239353 0
17.415000 0.213303 0
17.420000 0.187576 0
17.425000 0.162502 0
17.430000 0.138366 0
17.435000 0.115408 0
17.440000 0.093820 0
17.445000 0.073743 0
17.450000 0.055275 0
17.455000 0.038466 0
17.460000 0.023329 0
17.465000 0.009840 0
17.470000 -0.002052 0
17.475000 -0.012423 0
17.480000 -0.021368 0
17.485000 -0.028994 0
17.490000 -0.035416 0
17.495000 -0.040752 0
17.500000 -0.045122 0
17.505000 -0.048641 0
17.510000 -0.051418 0
17.515000 -0.053556 0
17.520000 -0.055151 0
17.525000 -0.056286 0
17.530000 -0.057037 0
17.535000 -0.057471 0
17.540000 -0.057646 0
17.545000 -0.057610 0
17.550000 -0.057405 0
17.555000 -0.057067 0
17.560000 -0.056623 0
17.565000 -0.056098 0
17.570000 -0.055348 0
17.575000 -0.054564 0
17.580000 -0.053784 0
17.585000 -0.053008 0
17.590000 -0.052236 0
17.595000 -0.051467 0
17.600000 -0.050703 0
17.605000 -0.049942 0
17.610000 -0.049185 0
17.615000 -0.048432 0
17.620000 -0.047682 0
17.625000 -0.046937 0
17.630000 -0.046195 0
17.635000 -0.045456 0
17.640000 -0.044722 0
17.645000 -0.043991 0
17.650000 -0.043263 0
17.655000 -0.042540 0
17.660000 -0.041819 0
17.665000 -0.041102 0
17.670000 -0.040387 0
17.675000 -0.039675 0
17.680000 -0.038964 0
17.685000 -0.038253 0
17.690000 -0.037538 0
17.695000 -0.036815 0
17.700000 -0.036075 0
17.705000 -0.035308 0
17.710000 -0.034495 0
17.715000 -0.033609 0
17.720000 -0.032612 0
17.725000 -0.031447 0
17.730000 -0.030040 0
17.735000 -0.028290 0
17.740000 -0.026064 0
17.745000 -0.023199 0
17.750000 -0.019493 0
17.755000 -0.014712 0
17.760000 -0.008594 0
17.765000 -0.000858 0
17.770000 0.008773 0
17.775000 0.020552 0
17.780000 0.034674 0
17.785000 0.051245 0
17.790000 0.070245 0
17.795000 0.091496 0
17.800000 0.114642 0
17.805000 0.139132 0
17.810000 0.164233 0
17.815000 0.189052 0
17.820000 0.212583 0
17.825000 0.233772 0
17.830000 0.251592 0
17.835000 0.265124 0
17.840000 0.273635 0
17.845000 0.276645 1
17.850000 0.273969 0
17.855000 0.265734 0
17.860000 0.252370 0
17.865000 0.234575 0
17.870000 0.213246 0
17.875000 0.189413 0
17.880000 0.164150 0
17.885000 0.138497 0
17.890000 0.113391 0
17.895000 0.089600 0
17.900000 0.067663 0
17.905000 0.047800 0
17.910000 0.029751 0
17.915000 0.012542 0
17.920000 -0.005753 0
17.925000 -0.027951 0
17.930000 -0.056998 0
17.935000 -0.094213 0
17.940000 -0.136966 0
17.945000 -0.176982 0
17.950000 -0.200552 2
17.955000 -0.190840 0
17.960000 -0.131157 0
17.965000 -0.008281 0
17.970000 0.183271 0
17.975000 0.434514 0
17.980000 0.714654 0
17.985000 0.970206 0
17.990000 1.137662 0
17.995000 1.167943 3
18.000000 1.048483 0
18.005000 0.810728 0
18.010000 0.514654 0
18.015000 0.222517 0
18.020000 -0.020394 0
18.025000 -0.191113 0
18.030000 -0.284951 0
18.035000 -0.309997 4
18.040000 -0.283222 0
18.045000 -0.226519 0
18.050000 -0.161255 0
18.055000 -0.102935 0
18.060000 -0.058732 0
18.065000 -0.028701 0
18.070000 -0.009079 0
18.075000 0.004599 0
18.080000 0.015800 0
18.085000 0.026637 0
18.090000 0.038195 0
18.095000 0.050964 0
18.100000 0.065152 0
18.105000 0.080841 0
18.110000 0.098049 0
18.115000 0.116749 0
18.120000 0.136872 0
18.125000 0.158302 0
18.130000 0.180879 0
18.135000 0.204393 0
18.140000 0.228587 0
18.145000 0.253159 0
18.150000 0.277768 0
18.155000 0.302038 0
18.160000 0.325568 0
18.165000 0.347944 0
18.170000 0.368746 0
18.175000 0.387566 0
18.180000 0.404015 0
18.185000 0.417743 0
18.190000 0.428443 0
18.195000 0.435869 0
18.200000 0.439840 0
18.205000 0.440251 5
18.210000 0.437073 0
18.215000 0.430356 0
18.220000 0.420230 0
18.225000 0.406895 0
18.230000 0.390619 0
18.235000 0.371726 0
18.240000 0.350588 0
18.245000 0.327606 0
18.250000 0.303206 0
18.255000 0.277819 0
18.260000 0.251870 0
18.265000 0.225767 0
18.270000 0.199893 0
18.275000 0.174592 0
18.280000 0.150167 0
18.285000 0.126874 0
18.290000 0.104919 0
18.295000 0.084459 0
18.300000 0.065603 0
18.305000 0.048411 0
18.310000 0.032904 0
18.315000 0.019067 0
18.320000 0.006851 0
18.325000 -0.003817 0
18.330000 -0.013030 0
18.335000 -0.020895 0
18.340000 -0.027527 0
18.345000 -0.033047 0
18.350000 -0.037576 0
18.355000 -0.041232 0
18.360000 -0.044127 0
18.365000 -0.046366 0
18.370000 -0.048047 0
18.375000 -0.049257 0
18.380000 -0.050073 0
18.385000 -0.050564 0
18.390000 -0.050789 0
18.395000 -0.050799 0
18.400000 -0.050637 0
18.405000 -0.050338 0
18.410000 -0.049931 0
18.415000 -0.049441 0
18.420000 -0.048725 0
18.425000 -0.047974 0
18.430000 -0.047227 0
18.435000 -0.046483 0
18.440000 -0.045744 0
18.445000 -0.045008 0
18.450000 -0.044275 0
18.455000 -0.043547 0
18.460000 -0.042822 0
18.465000 -0.042100 0
18.470000 -0.041382 0
18.475000 -0.040668 0
18.480000 -0.039957 0
18.485000 -0.039250 0
18.490000 -0.038546 0
18.495000 -0.037846 0
18.500000 -0.037149 0
18.505000 -0.036456 0
18.510000 -0.035766 0
18.515000 -0.035079 0
18.520000 -0.034394 0
18.525000 -0.033712 0
18.530000 -0.033030 0
18.535000 -0.032347 0
18.540000 -0.031660 0
18.545000 -0.030963 0
18.550000 -0.030248 0
18.555000 -0.029501 0
18.560000 -0.028704 0
18.565000 -0.027825 0
18.570000 -0.026823 0
18.575000 -0.025636 0
18.580000 -0.024183 0
18.585000 -0.022354 0
18.590000 -0.020006 0
18.595000 -0.016963 0
18.600000 -0.013011 0
18.605000 -0.007903 0
18.610000 -0.001365 0
18.615000 0.006889 0
18.620000 0.017135 0
18.625000 0.029617 0
18.630000 0.044508 0
18.635000 0.061877 0
18.640000 0.081655 0
18.645000 0.103601 0
18.650000 0.127282 0
18.655000 0.152072 0
18.660000 0.177161 0
18.665000 0.201591 0
18.670000 0.224314 0
18.675000 0.244258 0
18.680000 0.260414 0
18.685000 0.271915 0
18.690000 0.278118 0
18.695000 0.278656 1
18.700000 0.273479 0
18.705000 0.262855 0
18.710000 0.247349 0
18.715000 0.227771 0
18.720000 0.205107 0
18.725000 0.180435 0
18.730000 0.154840 0
18.735000 0.129335 0
18.740000 0.104795 0
18.745000 0.081891 0
18.750000 0.061019 0
18.755000 0.042171 0
18.760000 0.024731 0
18.765000 0.007206 0
18.770000 -0.012902 0
18.775000 -0.038688 0
18.780000 -0.072482 0
18.785000 -0.113601 0
18.790000 -0.156140 0
18.795000 -0.188256 0
18.800000 -0.193737 2
18.805000 -0.155164 0
18.810000 -0.057321 0
18.815000 0.108976 0
18.820000 0.340947 0
18.825000 0.615919 0
18.830000 0.886995 0
18.835000 1.090781 0
18.840000 1.169472 3
18.845000 1.099930 0
18.850000 0.900181 0
18.855000 0.619634 0
18.860000 0.318944 0
18.865000 0.049071 0
18.870000 -0.158793 0
18.875000 -0.292491 0
18.880000 -0.353908 0
18.885000 -0.354782 4
18.890000 -0.313552 0
18.895000 -0.251311 0
18.900000 -0.186717 0
18.905000 -0.131908 0
18.910000 -0.091410 0
18.915000 -0.063986 0
18.920000 -0.045703 0
18.925000 -0.032463 0
18.930000 -0.021223 0
18.935000 -0.010158 0
18.940000 0.001668 0
18.945000 0.014686 0
18.950000 0.029081 0
18.955000 0.044928 0
18.960000 0.062245 0
18.965000 0.081008 0
18.970000 0.101154 0
18.975000 0.122581 0
18.980000 0.145141 0
18.985000 0.168645 0
18.990000 0.192862 0
18.995000 0.217515 0
19.000000 0.242294 0
19.005000 0.266853 0
19.010000 0.290823 0
19.015000 0.313817 0
19.020000 0.335441 0
19.025000 0.355306 0
19.030000 0.373037 0
19.035000 0.388286 0
19.040000 0.400745 0
19.045000 0.410149 0
19.050000 0.416295 0
19.055000 0.419042 5
19.060000 0.418316 0
19.065000 0.414118 0
19.070000 0.406520 0
19.075000 0.395662 0
19.080000 0.381750 0
19.085000 0.365051 0
19.090000 0.345878 0
19.095000 0.324586 0
19.100000 0.301557 0
19.105000 0.277193 0
19.110000 0.251897 0
19.115000 0.226071 0
19.120000 0.200098 0
19.125000 0.174337 0
19.130000 0.149115 0
19.135000 0.124719 0
19.140000 0.101395 0
19.145000 0.079344 0
19.150000 0.058719 0
19.155000 0.039633 0
19.160000 0.022152 0
19.165000 0.006305 0
19.170000 -0.007914 0
19.175000 -0.020541 0
19.180000 -0.031637 0
19.185000 -0.041283 0
19.190000 -0.049575 0
19.195000 -0.056620 0
19.200000 -0.062528 0
19.205000 -0.067414 0
19.210000 -0.071391 0
19.215000 -0.074567 0
19.220000 -0.077047 0
19.225000 -0.078926 0
19.230000 -0.080292 0
19.235000 -0.081226 0
19.240000 -0.081797 0
19.245000 -0.082068 0
19.250000 -0.082092 0
19.255000 -0.081916 0
19.260000 -0.081579 0
19.265000 -0.081114 0
19.270000 -0.080548 0
19.275000 -0.079902 0
19.280000 -0.079034 0
19.285000 -0.078132 0
19.290000 -0.077235 0
19.295000 -0.076341 0
19.300000 -0.075453 0
19.305000 -0.074569 0
19.310000 -0.073689 0
19.315000 -0.072813 0
19.320000 -0.071942 0
19.325000 -0.071076 0
19.330000 -0.070213 0
19.335000 -0.069355 0
19.340000 -0.068501 0
19.345000 -0.067652 0
19.350000 -0.066807 0
19.355000 -0.065965 0
19.360000 -0.065128 0
19.365000 -0.064296 0
19.370000 -0.063467 0
19.375000 -0.062642 0
19.380000 -0.061820 0
19.385000 -0.061002 0
19.390000 -0.060186 0
19.395000 -0.059371 0
19.400000 -0.058555 0
19.405000 -0.057735 0
19.410000 -0.056904 0
19.415000 -0.056054 0
19.420000 -0.055173 0
19.425000 -0.054239 0
19.430000 -0.053223 0
19.435000 -0.052085 0
19.440000 -0.050766 0
19.445000 -0.049189 0
19.450000 -0.047250 0
19.455000 -0.044816 0
19.460000 -0.041725 0
19.465000 -0.037777 0
19.470000 -0.032746 0
19.475000 -0.026376 0
19.480000 -0.018400 0
19.485000 -0.008553 0
19.490000 0.003402 0
19.495000 0.017650 0
19.500000 0.034291 0
19.505000 0.053306 0
19.510000 0.074530 0
19.515000 0.097631 0
19.520000 0.122096 0
19.525000 0.147241 0
19.530000 0.172227 0
19.535000 0.196106 0
19.540000 0.217873 0
19.545000 0.236536 0
19.550000 0.251188 0
19.555000 0.261084 0
19.560000 0.265698 1
19.565000 0.264772 0
19.570000 0.258341 0
19.575000 0.246726 0
19.580000 0.230511 0
19.585000 0.210493 0
19.590000 0.187617 0
19.595000 0.162902 0
19.600000 0.137365 0
19.605000 0.111955 0
19.610000 0.087490 0
19.615000 0.064603 0
19.620000 0.043678 0
19.625000 0.024742 0
19.630000 0.007284 0
19.635000 -0.009978 0
19.640000 -0.029248 0
19.645000 -0.053403 0
19.650000 -0.084968 0
19.655000 -0.124252 0
19.660000 -0.167257 0
19.665000 -0.204532 0
19.670000 -0.221948 2
19.675000 -0.203151 0
19.680000 -0.132603 0
19.685000 0.001351 0
19.690000 0.202249 0
19.695000 0.459010 0
19.700000 0.739525 0
19.705000 0.990970 0
19.710000 1.152666 0
19.715000 1.178920 3
19.720000 1.057658 0
19.725000 0.819595 0
19.730000 0.523629 0
19.735000 0.230914 0
19.740000 -0.013771 0
19.745000 -0.187356 0
19.750000 -0.284703 0
19.755000 -0.313256 4
19.760000 -0.289261 0
19.765000 -0.234026 0
19.770000 -0.168755 0
19.775000 -0.109303 0
19.780000 -0.063489 0
19.785000 -0.031962 0
19.790000 -0.011283 0
19.795000 0.002967 0
19.800000 0.014365 0
19.805000 0.025165 0
19.810000 0.036555 0
19.815000 0.049088 0
19.820000 0.063001 0
19.825000 0.078390 0
19.830000 0.095283 0
19.835000 0.113661 0
19.840000 0.133465 0
19.845000 0.154593 0
19.850000 0.176899 0
19.855000 0.200187 0
19.860000 0.224218 0
19.865000 0.248707 0
19.870000 0.273330 0
19.875000 0.297727 0
19.880000 0.321511 0
19.885000 0.344280 0
19.890000 0.365621 0
19.895000 0.385129 0
19.900000 0.402417 0
19.905000 0.417126 0
19.910000 0.428940 0
19.915000 0.437593 0
19.920000 0.442886 0
19.925000 0.444684 5
19.930000 0.442931 0
19.935000 0.437645 0
19.940000 0.428921 0
19.945000 0.416926 0
19.950000 0.401897 0
19.955000 0.384128 0
19.960000 0.363963 0
19.965000 0.341785 0
19.970000 0.318001 0
19.975000 0.293032 0
19.980000 0.267301 0
19.985000 0.241216 0
19.990000 0.215168 0
19.995000 0.189513 0
20.000000 0.164572 0
20.005000 0.140620 0
20.010000 0.117887 0
20.015000 0.096554 0
20.020000 0.076753 0
20.025000 0.058570 0
20.030000 0.042050 0
20.035000 0.027197 0
20.040000 0.013983 0
20.045000 0.002350 0
20.050000 -0.007782 0
20.055000 -0.016508 0
20.060000 -0.023937 0
20.065000 -0.030186 0
20.070000 -0.035372 0
20.075000 -0.039614 0
20.080000 -0.043026 0
20.085000 -0.045716 0
20.090000 -0.047785 0
20.095000 -0.049326 0
20.100000 -0.050421 0
20.105000 -0.051145 0
20.110000 -0.051563 0
20.115000 -0.051729 0
20.120000 -0.051693 0
20.125000 -0.051495 0
20.130000 -0.051167 0
20.135000 -0.050738 0
20.140000 -0.050231 0
20.145000 -0.049509 0
20.150000 -0.048754 0
20.155000 -0.048003 0
20.160000 -0.047256 0
20.165000 -0.046512 0
20.170000 -0.045773 0
20.175000 -0.045036 0
20.180000 -0.044304 0
20.185000 -0.043575 0
20.190000 -0.042850 0
20.195000 -0.042128 0
20.200000 -0.041410 0
20.205000 -0.040696 0
20.210000 -0.039985 0
20.215000 -0.039278 0
20.220000 -0.038574 0
20.225000 -0.037873 0
20.230000 -0.037176 0
20.235000 -0.036483 0
20.240000 -0.035792 0
20.245000 -0.035104 0
20.250000 -0.034418 0
20.255000 -0.033733 0
20.260000 -0.033047 0
20.265000 -0.032357 0
20.270000 -0.031658 0
20.275000 -0.030941 0
20.280000 -0.030196 0
20.285000 -0.029401 0
20.290000 -0.028531 0
20.295000 -0.027544 0
20.300000 -0.026384 0
20.305000 -0.024974 0
20.310000 -0.023208 0
20.315000 -0.020955 0
20.320000 -0.018046 0
20.325000 -0.014277 0
20.330000 -0.009413 0
20.335000 -0.003190 0
20.340000 0.004673 0
20.345000 0.014449 0
20.350000 0.026389 0
20.355000 0.040680 0
20.360000 0.057419 0
20.365000 0.076575 0
20.370000 0.097959 0
20.375000 0.121199 0
20.380000 0.145735 0
20.385000 0.170823 0
20.390000 0.195563 0
20.395000 0.218948 0
20.400000 0.239927 0
20.405000 0.257479 0
20.410000 0.270700 0
20.415000 0.278873 0
20.420000 0.281535 1
20.425000 0.278519 0
20.430000 0.269971 0
20.435000 0.256334 0
20.440000 0.238313 0
20.445000 0.216815 0
20.450000 0.192868 0
20.455000 0.167542 0
20.460000 0.141872 0
20.465000 0.116784 0
20.470000 0.093037 0
20.475000 0.071156 0
20.480000 0.051346 0
20.485000 0.033327 0
20.490000 0.016097 0
20.495000 -0.002293 0
20.500000 -0.024674 0
20.505000 -0.053963 0
20.510000 -0.091397 0
20.515000 -0.134226 0
20.520000 -0.174059 0
20.525000 -0.197133 2
20.530000 -0.186638 0
20.535000 -0.125974 0
20.540000 -0.002058 0
20.545000 0.190411 0
20.550000 0.442222 0
20.555000 0.722400 0
20.560000 0.977441 0
20.565000 1.144056 0
20.570000 1.173520 3
20.575000 1.055469 0
20.580000 0.820668 0
20.585000 0.526039 0
20.590000 0.231624 0
20.595000 -0.017669 0
20.600000 -0.197858 0
20.605000 -0.302645 0
20.610000 -0.338246 4
20.615000 -0.319681 0
20.620000 -0.267348 0
20.625000 -0.202269 0
20.630000 -0.140956 0
20.635000 -0.092357 0
20.640000 -0.058161 0
20.645000 -0.035515 0
20.650000 -0.020110 0
20.655000 -0.008201 0
20.660000 0.002700 0
20.665000 0.013964 0
20.670000 0.026251 0
20.675000 0.039853 0
20.680000 0.054892 0
20.685000 0.071410 0
20.690000 0.089402 0
20.695000 0.108825 0
20.700000 0.129593 0
20.705000 0.151577 0
20.710000 0.174606 0
20.715000 0.198461 0
20.720000 0.222884 0
20.725000 0.247571 0
20.730000 0.272187 0
20.735000 0.296365 0
20.740000 0.319718 0
20.745000 0.341848 0
20.750000 0.362355 0
20.755000 0.380853 0
20.760000 0.396977 0
20.765000 0.410395 0
20.770000 0.420825 0
20.775000 0.428035 0
20.780000 0.431859 0
20.785000 0.432201 5
20.790000 0.429035 0
20.795000 0.422412 0
20.800000 0.412453 0
20.805000 0.399348 0
20.810000 0.383349 0
20.815000 0.364763 0
20.820000 0.343940 0
20.825000 0.321261 0
20.830000 0.297130 0
20.835000 0.271958 0
20.840000 0.246153 0
20.845000 0.220111 0
20.850000 0.194203 0
20.855000 0.168768 0
20.860000 0.144107 0
20.865000 0.120480 0
20.870000 0.098098 0
20.875000 0.077129 0
20.880000 0.057692 0
20.885000 0.039865 0
20.890000 0.023682 0
20.895000 0.009142 0
20.900000 -0.003785 0
20.905000 -0.015160 0
20.910000 -0.025062 0
20.915000 -0.033587 0
20.920000 -0.040841 0
20.925000 -0.046938 0
20.930000 -0.051993 0
20.935000 -0.056121 0
20.940000 -0.059432 0
20.945000 -0.062034 0
20.950000 -0.064023 0
20.955000 -0.065490 0
20.960000 -0.066517 0
20.965000 -0.067175 0
20.970000 -0.067528 0
20.975000 -0.067630 0
20.980000 -0.067530 0
20.985000 -0.067266 0
20.990000 -0.066872 0
20.995000 -0.066376 0
21.000000 -0.065800 0
21.005000 -0.065002 0
21.010000 -0.064170 0
21.015000 -0.063342 0
21.020000 -0.062519 0
21.025000 -0.061699 0
21.030000 -0.060883 0
21.035000 -0.060072 0
21.040000 -0.059264 0
21.045000 -0.058461 0
21.050000 -0.057661 0
21.055000 -0.056866 0
21.060000 -0.056074 0
21.065000 -0.055287 0
21.070000 -0.054503 0
21.075000 -0.053723 0
21.080000 -0.052948 0
21.085000 -0.052175 0
21.090000 -0.051407 0
21.095000 -0.050643 0
21.100000 -0.049881 0
21.105000 -0.049124 0
21.110000 -0.048368 0
21.115000 -0.047615 0
21.120000 -0.046862 0
21.125000 -0.046107 0
21.130000 -0.045346 0
21.135000 -0.044573 0
21.140000 -0.043777 0
21.145000 -0.042945 0
21.150000 -0.042054 0
21.155000 -0.041070 0
21.160000 -0.039950 0
21.165000 -0.038627 0
21.170000 -0.037017 0
21.175000 -0.035007 0
21.180000 -0.032454 0
21.185000 -0.029179 0
21.190000 -0.024973 0
21.195000 -0.019595 0
21.200000 -0.012779 0
21.205000 -0.004254 0
21.210000 0.006243 0
21.215000 0.018940 0
21.220000 0.033995 0
21.225000 0.051472 0
21.230000 0.071299 0
21.235000 0.093246 0
21.240000 0.116905 0
21.245000 0.141687 0
21.250000 0.166828 0
21.255000 0.191426 0
21.260000 0.214486 0
21.265000 0.234983 0
21.270000 0.251937 0
21.275000 0.264492 0
21.280000 0.271983 0
21.285000 0.273995 1
21.290000 0.270404 0
21.295000 0.261384 0
21.300000 0.247393 0
21.305000 0.229139 0
21.310000 0.207515 0
21.315000 0.183526 0
21.320000 0.158217 0
21.325000 0.132593 0
21.330000 0.107554 0
21.335000 0.083838 0
21.340000 0.061961 0
21.345000 0.042128 0
21.350000 0.024090 0
21.355000 0.006911 0
21.360000 -0.011248 0
21.365000 -0.033098 0
21.370000 -0.061533 0
21.375000 -0.098031 0
21.380000 -0.140466 0
21.385000 -0.181393 0
21.390000 -0.208034 2
21.395000 -0.204259 0
21.400000 -0.153640 0
21.405000 -0.042555 0
21.410000 0.136059 0
21.415000 0.376784 0
21.420000 0.654499 0
21.425000 0.921571 0
21.430000 1.116706 0
21.435000 1.186245 3
21.440000 1.104528 0
21.445000 0.891527 0
21.450000 0.603491 0
21.455000 0.305546 0
21.460000 0.048853 0
21.465000 -0.138258 0
21.470000 -0.247538 0
21.475000 -0.284940 4
21.480000 -0.266273 0
21.485000 -0.213296 0
21.490000 -0.148299 0
21.495000 -0.088342 0
21.500000 -0.042060 0
21.505000 -0.010384 0
21.510000 0.010192 0
21.515000 0.024254 0
21.520000 0.035494 0
21.525000 0.046203 0
21.530000 0.057570 0
21.535000 0.070134 0
21.540000 0.084122 0
21.545000 0.099623 0
21.550000 0.116660 0
21.555000 0.135206 0
21.560000 0.155193 0
21.565000 0.176505 0
21.570000 0.198979 0
21.575000 0.222402 0
21.580000 0.246512 0
21.585000 0.271001 0
21.590000 0.295519 0
21.595000 0.319684 0
21.600000 0.343087 0
21.605000 0.365302 0
21.610000 0.385905 0
21.615000 0.404478 0
21.620000 0.420629 0
21.625000 0.434002 0
21.630000 0.444293 0
21.635000 0.451254 0
21.640000 0.454712 5
21.645000 0.454567 0
21.650000 0.450802 0
21.655000 0.443478 0
21.660000 0.432739 0
21.665000 0.418802 0
21.670000 0.401949 0
21.675000 0.382521 0
21.680000 0.360903 0
21.685000 0.337511 0
21.690000 0.312780 0
21.695000 0.287149 0
21.700000 0.261049 0
21.705000 0.234891 0
21.710000 0.209055 0
21.715000 0.183883 0
21.720000 0.159669 0
21.725000 0.136663 0
21.730000 0.115058 0
21.735000 0.095000 0
21.740000 0.076585 0
21.745000 0.059860 0
21.750000 0.044836 0
21.755000 0.031483 0
21.760000 0.019743 0
21.765000 0.009535 0
21.770000 0.000757 0
21.775000 -0.006703 0
21.780000 -0.012967 0
21.785000 -0.018156 0
21.790000 -0.022393 0
21.795000 -0.025797 0
21.800000 -0.028479 0
21.805000 -0.030543 0
21.810000 -0.032083 0
21.815000 -0.033185 0
21.820000 -0.033922 0
21.825000 -0.034360 0
21.830000 -0.034555 0
21.835000 -0.034555 0
21.840000 -0.034399 0
21.845000 -0.034121 0
21.850000 -0.033748 0
21.855000 -0.033268 0
21.860000 -0.032594 0
21.865000 -0.031923 0
21.870000 -0.031256 0
21.875000 -0.030592 0
21.880000 -0.029932 0
21.885000 -0.029275 0
21.890000 -0.028621 0
21.895000 -0.027970 0
21.900000 -0.027323 0
21.905000 -0.026679 0
21.910000 -0.026038 0
21.915000 -0.025400 0
21.920000 -0.024765 0
21.925000 -0.024134 0
21.930000 -0.023506 0
21.935000 -0.022881 0
21.940000 -0.022258 0
21.945000 -0.021639 0
21.950000 -0.021023 0
21.955000 -0.020408 0
21.960000 -0.019796 0
21.965000 -0.019185 0
21.970000 -0.018572 0
21.975000 -0.017956 0
21.980000 -0.017331 0
21.985000 -0.016689 0
21.990000 -0.016018 0
21.995000 -0.015300 0
22.000000 -0.014507 0
22.005000 -0.013596 0
22.010000 -0.012511 0
22.015000 -0.011171 0
22.020000 -0.009469 0
22.025000 -0.007265 0
22.030000 -0.004383 0
22.035000 -0.000610 0
22.040000 0.004303 0
22.045000 0.010631 0
22.050000 0.018667 0
22.055000 0.028694 0
22.060000 0.040964 0
22.065000 0.055659 0
22.070000 0.072857 0
22.075000 0.092493 0
22.080000 0.114329 0
22.085000 0.137931 0
22.090000 0.162661 0
22.095000 0.187696 0
22.100000 0.212060 0
22.105000 0.234682 0
22.110000 0.254472 0
22.115000 0.270403 0
22.120000 0.281601 0
22.125000 0.287422 0
22.130000 0.287511 1
22.135000 0.281839 0
22.140000 0.270706 0
22.145000 0.254711 0
22.150000 0.234701 0
22.155000 0.211696 0
22.160000 0.186798 0
22.165000 0.161109 0
22.170000 0.135646 0
22.175000 0.111274 0
22.180000 0.088639 0
22.185000 0.068086 0
22.190000 0.049516 0
22.195000 0.032153 0
22.200000 0.014275 0
22.205000 -0.006849 0
22.210000 -0.034356 0
22.215000 -0.070146 0
22.220000 -0.112441 0
22.225000 -0.153725 0
22.230000 -0.180561 2
22.235000 -0.175766 0
22.240000 -0.121859 0
22.245000 -0.004623 0
22.250000 0.182488 0
22.255000 0.431349 0
22.260000 0.711209 0
22.265000 0.967265 0
22.270000 1.133813 0
22.275000 1.160306 3
22.280000 1.036849 0
22.285000 0.798084 0
22.290000 0.502167 0
22.295000 0.209334 0
22.300000 -0.036174 0
22.305000 -0.211351 0
22.310000 -0.310816 0
22.315000 -0.341594 4
22.320000 -0.319415 0
22.325000 -0.265141 0
22.330000 -0.199808 0
22.335000 -0.139468 0
22.340000 -0.092373 0
22.345000 -0.059607 0
22.350000 -0.037988 0
22.355000 -0.023153 0
22.360000 -0.011456 0
22.365000 -0.000542 0
22.370000 0.010857 0
22.375000 0.023342 0
22.380000 0.037174 0
22.385000 0.052461 0
22.390000 0.069237 0
22.395000 0.087492 0
22.400000 0.107174 0
22.405000 0.128189 0
22.410000 0.150400 0
22.415000 0.173625 0
22.420000 0.197637 0
22.425000 0.222164 0
22.430000 0.246893 0
22.435000 0.271478 0
22.440000 0.295543 0
22.445000 0.318695 0
22.450000 0.340529 0
22.455000 0.360644 0
22.460000 0.378652 0
22.465000 0.394191 0
22.470000 0.406938 0
22.475000 0.416617 0
22.480000 0.423012 0
22.485000 0.425971 5
22.490000 0.425415 0
22.495000 0.421339 0
22.500000 0.413813 0
22.505000 0.402979 0
22.510000 0.389048 0
22.515000 0.372291 0
22.520000 0.353032 0
22.525000 0.331635 0
22.530000 0.308493 0
22.535000 0.284019 0
22.540000 0.258628 0
22.545000 0.232729 0
22.550000 0.206716 0
22.555000 0.180953 0
22.560000 0.155772 0
22.565000 0.131463 0
22.570000 0.108272 0
22.575000 0.086397 0
22.580000 0.065989 0
22.585000 0.047155 0
22.590000 0.029955 0
22.595000 0.014412 0
22.600000 0.000512 0
22.605000 -0.011788 0
22.610000 -0.022556 0
22.615000 -0.031881 0
22.620000 -0.039863 0
22.625000 -0.046614 0
22.630000 -0.052249 0
22.635000 -0.056885 0
22.640000 -0.060638 0
22.645000 -0.063616 0
22.650000 -0.065924 0
22.655000 -0.067658 0
22.660000 -0.068904 0
22.665000 -0.069741 0
22.670000 -0.070238 0
22.675000 -0.070454 0
22.680000 -0.070442 0
22.685000 -0.070245 0
22.690000 -0.069902 0
22.695000 -0.069441 0
22.700000 -0.068890 0
22.705000 -0.068235 0
22.710000 -0.067386 0
22.715000 -0.066542 0
22.720000 -0.065703 0
22.725000 -0.064867 0
22.730000 -0.064036 0
22.735000 -0.063208 0
22.740000 -0.062385 0
22.745000 -0.061566 0
22.750000 -0.060751 0
22.755000 -0.059940 0
22.760000 -0.059134 0
22.765000 -0.058331 0
22.770000 -0.057532 0
22.775000 -0.056737 0
22.780000 -0.055946 0
22.785000 -0.055159 0
22.790000 -0.054376 0
22.795000 -0.053597 0
22.800000 -0.052821 0
22.805000 -0.052049 0
22.810000 -0.051279 0
22.815000 -0.050512 0
22.820000 -0.049746 0
22.825000 -0.048980 0
22.830000 -0.048208 0
22.835000 -0.047428 0
22.840000 -0.046629 0
22.845000 -0.045799 0
22.850000 -0.044919 0
22.855000 -0.043959 0
22.860000 -0.042878 0
22.865000 -0.041619 0
22.870000 -0.040101 0
22.875000 -0.038222 0
22.880000 -0.035846 0
22.885000 -0.032805 0
22.890000 -0.028896 0
22.895000 -0.023885 0
22.900000 -0.017511 0
22.905000 -0.009498 0
22.910000 0.000424 0
22.915000 0.012498 0
22.920000 0.026909 0
22.925000 0.043748 0
22.930000 0.062984 0
22.935000 0.084429 0
22.940000 0.107719 0
22.945000 0.132302 0
22.950000 0.157451 0
22.955000 0.182282 0
22.960000 0.205807 0
22.965000 0.226991 0
22.970000 0.244826 0
22.975000 0.258413 0
22.980000 0.267032 0
22.985000 0.270207 1
22.990000 0.267750 0
22.995000 0.259776 0
23.000000 0.246697 0
23.005000 0.229182 0
23.010000 0.208105 0
23.015000 0.184468 0
23.020000 0.159324 0
23.025000 0.133702 0
23.030000 0.108532 0
23.035000 0.084591 0
23.040000 0.062436 0
23.045000 0.042331 0
23.050000 0.024098 0
23.055000 0.006901 0
23.060000 -0.010993 0
23.065000 -0.032233 0
23.070000 -0.059789 0
23.075000 -0.095422 0
23.080000 -0.137479 0
23.085000 -0.179030 0
23.090000 -0.207629 2
23.095000 -0.207169 0
23.100000 -0.160946 0
23.105000 -0.054842 0
23.110000 0.118961 0
23.115000 0.356126 0
23.120000 0.632748 0
23.125000 0.901958 0
23.130000 1.102123 0
23.135000 1.178048 3
23.140000 1.104819 0
23.145000 0.899965 0
23.150000 0.616089 0
23.155000 0.316344 0
23.160000 0.052263 0
23.165000 -0.146005 0
23.170000 -0.268036 0
23.175000 -0.317642 4
23.180000 -0.308575 0
23.185000 -0.261024 0
23.190000 -0.196891 0
23.195000 -0.134264 0
23.200000 -0.083649 0
23.205000 -0.047737 0
23.210000 -0.024027 0
23.215000 -0.008134 0
23.220000 0.003902 0
23.225000 0.014757 0
23.230000 0.025912 0
23.235000 0.038083 0
23.240000 0.051580 0
23.245000 0.066533 0
23.250000 0.082988 0
23.255000 0.100940 0
23.260000 0.120342 0
23.265000 0.141107 0
23.270000 0.163100 0
23.275000 0.186141 0
23.280000 0.210005 0
23.285000 0.234420 0
23.290000 0.259073 0
23.295000 0.283612 0
23.300000 0.307659 0
23.305000 0.330812 0
23.310000 0.352662 0
23.315000 0.372800 0
23.320000 0.390829 0
23.325000 0.406380 0
23.330000 0.419124 0
23.335000 0.428777 0
23.340000 0.435119 0
23.345000 0.437996 5
23.350000 0.437327 0
23.355000 0.433108 0
23.360000 0.425412 0
23.365000 0.414386 0
23.370000 0.400247 0
23.375000 0.383274 0
23.380000 0.363798 0
23.385000 0.342192 0
23.390000 0.318859 0
23.395000 0.294218 0
23.400000 0.268693 0
23.405000 0.242699 0
23.410000 0.216632 0
23.415000 0.190860 0
23.420000 0.165716 0
23.425000 0.141489 0
23.430000 0.118422 0
23.435000 0.096709 0
23.440000 0.076498 0
23.445000 0.057886 0
23.450000 0.040930 0
23.455000 0.025645 0
23.460000 0.012011 0
23.465000 -0.000023 0
23.470000 -0.010530 0
23.475000 -0.019602 0
23.480000 -0.027347 0
23.485000 -0.033878 0
23.490000 -0.039313 0
23.495000 -0.043772 0
23.500000 -0.047370 0
23.505000 -0.050217 0
23.510000 -0.052417 0
23.515000 -0.054064 0
23.520000 -0.055244 0
23.525000 -0.056034 0
23.530000 -0.056502 0
23.535000 -0.056704 0
23.540000 -0.056692 0
23.545000 -0.056507 0
23.550000 -0.056186 0
23.555000 -0.055756 0
23.560000 -0.055243 0
23.565000 -0.054499 0
23.570000 -0.053719 0
23.575000 -0.052943 0
23.580000 -0.052171 0
23.585000 -0.051403 0
23.590000 -0.050639 0
23.595000 -0.049878 0
23.600000 -0.049122 0
23.605000 -0.048369 0
23.610000 -0.047620 0
23.615000 -0.046874 0
23.620000 -0.046133 0
23.625000 -0.045395 0
23.630000 -0.044660 0
23.635000 -0.043930 0
23.640000 -0.043203 0
23.645000 -0.042479 0
23.650000 -0.041759 0
23.655000 -0.041043 0
23.660000 -0.040329 0
23.665000 -0.039619 0
23.670000 -0.038911 0
23.675000 -0.038204 0
23.680000 -0.037497 0
23.685000 -0.036787 0
23.690000 -0.036069 0
23.695000 -0.035337 0
23.700000 -0.034578 0
23.705000 -0.033776 0
23.710000 -0.032906 0
23.715000 -0.031929 0
23.720000 -0.030794 0
23.725000 -0.029428 0
23.730000 -0.027734 0
23.735000 -0.025584 0
23.740000 -0.022818 0
23.745000 -0.019242 0
23.750000 -0.014625 0
23.755000 -0.008707 0
23.760000 -0.001212 0
23.765000 0.008139 0
23.770000 0.019604 0
23.775000 0.033388 0
23.780000 0.049611 0
23.785000 0.068273 0
23.790000 0.089219 0
23.795000 0.112121 0
23.800000 0.136455 0
23.805000 0.161516 0
23.810000 0.186431 0
23.815000 0.210210 0
23.820000 0.231803 0
23.825000 0.250174 0
23.830000 0.264387 0
23.835000 0.273677 0
23.840000 0.277524 1
23.845000 0.275698 0
23.850000 0.268278 0
23.855000 0.255651 0
23.860000 0.238474 0
23.865000 0.217620 0
23.870000 0.194099 0
23.875000 0.168984 0
23.880000 0.143323 0
23.885000 0.118070 0
23.890000 0.094025 0
23.895000 0.071766 0
23.900000 0.051571 0
23.905000 0.033271 0
23.910000 0.016026 0
23.915000 -0.001923 0
23.920000 -0.023275 0
23.925000 -0.051043 0
23.930000 -0.086964 0
23.935000 -0.129215 0
23.940000 -0.170511 0
23.945000 -0.197958 2
23.950000 -0.195049 0
23.955000 -0.144866 0
23.960000 -0.033375 0
23.965000 0.146607 0
23.970000 0.389138 0
23.975000 0.667559 0
23.980000 0.931891 0
23.985000 1.118922 0
23.990000 1.175241 3
23.995000 1.082554 0
24.000000 0.865936 0
24.005000 0.578127 0
24.010000 0.279345 0
24.015000 0.017686 0
24.020000 -0.178947 0
24.025000 -0.300965 0
24.030000 -0.352017 4
24.035000 -0.345074 0
24.040000 -0.299261 0
24.045000 -0.235603 0
24.050000 -0.171938 0
24.055000 -0.119212 0
24.060000 -0.080898 0
24.065000 -0.055153 0
24.070000 -0.037896 0
24.075000 -0.025142 0
24.080000 -0.014045 0
24.085000 -0.002938 0
24.090000 0.009016 0
24.095000 0.022199 0
24.100000 0.036774 0
24.105000 0.052806 0
24.110000 0.070306 0
24.115000 0.089243 0
24.120000 0.109551 0
24.125000 0.131120 0
24.130000 0.153799 0
24.135000 0.177391 0
24.140000 0.201658 0
24.145000 0.226322 0
24.150000 0.251064 0
24.155000 0.275538 0
24.160000 0.299372 0
24.165000 0.322176 0
24.170000 0.343560 0
24.175000 0.363133 0
24.180000 0.380527 0
24.185000 0.395398 0
24.190000 0.407441 0
24.195000 0.416404 0
24.200000 0.422088 0
24.205000 0.424362 5
24.210000 0.423162 0
24.215000 0.418498 0
24.220000 0.410451 0
24.225000 0.399169 0
24.230000 0.384866 0
24.235000 0.367815 0
24.240000 0.348334 0
24.245000 0.326781 0
24.250000 0.303543 0
24.255000 0.279019 0
24.260000 0.253614 0
24.265000 0.227726 0
24.270000 0.201736 0
24.275000 0.175999 0
24.280000 0.150837 0
24.285000 0.126532 0
24.290000 0.103324 0
24.295000 0.081408 0
24.300000 0.060934 0
24.305000 0.042006 0
24.310000 0.024687 0
24.315000 0.009003 0
24.320000 -0.005057 0
24.325000 -0.017531 0
24.330000 -0.028484 0
24.335000 -0.037998 0
24.340000 -0.046170 0
24.345000 -0.053107 0
24.350000 -0.058920 0
24.355000 -0.063725 0
24.360000 -0.067632 0
24.365000 -0.070751 0
24.370000 -0.073184 0
24.375000 -0.075026 0
24.380000 -0.076365 0
24.385000 -0.077278 0
24.390000 -0.077836 0
24.395000 -0.078100 0
24.400000 -0.078122 0
24.405000 -0.077949 0
24.410000 -0.077617 0
24.415000 -0.077160 0
24.420000 -0.076605 0
24.425000 -0.075972 0
24.430000 -0.075123 0
24.435000 -0.074240 0
24.440000 -0.073362 0
24.445000 -0.072488 0
24.450000 -0.071619 0
24.455000 -0.070754 0
24.460000 -0.069893 0
24.465000 -0.069037 0
24.470000 -0.068184 0
24.475000 -0.067336 0
24.480000 -0.066493 0
24.485000 -0.065653 0
24.490000 -0.064818 0
24.495000 -0.063987 0
24.500000 -0.063160 0
24.505000 -0.062337 0
24.510000 -0.061518 0
24.515000 -0.060703 0
24.520000 -0.059892 0
24.525000 -0.059085 0
24.530000 -0.058281 0
24.535000 -0.057480 0
24.540000 -0.056682 0
24.545000 -0.055884 0
24.550000 -0.055085 0
24.555000 -0.054281 0
24.560000 -0.053466 0
24.565000 -0.052631 0
24.570000 -0.051763 0
24.575000 -0.050841 0
24.580000 -0.049835 0
24.585000 -0.048702 0
24.590000 -0.047384 0
24.595000 -0.045801 0
24.600000 -0.043848 0
24.605000 -0.041391 0
24.610000 -0.038264 0
24.615000 -0.034266 0
24.620000 -0.029169 0
24.625000 -0.022716 0
24.630000 -0.014642 0
24.635000 -0.004681 0
24.640000 0.007401 0
24.645000 0.021784 0
24.650000 0.038560 0
24.655000 0.057702 0
24.660000 0.079037 0
24.665000 0.102220 0
24.670000 0.126731 0
24.675000 0.151875 0
24.680000 0.176808 0
24.685000 0.200578 0
24.690000 0.222179 0
24.695000 0.240625 0
24.700000 0.255016 0
24.705000 0.264620 0
24.710000 0.268924 1
24.715000 0.267688 0
24.720000 0.260960 0
24.725000 0.249076 0
24.730000 0.232632 0
24.735000 0.212433 0
24.740000 0.189427 0
24.745000 0.164634 0
24.750000 0.139068 0
24.755000 0.113670 0
24.760000 0.089252 0
24.765000 0.066434 0
24.770000 0.045587 0
24.775000 0.026717 0
24.780000 0.009287 0
24.785000 -0.008022 0
24.790000 -0.027450 0
24.795000 -0.051880 0
24.800000 -0.083785 0
24.805000 -0.123340 0
24.810000 -0.166347 0
24.815000 -0.203163 0
24.820000 -0.219540 2
24.825000 -0.199127 0
24.830000 -0.126492 0
24.835000 0.009798 0
24.840000 0.212885 0
24.845000 0.471078 0
24.850000 0.751558 0
24.855000 1.001044 0
24.860000 1.159040 0
24.865000 1.180771 3
24.870000 1.056154 0
24.875000 0.815464 0
24.880000 0.518636 0
24.885000 0.227122 0
24.890000 -0.014692 0
24.895000 -0.184427 0
24.900000 -0.277649 0
24.905000 -0.302470 4
24.910000 -0.275741 0
24.915000 -0.219162 0
24.920000 -0.153928 0
24.925000 -0.095478 0
24.930000 -0.051035 0
24.935000 -0.020752 0
24.940000 -0.000947 0
24.945000 0.012818 0
24.950000 0.024021 0
24.955000 0.034802 0
24.960000 0.046269 0
24.965000 0.058927 0
24.970000 0.072990 0
24.975000 0.088545 0
24.980000 0.105611 0
24.985000 0.124166 0
24.990000 0.144143 0
24.995000 0.165432 0
25.000000 0.187877 0
25.005000 0.211273 0
25.010000 0.235371 0
25.015000 0.259876 0
25.020000 0.284452 0
25.025000 0.308730 0
25.030000 0.332316 0
25.035000 0.354799 0
25.040000 0.375764 0
25.045000 0.394804 0
25.050000 0.411532 0
25.055000 0.425593 0
25.060000 0.436678 0
25.065000 0.444535 0
25.070000 0.448975 0
25.075000 0.449882 5
25.080000 0.447216 0
25.085000 0.441014 0
25.090000 0.431393 0
25.095000 0.418539 0
25.100000 0.402709 0
25.105000 0.384214 0
25.110000 0.363414 0
25.115000 0.340704 0
25.120000 0.316501 0
25.125000 0.291233 0
25.130000 0.265322 0
25.135000 0.239178 0
25.140000 0.213186 0
25.145000 0.187695 0
25.150000 0.163016 0
25.155000 0.139411 0
25.160000 0.117098 0
25.165000 0.096241 0
25.170000 0.076960 0
25.175000 0.059325 0
25.180000 0.043367 0
25.185000 0.029079 0
25.190000 0.016419 0
25.195000 0.005322 0
25.200000 -0.004300 0
25.205000 -0.012550 0
25.210000 -0.019541 0
25.215000 -0.025391 0
25.220000 -0.030220 0
25.225000 -0.034147 0
25.230000 -0.037284 0
25.235000 -0.039739 0
25.240000 -0.041609 0
25.245000 -0.042984 0
25.250000 -0.043945 0
25.255000 -0.044562 0
25.260000 -0.044896 0
25.265000 -0.045000 0
25.270000 -0.044919 0
25.275000 -0.044691 0
25.280000 -0.044346 0
25.285000 -0.043911 0
25.290000 -0.043374 0
25.295000 -0.042650 0
25.300000 -0.041930 0
25.305000 -0.041213 0
25.310000 -0.040499 0
25.315000 -0.039789 0
25.320000 -0.039083 0
25.325000 -0.038380 0
25.330000 -0.037681 0
25.335000 -0.036985 0
25.340000 -0.036293 0
25.345000 -0.035604 0
25.350000 -0.034918 0
25.355000 -0.034236 0
25.360000 -0.033558 0
25.365000 -0.032882 0
25.370000 -0.032210 0
25.375000 -0.031542 0
25.380000 -0.030876 0
25.385000 -0.030214 0
25.390000 -0.029554 0
25.395000 -0.028896 0
25.400000 -0.028240 0
25.405000 -0.027583 0
25.410000 -0.026924 0
25.415000 -0.026257 0
25.420000 -0.025577 0
25.425000 -0.024873 0
25.430000 -0.024127 0
25.435000 -0.023317 0
25.440000 -0.022406 0
25.445000 -0.021343 0
25.450000 -0.020058 0
25.455000 -0.018457 0
25.460000 -0.016415 0
25.465000 -0.013774 0
25.470000 -0.010342 0
25.475000 -0.005889 0
25.480000 -0.000158 0
25.485000 0.007132 0
25.490000 0.016261 0
25.495000 0.027493 0
25.500000 0.041041 0
25.505000 0.057033 0
25.510000 0.075480 0
25.515000 0.096239 0
25.520000 0.118989 0
25.525000 0.143217 0
25.530000 0.168219 0
25.535000 0.193123 0
25.540000 0.216936 0
25.545000 0.238599 0
25.550000 0.257065 0
25.555000 0.271383 0
25.560000 0.280777 0
25.565000 0.284714 1
25.570000 0.282953 0
25.575000 0.275571 0
25.580000 0.262953 0
25.585000 0.245759 0
25.590000 0.224869 0
25.595000 0.201303 0
25.600000 0.176142 0
25.605000 0.150443 0
25.610000 0.125168 0
25.615000 0.101120 0
25.620000 0.078875 0
25.625000 0.058705 0
25.630000 0.040423 0
25.635000 0.023151 0
25.640000 0.005073 0
25.645000 -0.016566 0
25.650000 -0.044788 0
25.655000 -0.081211 0
25.660000 -0.123715 0
25.665000 -0.164580 0
25.670000 -0.190470 2
25.675000 -0.184592 0
25.680000 -0.129985 0
25.685000 -0.012878 0
25.690000 0.173135 0
25.695000 0.420484 0
25.700000 0.700030 0
25.705000 0.959353 0
25.710000 1.134497 0
25.715000 1.174243 3
25.720000 1.063945 0
25.725000 0.832673 0
25.730000 0.538671 0
25.735000 0.244222 0
25.740000 -0.004131 0
25.745000 -0.181852 0
25.750000 -0.282911 0
25.755000 -0.314283 4
25.760000 -0.292030 0
25.765000 -0.237536 0
25.770000 -0.172299 0
25.775000 -0.112548 0
25.780000 -0.066394 0
25.785000 -0.034628 0
25.790000 -0.013825 0
25.795000 0.000474 0
25.800000 0.011891 0
25.805000 0.022703 0
25.810000 0.034112 0
25.815000 0.046672 0
25.820000 0.060620 0
25.825000 0.076051 0
25.830000 0.092994 0
25.835000 0.111428 0
25.840000 0.131293 0
25.845000 0.152485 0
25.850000 0.174852 0
25.855000 0.198197 0
25.860000 0.222275 0
25.865000 0.246797 0
25.870000 0.271434 0
25.875000 0.295820 0
25.880000 0.319563 0
25.885000 0.342257 0
25.890000 0.363485 0
25.895000 0.382839 0
25.900000 0.399930 0
25.905000 0.414399 0
25.910000 0.425932 0
25.915000 0.434266 0
25.920000 0.439207 0
25.925000 0.440628 5
25.930000 0.438478 0
25.935000 0.432786 0
25.940000 0.423657 0
25.945000 0.411269 0
25.950000 0.395869 0
25.955000 0.377760 0
25.960000 0.357297 0
25.965000 0.334869 0
25.970000 0.310891 0
25.975000 0.285790 0
25.980000 0.259988 0
25.985000 0.233898 0
25.990000 0.207907 0
25.995000 0.182370 0
26.000000 0.157603 0
26.005000 0.133875 0
26.010000 0.111409 0
26.015000 0.090378 0
26.020000 0.070907 0
26.025000 0.053074 0
26.030000 0.036914 0
26.035000 0.022425 0
26.040000 0.009572 0
26.045000 -0.001709 0
26.050000 -0.011502 0
26.055000 -0.019907 0
26.060000 -0.027038 0
26.065000 -0.033011 0
26.070000 -0.037945 0
26.075000 -0.041960 0
26.080000 -0.045170 0
26.085000 -0.047682 0
26.090000 -0.049595 0
26.095000 -0.051001 0
26.100000 -0.051980 0
26.105000 -0.052606 0
26.110000 -0.052941 0
26.115000 -0.053038 0
26.120000 -0.052943 0
26.125000 -0.052697 0
26.130000 -0.052329 0
26.135000 -0.051868 0
26.140000 -0.051300 0
26.145000 -0.050536 0
26.150000 -0.049776 0
26.155000 -0.049020 0
26.160000 -0.048268 0
26.165000 -0.047519 0
26.170000 -0.046774 0
26.175000 -0.046033 0
26.180000 -0.045296 0
26.185000 -0.044562 0
26.190000 -0.043832 0
26.195000 -0.043105 0
26.200000 -0.042382 0
26.205000 -0.041663 0
26.210000 -0.040947 0
26.215000 -0.040235 0
26.220000 -0.039527 0
26.225000 -0.038821 0
26.230000 -0.038120 0
26.235000 -0.037421 0
26.240000 -0.036725 0
26.245000 -0.036032 0
26.250000 -0.035341 0
26.255000 -0.034650 0
26.260000 -0.033956 0
26.265000 -0.033257 0
26.270000 -0.032546 0
26.275000 -0.031812 0
26.280000 -0.031042 0
26.285000 -0.030212 0
26.290000 -0.029289 0
26.295000 -0.028225 0
26.300000 -0.026955 0
26.305000 -0.025388 0
26.310000 -0.023406 0
26.315000 -0.020858 0
26.320000 -0.017559 0
26.325000 -0.013285 0
26.330000 -0.007785 0
26.335000 -0.000782 0
26.340000 0.008007 0
26.345000 0.018849 0
26.350000 0.031970 0
26.355000 0.047516 0
26.360000 0.065524 0
26.365000 0.085884 0
26.370000 0.108310 0
26.375000 0.132328 0
26.380000 0.157272 0
26.385000 0.182301 0
26.390000 0.206443 0
26.395000 0.228648 0
26.400000 0.247861 0
26.405000 0.263108 0
26.410000 0.273572 0
26.415000 0.278668 1
26.420000 0.278094 0
26.425000 0.271861 0
26.430000 0.260293 0
26.435000 0.243999 0
26.440000 0.223816 0
26.445000 0.200742 0
26.450000 0.175849 0
26.455000 0.150206 0
26.460000 0.124799 0
26.465000 0.100466 0
26.470000 0.077836 0
26.475000 0.057255 0
26.480000 0.038647 0
26.485000 0.021306 0
26.490000 0.003630 0
26.495000 -0.016959 0
26.500000 -0.043527 0
26.505000 -0.078177 0
26.510000 -0.119788 0
26.515000 -0.161938 0
26.520000 -0.192405 0
26.525000 -0.194904 2
26.530000 -0.152250 0
26.535000 -0.049695 0
26.540000 0.121236 0
26.545000 0.356740 0
26.550000 0.632964 0
26.555000 0.902238 0
26.560000 1.101467 0
26.565000 1.174320 3
26.570000 1.096233 0
26.575000 0.886659 0
26.580000 0.600335 0
26.585000 0.301603 0
26.590000 0.041818 0
26.595000 -0.149909 0
26.600000 -0.264418 0
26.605000 -0.306771 4
26.610000 -0.291928 0
26.615000 -0.241018 0
26.620000 -0.176211 0
26.625000 -0.115034 0
26.630000 -0.066909 0
26.635000 -0.033483 0
26.640000 -0.011631 0
26.645000 0.003172 0
26.650000 0.014742 0
26.655000 0.025528 0
26.660000 0.036836 0
26.665000 0.049270 0
26.670000 0.063092 0
26.675000 0.078405 0
26.680000 0.095240 0
26.685000 0.113580 0
26.690000 0.133367 0
26.695000 0.154496 0
26.700000 0.176815 0
26.705000 0.200127 0
26.710000 0.224184 0
26.715000 0.248693 0
26.720000 0.273320 0
26.725000 0.297694 0
26.730000 0.321419 0
26.735000 0.344079 0
26.740000 0.365254 0
26.745000 0.384530 0
26.750000 0.401513 0
26.755000 0.415839 0
26.760000 0.427191 0
26.765000 0.435309 0
26.770000 0.439998 0
26.775000 0.441134 5
26.780000 0.438674 0
26.785000 0.432652 0
26.790000 0.423181 0
26.795000 0.410450 0
26.800000 0.394716 0
26.805000 0.376293 0
26.810000 0.355545 0
26.815000 0.332873 0
26.820000 0.308700 0
26.825000 0.283456 0
26.830000 0.257573 0
26.835000 0.231464 0
26.840000 0.205518 0
26.845000 0.180087 0
26.850000 0.155485 0
26.855000 0.131976 0
26.860000 0.109776 0
26.865000 0.089051 0
26.870000 0.069917 0
26.875000 0.052444 0
26.880000 0.036659 0
26.885000 0.022551 0
26.890000 0.010077 0
26.895000 -0.000834 0
26.900000 -0.010270 0
26.905000 -0.018339 0
26.910000 -0.025155 0
26.915000 -0.030839 0
26.920000 -0.035512 0
26.925000 -0.039293 0
26.930000 -0.042297 0
26.935000 -0.044629 0
26.940000 -0.046388 0
26.945000 -0.047664 0
26.950000 -0.048536 0
26.955000 -0.049074 0
26.960000 -0.049338 0
26.965000 -0.049380 0
26.970000 -0.049244 0
26.975000 -0.048967 0
26.980000 -0.048579 0
26.985000 -0.048105 0
26.990000 -0.047535 0
26.995000 -0.046790 0
27.000000 -0.046049 0
27.005000 -0.045311 0
27.010000 -0.044577 0
27.015000 -0.043847 0
27.020000 -0.043121 0
27.025000 -0.042398 0
27.030000 -0.041678 0
27.035000 -0.040962 0
27.040000 -0.040250 0
27.045000 -0.039542 0
27.050000 -0.038837 0
27.055000 -0.038135 0
27.060000 -0.037437 0
27.065000 -0.036742 0
27.070000 -0.036051 0
27.075000 -0.035363 0
27.080000 -0.034678 0
27.085000 -0.033997 0
27.090000 -0.033318 0
27.095000 -0.032641 0
27.100000 -0.031965 0
27.105000 -0.031287 0
27.110000 -0.030606 0
27.115000 -0.029916 0
27.120000 -0.029207 0
27.125000 -0.028469 0
27.130000 -0.027681 0
27.135000 -0.026813 0
27.140000 -0.025825 0
27.145000 -0.024656 0
27.150000 -0.023225 0
27.155000 -0.021423 0
27.160000 -0.019110 0
27.165000 -0.016110 0
27.170000 -0.012209 0
27.175000 -0.007162 0
27.180000 -0.000694 0
27.185000 0.007481 0
27.190000 0.017643 0
27.195000 0.030037 0
27.200000 0.044841 0
27.205000 0.062128 0
27.210000 0.081833 0
27.215000 0.103720 0
27.220000 0.127360 0
27.225000 0.152129 0
27.230000 0.177218 0
27.235000 0.201669 0
27.240000 0.224428 0
27.245000 0.244421 0
27.250000 0.260633 0
27.255000 0.272191 0
27.260000 0.278445 0
27.265000 0.279026 1
27.270000 0.273879 0
27.275000 0.263272 0
27.280000 0.247772 0
27.285000 0.228191 0
27.290000 0.205520 0
27.295000 0.180839 0
27.300000 0.155238 0
27.305000 0.129735 0
27.310000 0.105206 0
27.315000 0.082322 0
27.320000 0.061476 0
27.325000 0.042654 0
27.330000 0.025225 0
27.335000 0.007671 0
27.340000 -0.012535 0
27.345000 -0.038499 0
27.350000 -0.072517 0
27.355000 -0.113790 0
27.360000 -0.156220 0
27.365000 -0.187748 0
27.370000 -0.192010 2
27.375000 -0.151534 0
27.380000 -0.051194 0
27.385000 0.117901 0
27.390000 0.352307 0
27.395000 0.628263 0
27.400000 0.897677 0
27.405000 1.096596 0
27.410000 1.167964 3
27.415000 1.088782 0
27.420000 0.880909 0
27.425000 0.596333 0
27.430000 0.296663 0
27.435000 0.032117 0
27.440000 -0.167705 0
27.445000 -0.292289 0
27.450000 -0.344963 4
27.455000 -0.338755 0
27.460000 -0.293102 0
27.465000 -0.229440 0
27.470000 -0.165920 0
27.475000 -0.113581 0
27.480000 -0.075795 0
27.485000 -0.050554 0
27.490000 -0.033661 0
27.495000 -0.021105 0
27.500000 -0.010067 0
27.505000 0.001074 0
27.510000 0.013120 0
27.515000 0.026432 0
27.520000 0.041162 0
27.525000 0.057368 0
27.530000 0.075055 0
27.535000 0.094188 0
27.540000 0.114692 0
27.545000 0.136450 0
27.550000 0.159297 0
27.555000 0.183029 0
27.560000 0.207393 0
27.565000 0.232096 0
27.570000 0.256809 0
27.575000 0.281170 0
27.580000 0.304795 0
27.585000 0.327287 0
27.590000 0.348244 0
27.595000 0.367275 0
27.600000 0.384008 0
27.605000 0.398102 0
27.610000 0.409261 0
27.615000 0.417242 0
27.620000 0.421863 0
27.625000 0.423012 5
27.630000 0.420647 0
27.635000 0.414803 0
27.640000 0.405587 0
27.645000 0.393174 0
27.650000 0.377806 0
27.655000 0.359778 0
27.660000 0.339433 0
27.665000 0.317149 0
27.670000 0.293326 0
27.675000 0.268376 0
27.680000 0.242710 0
27.685000 0.216728 0
27.690000 0.190808 0
27.695000 0.165296 0
27.700000 0.140504 0
27.705000 0.116698 0
27.710000 0.094102 0
27.715000 0.072891 0
27.720000 0.053195 0
27.725000 0.035098 0
27.730000 0.018644 0
27.735000 0.003838 0
27.740000 -0.009346 0
27.745000 -0.020963 0
27.750000 -0.031089 0
27.755000 -0.039818 0
27.760000 -0.047255 0
27.765000 -0.053512 0
27.770000 -0.058706 0
27.775000 -0.062951 0
27.780000 -0.066361 0
27.785000 -0.069041 0
27.790000 -0.071092 0
27.795000 -0.072606 0
27.800000 -0.073665 0
27.805000 -0.074344 0
27.810000 -0.074708 0
27.815000 -0.074812 0
27.820000 -0.074706 0
27.825000 -0.074431 0
27.830000 -0.074021 0
27.835000 -0.073504 0
27.840000 -0.072905 0
27.845000 -0.072211 0
27.850000 -0.071343 0
27.855000 -0.070480 0
27.860000 -0.069620 0
27.865000 -0.068765 0
27.870000 -0.067914 0
27.875000 -0.067068 0
27.880000 -0.066225 0
27.885000 -0.065387 0
27.890000 -0.064553 0
27.895000 -0.063723 0
27.900000 -0.062898 0
27.905000 -0.062076 0
27.910000 -0.061258 0
27.915000 -0.060445 0
27.920000 -0.059636 0
27.925000 -0.058830 0
27.930000 -0.058029 0
27.935000 -0.057231 0
27.940000 -0.056437 0
27.945000 -0.055647 0
27.950000 -0.054859 0
27.955000 -0.054074 0
27.960000 -0.053289 0
27.965000 -0.052503 0
27.970000 -0.051711 0
27.975000 -0.050909 0
27.980000 -0.050086 0
27.985000 -0.049228 0
27.990000 -0.048314 0
27.995000 -0.047313 0
28.000000 -0.046180 0
28.005000 -0.044855 0
28.010000 -0.043252 0
28.015000 -0.041263 0
28.020000 -0.038747 0
28.025000 -0.035531 0
28.030000 -0.031406 0
28.035000 -0.026135 0
28.040000 -0.019453 0
28.045000 -0.011088 0
28.050000 -0.000774 0
28.055000 0.011722 0
28.060000 0.026568 0
28.065000 0.043838 0
28.070000 0.063474 0
28.075000 0.085262 0
28.080000 0.108813 0
28.085000 0.133549 0
28.090000 0.158722 0
28.095000 0.183438 0
28.100000 0.206704 0
28.105000 0.227494 0
28.110000 0.244817 0
28.115000 0.257801 0
28.120000 0.265761 0
28.125000 0.268260 1
28.130000 0.265145 0
28.135000 0.256569 0
28.140000 0.242971 0
28.145000 0.225042 0
28.150000 0.203664 0
28.155000 0.179841 0
28.160000 0.154621 0
28.165000 0.129015 0
28.170000 0.103936 0
28.175000 0.080137 0
28.180000 0.058152 0
28.185000 0.038213 0
28.190000 0.020105 0
28.195000 0.002941 0
28.200000 -0.015062 0
28.205000 -0.036580 0
28.210000 -0.064539 0
28.215000 -0.100563 0
28.220000 -0.142783 0
28.225000 -0.184056 0
28.230000 -0.211824 2
28.235000 -0.210023 0
28.240000 -0.162117 0
28.245000 -0.054229 0
28.250000 0.121164 0
28.255000 0.359398 0
28.260000 0.636331 0
28.265000 0.905141 0
28.270000 1.104599 0
28.275000 1.180064 3
28.280000 1.107693 0
28.285000 0.905617 0
28.290000 0.623894 0
28.295000 0.323371 0
28.300000 0.054770 0
28.305000 -0.151151 0
28.310000 -0.282659 0
28.315000 -0.341991 4
28.320000 -0.341189 0
28.325000 -0.298919 0
28.330000 -0.236352 0
28.335000 -0.172026 0
28.340000 -0.117824 0
28.345000 -0.077999 0
28.350000 -0.051133 0
28.355000 -0.033227 0
28.360000 -0.020201 0
28.365000 -0.009062 0
28.370000 0.001968 0
28.375000 0.013793 0
28.380000 0.026826 0
28.385000 0.041246 0
28.390000 0.057124 0
28.395000 0.074474 0
28.400000 0.093271 0
