0.000000 1.164563 3
0.005000 1.049958 0
0.010000 0.762908 0
0.015000 0.400707 0
0.020000 0.062212 0
0.025000 -0.189714 0
0.030000 -0.332572 0
0.035000 -0.372851 4
0.040000 -0.336028 0
0.045000 -0.257779 0
0.050000 -0.172087 0
0.055000 -0.100352 0
0.060000 -0.048517 0
0.065000 -0.012294 0
0.070000 0.015500 0
0.075000 0.040457 0
0.080000 0.065584 0
0.085000 0.092030 0
0.090000 0.119989 0
0.095000 0.149239 0
0.100000 0.179373 0
0.105000 0.209874 0
0.110000 0.240149 0
0.115000 0.269548 0
0.120000 0.297386 0
0.125000 0.322968 0
0.130000 0.345619 0
0.135000 0.364711 0
0.140000 0.379694 0
0.145000 0.390119 0
0.150000 0.395660 0
0.155000 0.396133 5
0.160000 0.391504 0
0.165000 0.381890 0
0.170000 0.367557 0
0.175000 0.348903 0
0.180000 0.326443 0
0.185000 0.300783 0
0.190000 0.272592 0
0.195000 0.242576 0
0.200000 0.211445 0
0.205000 0.179889 0
0.210000 0.148550 0
0.215000 0.118004 0
0.220000 0.088746 0
0.225000 0.061181 0
0.230000 0.035617 0
0.235000 0.012266 0
0.240000 -0.008747 0
0.245000 -0.027380 0
0.250000 -0.043664 0
0.255000 -0.057686 0
0.260000 -0.069578 0
0.265000 -0.079508 0
0.270000 -0.087663 0
0.275000 -0.094238 0
0.280000 -0.099434 0
0.285000 -0.103442 0
0.290000 -0.106442 0
0.295000 -0.108602 0
0.300000 -0.110070 0
0.305000 -0.110975 0
0.310000 -0.111219 0
0.315000 -0.110220 0
0.320000 -0.109225 0
0.325000 -0.108236 0
0.330000 -0.107251 0
0.335000 -0.106271 0
0.340000 -0.105296 0
0.345000 -0.104325 0
0.350000 -0.103359 0
0.355000 -0.102396 0
0.360000 -0.101435 0
0.365000 -0.100473 0
0.370000 -0.099505 0
0.375000 -0.098522 0
0.380000 -0.097509 0
0.385000 -0.096441 0
0.390000 -0.095278 0
0.395000 -0.093956 0
0.400000 -0.092380 0
0.405000 -0.090415 0
0.410000 -0.087870 0
0.415000 -0.084493 0
0.420000 -0.079960 0
0.425000 -0.073880 0
0.430000 -0.065808 0
0.435000 -0.055270 0
0.440000 -0.041810 0
0.445000 -0.025056 0
0.450000 -0.004790 0
0.455000 0.018967 0
0.460000 0.045879 0
0.465000 0.075252 0
0.470000 0.106013 0
0.475000 0.136749 0
0.480000 0.165798 0
0.485000 0.191390 0
0.490000 0.211817 0
0.495000 0.225629 0
0.500000 0.231795 1
0.505000 0.229839 0
0.510000 0.219894 0
0.515000 0.202695 0
0.520000 0.179481 0
0.525000 0.151855 0
0.530000 0.121592 0
0.535000 0.090429 0
0.540000 0.059822 0
0.545000 0.030593 0
0.550000 0.002391 0
0.555000 -0.026952 0
0.560000 -0.061531 0
0.565000 -0.105721 0
0.570000 -0.160016 0
0.575000 -0.215918 0
0.580000 -0.253798 2
0.585000 -0.246338 0
0.590000 -0.165638 0
0.595000 0.008954 0
0.600000 0.280052 0
0.605000 0.615771 0
0.610000 0.938867 0
0.615000 1.144594 0
0.620000 1.151970 3
0.625000 0.953868 0
0.630000 0.621278 0
0.635000 0.258714 0
0.640000 -0.047907 0
0.645000 -0.253984 0
0.650000 -0.350933 0
0.655000 -0.354361 4
0.660000 -0.295323 0
0.665000 -0.210338 0
0.670000 -0.128978 0
0.675000 -0.065823 0
0.680000 -0.021534 0
0.685000 0.010205 0
0.690000 0.036215 0
0.695000 0.060958 0
0.700000 0.086529 0
0.705000 0.113576 0
0.710000 0.142075 0
0.715000 0.171708 0
0.720000 0.202017 0
0.725000 0.232450 0
0.730000 0.262388 0
0.735000 0.291163 0
0.740000 0.318083 0
0.745000 0.342459 0
0.750000 0.363632 0
0.755000 0.381004 0
0.760000 0.394065 0
0.765000 0.402415 0
0.770000 0.405788 5
0.775000 0.404062 0
0.780000 0.397267 0
0.785000 0.385583 0
0.790000 0.369332 0
0.795000 0.348966 0
0.800000 0.325039 0
0.805000 0.298188 0
0.810000 0.269101 0
0.815000 0.238487 0
0.820000 0.207053 0
0.825000 0.175469 0
0.830000 0.144352 0
0.835000 0.114246 0
0.840000 0.085608 0
0.845000 0.058803 0
0.850000 0.034099 0
0.855000 0.011670 0
0.860000 -0.008395 0
0.865000 -0.026085 0
0.870000 -0.041456 0
0.875000 -0.054616 0
0.880000 -0.065713 0
0.885000 -0.074923 0
0.890000 -0.082439 0
0.895000 -0.088459 0
0.900000 -0.093180 0
0.905000 -0.096790 0
0.910000 -0.099463 0
0.915000 -0.101360 0
0.920000 -0.102619 0
0.925000 -0.103366 0
0.930000 -0.102652 0
0.935000 -0.101695 0
0.940000 -0.100743 0
0.945000 -0.099796 0
0.950000 -0.098853 0
0.955000 -0.097915 0
0.960000 -0.096982 0
0.965000 -0.096052 0
0.970000 -0.095127 0
0.975000 -0.094204 0
0.980000 -0.093282 0
0.985000 -0.092357 0
0.990000 -0.091422 0
0.995000 -0.090468 0
1.000000 -0.089475 0
1.005000 -0.088412 0
1.010000 -0.087230 0
1.015000 -0.085856 0
1.020000 -0.084178 0
1.025000 -0.082040 0
1.030000 -0.079228 0
1.035000 -0.075460 0
1.040000 -0.070385 0
1.045000 -0.063588 0
1.050000 -0.054607 0
1.055000 -0.042971 0
1.060000 -0.028248 0
1.065000 -0.010120 0
1.070000 0.011544 0
1.075000 0.036603 0
1.080000 0.064581 0
1.085000 0.094630 0
1.090000 0.125532 0
1.095000 0.155762 0
1.100000 0.183594 0
1.105000 0.207263 0
1.110000 0.225144 0
1.115000 0.235936 0
1.120000 0.238822 1
1.125000 0.233567 0
1.130000 0.220552 0
1.135000 0.200730 0
1.140000 0.175505 0
1.145000 0.146571 0
1.150000 0.115715 0
1.155000 0.084593 0
1.160000 0.054458 0
1.165000 0.025738 0
1.170000 -0.002575 0
1.175000 -0.033472 0
1.180000 -0.071495 0
1.185000 -0.120090 0
1.190000 -0.176708 0
1.195000 -0.228377 0
1.200000 -0.251709 2
1.205000 -0.218249 0
1.210000 -0.102009 0
1.215000 0.112117 0
1.220000 0.415157 0
1.225000 0.757438 0
1.230000 1.046531 0
1.235000 1.179961 3
1.240000 1.101637 0
1.245000 0.837950 0
1.250000 0.480772 0
1.255000 0.132797 0
1.260000 -0.135701 0
1.265000 -0.296164 0
1.270000 -0.351263 4
1.275000 -0.324172 0
1.280000 -0.249897 0
1.285000 -0.163684 0
1.290000 -0.089338 0
1.295000 -0.034899 0
1.300000 0.002959 0
1.305000 0.031413 0
1.310000 0.056426 0
1.315000 0.081342 0
1.320000 0.107503 0
1.325000 0.135187 0
1.330000 0.164207 0
1.335000 0.194170 0
1.340000 0.224566 0
1.345000 0.254808 0
1.350000 0.284246 0
1.355000 0.312193 0
1.360000 0.337951 0
1.365000 0.360838 0
1.370000 0.380216 0
1.375000 0.395522 0
1.380000 0.406293 0
1.385000 0.412192 0
1.390000 0.413018 5
1.395000 0.408724 0
1.400000 0.399417 0
1.405000 0.385351 0
1.410000 0.366917 0
1.415000 0.344625 0
1.420000 0.319078 0
1.425000 0.290948 0
1.430000 0.260943 0
1.435000 0.229776 0
1.440000 0.198144 0
1.445000 0.166695 0
1.450000 0.136014 0
1.455000 0.106603 0
1.460000 0.078873 0
1.465000 0.053138 0
1.470000 0.029617 0
1.475000 0.008437 0
1.480000 -0.010357 0
1.485000 -0.026792 0
1.490000 -0.040955 0
1.495000 -0.052979 0
1.500000 -0.063030 0
1.505000 -0.071296 0
1.510000 -0.077975 0
1.515000 -0.083267 0
1.520000 -0.087365 0
1.525000 -0.090452 0
1.530000 -0.092694 0
1.535000 -0.094241 0
1.540000 -0.095224 0
1.545000 -0.095545 0
1.550000 -0.094624 0
1.555000 -0.093707 0
1.560000 -0.092795 0
1.565000 -0.091887 0
1.570000 -0.090984 0
1.575000 -0.090085 0
1.580000 -0.089191 0
1.585000 -0.088300 0
1.590000 -0.087412 0
1.595000 -0.086525 0
1.600000 -0.085637 0
1.605000 -0.084742 0
1.610000 -0.083832 0
1.615000 -0.082890 0
1.620000 -0.081892 0
1.625000 -0.080794 0
1.630000 -0.079532 0
1.635000 -0.078010 0
1.640000 -0.076087 0
1.645000 -0.073567 0
1.650000 -0.070194 0
1.655000 -0.065636 0
1.660000 -0.059496 0
1.665000 -0.051322 0
1.670000 -0.040638 0
1.675000 -0.026990 0
1.680000 -0.010011 0
1.685000 0.010499 0
1.690000 0.034494 0
1.695000 0.061606 0
1.700000 0.091100 0
1.705000 0.121862 0
1.710000 0.152441 0
1.715000 0.181148 0
1.720000 0.206198 0
1.725000 0.225895 0
1.730000 0.238816 0
1.735000 0.243986 1
1.740000 0.240993 0
1.745000 0.230047 0
1.750000 0.211955 0
1.755000 0.188019 0
1.760000 0.159884 0
1.765000 0.129343 0
1.770000 0.098120 0
1.775000 0.067617 0
1.780000 0.038533 0
1.785000 0.010288 0
1.790000 -0.019601 0
1.795000 -0.055459 0
1.800000 -0.101416 0
1.805000 -0.156876 0
1.810000 -0.211530 0
1.815000 -0.244017 2
1.820000 -0.226237 0
1.825000 -0.130784 0
1.830000 0.060959 0
1.835000 0.346894 0
1.840000 0.687205 0
1.845000 0.996828 0
1.850000 1.170318 3
1.855000 1.137981 0
1.860000 0.909763 0
1.865000 0.565019 0
1.870000 0.206327 0
1.875000 -0.087702 0
1.880000 -0.279118 0
1.885000 -0.363302 4
1.890000 -0.357860 0
1.895000 -0.294423 0
1.900000 -0.208671 0
1.905000 -0.128448 0
1.910000 -0.066750 0
1.915000 -0.023450 0
1.920000 0.007846 0
1.925000 0.033743 0
1.930000 0.058506 0
1.935000 0.084121 0
1.940000 0.111202 0
1.945000 0.139717 0
1.950000 0.169354 0
1.955000 0.199665 0
1.960000 0.230111 0
1.965000 0.260086 0
1.970000 0.288936 0
1.975000 0.315985 0
1.980000 0.340556 0
1.985000 0.362001 0
1.990000 0.379728 0
1.995000 0.393227 0
2.000000 0.402098 0
2.005000 0.406064 5
2.010000 0.404987 0
2.015000 0.398880 0
2.020000 0.387898 0
2.025000 0.372340 0
2.030000 0.352626 0
2.035000 0.329288 0
2.040000 0.302936 0
2.045000 0.274238 0
2.050000 0.243888 0
2.055000 0.212580 0
2.060000 0.180981 0
2.065000 0.149710 0
2.070000 0.119318 0
2.075000 0.090276 0
2.080000 0.062964 0
2.085000 0.037670 0
2.090000 0.014590 0
2.095000 -0.006166 0
2.100000 -0.024565 0
2.105000 -0.040645 0
2.110000 -0.054495 0
2.115000 -0.066249 0
2.120000 -0.076074 0
2.125000 -0.084152 0
2.130000 -0.090678 0
2.135000 -0.095845 0
2.140000 -0.099843 0
2.145000 -0.102847 0
2.150000 -0.105020 0
2.155000 -0.106508 0
2.160000 -0.107439 0
2.165000 -0.107709 0
2.170000 -0.106727 0
2.175000 -0.105749 0
2.180000 -0.104777 0
2.185000 -0.103810 0
2.190000 -0.102847 0
2.195000 -0.101889 0
2.200000 -0.100936 0
2.205000 -0.099986 0
2.210000 -0.099040 0
2.215000 -0.098096 0
2.220000 -0.097152 0
2.225000 -0.096202 0
2.230000 -0.095240 0
2.235000 -0.094251 0
2.240000 -0.093213 0
2.245000 -0.092089 0
2.250000 -0.090822 0
2.255000 -0.089327 0
2.260000 -0.087479 0
2.265000 -0.085105 0
2.270000 -0.081973 0
2.275000 -0.077782 0
2.280000 -0.072166 0
2.285000 -0.064700 0
2.290000 -0.054924 0
2.295000 -0.042381 0
2.300000 -0.026675 0
2.305000 -0.007538 0
2.310000 0.015090 0
2.315000 0.040987 0
2.320000 0.069594 0
2.325000 0.099984 0
2.330000 0.130886 0
2.335000 0.160747 0
2.340000 0.187851 0
2.345000 0.210483 0
2.350000 0.227098 0
2.355000 0.236504 0
2.360000 0.237996 1
2.365000 0.231449 0
2.370000 0.217332 0
2.375000 0.196654 0
2.380000 0.170845 0
2.385000 0.141588 0
2.390000 0.110632 0
2.395000 0.079571 0
2.400000 0.049575 0
2.405000 0.020963 0
2.410000 -0.007393 0
2.415000 -0.038570 0
2.420000 -0.077060 0
2.425000 -0.126080 0
2.430000 -0.182789 0
2.435000 -0.234125 0
2.440000 -0.256978 2
2.445000 -0.223430 0
2.450000 -0.108000 0
2.455000 0.104283 0
2.460000 0.405269 0
2.465000 0.747590 0
2.470000 1.041854 0
2.475000 1.186723 3
2.480000 1.122070 0
2.485000 0.867340 0
2.490000 0.512525 0
2.495000 0.161901 0
2.500000 -0.111492 0
2.505000 -0.276997 0
2.510000 -0.336149 4
2.515000 -0.311609 0
2.520000 -0.238385 0
2.525000 -0.152185 0
2.530000 -0.077443 0
2.535000 -0.022645 0
2.540000 0.015385 0
2.545000 0.043861 0
2.550000 0.068825 0
2.555000 0.093674 0
2.560000 0.119769 0
2.565000 0.147395 0
2.570000 0.176361 0
2.575000 0.206270 0
2.580000 0.236610 0
2.585000 0.266786 0
2.590000 0.296143 0
2.595000 0.323989 0
2.600000 0.349620 0
2.605000 0.372349 0
2.610000 0.391535 0
2.615000 0.406615 0
2.620000 0.417127 0
2.625000 0.422734 0
2.630000 0.423245 5
2.635000 0.418618 0
2.640000 0.408970 0
2.645000 0.394564 0
2.650000 0.375803 0
2.655000 0.353209 0
2.660000 0.327394 0
2.665000 0.299040 0
2.670000 0.268859 0
2.675000 0.237573 0
2.680000 0.205879 0
2.685000 0.174425 0
2.690000 0.143794 0
2.695000 0.114483 0
2.700000 0.086896 0
2.705000 0.061339 0
2.710000 0.038023 0
2.715000 0.017067 0
2.720000 -0.001495 0
2.725000 -0.017696 0
2.730000 -0.031630 0
2.735000 -0.043438 0
2.740000 -0.053289 0
2.745000 -0.061376 0
2.750000 -0.067898 0
2.755000 -0.073056 0
2.760000 -0.077044 0
2.765000 -0.080043 0
2.770000 -0.082219 0
2.775000 -0.083720 0
2.780000 -0.084673 0
2.785000 -0.084990 0
2.790000 -0.084122 0
2.795000 -0.083257 0
2.800000 -0.082397 0
2.805000 -0.081542 0
2.810000 -0.080690 0
2.815000 -0.079842 0
2.820000 -0.078999 0
2.825000 -0.078158 0
2.830000 -0.077320 0
2.835000 -0.076483 0
2.840000 -0.075643 0
2.845000 -0.074795 0
2.850000 -0.073928 0
2.855000 -0.073025 0
2.860000 -0.072056 0
2.865000 -0.070975 0
2.870000 -0.069709 0
2.875000 -0.068152 0
2.880000 -0.066151 0
2.885000 -0.063493 0
2.890000 -0.059902 0
2.895000 -0.055026 0
2.900000 -0.048449 0
2.905000 -0.039706 0
2.910000 -0.028317 0
2.915000 -0.013841 0
2.920000 0.004054 0
2.925000 0.025509 0
2.930000 0.050394 0
2.935000 0.078238 0
2.940000 0.108190 0
2.945000 0.139021 0
2.950000 0.169186 0
2.955000 0.196937 0
2.960000 0.220483 0
2.965000 0.238179 0
2.970000 0.248713 0
2.975000 0.251272 1
2.980000 0.245636 0
2.985000 0.232216 0
2.990000 0.212002 0
2.995000 0.186439 0
3.000000 0.157256 0
3.005000 0.126262 0
3.010000 0.095117 0
3.015000 0.065041 0
3.020000 0.036365 0
3.025000 0.007890 0
3.030000 -0.023628 0
3.035000 -0.062851 0
3.040000 -0.112833 0
3.045000 -0.169854 0
3.050000 -0.219241 0
3.055000 -0.236155 2
3.060000 -0.191632 0
3.065000 -0.060400 0
3.070000 0.170019 0
3.075000 0.484698 0
3.080000 0.825054 0
3.085000 1.091999 0
3.090000 1.186131 3
3.095000 1.066650 0
3.100000 0.777347 0
3.105000 0.414794 0
3.110000 0.076384 0
3.115000 -0.175983 0
3.120000 -0.320008 0
3.125000 -0.361880 4
3.130000 -0.326508 0
3.135000 -0.249006 0
3.140000 -0.163158 0
3.145000 -0.090653 0
3.150000 -0.037940 0
3.155000 -0.001096 0
3.160000 0.026969 0
3.165000 0.051931 0
3.170000 0.076921 0
3.175000 0.103174 0
3.180000 0.130934 0
3.185000 0.160008 0
3.190000 0.190004 0
3.195000 0.220423 0
3.200000 0.250688 0
3.205000 0.280160 0
3.210000 0.308168 0
3.215000 0.334026 0
3.220000 0.357063 0
3.225000 0.376652 0
3.230000 0.392235 0
3.235000 0.403354 0
3.240000 0.409665 0
3.245000 0.410964 5
3.250000 0.407190 0
3.255000 0.398432 0
3.260000 0.384924 0
3.265000 0.367036 0
3.270000 0.345255 0
3.275000 0.320161 0
3.280000 0.292405 0
3.285000 0.262678 0
3.290000 0.231682 0
3.295000 0.200105 0
3.300000 0.168593 0
3.305000 0.137733 0
3.310000 0.108036 0
3.315000 0.079924 0
3.320000 0.053726 0
3.325000 0.029679 0
3.330000 0.007929 0
3.335000 -0.011460 0
3.340000 -0.028499 0
3.345000 -0.043258 0
3.350000 -0.055856 0
3.355000 -0.066449 0
3.360000 -0.075215 0
3.365000 -0.082347 0
3.370000 -0.088041 0
3.375000 -0.092489 0
3.380000 -0.095876 0
3.385000 -0.098369 0
3.390000 -0.100123 0
3.395000 -0.101272 0
3.400000 -0.101934 0
3.405000 -0.101214 0
3.410000 -0.100265 0
3.415000 -0.099320 0
3.420000 -0.098380 0
3.425000 -0.097444 0
3.430000 -0.096513 0
3.435000 -0.095587 0
3.440000 -0.094664 0
3.445000 -0.093745 0
3.450000 -0.092829 0
3.455000 -0.091912 0
3.460000 -0.090993 0
3.465000 -0.090063 0
3.470000 -0.089112 0
3.475000 -0.088119 0
3.480000 -0.087052 0
3.485000 -0.085862 0
3.490000 -0.084472 0
3.495000 -0.082768 0
3.500000 -0.080593 0
3.505000 -0.077728 0
3.510000 -0.073892 0
3.515000 -0.068735 0
3.520000 -0.061841 0
3.525000 -0.052755 0
3.530000 -0.041010 0
3.535000 -0.026185 0
3.540000 -0.007970 0
3.545000 0.013759 0
3.550000 0.038856 0
3.555000 0.066845 0
3.560000 0.096886 0
3.565000 0.127776 0
3.570000 0.158011 0
3.575000 0.185887 0
3.580000 0.209661 0
3.585000 0.227722 0
3.590000 0.238774 0
3.595000 0.241992 1
3.600000 0.237117 0
3.605000 0.224498 0
3.610000 0.205044 0
3.615000 0.180121 0
3.620000 0.151388 0
3.625000 0.120610 0
3.630000 0.089442 0
3.635000 0.059169 0
3.640000 0.030316 0
3.645000 0.002059 0
3.650000 -0.028339 0
3.655000 -0.065276 0
3.660000 -0.112513 0
3.665000 -0.168573 0
3.670000 -0.222133 0
3.675000 -0.251300 2
3.680000 -0.228240 0
3.685000 -0.126436 0
3.690000 0.071425 0
3.695000 0.361563 0
3.700000 0.702643 0
3.705000 1.009557 0
3.710000 1.178897 3
3.715000 1.141750 0
3.720000 0.907122 0
3.725000 0.558956 0
3.730000 0.202860 0
3.735000 -0.082831 0
3.740000 -0.262454 0
3.745000 -0.334171 4
3.750000 -0.318444 0
3.755000 -0.249286 0
3.760000 -0.163055 0
3.765000 -0.086077 0
3.770000 -0.028768 0
3.775000 0.010998 0
3.780000 0.040296 0
3.785000 0.065465 0
3.790000 0.090222 0
3.795000 0.116132 0
3.800000 0.143570 0
3.805000 0.172388 0
3.810000 0.202206 0
3.815000 0.232524 0
3.820000 0.262757 0
3.825000 0.292256 0
3.830000 0.320331 0
3.835000 0.346280 0
3.840000 0.369411 0
3.845000 0.389075 0
3.850000 0.404698 0
3.855000 0.415805 0
3.860000 0.422041 0
3.865000 0.423196 5
3.870000 0.419211 0
3.875000 0.410179 0
3.880000 0.396350 0
3.885000 0.378108 0
3.890000 0.355962 0
3.895000 0.330514 0
3.900000 0.302439 0
3.905000 0.272448 0
3.910000 0.241262 0
3.915000 0.209583 0
3.920000 0.178068 0
3.925000 0.147307 0
3.930000 0.117808 0
3.935000 0.089989 0
3.940000 0.064168 0
3.945000 0.040567 0
3.950000 0.019315 0
3.955000 0.000459 0
3.960000 -0.016030 0
3.965000 -0.030238 0
3.970000 -0.042299 0
3.975000 -0.052381 0
3.980000 -0.060674 0
3.985000 -0.067378 0
3.990000 -0.072693 0
3.995000 -0.076814 0
4.000000 -0.079925 0
4.005000 -0.082194 0
4.010000 -0.083769 0
4.015000 -0.084783 0
4.020000 -0.085140 0
4.025000 -0.084271 0
4.030000 -0.083405 0
4.035000 -0.082545 0
4.040000 -0.081688 0
4.045000 -0.080836 0
4.050000 -0.079987 0
4.055000 -0.079143 0
4.060000 -0.078302 0
4.065000 -0.077464 0
4.070000 -0.076626 0
4.075000 -0.075787 0
4.080000 -0.074940 0
4.085000 -0.074076 0
4.090000 -0.073178 0
4.095000 -0.072219 0
4.100000 -0.071155 0
4.105000 -0.069916 0
4.110000 -0.068402 0
4.115000 -0.066465 0
4.120000 -0.063901 0
4.125000 -0.060440 0
4.130000 -0.055741 0
4.135000 -0.049396 0
4.140000 -0.040942 0
4.145000 -0.029900 0
4.150000 -0.015820 0
4.155000 0.001647 0
4.160000 0.022670 0
4.165000 0.047157 0
4.170000 0.074680 0
4.175000 0.104434 0
4.180000 0.135235 0
4.185000 0.165572 0
4.190000 0.193712 0
4.195000 0.217860 0
4.200000 0.236342 0
4.205000 0.247798 0
4.210000 0.251345 1
4.215000 0.246690 0
4.220000 0.234170 0
4.225000 0.214707 0
4.230000 0.189702 0
4.235000 0.160859 0
4.240000 0.129990 0
4.245000 0.098787 0
4.250000 0.068542 0
4.255000 0.039725 0
4.260000 0.011356 0
4.265000 -0.019561 0
4.270000 -0.057621 0
4.275000 -0.106322 0
4.280000 -0.163039 0
4.285000 -0.214494 0
4.290000 -0.236823 2
4.295000 -0.201146 0
4.300000 -0.081321 0
4.305000 0.137294 0
4.310000 0.444015 0
4.315000 0.785943 0
4.320000 1.067446 0
4.325000 1.186026 3
4.330000 1.092006 0
4.335000 0.819986 0
4.340000 0.461179 0
4.345000 0.114425 0
4.350000 -0.153274 0
4.355000 -0.314632 0
4.360000 -0.372064 4
4.365000 -0.347618 0
4.370000 -0.274924 0
4.375000 -0.188460 0
4.380000 -0.112366 0
4.385000 -0.055720 0
4.390000 -0.016107 0
4.395000 0.013319 0
4.400000 0.038652 0
4.405000 0.063510 0
4.410000 0.089455 0
4.415000 0.116891 0
4.420000 0.145701 0
4.425000 0.175538 0
4.430000 0.205931 0
4.435000 0.236330 0
4.440000 0.266120 0
4.445000 0.294645 0
4.450000 0.321231 0
4.455000 0.345210 0
4.460000 0.365947 0
4.465000 0.382868 0
4.470000 0.395489 0
4.475000 0.403432 0
4.480000 0.406449 5
4.485000 0.404433 0
4.490000 0.397420 0
4.495000 0.385594 0
4.500000 0.369271 0
4.505000 0.348894 0
4.510000 0.325003 0
4.515000 0.298217 0
4.520000 0.269205 0
4.525000 0.238658 0
4.530000 0.207264 0
4.535000 0.175679 0
4.540000 0.144508 0
4.545000 0.114289 0
4.550000 0.085474 0
4.555000 0.058430 0
4.560000 0.033429 0
4.565000 0.010655 0
4.570000 -0.009794 0
4.575000 -0.027895 0
4.580000 -0.043693 0
4.585000 -0.057282 0
4.590000 -0.068801 0
4.595000 -0.078416 0
4.600000 -0.086311 0
4.605000 -0.092680 0
4.610000 -0.097714 0
4.615000 -0.101600 0
4.620000 -0.104513 0
4.625000 -0.106611 0
4.630000 -0.108039 0
4.635000 -0.108920 0
4.640000 -0.109156 0
4.645000 -0.108167 0
4.650000 -0.107183 0
4.655000 -0.106203 0
4.660000 -0.105229 0
4.665000 -0.104259 0
4.670000 -0.103294 0
4.675000 -0.102333 0
4.680000 -0.101377 0
4.685000 -0.100424 0
4.690000 -0.099473 0
4.695000 -0.098521 0
4.700000 -0.097564 0
4.705000 -0.096594 0
4.710000 -0.095597 0
4.715000 -0.094550 0
4.720000 -0.093417 0
4.725000 -0.092139 0
4.730000 -0.090632 0
4.735000 -0.088771 0
4.740000 -0.086383 0
4.745000 -0.083236 0
4.750000 -0.079033 0
4.755000 -0.073407 0
4.760000 -0.065939 0
4.765000 -0.056169 0
4.770000 -0.043646 0
4.775000 -0.027973 0
4.780000 -0.008884 0
4.785000 0.013684 0
4.790000 0.039519 0
4.795000 0.068071 0
4.800000 0.098430 0
4.805000 0.129342 0
4.810000 0.159271 0
4.815000 0.186518 0
4.820000 0.209374 0
4.825000 0.226296 0
4.830000 0.236078 0
4.835000 0.237995 1
4.840000 0.231892 0
4.845000 0.218202 0
4.850000 0.197899 0
4.855000 0.172380 0
4.860000 0.143308 0
4.865000 0.112420 0
4.870000 0.081321 0
4.875000 0.051217 0
4.880000 0.022513 0
4.885000 -0.005767 0
4.890000 -0.036509 0
4.895000 -0.074123 0
4.900000 -0.122104 0
4.905000 -0.178441 0
4.910000 -0.231264 0
4.915000 -0.258475 2
4.920000 -0.232514 0
4.925000 -0.127443 0
4.930000 0.073314 0
4.935000 0.365219 0
4.940000 0.706567 0
4.945000 1.012858 0
4.950000 1.182093 3
4.955000 1.145432 0
4.960000 0.910372 0
4.965000 0.561768 0
4.970000 0.206160 0
4.975000 -0.077872 0
4.980000 -0.255012 0
4.985000 -0.324009 4
4.990000 -0.306017 0
4.995000 -0.235653 0
5.000000 -0.149446 0
5.005000 -0.073347 0
5.010000 -0.017136 0
5.015000 0.021781 0
5.020000 0.050618 0
5.025000 0.075629 0
5.030000 0.100396 0
5.035000 0.126379 0
5.040000 0.153902 0
5.045000 0.182785 0
5.050000 0.212634 0
5.055000 0.242933 0
5.060000 0.273085 0
5.065000 0.302428 0
5.070000 0.330264 0
5.075000 0.355883 0
5.080000 0.378589 0
5.085000 0.397735 0
5.090000 0.412753 0
5.095000 0.423175 0
5.100000 0.428665 0
5.105000 0.429031 5
5.110000 0.424235 0
5.115000 0.414397 0
5.120000 0.399789 0
5.125000 0.380824 0
5.130000 0.358031 0
5.135000 0.332035 0
5.140000 0.303524 0
5.145000 0.273221 0
5.150000 0.241854 0
5.155000 0.210123 0
5.160000 0.178681 0
5.165000 0.148108 0
5.170000 0.118900 0
5.175000 0.091455 0
5.180000 0.066076 0
5.185000 0.042964 0
5.190000 0.022230 0
5.195000 0.003903 0
5.200000 -0.012061 0
5.205000 -0.025761 0
5.210000 -0.037344 0
5.215000 -0.046986 0
5.220000 -0.054881 0
5.225000 -0.061232 0
5.230000 -0.066242 0
5.235000 -0.070103 0
5.240000 -0.072998 0
5.245000 -0.075091 0
5.250000 -0.076527 0
5.255000 -0.077435 0
5.260000 -0.076855 0
5.265000 -0.076026 0
5.270000 -0.075202 0
5.275000 -0.074383 0
5.280000 -0.073567 0
5.285000 -0.072755 0
5.290000 -0.071947 0
5.295000 -0.071142 0
5.300000 -0.070341 0
5.305000 -0.069541 0
5.310000 -0.068742 0
5.315000 -0.067938 0
5.320000 -0.067124 0
5.325000 -0.066287 0
5.330000 -0.065408 0
5.335000 -0.064452 0
5.340000 -0.063368 0
5.345000 -0.062074 0
5.350000 -0.060450 0
5.355000 -0.058328 0
5.360000 -0.055475 0
5.365000 -0.051590 0
5.370000 -0.046301 0
5.375000 -0.039168 0
5.380000 -0.029713 0
5.385000 -0.017458 0
5.390000 -0.001981 0
5.395000 0.017001 0
5.400000 0.039554 0
5.405000 0.065442 0
5.410000 0.094066 0
5.415000 0.124438 0
5.420000 0.155199 0
5.425000 0.184703 0
5.430000 0.211150 0
5.435000 0.232760 0
5.440000 0.247970 0
5.445000 0.255622 1
5.450000 0.255103 0
5.455000 0.246430 0
5.460000 0.230249 0
5.465000 0.207750 0
5.470000 0.180529 0
5.475000 0.150387 0
5.480000 0.119124 0
5.485000 0.088277 0
5.490000 0.058780 0
5.495000 0.030416 0
5.500000 0.001138 0
5.505000 -0.033126 0
5.510000 -0.076922 0
5.515000 -0.131059 0
5.520000 -0.187230 0
5.525000 -0.225609 2
5.530000 -0.218300 0
5.535000 -0.136755 0
5.540000 0.040010 0
5.545000 0.314014 0
5.550000 0.651034 0
5.555000 0.970003 0
5.560000 1.163585 3
5.565000 1.153010 0
5.570000 0.939405 0
5.575000 0.600740 0
5.580000 0.239489 0
5.585000 -0.062622 0
5.590000 -0.264156 0
5.595000 -0.357951 0
5.600000 -0.359852 4
5.605000 -0.300442 0
5.610000 -0.215445 0
5.615000 -0.133839 0
5.620000 -0.070117 0
5.625000 -0.025192 0
5.630000 0.007001 0
5.635000 0.033209 0
5.640000 0.057954 0
5.645000 0.083420 0
5.650000 0.110324 0
5.655000 0.138681 0
5.660000 0.168202 0
5.665000 0.198451 0
5.670000 0.228900 0
5.675000 0.258951 0
5.680000 0.287957 0
5.685000 0.315244 0
5.690000 0.340137 0
5.695000 0.361984 0
5.700000 0.380186 0
5.705000 0.394225 0
5.710000 0.403684 0
5.715000 0.408273 5
5.720000 0.407837 0
5.725000 0.402366 0
5.730000 0.392000 0
5.735000 0.377016 0
5.740000 0.357821 0
5.745000 0.334929 0
5.750000 0.308941 0
5.755000 0.280516 0
5.760000 0.250344 0
5.765000 0.219119 0
5.770000 0.187512 0
5.775000 0.156148 0
5.780000 0.125588 0
5.785000 0.096312 0
5.790000 0.068714 0
5.795000 0.043094 0
5.800000 0.019662 0
5.805000 -0.001461 0
5.810000 -0.020231 0
5.815000 -0.036674 0
5.820000 -0.050873 0
5.825000 -0.062957 0
5.830000 -0.073085 0
5.835000 -0.081439 0
5.840000 -0.088210 0
5.845000 -0.093595 0
5.850000 -0.097780 0
5.855000 -0.100945 0
5.860000 -0.103254 0
5.865000 -0.104856 0
5.870000 -0.105881 0
5.875000 -0.106217 0
5.880000 -0.105243 0
5.885000 -0.104273 0
5.890000 -0.103308 0
5.895000 -0.102348 0
5.900000 -0.101393 0
5.905000 -0.100442 0
5.910000 -0.099496 0
5.915000 -0.098554 0
5.920000 -0.097615 0
5.925000 -0.096679 0
5.930000 -0.095743 0
5.935000 -0.094803 0
5.940000 -0.093852 0
5.945000 -0.092877 0
5.950000 -0.091858 0
5.955000 -0.090762 0
5.960000 -0.089537 0
5.965000 -0.088103 0
5.970000 -0.086345 0
5.975000 -0.084101 0
5.980000 -0.081151 0
5.985000 -0.077210 0
5.990000 -0.071925 0
5.995000 -0.064884 0
6.000000 -0.055631 0
6.005000 -0.043708 0
6.010000 -0.028701 0
6.015000 -0.010309 0
6.020000 0.011577 0
6.025000 0.036802 0
6.030000 0.064883 0
6.035000 0.094976 0
6.040000 0.125882 0
6.045000 0.156106 0
6.050000 0.183961 0
6.055000 0.207720 0
6.060000 0.225790 0
6.065000 0.236890 0
6.070000 0.240197 1
6.075000 0.235452 0
6.080000 0.222989 0
6.085000 0.203702 0
6.090000 0.178930 0
6.095000 0.150312 0
6.100000 0.119593 0
6.105000 0.088423 0
6.110000 0.058096 0
6.115000 0.029184 0
6.120000 0.000963 0
6.125000 -0.029154 0
6.130000 -0.065459 0
6.135000 -0.111852 0
6.140000 -0.167454 0
6.145000 -0.221947 0
6.150000 -0.254435 2
6.155000 -0.237610 0
6.160000 -0.144767 0
6.165000 0.042593 0
6.170000 0.323715 0
6.175000 0.662525 0
6.180000 0.979211 0
6.185000 1.171007 3
6.190000 1.163101 0
6.195000 0.953262 0
6.200000 0.614647 0
6.205000 0.254030 0
6.210000 -0.044190 0
6.215000 -0.238532 0
6.220000 -0.323392 4
6.225000 -0.316979 0
6.230000 -0.252352 0
6.235000 -0.166522 0
6.240000 -0.087683 0
6.245000 -0.028144 0
6.250000 0.013180 0
6.255000 0.043213 0
6.260000 0.068559 0
6.265000 0.093234 0
6.270000 0.118979 0
6.275000 0.146252 0
6.280000 0.174935 0
6.285000 0.204661 0
6.290000 0.234935 0
6.295000 0.265173 0
6.300000 0.294727 0
6.305000 0.322905 0
6.310000 0.348998 0
6.315000 0.372309 0
6.320000 0.392183 0
6.325000 0.408034 0
6.330000 0.419377 0
6.335000 0.425849 0
6.340000 0.427230 5
6.345000 0.423453 0
6.350000 0.414606 0
6.355000 0.400932 0
6.360000 0.382815 0
6.365000 0.360761 0
6.370000 0.335376 0
6.375000 0.307335 0
6.380000 0.277356 0
6.385000 0.246163 0
6.390000 0.214465 0
6.395000 0.182922 0
6.400000 0.152130 0
6.405000 0.122602 0
6.410000 0.094758 0
6.415000 0.068918 0
6.420000 0.045306 0
6.425000 0.024051 0
6.430000 0.005200 0
6.435000 -0.011277 0
6.440000 -0.025467 0
6.445000 -0.037507 0
6.450000 -0.047566 0
6.455000 -0.055835 0
6.460000 -0.062515 0
6.465000 -0.067809 0
6.470000 -0.071913 0
6.475000 -0.075010 0
6.480000 -0.077268 0
6.485000 -0.078838 0
6.490000 -0.079850 0
6.495000 -0.080213 0
6.500000 -0.079368 0
6.505000 -0.078528 0
6.510000 -0.077691 0
6.515000 -0.076859 0
6.520000 -0.076031 0
6.525000 -0.075206 0
6.530000 -0.074386 0
6.535000 -0.073569 0
6.540000 -0.072754 0
6.545000 -0.071939 0
6.550000 -0.071122 0
6.555000 -0.070297 0
6.560000 -0.069453 0
6.565000 -0.068573 0
6.570000 -0.067628 0
6.575000 -0.066571 0
6.580000 -0.065329 0
6.585000 -0.063796 0
6.590000 -0.061818 0
6.595000 -0.059181 0
6.600000 -0.055605 0
6.605000 -0.050738 0
6.610000 -0.044160 0
6.615000 -0.035401 0
6.620000 -0.023979 0
6.625000 -0.009452 0
6.630000 0.008512 0
6.635000 0.030049 0
6.640000 0.055020 0
6.645000 0.082937 0
6.650000 0.112930 0
6.655000 0.143748 0
6.660000 0.173825 0
6.665000 0.201394 0
6.670000 0.224655 0
6.675000 0.241965 0
6.680000 0.252028 0
6.685000 0.254056 1
6.690000 0.247871 0
6.695000 0.233925 0
6.700000 0.213252 0
6.705000 0.187334 0
6.710000 0.157925 0
6.715000 0.126843 0
6.720000 0.095736 0
6.725000 0.065773 0
6.730000 0.037179 0
6.735000 0.008565 0
6.740000 -0.023529 0
6.745000 -0.063817 0
6.750000 -0.114921 0
6.755000 -0.172050 0
6.760000 -0.219145 0
6.765000 -0.230352 2
6.770000 -0.176541 0
6.775000 -0.033276 0
6.780000 0.209505 0
6.785000 0.531911 0
6.790000 0.868702 0
6.795000 1.116953 0
6.800000 1.181335 3
6.805000 1.033215 0
6.810000 0.727891 0
6.815000 0.363510 0
6.820000 0.032710 0
6.825000 -0.208511 0
6.830000 -0.341849 0
6.835000 -0.375560 4
6.840000 -0.335383 0
6.845000 -0.256183 0
6.850000 -0.170612 0
6.855000 -0.099048 0
6.860000 -0.047104 0
6.865000 -0.010635 0
6.870000 0.017338 0
6.875000 0.042330 0
6.880000 0.067373 0
6.885000 0.093672 0
6.890000 0.121464 0
6.895000 0.150560 0
6.900000 0.180579 0
6.905000 0.211035 0
6.910000 0.241360 0
6.915000 0.270932 0
6.920000 0.299093 0
6.925000 0.325167 0
6.930000 0.348496 0
6.935000 0.368458 0
6.940000 0.384499 0
6.945000 0.396157 0
6.950000 0.403082 0
6.955000 0.405057 5
6.960000 0.402003 0
6.965000 0.393989 0
6.970000 0.381224 0
6.975000 0.364053 0
6.980000 0.342935 0
6.985000 0.318428 0
6.990000 0.291161 0
6.995000 0.261805 0
7.000000 0.231051 0
7.005000 0.199580 0
7.010000 0.168037 0
7.015000 0.137014 0
7.020000 0.107030 0
7.025000 0.078523 0
7.030000 0.051839 0
7.035000 0.027234 0
7.040000 0.004874 0
7.045000 -0.015156 0
7.050000 -0.032846 0
7.055000 -0.048249 0
7.060000 -0.061469 0
7.065000 -0.072648 0
7.070000 -0.081957 0
7.075000 -0.089580 0
7.080000 -0.095711 0
7.085000 -0.100540 0
7.090000 -0.104252 0
7.095000 -0.107018 0
7.100000 -0.108995 0
7.105000 -0.110322 0
7.110000 -0.111121 0
7.115000 -0.111299 0
7.120000 -0.110299 0
7.125000 -0.109304 0
7.130000 -0.108314 0
7.135000 -0.107329 0
7.140000 -0.106348 0
7.145000 -0.105373 0
7.150000 -0.104402 0
7.155000 -0.103435 0
7.160000 -0.102471 0
7.165000 -0.101510 0
7.170000 -0.100547 0
7.175000 -0.099579 0
7.180000 -0.098596 0
7.185000 -0.097583 0
7.190000 -0.096518 0
7.195000 -0.095360 0
7.200000 -0.094051 0
7.205000 -0.092501 0
7.210000 -0.090582 0
7.215000 -0.088115 0
7.220000 -0.084862 0
7.225000 -0.080519 0
7.230000 -0.074716 0
7.235000 -0.067029 0
7.240000 -0.057000 0
7.245000 -0.044181 0
7.250000 -0.028188 0
7.255000 -0.008769 0
7.260000 0.014116 0
7.265000 0.040226 0
7.270000 0.068982 0
7.275000 0.099449 0
7.280000 0.130349 0
7.285000 0.160134 0
7.290000 0.187106 0
7.295000 0.209567 0
7.300000 0.226001 0
7.305000 0.235239 0
7.310000 0.236596 1
7.315000 0.229959 0
7.320000 0.215800 0
7.325000 0.195121 0
7.330000 0.169336 0
7.335000 0.140111 0
7.340000 0.109176 0
7.345000 0.078114 0
7.350000 0.048093 0
7.355000 0.019459 0
7.360000 -0.008852 0
7.365000 -0.039811 0
7.370000 -0.077847 0
7.375000 -0.126300 0
7.380000 -0.182802 0
7.385000 -0.235061 0
7.390000 -0.260719 2
7.395000 -0.232248 0
7.400000 -0.124005 0
7.405000 0.080020 0
7.410000 0.374343 0
7.415000 0.716065 0
7.420000 1.019955 0
7.425000 1.184584 3
7.430000 1.142614 0
7.435000 0.903180 0
7.440000 0.552910 0
7.445000 0.198603 0
7.450000 -0.082115 0
7.455000 -0.255137 0
7.460000 -0.320209 4
7.465000 -0.299292 0
7.470000 -0.227513 0
7.475000 -0.141347 0
7.480000 -0.066155 0
7.485000 -0.011001 0
7.490000 0.027153 0
7.495000 0.055611 0
7.500000 0.080516 0
7.505000 0.105316 0
7.510000 0.131381 0
7.515000 0.158988 0
7.520000 0.187938 0
7.525000 0.217822 0
7.530000 0.248117 0
7.535000 0.278216 0
7.540000 0.307451 0
7.545000 0.335118 0
7.550000 0.360503 0
7.555000 0.382909 0
7.560000 0.401694 0
7.565000 0.416291 0
7.570000 0.426245 0
7.575000 0.431229 5
7.580000 0.431065 0
7.585000 0.425732 0
7.590000 0.415365 0
7.595000 0.400254 0
7.600000 0.380827 0
7.605000 0.357629 0
7.610000 0.331294 0
7.615000 0.302521 0
7.620000 0.272040 0
7.625000 0.240578 0
7.630000 0.208835 0
7.635000 0.177460 0
7.640000 0.147025 0
7.645000 0.118016 0
7.650000 0.090821 0
7.655000 0.065730 0
7.660000 0.042933 0
7.665000 0.022529 0
7.670000 0.004535 0
7.675000 -0.011102 0
7.680000 -0.024489 0
7.685000 -0.035778 0
7.690000 -0.045150 0
7.695000 -0.052803 0
7.700000 -0.058941 0
7.705000 -0.063766 0
7.710000 -0.067471 0
7.715000 -0.070235 0
7.720000 -0.072222 0
7.725000 -0.073574 0
7.730000 -0.074415 0
7.735000 -0.073838 0
7.740000 -0.073025 0
7.745000 -0.072216 0
7.750000 -0.071411 0
7.755000 -0.070610 0
7.760000 -0.069813 0
7.765000 -0.069019 0
7.770000 -0.068229 0
7.775000 -0.067442 0
7.780000 -0.066656 0
7.785000 -0.065870 0
7.790000 -0.065079 0
7.795000 -0.064274 0
7.800000 -0.063444 0
7.805000 -0.062565 0
7.810000 -0.061600 0
7.815000 -0.060491 0
7.820000 -0.059148 0
7.825000 -0.057443 0
7.830000 -0.055190 0
7.835000 -0.052143 0
7.840000 -0.047981 0
7.845000 -0.042313 0
7.850000 -0.034687 0
7.855000 -0.024617 0
7.860000 -0.011629 0
7.865000 0.004674 0
7.870000 0.024530 0
7.875000 0.047939 0
7.880000 0.074578 0
7.885000 0.103745 0
7.890000 0.134349 0
7.895000 0.164942 0
7.900000 0.193812 0
7.905000 0.219138 0
7.910000 0.239169 0
7.915000 0.252426 0
7.920000 0.257880 1
7.925000 0.255084 0
7.930000 0.244232 0
7.935000 0.226134 0
7.940000 0.202120 0
7.945000 0.173871 0
7.950000 0.143221 0
7.955000 0.111929 0
7.960000 0.081410 0
7.965000 0.052329 0
7.970000 0.023994 0
7.975000 -0.006289 0
7.980000 -0.043036 0
7.985000 -0.090236 0
7.990000 -0.146429 0
7.995000 -0.199710 0
8.000000 -0.226998 2
8.005000 -0.199189 0
8.010000 -0.089056 0
8.015000 0.119977 0
8.020000 0.420284 0
8.025000 0.762394 0
8.030000 1.051974 0
8.035000 1.183628 3
8.040000 1.102541 0
8.045000 0.839372 0
8.050000 0.482945 0
8.055000 0.132985 0
8.060000 -0.141005 0
8.065000 -0.309446 0
8.070000 -0.373177 4
8.075000 -0.353173 0
8.080000 -0.282555 0
8.085000 -0.196087 0
8.090000 -0.118828 0
8.095000 -0.060827 0
8.100000 -0.020235 0
8.105000 0.009686 0
8.110000 0.035167 0
8.115000 0.059998 0
8.120000 0.085850 0
8.125000 0.113188 0
8.130000 0.141917 0
8.135000 0.171701 0
8.140000 0.202080 0
8.145000 0.232506 0
8.150000 0.262372 0
8.155000 0.291024 0
8.160000 0.317789 0
8.165000 0.341997 0
8.170000 0.363013 0
8.175000 0.380256 0
8.180000 0.393236 0
8.185000 0.401565 0
8.190000 0.404987 5
8.195000 0.403380 0
8.200000 0.396772 0
8.205000 0.385333 0
8.210000 0.369370 0
8.215000 0.349314 0
8.220000 0.325698 0
8.225000 0.299136 0
8.230000 0.270291 0
8.235000 0.239855 0
8.240000 0.208514 0
8.245000 0.176928 0
8.250000 0.145707 0
8.255000 0.115393 0
8.260000 0.086447 0
8.265000 0.059242 0
8.270000 0.034059 0
8.275000 0.011089 0
8.280000 -0.009564 0
8.285000 -0.027869 0
8.290000 -0.043865 0
8.295000 -0.057644 0
8.300000 -0.069339 0
8.305000 -0.079115 0
8.310000 -0.087155 0
8.315000 -0.093651 0
8.320000 -0.098796 0
8.325000 -0.102776 0
8.330000 -0.105766 0
8.335000 -0.107929 0
8.340000 -0.109409 0
8.345000 -0.110331 0
8.350000 -0.110592 0
8.355000 -0.109596 0
8.360000 -0.108604 0
8.365000 -0.107618 0
8.370000 -0.106636 0
8.375000 -0.105660 0
8.380000 -0.104688 0
8.385000 -0.103720 0
8.390000 -0.102757 0
8.395000 -0.101797 0
8.400000 -0.100839 0
8.405000 -0.099882 0
8.410000 -0.098920 0
8.415000 -0.097945 0
8.420000 -0.096946 0
8.425000 -0.095899 0
8.430000 -0.094771 0
8.435000 -0.093506 0
8.440000 -0.092023 0
8.445000 -0.090202 0
8.450000 -0.087876 0
8.455000 -0.084820 0
8.460000 -0.080744 0
8.465000 -0.075291 0
8.470000 -0.068045 0
8.475000 -0.058551 0
8.480000 -0.046354 0
8.485000 -0.031050 0
8.490000 -0.012352 0
8.495000 0.009828 0
8.500000 0.035313 0
8.505000 0.063596 0
8.510000 0.093808 0
8.515000 0.124735 0
8.520000 0.154871 0
8.525000 0.182530 0
8.530000 0.205997 0
8.535000 0.223703 0
8.540000 0.234393 0
8.545000 0.237282 1
8.550000 0.232142 0
8.555000 0.219336 0
8.560000 0.199777 0
8.565000 0.174817 0
8.570000 0.146093 0
8.575000 0.115343 0
8.580000 0.084198 0
8.585000 0.053931 0
8.590000 0.025075 0
8.595000 -0.003137 0
8.600000 -0.033336 0
8.605000 -0.069818 0
8.610000 -0.116414 0
8.615000 -0.172103 0
8.620000 -0.226429 0
8.625000 -0.258462 2
8.630000 -0.240992 0
8.635000 -0.147493 0
8.640000 0.040351 0
8.645000 0.321673 0
8.650000 0.660499 0
8.655000 0.977435 0
8.660000 1.170210 3
8.665000 1.164061 0
8.670000 0.955847 0
8.675000 0.617789 0
8.680000 0.257039 0
8.685000 -0.041485 0
8.690000 -0.235998 0
8.695000 -0.320824 4
8.700000 -0.314248 0
8.705000 -0.249472 0
8.710000 -0.163630 0
8.715000 -0.084933 0
8.720000 -0.025608 0
8.725000 0.015529 0
8.730000 0.045448 0
8.735000 0.070752 0
8.740000 0.095427 0
8.745000 0.121191 0
8.750000 0.148489 0
8.755000 0.177193 0
8.760000 0.206932 0
8.765000 0.237206 0
8.770000 0.267426 0
8.775000 0.296941 0
8.780000 0.325055 0
8.785000 0.351057 0
8.790000 0.374248 0
8.795000 0.393971 0
8.800000 0.409642 0
8.805000 0.420780 0
8.810000 0.427025 0
8.815000 0.428163 5
8.820000 0.424133 0
8.825000 0.415032 0
8.830000 0.401112 0
8.835000 0.382763 0
8.840000 0.360502 0
8.845000 0.334939 0
8.850000 0.306757 0
8.855000 0.276676 0
8.860000 0.245425 0
8.865000 0.213710 0
8.870000 0.182193 0
8.875000 0.151466 0
8.880000 0.122038 0
8.885000 0.094323 0
8.890000 0.068635 0
8.895000 0.045192 0
8.900000 0.024118 0
8.905000 0.005452 0
8.910000 -0.010841 0
8.915000 -0.024852 0
8.920000 -0.036723 0
8.925000 -0.046625 0
8.930000 -0.054751 0
8.935000 -0.061304 0
8.940000 -0.066487 0
8.945000 -0.070495 0
8.950000 -0.073512 0
8.955000 -0.075704 0
8.960000 -0.077220 0
8.965000 -0.078190 0
8.970000 -0.078527 0
8.975000 -0.077691 0
8.980000 -0.076858 0
8.985000 -0.076030 0
8.990000 -0.075206 0
8.995000 -0.074386 0
9.000000 -0.073570 0
9.005000 -0.072758 0
9.010000 -0.071948 0
9.015000 -0.071141 0
9.020000 -0.070334 0
9.025000 -0.069524 0
9.030000 -0.068705 0
9.035000 -0.067865 0
9.040000 -0.066985 0
9.045000 -0.066036 0
9.050000 -0.064965 0
9.055000 -0.063698 0
9.060000 -0.062121 0
9.065000 -0.060070 0
9.070000 -0.057324 0
9.075000 -0.053591 0
9.080000 -0.048507 0
9.085000 -0.041641 0
9.090000 -0.032517 0
9.095000 -0.020653 0
9.100000 -0.005617 0
9.105000 0.012898 0
9.110000 0.034992 0
9.115000 0.060473 0
9.120000 0.088792 0
9.125000 0.119010 0
9.130000 0.149816 0
9.135000 0.179593 0
9.140000 0.206549 0
9.145000 0.228891 0
9.150000 0.245017 0
9.155000 0.253703 0
9.160000 0.254261 1
9.165000 0.246626 0
9.170000 0.231363 0
9.175000 0.209601 0
9.180000 0.182894 0
9.185000 0.153031 0
9.190000 0.121823 0
9.195000 0.090861 0
9.200000 0.061180 0
9.205000 0.032747 0
9.210000 0.003780 0
9.215000 -0.029576 0
9.220000 -0.071988 0
9.225000 -0.125040 0
9.230000 -0.181810 0
9.235000 -0.223840 0
9.240000 -0.223867 2
9.245000 -0.152969 0
9.250000 0.011298 0
9.255000 0.274169 0
9.260000 0.606858 0
9.265000 0.933776 0
9.270000 1.148289 0
9.275000 1.164719 3
9.280000 0.975292 0
9.285000 0.648050 0
9.290000 0.284138 0
9.295000 -0.030368 0
9.300000 -0.248419 0
9.305000 -0.358511 0
9.310000 -0.373381 4
9.315000 -0.321568 0
9.320000 -0.238486 0
9.325000 -0.154767 0
9.330000 -0.087451 0
9.335000 -0.039429 0
9.340000 -0.005393 0
9.345000 0.021553 0
9.350000 0.046383 0
9.355000 0.071649 0
9.360000 0.098280 0
9.365000 0.126387 0
9.370000 0.155727 0
9.375000 0.185893 0
9.380000 0.216377 0
9.385000 0.246599 0
9.390000 0.275928 0
9.395000 0.303699 0
9.400000 0.329239 0
9.405000 0.351894 0
9.410000 0.371056 0
9.415000 0.386188 0
9.420000 0.396852 0
9.425000 0.402725 0
9.430000 0.403618 5
9.435000 0.399486 0
9.440000 0.390427 0
9.445000 0.376682 0
9.450000 0.358621 0
9.455000 0.336727 0
9.460000 0.311575 0
9.465000 0.283804 0
9.470000 0.254094 0
9.475000 0.223135 0
9.480000 0.191601 0
9.485000 0.160128 0
9.490000 0.129294 0
9.495000 0.099600 0
9.500000 0.071464 0
9.505000 0.045214 0
9.510000 0.021087 0
9.515000 -0.000771 0
9.520000 -0.020291 0
9.525000 -0.037478 0
9.530000 -0.052396 0
9.535000 -0.065159 0
9.540000 -0.075917 0
9.545000 -0.084843 0
9.550000 -0.092124 0
9.555000 -0.097955 0
9.560000 -0.102525 0
9.565000 -0.106015 0
9.570000 -0.108594 0
9.575000 -0.110415 0
9.580000 -0.111614 0
9.585000 -0.112310 0
9.590000 -0.111552 0
9.595000 -0.110550 0
9.600000 -0.109554 0
9.605000 -0.108563 0
9.610000 -0.107577 0
9.615000 -0.106595 0
9.620000 -0.105618 0
9.625000 -0.104646 0
9.630000 -0.103678 0
9.635000 -0.102712 0
9.640000 -0.101749 0
9.645000 -0.100783 0
9.650000 -0.099810 0
9.655000 -0.098820 0
9.660000 -0.097797 0
9.665000 -0.096714 0
9.670000 -0.095528 0
9.675000 -0.094174 0
9.680000 -0.092556 0
9.685000 -0.090535 0
9.690000 -0.087922 0
9.695000 -0.084463 0
9.700000 -0.079843 0
9.705000 -0.073677 0
9.710000 -0.065532 0
9.715000 -0.054948 0
9.720000 -0.041486 0
9.725000 -0.024782 0
9.730000 -0.004626 0
9.735000 0.018971 0
9.740000 0.045700 0
9.745000 0.074909 0
9.750000 0.105585 0
9.755000 0.136388 0
9.760000 0.165727 0
9.765000 0.191890 0
9.770000 0.213204 0
9.775000 0.228211 0
9.780000 0.235835 1
9.785000 0.235507 0
9.790000 0.227236 0
9.795000 0.211614 0
9.800000 0.189738 0
9.805000 0.163091 0
9.810000 0.133368 0
9.815000 0.102287 0
9.820000 0.071368 0
9.825000 0.041647 0
9.830000 0.013229 0
9.835000 -0.015321 0
9.840000 -0.047372 0
9.845000 -0.087416 0
9.850000 -0.138024 0
9.855000 -0.195024 0
9.860000 -0.243854 0
9.865000 -0.260550 2
9.870000 -0.217391 0
9.875000 -0.090043 0
9.880000 0.134223 0
9.885000 0.443420 0
9.890000 0.785466 0
9.895000 1.068427 0
9.900000 1.193789 3
9.905000 1.106019 0
9.910000 0.834381 0
9.915000 0.474822 0
9.920000 0.131037 0
9.925000 -0.128527 0
9.930000 -0.278013 0
9.935000 -0.322645 4
9.940000 -0.287909 0
9.945000 -0.210305 0
9.950000 -0.124869 0
9.955000 -0.053623 0
9.960000 -0.002518 0
9.965000 0.033002 0
9.970000 0.060305 0
9.975000 0.084992 0
9.980000 0.109994 0
9.985000 0.136381 0
9.990000 0.164295 0
9.995000 0.193479 0
10.000000 0.223498 0
10.005000 0.253807 0
10.010000 0.283787 0
10.015000 0.312760 0
10.020000 0.340018 0
10.025000 0.364848 0
10.030000 0.386564 0
10.035000 0.404535 0
10.040000 0.418216 0
10.045000 0.427178 0
10.050000 0.431121 5
10.055000 0.429901 0
10.060000 0.423526 0
10.065000 0.412167 0
10.070000 0.396142 0
10.075000 0.375903 0
10.080000 0.352016 0
10.085000 0.325131 0
10.090000 0.295956 0
10.095000 0.265220 0
10.100000 0.233648 0
10.105000 0.201933 0
10.110000 0.170706 0
10.115000 0.140525 0
10.120000 0.111856 0
10.125000 0.085067 0
10.130000 0.060427 0
10.135000 0.038107 0
10.140000 0.018189 0
10.145000 0.000676 0
10.150000 -0.014498 0
10.155000 -0.027450 0
10.160000 -0.038340 0
10.165000 -0.047350 0
10.170000 -0.054683 0
10.175000 -0.060541 0
10.180000 -0.065126 0
10.185000 -0.068628 0
10.190000 -0.071224 0
10.195000 -0.073071 0
10.200000 -0.074310 0
10.205000 -0.075062 0
10.210000 -0.074469 0
10.215000 -0.073652 0
10.220000 -0.072840 0
10.225000 -0.072032 0
10.230000 -0.071228 0
10.235000 -0.070428 0
10.240000 -0.069631 0
10.245000 -0.068838 0
10.250000 -0.068047 0
10.255000 -0.067258 0
10.260000 -0.066467 0
10.265000 -0.065670 0
10.270000 -0.064858 0
10.275000 -0.064017 0
10.280000 -0.063121 0
10.285000 -0.062130 0
10.290000 -0.060980 0
10.295000 -0.059575 0
10.300000 -0.057776 0
10.305000 -0.055389 0
10.310000 -0.052150 0
10.315000 -0.047728 0
10.320000 -0.041717 0
10.325000 -0.033657 0
10.330000 -0.023060 0
10.335000 -0.009461 0
10.340000 0.007512 0
10.345000 0.028059 0
10.350000 0.052123 0
10.355000 0.079312 0
10.360000 0.108852 0
10.365000 0.139578 0
10.370000 0.169984 0
10.375000 0.198326 0
10.380000 0.222782 0
10.385000 0.241637 0
10.390000 0.253486 0
10.395000 0.257403 1
10.400000 0.253058 0
10.405000 0.240766 0
10.410000 0.221445 0
10.415000 0.196504 0
10.420000 0.167667 0
10.425000 0.136772 0
10.430000 0.105536 0
10.435000 0.075269 0
10.440000 0.046436 0
10.445000 0.018011 0
10.450000 -0.013097 0
10.455000 -0.051566 0
10.460000 -0.100799 0
10.465000 -0.157709 0
10.470000 -0.208194 0
10.475000 -0.227539 2
10.480000 -0.186389 0
10.485000 -0.058767 0
10.490000 0.168670 0
10.495000 0.481848 0
10.500000 0.822410 0
10.505000 1.090297 0
10.510000 1.184516 3
10.515000 1.066510 0
10.520000 0.778987 0
10.525000 0.416867 0
10.530000 0.076709 0
10.535000 -0.179275 0
10.540000 -0.327901 0
10.545000 -0.374321 4
10.550000 -0.342368 0
10.555000 -0.266390 0
10.560000 -0.180167 0
10.565000 -0.106147 0
10.570000 -0.051756 0
10.575000 -0.013696 0
10.580000 0.014990 0
10.585000 0.040135 0
10.590000 0.065077 0
10.595000 0.091195 0
10.600000 0.118811 0
10.605000 0.147768 0
10.610000 0.177702 0
10.615000 0.208133 0
10.620000 0.238500 0
10.625000 0.268184 0
10.630000 0.296525 0
10.635000 0.322848 0
10.640000 0.346488 0
10.645000 0.366816 0
10.650000 0.383267 0
10.655000 0.395367 0
10.660000 0.402754 0
10.665000 0.405196 5
10.670000 0.402600 0
10.675000 0.395023 0
10.680000 0.382662 0
10.685000 0.365850 0
10.690000 0.345042 0
10.695000 0.320788 0
10.700000 0.293715 0
10.705000 0.264495 0
10.710000 0.233822 0
10.715000 0.202379 0
10.720000 0.170818 0
10.725000 0.139738 0
10.730000 0.109666 0
10.735000 0.081045 0
10.740000 0.054231 0
10.745000 0.029487 0
10.750000 0.006984 0
10.755000 -0.013187 0
10.760000 -0.031013 0
10.765000 -0.046544 0
10.770000 -0.059880 0
10.775000 -0.071164 0
10.780000 -0.080565 0
10.785000 -0.088268 0
10.790000 -0.094467 0
10.795000 -0.099353 0
10.800000 -0.103113 0
10.805000 -0.105918 0
10.810000 -0.107926 0
10.815000 -0.109279 0
10.820000 -0.110100 0
10.825000 -0.110292 0
10.830000 -0.109297 0
10.835000 -0.108307 0
10.840000 -0.107322 0
10.845000 -0.106342 0
10.850000 -0.105367 0
10.855000 -0.104396 0
10.860000 -0.103430 0
10.865000 -0.102468 0
10.870000 -0.101509 0
10.875000 -0.100553 0
10.880000 -0.099595 0
10.885000 -0.098631 0
10.890000 -0.097653 0
10.895000 -0.096646 0
10.900000 -0.095585 0
10.905000 -0.094432 0
10.910000 -0.093128 0
10.915000 -0.091581 0
10.920000 -0.089664 0
10.925000 -0.087196 0
10.930000 -0.083939 0
10.935000 -0.079587 0
10.940000 -0.073767 0
10.945000 -0.066052 0
10.950000 -0.055984 0
10.955000 -0.043112 0
10.960000 -0.027053 0
10.965000 -0.007559 0
10.970000 0.015406 0
10.975000 0.041592 0
10.980000 0.070409 0
10.985000 0.100906 0
10.990000 0.131793 0
10.995000 0.161508 0
11.000000 0.188343 0
11.005000 0.210599 0
11.010000 0.226763 0
11.015000 0.235678 0
11.020000 0.236681 1
11.025000 0.229684 0
11.030000 0.215185 0
11.035000 0.194214 0
11.040000 0.168208 0
11.045000 0.138846 0
11.050000 0.107863 0
11.055000 0.076832 0
11.060000 0.046892 0
11.065000 0.018324 0
11.070000 -0.010049 0
11.075000 -0.041333 0
11.080000 -0.080003 0
11.085000 -0.129188 0
11.090000 -0.185928 0
11.095000 -0.237105 0
11.100000 -0.259683 2
11.105000 -0.225923 0
11.110000 -0.110531 0
11.115000 0.101378 0
11.120000 0.401845 0
11.125000 0.744160 0
11.130000 1.039874 0
11.135000 1.188103 3
11.140000 1.125580 0
11.145000 0.871731 0
11.150000 0.516994 0
11.155000 0.166514 0
11.160000 -0.106176 0
11.165000 -0.270424 0
11.170000 -0.328066 4
11.175000 -0.302221 0
11.180000 -0.228327 0
11.185000 -0.142237 0
11.190000 -0.068145 0
11.195000 -0.014115 0
11.200000 0.023336 0
11.205000 0.051506 0
11.210000 0.076374 0
11.215000 0.101239 0
11.220000 0.127394 0
11.225000 0.155083 0
11.230000 0.184098 0
11.235000 0.214029 0
11.240000 0.244351 0
11.245000 0.274459 0
11.250000 0.303689 0
11.255000 0.331340 0
11.260000 0.356704 0
11.265000 0.379089 0
11.270000 0.397856 0
11.275000 0.412446 0
11.280000 0.422405 0
11.285000 0.427410 5
11.290000 0.427284 0
11.295000 0.422004 0
11.300000 0.411706 0
11.305000 0.396675 0
11.310000 0.377335 0
11.315000 0.354224 0
11.320000 0.327974 0
11.325000 0.299277 0
11.330000 0.268855 0
11.335000 0.237435 0
11.340000 0.205712 0
11.345000 0.174333 0
11.350000 0.143869 0
11.355000 0.114808 0
11.360000 0.087539 0
11.365000 0.062355 0
11.370000 0.039450 0
11.375000 0.018928 0
11.380000 0.000809 0
11.385000 -0.014955 0
11.390000 -0.028468 0
11.395000 -0.039878 0
11.400000 -0.049363 0
11.405000 -0.057119 0
11.410000 -0.063349 0
11.415000 -0.068253 0
11.420000 -0.072026 0
11.425000 -0.074845 0
11.430000 -0.076875 0
11.435000 -0.078259 0
11.440000 -0.079123 0
11.445000 -0.078529 0
11.450000 -0.077693 0
11.455000 -0.076861 0
11.460000 -0.076032 0
11.465000 -0.075208 0
11.470000 -0.074388 0
11.475000 -0.073572 0
11.480000 -0.072759 0
11.485000 -0.071950 0
11.490000 -0.071142 0
11.495000 -0.070334 0
11.500000 -0.069522 0
11.505000 -0.068699 0
11.510000 -0.067852 0
11.515000 -0.066961 0
11.520000 -0.065991 0
11.525000 -0.064888 0
11.530000 -0.063569 0
11.535000 -0.061913 0
11.540000 -0.059746 0
11.545000 -0.056834 0
11.550000 -0.052870 0
11.555000 -0.047479 0
11.560000 -0.040220 0
11.565000 -0.030613 0
11.570000 -0.018181 0
11.575000 -0.002511 0
11.580000 0.016672 0
11.585000 0.039418 0
11.590000 0.065475 0
11.595000 0.094224 0
11.600000 0.124658 0
11.605000 0.155404 0
11.610000 0.184807 0
11.615000 0.211065 0
11.620000 0.232406 0
11.625000 0.247287 0
11.630000 0.254572 1
11.635000 0.253680 0
11.640000 0.244656 0
11.645000 0.228171 0
11.650000 0.205437 0
11.655000 0.178058 0
11.660000 0.147840 0
11.665000 0.116572 0
11.670000 0.085774 0
11.675000 0.056343 0
11.680000 0.028002 0
11.685000 -0.001374 0
11.690000 -0.035916 0
11.695000 -0.080115 0
11.700000 -0.134533 0
11.705000 -0.190471 0
11.710000 -0.227748 2
11.715000 -0.218352 0
11.720000 -0.133893 0
11.725000 0.046168 0
11.730000 0.322961 0
11.735000 0.660885 0
11.740000 0.977645 0
11.745000 1.166004 3
11.750000 1.149075 0
11.755000 0.932022 0
11.760000 0.592020 0
11.765000 0.231182 0
11.770000 -0.069665 0
11.775000 -0.269819 0
11.780000 -0.362502 0
11.785000 -0.363699 4
11.790000 -0.303971 0
11.795000 -0.218906 0
11.800000 -0.137318 0
11.805000 -0.073598 0
11.810000 -0.028642 0
11.815000 0.003592 0
11.820000 0.029831 0
11.825000 0.054593 0
11.830000 0.080064 0
11.835000 0.106967 0
11.840000 0.135322 0
11.845000 0.164844 0
11.850000 0.195100 0
11.855000 0.225564 0
11.860000 0.255643 0
11.865000 0.284693 0
11.870000 0.312042 0
11.875000 0.337018 0
11.880000 0.358970 0
11.885000 0.377301 0
11.890000 0.391490 0
11.895000 0.401121 0
11.900000 0.405898 5
11.905000 0.405662 0
11.910000 0.400399 0
11.915000 0.390241 0
11.920000 0.375461 0
11.925000 0.356457 0
11.930000 0.333737 0
11.935000 0.307898 0
11.940000 0.279592 0
11.945000 0.249507 0
11.950000 0.218334 0
11.955000 0.186745 0
11.960000 0.155364 0
11.965000 0.124753 0
11.970000 0.095398 0
11.975000 0.067696 0
11.980000 0.041951 0
11.985000 0.018379 0
11.990000 -0.002893 0
11.995000 -0.021818 0
12.000000 -0.038416 0
12.005000 -0.052767 0
12.010000 -0.064995 0
12.015000 -0.075258 0
12.020000 -0.083735 0
12.025000 -0.090617 0
12.030000 -0.096097 0
12.035000 -0.100365 0
12.040000 -0.103600 0
12.045000 -0.105967 0
12.050000 -0.107614 0
12.055000 -0.108674 0
12.060000 -0.109260 0
12.065000 -0.108498 0
12.070000 -0.107512 0
12.075000 -0.106531 0
12.080000 -0.105555 0
12.085000 -0.104584 0
12.090000 -0.103617 0
12.095000 -0.102655 0
12.100000 -0.101697 0
12.105000 -0.100743 0
12.110000 -0.099792 0
12.115000 -0.098841 0
12.120000 -0.097887 0
12.125000 -0.096922 0
12.130000 -0.095937 0
12.135000 -0.094911 0
12.140000 -0.093813 0
12.145000 -0.092593 0
12.150000 -0.091178 0
12.155000 -0.089457 0
12.160000 -0.087276 0
12.165000 -0.084424 0
12.170000 -0.080627 0
12.175000 -0.075542 0
12.180000 -0.068765 0
12.185000 -0.059848 0
12.190000 -0.048332 0
12.195000 -0.033792 0
12.200000 -0.015910 0
12.205000 0.005458 0
12.210000 0.030202 0
12.215000 0.057895 0
12.220000 0.087753 0
12.225000 0.118634 0
12.230000 0.149091 0
12.235000 0.177465 0
12.240000 0.202031 0
12.245000 0.221168 0
12.250000 0.233534 0
12.255000 0.238225 1
12.260000 0.234881 0
12.265000 0.223735 0
12.270000 0.205582 0
12.275000 0.181690 0
12.280000 0.153651 0
12.285000 0.123198 0
12.290000 0.092009 0
12.295000 0.061464 0
12.300000 0.032303 0
12.305000 0.004099 0
12.310000 -0.025345 0
12.315000 -0.060063 0
12.320000 -0.104302 0
12.325000 -0.158535 0
12.330000 -0.214605 0
12.335000 -0.253634 2
12.340000 -0.249180 0
12.345000 -0.173925 0
12.350000 -0.007038 0
12.355000 0.255953 0
12.360000 0.587800 0
12.365000 0.917741 0
12.370000 1.144711 0
12.375000 1.183361 3
12.380000 1.011594 0
12.385000 0.690748 0
12.390000 0.326488 0
12.395000 0.010865 0
12.400000 -0.205849 0
12.405000 -0.311854 0
12.410000 -0.321378 4
12.415000 -0.265317 0
12.420000 -0.181017 0
12.425000 -0.099327 0
12.430000 -0.035792 0
12.435000 0.008592 0
12.440000 0.040216 0
12.445000 0.066056 0
12.450000 0.090658 0
12.455000 0.116126 0
12.460000 0.143098 0
12.465000 0.171528 0
12.470000 0.201084 0
12.475000 0.231288 0
12.480000 0.261570 0
12.485000 0.291290 0
12.490000 0.319763 0
12.495000 0.346279 0
12.500000 0.370134 0
12.505000 0.390661 0
12.510000 0.407261 0
12.515000 0.419426 0
12.520000 0.426770 0
12.525000 0.429045 5
12.530000 0.426157 0
12.535000 0.418167 0
12.540000 0.405293 0
12.545000 0.387895 0
12.550000 0.366463 0
12.555000 0.341587 0
12.560000 0.313935 0
12.565000 0.284220 0
12.570000 0.253170 0
12.575000 0.221499 0
12.580000 0.189879 0
12.585000 0.158918 0
12.590000 0.129145 0
12.595000 0.100997 0
12.600000 0.074809 0
12.605000 0.050823 0
12.610000 0.029182 0
12.615000 0.009945 0
12.620000 -0.006906 0
12.625000 -0.021452 0
12.630000 -0.033821 0
12.635000 -0.044180 0
12.640000 -0.052717 0
12.645000 -0.059633 0
12.650000 -0.065131 0
12.655000 -0.069409 0
12.660000 -0.072653 0
12.665000 -0.075034 0
12.670000 -0.076704 0
12.675000 -0.077799 0
12.680000 -0.078221 0
12.685000 -0.077386 0
12.690000 -0.076556 0
12.695000 -0.075729 0
12.700000 -0.074906 0
12.705000 -0.074088 0
12.710000 -0.073273 0
12.715000 -0.072462 0
12.720000 -0.071655 0
12.725000 -0.070850 0
12.730000 -0.070045 0
12.735000 -0.069239 0
12.740000 -0.068425 0
12.745000 -0.067595 0
12.750000 -0.066731 0
12.755000 -0.065805 0
12.760000 -0.064775 0
12.765000 -0.063571 0
12.770000 -0.062092 0
12.775000 -0.060187 0
12.780000 -0.057654 0
12.785000 -0.054218 0
12.790000 -0.049536 0
12.795000 -0.043194 0
12.800000 -0.034727 0
12.805000 -0.023649 0
12.810000 -0.009510 0
12.815000 0.008040 0
12.820000 0.029164 0
12.825000 0.053757 0
12.830000 0.081373 0
12.835000 0.111184 0
12.840000 0.141975 0
12.845000 0.172207 0
12.850000 0.200125 0
12.855000 0.223918 0
12.860000 0.241915 0
12.865000 0.252772 0
12.870000 0.255640 1
12.875000 0.250275 0
12.880000 0.237068 0
12.885000 0.217000 0
12.890000 0.191518 0
12.895000 0.162362 0
12.900000 0.131358 0
12.905000 0.100185 0
12.910000 0.070077 0
12.915000 0.041376 0
12.920000 0.012870 0
12.925000 -0.018723 0
12.930000 -0.058103 0
12.935000 -0.108295 0
12.940000 -0.165372 0
12.945000 -0.214274 0
12.950000 -0.229740 2
12.955000 -0.182550 0
12.960000 -0.047495 0
12.965000 0.187225 0
12.970000 0.504877 0
12.975000 0.844012 0
12.980000 1.103339 0
12.985000 1.184459 3
12.990000 1.053286 0
12.995000 0.757279 0
13.000000 0.393802 0
13.005000 0.058378 0
13.010000 -0.189498 0
13.015000 -0.329179 0
13.020000 -0.367713 4
13.025000 -0.330360 0
13.030000 -0.252144 0
13.035000 -0.166399 0
13.040000 -0.094275 0
13.045000 -0.041877 0
13.050000 -0.005188 0
13.055000 0.022839 0
13.060000 0.047814 0
13.065000 0.072826 0
13.070000 0.099100 0
13.075000 0.126875 0
13.080000 0.155959 0
13.085000 0.185966 0
13.090000 0.216401 0
13.095000 0.246691 0
13.100000 0.276205 0
13.105000 0.304275 0
13.110000 0.330221 0
13.115000 0.353376 0
13.120000 0.373115 0
13.125000 0.388883 0
13.130000 0.400219 0
13.135000 0.406777 0
13.140000 0.408347 5
13.145000 0.404862 0
13.150000 0.396402 0
13.155000 0.383191 0
13.160000 0.365590 0
13.165000 0.344073 0
13.170000 0.319213 0
13.175000 0.291651 0
13.180000 0.262070 0
13.185000 0.231169 0
13.190000 0.199632 0
13.195000 0.168105 0
13.200000 0.137178 0
13.205000 0.107364 0
13.210000 0.079092 0
13.215000 0.052699 0
13.220000 0.028428 0
13.225000 0.006434 0
13.230000 -0.013211 0
13.235000 -0.030509 0
13.240000 -0.045523 0
13.245000 -0.058368 0
13.250000 -0.069192 0
13.255000 -0.078172 0
13.260000 -0.085497 0
13.265000 -0.091362 0
13.270000 -0.095959 0
13.275000 -0.099472 0
13.280000 -0.102071 0
13.285000 -0.103911 0
13.290000 -0.105128 0
13.295000 -0.105842 0
13.300000 -0.105113 0
13.305000 -0.104144 0
13.310000 -0.103180 0
13.315000 -0.102221 0
13.320000 -0.101266 0
13.325000 -0.100316 0
13.330000 -0.099370 0
13.335000 -0.098429 0
13.340000 -0.097492 0
13.345000 -0.096557 0
13.350000 -0.095623 0
13.355000 -0.094688 0
13.360000 -0.093743 0
13.365000 -0.092780 0
13.370000 -0.091781 0
13.375000 -0.090718 0
13.380000 -0.089544 0
13.385000 -0.088191 0
13.390000 -0.086555 0
13.395000 -0.084492 0
13.400000 -0.081798 0
13.405000 -0.078212 0
13.410000 -0.073400 0
13.415000 -0.066966 0
13.420000 -0.058465 0
13.425000 -0.047432 0
13.430000 -0.033431 0
13.435000 -0.016118 0
13.440000 0.004685 0
13.445000 0.028913 0
13.450000 0.056188 0
13.455000 0.085776 0
13.460000 0.116580 0
13.465000 0.147182 0
13.470000 0.175934 0
13.475000 0.201099 0
13.480000 0.221021 0
13.485000 0.234302 0
13.490000 0.239968 1
13.495000 0.237586 0
13.500000 0.227316 0
13.505000 0.209897 0
13.510000 0.186558 0
13.515000 0.158872 0
13.520000 0.128579 0
13.525000 0.097384 0
13.530000 0.066718 0
13.535000 0.037410 0
13.540000 0.009167 0
13.545000 -0.020044 0
13.550000 -0.054155 0
13.555000 -0.097543 0
13.560000 -0.151174 0
13.565000 -0.207638 0
13.570000 -0.248683 2
13.575000 -0.248028 0
13.580000 -0.178008 0
13.585000 -0.016999 0
13.590000 0.240871 0
13.595000 0.570412 0
13.600000 0.902711 0
13.605000 1.136704 0
13.610000 1.184497 3
13.615000 1.021192 0
13.620000 0.705118 0
13.625000 0.340534 0
13.630000 0.020518 0
13.635000 -0.202650 0
13.640000 -0.315376 0
13.645000 -0.330469 4
13.650000 -0.277767 0
13.655000 -0.194308 0
13.660000 -0.111596 0
13.665000 -0.046344 0
13.670000 -0.000488 0
13.675000 0.031999 0
13.680000 0.058170 0
13.685000 0.082794 0
13.690000 0.108155 0
13.695000 0.134990 0
13.700000 0.163299 0
13.705000 0.192774 0
13.710000 0.222955 0
13.715000 0.253283 0
13.720000 0.283133 0
13.725000 0.311828 0
13.730000 0.338664 0
13.735000 0.362942 0
13.740000 0.383993 0
13.745000 0.401210 0
13.750000 0.414075 0
13.755000 0.422187 0
13.760000 0.425277 5
13.765000 0.423228 0
13.770000 0.416077 0
13.775000 0.404014 0
13.780000 0.387375 0
13.785000 0.366624 0
13.790000 0.342334 0
13.795000 0.315155 0
13.800000 0.285788 0
13.805000 0.254957 0
13.810000 0.223373 0
13.815000 0.191714 0
13.820000 0.160597 0
13.825000 0.130565 0
13.830000 0.102069 0
13.835000 0.075465 0
13.840000 0.051011 0
13.845000 0.028870 0
13.850000 0.009117 0
13.855000 -0.008248 0
13.860000 -0.023293 0
13.865000 -0.036137 0
13.870000 -0.046935 0
13.875000 -0.055872 0
13.880000 -0.063144 0
13.885000 -0.068954 0
13.890000 -0.073499 0
13.895000 -0.076968 0
13.900000 -0.079535 0
13.905000 -0.081356 0
13.910000 -0.082569 0
13.915000 -0.083294 0
13.920000 -0.082663 0
13.925000 -0.081806 0
13.930000 -0.080953 0
13.935000 -0.080104 0
13.940000 -0.079260 0
13.945000 -0.078419 0
13.950000 -0.077583 0
13.955000 -0.076750 0
13.960000 -0.075920 0
13.965000 -0.075092 0
13.970000 -0.074263 0
13.975000 -0.073429 0
13.980000 -0.072581 0
13.985000 -0.071707 0
13.990000 -0.070782 0
13.995000 -0.069771 0
14.000000 -0.068612 0
14.005000 -0.067218 0
14.010000 -0.065459 0
14.015000 -0.063151 0
14.020000 -0.060049 0
14.025000 -0.055836 0
14.030000 -0.050125 0
14.035000 -0.042471 0
14.040000 -0.032394 0
14.045000 -0.019427 0
14.050000 -0.003176 0
14.055000 0.016600 0
14.060000 0.039908 0
14.065000 0.066444 0
14.070000 0.095534 0
14.075000 0.126123 0
14.080000 0.156799 0
14.085000 0.185890 0
14.090000 0.211599 0
14.095000 0.232189 0
14.100000 0.246168 0
14.105000 0.252474 1
14.110000 0.250604 0
14.115000 0.240679 0
14.120000 0.223433 0
14.125000 0.200122 0
14.130000 0.172371 0
14.135000 0.141980 0
14.140000 0.110712 0
14.145000 0.080032 0
14.150000 0.050749 0
14.155000 0.022449 0
14.160000 -0.007158 0
14.165000 -0.042302 0
14.170000 -0.087324 0
14.175000 -0.142264 0
14.180000 -0.197679 0
14.185000 -0.232823 2
14.190000 -0.219619 0
14.195000 -0.130116 0
14.200000 0.055354 0
14.205000 0.336437 0
14.210000 0.675565 0
14.215000 0.989096 0
14.220000 1.170550 3
14.225000 1.148259 0
14.230000 0.927594 0
14.235000 0.585764 0
14.240000 0.225781 0
14.245000 -0.071918 0
14.250000 -0.267652 0
14.255000 -0.355704 4
14.260000 -0.353046 0
14.265000 -0.291044 0
14.270000 -0.205548 0
14.275000 -0.124900 0
14.280000 -0.062626 0
14.285000 -0.018905 0
14.290000 0.012593 0
14.295000 0.038537 0
14.300000 0.063270 0
14.305000 0.088829 0
14.310000 0.115852 0
14.315000 0.144315 0
14.320000 0.173911 0
14.325000 0.204190 0
14.330000 0.234613 0
14.335000 0.264574 0
14.340000 0.293417 0
14.345000 0.320464 0
14.350000 0.345035 0
14.355000 0.366481 0
14.360000 0.384206 0
14.365000 0.397701 0
14.370000 0.406560 0
14.375000 0.410508 5
14.380000 0.409406 0
14.385000 0.403265 0
14.390000 0.392244 0
14.395000 0.376640 0
14.400000 0.356878 0
14.405000 0.333490 0
14.410000 0.307090 0
14.415000 0.278347 0
14.420000 0.247957 0
14.425000 0.216618 0
14.430000 0.184997 0
14.435000 0.153714 0
14.440000 0.123321 0
14.445000 0.094288 0
14.450000 0.066995 0
14.455000 0.041728 0
14.460000 0.018683 0
14.465000 -0.002033 0
14.470000 -0.020390 0
14.475000 -0.036424 0
14.480000 -0.050230 0
14.485000 -0.061942 0
14.490000 -0.071726 0
14.495000 -0.079769 0
14.500000 -0.086263 0
14.505000 -0.091405 0
14.510000 -0.095381 0
14.515000 -0.098370 0
14.520000 -0.100534 0
14.525000 -0.102017 0
14.530000 -0.102947 0
14.535000 -0.103223 0
14.540000 -0.102263 0
14.545000 -0.101308 0
14.550000 -0.100358 0
14.555000 -0.099413 0
14.560000 -0.098472 0
14.565000 -0.097536 0
14.570000 -0.096604 0
14.575000 -0.095676 0
14.580000 -0.094752 0
14.585000 -0.093829 0
14.590000 -0.092905 0
14.595000 -0.091976 0
14.600000 -0.091033 0
14.605000 -0.090062 0
14.610000 -0.089040 0
14.615000 -0.087928 0
14.620000 -0.086668 0
14.625000 -0.085171 0
14.630000 -0.083310 0
14.635000 -0.080905 0
14.640000 -0.077719 0
14.645000 -0.073446 0
14.650000 -0.067712 0
14.655000 -0.060087 0
14.660000 -0.050108 0
14.665000 -0.037320 0
14.670000 -0.021333 0
14.675000 -0.001895 0
14.680000 0.021031 0
14.685000 0.047195 0
14.690000 0.076001 0
14.695000 0.106485 0
14.700000 0.137339 0
14.705000 0.166985 0
14.710000 0.193694 0
14.715000 0.215753 0
14.720000 0.231644 0
14.725000 0.240214 0
14.730000 0.240816 1
14.735000 0.233390 0
14.740000 0.218470 0
14.745000 0.197120 0
14.750000 0.170813 0
14.755000 0.141255 0
14.760000 0.110193 0
14.765000 0.079194 0
14.770000 0.049353 0
14.775000 0.020853 0
14.780000 -0.007663 0
14.785000 -0.039514 0
14.790000 -0.079251 0
14.795000 -0.129616 0
14.800000 -0.186621 0
14.805000 -0.235726 0
14.810000 -0.252739 2
14.815000 -0.209559 0
14.820000 -0.081524 0
14.825000 0.144119 0
14.830000 0.454696 0
14.835000 0.796407 0
14.840000 1.075257 0
14.845000 1.192200 3
14.850000 1.096289 0
14.855000 0.820430 0
14.860000 0.460165 0
14.865000 0.117116 0
14.870000 -0.141971 0
14.875000 -0.291862 0
14.880000 -0.337615 4
14.885000 -0.304106 0
14.890000 -0.227135 0
14.895000 -0.141404 0
14.900000 -0.069181 0
14.905000 -0.016966 0
14.910000 0.019377 0
14.915000 0.047105 0
14.920000 0.071916 0
14.925000 0.096880 0
14.930000 0.123169 0
14.935000 0.150980 0
14.940000 0.180089 0
14.945000 0.210081 0
14.950000 0.240434 0
14.955000 0.270545 0
14.960000 0.299757 0
14.965000 0.327374 0
14.970000 0.352697 0
14.975000 0.375042 0
14.980000 0.393779 0
14.985000 0.408355 0
14.990000 0.418323 0
14.995000 0.423364 5
15.000000 0.423302 0
15.005000 0.418114 0
15.010000 0.407931 0
15.015000 0.393034 0
15.020000 0.373838 0
15.025000 0.350873 0
15.030000 0.324761 0
15.035000 0.296184 0
15.040000 0.265858 0
15.045000 0.234500 0
15.050000 0.202801 0
15.055000 0.171403 0
15.060000 0.140880 0
15.065000 0.111718 0
15.070000 0.084311 0
15.075000 0.058957 0
15.080000 0.035856 0
15.085000 0.015118 0
15.090000 -0.003228 0
15.095000 -0.019223 0
15.100000 -0.032964 0
15.105000 -0.044594 0
15.110000 -0.054287 0
15.115000 -0.062233 0
15.120000 -0.068633 0
15.125000 -0.073687 0
15.130000 -0.077588 0
15.135000 -0.080515 0
15.140000 -0.082631 0
15.145000 -0.084084 0
15.150000 -0.085000 0
15.155000 -0.085291 0
15.160000 -0.084421 0
15.165000 -0.083555 0
15.170000 -0.082693 0
15.175000 -0.081836 0
15.180000 -0.080983 0
15.185000 -0.080134 0
15.190000 -0.079288 0
15.195000 -0.078447 0
15.200000 -0.077607 0
15.205000 -0.076768 0
15.210000 -0.075926 0
15.215000 -0.075076 0
15.220000 -0.074206 0
15.225000 -0.073298 0
15.230000 -0.072322 0
15.235000 -0.071231 0
15.240000 -0.069951 0
15.245000 -0.068374 0
15.250000 -0.066342 0
15.255000 -0.063643 0
15.260000 -0.059994 0
15.265000 -0.055044 0
15.270000 -0.048374 0
15.275000 -0.039517 0
15.280000 -0.027997 0
15.285000 -0.013375 0
15.290000 0.004672 0
15.295000 0.026275 0
15.300000 0.051293 0
15.305000 0.079239 0
15.310000 0.109249 0
15.315000 0.140085 0
15.320000 0.170195 0
15.325000 0.197831 0
15.330000 0.221207 0
15.335000 0.238690 0
15.340000 0.248986 0
15.345000 0.251299 1
15.350000 0.245431 0
15.355000 0.231809 0
15.360000 0.211434 0
15.365000 0.185757 0
15.370000 0.156509 0
15.375000 0.125495 0
15.380000 0.094363 0
15.385000 0.064316 0
15.390000 0.035663 0
15.395000 0.007169 0
15.400000 -0.024438 0
15.405000 -0.063815 0
15.410000 -0.113947 0
15.415000 -0.170989 0
15.420000 -0.220146 0
15.425000 -0.236542 2
15.430000 -0.191276 0
15.435000 -0.059210 0
15.440000 0.171944 0
15.445000 0.487026 0
15.450000 0.827288 0
15.455000 1.093731 0
15.460000 1.187283 3
15.465000 1.067931 0
15.470000 0.778429 0
15.475000 0.415804 0
15.480000 0.077772 0
15.485000 -0.173747 0
15.490000 -0.316637 0
15.495000 -0.357354 4
15.500000 -0.321101 0
15.505000 -0.243216 0
15.510000 -0.157497 0
15.515000 -0.085426 0
15.520000 -0.033185 0
15.525000 0.003321 0
15.530000 0.031214 0
15.535000 0.056126 0
15.540000 0.081128 0
15.545000 0.107418 0
15.550000 0.135216 0
15.555000 0.164319 0
15.560000 0.194328 0
15.565000 0.224739 0
15.570000 0.254966 0
15.575000 0.284369 0
15.580000 0.312270 0
15.585000 0.337981 0
15.590000 0.360829 0
15.595000 0.380189 0
15.600000 0.395504 0
15.605000 0.406320 0
15.610000 0.412302 0
15.615000 0.413251 5
15.620000 0.409117 0
15.625000 0.400000 0
15.630000 0.386145 0
15.635000 0.367933 0
15.640000 0.345859 0
15.645000 0.320515 0
15.650000 0.292558 0
15.655000 0.262684 0
15.660000 0.231598 0
15.665000 0.199987 0
15.670000 0.168497 0
15.675000 0.137712 0
15.680000 0.108135 0
15.685000 0.080183 0
15.690000 0.054177 0
15.695000 0.030346 0
15.700000 0.008826 0
15.705000 -0.010326 0
15.710000 -0.027127 0
15.715000 -0.041654 0
15.720000 -0.054032 0
15.725000 -0.064419 0
15.730000 -0.072997 0
15.735000 -0.079961 0
15.740000 -0.085508 0
15.745000 -0.089830 0
15.750000 -0.093110 0
15.755000 -0.095515 0
15.760000 -0.097197 0
15.765000 -0.098290 0
15.770000 -0.098909 0
15.775000 -0.098196 0
15.780000 -0.097262 0
15.785000 -0.096332 0
15.790000 -0.095406 0
15.795000 -0.094486 0
15.800000 -0.093569 0
15.805000 -0.092657 0
15.810000 -0.091749 0
15.815000 -0.090845 0
15.820000 -0.089942 0
15.825000 -0.089040 0
15.830000 -0.088133 0
15.835000 -0.087214 0
15.840000 -0.086270 0
15.845000 -0.085281 0
15.850000 -0.084211 0
15.855000 -0.083005 0
15.860000 -0.081582 0
15.865000 -0.079820 0
15.870000 -0.077551 0
15.875000 -0.074544 0
15.880000 -0.070505 0
15.885000 -0.065067 0
15.890000 -0.057806 0
15.895000 -0.048257 0
15.900000 -0.035956 0
15.905000 -0.020497 0
15.910000 -0.001596 0
15.915000 0.020820 0
15.920000 0.046543 0
15.925000 0.075024 0
15.930000 0.105341 0
15.935000 0.136217 0
15.940000 0.166087 0
15.945000 0.193219 0
15.950000 0.215874 0
15.955000 0.232488 0
15.960000 0.241852 0
15.965000 0.243254 1
15.970000 0.236571 0
15.975000 0.222287 0
15.980000 0.201432 0
15.985000 0.175460 0
15.990000 0.146080 0
15.995000 0.115060 0
16.000000 0.084000 0
16.005000 0.054052 0
16.010000 0.025475 0
16.015000 -0.002986 0
16.020000 -0.034573 0
16.025000 -0.073861 0
16.030000 -0.123801 0
16.035000 -0.180760 0
16.040000 -0.230503 0
16.045000 -0.248885 2
16.050000 -0.207577 0
16.055000 -0.081527 0
16.060000 0.142489 0
16.065000 0.452231 0
16.070000 0.793988 0
16.075000 1.073201 0
16.080000 1.189941 3
16.085000 1.094179 0
16.090000 0.819047 0
16.095000 0.459075 0
16.100000 0.115180 0
16.105000 -0.145877 0
16.110000 -0.298404 0
16.115000 -0.346838 4
16.120000 -0.315384 0
16.125000 -0.239331 0
16.130000 -0.153351 0
16.135000 -0.080178 0
16.140000 -0.026922 0
16.145000 0.010166 0
16.150000 0.038268 0
16.155000 0.063185 0
16.160000 0.088117 0
16.165000 0.114325 0
16.170000 0.142052 0
16.175000 0.171096 0
16.180000 0.201061 0
16.185000 0.231435 0
16.190000 0.261630 0
16.195000 0.290996 0
16.200000 0.318850 0
16.205000 0.344495 0
16.210000 0.367253 0
16.215000 0.386492 0
16.220000 0.401652 0
16.225000 0.412276 0
16.230000 0.418030 0
16.235000 0.418721 5
16.240000 0.414303 0
16.245000 0.404885 0
16.250000 0.390722 0
16.255000 0.372208 0
16.260000 0.349850 0
16.265000 0.324251 0
16.270000 0.296080 0
16.275000 0.266040 0
16.280000 0.234846 0
16.285000 0.203188 0
16.290000 0.171714 0
16.295000 0.141004 0
16.300000 0.111561 0
16.305000 0.083793 0
16.310000 0.058014 0
16.315000 0.034443 0
16.320000 0.013208 0
16.325000 -0.005646 0
16.330000 -0.022145 0
16.335000 -0.036373 0
16.340000 -0.048464 0
16.345000 -0.058581 0
16.350000 -0.066912 0
16.355000 -0.073654 0
16.360000 -0.079005 0
16.365000 -0.083159 0
16.370000 -0.086298 0
16.375000 -0.088589 0
16.380000 -0.090180 0
16.385000 -0.091203 0
16.390000 -0.091559 0
16.395000 -0.090657 0
16.400000 -0.089760 0
16.405000 -0.088868 0
16.410000 -0.087980 0
16.415000 -0.087096 0
16.420000 -0.086216 0
16.425000 -0.085341 0
16.430000 -0.084469 0
16.435000 -0.083600 0
16.440000 -0.082733 0
16.445000 -0.081865 0
16.450000 -0.080990 0
16.455000 -0.080100 0
16.460000 -0.079180 0
16.465000 -0.078206 0
16.470000 -0.077136 0
16.475000 -0.075909 0
16.480000 -0.074430 0
16.485000 -0.072564 0
16.490000 -0.070122 0
16.495000 -0.066851 0
16.500000 -0.062430 0
16.505000 -0.056468 0
16.510000 -0.048518 0
16.515000 -0.038106 0
16.520000 -0.024777 0
16.525000 -0.008153 0
16.530000 0.011984 0
16.535000 0.035618 0
16.540000 0.062416 0
16.545000 0.091686 0
16.550000 0.122357 0
16.555000 0.153016 0
16.560000 0.182001 0
16.565000 0.207537 0
16.570000 0.227913 0
16.575000 0.241674 0
16.580000 0.247787 1
16.585000 0.245770 0
16.590000 0.235758 0
16.595000 0.218484 0
16.600000 0.195191 0
16.605000 0.167482 0
16.610000 0.137137 0
16.615000 0.105896 0
16.620000 0.075216 0
16.625000 0.045916 0
16.630000 0.017638 0
16.635000 -0.011801 0
16.640000 -0.046514 0
16.645000 -0.090871 0
16.650000 -0.145311 0
16.655000 -0.201222 0
16.660000 -0.238837 2
16.665000 -0.230743 0
16.670000 -0.149032 0
16.675000 0.026835 0
16.680000 0.299122 0
16.685000 0.635267 0
16.690000 0.957235 0
16.695000 1.160020 0
16.700000 1.163429 3
16.705000 0.962306 0
16.710000 0.628531 0
16.715000 0.266095 0
16.720000 -0.039950 0
16.725000 -0.245581 0
16.730000 -0.342409 0
16.735000 -0.345985 4
16.740000 -0.287174 0
16.745000 -0.202293 0
16.750000 -0.120834 0
16.755000 -0.057455 0
16.760000 -0.012949 0
16.765000 0.018913 0
16.770000 0.044944 0
16.775000 0.069638 0
16.780000 0.095125 0
16.785000 0.122078 0
16.790000 0.150485 0
16.795000 0.180036 0
16.800000 0.210281 0
16.805000 0.240673 0
16.810000 0.270600 0
16.815000 0.299400 0
16.820000 0.326385 0
16.825000 0.350869 0
16.830000 0.372195 0
16.835000 0.389765 0
16.840000 0.403064 0
16.845000 0.411689 0
16.850000 0.415366 5
16.855000 0.413962 0
16.860000 0.407496 0
16.865000 0.396137 0
16.870000 0.380196 0
16.875000 0.360109 0
16.880000 0.336423 0
16.885000 0.309762 0
16.890000 0.280808 0
16.895000 0.250266 0
16.900000 0.218839 0
16.905000 0.187198 0
16.910000 0.155963 0
16.915000 0.125683 0
16.920000 0.096822 0
16.925000 0.069753 0
16.930000 0.044753 0
16.935000 0.022006 0
16.940000 0.001611 0
16.945000 -0.016414 0
16.950000 -0.032116 0
16.955000 -0.045596 0
16.960000 -0.056997 0
16.965000 -0.066492 0
16.970000 -0.074271 0
16.975000 -0.080529 0
16.980000 -0.085463 0
16.985000 -0.089263 0
16.990000 -0.092104 0
16.995000 -0.094146 0
17.000000 -0.095532 0
17.005000 -0.096388 0
17.010000 -0.096623 0
17.015000 -0.095697 0
17.020000 -0.094775 0
17.025000 -0.093857 0
17.030000 -0.092944 0
17.035000 -0.092036 0
17.040000 -0.091131 0
17.045000 -0.090231 0
17.050000 -0.089335 0
17.055000 -0.088441 0
17.060000 -0.087549 0
17.065000 -0.086654 0
17.070000 -0.085752 0
17.075000 -0.084832 0
17.080000 -0.083878 0
17.085000 -0.082862 0
17.090000 -0.081739 0
17.095000 -0.080443 0
17.100000 -0.078871 0
17.105000 -0.076880 0
17.110000 -0.074268 0
17.115000 -0.070773 0
17.120000 -0.066060 0
17.125000 -0.059731 0
17.130000 -0.051335 0
17.135000 -0.040401 0
17.140000 -0.026485 0
17.145000 -0.009237 0
17.150000 0.011526 0
17.155000 0.035739 0
17.160000 0.063015 0
17.165000 0.092607 0
17.170000 0.123395 0
17.175000 0.153933 0
17.180000 0.182543 0
17.185000 0.207466 0
17.190000 0.227028 0
17.195000 0.239833 0
17.200000 0.244925 1
17.205000 0.241903 0
17.210000 0.230977 0
17.215000 0.212941 0
17.220000 0.189080 0
17.225000 0.161013 0
17.230000 0.130512 0
17.235000 0.099285 0
17.240000 0.068734 0
17.245000 0.039586 0
17.250000 0.011344 0
17.255000 -0.018338 0
17.260000 -0.053658 0
17.265000 -0.098829 0
17.270000 -0.153775 0
17.275000 -0.209174 0
17.280000 -0.244733 2
17.285000 -0.232997 0
17.290000 -0.146492 0
17.295000 0.034495 0
17.300000 0.310888 0
17.305000 0.648378 0
17.310000 0.967750 0
17.315000 1.164652 3
17.320000 1.161409 0
17.325000 0.954814 0
17.330000 0.618421 0
17.335000 0.256751 0
17.340000 -0.046066 0
17.345000 -0.247351 0
17.350000 -0.339834 0
17.355000 -0.339940 4
17.360000 -0.279146 0
17.365000 -0.193876 0
17.370000 -0.113143 0
17.375000 -0.050864 0
17.380000 -0.007269 0
17.385000 0.024071 0
17.390000 0.049905 0
17.395000 0.074590 0
17.400000 0.100145 0
17.405000 0.127184 0
17.410000 0.155665 0
17.415000 0.185266 0
17.420000 0.215526 0
17.425000 0.245891 0
17.430000 0.275740 0
17.435000 0.304406 0
17.440000 0.331197 0
17.445000 0.355425 0
17.450000 0.376435 0
17.455000 0.393631 0
17.460000 0.406507 0
17.465000 0.414666 0
17.470000 0.417848 5
17.475000 0.415932 0
17.480000 0.408955 0
17.485000 0.397098 0
17.490000 0.380688 0
17.495000 0.360177 0
17.500000 0.336121 0
17.505000 0.309158 0
17.510000 0.279976 0
17.515000 0.249283 0
17.520000 0.217782 0
17.525000 0.186145 0
17.530000 0.154985 0
17.535000 0.124845 0
17.540000 0.096178 0
17.545000 0.069348 0
17.550000 0.044621 0
17.555000 0.022170 0
17.560000 0.002082 0
17.565000 -0.015633 0
17.570000 -0.031031 0
17.575000 -0.044221 0
17.580000 -0.055350 0
17.585000 -0.064596 0
17.590000 -0.072150 0
17.595000 -0.078211 0
17.600000 -0.082975 0
17.605000 -0.086629 0
17.610000 -0.089349 0
17.615000 -0.091292 0
17.620000 -0.092600 0
17.625000 -0.093395 0
17.630000 -0.092731 0
17.635000 -0.091823 0
17.640000 -0.090920 0
17.645000 -0.090022 0
17.650000 -0.089128 0
17.655000 -0.088239 0
17.660000 -0.087354 0
17.665000 -0.086472 0
17.670000 -0.085594 0
17.675000 -0.084719 0
17.680000 -0.083844 0
17.685000 -0.082966 0
17.690000 -0.082079 0
17.695000 -0.081171 0
17.700000 -0.080225 0
17.705000 -0.079209 0
17.710000 -0.078075 0
17.715000 -0.076748 0
17.720000 -0.075120 0
17.725000 -0.073034 0
17.730000 -0.070276 0
17.735000 -0.066567 0
17.740000 -0.061556 0
17.745000 -0.054831 0
17.750000 -0.045931 0
17.755000 -0.034383 0
17.760000 -0.019758 0
17.765000 -0.001733 0
17.770000 0.019825 0
17.775000 0.044781 0
17.780000 0.072667 0
17.785000 0.102642 0
17.790000 0.133498 0
17.795000 0.163717 0
17.800000 0.191579 0
17.805000 0.215319 0
17.810000 0.233310 0
17.815000 0.244244 0
17.820000 0.247290 1
17.825000 0.242200 0
17.830000 0.229340 0
17.835000 0.209643 0
17.840000 0.184506 0
17.845000 0.155612 0
17.850000 0.124747 0
17.855000 0.093572 0
17.860000 0.063354 0
17.865000 0.034556 0
17.870000 0.006226 0
17.875000 -0.024556 0
17.880000 -0.062304 0
17.885000 -0.110565 0
17.890000 -0.167091 0
17.895000 -0.219331 0
17.900000 -0.244235 2
17.905000 -0.213443 0
17.910000 -0.100775 0
17.915000 0.109468 0
17.920000 0.409588 0
17.925000 0.751809 0
17.930000 1.045179 0
17.935000 1.186700 3
17.940000 1.117042 0
17.945000 0.859350 0
17.950000 0.503820 0
17.955000 0.153765 0
17.960000 -0.118815 0
17.965000 -0.283820 0
17.970000 -0.342892 4
17.975000 -0.318536 0
17.980000 -0.245484 0
17.985000 -0.159226 0
17.990000 -0.084184 0
17.995000 -0.028993 0
18.000000 0.009360 0
18.005000 0.038022 0
18.010000 0.063054 0
18.015000 0.087900 0
18.020000 0.113963 0
18.025000 0.141550 0
18.030000 0.170486 0
18.035000 0.200383 0
18.040000 0.230736 0
18.045000 0.260959 0
18.050000 0.290405 0
18.055000 0.318389 0
18.060000 0.344211 0
18.065000 0.367189 0
18.070000 0.386682 0
18.075000 0.402123 0
18.080000 0.413047 0
18.085000 0.419108 0
18.090000 0.420102 5
18.095000 0.415975 0
18.100000 0.406827 0
18.105000 0.392908 0
18.110000 0.374603 0
18.115000 0.352417 0
18.120000 0.326953 0
18.125000 0.298877 0
18.130000 0.268898 0
18.135000 0.237730 0
18.140000 0.206070 0
18.145000 0.174569 0
18.150000 0.143815 0
18.155000 0.114313 0
18.160000 0.086478 0
18.165000 0.060627 0
18.170000 0.036984 0
18.175000 0.015679 0
18.180000 -0.003240 0
18.185000 -0.019797 0
18.190000 -0.034078 0
18.195000 -0.046214 0
18.200000 -0.056370 0
18.205000 -0.064733 0
18.210000 -0.071501 0
18.215000 -0.076874 0
18.220000 -0.081046 0
18.225000 -0.084199 0
18.230000 -0.086502 0
18.235000 -0.088104 0
18.240000 -0.089137 0
18.245000 -0.089501 0
18.250000 -0.088610 0
18.255000 -0.087723 0
18.260000 -0.086841 0
18.265000 -0.085963 0
18.270000 -0.085089 0
18.275000 -0.084220 0
18.280000 -0.083354 0
18.285000 -0.082492 0
18.290000 -0.081633 0
18.295000 -0.080776 0
18.300000 -0.079917 0
18.305000 -0.079051 0
18.310000 -0.078170 0
18.315000 -0.077259 0
18.320000 -0.076291 0
18.325000 -0.075226 0
18.330000 -0.074000 0
18.335000 -0.072518 0
18.340000 -0.070640 0
18.345000 -0.068176 0
18.350000 -0.064867 0
18.355000 -0.060387 0
18.360000 -0.054342 0
18.365000 -0.046280 0
18.370000 -0.035726 0
18.375000 -0.022223 0
18.380000 -0.005400 0
18.385000 0.014951 0
18.390000 0.038793 0
18.395000 0.065774 0
18.400000 0.095171 0
18.405000 0.125884 0
18.410000 0.156473 0
18.415000 0.185256 0
18.420000 0.210447 0
18.425000 0.230345 0
18.430000 0.243512 0
18.435000 0.248955 1
18.440000 0.246238 0
18.445000 0.235550 0
18.450000 0.217677 0
18.455000 0.193904 0
18.460000 0.165867 0
18.465000 0.135358 0
18.470000 0.104109 0
18.475000 0.073537 0
18.480000 0.044377 0
18.485000 0.016108 0
18.490000 -0.013676 0
18.495000 -0.049255 0
18.500000 -0.094833 0
18.505000 -0.150081 0
18.510000 -0.205102 0
18.515000 -0.238891 2
18.520000 -0.223468 0
18.525000 -0.131263 0
18.530000 0.056828 0
18.535000 0.339748 0
18.540000 0.679303 0
18.545000 0.991871 0
18.550000 1.171869 3
18.555000 1.147863 0
18.560000 0.925587 0
18.565000 0.582995 0
18.570000 0.223386 0
18.575000 -0.073028 0
18.580000 -0.267010 0
18.585000 -0.353266 4
18.590000 -0.349145 0
18.595000 -0.286307 0
18.600000 -0.200673 0
18.605000 -0.120391 0
18.610000 -0.058654 0
18.615000 -0.015379 0
18.620000 0.015859 0
18.625000 0.041703 0
18.630000 0.066430 0
18.635000 0.092022 0
18.640000 0.119089 0
18.645000 0.147590 0
18.650000 0.177210 0
18.655000 0.207496 0
18.660000 0.237902 0
18.665000 0.267818 0
18.670000 0.296585 0
18.675000 0.323520 0
18.680000 0.347945 0
18.685000 0.369208 0
18.690000 0.386716 0
18.695000 0.399962 0
18.700000 0.408548 0
18.705000 0.412202 5
18.710000 0.410795 0
18.715000 0.404346 0
18.720000 0.393023 0
18.725000 0.377133 0
18.730000 0.357110 0
18.735000 0.333493 0
18.740000 0.306902 0
18.745000 0.278012 0
18.750000 0.247522 0
18.755000 0.216131 0
18.760000 0.184505 0
18.765000 0.153263 0
18.770000 0.122951 0
18.775000 0.094034 0
18.780000 0.066886 0
18.785000 0.041787 0
18.790000 0.018926 0
18.795000 -0.001597 0
18.800000 -0.019758 0
18.805000 -0.035599 0
18.810000 -0.049218 0
18.815000 -0.060754 0
18.820000 -0.070377 0
18.825000 -0.078273 0
18.830000 -0.084637 0
18.835000 -0.089666 0
18.840000 -0.093546 0
18.845000 -0.096454 0
18.850000 -0.098551 0
18.855000 -0.099980 0
18.860000 -0.100868 0
18.865000 -0.101119 0
18.870000 -0.100170 0
18.875000 -0.099225 0
18.880000 -0.098285 0
18.885000 -0.097350 0
18.890000 -0.096420 0
18.895000 -0.095494 0
18.900000 -0.094572 0
18.905000 -0.093654 0
18.910000 -0.092740 0
18.915000 -0.091826 0
18.920000 -0.090912 0
18.925000 -0.089991 0
18.930000 -0.089054 0
18.935000 -0.088088 0
18.940000 -0.087065 0
18.945000 -0.085946 0
18.950000 -0.084668 0
18.955000 -0.083139 0
18.960000 -0.081222 0
18.965000 -0.078732 0
18.970000 -0.075419 0
18.975000 -0.070967 0
18.980000 -0.064992 0
18.985000 -0.057056 0
18.990000 -0.046692 0
18.995000 -0.033449 0
19.000000 -0.016953 0
19.005000 0.003021 0
19.010000 0.026472 0
19.015000 0.053096 0
19.020000 0.082237 0
19.025000 0.112870 0
19.030000 0.143634 0
19.035000 0.172909 0
19.040000 0.198954 0
19.045000 0.220069 0
19.050000 0.234780 0
19.055000 0.242010 1
19.060000 0.241206 0
19.065000 0.232411 0
19.070000 0.216261 0
19.075000 0.193907 0
19.080000 0.166882 0
19.085000 0.136918 0
19.090000 0.105754 0
19.095000 0.074899 0
19.100000 0.045324 0
19.105000 0.016973 0
19.110000 -0.011867 0
19.115000 -0.044878 0
19.120000 -0.086590 0
19.125000 -0.138860 0
19.130000 -0.195821 0
19.135000 -0.240738 0
19.140000 -0.248008 2
19.145000 -0.189538 0
19.150000 -0.042204 0
19.155000 0.202928 0
19.160000 0.525816 0
19.165000 0.863127 0
19.170000 1.115475 0
19.175000 1.189511 3
19.180000 1.050885 0
19.185000 0.748891 0
19.190000 0.384654 0
19.195000 0.054549 0
19.200000 -0.183654 0
19.205000 -0.311861 0
19.210000 -0.339693 4
19.215000 -0.294823 0
19.220000 -0.213728 0
19.225000 -0.129323 0
19.230000 -0.060763 0
19.235000 -0.011978 0
19.240000 0.022261 0
19.245000 0.049127 0
19.250000 0.073820 0
19.255000 0.098984 0
19.260000 0.125555 0
19.265000 0.153627 0
19.270000 0.182932 0
19.275000 0.213036 0
19.280000 0.243402 0
19.285000 0.273422 0
19.290000 0.302430 0
19.295000 0.329733 0
19.300000 0.354633 0
19.305000 0.376457 0
19.310000 0.394587 0
19.315000 0.408487 0
19.320000 0.417730 0
19.325000 0.422019 5
19.330000 0.421202 0
19.335000 0.415278 0
19.340000 0.404401 0
19.345000 0.388871 0
19.350000 0.369118 0
19.355000 0.345687 0
19.360000 0.319205 0
19.365000 0.290359 0
19.370000 0.259864 0
19.375000 0.228431 0
19.380000 0.196746 0
19.385000 0.165440 0
19.390000 0.135072 0
19.395000 0.106118 0
19.400000 0.078957 0
19.405000 0.053874 0
19.410000 0.031058 0
19.415000 0.010607 0
19.420000 -0.007457 0
19.425000 -0.023183 0
19.430000 -0.036673 0
19.435000 -0.048074 0
19.440000 -0.057561 0
19.445000 -0.065326 0
19.450000 -0.071568 0
19.455000 -0.076486 0
19.460000 -0.080272 0
19.465000 -0.083102 0
19.470000 -0.085139 0
19.475000 -0.086525 0
19.480000 -0.087386 0
19.485000 -0.086757 0
19.490000 -0.085880 0
19.495000 -0.085007 0
19.500000 -0.084138 0
19.505000 -0.083274 0
19.510000 -0.082413 0
19.515000 -0.081557 0
19.520000 -0.080705 0
19.525000 -0.079856 0
19.530000 -0.079009 0
19.535000 -0.078163 0
19.540000 -0.077313 0
19.545000 -0.076455 0
19.550000 -0.075575 0
19.555000 -0.074657 0
19.560000 -0.073670 0
19.565000 -0.072563 0
19.570000 -0.071263 0
19.575000 -0.069659 0
19.580000 -0.067592 0
19.585000 -0.064846 0
19.590000 -0.061137 0
19.595000 -0.056112 0
19.600000 -0.049350 0
19.605000 -0.040386 0
19.610000 -0.028743 0
19.615000 -0.013991 0
19.620000 0.004188 0
19.625000 0.025917 0
19.630000 0.051043 0
19.635000 0.079071 0
19.640000 0.109129 0
19.645000 0.139971 0
19.650000 0.170047 0
19.655000 0.197612 0
19.660000 0.220887 0
19.665000 0.238253 0
19.670000 0.248427 0
19.675000 0.250625 1
19.680000 0.244659 0
19.685000 0.230962 0
19.690000 0.210538 0
19.695000 0.184835 0
19.700000 0.155578 0
19.705000 0.124565 0
19.710000 0.093438 0
19.715000 0.063395 0
19.720000 0.034743 0
19.725000 0.006261 0
19.730000 -0.025303 0
19.735000 -0.064585 0
19.740000 -0.114599 0
19.745000 -0.171617 0
19.750000 -0.221047 0
19.755000 -0.238221 2
19.760000 -0.194350 0
19.765000 -0.064248 0
19.770000 0.164716 0
19.775000 0.478263 0
19.780000 0.819025 0
19.785000 1.089069 0
19.790000 1.188868 3
19.795000 1.076428 0
19.800000 0.791731 0
19.805000 0.430007 0
19.810000 0.089170 0
19.815000 -0.167429 0
19.820000 -0.316140 0
19.825000 -0.362146 4
19.830000 -0.329610 0
19.835000 -0.253292 0
19.840000 -0.167215 0
19.845000 -0.093747 0
19.850000 -0.040025 0
19.855000 -0.002496 0
19.860000 0.025887 0
19.865000 0.050918 0
19.870000 0.075854 0
19.875000 0.102014 0
19.880000 0.129679 0
19.885000 0.158675 0
19.890000 0.188621 0
19.895000 0.219026 0
19.900000 0.249317 0
19.905000 0.278865 0
19.910000 0.306999 0
19.915000 0.333038 0
19.920000 0.356310 0
19.925000 0.376186 0
19.930000 0.392105 0
19.935000 0.403598 0
19.940000 0.410317 0
19.945000 0.412042 5
19.950000 0.408703 0
19.955000 0.400374 0
19.960000 0.387277 0
19.965000 0.369769 0
19.970000 0.348324 0
19.975000 0.323515 0
19.980000 0.295984 0
19.985000 0.266417 0
19.990000 0.235513 0
19.995000 0.203961 0
20.000000 0.172411 0
20.005000 0.141454 0
20.010000 0.111608 0
20.015000 0.083304 0
20.020000 0.056879 0
20.025000 0.032580 0
20.030000 0.010563 0
20.035000 -0.009102 0
20.040000 -0.026416 0
20.045000 -0.041442 0
20.050000 -0.054294 0
20.055000 -0.065123 0
20.060000 -0.074106 0
20.065000 -0.081434 0
20.070000 -0.087300 0
20.075000 -0.091900 0
20.080000 -0.095416 0
20.085000 -0.098019 0
20.090000 -0.099864 0
20.095000 -0.101089 0
20.100000 -0.101811 0
20.105000 -0.101101 0
20.110000 -0.100152 0
20.115000 -0.099208 0
20.120000 -0.098268 0
20.125000 -0.097333 0
20.130000 -0.096403 0
20.135000 -0.095477 0
20.140000 -0.094555 0
20.145000 -0.093637 0
20.150000 -0.092721 0
20.155000 -0.091807 0
20.160000 -0.090889 0
20.165000 -0.089963 0
20.170000 -0.089017 0
20.175000 -0.088034 0
20.180000 -0.086984 0
20.185000 -0.085820 0
20.190000 -0.084471 0
20.195000 -0.082832 0
20.200000 -0.080753 0
20.205000 -0.078027 0
20.210000 -0.074386 0
20.215000 -0.069492 0
20.220000 -0.062942 0
20.225000 -0.054287 0
20.230000 -0.043060 0
20.235000 -0.028829 0
20.240000 -0.011259 0
20.245000 0.009814 0
20.250000 0.034299 0
20.255000 0.061790 0
20.260000 0.091517 0
20.265000 0.122350 0
20.270000 0.152839 0
20.275000 0.181316 0
20.280000 0.206036 0
20.285000 0.225354 0
20.290000 0.237903 0
20.295000 0.242753 1
20.300000 0.239528 0
20.305000 0.228452 0
20.310000 0.210321 0
20.315000 0.186415 0
20.320000 0.158341 0
20.325000 0.127851 0
20.330000 0.096637 0
20.335000 0.066089 0
20.340000 0.036936 0
20.345000 0.008709 0
20.350000 -0.020874 0
20.355000 -0.055938 0
20.360000 -0.100707 0
20.365000 -0.155352 0
20.370000 -0.211079 0
20.375000 -0.248245 2
20.380000 -0.239865 0
20.385000 -0.158543 0
20.390000 0.015960 0
20.395000 0.286258 0
20.400000 0.621389 0
20.405000 0.946080 0
20.410000 1.157369 0
20.415000 1.173770 3
20.420000 0.982541 0
20.425000 0.652273 0
20.430000 0.289343 0
20.435000 -0.017975 0
20.440000 -0.223833 0
20.445000 -0.319529 0
20.450000 -0.321240 4
20.455000 -0.260903 0
20.460000 -0.175724 0
20.465000 -0.095295 0
20.470000 -0.033613 0
20.475000 0.009335 0
20.480000 0.040206 0
20.485000 0.065810 0
20.490000 0.090443 0
20.495000 0.116039 0
20.500000 0.143150 0
20.505000 0.171699 0
20.510000 0.201337 0
20.515000 0.231580 0
20.520000 0.261852 0
20.525000 0.291512 0
20.530000 0.319871 0
20.535000 0.346222 0
20.540000 0.369864 0
20.545000 0.390137 0
20.550000 0.406446 0
20.555000 0.418295 0
20.560000 0.425306 0
20.565000 0.427245 5
20.570000 0.424025 0
20.575000 0.415719 0
20.580000 0.402554 0
20.585000 0.384898 0
20.590000 0.363246 0
20.595000 0.338193 0
20.600000 0.310409 0
20.605000 0.280607 0
20.610000 0.249513 0
20.615000 0.217837 0
20.620000 0.186247 0
20.625000 0.155347 0
20.630000 0.125658 0
20.635000 0.097610 0
20.640000 0.071536 0
20.645000 0.047669 0
20.650000 0.026149 0
20.655000 0.007031 0
20.660000 -0.009706 0
20.665000 -0.024145 0
20.670000 -0.036417 0
20.675000 -0.046688 0
20.680000 -0.055148 0
20.685000 -0.061996 0
20.690000 -0.067435 0
20.695000 -0.071663 0
20.700000 -0.074864 0
20.705000 -0.077209 0
20.710000 -0.078849 0
20.715000 -0.079918 0
20.720000 -0.080319 0
20.725000 -0.079473 0
20.730000 -0.078632 0
20.735000 -0.077795 0
20.740000 -0.076962 0
20.745000 -0.076134 0
20.750000 -0.075309 0
20.755000 -0.074488 0
20.760000 -0.073670 0
20.765000 -0.072855 0
20.770000 -0.072041 0
20.775000 -0.071224 0
20.780000 -0.070400 0
20.785000 -0.069560 0
20.790000 -0.068685 0
20.795000 -0.067749 0
20.800000 -0.066708 0
20.805000 -0.065493 0
20.810000 -0.064001 0
20.815000 -0.062084 0
20.820000 -0.059538 0
20.825000 -0.056089 0
20.830000 -0.051395 0
20.835000 -0.045042 0
20.840000 -0.036567 0
20.845000 -0.025485 0
20.850000 -0.011346 0
20.855000 0.006199 0
20.860000 0.027312 0
20.865000 0.051892 0
20.870000 0.079496 0
20.875000 0.109299 0
20.880000 0.140096 0
20.885000 0.170352 0
20.890000 0.198318 0
20.895000 0.222188 0
20.900000 0.240291 0
20.905000 0.251281 0
20.910000 0.254301 1
20.915000 0.249096 0
20.920000 0.236046 0
20.925000 0.216117 0
20.930000 0.190745 0
20.935000 0.161663 0
20.940000 0.130691 0
20.945000 0.099510 0
20.950000 0.069371 0
20.955000 0.040645 0
20.960000 0.012178 0
20.965000 -0.019241 0
20.970000 -0.058291 0
20.975000 -0.108121 0
20.980000 -0.165135 0
20.985000 -0.214717 0
20.990000 -0.231950 2
20.995000 -0.187688 0
21.000000 -0.056475 0
21.005000 0.174235 0
21.010000 0.489292 0
21.015000 0.829422 0
21.020000 1.094678 0
21.025000 1.185448 3
21.030000 1.064462 0
21.035000 0.775249 0
21.040000 0.412856 0
21.045000 0.073327 0
21.050000 -0.181731 0
21.055000 -0.329515 0
21.060000 -0.375340 4
21.065000 -0.343072 0
21.070000 -0.266993 0
21.075000 -0.180771 0
21.080000 -0.106761 0
21.085000 -0.052356 0
21.090000 -0.014268 0
21.095000 0.014440 0
21.100000 0.039594 0
21.105000 0.064533 0
21.110000 0.090642 0
21.115000 0.118246 0
21.120000 0.147193 0
21.125000 0.177119 0
21.130000 0.207548 0
21.135000 0.237921 0
21.140000 0.267621 0
21.145000 0.295992 0
21.150000 0.322359 0
21.155000 0.346059 0
21.160000 0.366464 0
21.165000 0.383009 0
21.170000 0.395219 0
21.175000 0.402730 0
21.180000 0.405306 5
21.185000 0.402853 0
21.190000 0.395421 0
21.195000 0.383205 0
21.200000 0.366531 0
21.205000 0.345850 0
21.210000 0.321707 0
21.215000 0.294726 0
21.220000 0.265576 0
21.225000 0.234947 0
21.230000 0.203523 0
21.235000 0.171956 0
21.240000 0.140844 0
21.245000 0.110717 0
21.250000 0.082022 0
21.255000 0.055117 0
21.260000 0.030268 0
21.265000 0.007651 0
21.270000 -0.012640 0
21.275000 -0.030588 0
21.280000 -0.046240 0
21.285000 -0.059694 0
21.290000 -0.071089 0
21.295000 -0.080593 0
21.300000 -0.088390 0
21.305000 -0.094674 0
21.310000 -0.099635 0
21.315000 -0.103459 0
21.320000 -0.106319 0
21.325000 -0.108374 0
21.330000 -0.109765 0
21.335000 -0.110616 0
21.340000 -0.110829 0
21.345000 -0.109831 0
21.350000 -0.108839 0
21.355000 -0.107851 0
21.360000 -0.106868 0
21.365000 -0.105890 0
21.370000 -0.104917 0
21.375000 -0.103948 0
21.380000 -0.102984 0
21.385000 -0.102023 0
21.390000 -0.101064 0
21.395000 -0.100104 0
21.400000 -0.099139 0
21.405000 -0.098160 0
21.410000 -0.097155 0
21.415000 -0.096098 0
21.420000 -0.094954 0
21.425000 -0.093665 0
21.430000 -0.092145 0
21.435000 -0.090269 0
21.440000 -0.087864 0
21.445000 -0.084697 0
21.450000 -0.080470 0
21.455000 -0.074819 0
21.460000 -0.067323 0
21.465000 -0.057525 0
21.470000 -0.044973 0
21.475000 -0.029275 0
21.480000 -0.010165 0
21.485000 0.012420 0
21.490000 0.038265 0
21.495000 0.066823 0
21.500000 0.097187 0
21.505000 0.128105 0
21.510000 0.158048 0
21.515000 0.185321 0
21.520000 0.208219 0
21.525000 0.225202 0
21.530000 0.235065 0
21.535000 0.237079 1
21.540000 0.231082 0
21.545000 0.217499 0
21.550000 0.197293 0
21.555000 0.171855 0
21.560000 0.142837 0
21.565000 0.111975 0
21.570000 0.080871 0
21.575000 0.050742 0
21.580000 0.022015 0
21.585000 -0.006243 0
21.590000 -0.036858 0
21.595000 -0.074207 0
21.600000 -0.121862 0
21.605000 -0.178054 0
21.610000 -0.231288 0
21.615000 -0.259809 2
21.620000 -0.236204 0
21.625000 -0.134426 0
21.630000 0.062572 0
21.635000 0.351367 0
21.640000 0.692100 0
21.645000 1.002012 0
21.650000 1.179146 3
21.655000 1.152146 0
21.660000 0.924613 0
21.665000 0.578836 0
21.670000 0.221448 0
21.675000 -0.067185 0
21.680000 -0.249854 0
21.685000 -0.323942 4
21.690000 -0.309648 0
21.695000 -0.241076 0
21.700000 -0.154916 0
21.705000 -0.077863 0
21.710000 -0.020529 0
21.715000 0.019188 0
21.720000 0.048416 0
21.725000 0.073531 0
21.730000 0.098258 0
21.735000 0.124154 0
21.740000 0.151586 0
21.745000 0.180396 0
21.750000 0.210200 0
21.755000 0.240490 0
21.760000 0.270673 0
21.765000 0.300095 0
21.770000 0.328059 0
21.775000 0.353855 0
21.780000 0.376789 0
21.785000 0.396212 0
21.790000 0.411546 0
21.795000 0.422321 0
21.800000 0.428189 0
21.805000 0.428946 5
21.810000 0.424544 0
21.815000 0.415091 0
21.820000 0.400847 0
21.825000 0.382213 0
21.830000 0.359709 0
21.835000 0.333951 0
21.840000 0.305623 0
21.845000 0.275445 0
21.850000 0.244142 0
21.855000 0.212418 0
21.860000 0.180929 0
21.865000 0.150260 0
21.870000 0.120915 0
21.875000 0.093300 0
21.880000 0.067725 0
21.885000 0.044401 0
21.890000 0.023446 0
21.895000 0.004895 0
21.900000 -0.011287 0
21.905000 -0.025197 0
21.910000 -0.036976 0
21.915000 -0.046797 0
21.920000 -0.054854 0
21.925000 -0.061348 0
21.930000 -0.066481 0
21.935000 -0.070449 0
21.940000 -0.073433 0
21.945000 -0.075599 0
21.950000 -0.077095 0
21.955000 -0.078050 0
21.960000 -0.078377 0
21.965000 -0.077542 0
21.970000 -0.076710 0
21.975000 -0.075883 0
21.980000 -0.075059 0
21.985000 -0.074240 0
21.990000 -0.073425 0
21.995000 -0.072613 0
22.000000 -0.071804 0
22.005000 -0.070998 0
22.010000 -0.070191 0
22.015000 -0.069382 0
22.020000 -0.068563 0
22.025000 -0.067723 0
22.030000 -0.066844 0
22.035000 -0.065894 0
22.040000 -0.064822 0
22.045000 -0.063554 0
22.050000 -0.061974 0
22.055000 -0.059920 0
22.060000 -0.057170 0
22.065000 -0.053434 0
22.070000 -0.048346 0
22.075000 -0.041477 0
22.080000 -0.032354 0
22.085000 -0.020495 0
22.090000 -0.005469 0
22.095000 0.013032 0
22.100000 0.035106 0
22.105000 0.060565 0
22.110000 0.088864 0
22.115000 0.119069 0
22.120000 0.149874 0
22.125000 0.179671 0
22.130000 0.206675 0
22.135000 0.229094 0
22.140000 0.245325 0
22.145000 0.254143 0
22.150000 0.254851 1
22.155000 0.247371 0
22.160000 0.232256 0
22.165000 0.210622 0
22.170000 0.184009 0
22.175000 0.154200 0
22.180000 0.123004 0
22.185000 0.092016 0
22.190000 0.062290 0
22.195000 0.033834 0
22.200000 0.004933 0
22.205000 -0.028202 0
22.210000 -0.070245 0
22.215000 -0.122973 0
22.220000 -0.179865 0
22.225000 -0.222926 0
22.230000 -0.225181 2
22.235000 -0.157696 0
22.240000 0.002353 0
22.245000 0.261221 0
22.250000 0.592050 0
22.255000 0.921502 0
22.260000 1.143705 0
22.265000 1.170787 3
22.270000 0.988852 0
22.275000 0.665177 0
22.280000 0.300869 0
22.285000 -0.016492 0
22.290000 -0.238234 0
22.295000 -0.351778 0
22.300000 -0.369255 4
22.305000 -0.318924 0
22.310000 -0.236273 0
22.315000 -0.152314 0
22.320000 -0.084542 0
22.325000 -0.036148 0
22.330000 -0.001914 0
22.335000 0.025093 0
22.340000 0.049912 0
22.345000 0.075142 0
22.350000 0.101732 0
22.355000 0.129803 0
22.360000 0.159114 0
22.365000 0.189256 0
22.370000 0.219722 0
22.375000 0.249930 0
22.380000 0.279246 0
22.385000 0.307004 0
22.390000 0.332528 0
22.395000 0.355163 0
22.400000 0.374297 0
22.405000 0.389394 0
22.410000 0.400012 0
22.415000 0.405830 0
22.420000 0.406659 5
22.425000 0.402454 0
22.430000 0.393316 0
22.435000 0.379489 0
22.440000 0.361345 0
22.445000 0.339371 0
22.450000 0.314144 0
22.455000 0.286309 0
22.460000 0.256546 0
22.465000 0.225549 0
22.470000 0.193992 0
22.475000 0.162514 0
22.480000 0.131690 0
22.485000 0.102023 0
22.490000 0.073929 0
22.495000 0.047733 0
22.500000 0.023670 0
22.505000 0.001885 0
22.510000 -0.017558 0
22.515000 -0.034665 0
22.520000 -0.049505 0
22.525000 -0.062191 0
22.530000 -0.072876 0
22.535000 -0.081735 0
22.540000 -0.088956 0
22.545000 -0.094734 0
22.550000 -0.099258 0
22.555000 -0.102711 0
22.560000 -0.105260 0
22.565000 -0.107058 0
22.570000 -0.108241 0
22.575000 -0.108926 0
22.580000 -0.108180 0
22.585000 -0.107196 0
22.590000 -0.106216 0
22.595000 -0.105242 0
22.600000 -0.104272 0
22.605000 -0.103307 0
22.610000 -0.102347 0
22.615000 -0.101391 0
22.620000 -0.100438 0
22.625000 -0.099489 0
22.630000 -0.098541 0
22.635000 -0.097590 0
22.640000 -0.096632 0
22.645000 -0.095655 0
22.650000 -0.094644 0
22.655000 -0.093568 0
22.660000 -0.092385 0
22.665000 -0.091027 0
22.670000 -0.089392 0
22.675000 -0.087339 0
22.680000 -0.084669 0
22.685000 -0.081125 0
22.690000 -0.076381 0
22.695000 -0.070047 0
22.700000 -0.061682 0
22.705000 -0.050826 0
22.710000 -0.037043 0
22.715000 -0.019981 0
22.720000 0.000551 0
22.725000 0.024511 0
22.730000 0.051552 0
22.735000 0.080977 0
22.740000 0.111732 0
22.745000 0.142434 0
22.750000 0.171467 0
22.755000 0.197108 0
22.760000 0.217695 0
22.765000 0.231805 0
22.770000 0.238417 1
22.775000 0.237031 0
22.780000 0.227735 0
22.785000 0.211192 0
22.790000 0.188568 0
22.795000 0.161386 0
22.800000 0.131363 0
22.805000 0.100209 0
22.810000 0.069401 0
22.815000 0.039879 0
22.820000 0.011563 0
22.825000 -0.017260 0
22.830000 -0.050228 0
22.835000 -0.091818 0
22.840000 -0.143913 0
22.845000 -0.200890 0
22.850000 -0.246481 0
22.855000 -0.255609 2
22.860000 -0.200516 0
22.865000 -0.058013 0
22.870000 0.181736 0
22.875000 0.501091 0
22.880000 0.840454 0
22.885000 1.103270 0
22.890000 1.194870 3
22.895000 1.074161 0
22.900000 0.781275 0
22.905000 0.417856 0
22.910000 0.084355 0
22.915000 -0.157769 0
22.920000 -0.288627 0
22.925000 -0.317522 4
22.930000 -0.272661 0
22.935000 -0.191432 0
22.940000 -0.107409 0
22.945000 -0.039775 0
22.950000 0.007960 0
22.955000 0.041411 0
22.960000 0.067870 0
22.965000 0.092450 0
22.970000 0.117661 0
22.975000 0.144337 0
22.980000 0.172515 0
22.985000 0.201891 0
22.990000 0.232002 0
22.995000 0.262285 0
23.000000 0.292103 0
23.005000 0.320767 0
23.010000 0.347562 0
23.015000 0.371774 0
23.020000 0.392724 0
23.025000 0.409794 0
23.030000 0.422460 0
23.035000 0.430316 0
23.040000 0.433097 5
23.045000 0.430689 0
23.050000 0.423141 0
23.055000 0.410656 0
23.060000 0.393589 0
23.065000 0.372423 0
23.070000 0.347748 0
23.075000 0.320234 0
23.080000 0.290600 0
23.085000 0.259582 0
23.090000 0.227902 0
23.095000 0.196241 0
23.100000 0.165219 0
23.105000 0.135372 0
23.110000 0.107145 0
23.115000 0.080881 0
23.120000 0.056825 0
23.125000 0.035125 0
23.130000 0.015841 0
23.135000 -0.001045 0
23.140000 -0.015614 0
23.145000 -0.027996 0
23.150000 -0.038359 0
23.155000 -0.046894 0
23.160000 -0.053804 0
23.165000 -0.059294 0
23.170000 -0.063563 0
23.175000 -0.066799 0
23.180000 -0.069175 0
23.185000 -0.070843 0
23.190000 -0.071940 0
23.195000 -0.072370 0
23.200000 -0.071564 0
23.205000 -0.070763 0
23.210000 -0.069965 0
23.215000 -0.069171 0
23.220000 -0.068381 0
23.225000 -0.067595 0
23.230000 -0.066812 0
23.235000 -0.066033 0
23.240000 -0.065255 0
23.245000 -0.064479 0
23.250000 -0.063699 0
23.255000 -0.062911 0
23.260000 -0.062104 0
23.265000 -0.061260 0
23.270000 -0.060350 0
23.275000 -0.059326 0
23.280000 -0.058115 0
23.285000 -0.056606 0
23.290000 -0.054642 0
23.295000 -0.052006 0
23.300000 -0.048409 0
23.305000 -0.043491 0
23.310000 -0.036824 0
23.315000 -0.027929 0
23.320000 -0.016320 0
23.325000 -0.001554 0
23.330000 0.016691 0
23.335000 0.038533 0
23.340000 0.063798 0
23.345000 0.091957 0
23.350000 0.122084 0
23.355000 0.152873 0
23.360000 0.182706 0
23.365000 0.209780 0
23.370000 0.232282 0
23.375000 0.248586 0
23.380000 0.257446 0
23.385000 0.258151 1
23.390000 0.250622 0
23.395000 0.235421 0
23.400000 0.213680 0
23.405000 0.186964 0
23.410000 0.157077 0
23.415000 0.125845 0
23.420000 0.094871 0
23.425000 0.065191 0
23.430000 0.036748 0
23.435000 0.007704 0
23.440000 -0.025873 0
23.445000 -0.068665 0
23.450000 -0.122069 0
23.455000 -0.178693 0
23.460000 -0.219453 2
23.465000 -0.216601 0
23.470000 -0.141099 0
23.475000 0.029066 0
23.480000 0.297654 0
23.485000 0.632827 0
23.490000 0.955266 0
23.495000 1.156910 3
23.500000 1.155583 0
23.505000 0.949466 0
23.510000 0.614898 0
23.515000 0.252201 0
23.520000 -0.056330 0
23.525000 -0.267195 0
23.530000 -0.370989 0
23.535000 -0.381436 4
23.540000 -0.327318 0
23.545000 -0.243639 0
23.550000 -0.160224 0
23.555000 -0.093387 0
23.560000 -0.045668 0
23.565000 -0.011732 0
23.570000 0.015219 0
23.575000 0.040079 0
23.580000 0.065367 0
23.585000 0.092006 0
23.590000 0.120112 0
23.595000 0.149450 0
23.600000 0.179622 0
23.605000 0.210129 0
23.610000 0.240402 0
23.615000 0.269821 0
23.620000 0.297729 0
23.625000 0.323463 0
23.630000 0.346377 0
23.635000 0.365866 0
23.640000 0.381393 0
23.645000 0.392516 0
23.650000 0.398907 0
23.655000 0.400364 5
23.660000 0.396828 0
23.665000 0.388379 0
23.670000 0.375238 0
23.675000 0.357754 0
23.680000 0.336392 0
23.685000 0.311705 0
23.690000 0.284319 0
23.695000 0.254898 0
23.700000 0.224123 0
23.705000 0.192666 0
23.710000 0.161160 0
23.715000 0.130187 0
23.720000 0.100258 0
23.725000 0.071803 0
23.730000 0.045161 0
23.735000 0.020585 0
23.740000 -0.001760 0
23.745000 -0.021791 0
23.750000 -0.039498 0
23.755000 -0.054930 0
23.760000 -0.068191 0
23.765000 -0.079418 0
23.770000 -0.088778 0
23.775000 -0.096455 0
23.780000 -0.102638 0
23.785000 -0.107516 0
23.790000 -0.111271 0
23.795000 -0.114074 0
23.800000 -0.116080 0
23.805000 -0.117429 0
23.810000 -0.118242 0
23.815000 -0.118419 0
23.820000 -0.117384 0
23.825000 -0.116354 0
23.830000 -0.115328 0
23.835000 -0.114308 0
23.840000 -0.113293 0
23.845000 -0.112283 0
23.850000 -0.111278 0
23.855000 -0.110277 0
23.860000 -0.109279 0
23.865000 -0.108284 0
23.870000 -0.107289 0
23.875000 -0.106290 0
23.880000 -0.105278 0
23.885000 -0.104241 0
23.890000 -0.103158 0
23.895000 -0.101993 0
23.900000 -0.100693 0
23.905000 -0.099178 0
23.910000 -0.097331 0
23.915000 -0.094989 0
23.920000 -0.091931 0
23.925000 -0.087876 0
23.930000 -0.082476 0
23.935000 -0.075323 0
23.940000 -0.065972 0
23.945000 -0.053975 0
23.950000 -0.038926 0
23.955000 -0.020532 0
23.960000 0.001318 0
23.965000 0.026479 0
23.970000 0.054491 0
23.975000 0.084543 0
23.980000 0.115481 0
23.985000 0.145859 0
23.990000 0.174035 0
23.995000 0.198317 0
24.000000 0.217123 0
24.005000 0.229158 0
24.010000 0.233557 1
24.015000 0.229990 0
24.020000 0.218702 0
24.025000 0.200488 0
24.030000 0.176600 0
24.035000 0.148601 0
24.040000 0.118195 0
24.045000 0.087034 0
24.050000 0.056482 0
24.055000 0.027294 0
24.060000 -0.000888 0
24.065000 -0.030128 0
24.070000 -0.064310 0
24.075000 -0.107697 0
24.080000 -0.161219 0
24.085000 -0.217732 0
24.090000 -0.259617 0
24.095000 -0.261375 2
24.100000 -0.195899 0
24.105000 -0.041528 0
24.110000 0.208981 0
24.115000 0.534153 0
24.120000 0.870737 0
24.125000 1.121697 0
24.130000 1.196679 3
24.135000 1.060824 0
24.140000 0.758868 0
24.145000 0.394552 0
24.150000 0.066396 0
24.155000 -0.167455 0
24.160000 -0.289787 0
24.165000 -0.311705 4
24.170000 -0.262577 0
24.175000 -0.180052 0
24.180000 -0.096897 0
24.185000 -0.030962 0
24.190000 0.015291 0
24.195000 0.047874 0
24.200000 0.073996 0
24.205000 0.098543 0
24.210000 0.123844 0
24.215000 0.150637 0
24.220000 0.178916 0
24.225000 0.208359 0
24.230000 0.238491 0
24.235000 0.268740 0
24.240000 0.298463 0
24.245000 0.326966 0
24.250000 0.353532 0
24.255000 0.377448 0
24.260000 0.398038 0
24.265000 0.414689 0
24.270000 0.426888 0
24.275000 0.434241 0
24.280000 0.436497 5
24.285000 0.433557 0
24.290000 0.425486 0
24.295000 0.412504 0
24.300000 0.394978 0
24.305000 0.373406 0
24.310000 0.348388 0
24.315000 0.320602 0
24.320000 0.290771 0
24.325000 0.259631 0
24.330000 0.227904 0
24.335000 0.196267 0
24.340000 0.165331 0
24.345000 0.135625 0
24.350000 0.107582 0
24.355000 0.081537 0
24.360000 0.057722 0
24.365000 0.036277 0
24.370000 0.017250 0
24.375000 0.000618 0
24.380000 -0.013707 0
24.385000 -0.025862 0
24.390000 -0.036018 0
24.395000 -0.044367 0
24.400000 -0.051114 0
24.405000 -0.056464 0
24.410000 -0.060616 0
24.415000 -0.063756 0
24.420000 -0.066054 0
24.425000 -0.067661 0
24.430000 -0.068712 0
24.435000 -0.069116 0
24.440000 -0.068327 0
24.445000 -0.067541 0
24.450000 -0.066759 0
24.455000 -0.065982 0
24.460000 -0.065208 0
24.465000 -0.064437 0
24.470000 -0.063670 0
24.475000 -0.062906 0
24.480000 -0.062144 0
24.485000 -0.061382 0
24.490000 -0.060617 0
24.495000 -0.059842 0
24.500000 -0.059046 0
24.505000 -0.058210 0
24.510000 -0.057302 0
24.515000 -0.056272 0
24.520000 -0.055041 0
24.525000 -0.053493 0
24.530000 -0.051463 0
24.535000 -0.048723 0
24.540000 -0.044975 0
24.545000 -0.039847 0
24.550000 -0.032901 0
24.555000 -0.023655 0
24.560000 -0.011622 0
24.565000 0.003628 0
24.570000 0.022392 0
24.575000 0.044751 0
24.580000 0.070481 0
24.585000 0.098992 0
24.590000 0.129300 0
24.595000 0.160042 0
24.600000 0.189558 0
24.605000 0.216030 0
24.610000 0.237656 0
24.615000 0.252855 0
24.620000 0.260454 1
24.625000 0.259836 0
24.630000 0.251024 0
24.635000 0.234678 0
24.640000 0.212013 0
24.645000 0.184648 0
24.650000 0.154409 0
24.655000 0.123109 0
24.660000 0.092285 0
24.665000 0.062839 0
24.670000 0.034469 0
24.675000 0.004980 0
24.680000 -0.029849 0
24.685000 -0.074514 0
24.690000 -0.129306 0
24.695000 -0.184901 0
24.700000 -0.220325 2
24.705000 -0.206986 0
24.710000 -0.116395 0
24.715000 0.071311 0
24.720000 0.355071 0
24.725000 0.695022 0
24.730000 1.004126 0
24.735000 1.174092 3
24.740000 1.136187 0
24.745000 0.905089 0
24.750000 0.559737 0
24.755000 0.201007 0
24.760000 -0.093809 0
24.765000 -0.287099 0
24.770000 -0.373883 4
24.775000 -0.371016 0
24.780000 -0.309268 0
24.785000 -0.223807 0
24.790000 -0.142656 0
24.795000 -0.079508 0
24.800000 -0.034923 0
24.805000 -0.002833 0
24.810000 0.023392 0
24.815000 0.048185 0
24.820000 0.073692 0
24.825000 0.100624 0
24.830000 0.129000 0
24.835000 0.158539 0
24.840000 0.188815 0
24.845000 0.219309 0
24.850000 0.249435 0
24.855000 0.278558 0
24.860000 0.306013 0
24.865000 0.331135 0
24.870000 0.353278 0
24.875000 0.371849 0
24.880000 0.386328 0
24.885000 0.396296 0
24.890000 0.401451 0
24.895000 0.401628 5
24.900000 0.396800 0
24.905000 0.387087 0
24.910000 0.372746 0
24.915000 0.354161 0
24.920000 0.331826 0
24.925000 0.306320 0
24.930000 0.278287 0
24.935000 0.248404 0
24.940000 0.217355 0
24.945000 0.185809 0
24.950000 0.154390 0
24.955000 0.123665 0
24.960000 0.094125 0
24.965000 0.066176 0
24.970000 0.040133 0
24.975000 0.016224 0
24.980000 -0.005414 0
24.985000 -0.024718 0
24.990000 -0.041700 0
24.995000 -0.056429 0
25.000000 -0.069020 0
25.005000 -0.079623 0
25.010000 -0.088413 0
25.015000 -0.095578 0
25.020000 -0.101308 0
25.025000 -0.105793 0
25.030000 -0.109212 0
25.035000 -0.111732 0
25.040000 -0.113504 0
25.045000 -0.114663 0
25.050000 -0.115324 0
25.055000 -0.114548 0
25.060000 -0.113532 0
25.065000 -0.112521 0
25.070000 -0.111515 0
25.075000 -0.110514 0
25.080000 -0.109517 0
25.085000 -0.108526 0
25.090000 -0.107539 0
25.095000 -0.106556 0
25.100000 -0.105577 0
25.105000 -0.104599 0
25.110000 -0.103619 0
25.115000 -0.102632 0
25.120000 -0.101628 0
25.125000 -0.100591 0
25.130000 -0.099494 0
25.135000 -0.098296 0
25.140000 -0.096932 0
25.145000 -0.095306 0
25.150000 -0.093283 0
25.155000 -0.090673 0
25.160000 -0.087230 0
25.165000 -0.082639 0
25.170000 -0.076521 0
25.175000 -0.068446 0
25.180000 -0.057960 0
25.185000 -0.044622 0
25.190000 -0.028068 0
25.195000 -0.008078 0
25.200000 0.015348 0
25.205000 0.041922 0
25.210000 0.071016 0
25.215000 0.101645 0
25.220000 0.132497 0
25.225000 0.162004 0
25.230000 0.188469 0
25.235000 0.210221 0
25.240000 0.225789 0
25.245000 0.234067 0
25.250000 0.234445 1
25.255000 0.226882 0
25.260000 0.211913 0
25.265000 0.190590 0
25.270000 0.164353 0
25.275000 0.134875 0
25.280000 0.103868 0
25.285000 0.072878 0
25.290000 0.043004 0
25.295000 0.014484 0
25.300000 -0.013900 0
25.305000 -0.045271 0
25.310000 -0.084071 0
25.315000 -0.133346 0
25.320000 -0.190086 0
25.325000 -0.241258 0
25.330000 -0.264064 2
25.335000 -0.231053 0
25.340000 -0.117127 0
25.345000 0.092705 0
25.350000 0.391242 0
25.355000 0.733442 0
25.360000 1.032813 0
25.365000 1.189021 3
25.370000 1.137358 0
25.375000 0.889847 0
25.380000 0.536627 0
25.385000 0.185128 0
25.390000 -0.088798 0
25.395000 -0.253404 0
25.400000 -0.310464 4
25.405000 -0.283632 0
25.410000 -0.209108 0
25.415000 -0.123225 0
25.420000 -0.050058 0
25.425000 0.002841 0
25.430000 0.039411 0
25.435000 0.067103 0
25.440000 0.091814 0
25.445000 0.116702 0
25.450000 0.142948 0
25.455000 0.170739 0
25.460000 0.199828 0
25.465000 0.229782 0
25.470000 0.260054 0
25.475000 0.290017 0
25.480000 0.318989 0
25.485000 0.346252 0
25.490000 0.371083 0
25.495000 0.392786 0
25.500000 0.410723 0
25.505000 0.424342 0
25.510000 0.433207 0
25.515000 0.437019 5
25.520000 0.435632 0
25.525000 0.429061 0
25.530000 0.417482 0
25.535000 0.401224 0
25.540000 0.380750 0
25.545000 0.356638 0
25.550000 0.329552 0
25.555000 0.300209 0
25.560000 0.269349 0
25.565000 0.237706 0
25.570000 0.205976 0
25.575000 0.174792 0
25.580000 0.144712 0
25.585000 0.116197 0
25.590000 0.089609 0
25.595000 0.065209 0
25.600000 0.043158 0
25.605000 0.023529 0
25.610000 0.006315 0
25.615000 -0.008560 0
25.620000 -0.021221 0
25.625000 -0.031834 0
25.630000 -0.040590 0
25.635000 -0.047691 0
25.640000 -0.053345 0
25.645000 -0.057753 0
25.650000 -0.061107 0
25.655000 -0.063581 0
25.660000 -0.065332 0
25.665000 -0.066498 0
25.670000 -0.066983 0
25.675000 -0.066204 0
25.680000 -0.065429 0
25.685000 -0.064658 0
25.690000 -0.063891 0
25.695000 -0.063127 0
25.700000 -0.062367 0
25.705000 -0.061611 0
25.710000 -0.060857 0
25.715000 -0.060106 0
25.720000 -0.059355 0
25.725000 -0.058601 0
25.730000 -0.057839 0
25.735000 -0.057058 0
25.740000 -0.056241 0
25.745000 -0.055357 0
25.750000 -0.054360 0
25.755000 -0.053176 0
25.760000 -0.051694 0
25.765000 -0.049755 0
25.770000 -0.047140 0
25.775000 -0.043559 0
25.780000 -0.038649 0
25.785000 -0.031975 0
25.790000 -0.023057 0
25.795000 -0.011402 0
25.800000 0.003432 0
25.805000 0.021767 0
25.810000 0.043713 0
25.815000 0.069084 0
25.820000 0.097329 0
25.825000 0.127500 0
25.830000 0.158262 0
25.835000 0.187970 0
25.840000 0.214803 0
25.845000 0.236938 0
25.850000 0.252754 0
25.855000 0.261027 0
25.860000 0.261085 1
25.865000 0.252897 0
25.870000 0.237079 0
25.875000 0.214816 0
25.880000 0.187713 0
25.885000 0.157602 0
25.890000 0.126313 0
25.895000 0.095420 0
25.900000 0.065883 0
25.905000 0.037484 0
25.910000 0.008128 0
25.915000 -0.026351 0
25.920000 -0.070540 0
25.925000 -0.125033 0
25.930000 -0.180911 0
25.935000 -0.217468 2
25.940000 -0.206075 0
25.945000 -0.117941 0
25.950000 0.067290 0
25.955000 0.349252 0
25.960000 0.688810 0
25.965000 0.999140 0
25.970000 1.171234 3
25.975000 1.136050 0
25.980000 0.908508 0
25.985000 0.565132 0
25.990000 0.205168 0
25.995000 -0.094022 0
26.000000 -0.293656 0
26.005000 -0.387306 0
26.010000 -0.390332 4
26.015000 -0.332187 0
26.020000 -0.247498 0
26.025000 -0.164893 0
26.030000 -0.099380 0
26.035000 -0.052692 0
26.040000 -0.019292 0
26.045000 0.007496 0
26.050000 0.032380 0
26.055000 0.057755 0
26.060000 0.084487 0
26.065000 0.112674 0
26.070000 0.142078 0
26.075000 0.172299 0
26.080000 0.202845 0
26.085000 0.233153 0
26.090000 0.262608 0
26.095000 0.290563 0
26.100000 0.316362 0
26.105000 0.339364 0
26.110000 0.358972 0
26.115000 0.374654 0
26.120000 0.385970 0
26.125000 0.392589 0
26.130000 0.394310 5
26.135000 0.391065 0
26.140000 0.382928 0
26.145000 0.370109 0
26.150000 0.352946 0
26.155000 0.331890 0
26.160000 0.307483 0
26.165000 0.280338 0
26.170000 0.251110 0
26.175000 0.220473 0
26.180000 0.189090 0
26.185000 0.157595 0
26.190000 0.126568 0
26.195000 0.096524 0
26.200000 0.067896 0
26.205000 0.041033 0
26.210000 0.016196 0
26.215000 -0.006441 0
26.220000 -0.026784 0
26.225000 -0.044814 0
26.230000 -0.060570 0
26.235000 -0.074147 0
26.240000 -0.085677 0
26.245000 -0.095320 0
26.250000 -0.103254 0
26.255000 -0.109668 0
26.260000 -0.114748 0
26.265000 -0.118677 0
26.270000 -0.121624 0
26.275000 -0.123749 0
26.280000 -0.125191 0
26.285000 -0.126076 0
26.290000 -0.126291 0
26.295000 -0.125216 0
26.300000 -0.124147 0
26.305000 -0.123083 0
26.310000 -0.122024 0
26.315000 -0.120971 0
26.320000 -0.119922 0
26.325000 -0.118879 0
26.330000 -0.117840 0
26.335000 -0.116805 0
26.340000 -0.115774 0
26.345000 -0.114743 0
26.350000 -0.113710 0
26.355000 -0.112668 0
26.360000 -0.111605 0
26.365000 -0.110505 0
26.370000 -0.109336 0
26.375000 -0.108054 0
26.380000 -0.106588 0
26.385000 -0.104836 0
26.390000 -0.102654 0
26.395000 -0.099845 0
26.400000 -0.096152 0
26.405000 -0.091255 0
26.410000 -0.084770 0
26.415000 -0.076270 0
26.420000 -0.065305 0
26.425000 -0.051454 0
26.430000 -0.034373 0
26.435000 -0.013875 0
26.440000 0.010008 0
26.445000 0.036952 0
26.450000 0.066301 0
26.455000 0.097053 0
26.460000 0.127890 0
26.465000 0.157258 0
26.470000 0.183486 0
26.475000 0.204942 0
26.480000 0.220200 0
26.485000 0.228195 0
26.490000 0.228350 1
26.495000 0.220644 0
26.500000 0.205615 0
26.505000 0.184300 0
26.510000 0.158117 0
26.515000 0.128707 0
26.520000 0.097751 0
26.525000 0.066774 0
26.530000 0.036876 0
26.535000 0.008339 0
26.540000 -0.019942 0
26.545000 -0.050918 0
26.550000 -0.088924 0
26.555000 -0.137220 0
26.560000 -0.193589 0
26.565000 -0.246280 0
26.570000 -0.273765 2
26.575000 -0.249270 0
26.580000 -0.147473 0
26.585000 0.048263 0
26.590000 0.335021 0
26.595000 0.675122 0
26.600000 0.989347 0
26.605000 1.178093 3
26.610000 1.169805 0
26.615000 0.960869 0
26.620000 0.621666 0
26.625000 0.261692 0
26.630000 -0.033319 0
26.635000 -0.222260 0
26.640000 -0.300790 4
26.645000 -0.288799 0
26.650000 -0.220960 0
26.655000 -0.134938 0
26.660000 -0.058152 0
26.665000 -0.001355 0
26.670000 0.037785 0
26.675000 0.066610 0
26.680000 0.091542 0
26.685000 0.116243 0
26.690000 0.142190 0
26.695000 0.169695 0
26.700000 0.198565 0
26.705000 0.228387 0
26.710000 0.258628 0
26.715000 0.288671 0
26.720000 0.317836 0
26.725000 0.345403 0
26.730000 0.370646 0
26.735000 0.392857 0
26.740000 0.411383 0
26.745000 0.425654 0
26.750000 0.435213 0
26.755000 0.439737 5
26.760000 0.439057 0
26.765000 0.433166 0
26.770000 0.422219 0
26.775000 0.406526 0
26.780000 0.386539 0
26.785000 0.362825 0
26.790000 0.336042 0
26.795000 0.306909 0
26.800000 0.276168 0
26.805000 0.244561 0
26.810000 0.212791 0
26.815000 0.181505 0
26.820000 0.151273 0
26.825000 0.122568 0
26.830000 0.095765 0
26.835000 0.071136 0
26.840000 0.048852 0
26.845000 0.028995 0
26.850000 0.011563 0
26.855000 -0.003515 0
26.860000 -0.016360 0
26.865000 -0.027138 0
26.870000 -0.036038 0
26.875000 -0.043265 0
26.880000 -0.049026 0
26.885000 -0.053525 0
26.890000 -0.056956 0
26.895000 -0.059494 0
26.900000 -0.061299 0
26.905000 -0.062511 0
26.910000 -0.063032 0
26.915000 -0.062273 0
26.920000 -0.061517 0
26.925000 -0.060766 0
26.930000 -0.060018 0
26.935000 -0.059273 0
26.940000 -0.058533 0
26.945000 -0.057795 0
26.950000 -0.057061 0
26.955000 -0.056328 0
26.960000 -0.055596 0
26.965000 -0.054862 0
26.970000 -0.054118 0
26.975000 -0.053356 0
26.980000 -0.052557 0
26.985000 -0.051692 0
26.990000 -0.050713 0
26.995000 -0.049545 0
27.000000 -0.048078 0
27.005000 -0.046150 0
27.010000 -0.043540 0
27.015000 -0.039956 0
27.020000 -0.035029 0
27.025000 -0.028324 0
27.030000 -0.019353 0
27.035000 -0.007624 0
27.040000 0.007309 0
27.045000 0.025761 0
27.050000 0.047833 0
27.055000 0.073327 0
27.060000 0.101670 0
27.065000 0.131889 0
27.070000 0.162624 0
27.075000 0.192209 0
27.080000 0.218803 0
27.085000 0.240579 0
27.090000 0.255927 0
27.095000 0.263646 1
27.100000 0.263102 0
27.105000 0.254310 0
27.110000 0.237936 0
27.115000 0.215211 0
27.120000 0.187775 0
27.125000 0.157479 0
27.130000 0.126155 0
27.135000 0.095347 0
27.140000 0.065938 0
27.145000 0.037558 0
27.150000 0.007885 0
27.155000 -0.027435 0
27.160000 -0.072846 0
27.165000 -0.128162 0
27.170000 -0.183101 0
27.175000 -0.215619 2
27.180000 -0.196464 0
27.185000 -0.097217 0
27.190000 0.100836 0
27.195000 0.393442 0
27.200000 0.735014 0
27.205000 1.032853 0
27.210000 1.178492 3
27.215000 1.112025 0
27.220000 0.860330 0
27.225000 0.507770 0
27.230000 0.153584 0
27.235000 -0.130165 0
27.240000 -0.310667 0
27.245000 -0.386025 4
27.250000 -0.374932 0
27.255000 -0.308959 0
27.260000 -0.222812 0
27.265000 -0.143049 0
27.270000 -0.081782 0
27.275000 -0.038615 0
27.280000 -0.007258 0
27.285000 0.018741 0
27.290000 0.043570 0
27.295000 0.069208 0
27.300000 0.096284 0
27.305000 0.124786 0
27.310000 0.154420 0
27.315000 0.184756 0
27.320000 0.215275 0
27.325000 0.245390 0
27.330000 0.274469 0
27.335000 0.301852 0
27.340000 0.326878 0
27.345000 0.348909 0
27.350000 0.367356 0
27.355000 0.381708 0
27.360000 0.391553 0
27.365000 0.396595 0
27.370000 0.396674 5
27.375000 0.391767 0
27.380000 0.381996 0
27.385000 0.367618 0
27.390000 0.349017 0
27.395000 0.326683 0
27.400000 0.301194 0
27.405000 0.273188 0
27.410000 0.243337 0
27.415000 0.212321 0
27.420000 0.180803 0
27.425000 0.149406 0
27.430000 0.118691 0
27.435000 0.089148 0
27.440000 0.061182 0
27.445000 0.035109 0
27.450000 0.011156 0
27.455000 -0.010536 0
27.460000 -0.029904 0
27.465000 -0.046957 0
27.470000 -0.061759 0
27.475000 -0.074424 0
27.480000 -0.085101 0
27.485000 -0.093961 0
27.490000 -0.101189 0
27.495000 -0.106977 0
27.500000 -0.111511 0
27.505000 -0.114971 0
27.510000 -0.117524 0
27.515000 -0.119320 0
27.520000 -0.120495 0
27.525000 -0.121166 0
27.530000 -0.120366 0
27.535000 -0.119321 0
27.540000 -0.118281 0
27.545000 -0.117246 0
27.550000 -0.116217 0
27.555000 -0.115192 0
27.560000 -0.114173 0
27.565000 -0.113158 0
27.570000 -0.112147 0
27.575000 -0.111140 0
27.580000 -0.110134 0
27.585000 -0.109128 0
27.590000 -0.108115 0
27.595000 -0.107088 0
27.600000 -0.106030 0
27.605000 -0.104918 0
27.610000 -0.103712 0
27.615000 -0.102352 0
27.620000 -0.100749 0
27.625000 -0.098773 0
27.630000 -0.096248 0
27.635000 -0.092937 0
27.640000 -0.088539 0
27.645000 -0.082688 0
27.650000 -0.074966 0
27.655000 -0.064921 0
27.660000 -0.052111 0
27.665000 -0.036155 0
27.670000 -0.016802 0
27.675000 0.005995 0
27.680000 0.032009 0
27.685000 0.060687 0
27.690000 0.091120 0
27.695000 0.122069 0
27.700000 0.152020 0
27.705000 0.179303 0
27.710000 0.202240 0
27.715000 0.219311 0
27.720000 0.229325 0
27.725000 0.231557 1
27.730000 0.225834 0
27.735000 0.212557 0
27.740000 0.192656 0
27.745000 0.167486 0
27.750000 0.138666 0
27.755000 0.107906 0
27.760000 0.076802 0
27.765000 0.046594 0
27.770000 0.017787 0
27.775000 -0.010388 0
27.780000 -0.040524 0
27.785000 -0.076844 0
27.790000 -0.123159 0
27.795000 -0.178633 0
27.800000 -0.233313 0
27.805000 -0.266960 2
27.810000 -0.252944 0
27.815000 -0.164942 0
27.820000 0.015854 0
27.825000 0.290475 0
27.830000 0.626879 0
27.835000 0.950440 0
27.840000 1.160793 0
27.845000 1.178880 3
27.850000 0.991295 0
27.855000 0.661755 0
27.860000 0.298934 0
27.865000 -0.007045 0
27.870000 -0.209921 0
27.875000 -0.301602 4
27.880000 -0.299410 0
27.885000 -0.236572 0
27.890000 -0.151015 0
27.895000 -0.071984 0
27.900000 -0.012386 0
27.905000 0.028798 0
27.910000 0.058639 0
27.915000 0.083856 0
27.920000 0.108481 0
27.925000 0.134230 0
27.930000 0.161530 0
27.935000 0.190238 0
27.940000 0.219968 0
27.945000 0.250202 0
27.950000 0.280338 0
27.955000 0.309706 0
27.960000 0.337594 0
27.965000 0.363277 0
27.970000 0.386046 0
27.975000 0.405239 0
27.980000 0.420272 0
27.985000 0.430669 0
27.990000 0.436086 0
27.995000 0.436326 5
28.000000 0.431355 0
28.005000 0.421299 0
28.010000 0.406441 0
28.015000 0.387207 0
28.020000 0.364143 0
28.025000 0.337891 0
28.030000 0.309156 0
28.035000 0.278678 0
28.040000 0.247197 0
28.045000 0.215423 0
28.050000 0.184014 0
28.055000 0.153552 0
28.060000 0.124528 0
28.065000 0.097338 0
28.070000 0.072270 0
28.075000 0.049517 0
28.080000 0.029176 0
28.085000 0.011261 0
28.090000 -0.004284 0
28.095000 -0.017572 0
28.100000 -0.028758 0
28.105000 -0.038028 0
28.110000 -0.045583 0
28.115000 -0.051629 0
28.120000 -0.056373 0
28.125000 -0.060008 0
28.130000 -0.062715 0
28.135000 -0.064655 0
28.140000 -0.065973 0
28.145000 -0.066792 0
28.150000 -0.066244 0
28.155000 -0.065469 0
28.160000 -0.064698 0
28.165000 -0.063930 0
28.170000 -0.063166 0
28.175000 -0.062406 0
28.180000 -0.061650 0
28.185000 -0.060896 0
28.190000 -0.060145 0
28.195000 -0.059395 0
28.200000 -0.058644 0
28.205000 -0.057885 0
28.210000 -0.057111 0
28.215000 -0.056307 0
28.220000 -0.055445 0
28.225000 -0.054484 0
28.230000 -0.053358 0
28.235000 -0.051967 0
28.240000 -0.050165 0
28.245000 -0.047749 0
28.250000 -0.044447 0
28.255000 -0.039914 0
28.260000 -0.033731 0
28.265000 -0.025426 0
28.270000 -0.014503 0
28.275000 -0.000500 0
28.280000 0.016944 0
28.285000 0.037999 0
28.290000 0.062562 0
28.295000 0.090174 0
28.300000 0.119983 0
28.305000 0.150743 0
28.310000 0.180870 0
28.315000 0.208567 0
28.320000 0.231988 0
28.325000 0.249443 0
28.330000 0.259593 0
28.335000 0.261624 1
28.340000 0.255347 0
28.345000 0.241232 0
28.350000 0.220342 0
28.355000 0.194206 0
28.360000 0.164624 0
28.365000 0.133452 0
28.370000 0.102356 0
28.375000 0.072476 0
28.380000 0.043924 0
28.385000 0.015081 0
28.390000 -0.017814 0
28.395000 -0.059551 0
28.400000 -0.112116 0
28.405000 -0.169075 0
28.410000 -0.212172 0
