0.000000 1.167548 3
0.005000 1.035543 0
0.010000 0.708823 0
0.015000 0.312920 0
0.020000 -0.034076 0
0.025000 -0.266847 0
0.030000 -0.370866 4
0.035000 -0.365450 0
0.040000 -0.290617 0
0.045000 -0.192034 0
0.050000 -0.103387 0
0.055000 -0.037486 0
0.060000 0.008941 0
0.065000 0.044637 0
0.070000 0.076598 0
0.075000 0.108333 0
0.080000 0.140897 0
0.085000 0.174167 0
0.090000 0.207559 0
0.095000 0.240304 0
0.100000 0.271555 0
0.105000 0.300433 0
0.110000 0.326071 0
0.115000 0.347656 0
0.120000 0.364475 0
0.125000 0.375948 0
0.130000 0.381663 5
0.135000 0.381400 0
0.140000 0.375147 0
0.145000 0.363094 0
0.150000 0.345631 0
0.155000 0.323322 0
0.160000 0.296873 0
0.165000 0.267100 0
0.170000 0.234880 0
0.175000 0.201116 0
0.180000 0.166687 0
0.185000 0.132418 0
0.190000 0.099046 0
0.195000 0.067197 0
0.200000 0.037375 0
0.205000 0.009953 0
0.210000 -0.014826 0
0.215000 -0.036836 0
0.220000 -0.056060 0
0.225000 -0.072568 0
0.230000 -0.086505 0
0.235000 -0.098065 0
0.240000 -0.107477 0
0.245000 -0.114988 0
0.250000 -0.120848 0
0.255000 -0.125301 0
0.260000 -0.128577 0
0.265000 -0.130884 0
0.270000 -0.130348 0
0.275000 -0.129334 0
0.280000 -0.128324 0
0.285000 -0.127319 0
0.290000 -0.126318 0
0.295000 -0.125320 0
0.300000 -0.124323 0
0.305000 -0.123322 0
0.310000 -0.122311 0
0.315000 -0.121273 0
0.320000 -0.120186 0
0.325000 -0.119004 0
0.330000 -0.117660 0
0.335000 -0.116043 0
0.340000 -0.113993 0
0.345000 -0.111274 0
0.350000 -0.107568 0
0.355000 -0.102461 0
0.360000 -0.095447 0
0.365000 -0.085951 0
0.370000 -0.073373 0
0.375000 -0.057162 0
0.380000 -0.036921 0
0.385000 -0.012515 0
0.390000 0.015807 0
0.395000 0.047323 0
0.400000 0.080799 0
0.405000 0.114524 0
0.410000 0.146422 0
0.415000 0.174253 0
0.420000 0.195868 0
0.425000 0.209482 0
0.430000 0.213917 1
0.435000 0.208771 0
0.440000 0.194482 0
0.445000 0.172263 0
0.450000 0.143932 0
0.455000 0.111655 0
0.460000 0.077610 0
0.465000 0.043528 0
0.470000 0.009970 0
0.475000 -0.024662 0
0.480000 -0.064684 0
0.485000 -0.115436 0
0.490000 -0.177754 0
0.495000 -0.240599 0
0.500000 -0.278087 2
0.505000 -0.255026 0
0.510000 -0.137502 0
0.515000 0.095042 0
0.520000 0.431194 0
0.525000 0.804026 0
0.530000 1.091877 0
0.535000 1.173047 3
0.540000 1.006359 0
0.545000 0.660997 0
0.550000 0.265824 0
0.555000 -0.067502 0
0.560000 -0.281973 0
0.565000 -0.368879 4
0.570000 -0.351120 0
0.575000 -0.270429 0
0.580000 -0.171688 0
0.585000 -0.085855 0
0.590000 -0.023011 0
0.595000 0.021446 0
0.600000 0.056293 0
0.605000 0.088057 0
0.610000 0.119837 0
0.615000 0.152475 0
0.620000 0.185761 0
0.625000 0.219079 0
0.630000 0.251651 0
0.635000 0.282623 0
0.640000 0.311120 0
0.645000 0.336280 0
0.650000 0.357304 0
0.655000 0.373492 0
0.660000 0.384285 0
0.665000 0.389293 5
0.670000 0.388320 0
0.675000 0.381376 0
0.680000 0.368674 0
0.685000 0.350622 0
0.690000 0.327800 0
0.695000 0.300926 0
0.700000 0.270822 0
0.705000 0.238369 0
0.710000 0.204464 0
0.715000 0.169982 0
0.720000 0.135736 0
0.725000 0.102453 0
0.730000 0.070746 0
0.735000 0.041104 0
0.740000 0.013887 0
0.745000 -0.010673 0
0.750000 -0.032463 0
0.755000 -0.051472 0
0.760000 -0.067780 0
0.765000 -0.081534 0
0.770000 -0.092933 0
0.775000 -0.102206 0
0.780000 -0.109602 0
0.785000 -0.115369 0
0.790000 -0.119751 0
0.795000 -0.122973 0
0.800000 -0.125242 0
0.805000 -0.124725 0
0.810000 -0.123738 0
0.815000 -0.122756 0
0.820000 -0.121779 0
0.825000 -0.120806 0
0.830000 -0.119835 0
0.835000 -0.118865 0
0.840000 -0.117891 0
0.845000 -0.116905 0
0.850000 -0.115892 0
0.855000 -0.114826 0
0.860000 -0.113664 0
0.865000 -0.112333 0
0.870000 -0.110723 0
0.875000 -0.108668 0
0.880000 -0.105930 0
0.885000 -0.102186 0
0.890000 -0.097019 0
0.895000 -0.089919 0
0.900000 -0.080310 0
0.905000 -0.067595 0
0.910000 -0.051229 0
0.915000 -0.030825 0
0.920000 -0.006264 0
0.925000 0.022186 0
0.930000 0.053785 0
0.935000 0.087282 0
0.940000 0.120951 0
0.945000 0.152713 0
0.950000 0.180331 0
0.955000 0.201672 0
0.960000 0.214972 0
0.965000 0.219079 1
0.970000 0.213619 0
0.975000 0.199054 0
0.980000 0.176614 0
0.985000 0.148125 0
0.990000 0.115753 0
0.995000 0.081666 0
1.000000 0.047572 0
1.005000 0.013993 0
1.010000 -0.020716 0
1.015000 -0.060910 0
1.020000 -0.111895 0
1.025000 -0.174366 0
1.030000 -0.237091 0
1.035000 -0.274068 2
1.040000 -0.250141 0
1.045000 -0.131565 0
1.050000 0.101957 0
1.055000 0.438674 0
1.060000 0.811388 0
1.065000 1.098537 0
1.070000 1.178912 3
1.075000 1.011879 0
1.080000 0.666800 0
1.085000 0.271473 0
1.090000 -0.063030 0
1.095000 -0.279559 0
1.100000 -0.368877 4
1.105000 -0.353206 0
1.110000 -0.273646 0
1.115000 -0.174883 0
1.120000 -0.088264 0
1.125000 -0.024500 0
1.130000 0.020598 0
1.135000 0.055733 0
1.140000 0.087550 0
1.145000 0.119284 0
1.150000 0.151860 0
1.155000 0.185111 0
1.160000 0.218444 0
1.165000 0.251092 0
1.170000 0.282215 0
1.175000 0.310943 0
1.180000 0.336421 0
1.185000 0.357849 0
1.190000 0.374522 0
1.195000 0.385870 0
1.200000 0.391489 5
1.205000 0.391165 0
1.210000 0.384882 0
1.215000 0.372832 0
1.220000 0.355397 0
1.225000 0.333132 0
1.230000 0.306734 0
1.235000 0.277008 0
1.240000 0.244819 0
1.245000 0.211060 0
1.250000 0.176602 0
1.255000 0.142264 0
1.260000 0.108780 0
1.265000 0.076777 0
1.270000 0.046760 0
1.275000 0.019108 0
1.280000 -0.005929 0
1.285000 -0.028218 0
1.290000 -0.047734 0
1.295000 -0.064539 0
1.300000 -0.078769 0
1.305000 -0.090611 0
1.310000 -0.100291 0
1.315000 -0.108050 0
1.320000 -0.114136 0
1.325000 -0.118793 0
1.330000 -0.122249 0
1.335000 -0.124712 0
1.340000 -0.125985 0
1.345000 -0.124992 0
1.350000 -0.124004 0
1.355000 -0.123021 0
1.360000 -0.122041 0
1.365000 -0.121065 0
1.370000 -0.120090 0
1.375000 -0.119113 0
1.380000 -0.118126 0
1.385000 -0.117118 0
1.390000 -0.116065 0
1.395000 -0.114930 0
1.400000 -0.113650 0
1.405000 -0.112128 0
1.410000 -0.110216 0
1.415000 -0.107701 0
1.420000 -0.104287 0
1.425000 -0.099589 0
1.430000 -0.093127 0
1.435000 -0.084348 0
1.440000 -0.072656 0
1.445000 -0.057489 0
1.450000 -0.038399 0
1.455000 -0.015172 0
1.460000 0.012063 0
1.465000 0.042732 0
1.470000 0.075762 0
1.475000 0.109593 0
1.480000 0.142262 0
1.485000 0.171580 0
1.490000 0.195364 0
1.495000 0.211707 0
1.500000 0.219225 1
1.505000 0.217258 0
1.510000 0.205958 0
1.515000 0.186280 0
1.520000 0.159839 0
1.525000 0.128689 0
1.530000 0.095025 0
1.535000 0.060786 0
1.540000 0.027058 0
1.545000 -0.006821 0
1.550000 -0.044124 0
1.555000 -0.090176 0
1.560000 -0.148431 0
1.565000 -0.213398 0
1.570000 -0.265216 0
1.575000 -0.271707 2
1.580000 -0.197456 0
1.585000 -0.014884 0
1.590000 0.281098 0
1.595000 0.650271 0
1.600000 0.992635 0
1.605000 1.177931 3
1.610000 1.120947 0
1.615000 0.842226 0
1.620000 0.453226 0
1.625000 0.081132 0
1.630000 -0.191170 0
1.635000 -0.335175 0
1.640000 -0.361070 4
1.645000 -0.303498 0
1.650000 -0.208086 0
1.655000 -0.113846 0
1.660000 -0.040358 0
1.665000 0.011510 0
1.670000 0.049747 0
1.675000 0.082321 0
1.680000 0.113841 0
1.685000 0.146018 0
1.690000 0.179016 0
1.695000 0.212365 0
1.700000 0.245346 0
1.705000 0.277137 0
1.710000 0.306867 0
1.715000 0.333665 0
1.720000 0.356700 0
1.725000 0.375220 0
1.730000 0.388596 0
1.735000 0.396356 0
1.740000 0.398209 5
1.745000 0.394067 0
1.750000 0.384045 0
1.755000 0.368461 0
1.760000 0.347812 0
1.765000 0.322756 0
1.770000 0.294066 0
1.775000 0.262598 0
1.780000 0.229245 0
1.785000 0.194897 0
1.790000 0.160399 0
1.795000 0.126521 0
1.800000 0.093934 0
1.805000 0.063186 0
1.810000 0.034701 0
1.815000 0.008772 0
1.820000 -0.014431 0
1.825000 -0.034848 0
1.830000 -0.052518 0
1.835000 -0.067556 0
1.840000 -0.080137 0
1.845000 -0.090476 0
1.850000 -0.098815 0
1.855000 -0.105403 0
1.860000 -0.110486 0
1.865000 -0.114300 0
1.870000 -0.117061 0
1.875000 -0.118547 0
1.880000 -0.117591 0
1.885000 -0.116640 0
1.890000 -0.115693 0
1.895000 -0.114751 0
1.900000 -0.113812 0
1.905000 -0.112874 0
1.910000 -0.111935 0
1.915000 -0.110989 0
1.920000 -0.110024 0
1.925000 -0.109022 0
1.930000 -0.107948 0
1.935000 -0.106747 0
1.940000 -0.105330 0
1.945000 -0.103561 0
1.950000 -0.101244 0
1.955000 -0.098100 0
1.960000 -0.093764 0
1.965000 -0.087773 0
1.970000 -0.079582 0
1.975000 -0.068599 0
1.980000 -0.054242 0
1.985000 -0.036028 0
1.990000 -0.013683 0
1.995000 0.012744 0
2.000000 0.042770 0
2.005000 0.075417 0
2.010000 0.109205 0
2.015000 0.142225 0
2.020000 0.172301 0
2.025000 0.197214 0
2.030000 0.214973 0
2.035000 0.224077 1
2.040000 0.223721 0
2.045000 0.213919 0
2.050000 0.195500 0
2.055000 0.169994 0
2.060000 0.139416 0
2.065000 0.105975 0
2.070000 0.071695 0
2.075000 0.037850 0
2.080000 0.004098 0
2.085000 -0.032450 0
2.090000 -0.077007 0
2.095000 -0.133687 0
2.100000 -0.198604 0
2.105000 -0.253752 0
2.110000 -0.267929 2
2.115000 -0.205299 0
2.120000 -0.036504 0
2.125000 0.247318 0
2.130000 0.612150 0
2.135000 0.963695 0
2.140000 1.171020 3
2.145000 1.139698 0
2.150000 0.878682 0
2.155000 0.494276 0
2.160000 0.116448 0
2.165000 -0.166155 0
2.170000 -0.320619 0
2.175000 -0.354651 4
2.180000 -0.301700 0
2.185000 -0.207516 0
2.190000 -0.112418 0
2.195000 -0.037541 0
2.200000 0.015335 0
2.205000 0.054033 0
2.210000 0.086717 0
2.215000 0.118203 0
2.220000 0.150315 0
2.225000 0.183264 0
2.230000 0.216585 0
2.235000 0.249561 0
2.240000 0.281363 0
2.245000 0.311116 0
2.250000 0.337941 0
2.255000 0.360997 0
2.260000 0.379526 0
2.265000 0.392894 0
2.270000 0.400622 0
2.275000 0.402419 5
2.280000 0.398196 0
2.285000 0.388072 0
2.290000 0.372369 0
2.295000 0.351593 0
2.300000 0.326408 0
2.305000 0.297598 0
2.310000 0.266027 0
2.315000 0.232596 0
2.320000 0.198200 0
2.325000 0.163690 0
2.330000 0.129839 0
2.335000 0.097314 0
2.340000 0.066665 0
2.345000 0.038309 0
2.350000 0.012534 0
2.355000 -0.010497 0
2.360000 -0.030731 0
2.365000 -0.048212 0
2.370000 -0.063063 0
2.375000 -0.075465 0
2.380000 -0.085638 0
2.385000 -0.093825 0
2.390000 -0.100279 0
2.395000 -0.105246 0
2.400000 -0.108963 0
2.405000 -0.111646 0
2.410000 -0.113084 0
2.415000 -0.112156 0
2.420000 -0.111232 0
2.425000 -0.110312 0
2.430000 -0.109396 0
2.435000 -0.108484 0
2.440000 -0.107572 0
2.445000 -0.106658 0
2.450000 -0.105736 0
2.455000 -0.104792 0
2.460000 -0.103806 0
2.465000 -0.102741 0
2.470000 -0.101536 0
2.475000 -0.100095 0
2.480000 -0.098271 0
2.485000 -0.095853 0
2.490000 -0.092545 0
2.495000 -0.087960 0
2.500000 -0.081615 0
2.505000 -0.072948 0
2.510000 -0.061357 0
2.515000 -0.046269 0
2.520000 -0.027230 0
2.525000 -0.004022 0
2.530000 0.023220 0
2.535000 0.053906 0
2.540000 0.086936 0
2.545000 0.120709 0
2.550000 0.153224 0
2.555000 0.182253 0
2.560000 0.205589 0
2.565000 0.221321 0
2.570000 0.228090 1
2.575000 0.225286 0
2.580000 0.213134 0
2.585000 0.192670 0
2.590000 0.165586 0
2.595000 0.134000 0
2.600000 0.100129 0
2.605000 0.065874 0
2.610000 0.032167 0
2.615000 -0.001987 0
2.620000 -0.040299 0
2.625000 -0.088237 0
2.630000 -0.148374 0
2.635000 -0.212952 0
2.640000 -0.259260 2
2.645000 -0.253267 0
2.650000 -0.159661 0
2.655000 0.046490 0
2.660000 0.363051 0
2.665000 0.736709 0
2.670000 1.054779 0
2.675000 1.188092 3
2.680000 1.073164 0
2.685000 0.757909 0
2.690000 0.362652 0
2.695000 0.006490 0
2.700000 -0.240832 0
2.705000 -0.360350 0
2.710000 -0.367664 4
2.715000 -0.299996 0
2.720000 -0.202412 0
2.725000 -0.110668 0
2.730000 -0.040689 0
2.735000 0.008712 0
2.740000 0.045825 0
2.745000 0.078123 0
2.750000 0.109712 0
2.755000 0.142025 0
2.760000 0.175123 0
2.765000 0.208506 0
2.770000 0.241453 0
2.775000 0.273149 0
2.780000 0.302737 0
2.785000 0.329362 0
2.790000 0.352208 0
2.795000 0.370543 0
2.800000 0.383755 0
2.805000 0.391384 0
2.810000 0.393150 5
2.815000 0.388970 0
2.820000 0.378960 0
2.825000 0.363433 0
2.830000 0.342878 0
2.835000 0.317939 0
2.840000 0.289376 0
2.845000 0.258029 0
2.850000 0.224775 0
2.855000 0.190490 0
2.860000 0.156010 0
2.865000 0.122098 0
2.870000 0.089420 0
2.875000 0.058527 0
2.880000 0.029845 0
2.885000 0.003676 0
2.890000 -0.019802 0
2.895000 -0.040517 0
2.900000 -0.058498 0
2.905000 -0.073849 0
2.910000 -0.086735 0
2.915000 -0.097364 0
2.920000 -0.105970 0
2.925000 -0.112798 0
2.930000 -0.118091 0
2.935000 -0.122083 0
2.940000 -0.124992 0
2.945000 -0.127012 0
2.950000 -0.126451 0
2.955000 -0.125456 0
2.960000 -0.124465 0
2.965000 -0.123479 0
2.970000 -0.122497 0
2.975000 -0.121517 0
2.980000 -0.120537 0
2.985000 -0.119552 0
2.990000 -0.118553 0
2.995000 -0.117523 0
3.000000 -0.116434 0
3.005000 -0.115238 0
3.010000 -0.113860 0
3.015000 -0.112182 0
3.020000 -0.110031 0
3.025000 -0.107163 0
3.030000 -0.103246 0
3.035000 -0.097858 0
3.040000 -0.090491 0
3.045000 -0.080572 0
3.050000 -0.067517 0
3.055000 -0.050802 0
3.060000 -0.030064 0
3.065000 -0.005214 0
3.070000 0.023456 0
3.075000 0.055190 0
3.080000 0.088733 0
3.085000 0.122374 0
3.090000 0.154062 0
3.095000 0.181603 0
3.100000 0.202902 0
3.105000 0.216232 0
3.110000 0.220460 1
3.115000 0.215209 0
3.120000 0.200911 0
3.125000 0.178755 0
3.130000 0.150515 0
3.135000 0.118307 0
3.140000 0.084272 0
3.145000 0.050138 0
3.150000 0.016545 0
3.155000 -0.017899 0
3.160000 -0.057237 0
3.165000 -0.106782 0
3.170000 -0.168131 0
3.175000 -0.232031 0
3.180000 -0.274738 2
3.185000 -0.262414 0
3.190000 -0.160997 0
3.195000 0.052578 0
3.200000 0.373891 0
3.205000 0.747944 0
3.210000 1.062943 0
3.215000 1.193218 3
3.220000 1.075899 0
3.225000 0.757044 0
3.230000 0.361378 0
3.235000 0.010057 0
3.240000 -0.228249 0
3.245000 -0.337044 4
3.250000 -0.334800 0
3.255000 -0.261431 0
3.260000 -0.163111 0
3.265000 -0.074268 0
3.270000 -0.008214 0
3.275000 0.038196 0
3.280000 0.073771 0
3.285000 0.105587 0
3.290000 0.137182 0
3.295000 0.169613 0
3.300000 0.202750 0
3.305000 0.235997 0
3.310000 0.268577 0
3.315000 0.299633 0
3.320000 0.328277 0
3.325000 0.353635 0
3.330000 0.374890 0
3.335000 0.391326 0
3.340000 0.402366 0
3.345000 0.407603 5
3.350000 0.406829 0
3.355000 0.400041 0
3.360000 0.387449 0
3.365000 0.369457 0
3.370000 0.346649 0
3.375000 0.319748 0
3.380000 0.289583 0
3.385000 0.257047 0
3.390000 0.223048 0
3.395000 0.188471 0
3.400000 0.154140 0
3.405000 0.120787 0
3.410000 0.089033 0
3.415000 0.059367 0
3.420000 0.032152 0
3.425000 0.007616 0
3.430000 -0.014129 0
3.435000 -0.033079 0
3.440000 -0.049319 0
3.445000 -0.063001 0
3.450000 -0.074329 0
3.455000 -0.083537 0
3.460000 -0.090877 0
3.465000 -0.096601 0
3.470000 -0.100953 0
3.475000 -0.104160 0
3.480000 -0.106430 0
3.485000 -0.105992 0
3.490000 -0.105099 0
3.495000 -0.104210 0
3.500000 -0.103325 0
3.505000 -0.102443 0
3.510000 -0.101564 0
3.515000 -0.100684 0
3.520000 -0.099798 0
3.525000 -0.098899 0
3.530000 -0.097968 0
3.535000 -0.096977 0
3.540000 -0.095877 0
3.545000 -0.094591 0
3.550000 -0.092994 0
3.555000 -0.090907 0
3.560000 -0.088073 0
3.565000 -0.084144 0
3.570000 -0.078677 0
3.575000 -0.071138 0
3.580000 -0.060933 0
3.585000 -0.047463 0
3.590000 -0.030205 0
3.595000 -0.008822 0
3.600000 0.016716 0
3.605000 0.046020 0
3.610000 0.078204 0
3.615000 0.111864 0
3.620000 0.145137 0
3.625000 0.175848 0
3.630000 0.201738 0
3.635000 0.220728 0
3.640000 0.231197 0
3.645000 0.232212 1
3.650000 0.223660 0
3.655000 0.206271 0
3.660000 0.181513 0
3.665000 0.151381 0
3.670000 0.118111 0
3.675000 0.083798 0
3.680000 0.049847 0
3.685000 0.016117 0
3.690000 -0.020073 0
3.695000 -0.063885 0
3.700000 -0.119776 0
3.705000 -0.184589 0
3.710000 -0.241001 0
3.715000 -0.257923 2
3.720000 -0.198996 0
3.725000 -0.033971 0
3.730000 0.247084 0
3.735000 0.611026 0
3.740000 0.963304 0
3.745000 1.171307 3
3.750000 1.140355 0
3.755000 0.881059 0
3.760000 0.497573 0
3.765000 0.118202 0
3.770000 -0.168375 0
3.775000 -0.328159 0
3.780000 -0.367443 4
3.785000 -0.318200 0
3.790000 -0.225242 0
3.795000 -0.129155 0
3.800000 -0.052305 0
3.805000 0.002321 0
3.810000 0.042037 0
3.815000 0.075102 0
3.820000 0.106628 0
3.825000 0.138671 0
3.830000 0.171566 0
3.835000 0.204911 0
3.840000 0.238022 0
3.845000 0.270093 0
3.850000 0.300268 0
3.855000 0.327680 0
3.860000 0.351491 0
3.865000 0.370939 0
3.870000 0.385374 0
3.875000 0.394294 0
3.880000 0.397372 5
3.885000 0.394479 0
3.890000 0.385689 0
3.895000 0.371274 0
3.900000 0.351692 0
3.905000 0.327563 0
3.910000 0.299633 0
3.915000 0.268736 0
3.920000 0.235753 0
3.925000 0.201571 0
3.930000 0.167044 0
3.935000 0.132955 0
3.940000 0.099997 0
3.945000 0.068746 0
3.950000 0.039653 0
3.955000 0.013043 0
3.960000 -0.010884 0
3.965000 -0.032042 0
3.970000 -0.050444 0
3.975000 -0.066186 0
3.980000 -0.079426 0
3.985000 -0.090369 0
3.990000 -0.099249 0
3.995000 -0.106312 0
4.000000 -0.111804 0
4.005000 -0.115963 0
4.010000 -0.119010 0
4.015000 -0.121144 0
4.020000 -0.120625 0
4.025000 -0.119658 0
4.030000 -0.118697 0
4.035000 -0.117740 0
4.040000 -0.116786 0
4.045000 -0.115835 0
4.050000 -0.114884 0
4.055000 -0.113928 0
4.060000 -0.112958 0
4.065000 -0.111959 0
4.070000 -0.110902 0
4.075000 -0.109742 0
4.080000 -0.108402 0
4.085000 -0.106768 0
4.090000 -0.104668 0
4.095000 -0.101857 0
4.100000 -0.098005 0
4.105000 -0.092689 0
4.110000 -0.085398 0
4.115000 -0.075555 0
4.120000 -0.062571 0
4.125000 -0.045915 0
4.130000 -0.025220 0
4.135000 -0.000394 0
4.140000 0.028268 0
4.145000 0.060000 0
4.150000 0.093534 0
4.155000 0.127138 0
4.160000 0.158737 0
4.165000 0.186118 0
4.170000 0.207176 0
4.175000 0.220182 0
4.180000 0.224017 1
4.185000 0.218334 0
4.190000 0.203605 0
4.195000 0.181061 0
4.200000 0.152516 0
4.205000 0.120117 0
4.210000 0.086011 0
4.215000 0.051891 0
4.220000 0.018292 0
4.225000 -0.016383 0
4.230000 -0.056404 0
4.235000 -0.107058 0
4.240000 -0.169270 0
4.245000 -0.232393 0
4.250000 -0.271165 2
4.255000 -0.250947 0
4.260000 -0.137993 0
4.265000 0.088875 0
4.270000 0.420511 0
4.275000 0.794191 0
4.280000 1.091977 0
4.285000 1.190973 3
4.290000 1.042233 0
4.295000 0.706530 0
4.300000 0.310522 0
4.305000 -0.031005 0
4.310000 -0.256580 0
4.315000 -0.354126 4
4.320000 -0.344248 0
4.325000 -0.267398 0
4.330000 -0.168774 0
4.335000 -0.081025 0
4.340000 -0.016064 0
4.345000 0.029758 0
4.350000 0.065156 0
4.355000 0.096980 0
4.360000 0.128631 0
4.365000 0.161115 0
4.370000 0.194296 0
4.375000 0.227586 0
4.380000 0.260222 0
4.385000 0.291361 0
4.390000 0.320130 0
4.395000 0.345668 0
4.400000 0.367167 0
4.405000 0.383919 0
4.410000 0.395346 0
4.415000 0.401038 5
4.420000 0.400775 0
4.425000 0.394539 0
4.430000 0.382517 0
4.435000 0.365092 0
4.440000 0.342820 0
4.445000 0.316400 0
4.450000 0.286637 0
4.455000 0.254405 0
4.460000 0.220598 0
4.465000 0.186091 0
4.470000 0.151708 0
4.475000 0.118184 0
4.480000 0.086150 0
4.485000 0.056112 0
4.490000 0.028447 0
4.495000 0.003407 0
4.500000 -0.018878 0
4.505000 -0.038382 0
4.510000 -0.055173 0
4.515000 -0.069386 0
4.520000 -0.081212 0
4.525000 -0.090877 0
4.530000 -0.098625 0
4.535000 -0.104705 0
4.540000 -0.109360 0
4.545000 -0.112820 0
4.550000 -0.115293 0
4.555000 -0.116586 0
4.560000 -0.115640 0
4.565000 -0.114698 0
4.570000 -0.113761 0
4.575000 -0.112828 0
4.580000 -0.111897 0
4.585000 -0.110968 0
4.590000 -0.110036 0
4.595000 -0.109093 0
4.600000 -0.108127 0
4.605000 -0.107115 0
4.610000 -0.106016 0
4.615000 -0.104766 0
4.620000 -0.103264 0
4.625000 -0.101358 0
4.630000 -0.098825 0
4.635000 -0.095365 0
4.640000 -0.090579 0
4.645000 -0.083981 0
4.650000 -0.075007 0
4.655000 -0.063061 0
4.660000 -0.047582 0
4.665000 -0.028138 0
4.670000 -0.004543 0
4.675000 0.023033 0
4.680000 0.053965 0
4.685000 0.087123 0
4.690000 0.120890 0
4.695000 0.153259 0
4.700000 0.182021 0
4.705000 0.205000 0
4.710000 0.220328 0
4.715000 0.226691 1
4.720000 0.223521 0
4.725000 0.211074 0
4.730000 0.190400 0
4.735000 0.163193 0
4.740000 0.131552 0
4.745000 0.097674 0
4.750000 0.063432 0
4.755000 0.029738 0
4.760000 -0.004398 0
4.765000 -0.042649 0
4.770000 -0.090429 0
4.775000 -0.150373 0
4.780000 -0.215036 0
4.785000 -0.262249 2
4.790000 -0.258501 0
4.795000 -0.168693 0
4.800000 0.032494 0
4.805000 0.344573 0
4.810000 0.717641 0
4.815000 1.042646 0
4.820000 1.190471 3
4.825000 1.090956 0
4.830000 0.783798 0
4.835000 0.389349 0
4.840000 0.030387 0
4.845000 -0.220017 0
4.850000 -0.341415 0
4.855000 -0.349278 4
4.860000 -0.281456 0
4.865000 -0.183852 0
4.870000 -0.092639 0
4.875000 -0.023544 0
4.880000 0.025050 0
4.885000 0.061671 0
4.890000 0.093770 0
4.895000 0.125322 0
4.900000 0.157646 0
4.905000 0.190734 0
4.910000 0.224046 0
4.915000 0.256834 0
4.920000 0.288259 0
4.925000 0.317445 0
4.930000 0.343524 0
4.935000 0.365673 0
4.940000 0.383161 0
4.945000 0.395387 0
4.950000 0.401913 0
4.955000 0.402488 5
4.960000 0.397065 0
4.965000 0.385806 0
4.970000 0.369067 0
4.975000 0.347386 0
4.980000 0.321449 0
4.985000 0.292054 0
4.990000 0.260071 0
4.995000 0.226399 0
5.000000 0.191923 0
5.005000 0.157476 0
5.010000 0.123812 0
5.015000 0.091575 0
5.020000 0.061288 0
5.025000 0.033346 0
5.030000 0.008014 0
5.035000 -0.014565 0
5.040000 -0.034355 0
5.045000 -0.051415 0
5.050000 -0.065875 0
5.055000 -0.077923 0
5.060000 -0.087783 0
5.065000 -0.095699 0
5.070000 -0.101922 0
5.075000 -0.106697 0
5.080000 -0.110256 0
5.085000 -0.112810 0
5.090000 -0.114161 0
5.095000 -0.113227 0
5.100000 -0.112298 0
5.105000 -0.111373 0
5.110000 -0.110451 0
5.115000 -0.109533 0
5.120000 -0.108616 0
5.125000 -0.107696 0
5.130000 -0.106766 0
5.135000 -0.105813 0
5.140000 -0.104816 0
5.145000 -0.103734 0
5.150000 -0.102505 0
5.155000 -0.101028 0
5.160000 -0.099153 0
5.165000 -0.096661 0
5.170000 -0.093250 0
5.175000 -0.088528 0
5.180000 -0.082004 0
5.185000 -0.073116 0
5.190000 -0.061265 0
5.195000 -0.045884 0
5.200000 -0.026536 0
5.205000 -0.003027 0
5.210000 0.024479 0
5.215000 0.055363 0
5.220000 0.088495 0
5.225000 0.122255 0
5.230000 0.154632 0
5.235000 0.183404 0
5.240000 0.206384 0
5.245000 0.221695 0
5.250000 0.228018 1
5.255000 0.224784 0
5.260000 0.212255 0
5.265000 0.191493 0
5.270000 0.164205 0
5.275000 0.132505 0
5.280000 0.098598 0
5.285000 0.064355 0
5.290000 0.030662 0
5.295000 -0.003532 0
5.300000 -0.041985 0
5.305000 -0.090140 0
5.310000 -0.150443 0
5.315000 -0.214959 0
5.320000 -0.260902 2
5.325000 -0.254340 0
5.330000 -0.160177 0
5.335000 0.046306 0
5.340000 0.362894 0
5.345000 0.736550 0
5.350000 1.055274 0
5.355000 1.190403 3
5.360000 1.077130 0
5.365000 0.761664 0
5.370000 0.366311 0
5.375000 0.011761 0
5.380000 -0.232116 0
5.385000 -0.347185 0
5.390000 -0.350299 4
5.395000 -0.279991 0
5.400000 -0.182002 0
5.405000 -0.091603 0
5.410000 -0.023532 0
5.415000 0.024368 0
5.420000 0.060683 0
5.425000 0.092716 0
5.430000 0.124297 0
5.435000 0.156667 0
5.440000 0.189786 0
5.445000 0.223104 0
5.450000 0.255869 0
5.455000 0.287243 0
5.460000 0.316351 0
5.465000 0.342328 0
5.470000 0.364356 0
5.475000 0.381708 0
5.480000 0.393789 0
5.485000 0.400166 0
5.490000 0.400595 5
5.495000 0.395036 0
5.500000 0.383653 0
5.505000 0.366808 0
5.510000 0.345039 0
5.515000 0.319034 0
5.520000 0.289592 0
5.525000 0.257582 0
5.530000 0.223899 0
5.535000 0.189427 0
5.540000 0.154997 0
5.545000 0.121357 0
5.550000 0.089150 0
5.555000 0.058896 0
5.560000 0.030988 0
5.565000 0.005688 0
5.570000 -0.016860 0
5.575000 -0.036624 0
5.580000 -0.053660 0
5.585000 -0.068101 0
5.590000 -0.080133 0
5.595000 -0.089979 0
5.600000 -0.097885 0
5.605000 -0.104099 0
5.610000 -0.108866 0
5.615000 -0.112418 0
5.620000 -0.114965 0
5.625000 -0.116309 0
5.630000 -0.115364 0
5.635000 -0.114424 0
5.640000 -0.113488 0
5.645000 -0.112557 0
5.650000 -0.111628 0
5.655000 -0.110700 0
5.660000 -0.109770 0
5.665000 -0.108830 0
5.670000 -0.107868 0
5.675000 -0.106861 0
5.680000 -0.105771 0
5.685000 -0.104536 0
5.690000 -0.103056 0
5.695000 -0.101182 0
5.700000 -0.098697 0
5.705000 -0.095304 0
5.710000 -0.090611 0
5.715000 -0.084134 0
5.720000 -0.075312 0
5.725000 -0.063546 0
5.730000 -0.048271 0
5.735000 -0.029045 0
5.740000 -0.005663 0
5.745000 0.021724 0
5.750000 0.052513 0
5.755000 0.085598 0
5.760000 0.119377 0
5.765000 0.151857 0
5.770000 0.180823 0
5.775000 0.204089 0
5.780000 0.219762 0
5.785000 0.226500 1
5.790000 0.223700 0
5.795000 0.211586 0
5.800000 0.191183 0
5.805000 0.164170 0
5.810000 0.132642 0
5.815000 0.098804 0
5.820000 0.064552 0
5.825000 0.030843 0
5.830000 -0.003244 0
5.835000 -0.041314 0
5.840000 -0.088790 0
5.845000 -0.148469 0
5.850000 -0.213216 0
5.855000 -0.261148 2
5.860000 -0.258828 0
5.865000 -0.170992 0
5.870000 0.028056 0
5.875000 0.338494 0
5.880000 0.711302 0
5.885000 1.037946 0
5.890000 1.188765 3
5.895000 1.092807 0
5.900000 0.788913 0
5.905000 0.395035 0
5.910000 0.033263 0
5.915000 -0.222336 0
5.920000 -0.349783 0
5.925000 -0.362994 4
5.930000 -0.298436 0
5.935000 -0.201445 0
5.940000 -0.108872 0
5.945000 -0.037799 0
5.950000 0.012344 0
5.955000 0.049777 0
5.960000 0.082140 0
5.965000 0.113691 0
5.970000 0.145950 0
5.975000 0.179006 0
5.980000 0.212366 0
5.985000 0.245309 0
5.990000 0.277017 0
5.995000 0.306629 0
6.000000 0.333284 0
6.005000 0.356160 0
6.010000 0.374519 0
6.015000 0.387744 0
6.020000 0.395371 0
6.025000 0.397119 5
6.030000 0.392903 0
6.035000 0.382841 0
6.040000 0.367248 0
6.045000 0.346619 0
6.050000 0.321601 0
6.055000 0.292960 0
6.060000 0.261544 0
6.065000 0.228234 0
6.070000 0.193912 0
6.075000 0.159417 0
6.080000 0.125512 0
6.085000 0.092866 0
6.090000 0.062028 0
6.095000 0.033422 0
6.100000 0.007346 0
6.105000 -0.016025 0
6.110000 -0.036625 0
6.115000 -0.054486 0
6.120000 -0.069718 0
6.125000 -0.082488 0
6.130000 -0.093008 0
6.135000 -0.101515 0
6.140000 -0.108255 0
6.145000 -0.113472 0
6.150000 -0.117401 0
6.155000 -0.120259 0
6.160000 -0.121810 0
6.165000 -0.120838 0
6.170000 -0.119871 0
6.175000 -0.118908 0
6.180000 -0.117950 0
6.185000 -0.116995 0
6.190000 -0.116042 0
6.195000 -0.115089 0
6.200000 -0.114130 0
6.205000 -0.113154 0
6.210000 -0.112146 0
6.215000 -0.111074 0
6.220000 -0.109887 0
6.225000 -0.108506 0
6.230000 -0.106807 0
6.235000 -0.104607 0
6.240000 -0.101650 0
6.245000 -0.097591 0
6.250000 -0.091994 0
6.255000 -0.084336 0
6.260000 -0.074036 0
6.265000 -0.060510 0
6.270000 -0.043247 0
6.275000 -0.021917 0
6.280000 0.003522 0
6.285000 0.032707 0
6.290000 0.064801 0
6.295000 0.098464 0
6.300000 0.131911 0
6.305000 0.163038 0
6.310000 0.189637 0
6.315000 0.209646 0
6.320000 0.221415 0
6.325000 0.223930 1
6.330000 0.216956 0
6.335000 0.201075 0
6.340000 0.177606 0
6.345000 0.148419 0
6.350000 0.115676 0
6.355000 0.081488 0
6.360000 0.047441 0
6.365000 0.013850 0
6.370000 -0.021212 0
6.375000 -0.062292 0
6.380000 -0.114490 0
6.385000 -0.177677 0
6.390000 -0.239470 0
6.395000 -0.273116 2
6.400000 -0.243602 0
6.405000 -0.118103 0
6.410000 0.122089 0
6.415000 0.462839 0
6.420000 0.834628 0
6.425000 1.115773 0
6.430000 1.188125 3
6.435000 1.013878 0
6.440000 0.664016 0
6.445000 0.269542 0
6.450000 -0.058673 0
6.455000 -0.265797 0
6.460000 -0.345241 4
6.465000 -0.321750 0
6.470000 -0.238346 0
6.475000 -0.139913 0
6.480000 -0.056108 0
6.485000 0.004556 0
6.490000 0.047553 0
6.495000 0.081718 0
6.500000 0.113276 0
6.505000 0.145037 0
6.510000 0.177673 0
6.515000 0.210899 0
6.520000 0.244060 0
6.525000 0.276355 0
6.530000 0.306913 0
6.535000 0.334847 0
6.540000 0.359293 0
6.545000 0.379455 0
6.550000 0.394645 0
6.555000 0.404325 0
6.560000 0.408134 5
6.565000 0.405913 0
6.570000 0.397709 0
6.575000 0.383781 0
6.580000 0.364578 0
6.585000 0.340720 0
6.590000 0.312959 0
6.595000 0.282145 0
6.600000 0.249176 0
6.605000 0.214960 0
6.610000 0.180369 0
6.615000 0.146208 0
6.620000 0.113184 0
6.625000 0.081888 0
6.630000 0.052779 0
6.635000 0.026186 0
6.640000 0.002310 0
6.645000 -0.018766 0
6.650000 -0.037060 0
6.655000 -0.052674 0
6.660000 -0.065776 0
6.665000 -0.076577 0
6.670000 -0.085317 0
6.675000 -0.092250 0
6.680000 -0.097626 0
6.685000 -0.101686 0
6.690000 -0.104652 0
6.695000 -0.106295 0
6.700000 -0.105401 0
6.705000 -0.104510 0
6.710000 -0.103624 0
6.715000 -0.102742 0
6.720000 -0.101863 0
6.725000 -0.100985 0
6.730000 -0.100107 0
6.735000 -0.099221 0
6.740000 -0.098317 0
6.745000 -0.097377 0
6.750000 -0.096368 0
6.755000 -0.095234 0
6.760000 -0.093888 0
6.765000 -0.092196 0
6.770000 -0.089960 0
6.775000 -0.086902 0
6.780000 -0.082654 0
6.785000 -0.076747 0
6.790000 -0.068632 0
6.795000 -0.057707 0
6.800000 -0.043382 0
6.805000 -0.025168 0
6.810000 -0.002790 0
6.815000 0.023692 0
6.820000 0.053777 0
6.825000 0.086456 0
6.830000 0.120205 0
6.835000 0.153073 0
6.840000 0.182842 0
6.845000 0.207270 0
6.850000 0.224364 0
6.855000 0.232648 1
6.860000 0.231373 0
6.865000 0.220631 0
6.870000 0.201339 0
6.875000 0.175113 0
6.880000 0.144033 0
6.885000 0.110339 0
6.890000 0.076025 0
6.895000 0.042217 0
6.900000 0.008254 0
6.905000 -0.029217 0
6.910000 -0.075633 0
6.915000 -0.134370 0
6.920000 -0.199351 0
6.925000 -0.249615 0
6.930000 -0.251860 2
6.935000 -0.170127 0
6.940000 0.022569 0
6.945000 0.328334 0
6.950000 0.700293 0
6.955000 1.030569 0
6.960000 1.187379 3
6.965000 1.096953 0
6.970000 0.796766 0
6.975000 0.403499 0
6.980000 0.039740 0
6.985000 -0.219153 0
6.990000 -0.350065 0
6.995000 -0.366101 4
7.000000 -0.303181 0
7.005000 -0.206538 0
7.010000 -0.113440 0
7.015000 -0.041594 0
7.020000 0.009141 0
7.025000 0.046878 0
7.030000 0.079336 0
7.035000 0.110886 0
7.040000 0.143119 0
7.045000 0.176159 0
7.050000 0.209527 0
7.055000 0.242510 0
7.060000 0.274294 0
7.065000 0.304021 0
7.070000 0.330829 0
7.075000 0.353897 0
7.080000 0.372484 0
7.085000 0.385967 0
7.090000 0.393876 0
7.095000 0.395921 5
7.100000 0.392006 0
7.105000 0.382242 0
7.110000 0.366931 0
7.115000 0.346558 0
7.120000 0.321764 0
7.125000 0.293307 0
7.130000 0.262029 0
7.135000 0.228810 0
7.140000 0.194530 0
7.145000 0.160030 0
7.150000 0.126078 0
7.155000 0.093345 0
7.160000 0.062389 0
7.165000 0.033640 0
7.170000 0.007404 0
7.175000 -0.016138 0
7.180000 -0.036913 0
7.185000 -0.054948 0
7.190000 -0.070345 0
7.195000 -0.083270 0
7.200000 -0.093933 0
7.205000 -0.102566 0
7.210000 -0.109417 0
7.215000 -0.114729 0
7.220000 -0.118738 0
7.225000 -0.121661 0
7.230000 -0.123695 0
7.235000 -0.123150 0
7.240000 -0.122171 0
7.245000 -0.121197 0
7.250000 -0.120227 0
7.255000 -0.119261 0
7.260000 -0.118297 0
7.265000 -0.117333 0
7.270000 -0.116364 0
7.275000 -0.115380 0
7.280000 -0.114364 0
7.285000 -0.113289 0
7.290000 -0.112105 0
7.295000 -0.110735 0
7.300000 -0.109060 0
7.305000 -0.106905 0
7.310000 -0.104020 0
7.315000 -0.100071 0
7.320000 -0.094629 0
7.325000 -0.087182 0
7.330000 -0.077152 0
7.335000 -0.063954 0
7.340000 -0.047067 0
7.345000 -0.026138 0
7.350000 -0.001093 0
7.355000 0.027752 0
7.360000 0.059611 0
7.365000 0.093198 0
7.370000 0.126769 0
7.375000 0.158253 0
7.380000 0.185445 0
7.385000 0.206258 0
7.390000 0.218989 0
7.395000 0.222550 1
7.400000 0.216616 0
7.405000 0.201681 0
7.410000 0.178987 0
7.415000 0.150351 0
7.420000 0.117911 0
7.425000 0.083801 0
7.430000 0.049697 0
7.435000 0.016109 0
7.440000 -0.018578 0
7.445000 -0.058634 0
7.450000 -0.109316 0
7.455000 -0.171526 0
7.460000 -0.234657 0
7.465000 -0.273592 2
7.470000 -0.253867 0
7.475000 -0.141856 0
7.480000 0.083703 0
7.485000 0.414198 0
7.490000 0.788050 0
7.495000 1.088500 0
7.500000 1.192559 3
7.505000 1.048972 0
7.510000 0.715832 0
7.515000 0.319773 0
7.520000 -0.023222 0
7.525000 -0.250536 0
7.530000 -0.349483 4
7.535000 -0.340453 0
7.540000 -0.263940 0
7.545000 -0.165352 0
7.550000 -0.077567 0
7.555000 -0.012607 0
7.560000 0.033177 0
7.565000 0.068537 0
7.570000 0.100339 0
7.575000 0.131979 0
7.580000 0.164457 0
7.585000 0.197628 0
7.590000 0.230900 0
7.595000 0.263505 0
7.600000 0.294595 0
7.605000 0.323292 0
7.610000 0.348734 0
7.615000 0.370112 0
7.620000 0.386716 0
7.625000 0.397969 0
7.630000 0.403467 5
7.635000 0.402992 0
7.640000 0.396536 0
7.645000 0.384293 0
7.650000 0.366653 0
7.655000 0.344181 0
7.660000 0.317585 0
7.665000 0.287677 0
7.670000 0.255336 0
7.675000 0.221460 0
7.680000 0.186927 0
7.685000 0.152559 0
7.690000 0.119091 0
7.695000 0.087147 0
7.700000 0.057229 0
7.705000 0.029709 0
7.710000 0.004830 0
7.715000 -0.017283 0
7.720000 -0.036612 0
7.725000 -0.053229 0
7.730000 -0.067275 0
7.735000 -0.078945 0
7.740000 -0.088468 0
7.745000 -0.096088 0
7.750000 -0.102058 0
7.755000 -0.106620 0
7.760000 -0.110002 0
7.765000 -0.112413 0
7.770000 -0.111971 0
7.775000 -0.111048 0
7.780000 -0.110130 0
7.785000 -0.109215 0
7.790000 -0.108305 0
7.795000 -0.107396 0
7.800000 -0.106489 0
7.805000 -0.105578 0
7.810000 -0.104655 0
7.815000 -0.103707 0
7.820000 -0.102709 0
7.825000 -0.101618 0
7.830000 -0.100366 0
7.835000 -0.098847 0
7.840000 -0.096899 0
7.845000 -0.094293 0
7.850000 -0.090711 0
7.855000 -0.085746 0
7.860000 -0.078896 0
7.865000 -0.069588 0
7.870000 -0.057223 0
7.875000 -0.041250 0
7.880000 -0.021261 0
7.885000 0.002888 0
7.890000 0.030969 0
7.895000 0.062283 0
7.900000 0.095622 0
7.905000 0.129298 0
7.910000 0.161253 0
7.915000 0.189255 0
7.920000 0.211150 0
7.925000 0.225132 0
7.930000 0.229989 1
7.935000 0.225277 0
7.940000 0.211389 0
7.945000 0.189493 0
7.950000 0.161379 0
7.955000 0.129193 0
7.960000 0.095121 0
7.965000 0.060932 0
7.970000 0.027284 0
7.975000 -0.007253 0
7.980000 -0.046830 0
7.985000 -0.096834 0
7.990000 -0.158630 0
7.995000 -0.222181 0
8.000000 -0.262593 2
8.005000 -0.245078 0
8.010000 -0.135343 0
8.015000 0.088581 0
8.020000 0.418484 0
8.025000 0.792231 0
8.030000 1.091345 0
8.035000 1.191448 3
8.040000 1.042750 0
8.045000 0.706632 0
8.050000 0.310679 0
8.055000 -0.029829 0
8.060000 -0.253577 0
8.065000 -0.348969 4
8.070000 -0.337211 0
8.075000 -0.259319 0
8.080000 -0.160681 0
8.085000 -0.073622 0
8.090000 -0.009498 0
8.095000 0.035723 0
8.100000 0.070830 0
8.105000 0.102575 0
8.110000 0.134238 0
8.115000 0.166750 0
8.120000 0.199936 0
8.125000 0.233191 0
8.130000 0.265739 0
8.135000 0.296727 0
8.140000 0.325274 0
8.145000 0.350517 0
8.150000 0.371649 0
8.155000 0.387964 0
8.160000 0.398893 0
8.165000 0.404039 5
8.170000 0.403198 0
8.175000 0.396373 0
8.180000 0.383770 0
8.185000 0.365795 0
8.190000 0.343022 0
8.195000 0.316171 0
8.200000 0.286063 0
8.205000 0.253581 0
8.210000 0.219625 0
8.215000 0.185073 0
8.220000 0.150745 0
8.225000 0.117369 0
8.230000 0.085564 0
8.235000 0.055822 0
8.240000 0.028505 0
8.245000 0.003848 0
8.250000 -0.018034 0
8.255000 -0.037131 0
8.260000 -0.053521 0
8.265000 -0.067353 0
8.270000 -0.078824 0
8.275000 -0.088167 0
8.280000 -0.095628 0
8.285000 -0.101459 0
8.290000 -0.105903 0
8.295000 -0.109186 0
8.300000 -0.111517 0
8.305000 -0.111067 0
8.310000 -0.110148 0
8.315000 -0.109234 0
8.320000 -0.108324 0
8.325000 -0.107418 0
8.330000 -0.106514 0
8.335000 -0.105610 0
8.340000 -0.104702 0
8.345000 -0.103781 0
8.350000 -0.102833 0
8.355000 -0.101830 0
8.360000 -0.100728 0
8.365000 -0.099455 0
8.370000 -0.097898 0
8.375000 -0.095887 0
8.380000 -0.093183 0
8.385000 -0.089457 0
8.390000 -0.084286 0
8.395000 -0.077158 0
8.400000 -0.067491 0
8.405000 -0.054686 0
8.410000 -0.038203 0
8.415000 -0.017662 0
8.420000 0.007040 0
8.425000 0.035613 0
8.430000 0.067288 0
8.435000 0.100784 0
8.440000 0.134345 0
8.445000 0.165872 0
8.450000 0.193119 0
8.455000 0.213959 0
8.460000 0.226653 0
8.465000 0.230093 1
8.470000 0.223955 0
8.475000 0.208756 0
8.480000 0.185778 0
8.485000 0.156886 0
8.490000 0.124265 0
8.495000 0.090073 0
8.500000 0.055965 0
8.505000 0.022338 0
8.510000 -0.012671 0
8.515000 -0.053612 0
8.520000 -0.105692 0
8.525000 -0.168881 0
8.530000 -0.230657 0
8.535000 -0.263812 2
8.540000 -0.232752 0
8.545000 -0.104298 0
8.550000 0.139911 0
8.555000 0.483829 0
8.560000 0.854125 0
8.565000 1.125647 0
8.570000 1.181358 3
8.575000 0.991715 0
8.580000 0.635649 0
8.585000 0.242081 0
8.590000 -0.082711 0
8.595000 -0.287010 0
8.600000 -0.365234 4
8.605000 -0.341813 0
8.610000 -0.258789 0
8.615000 -0.160159 0
8.620000 -0.075434 0
8.625000 -0.013613 0
8.630000 0.030269 0
8.635000 0.064888 0
8.640000 0.096585 0
8.645000 0.128341 0
8.650000 0.160953 0
8.655000 0.194203 0
8.660000 0.227478 0
8.665000 0.260009 0
8.670000 0.290953 0
8.675000 0.319442 0
8.680000 0.344625 0
8.685000 0.365710 0
8.690000 0.382004 0
8.695000 0.392947 0
8.700000 0.398150 5
8.705000 0.397409 0
8.710000 0.390726 0
8.715000 0.378302 0
8.720000 0.360529 0
8.725000 0.337970 0
8.730000 0.311329 0
8.735000 0.281412 0
8.740000 0.249085 0
8.745000 0.215237 0
8.750000 0.180736 0
8.755000 0.146395 0
8.760000 0.112940 0
8.765000 0.080992 0
8.770000 0.051049 0
8.775000 0.023480 0
8.780000 -0.001468 0
8.785000 -0.023669 0
8.790000 -0.043101 0
8.795000 -0.059829 0
8.800000 -0.073992 0
8.805000 -0.085779 0
8.810000 -0.095414 0
8.815000 -0.103139 0
8.820000 -0.109202 0
8.825000 -0.113844 0
8.830000 -0.117293 0
8.835000 -0.119757 0
8.840000 -0.121039 0
8.845000 -0.120071 0
8.850000 -0.119107 0
8.855000 -0.118148 0
8.860000 -0.117193 0
8.865000 -0.116241 0
8.870000 -0.115290 0
8.875000 -0.114337 0
8.880000 -0.113374 0
8.885000 -0.112388 0
8.890000 -0.111358 0
8.895000 -0.110245 0
8.900000 -0.108987 0
8.905000 -0.107486 0
8.910000 -0.105594 0
8.915000 -0.103097 0
8.920000 -0.099703 0
8.925000 -0.095024 0
8.930000 -0.088583 0
8.935000 -0.079827 0
8.940000 -0.068164 0
8.945000 -0.053030 0
8.950000 -0.033982 0
8.955000 -0.010802 0
8.960000 0.016383 0
8.965000 0.047003 0
8.970000 0.079994 0
8.975000 0.113803 0
8.980000 0.146477 0
8.985000 0.175836 0
8.990000 0.199700 0
8.995000 0.216161 0
9.000000 0.223827 1
9.005000 0.222027 0
9.010000 0.210896 0
9.015000 0.191369 0
9.020000 0.165045 0
9.025000 0.133965 0
9.030000 0.100319 0
9.035000 0.066054 0
9.040000 0.032287 0
9.045000 -0.001573 0
9.050000 -0.038705 0
9.055000 -0.084396 0
9.060000 -0.142259 0
9.065000 -0.207260 0
9.070000 -0.260136 0
9.075000 -0.269124 2
9.080000 -0.198828 0
9.085000 -0.021186 0
9.090000 0.270247 0
9.095000 0.637833 0
9.100000 0.984329 0
9.105000 1.179750 3
9.110000 1.134411 0
9.115000 0.863718 0
9.120000 0.476705 0
9.125000 0.101752 0
9.130000 -0.175629 0
9.135000 -0.324860 0
9.140000 -0.354895 4
9.145000 -0.299721 0
9.150000 -0.204956 0
9.155000 -0.110242 0
9.160000 -0.035973 0
9.165000 0.016475 0
9.170000 0.054980 0
9.175000 0.087611 0
9.180000 0.119096 0
9.185000 0.151216 0
9.190000 0.184167 0
9.195000 0.217485 0
9.200000 0.250455 0
9.205000 0.282254 0
9.210000 0.312012 0
9.215000 0.338853 0
9.220000 0.361944 0
9.225000 0.380528 0
9.230000 0.393974 0
9.235000 0.401803 0
9.240000 0.403722 5
9.245000 0.399639 0
9.250000 0.389666 0
9.255000 0.374119 0
9.260000 0.353495 0
9.265000 0.328450 0
9.270000 0.299761 0
9.275000 0.268283 0
9.280000 0.234912 0
9.285000 0.200539 0
9.290000 0.166012 0
9.295000 0.132105 0
9.300000 0.099487 0
9.305000 0.068712 0
9.310000 0.040201 0
9.315000 0.014250 0
9.320000 -0.008971 0
9.325000 -0.029404 0
9.330000 -0.047086 0
9.335000 -0.062134 0
9.340000 -0.074724 0
9.345000 -0.085072 0
9.350000 -0.093419 0
9.355000 -0.100015 0
9.360000 -0.105108 0
9.365000 -0.108933 0
9.370000 -0.111706 0
9.375000 -0.113209 0
9.380000 -0.112280 0
9.385000 -0.111355 0
9.390000 -0.110435 0
9.395000 -0.109518 0
9.400000 -0.108605 0
9.405000 -0.107693 0
9.410000 -0.106780 0
9.415000 -0.105859 0
9.420000 -0.104919 0
9.425000 -0.103941 0
9.430000 -0.102889 0
9.435000 -0.101708 0
9.440000 -0.100307 0
9.445000 -0.098549 0
9.450000 -0.096233 0
9.455000 -0.093079 0
9.460000 -0.088715 0
9.465000 -0.082676 0
9.470000 -0.074413 0
9.475000 -0.063330 0
9.480000 -0.048846 0
9.485000 -0.030485 0
9.490000 -0.007982 0
9.495000 0.018596 0
9.500000 0.048744 0
9.505000 0.081460 0
9.510000 0.115235 0
9.515000 0.148140 0
9.520000 0.177986 0
9.525000 0.202553 0
9.530000 0.219866 0
9.535000 0.228451 1
9.540000 0.227545 0
9.545000 0.217207 0
9.550000 0.198312 0
9.555000 0.172429 0
9.560000 0.141596 0
9.565000 0.108030 0
9.570000 0.073730 0
9.575000 0.039903 0
9.580000 0.006067 0
9.585000 -0.030855 0
9.590000 -0.076164 0
9.595000 -0.133686 0
9.600000 -0.198705 0
9.605000 -0.252119 0
9.610000 -0.261983 2
9.615000 -0.192472 0
9.620000 -0.015103 0
9.625000 0.276682 0
9.630000 0.644558 0
9.635000 0.989631 0
9.640000 1.180497 3
9.645000 1.129031 0
9.650000 0.853725 0
9.655000 0.465455 0
9.660000 0.092405 0
9.665000 -0.181300 0
9.670000 -0.326448 0
9.675000 -0.353005 4
9.680000 -0.295681 0
9.685000 -0.200326 0
9.690000 -0.106159 0
9.695000 -0.032822 0
9.700000 0.018877 0
9.705000 0.056988 0
9.710000 0.089494 0
9.715000 0.120984 0
9.720000 0.153144 0
9.725000 0.186124 0
9.730000 0.219441 0
9.735000 0.252371 0
9.740000 0.284083 0
9.745000 0.313704 0
9.750000 0.340357 0
9.755000 0.363208 0
9.760000 0.381507 0
9.765000 0.394625 0
9.770000 0.402096 0
9.775000 0.403636 5
9.780000 0.399165 0
9.785000 0.388811 0
9.790000 0.372902 0
9.795000 0.351950 0
9.800000 0.326620 0
9.805000 0.297699 0
9.810000 0.266050 0
9.815000 0.232571 0
9.820000 0.198156 0
9.825000 0.163650 0
9.830000 0.129821 0
9.835000 0.097332 0
9.840000 0.066727 0
9.845000 0.038420 0
9.850000 0.012695 0
9.855000 -0.010286 0
9.860000 -0.030475 0
9.865000 -0.047917 0
9.870000 -0.062735 0
9.875000 -0.075109 0
9.880000 -0.085260 0
9.885000 -0.093431 0
9.890000 -0.099874 0
9.895000 -0.104834 0
9.900000 -0.108547 0
9.905000 -0.111227 0
9.910000 -0.112666 0
9.915000 -0.111740 0
9.920000 -0.110818 0
9.925000 -0.109900 0
9.930000 -0.108987 0
9.935000 -0.108076 0
9.940000 -0.107166 0
9.945000 -0.106255 0
9.950000 -0.105334 0
9.955000 -0.104393 0
9.960000 -0.103410 0
9.965000 -0.102349 0
9.970000 -0.101148 0
9.975000 -0.099714 0
9.980000 -0.097900 0
9.985000 -0.095498 0
9.990000 -0.092214 0
9.995000 -0.087664 0
10.000000 -0.081368 0
10.005000 -0.072768 0
10.010000 -0.061265 0
10.015000 -0.046283 0
10.020000 -0.027366 0
10.025000 -0.004288 0
10.030000 0.022829 0
10.035000 0.053412 0
10.040000 0.086381 0
10.045000 0.120157 0
10.050000 0.152756 0
10.055000 0.181961 0
10.060000 0.205566 0
10.065000 0.221646 0
10.070000 0.228821 1
10.075000 0.226446 0
10.080000 0.214708 0
10.085000 0.194603 0
10.090000 0.167795 0
10.095000 0.136380 0
10.100000 0.102573 0
10.105000 0.068300 0
10.110000 0.034563 0
10.115000 0.000505 0
10.120000 -0.037421 0
10.125000 -0.084652 0
10.130000 -0.144130 0
10.135000 -0.208943 0
10.140000 -0.257365 2
10.145000 -0.255915 0
10.150000 -0.169122 0
10.155000 0.028988 0
10.160000 0.338869 0
10.165000 0.711594 0
10.170000 1.038297 0
10.175000 1.188743 3
10.180000 1.092789 0
10.185000 0.789007 0
10.190000 0.395159 0
10.195000 0.033208 0
10.200000 -0.222764 0
10.205000 -0.350679 0
10.210000 -0.364330 4
10.215000 -0.300055 0
10.220000 -0.203124 0
10.225000 -0.110433 0
10.230000 -0.039180 0
10.235000 0.011110 0
10.240000 0.048623 0
10.245000 0.081013 0
10.250000 0.112566 0
10.255000 0.144818 0
10.260000 0.177870 0
10.265000 0.211234 0
10.270000 0.244192 0
10.275000 0.275927 0
10.280000 0.305580 0
10.285000 0.332291 0
10.290000 0.355239 0
10.295000 0.373685 0
10.300000 0.387010 0
10.305000 0.394749 0
10.310000 0.396616 5
10.315000 0.392524 0
10.320000 0.382585 0
10.325000 0.367111 0
10.330000 0.346591 0
10.335000 0.321670 0
10.340000 0.293110 0
10.345000 0.261755 0
10.350000 0.228486 0
10.355000 0.194183 0
10.360000 0.159685 0
10.365000 0.125758 0
10.370000 0.093071 0
10.375000 0.062177 0
10.380000 0.033502 0
10.385000 0.007349 0
10.390000 -0.016105 0
10.395000 -0.036792 0
10.400000 -0.054738 0
10.405000 -0.070052 0
10.410000 -0.082900 0
10.415000 -0.093493 0
10.420000 -0.102064 0
10.425000 -0.108860 0
10.430000 -0.114126 0
10.435000 -0.118097 0
10.440000 -0.120988 0
10.445000 -0.122997 0
10.450000 -0.122451 0
10.455000 -0.121476 0
10.460000 -0.120505 0
10.465000 -0.119539 0
10.470000 -0.118576 0
10.475000 -0.117616 0
10.480000 -0.116655 0
10.485000 -0.115688 0
10.490000 -0.114706 0
10.495000 -0.113693 0
10.500000 -0.112617 0
10.505000 -0.111430 0
10.510000 -0.110054 0
10.515000 -0.108367 0
10.520000 -0.106191 0
10.525000 -0.103274 0
10.530000 -0.099276 0
10.535000 -0.093767 0
10.540000 -0.086228 0
10.545000 -0.076082 0
10.550000 -0.062743 0
10.555000 -0.045696 0
10.560000 -0.024596 0
10.565000 0.000616 0
10.570000 0.029607 0
10.575000 0.061566 0
10.580000 0.095188 0
10.585000 0.128712 0
10.590000 0.160052 0
10.595000 0.187003 0
10.600000 0.207490 0
10.605000 0.219831 0
10.610000 0.222966 1
10.615000 0.216610 0
10.620000 0.201291 0
10.625000 0.178283 0
10.630000 0.149423 0
10.635000 0.116859 0
10.640000 0.082716 0
10.645000 0.048635 0
10.650000 0.015049 0
10.655000 -0.019778 0
10.660000 -0.060227 0
10.665000 -0.111503 0
10.670000 -0.174114 0
10.675000 -0.236769 0
10.680000 -0.273707 2
10.685000 -0.250240 0
10.690000 -0.133041 0
10.695000 0.098191 0
10.700000 0.432764 0
10.705000 0.806066 0
10.710000 1.099372 0
10.715000 1.191404 3
10.720000 1.035168 0
10.725000 0.694876 0
10.730000 0.299177 0
10.735000 -0.037887 0
10.740000 -0.256885 0
10.745000 -0.347680 4
10.750000 -0.332499 0
10.755000 -0.252948 0
10.760000 -0.154302 0
10.765000 -0.068143 0
10.770000 -0.005010 0
10.775000 0.039559 0
10.780000 0.074382 0
10.785000 0.106063 0
10.790000 0.137749 0
10.795000 0.170294 0
10.800000 0.203491 0
10.805000 0.236720 0
10.810000 0.269198 0
10.815000 0.300068 0
10.820000 0.328446 0
10.825000 0.353470 0
10.830000 0.374335 0
10.835000 0.390340 0
10.840000 0.400924 0
10.845000 0.405701 5
10.850000 0.404479 0
10.855000 0.397272 0
10.860000 0.384302 0
10.865000 0.365984 0
10.870000 0.342908 0
10.875000 0.315802 0
10.880000 0.285493 0
10.885000 0.252869 0
10.890000 0.218834 0
10.895000 0.184263 0
10.900000 0.149973 0
10.905000 0.116686 0
10.910000 0.085013 0
10.915000 0.055438 0
10.920000 0.028313 0
10.925000 0.003864 0
10.930000 -0.017802 0
10.935000 -0.036683 0
10.940000 -0.052864 0
10.945000 -0.066499 0
10.950000 -0.077789 0
10.955000 -0.086969 0
10.960000 -0.094287 0
10.965000 -0.099995 0
10.970000 -0.104335 0
10.975000 -0.107534 0
10.980000 -0.109795 0
10.985000 -0.109342 0
10.990000 -0.108433 0
10.995000 -0.107527 0
11.000000 -0.106625 0
11.005000 -0.105727 0
11.010000 -0.104832 0
11.015000 -0.103936 0
11.020000 -0.103034 0
11.025000 -0.102120 0
11.030000 -0.101175 0
11.035000 -0.100172 0
11.040000 -0.099064 0
11.045000 -0.097774 0
11.050000 -0.096184 0
11.055000 -0.094119 0
11.060000 -0.091327 0
11.065000 -0.087469 0
11.070000 -0.082113 0
11.075000 -0.074732 0
11.080000 -0.064742 0
11.085000 -0.051542 0
11.090000 -0.034605 0
11.095000 -0.013576 0
11.100000 0.011607 0
11.105000 0.040599 0
11.110000 0.072569 0
11.115000 0.106170 0
11.120000 0.139592 0
11.125000 0.170699 0
11.130000 0.197241 0
11.135000 0.217120 0
11.140000 0.228663 0
11.145000 0.230851 1
11.150000 0.223472 0
11.155000 0.207149 0
11.160000 0.183258 0
11.165000 0.153728 0
11.170000 0.120766 0
11.175000 0.086502 0
11.180000 0.052471 0
11.185000 0.018819 0
11.190000 -0.016701 0
11.195000 -0.058951 0
11.200000 -0.112846 0
11.205000 -0.176969 0
11.210000 -0.236589 0
11.215000 -0.262645 2
11.220000 -0.219116 0
11.225000 -0.074070 0
11.230000 0.187257 0
11.235000 0.541424 0
11.240000 0.905498 0
11.245000 1.150174 0
11.250000 1.166976 3
11.255000 0.943891 0
11.260000 0.572883 0
11.265000 0.184811 0
11.270000 -0.121406 0
11.275000 -0.302739 0
11.280000 -0.359947 4
11.285000 -0.321880 0
11.290000 -0.232728 0
11.295000 -0.135210 0
11.300000 -0.055049 0
11.305000 0.002338 0
11.310000 0.043518 0
11.315000 0.077059 0
11.320000 0.108586 0
11.325000 0.140496 0
11.330000 0.173274 0
11.335000 0.206572 0
11.340000 0.239719 0
11.345000 0.271914 0
11.350000 0.302295 0
11.355000 0.329986 0
11.360000 0.354140 0
11.365000 0.373976 0
11.370000 0.388829 0
11.375000 0.398178 0
11.380000 0.401679 5
11.385000 0.399186 0
11.390000 0.390758 0
11.395000 0.376657 0
11.400000 0.357336 0
11.405000 0.333408 0
11.410000 0.305622 0
11.415000 0.274815 0
11.420000 0.241875 0
11.425000 0.207697 0
11.430000 0.173143 0
11.435000 0.139008 0
11.440000 0.105991 0
11.445000 0.074677 0
11.450000 0.045525 0
11.455000 0.018862 0
11.460000 -0.005108 0
11.465000 -0.026298 0
11.470000 -0.044720 0
11.475000 -0.060470 0
11.480000 -0.073711 0
11.485000 -0.084648 0
11.490000 -0.093517 0
11.495000 -0.100567 0
11.500000 -0.106046 0
11.505000 -0.110193 0
11.510000 -0.113231 0
11.515000 -0.115360 0
11.520000 -0.114864 0
11.525000 -0.113927 0
11.530000 -0.112994 0
11.535000 -0.112065 0
11.540000 -0.111139 0
11.545000 -0.110216 0
11.550000 -0.109293 0
11.555000 -0.108364 0
11.560000 -0.107420 0
11.565000 -0.106444 0
11.570000 -0.105407 0
11.575000 -0.104260 0
11.580000 -0.102924 0
11.585000 -0.101278 0
11.590000 -0.099140 0
11.595000 -0.096256 0
11.600000 -0.092284 0
11.605000 -0.086783 0
11.610000 -0.079230 0
11.615000 -0.069038 0
11.620000 -0.055615 0
11.625000 -0.038442 0
11.630000 -0.017180 0
11.635000 0.008216 0
11.640000 0.037381 0
11.645000 0.069468 0
11.650000 0.103119 0
11.655000 0.136521 0
11.660000 0.167544 0
11.665000 0.193955 0
11.670000 0.213678 0
11.675000 0.225061 0
11.680000 0.227109 1
11.685000 0.219625 0
11.690000 0.203239 0
11.695000 0.179323 0
11.700000 0.149798 0
11.705000 0.116856 0
11.710000 0.082612 0
11.715000 0.048598 0
11.720000 0.014970 0
11.725000 -0.020474 0
11.730000 -0.062537 0
11.735000 -0.116151 0
11.740000 -0.180120 0
11.745000 -0.240175 0
11.750000 -0.267762 2
11.755000 -0.227148 0
11.760000 -0.086281 0
11.765000 0.170468 0
11.770000 0.521869 0
11.775000 0.888251 0
11.780000 1.142152 0
11.785000 1.172642 3
11.790000 0.962017 0
11.795000 0.596644 0
11.800000 0.205812 0
11.805000 -0.109074 0
11.810000 -0.301425 0
11.815000 -0.369033 4
11.820000 -0.338378 0
11.825000 -0.252297 0
11.830000 -0.153989 0
11.835000 -0.071139 0
11.840000 -0.011139 0
11.845000 0.031653 0
11.850000 0.065850 0
11.855000 0.097486 0
11.860000 0.129309 0
11.865000 0.161994 0
11.870000 0.195279 0
11.875000 0.228533 0
11.880000 0.260982 0
11.885000 0.291781 0
11.890000 0.320065 0
11.895000 0.344988 0
11.900000 0.365765 0
11.905000 0.381712 0
11.910000 0.392283 0
11.915000 0.397101 5
11.920000 0.395977 0
11.925000 0.388924 0
11.930000 0.376156 0
11.935000 0.358077 0
11.940000 0.335257 0
11.945000 0.308405 0
11.950000 0.278330 0
11.955000 0.245900 0
11.960000 0.212000 0
11.965000 0.177494 0
11.970000 0.143190 0
11.975000 0.109806 0
11.980000 0.077956 0
11.985000 0.048129 0
11.990000 0.020690 0
11.995000 -0.004124 0
12.000000 -0.026190 0
12.005000 -0.045492 0
12.010000 -0.062098 0
12.015000 -0.076149 0
12.020000 -0.087836 0
12.025000 -0.097382 0
12.030000 -0.105030 0
12.035000 -0.111028 0
12.040000 -0.115616 0
12.045000 -0.119019 0
12.050000 -0.121446 0
12.055000 -0.122699 0
12.060000 -0.121723 0
12.065000 -0.120751 0
12.070000 -0.119784 0
12.075000 -0.118821 0
12.080000 -0.117860 0
12.085000 -0.116901 0
12.090000 -0.115939 0
12.095000 -0.114968 0
12.100000 -0.113974 0
12.105000 -0.112935 0
12.110000 -0.111812 0
12.115000 -0.110542 0
12.120000 -0.109028 0
12.125000 -0.107121 0
12.130000 -0.104607 0
12.135000 -0.101190 0
12.140000 -0.096487 0
12.145000 -0.090018 0
12.150000 -0.081230 0
12.155000 -0.069535 0
12.160000 -0.054370 0
12.165000 -0.035293 0
12.170000 -0.012089 0
12.175000 0.015113 0
12.180000 0.045745 0
12.185000 0.078743 0
12.190000 0.112558 0
12.195000 0.145243 0
12.200000 0.174622 0
12.205000 0.198521 0
12.210000 0.215034 0
12.215000 0.222770 1
12.220000 0.221052 0
12.225000 0.210010 0
12.230000 0.190569 0
12.235000 0.164319 0
12.240000 0.133293 0
12.245000 0.099674 0
12.250000 0.065412 0
12.255000 0.031643 0
12.260000 -0.002190 0
12.265000 -0.039206 0
12.270000 -0.084663 0
12.275000 -0.142267 0
12.280000 -0.207256 0
12.285000 -0.260755 0
12.290000 -0.271290 2
12.295000 -0.203507 0
12.300000 -0.029062 0
12.305000 0.259347 0
12.310000 0.625780 0
12.315000 0.974915 0
12.320000 1.177113 3
12.325000 1.139270 0
12.330000 0.873148 0
12.335000 0.487177 0
12.340000 0.111264 0
12.345000 -0.167397 0
12.350000 -0.317395 0
12.355000 -0.347572 4
12.360000 -0.292206 0
12.365000 -0.197342 0
12.370000 -0.102857 0
12.375000 -0.029049 0
12.380000 0.022950 0
12.385000 0.061172 0
12.390000 0.093687 0
12.395000 0.125154 0
12.400000 0.157288 0
12.405000 0.190246 0
12.410000 0.223543 0
12.415000 0.256449 0
12.420000 0.288127 0
12.425000 0.317699 0
12.430000 0.344283 0
12.435000 0.367039 0
12.440000 0.385214 0
12.445000 0.398179 0
12.450000 0.405469 0
12.455000 0.406803 5
12.460000 0.402107 0
12.465000 0.391518 0
12.470000 0.375372 0
12.475000 0.354192 0
12.480000 0.328655 0
12.485000 0.299555 0
12.490000 0.267765 0
12.495000 0.234191 0
12.500000 0.199729 0
12.505000 0.165225 0
12.510000 0.131448 0
12.515000 0.099056 0
12.520000 0.068590 0
12.525000 0.040454 0
12.530000 0.014926 0
12.535000 -0.007843 0
12.540000 -0.027810 0
12.545000 -0.045029 0
12.550000 -0.059631 0
12.555000 -0.071801 0
12.560000 -0.081764 0
12.565000 -0.089766 0
12.570000 -0.096059 0
12.575000 -0.100893 0
12.580000 -0.104500 0
12.585000 -0.107095 0
12.590000 -0.108480 0
12.595000 -0.107575 0
12.600000 -0.106673 0
12.605000 -0.105776 0
12.610000 -0.104883 0
12.615000 -0.103992 0
12.620000 -0.103103 0
12.625000 -0.102210 0
12.630000 -0.101307 0
12.635000 -0.100380 0
12.640000 -0.099407 0
12.645000 -0.098348 0
12.650000 -0.097137 0
12.655000 -0.095671 0
12.660000 -0.093795 0
12.665000 -0.091284 0
12.670000 -0.087830 0
12.675000 -0.083028 0
12.680000 -0.076380 0
12.685000 -0.067312 0
12.690000 -0.055221 0
12.695000 -0.039541 0
12.700000 -0.019848 0
12.705000 0.004027 0
12.710000 0.031879 0
12.715000 0.063033 0
12.720000 0.096297 0
12.725000 0.129987 0
12.730000 0.162040 0
12.735000 0.190205 0
12.740000 0.212299 0
12.745000 0.226485 0
12.750000 0.231522 1
12.755000 0.226946 0
12.760000 0.213140 0
12.765000 0.191276 0
12.770000 0.163157 0
12.775000 0.130950 0
12.780000 0.096860 0
12.785000 0.062667 0
12.790000 0.029012 0
12.795000 -0.005600 0
12.800000 -0.045416 0
12.805000 -0.095846 0
12.810000 -0.157995 0
12.815000 -0.221174 0
12.820000 -0.259666 2
12.825000 -0.238131 0
12.830000 -0.122293 0
12.835000 0.108851 0
12.840000 0.444286 0
12.845000 0.817077 0
12.850000 1.104882 0
12.855000 1.185181 3
12.860000 1.017940 0
12.865000 0.672660 0
12.870000 0.277336 0
12.875000 -0.056912 0
12.880000 -0.273009 0
12.885000 -0.361846 4
12.890000 -0.345781 0
12.895000 -0.266027 0
12.900000 -0.167300 0
12.905000 -0.080865 0
12.910000 -0.017309 0
12.915000 0.027634 0
12.920000 0.062681 0
12.925000 0.094453 0
12.930000 0.126162 0
12.935000 0.158715 0
12.940000 0.191939 0
12.945000 0.225236 0
12.950000 0.257837 0
12.955000 0.288901 0
12.960000 0.317556 0
12.965000 0.342947 0
12.970000 0.364272 0
12.975000 0.380828 0
12.980000 0.392048 0
12.985000 0.397529 5
12.990000 0.397061 0
12.995000 0.390632 0
13.000000 0.378438 0
13.005000 0.360865 0
13.010000 0.338472 0
13.015000 0.311961 0
13.020000 0.282138 0
13.025000 0.249872 0
13.030000 0.216056 0
13.035000 0.181562 0
13.040000 0.147208 0
13.045000 0.113727 0
13.050000 0.081743 0
13.055000 0.051760 0
13.060000 0.024151 0
13.065000 -0.000835 0
13.070000 -0.023070 0
13.075000 -0.042529 0
13.080000 -0.059279 0
13.085000 -0.073457 0
13.090000 -0.085253 0
13.095000 -0.094892 0
13.100000 -0.102617 0
13.105000 -0.108678 0
13.110000 -0.113316 0
13.115000 -0.116760 0
13.120000 -0.119218 0
13.125000 -0.120495 0
13.130000 -0.119530 0
13.135000 -0.118569 0
13.140000 -0.117613 0
13.145000 -0.116660 0
13.150000 -0.115711 0
13.155000 -0.114762 0
13.160000 -0.113811 0
13.165000 -0.112850 0
13.170000 -0.111866 0
13.175000 -0.110837 0
13.180000 -0.109722 0
13.185000 -0.108460 0
13.190000 -0.106948 0
13.195000 -0.105038 0
13.200000 -0.102512 0
13.205000 -0.099070 0
13.210000 -0.094321 0
13.215000 -0.087781 0
13.220000 -0.078891 0
13.225000 -0.067057 0
13.230000 -0.051717 0
13.235000 -0.032433 0
13.240000 -0.009006 0
13.245000 0.018413 0
13.250000 0.049222 0
13.255000 0.082319 0
13.260000 0.116116 0
13.265000 0.148630 0
13.270000 0.177661 0
13.275000 0.201032 0
13.280000 0.216858 0
13.285000 0.223792 1
13.290000 0.221219 0
13.295000 0.209344 0
13.300000 0.189168 0
13.305000 0.162343 0
13.310000 0.130946 0
13.315000 0.097170 0
13.320000 0.062923 0
13.325000 0.029208 0
13.330000 -0.004788 0
13.335000 -0.042526 0
13.340000 -0.089381 0
13.345000 -0.148442 0
13.350000 -0.213333 0
13.355000 -0.263137 0
13.360000 -0.265057 2
13.365000 -0.183817 0
13.370000 0.007165 0
13.375000 0.310537 0
13.380000 0.681811 0
13.385000 1.016896 0
13.390000 1.185832 3
13.395000 1.110393 0
13.400000 0.819721 0
13.405000 0.428166 0
13.410000 0.060367 0
13.415000 -0.204931 0
13.420000 -0.342143 0
13.425000 -0.362981 4
13.430000 -0.302693 0
13.435000 -0.206647 0
13.440000 -0.112936 0
13.445000 -0.040203 0
13.450000 0.011160 0
13.455000 0.049181 0
13.460000 0.081706 0
13.465000 0.113234 0
13.470000 0.145425 0
13.475000 0.178434 0
13.480000 0.211786 0
13.485000 0.244771 0
13.490000 0.276571 0
13.495000 0.306325 0
13.500000 0.333168 0
13.505000 0.356273 0
13.510000 0.374895 0
13.515000 0.388408 0
13.520000 0.396337 0
13.525000 0.398389 5
13.530000 0.394470 0
13.535000 0.384688 0
13.540000 0.369348 0
13.545000 0.348938 0
13.550000 0.324100 0
13.555000 0.295599 0
13.560000 0.264280 0
13.565000 0.231026 0
13.570000 0.196723 0
13.575000 0.162211 0
13.580000 0.128264 0
13.585000 0.095552 0
13.590000 0.064631 0
13.595000 0.035932 0
13.600000 0.009758 0
13.605000 -0.013712 0
13.610000 -0.034410 0
13.615000 -0.052362 0
13.620000 -0.067678 0
13.625000 -0.080523 0
13.630000 -0.091110 0
13.635000 -0.099675 0
13.640000 -0.106464 0
13.645000 -0.111723 0
13.650000 -0.115687 0
13.655000 -0.118574 0
13.660000 -0.120579 0
13.665000 -0.120043 0
13.670000 -0.119079 0
13.675000 -0.118121 0
13.680000 -0.117166 0
13.685000 -0.116215 0
13.690000 -0.115266 0
13.695000 -0.114317 0
13.700000 -0.113361 0
13.705000 -0.112390 0
13.710000 -0.111386 0
13.715000 -0.110318 0
13.720000 -0.109137 0
13.725000 -0.107761 0
13.730000 -0.106066 0
13.735000 -0.103871 0
13.740000 -0.100919 0
13.745000 -0.096864 0
13.750000 -0.091268 0
13.755000 -0.083608 0
13.760000 -0.073301 0
13.765000 -0.059762 0
13.770000 -0.042479 0
13.775000 -0.021122 0
13.780000 0.004347 0
13.785000 0.033561 0
13.790000 0.065677 0
13.795000 0.099347 0
13.800000 0.132774 0
13.805000 0.163850 0
13.810000 0.190360 0
13.815000 0.210243 0
13.820000 0.221853 0
13.825000 0.224185 1
13.830000 0.217021 0
13.835000 0.200961 0
13.840000 0.177339 0
13.845000 0.148041 0
13.850000 0.115235 0
13.855000 0.081032 0
13.860000 0.046999 0
13.865000 0.013403 0
13.870000 -0.021764 0
13.875000 -0.063123 0
13.880000 -0.115727 0
13.885000 -0.179152 0
13.890000 -0.240495 0
13.895000 -0.272513 2
13.900000 -0.240003 0
13.905000 -0.110354 0
13.910000 0.134334 0
13.915000 0.478099 0
13.920000 0.848770 0
13.925000 1.123075 0
13.930000 1.184596 3
13.935000 0.999559 0
13.940000 0.644541 0
13.945000 0.251084 0
13.950000 -0.072295 0
13.955000 -0.273414 0
13.960000 -0.347458 4
13.965000 -0.320262 0
13.970000 -0.235286 0
13.975000 -0.137022 0
13.980000 -0.054183 0
13.985000 0.005553 0
13.990000 0.048003 0
13.995000 0.081964 0
14.000000 0.113500 0
14.005000 0.145298 0
14.010000 0.177974 0
14.015000 0.211216 0
14.020000 0.244364 0
14.025000 0.276611 0
14.030000 0.307088 0
14.035000 0.334908 0
14.040000 0.359209 0
14.045000 0.379198 0
14.050000 0.394196 0
14.055000 0.403668 0
14.060000 0.407263 5
14.065000 0.404828 0
14.070000 0.396419 0
14.075000 0.382301 0
14.080000 0.362929 0
14.085000 0.338928 0
14.090000 0.311054 0
14.095000 0.280158 0
14.100000 0.247138 0
14.105000 0.212900 0
14.110000 0.178316 0
14.115000 0.144185 0
14.120000 0.111212 0
14.125000 0.079982 0
14.130000 0.050950 0
14.135000 0.024442 0
14.140000 0.000652 0
14.145000 -0.020337 0
14.150000 -0.038548 0
14.155000 -0.054083 0
14.160000 -0.067113 0
14.165000 -0.077849 0
14.170000 -0.086533 0
14.175000 -0.093416 0
14.180000 -0.098750 0
14.185000 -0.102774 0
14.190000 -0.105711 0
14.195000 -0.107332 0
14.200000 -0.106433 0
14.205000 -0.105537 0
14.210000 -0.104646 0
14.215000 -0.103759 0
14.220000 -0.102874 0
14.225000 -0.101992 0
14.230000 -0.101108 0
14.235000 -0.100216 0
14.240000 -0.099307 0
14.245000 -0.098361 0
14.250000 -0.097345 0
14.255000 -0.096203 0
14.260000 -0.094847 0
14.265000 -0.093142 0
14.270000 -0.090889 0
14.275000 -0.087809 0
14.280000 -0.083531 0
14.285000 -0.077588 0
14.290000 -0.069428 0
14.295000 -0.058448 0
14.300000 -0.044062 0
14.305000 -0.025782 0
14.310000 -0.003339 0
14.315000 0.023203 0
14.320000 0.053336 0
14.325000 0.086044 0
14.330000 0.119799 0
14.335000 0.152647 0
14.340000 0.182370 0
14.345000 0.206729 0
14.350000 0.223736 0
14.355000 0.231925 1
14.360000 0.230557 0
14.365000 0.219731 0
14.370000 0.200370 0
14.375000 0.174095 0
14.380000 0.142988 0
14.385000 0.109287 0
14.390000 0.074977 0
14.395000 0.041178 0
14.400000 0.007210 0
14.405000 -0.030294 0
14.410000 -0.076772 0
14.415000 -0.135565 0
14.420000 -0.200535 0
14.425000 -0.250664 0
14.430000 -0.252643 2
14.435000 -0.170558 0
14.440000 0.022501 0
14.445000 0.328532 0
14.450000 0.700544 0
14.455000 1.030638 0
14.460000 1.187160 3
14.465000 1.097410 0
14.470000 0.797504 0
14.475000 0.404265 0
14.480000 0.040528 0
14.485000 -0.218215 0
14.490000 -0.348852 0
14.495000 -0.364578 4
14.500000 -0.301432 0
14.505000 -0.204735 0
14.510000 -0.111743 0
14.515000 -0.040070 0
14.520000 0.010518 0
14.525000 0.048172 0
14.530000 0.080600 0
14.535000 0.112149 0
14.540000 0.144388 0
14.545000 0.177432 0
14.550000 0.210796 0
14.555000 0.243763 0
14.560000 0.275517 0
14.565000 0.305198 0
14.570000 0.331943 0
14.575000 0.354929 0
14.580000 0.373417 0
14.585000 0.386784 0
14.590000 0.394564 0
14.595000 0.396469 5
14.600000 0.392411 0
14.605000 0.382500 0
14.610000 0.367049 0
14.615000 0.346546 0
14.620000 0.321636 0
14.625000 0.293083 0
14.630000 0.261731 0
14.635000 0.228463 0
14.640000 0.194159 0
14.645000 0.159661 0
14.650000 0.125736 0
14.655000 0.093053 0
14.660000 0.062164 0
14.665000 0.033499 0
14.670000 0.007357 0
14.675000 -0.016083 0
14.680000 -0.036753 0
14.685000 -0.054683 0
14.690000 -0.069978 0
14.695000 -0.082807 0
14.700000 -0.093381 0
14.705000 -0.101935 0
14.710000 -0.108715 0
14.715000 -0.113966 0
14.720000 -0.117924 0
14.725000 -0.120804 0
14.730000 -0.122803 0
14.735000 -0.122257 0
14.740000 -0.121283 0
14.745000 -0.120313 0
14.750000 -0.119348 0
14.755000 -0.118386 0
14.760000 -0.117426 0
14.765000 -0.116466 0
14.770000 -0.115500 0
14.775000 -0.114519 0
14.780000 -0.113505 0
14.785000 -0.112428 0
14.790000 -0.111239 0
14.795000 -0.109858 0
14.800000 -0.108163 0
14.805000 -0.105973 0
14.810000 -0.103034 0
14.815000 -0.099004 0
14.820000 -0.093448 0
14.825000 -0.085847 0
14.830000 -0.075620 0
14.835000 -0.062182 0
14.840000 -0.045020 0
14.845000 -0.023796 0
14.850000 0.001540 0
14.855000 0.030638 0
14.860000 0.062675 0
14.865000 0.096324 0
14.870000 0.129809 0
14.875000 0.161034 0
14.880000 0.187792 0
14.885000 0.208011 0
14.890000 0.220029 0
14.895000 0.222810 1
14.900000 0.216097 0
14.905000 0.200452 0
14.910000 0.177174 0
14.915000 0.148122 0
14.920000 0.115453 0
14.925000 0.081286 0
14.930000 0.047229 0
14.935000 0.013644 0
14.940000 -0.021321 0
14.945000 -0.062153 0
14.950000 -0.113998 0
14.955000 -0.176974 0
14.960000 -0.239101 0
14.965000 -0.273979 2
14.970000 -0.246690 0
14.975000 -0.124203 0
14.980000 0.112787 0
14.985000 0.451392 0
14.990000 0.823805 0
14.995000 1.109292 0
15.000000 1.188494 3
15.005000 1.020829 0
15.010000 0.675158 0
15.015000 0.279891 0
15.020000 -0.053741 0
15.025000 -0.268844 0
15.030000 -0.356580 4
15.035000 -0.339606 0
15.040000 -0.259385 0
15.045000 -0.160692 0
15.050000 -0.074608 0
15.055000 -0.011456 0
15.060000 0.033202 0
15.065000 0.068106 0
15.070000 0.099831 0
15.075000 0.131532 0
15.080000 0.164083 0
15.085000 0.197295 0
15.090000 0.230561 0
15.095000 0.263109 0
15.100000 0.294090 0
15.105000 0.322632 0
15.110000 0.347877 0
15.115000 0.369024 0
15.120000 0.385373 0
15.125000 0.396359 0
15.130000 0.401587 5
15.135000 0.400851 0
15.140000 0.394151 0
15.145000 0.381688 0
15.150000 0.363861 0
15.155000 0.341237 0
15.160000 0.314524 0
15.165000 0.284536 0
15.170000 0.252148 0
15.175000 0.218254 0
15.180000 0.183727 0
15.185000 0.149383 0
15.190000 0.115953 0
15.195000 0.084054 0
15.200000 0.054186 0
15.205000 0.026714 0
15.210000 0.001880 0
15.215000 -0.020193 0
15.220000 -0.039488 0
15.225000 -0.056077 0
15.230000 -0.070103 0
15.235000 -0.081758 0
15.240000 -0.091270 0
15.245000 -0.098883 0
15.250000 -0.104848 0
15.255000 -0.109406 0
15.260000 -0.112786 0
15.265000 -0.115194 0
15.270000 -0.114740 0
15.275000 -0.113803 0
15.280000 -0.112871 0
15.285000 -0.111943 0
15.290000 -0.111019 0
15.295000 -0.110097 0
15.300000 -0.109176 0
15.305000 -0.108252 0
15.310000 -0.107317 0
15.315000 -0.106357 0
15.320000 -0.105348 0
15.325000 -0.104249 0
15.330000 -0.102993 0
15.335000 -0.101476 0
15.340000 -0.099540 0
15.345000 -0.096959 0
15.350000 -0.093424 0
15.355000 -0.088532 0
15.360000 -0.081788 0
15.365000 -0.072626 0
15.370000 -0.060448 0
15.375000 -0.044701 0
15.380000 -0.024967 0
15.385000 -0.001080 0
15.390000 0.026758 0
15.395000 0.057887 0
15.400000 0.091140 0
15.405000 0.124869 0
15.410000 0.157046 0
15.415000 0.185456 0
15.420000 0.207936 0
15.425000 0.222650 0
15.430000 0.228334 1
15.435000 0.224476 0
15.440000 0.211393 0
15.445000 0.190185 0
15.450000 0.162583 0
15.455000 0.130705 0
15.460000 0.096739 0
15.465000 0.062515 0
15.470000 0.028843 0
15.475000 -0.005437 0
15.480000 -0.044184 0
15.485000 -0.092813 0
15.490000 -0.153496 0
15.495000 -0.217839 0
15.500000 -0.262673 2
15.505000 -0.254031 0
15.510000 -0.157120 0
15.515000 0.052197 0
15.520000 0.370805 0
15.525000 0.744638 0
15.530000 1.061347 0
15.535000 1.193247 3
15.540000 1.076131 0
15.545000 0.757679 0
15.550000 0.362047 0
15.555000 0.010116 0
15.560000 -0.229320 0
15.565000 -0.339455 4
15.570000 -0.338396 0
15.575000 -0.265715 0
15.580000 -0.167457 0
15.585000 -0.078231 0
15.590000 -0.011685 0
15.595000 0.035087 0
15.600000 0.070840 0
15.605000 0.102706 0
15.610000 0.134294 0
15.615000 0.166707 0
15.620000 0.199838 0
15.625000 0.233102 0
15.630000 0.265731 0
15.635000 0.296870 0
15.640000 0.325637 0
15.645000 0.351160 0
15.650000 0.372622 0
15.655000 0.389305 0
15.660000 0.400624 0
15.665000 0.406169 5
15.670000 0.405720 0
15.675000 0.399264 0
15.680000 0.386998 0
15.685000 0.369315 0
15.690000 0.346786 0
15.695000 0.320124 0
15.700000 0.290152 0
15.705000 0.257753 0
15.710000 0.223833 0
15.715000 0.189277 0
15.720000 0.154910 0
15.725000 0.121471 0
15.730000 0.089584 0
15.735000 0.059749 0
15.740000 0.032335 0
15.745000 0.007583 0
15.750000 -0.014390 0
15.755000 -0.033570 0
15.760000 -0.050034 0
15.765000 -0.063929 0
15.770000 -0.075455 0
15.775000 -0.084842 0
15.780000 -0.092341 0
15.785000 -0.098202 0
15.790000 -0.102670 0
15.795000 -0.105975 0
15.800000 -0.108323 0
15.805000 -0.107889 0
15.810000 -0.106986 0
15.815000 -0.106088 0
15.820000 -0.105194 0
15.825000 -0.104303 0
15.830000 -0.103414 0
15.835000 -0.102526 0
15.840000 -0.101633 0
15.845000 -0.100727 0
15.850000 -0.099793 0
15.855000 -0.098803 0
15.860000 -0.097713 0
15.865000 -0.096448 0
15.870000 -0.094893 0
15.875000 -0.092877 0
15.880000 -0.090155 0
15.885000 -0.086393 0
15.890000 -0.081164 0
15.895000 -0.073947 0
15.900000 -0.064157 0
15.905000 -0.051192 0
15.910000 -0.034515 0
15.915000 -0.013755 0
15.920000 0.011171 0
15.925000 0.039946 0
15.930000 0.071767 0
15.935000 0.105313 0
15.940000 0.138794 0
15.945000 0.170081 0
15.950000 0.196918 0
15.955000 0.217187 0
15.960000 0.229180 0
15.965000 0.231839 1
15.970000 0.224909 0
15.975000 0.208976 0
15.980000 0.185386 0
15.985000 0.156054 0
15.990000 0.123189 0
15.995000 0.088937 0
16.000000 0.054877 0
16.005000 0.021228 0
16.010000 -0.014155 0
16.015000 -0.056068 0
16.020000 -0.109530 0
16.025000 -0.173467 0
16.030000 -0.233621 0
16.035000 -0.261237 2
16.040000 -0.220257 0
16.045000 -0.078378 0
16.050000 0.179917 0
16.055000 0.532475 0
16.060000 0.897718 0
16.065000 1.146529 0
16.070000 1.168733 3
16.075000 0.950777 0
16.080000 0.582291 0
16.085000 0.192749 0
16.090000 -0.118160 0
16.095000 -0.305720 0
16.100000 -0.369025 4
16.105000 -0.335423 0
16.110000 -0.248132 0
16.115000 -0.150047 0
16.120000 -0.068083 0
16.125000 -0.008932 0
16.130000 0.033350 0
16.135000 0.067346 0
16.140000 0.098954 0
16.145000 0.130809 0
16.150000 0.163528 0
16.155000 0.196825 0
16.160000 0.230061 0
16.165000 0.262455 0
16.170000 0.293159 0
16.175000 0.321309 0
16.180000 0.346058 0
16.185000 0.366625 0
16.190000 0.382332 0
16.195000 0.392638 0
16.200000 0.397174 5
16.205000 0.395761 0
16.210000 0.388422 0
16.215000 0.375380 0
16.220000 0.357049 0
16.225000 0.334008 0
16.230000 0.306971 0
16.235000 0.276753 0
16.240000 0.244224 0
16.245000 0.210271 0
16.250000 0.175756 0
16.255000 0.141483 0
16.260000 0.108167 0
16.265000 0.076415 0
16.270000 0.046711 0
16.275000 0.019412 0
16.280000 -0.005251 0
16.285000 -0.027161 0
16.290000 -0.046306 0
16.295000 -0.062762 0
16.300000 -0.076671 0
16.305000 -0.088226 0
16.310000 -0.097654 0
16.315000 -0.105198 0
16.320000 -0.111106 0
16.325000 -0.115616 0
16.330000 -0.118955 0
16.335000 -0.121328 0
16.340000 -0.120844 0
16.345000 -0.119877 0
16.350000 -0.118914 0
16.355000 -0.117956 0
16.360000 -0.117002 0
16.365000 -0.116051 0
16.370000 -0.115100 0
16.375000 -0.114147 0
16.380000 -0.113183 0
16.385000 -0.112195 0
16.390000 -0.111160 0
16.395000 -0.110038 0
16.400000 -0.108764 0
16.405000 -0.107236 0
16.410000 -0.105303 0
16.415000 -0.102744 0
16.420000 -0.099259 0
16.425000 -0.094455 0
16.430000 -0.087847 0
16.435000 -0.078877 0
16.440000 -0.066956 0
16.445000 -0.051525 0
16.450000 -0.032155 0
16.455000 -0.008652 0
16.460000 0.018824 0
16.465000 0.049670 0
16.470000 0.082783 0
16.475000 0.116577 0
16.480000 0.149080 0
16.485000 0.178103 0
16.490000 0.201483 0
16.495000 0.217341 0
16.500000 0.224339 1
16.505000 0.221857 0
16.510000 0.210093 0
16.515000 0.190031 0
16.520000 0.163307 0
16.525000 0.131981 0
16.530000 0.098236 0
16.535000 0.063982 0
16.540000 0.030251 0
16.545000 -0.003696 0
16.550000 -0.041213 0
16.555000 -0.087629 0
16.560000 -0.146229 0
16.565000 -0.211194 0
16.570000 -0.262363 0
16.575000 -0.267486 2
16.580000 -0.191344 0
16.585000 -0.006744 0
16.590000 0.290814 0
16.595000 0.660407 0
16.600000 1.001714 0
16.605000 1.185022 3
16.610000 1.125814 0
16.615000 0.845756 0
16.620000 0.456456 0
16.625000 0.084653 0
16.630000 -0.187253 0
16.635000 -0.331003 0
16.640000 -0.356828 4
16.645000 -0.299301 0
16.650000 -0.203934 0
16.655000 -0.109669 0
16.660000 -0.036100 0
16.665000 0.015848 0
16.670000 0.054125 0
16.675000 0.086699 0
16.680000 0.118194 0
16.685000 0.150337 0
16.690000 0.183304 0
16.695000 0.216630 0
16.700000 0.249598 0
16.705000 0.281391 0
16.710000 0.311141 0
16.715000 0.337978 0
16.720000 0.361072 0
16.725000 0.379672 0
16.730000 0.393147 0
16.735000 0.401022 0
16.740000 0.403003 5
16.745000 0.398996 0
16.750000 0.389111 0
16.755000 0.373660 0
16.760000 0.353134 0
16.765000 0.328184 0
16.770000 0.299578 0
16.775000 0.268169 0
16.780000 0.234846 0
16.785000 0.200497 0
16.790000 0.165969 0
16.795000 0.132032 0
16.800000 0.099359 0
16.805000 0.068504 0
16.810000 0.039893 0
16.815000 0.013825 0
16.820000 -0.009526 0
16.825000 -0.030095 0
16.830000 -0.047916 0
16.835000 -0.063101 0
16.840000 -0.075822 0
16.845000 -0.086293 0
16.850000 -0.094752 0
16.855000 -0.101448 0
16.860000 -0.106628 0
16.865000 -0.110528 0
16.870000 -0.113363 0
16.875000 -0.114907 0
16.880000 -0.113969 0
16.885000 -0.113036 0
16.890000 -0.112108 0
16.895000 -0.111183 0
16.900000 -0.110262 0
16.905000 -0.109342 0
16.910000 -0.108422 0
16.915000 -0.107494 0
16.920000 -0.106549 0
16.925000 -0.105568 0
16.930000 -0.104519 0
16.935000 -0.103347 0
16.940000 -0.101968 0
16.945000 -0.100251 0
16.950000 -0.098004 0
16.955000 -0.094958 0
16.960000 -0.090754 0
16.965000 -0.084939 0
16.970000 -0.076977 0
16.975000 -0.066277 0
16.980000 -0.052256 0
16.985000 -0.034419 0
16.990000 -0.012470 0
16.995000 0.013577 0
17.000000 0.043283 0
17.005000 0.075721 0
17.010000 0.109459 0
17.015000 0.142629 0
17.020000 0.173077 0
17.025000 0.198584 0
17.030000 0.217128 0
17.035000 0.227152 0
17.040000 0.227774 1
17.045000 0.218922 0
17.050000 0.201340 0
17.055000 0.176490 0
17.060000 0.146341 0
17.065000 0.113093 0
17.070000 0.078806 0
17.075000 0.044873 0
17.080000 0.011188 0
17.085000 -0.024814 0
17.090000 -0.068163 0
17.095000 -0.123400 0
17.100000 -0.187991 0
17.105000 -0.245791 0
17.110000 -0.266922 2
17.115000 -0.215620 0
17.120000 -0.061168 0
17.125000 0.208875 0
17.130000 0.567349 0
17.135000 0.927741 0
17.140000 1.160776 0
17.145000 1.163076 3
17.150000 0.927717 0
17.155000 0.551541 0
17.160000 0.166866 0
17.165000 -0.130049 0
17.170000 -0.299840 0
17.175000 -0.346343 4
17.180000 -0.300894 0
17.185000 -0.209004 0
17.190000 -0.112693 0
17.195000 -0.035502 0
17.200000 0.019181 0
17.205000 0.058774 0
17.210000 0.091708 0
17.215000 0.123154 0
17.220000 0.155156 0
17.225000 0.188013 0
17.230000 0.221293 0
17.235000 0.254285 0
17.240000 0.286159 0
17.245000 0.316037 0
17.250000 0.343032 0
17.255000 0.366293 0
17.260000 0.385052 0
17.265000 0.398661 0
17.270000 0.406631 0
17.275000 0.408658 5
17.280000 0.404643 0
17.285000 0.394699 0
17.290000 0.379141 0
17.295000 0.358474 0
17.300000 0.333362 0
17.305000 0.304592 0
17.310000 0.273032 0
17.315000 0.239591 0
17.320000 0.205169 0
17.325000 0.170624 0
17.330000 0.136734 0
17.335000 0.104174 0
17.340000 0.073495 0
17.345000 0.045118 0
17.350000 0.019334 0
17.355000 -0.003696 0
17.360000 -0.023919 0
17.365000 -0.041383 0
17.370000 -0.056210 0
17.375000 -0.068584 0
17.380000 -0.078728 0
17.385000 -0.086888 0
17.390000 -0.093317 0
17.395000 -0.098265 0
17.400000 -0.101967 0
17.405000 -0.104640 0
17.410000 -0.106081 0
17.415000 -0.105188 0
17.420000 -0.104299 0
17.425000 -0.103413 0
17.430000 -0.102532 0
17.435000 -0.101653 0
17.440000 -0.100775 0
17.445000 -0.099895 0
17.450000 -0.099004 0
17.455000 -0.098092 0
17.460000 -0.097134 0
17.465000 -0.096092 0
17.470000 -0.094902 0
17.475000 -0.093463 0
17.480000 -0.091622 0
17.485000 -0.089158 0
17.490000 -0.085764 0
17.495000 -0.081039 0
17.500000 -0.074487 0
17.505000 -0.065535 0
17.510000 -0.053577 0
17.515000 -0.038043 0
17.520000 -0.018500 0
17.525000 0.005232 0
17.530000 0.032961 0
17.535000 0.064025 0
17.540000 0.097242 0
17.545000 0.130937 0
17.550000 0.163045 0
17.555000 0.191310 0
17.560000 0.213538 0
17.565000 0.227875 0
17.570000 0.233064 1
17.575000 0.228624 0
17.580000 0.214927 0
17.585000 0.193141 0
17.590000 0.165066 0
17.595000 0.132876 0
17.600000 0.098784 0
17.605000 0.064580 0
17.610000 0.030914 0
17.615000 -0.003703 0
17.620000 -0.043531 0
17.625000 -0.093994 0
17.630000 -0.156183 0
17.635000 -0.219319 0
17.640000 -0.257529 2
17.645000 -0.235326 0
17.650000 -0.118381 0
17.655000 0.114156 0
17.660000 0.450683 0
17.665000 0.823173 0
17.670000 1.108326 0
17.675000 1.183984 3
17.680000 1.013568 0
17.685000 0.667619 0
17.690000 0.272197 0
17.695000 -0.063253 0
17.700000 -0.281997 0
17.705000 -0.374317 4
17.710000 -0.361486 0
17.715000 -0.283577 0
17.720000 -0.184816 0
17.725000 -0.096996 0
17.730000 -0.031752 0
17.735000 0.014427 0
17.740000 0.050085 0
17.745000 0.082032 0
17.750000 0.113719 0
17.755000 0.146214 0
17.760000 0.179425 0
17.765000 0.212794 0
17.770000 0.245584 0
17.775000 0.276973 0
17.780000 0.306106 0
17.785000 0.332138 0
17.790000 0.354269 0
17.795000 0.371789 0
17.800000 0.384112 0
17.805000 0.390811 0
17.810000 0.391638 5
17.815000 0.386541 0
17.820000 0.375667 0
17.825000 0.359356 0
17.830000 0.338119 0
17.835000 0.312615 0
17.840000 0.283614 0
17.845000 0.251958 0
17.850000 0.218522 0
17.855000 0.184174 0
17.860000 0.149735 0
17.865000 0.115954 0
17.870000 0.083478 0
17.875000 0.052842 0
17.880000 0.024453 0
17.885000 -0.001405 0
17.890000 -0.024564 0
17.895000 -0.044969 0
17.900000 -0.062655 0
17.905000 -0.077732 0
17.910000 -0.090372 0
17.915000 -0.100783 0
17.920000 -0.109199 0
17.925000 -0.115865 0
17.930000 -0.121023 0
17.935000 -0.124903 0
17.940000 -0.127719 0
17.945000 -0.129234 0
17.950000 -0.128225 0
17.955000 -0.127221 0
17.960000 -0.126222 0
17.965000 -0.125227 0
17.970000 -0.124236 0
17.975000 -0.123247 0
17.980000 -0.122258 0
17.985000 -0.121264 0
17.990000 -0.120255 0
17.995000 -0.119214 0
18.000000 -0.118112 0
18.005000 -0.116902 0
18.010000 -0.115506 0
18.015000 -0.113806 0
18.020000 -0.111627 0
18.025000 -0.108723 0
18.030000 -0.104764 0
18.035000 -0.099326 0
18.040000 -0.091901 0
18.045000 -0.081921 0
18.050000 -0.068805 0
18.055000 -0.052033 0
18.060000 -0.031248 0
18.065000 -0.006363 0
18.070000 0.022327 0
18.075000 0.054069 0
18.080000 0.087615 0
18.085000 0.121266 0
18.090000 0.152984 0
18.095000 0.180586 0
18.100000 0.201991 0
18.105000 0.215472 0
18.110000 0.219892 1
18.115000 0.214860 0
18.120000 0.200789 0
18.125000 0.178841 0
18.130000 0.150767 0
18.135000 0.118665 0
18.140000 0.084668 0
18.145000 0.050519 0
18.150000 0.016919 0
18.155000 -0.017408 0
18.160000 -0.056364 0
18.165000 -0.105258 0
18.170000 -0.166056 0
18.175000 -0.230323 0
18.180000 -0.275263 2
18.185000 -0.267595 0
18.190000 -0.173142 0
18.195000 0.032190 0
18.200000 0.346701 0
18.205000 0.720085 0
18.210000 1.044726 0
18.215000 1.194006 3
18.220000 1.095734 0
18.225000 0.788534 0
18.230000 0.393990 0
18.235000 0.035968 0
18.240000 -0.212319 0
18.245000 -0.330932 0
18.250000 -0.336144 4
18.255000 -0.266654 0
18.260000 -0.168808 0
18.265000 -0.078470 0
18.270000 -0.010599 0
18.275000 0.037041 0
18.280000 0.073159 0
18.285000 0.105090 0
18.290000 0.136631 0
18.295000 0.168982 0
18.300000 0.202071 0
18.305000 0.235326 0
18.310000 0.267980 0
18.315000 0.299181 0
18.320000 0.328040 0
18.325000 0.353683 0
18.330000 0.375285 0
18.335000 0.392123 0
18.340000 0.403604 0
18.345000 0.409310 5
18.350000 0.409014 0
18.355000 0.402698 0
18.360000 0.390554 0
18.365000 0.372972 0
18.370000 0.350520 0
18.375000 0.323912 0
18.380000 0.293972 0
18.385000 0.261586 0
18.390000 0.227664 0
18.395000 0.193093 0
18.400000 0.158704 0
18.405000 0.125237 0
18.410000 0.093322 0
18.415000 0.063460 0
18.420000 0.036024 0
18.425000 0.011253 0
18.430000 -0.010734 0
18.435000 -0.029922 0
18.440000 -0.046390 0
18.445000 -0.060286 0
18.450000 -0.071809 0
18.455000 -0.081193 0
18.460000 -0.088687 0
18.465000 -0.094545 0
18.470000 -0.099011 0
18.475000 -0.102314 0
18.480000 -0.104663 0
18.485000 -0.104245 0
18.490000 -0.103360 0
18.495000 -0.102480 0
18.500000 -0.101604 0
18.505000 -0.100731 0
18.510000 -0.099860 0
18.515000 -0.098989 0
18.520000 -0.098113 0
18.525000 -0.097224 0
18.530000 -0.096305 0
18.535000 -0.095330 0
18.540000 -0.094251 0
18.545000 -0.092993 0
18.550000 -0.091438 0
18.555000 -0.089410 0
18.560000 -0.086661 0
18.565000 -0.082851 0
18.570000 -0.077544 0
18.575000 -0.070216 0
18.580000 -0.060274 0
18.585000 -0.047117 0
18.590000 -0.030212 0
18.595000 -0.009203 0
18.600000 0.015974 0
18.605000 0.044970 0
18.610000 0.076944 0
18.615000 0.110535 0
18.620000 0.143917 0
18.625000 0.174936 0
18.630000 0.201328 0
18.635000 0.220989 0
18.640000 0.232249 0
18.645000 0.234106 1
18.650000 0.226372 0
18.655000 0.209706 0
18.660000 0.185517 0
18.665000 0.155764 0
18.670000 0.122675 0
18.675000 0.088375 0
18.680000 0.054360 0
18.685000 0.020668 0
18.690000 -0.015126 0
18.695000 -0.058033 0
18.700000 -0.112809 0
18.705000 -0.177301 0
18.710000 -0.235582 0
18.715000 -0.257547 2
18.720000 -0.206862 0
18.725000 -0.052246 0
18.730000 0.218863 0
18.735000 0.578266 0
18.740000 0.936903 0
18.745000 1.163098 3
18.750000 1.154381 0
18.755000 0.910845 0
18.760000 0.532307 0
18.765000 0.148837 0
18.770000 -0.146157 0
18.775000 -0.314820 0
18.780000 -0.361234 4
18.785000 -0.316256 0
18.790000 -0.224651 0
18.795000 -0.127995 0
18.800000 -0.049974 0
18.805000 0.005567 0
18.810000 0.045733 0
18.815000 0.078923 0
18.820000 0.110430 0
18.825000 0.142418 0
18.830000 0.175267 0
18.835000 0.208585 0
18.840000 0.241688 0
18.845000 0.273768 0
18.850000 0.303962 0
18.855000 0.331398 0
18.860000 0.355232 0
18.865000 0.374695 0
18.870000 0.389131 0
18.875000 0.398034 0
18.880000 0.401076 5
18.885000 0.398127 0
18.890000 0.389262 0
18.895000 0.374757 0
18.900000 0.355077 0
18.905000 0.330846 0
18.910000 0.302817 0
18.915000 0.271833 0
18.920000 0.238781 0
18.925000 0.204554 0
18.930000 0.170008 0
18.935000 0.135931 0
18.940000 0.103014 0
18.945000 0.071833 0
18.950000 0.042836 0
18.955000 0.016344 0
18.960000 -0.007450 0
18.965000 -0.028463 0
18.970000 -0.046715 0
18.975000 -0.062307 0
18.980000 -0.075401 0
18.985000 -0.086207 0
18.990000 -0.094962 0
18.995000 -0.101912 0
19.000000 -0.107307 0
19.005000 -0.111384 0
19.010000 -0.114365 0
19.015000 -0.116446 0
19.020000 -0.115939 0
19.025000 -0.114996 0
19.030000 -0.114058 0
19.035000 -0.113123 0
19.040000 -0.112193 0
19.045000 -0.111264 0
19.050000 -0.110335 0
19.055000 -0.109400 0
19.060000 -0.108450 0
19.065000 -0.107467 0
19.070000 -0.106421 0
19.075000 -0.105263 0
19.080000 -0.103912 0
19.085000 -0.102245 0
19.090000 -0.100079 0
19.095000 -0.097157 0
19.100000 -0.093133 0
19.105000 -0.087565 0
19.110000 -0.079927 0
19.115000 -0.069633 0
19.120000 -0.056092 0
19.125000 -0.038791 0
19.130000 -0.017398 0
19.135000 0.008120 0
19.140000 0.037387 0
19.145000 0.069541 0
19.150000 0.103214 0
19.155000 0.136587 0
19.160000 0.167528 0
19.165000 0.193807 0
19.170000 0.213361 0
19.175000 0.224553 0
19.180000 0.226406 1
19.185000 0.218739 0
19.190000 0.202200 0
19.195000 0.178169 0
19.200000 0.148570 0
19.205000 0.115594 0
19.210000 0.081349 0
19.215000 0.047347 0
19.220000 0.013720 0
19.225000 -0.021767 0
19.230000 -0.063933 0
19.235000 -0.117673 0
19.240000 -0.181692 0
19.245000 -0.241606 0
19.250000 -0.268814 2
19.255000 -0.227633 0
19.260000 -0.086131 0
19.265000 0.171154 0
19.270000 0.522808 0
19.275000 0.889076 0
19.280000 1.142657 0
19.285000 1.172919 3
19.290000 0.962040 0
19.295000 0.596476 0
19.300000 0.205754 0
19.305000 -0.108689 0
19.310000 -0.300390 0
19.315000 -0.367313 4
19.320000 -0.336123 0
19.325000 -0.249797 0
19.330000 -0.151547 0
19.335000 -0.068925 0
19.340000 -0.009162 0
19.345000 0.033474 0
19.350000 0.067601 0
19.355000 0.099222 0
19.360000 0.131050 0
19.365000 0.163742 0
19.370000 0.197025 0
19.375000 0.230267 0
19.380000 0.262687 0
19.385000 0.293440 0
19.390000 0.321658 0
19.395000 0.346495 0
19.400000 0.367165 0
19.405000 0.382988 0
19.410000 0.393418 0
19.415000 0.398082 5
19.420000 0.396797 0
19.425000 0.389580 0
19.430000 0.376651 0
19.435000 0.358420 0
19.440000 0.335463 0
19.445000 0.308494 0
19.450000 0.278325 0
19.455000 0.245827 0
19.460000 0.211887 0
19.465000 0.177370 0
19.470000 0.143081 0
19.475000 0.109738 0
19.480000 0.077950 0
19.485000 0.048205 0
19.490000 0.020860 0
19.495000 -0.003850 0
19.500000 -0.025807 0
19.505000 -0.044998 0
19.510000 -0.061496 0
19.515000 -0.075444 0
19.520000 -0.087034 0
19.525000 -0.096493 0
19.530000 -0.104064 0
19.535000 -0.109995 0
19.540000 -0.114525 0
19.545000 -0.117881 0
19.550000 -0.120269 0
19.555000 -0.119791 0
19.560000 -0.118829 0
19.565000 -0.117872 0
19.570000 -0.116919 0
19.575000 -0.115970 0
19.580000 -0.115024 0
19.585000 -0.114078 0
19.590000 -0.113130 0
19.595000 -0.112171 0
19.600000 -0.111189 0
19.605000 -0.110160 0
19.610000 -0.109043 0
19.615000 -0.107775 0
19.620000 -0.106254 0
19.625000 -0.104327 0
19.630000 -0.101776 0
19.635000 -0.098299 0
19.640000 -0.093503 0
19.645000 -0.086905 0
19.650000 -0.077945 0
19.655000 -0.066032 0
19.660000 -0.050609 0
19.665000 -0.031245 0
19.670000 -0.007746 0
19.675000 0.019728 0
19.680000 0.050572 0
19.685000 0.083682 0
19.690000 0.117472 0
19.695000 0.149965 0
19.700000 0.178972 0
19.705000 0.202326 0
19.710000 0.218151 0
19.715000 0.225106 1
19.720000 0.222578 0
19.725000 0.210766 0
19.730000 0.190659 0
19.735000 0.163899 0
19.740000 0.132547 0
19.745000 0.098789 0
19.750000 0.064532 0
19.755000 0.030801 0
19.760000 -0.003162 0
19.765000 -0.040736 0
19.770000 -0.087258 0
19.775000 -0.145969 0
19.780000 -0.210925 0
19.785000 -0.261802 0
19.790000 -0.266238 2
19.795000 -0.189011 0
19.800000 -0.003064 0
19.805000 0.295718 0
19.810000 0.665688 0
19.815000 1.005763 0
19.820000 1.186183 3
19.825000 1.123014 0
19.830000 0.839642 0
19.835000 0.449452 0
19.840000 0.079479 0
19.845000 -0.188808 0
19.850000 -0.328342 0
19.855000 -0.350426 4
19.860000 -0.290528 0
19.865000 -0.194545 0
19.870000 -0.101015 0
19.875000 -0.028660 0
19.880000 0.022299 0
19.885000 0.060041 0
19.890000 0.092435 0
19.895000 0.123925 0
19.900000 0.156111 0
19.905000 0.189106 0
19.910000 0.222415 0
19.915000 0.255306 0
19.920000 0.286948 0
19.925000 0.316468 0
19.930000 0.342992 0
19.935000 0.365687 0
19.940000 0.383808 0
19.945000 0.396733 0
19.950000 0.404000 0
19.955000 0.405334 5
19.960000 0.400661 0
19.965000 0.390115 0
19.970000 0.374031 0
19.975000 0.352924 0
19.980000 0.327466 0
19.985000 0.298442 0
19.990000 0.266718 0
19.995000 0.233193 0
20.000000 0.198756 0
20.005000 0.164251 0
20.010000 0.130442 0
20.015000 0.097989 0
20.020000 0.067432 0
20.025000 0.039181 0
20.030000 0.013517 0
20.035000 -0.009403 0
20.040000 -0.029532 0
20.045000 -0.046918 0
20.050000 -0.061684 0
20.055000 -0.074012 0
20.060000 -0.084124 0
20.065000 -0.092262 0
20.070000 -0.098677 0
20.075000 -0.103616 0
20.080000 -0.107313 0
20.085000 -0.109982 0
20.090000 -0.111415 0
20.095000 -0.110495 0
20.100000 -0.109579 0
20.105000 -0.108668 0
20.110000 -0.107760 0
20.115000 -0.106855 0
20.120000 -0.105952 0
20.125000 -0.105046 0
20.130000 -0.104131 0
20.135000 -0.103196 0
20.140000 -0.102218 0
20.145000 -0.101161 0
20.150000 -0.099964 0
20.155000 -0.098532 0
20.160000 -0.096719 0
20.165000 -0.094314 0
20.170000 -0.091024 0
20.175000 -0.086465 0
20.180000 -0.080156 0
20.185000 -0.071538 0
20.190000 -0.060013 0
20.195000 -0.045006 0
20.200000 -0.026064 0
20.205000 -0.002963 0
20.210000 0.024173 0
20.215000 0.054768 0
20.220000 0.087740 0
20.225000 0.121510 0
20.230000 0.154093 0
20.235000 0.183274 0
20.240000 0.206850 0
20.245000 0.222901 0
20.250000 0.230048 1
20.255000 0.227649 0
20.260000 0.215893 0
20.265000 0.195777 0
20.270000 0.168962 0
20.275000 0.137541 0
20.280000 0.103730 0
20.285000 0.069451 0
20.290000 0.035707 0
20.295000 0.001648 0
20.300000 -0.036264 0
20.305000 -0.083461 0
20.310000 -0.142901 0
20.315000 -0.207733 0
20.320000 -0.256317 2
20.325000 -0.255244 0
20.330000 -0.169057 0
20.335000 0.028287 0
20.340000 0.337482 0
20.345000 0.710073 0
20.350000 1.037684 0
20.355000 1.190073 3
20.360000 1.094536 0
20.365000 0.789412 0
20.370000 0.395188 0
20.375000 0.035700 0
20.380000 -0.215135 0
20.385000 -0.336571 0
20.390000 -0.344166 4
20.395000 -0.276049 0
20.400000 -0.178396 0
20.405000 -0.087437 0
20.410000 -0.018733 0
20.415000 0.029531 0
20.420000 0.065966 0
20.425000 0.098000 0
20.430000 0.129548 0
20.435000 0.161885 0
20.440000 0.194977 0
20.445000 0.228268 0
20.450000 0.261002 0
20.455000 0.292332 0
20.460000 0.321376 0
20.465000 0.347260 0
20.470000 0.369161 0
20.475000 0.386349 0
20.480000 0.398228 0
20.485000 0.404367 0
20.490000 0.404527 5
20.495000 0.398675 0
20.500000 0.386987 0
20.505000 0.369836 0
20.510000 0.347777 0
20.515000 0.321508 0
20.520000 0.291843 0
20.525000 0.259659 0
20.530000 0.225863 0
20.535000 0.191341 0
20.540000 0.156926 0
20.545000 0.123365 0
20.550000 0.091297 0
20.555000 0.061233 0
20.560000 0.033557 0
20.565000 0.008520 0
20.570000 -0.013745 0
20.575000 -0.033215 0
20.580000 -0.049959 0
20.585000 -0.064116 0
20.590000 -0.075881 0
20.595000 -0.085483 0
20.600000 -0.093169 0
20.605000 -0.099191 0
20.610000 -0.103794 0
20.615000 -0.107210 0
20.620000 -0.109647 0
20.625000 -0.109221 0
20.630000 -0.108312 0
20.635000 -0.107407 0
20.640000 -0.106506 0
20.645000 -0.105609 0
20.650000 -0.104714 0
20.655000 -0.103820 0
20.660000 -0.102922 0
20.665000 -0.102012 0
20.670000 -0.101077 0
20.675000 -0.100090 0
20.680000 -0.099008 0
20.685000 -0.097763 0
20.690000 -0.096245 0
20.695000 -0.094289 0
20.700000 -0.091661 0
20.705000 -0.088039 0
20.710000 -0.083006 0
20.715000 -0.076053 0
20.720000 -0.066601 0
20.725000 -0.054048 0
20.730000 -0.037842 0
20.735000 -0.017588 0
20.740000 0.006839 0
20.745000 0.035177 0
20.750000 0.066687 0
20.755000 0.100113 0
20.760000 0.133718 0
20.765000 0.165408 0
20.770000 0.192931 0
20.775000 0.214138 0
20.780000 0.227258 0
20.785000 0.231139 1
20.790000 0.225421 0
20.795000 0.210584 0
20.800000 0.187884 0
20.805000 0.159176 0
20.810000 0.126647 0
20.815000 0.092471 0
20.820000 0.058339 0
20.825000 0.024703 0
20.830000 -0.010222 0
20.835000 -0.050940 0
20.840000 -0.102719 0
20.845000 -0.165745 0
20.850000 -0.227782 0
20.855000 -0.261776 2
20.860000 -0.232056 0
20.865000 -0.105181 0
20.870000 0.137601 0
20.875000 0.480746 0
20.880000 0.851267 0
20.885000 1.123789 0
20.890000 1.180529 3
20.895000 0.993287 0
20.900000 0.639120 0
20.905000 0.244922 0
20.910000 -0.083363 0
20.915000 -0.293012 0
20.920000 -0.377015 4
20.925000 -0.358284 0
20.930000 -0.277623 0
20.935000 -0.178809 0
20.940000 -0.092320 0
20.945000 -0.028509 0
20.950000 0.016750 0
20.955000 0.052015 0
20.960000 0.083879 0
20.965000 0.115601 0
20.970000 0.148147 0
20.975000 0.181384 0
20.980000 0.214741 0
20.985000 0.247475 0
20.990000 0.278763 0
20.995000 0.307752 0
21.000000 0.333600 0
21.005000 0.355512 0
21.010000 0.372786 0
21.015000 0.384844 0
21.020000 0.391267 0
21.025000 0.391818 5
21.030000 0.386455 0
21.035000 0.375332 0
21.040000 0.358797 0
21.045000 0.337367 0
21.050000 0.311704 0
21.055000 0.282581 0
21.060000 0.250839 0
21.065000 0.217354 0
21.070000 0.182987 0
21.075000 0.148560 0
21.080000 0.114813 0
21.085000 0.082390 0
21.090000 0.051819 0
21.095000 0.023504 0
21.100000 -0.002275 0
21.105000 -0.025356 0
21.110000 -0.045685 0
21.115000 -0.063300 0
21.120000 -0.078314 0
21.125000 -0.090896 0
21.130000 -0.101258 0
21.135000 -0.109633 0
21.140000 -0.116264 0
21.145000 -0.121394 0
21.150000 -0.125251 0
21.155000 -0.128050 0
21.160000 -0.129553 0
21.165000 -0.128542 0
21.170000 -0.127537 0
21.175000 -0.126536 0
21.180000 -0.125539 0
21.185000 -0.124546 0
21.190000 -0.123556 0
21.195000 -0.122565 0
21.200000 -0.121569 0
21.205000 -0.120559 0
21.210000 -0.119516 0
21.215000 -0.118413 0
21.220000 -0.117201 0
21.225000 -0.115803 0
21.230000 -0.114101 0
21.235000 -0.111921 0
21.240000 -0.109018 0
21.245000 -0.105061 0
21.250000 -0.099629 0
21.255000 -0.092216 0
21.260000 -0.082253 0
21.265000 -0.069162 0
21.270000 -0.052423 0
21.275000 -0.031677 0
21.280000 -0.006836 0
21.285000 0.021812 0
21.290000 0.053521 0
21.295000 0.087053 0
21.300000 0.120717 0
21.305000 0.152485 0
21.310000 0.180180 0
21.315000 0.201719 0
21.320000 0.215372 0
21.325000 0.219990 1
21.330000 0.215166 0
21.335000 0.201296 0
21.340000 0.179522 0
21.345000 0.151579 0
21.350000 0.119556 0
21.355000 0.085585 0
21.360000 0.051425 0
21.365000 0.017815 0
21.370000 -0.016443 0
21.375000 -0.055164 0
21.380000 -0.103653 0
21.385000 -0.164101 0
21.390000 -0.228553 0
21.395000 -0.274759 2
21.400000 -0.269742 0
21.405000 -0.179243 0
21.410000 0.021418 0
21.415000 0.332004 0
21.420000 0.704730 0
21.425000 1.034260 0
21.430000 1.193570 3
21.435000 1.105398 0
21.440000 0.803756 0
21.445000 0.409879 0
21.450000 0.049907 0
21.455000 -0.200714 0
21.460000 -0.320963 0
21.465000 -0.326911 4
21.470000 -0.257557 0
21.475000 -0.159740 0
21.480000 -0.069635 0
21.485000 -0.002161 0
21.490000 0.045109 0
21.495000 0.081003 0
21.500000 0.112848 0
21.505000 0.144378 0
21.510000 0.176735 0
21.515000 0.209817 0
21.520000 0.243031 0
21.525000 0.275593 0
21.530000 0.306639 0
21.535000 0.335270 0
21.540000 0.360603 0
21.545000 0.381812 0
21.550000 0.398172 0
21.555000 0.409102 0
21.560000 0.414194 5
21.565000 0.413238 0
21.570000 0.406240 0
21.575000 0.393416 0
21.580000 0.375182 0
21.585000 0.352134 0
21.590000 0.325009 0
21.595000 0.294650 0
21.600000 0.261960 0
21.605000 0.227858 0
21.610000 0.193236 0
21.615000 0.158920 0
21.620000 0.125643 0
21.625000 0.094020 0
21.630000 0.064536 0
21.635000 0.037544 0
21.640000 0.013262 0
21.645000 -0.008209 0
21.650000 -0.026876 0
21.655000 -0.042833 0
21.660000 -0.056242 0
21.665000 -0.067313 0
21.670000 -0.076288 0
21.675000 -0.083420 0
21.680000 -0.088964 0
21.685000 -0.093165 0
21.690000 -0.096249 0
21.695000 -0.098422 0
21.700000 -0.098004 0
21.705000 -0.097150 0
21.710000 -0.096301 0
21.715000 -0.095455 0
21.720000 -0.094612 0
21.725000 -0.093771 0
21.730000 -0.092929 0
21.735000 -0.092079 0
21.740000 -0.091212 0
21.745000 -0.090308 0
21.750000 -0.089335 0
21.755000 -0.088237 0
21.760000 -0.086926 0
21.765000 -0.085266 0
21.770000 -0.083056 0
21.775000 -0.080015 0
21.780000 -0.075768 0
21.785000 -0.069841 0
21.790000 -0.061674 0
21.795000 -0.050659 0
21.800000 -0.036201 0
21.805000 -0.017813 0
21.810000 0.004769 0
21.815000 0.031461 0
21.820000 0.061727 0
21.825000 0.094511 0
21.830000 0.128239 0
21.835000 0.160908 0
21.840000 0.190265 0
21.845000 0.214054 0
21.850000 0.230298 0
21.855000 0.237570 1
21.860000 0.235202 0
21.865000 0.223378 0
21.870000 0.203118 0
21.875000 0.176127 0
21.880000 0.144547 0
21.885000 0.110636 0
21.890000 0.076329 0
21.895000 0.042571 0
21.900000 0.008327 0
21.905000 -0.030228 0
21.910000 -0.078646 0
21.915000 -0.139292 0
21.920000 -0.203655 0
21.925000 -0.247875 2
21.930000 -0.236958 0
21.935000 -0.135344 0
21.940000 0.080888 0
21.945000 0.406028 0
21.950000 0.779883 0
21.955000 1.083175 0
21.960000 1.187847 3
21.965000 1.042503 0
21.970000 0.709354 0
21.975000 0.313253 0
21.980000 -0.031172 0
21.985000 -0.261398 0
21.990000 -0.364030 4
21.995000 -0.358377 0
22.000000 -0.283830 0
22.005000 -0.185321 0
22.010000 -0.096243 0
22.015000 -0.029647 0
22.020000 0.017359 0
22.025000 0.053339 0
22.030000 0.085336 0
22.035000 0.116978 0
22.040000 0.149419 0
22.045000 0.182592 0
22.050000 0.215946 0
22.055000 0.248737 0
22.060000 0.280139 0
22.065000 0.309288 0
22.070000 0.335330 0
22.075000 0.357458 0
22.080000 0.374953 0
22.085000 0.387225 0
22.090000 0.393842 0
22.095000 0.394557 5
22.100000 0.389321 0
22.105000 0.378287 0
22.110000 0.361801 0
22.115000 0.340385 0
22.120000 0.314708 0
22.125000 0.285552 0
22.130000 0.253769 0
22.135000 0.220243 0
22.140000 0.185849 0
22.145000 0.151412 0
22.150000 0.117681 0
22.155000 0.085305 0
22.160000 0.054811 0
22.165000 0.026603 0
22.170000 0.000957 0
22.175000 -0.021969 0
22.180000 -0.042127 0
22.185000 -0.059561 0
22.190000 -0.074391 0
22.195000 -0.086793 0
22.200000 -0.096981 0
22.205000 -0.105195 0
22.210000 -0.111681 0
22.215000 -0.116681 0
22.220000 -0.120428 0
22.225000 -0.123135 0
22.230000 -0.124579 0
22.235000 -0.123593 0
22.240000 -0.122612 0
22.245000 -0.121635 0
22.250000 -0.120663 0
22.255000 -0.119695 0
22.260000 -0.118728 0
22.265000 -0.117760 0
22.270000 -0.116785 0
22.275000 -0.115793 0
22.280000 -0.114764 0
22.285000 -0.113667 0
22.290000 -0.112447 0
22.295000 -0.111019 0
22.300000 -0.109254 0
22.305000 -0.106961 0
22.310000 -0.103873 0
22.315000 -0.099637 0
22.320000 -0.093803 0
22.325000 -0.085843 0
22.330000 -0.075172 0
22.335000 -0.061212 0
22.340000 -0.043470 0
22.345000 -0.021642 0
22.350000 0.004269 0
22.355000 0.033852 0
22.360000 0.066212 0
22.365000 0.099959 0
22.370000 0.133267 0
22.375000 0.164015 0
22.380000 0.190004 0
22.385000 0.209208 0
22.390000 0.220039 0
22.395000 0.221562 1
22.400000 0.213631 0
22.405000 0.196908 0
22.410000 0.172775 0
22.415000 0.143141 0
22.420000 0.110175 0
22.425000 0.075955 0
22.430000 0.041978 0
22.435000 0.008383 0
22.440000 -0.027007 0
22.445000 -0.068925 0
22.450000 -0.122273 0
22.455000 -0.186062 0
22.460000 -0.246596 0
22.465000 -0.276081 2
22.470000 -0.239338 0
22.475000 -0.104329 0
22.480000 0.145660 0
22.485000 0.492601 0
22.490000 0.861977 0
22.495000 1.129846 0
22.500000 1.182241 3
22.505000 0.990856 0
22.510000 0.633776 0
22.515000 0.240506 0
22.520000 -0.082839 0
22.525000 -0.285088 0
22.530000 -0.361222 4
22.535000 -0.336190 0
22.540000 -0.252404 0
22.545000 -0.153870 0
22.550000 -0.069730 0
22.555000 -0.008535 0
22.560000 0.034929 0
22.565000 0.069359 0
22.570000 0.101009 0
22.575000 0.132775 0
22.580000 0.165402 0
22.585000 0.198651 0
22.590000 0.231896 0
22.595000 0.264360 0
22.600000 0.295195 0
22.605000 0.323530 0
22.610000 0.348513 0
22.615000 0.369351 0
22.620000 0.385355 0
22.625000 0.395972 0
22.630000 0.400820 5
22.635000 0.399708 0
22.640000 0.392648 0
22.645000 0.379854 0
22.650000 0.361733 0
22.655000 0.338860 0
22.660000 0.311949 0
22.665000 0.281815 0
22.670000 0.249332 0
22.675000 0.215390 0
22.680000 0.180860 0
22.685000 0.146550 0
22.690000 0.113183 0
22.695000 0.081371 0
22.700000 0.051604 0
22.705000 0.024243 0
22.710000 -0.000477 0
22.715000 -0.022437 0
22.720000 -0.041626 0
22.725000 -0.058117 0
22.730000 -0.072054 0
22.735000 -0.083631 0
22.740000 -0.093075 0
22.745000 -0.100632 0
22.750000 -0.106549 0
22.755000 -0.111067 0
22.760000 -0.114414 0
22.765000 -0.116796 0
22.770000 -0.116332 0
22.775000 -0.115387 0
22.780000 -0.114447 0
22.785000 -0.113511 0
22.790000 -0.112579 0
22.795000 -0.111649 0
22.800000 -0.110721 0
22.805000 -0.109789 0
22.810000 -0.108846 0
22.815000 -0.107878 0
22.820000 -0.106861 0
22.825000 -0.105754 0
22.830000 -0.104491 0
22.835000 -0.102967 0
22.840000 -0.101025 0
22.845000 -0.098440 0
22.850000 -0.094905 0
22.855000 -0.090018 0
22.860000 -0.083286 0
22.865000 -0.074146 0
22.870000 -0.062003 0
22.875000 -0.046303 0
22.880000 -0.026627 0
22.885000 -0.002805 0
22.890000 0.024968 0
22.895000 0.056046 0
22.900000 0.089274 0
22.905000 0.123019 0
22.910000 0.155268 0
22.915000 0.183814 0
22.920000 0.206496 0
22.925000 0.221472 0
22.930000 0.227461 1
22.935000 0.223927 0
22.940000 0.211157 0
22.945000 0.190224 0
22.950000 0.162834 0
22.955000 0.131089 0
22.960000 0.097174 0
22.965000 0.062939 0
22.970000 0.029255 0
22.975000 -0.004927 0
22.980000 -0.043329 0
22.985000 -0.091354 0
22.990000 -0.151498 0
22.995000 -0.216095 0
23.000000 -0.262806 2
23.005000 -0.258127 0
23.010000 -0.167129 0
23.015000 0.035230 0
23.020000 0.348107 0
23.025000 0.721281 0
23.030000 1.045741 0
23.035000 1.192865 3
23.040000 1.092526 0
23.045000 0.784197 0
23.050000 0.389532 0
23.055000 0.031936 0
23.060000 -0.215840 0
23.065000 -0.334082 0
23.070000 -0.339112 4
23.075000 -0.269574 0
23.080000 -0.171714 0
23.085000 -0.081330 0
23.090000 -0.013381 0
23.095000 0.034334 0
23.100000 0.070500 0
23.105000 0.102454 0
23.110000 0.134003 0
23.115000 0.166357 0
23.120000 0.199453 0
23.125000 0.232722 0
23.130000 0.265399 0
23.135000 0.296635 0
23.140000 0.325544 0
23.145000 0.351251 0
23.150000 0.372936 0
23.155000 0.389871 0
23.160000 0.401465 0
23.165000 0.407296 5
23.170000 0.407135 0
23.175000 0.400959 0
23.180000 0.388953 0
23.185000 0.371505 0
23.190000 0.349177 0
23.195000 0.322678 0
23.200000 0.292827 0
23.205000 0.260508 0
23.210000 0.226629 0
23.215000 0.192076 0
23.220000 0.157679 0
23.225000 0.124182 0
23.230000 0.092216 0
23.235000 0.062286 0
23.240000 0.034768 0
23.245000 0.009905 0
23.250000 -0.012178 0
23.255000 -0.031465 0
23.260000 -0.048030 0
23.265000 -0.062018 0
23.270000 -0.073627 0
23.275000 -0.083089 0
23.280000 -0.090652 0
23.285000 -0.096568 0
23.290000 -0.101083 0
23.295000 -0.104427 0
23.300000 -0.106807 0
23.305000 -0.106385 0
23.310000 -0.105489 0
23.315000 -0.104599 0
23.320000 -0.103712 0
23.325000 -0.102828 0
23.330000 -0.101947 0
23.335000 -0.101066 0
23.340000 -0.100181 0
23.345000 -0.099283 0
23.350000 -0.098357 0
23.355000 -0.097376 0
23.360000 -0.096295 0
23.365000 -0.095042 0
23.370000 -0.093501 0
23.375000 -0.091502 0
23.380000 -0.088802 0
23.385000 -0.085068 0
23.390000 -0.079872 0
23.395000 -0.072696 0
23.400000 -0.062953 0
23.405000 -0.050042 0
23.410000 -0.033421 0
23.415000 -0.012718 0
23.420000 0.012156 0
23.425000 0.040887 0
23.430000 0.072678 0
23.435000 0.106210 0
23.440000 0.139694 0
23.445000 0.171000 0
23.450000 0.197868 0
23.455000 0.218176 0
23.460000 0.230210 0
23.465000 0.232907 1
23.470000 0.226006 0
23.475000 0.210092 0
23.480000 0.186512 0
23.485000 0.157182 0
23.490000 0.124313 0
23.495000 0.090055 0
23.500000 0.055990 0
23.505000 0.022335 0
23.510000 -0.013063 0
23.515000 -0.055012 0
23.520000 -0.108528 0
23.525000 -0.172498 0
23.530000 -0.232570 0
23.535000 -0.259885 2
23.540000 -0.218318 0
23.545000 -0.075589 0
23.550000 0.183648 0
23.555000 0.536776 0
23.560000 0.901531 0
23.565000 1.148397 0
23.570000 1.167718 3
23.575000 0.946361 0
23.580000 0.576275 0
23.585000 0.187597 0
23.590000 -0.120581 0
23.595000 -0.304581 0
23.600000 -0.364450 4
23.605000 -0.328356 0
23.610000 -0.240021 0
23.615000 -0.142224 0
23.620000 -0.061222 0
23.625000 -0.003015 0
23.630000 0.038676 0
23.635000 0.072427 0
23.640000 0.103990 0
23.645000 0.135872 0
23.650000 0.168622 0
23.655000 0.201920 0
23.660000 0.235112 0
23.665000 0.267405 0
23.670000 0.297946 0
23.675000 0.325863 0
23.680000 0.350311 0
23.685000 0.370509 0
23.690000 0.385784 0
23.695000 0.395607 0
23.700000 0.399621 5
23.705000 0.397664 0
23.710000 0.389776 0
23.715000 0.376201 0
23.720000 0.357370 0
23.725000 0.333881 0
23.730000 0.306465 0
23.735000 0.275947 0
23.740000 0.243207 0
23.745000 0.209136 0
23.750000 0.174595 0
23.755000 0.140385 0
23.760000 0.107213 0
23.765000 0.075674 0
23.770000 0.046240 0
23.775000 0.019253 0
23.780000 -0.005069 0
23.785000 -0.026623 0
23.790000 -0.045411 0
23.795000 -0.061518 0
23.800000 -0.075095 0
23.805000 -0.086344 0
23.810000 -0.095495 0
23.815000 -0.102793 0
23.820000 -0.108487 0
23.825000 -0.112817 0
23.830000 -0.116006 0
23.835000 -0.118258 0
23.840000 -0.117768 0
23.845000 -0.116816 0
23.850000 -0.115869 0
23.855000 -0.114926 0
23.860000 -0.113986 0
23.865000 -0.113050 0
23.870000 -0.112113 0
23.875000 -0.111172 0
23.880000 -0.110219 0
23.885000 -0.109239 0
23.890000 -0.108204 0
23.895000 -0.107072 0
23.900000 -0.105771 0
23.905000 -0.104189 0
23.910000 -0.102162 0
23.915000 -0.099452 0
23.920000 -0.095739 0
23.925000 -0.090608 0
23.930000 -0.083554 0
23.935000 -0.074004 0
23.940000 -0.061364 0
23.945000 -0.045095 0
23.950000 -0.024807 0
23.955000 -0.000376 0
23.960000 0.027943 0
23.965000 0.059428 0
23.970000 0.092852 0
23.975000 0.126518 0
23.980000 0.158369 0
23.985000 0.186188 0
23.990000 0.207846 0
23.995000 0.221566 0
24.000000 0.226170 1
24.005000 0.221240 0
24.010000 0.207186 0
24.015000 0.185185 0
24.020000 0.157018 0
24.025000 0.124823 0
24.030000 0.090766 0
24.035000 0.056599 0
24.040000 0.022973 0
24.045000 -0.011528 0
24.050000 -0.051011 0
24.055000 -0.100834 0
24.060000 -0.162456 0
24.065000 -0.226152 0
24.070000 -0.267487 2
24.075000 -0.252046 0
24.080000 -0.145623 0
24.085000 0.074204 0
24.090000 0.400768 0
24.095000 0.774804 0
24.100000 1.080444 0
24.105000 1.192645 3
24.110000 1.057106 0
24.115000 0.729468 0
24.120000 0.333393 0
24.125000 -0.014875 0
24.130000 -0.250476 0
24.135000 -0.358297 4
24.140000 -0.356540 0
24.145000 -0.283995 0
24.150000 -0.185712 0
24.155000 -0.095841 0
24.160000 -0.028285 0
24.165000 0.019370 0
24.170000 0.055636 0
24.175000 0.087688 0
24.180000 0.119290 0
24.185000 0.151674 0
24.190000 0.184807 0
24.195000 0.218149 0
24.200000 0.250964 0
24.205000 0.282426 0
24.210000 0.311673 0
24.215000 0.337850 0
24.220000 0.360147 0
24.225000 0.377842 0
24.230000 0.390336 0
24.235000 0.397192 0
24.240000 0.398153 5
24.245000 0.393162 0
24.250000 0.382361 0
24.255000 0.366091 0
24.260000 0.344865 0
24.265000 0.319345 0
24.270000 0.290310 0
24.275000 0.258609 0
24.280000 0.225126 0
24.285000 0.190736 0
24.290000 0.156267 0
24.295000 0.122474 0
24.300000 0.090007 0
24.305000 0.059401 0
24.310000 0.031066 0
24.315000 0.005283 0
24.320000 -0.017786 0
24.325000 -0.038087 0
24.330000 -0.055660 0
24.335000 -0.070622 0
24.340000 -0.083147 0
24.345000 -0.093448 0
24.350000 -0.101764 0
24.355000 -0.108340 0
24.360000 -0.113420 0
24.365000 -0.117236 0
24.370000 -0.120002 0
24.375000 -0.121491 0
24.380000 -0.120520 0
24.385000 -0.119555 0
24.390000 -0.118594 0
24.395000 -0.117637 0
24.400000 -0.116683 0
24.405000 -0.115732 0
24.410000 -0.114779 0
24.415000 -0.113820 0
24.420000 -0.112844 0
24.425000 -0.111833 0
24.430000 -0.110754 0
24.435000 -0.109557 0
24.440000 -0.108157 0
24.445000 -0.106426 0
24.450000 -0.104179 0
24.455000 -0.101151 0
24.460000 -0.096994 0
24.465000 -0.091265 0
24.470000 -0.083436 0
24.475000 -0.072925 0
24.480000 -0.059153 0
24.485000 -0.041620 0
24.490000 -0.020010 0
24.495000 0.005693 0
24.500000 0.035097 0
24.505000 0.067334 0
24.510000 0.101039 0
24.515000 0.134403 0
24.520000 0.165318 0
24.525000 0.191580 0
24.530000 0.211151 0
24.535000 0.222416 0
24.540000 0.224403 1
24.545000 0.216924 0
24.550000 0.200603 0
24.555000 0.176788 0
24.560000 0.147368 0
24.565000 0.114505 0
24.570000 0.080292 0
24.575000 0.046271 0
24.580000 0.012674 0
24.585000 -0.022541 0
24.590000 -0.064002 0
24.595000 -0.116719 0
24.600000 -0.180190 0
24.605000 -0.241476 0
24.610000 -0.273413 2
24.615000 -0.240957 0
24.620000 -0.111647 0
24.625000 0.132411 0
24.630000 0.475598 0
24.635000 0.846587 0
24.640000 1.122990 0
24.645000 1.188297 3
24.650000 1.007512 0
24.655000 0.654014 0
24.660000 0.260357 0
24.665000 -0.063477 0
24.670000 -0.264547 0
24.675000 -0.337992 4
24.680000 -0.310016 0
24.685000 -0.224589 0
24.690000 -0.126480 0
24.695000 -0.044248 0
24.700000 0.014813 0
24.705000 0.056795 0
24.710000 0.090535 0
24.715000 0.122011 0
24.720000 0.153815 0
24.725000 0.186500 0
24.730000 0.219724 0
24.735000 0.252807 0
24.740000 0.284930 0
24.745000 0.315212 0
24.750000 0.342756 0
24.755000 0.366698 0
24.760000 0.386245 0
24.765000 0.400721 0
24.770000 0.409604 0
24.775000 0.412557 5
24.780000 0.409446 0
24.785000 0.400352 0
24.790000 0.385564 0
24.795000 0.365564 0
24.800000 0.341000 0
24.805000 0.312650 0
24.810000 0.281381 0
24.815000 0.248106 0
24.820000 0.213735 0
24.825000 0.179140 0
24.830000 0.145116 0
24.835000 0.112356 0
24.840000 0.081431 0
24.845000 0.052778 0
24.850000 0.026703 0
24.855000 0.003382 0
24.860000 -0.017122 0
24.865000 -0.034848 0
24.870000 -0.049915 0
24.875000 -0.062503 0
24.880000 -0.072833 0
24.885000 -0.081154 0
24.890000 -0.087719 0
24.895000 -0.092780 0
24.900000 -0.096577 0
24.905000 -0.099329 0
24.910000 -0.100830 0
24.915000 -0.099963 0
24.920000 -0.099099 0
24.925000 -0.098240 0
24.930000 -0.097385 0
24.935000 -0.096532 0
24.940000 -0.095679 0
24.945000 -0.094824 0
24.950000 -0.093960 0
24.955000 -0.093073 0
24.960000 -0.092141 0
24.965000 -0.091125 0
24.970000 -0.089961 0
24.975000 -0.088547 0
24.980000 -0.086730 0
24.985000 -0.084286 0
24.990000 -0.080905 0
24.995000 -0.076184 0
25.000000 -0.069619 0
25.005000 -0.060634 0
25.010000 -0.048616 0
25.015000 -0.032995 0
25.020000 -0.013338 0
25.025000 0.010524 0
25.030000 0.038382 0
25.035000 0.069549 0
25.040000 0.102811 0
25.045000 0.136457 0
25.050000 0.168392 0
25.055000 0.196338 0
25.060000 0.218096 0
25.065000 0.231831 0
25.070000 0.236323 1
25.075000 0.231148 0
25.080000 0.216743 0
25.085000 0.194344 0
25.090000 0.165806 0
25.095000 0.133339 0
25.100000 0.099153 0
25.105000 0.064981 0
25.110000 0.031312 0
25.115000 -0.003632 0
25.120000 -0.044403 0
25.125000 -0.096326 0
25.130000 -0.159498 0
25.135000 -0.221277 0
25.140000 -0.253953 2
25.145000 -0.221289 0
25.150000 -0.089698 0
25.155000 0.158791 0
25.160000 0.505975 0
25.165000 0.874262 0
25.170000 1.134797 0
25.175000 1.172142 3
25.180000 0.965525 0
25.185000 0.602189 0
25.190000 0.210510 0
25.195000 -0.107501 0
25.200000 -0.304047 0
25.205000 -0.375787 4
25.210000 -0.348215 0
25.215000 -0.263516 0
25.220000 -0.164962 0
25.225000 -0.080981 0
25.230000 -0.019812 0
25.235000 0.023742 0
25.240000 0.058274 0
25.245000 0.089989 0
25.250000 0.121790 0
25.255000 0.154442 0
25.260000 0.187727 0
25.265000 0.221036 0
25.270000 0.253604 0
25.275000 0.284599 0
25.280000 0.313160 0
25.285000 0.338444 0
25.290000 0.359665 0
25.295000 0.376131 0
25.300000 0.387287 0
25.305000 0.392739 5
25.310000 0.392280 0
25.315000 0.385900 0
25.320000 0.373791 0
25.325000 0.356333 0
25.330000 0.334075 0
25.335000 0.307706 0
25.340000 0.278019 0
25.345000 0.245870 0
25.350000 0.212140 0
25.355000 0.177691 0
25.360000 0.143335 0
25.365000 0.109800 0
25.370000 0.077712 0
25.375000 0.047575 0
25.380000 0.019770 0
25.385000 -0.005447 0
25.390000 -0.027938 0
25.395000 -0.047670 0
25.400000 -0.064699 0
25.405000 -0.079153 0
25.410000 -0.091214 0
25.415000 -0.101101 0
25.420000 -0.109052 0
25.425000 -0.115312 0
25.430000 -0.120123 0
25.435000 -0.123713 0
25.440000 -0.126290 0
25.445000 -0.127641 0
25.450000 -0.126640 0
25.455000 -0.125644 0
25.460000 -0.124652 0
25.465000 -0.123665 0
25.470000 -0.122681 0
25.475000 -0.121699 0
25.480000 -0.120715 0
25.485000 -0.119724 0
25.490000 -0.118714 0
25.495000 -0.117666 0
25.500000 -0.116545 0
25.505000 -0.115296 0
25.510000 -0.113832 0
25.515000 -0.112017 0
25.520000 -0.109658 0
25.525000 -0.106483 0
25.530000 -0.102133 0
25.535000 -0.096156 0
25.540000 -0.088020 0
25.545000 -0.077143 0
25.550000 -0.062953 0
25.555000 -0.044966 0
25.560000 -0.022897 0
25.565000 0.003232 0
25.570000 0.032989 0
25.575000 0.065460 0
25.580000 0.099240 0
25.585000 0.132498 0
25.590000 0.163116 0
25.595000 0.188910 0
25.600000 0.207876 0
25.605000 0.218454 0
25.610000 0.219735 1
25.615000 0.211595 0
25.620000 0.194711 0
25.625000 0.170471 0
25.630000 0.140781 0
25.635000 0.107797 0
25.640000 0.073584 0
25.645000 0.039621 0
25.650000 0.006037 0
25.655000 -0.029342 0
25.660000 -0.071226 0
25.665000 -0.124496 0
25.670000 -0.188226 0
25.675000 -0.248915 0
25.680000 -0.279054 2
25.685000 -0.243691 0
25.690000 -0.110823 0
25.695000 0.136631 0
25.700000 0.481802 0
25.705000 0.852130 0
25.710000 1.125144 0
25.715000 1.185925 3
25.720000 1.002267 0
25.725000 0.648591 0
25.730000 0.254621 0
25.735000 -0.071593 0
25.740000 -0.277117 0
25.745000 -0.355950 4
25.750000 -0.332613 0
25.755000 -0.249499 0
25.760000 -0.150946 0
25.765000 -0.066546 0
25.770000 -0.005141 0
25.775000 0.038413 0
25.780000 0.072856 0
25.785000 0.104491 0
25.790000 0.136239 0
25.795000 0.168851 0
25.800000 0.202084 0
25.805000 0.235311 0
25.810000 0.267749 0
25.815000 0.298545 0
25.820000 0.326824 0
25.825000 0.351732 0
25.830000 0.372472 0
25.835000 0.388354 0
25.840000 0.398825 0
25.845000 0.403507 5
25.850000 0.402212 0
25.855000 0.394958 0
25.860000 0.381967 0
25.865000 0.363653 0
25.870000 0.340599 0
25.875000 0.313527 0
25.880000 0.283260 0
25.885000 0.250677 0
25.890000 0.216674 0
25.895000 0.182121 0
25.900000 0.147828 0
25.905000 0.114516 0
25.910000 0.082794 0
25.915000 0.053146 0
25.920000 0.025928 0
25.925000 0.001368 0
25.930000 -0.020423 0
25.935000 -0.039438 0
25.940000 -0.055757 0
25.945000 -0.069528 0
25.950000 -0.080950 0
25.955000 -0.090253 0
25.960000 -0.097683 0
25.965000 -0.103491 0
25.970000 -0.107917 0
25.975000 -0.111187 0
25.980000 -0.113507 0
25.985000 -0.113048 0
25.990000 -0.112120 0
25.995000 -0.111196 0
26.000000 -0.110276 0
26.005000 -0.109360 0
26.010000 -0.108446 0
26.015000 -0.107533 0
26.020000 -0.106615 0
26.025000 -0.105686 0
26.030000 -0.104729 0
26.035000 -0.103719 0
26.040000 -0.102613 0
26.045000 -0.101339 0
26.050000 -0.099787 0
26.055000 -0.097791 0
26.060000 -0.095117 0
26.065000 -0.091442 0
26.070000 -0.086350 0
26.075000 -0.079336 0
26.080000 -0.069825 0
26.085000 -0.057221 0
26.090000 -0.040979 0
26.095000 -0.020709 0
26.100000 0.003714 0
26.105000 0.032032 0
26.110000 0.063517 0
26.115000 0.096934 0
26.120000 0.130572 0
26.125000 0.162362 0
26.130000 0.190076 0
26.135000 0.211578 0
26.140000 0.225094 0
26.145000 0.229454 1
26.150000 0.224259 0
26.155000 0.209941 0
26.160000 0.187703 0
26.165000 0.159351 0
26.170000 0.127036 0
26.175000 0.092930 0
26.180000 0.058765 0
26.185000 0.025131 0
26.190000 -0.009506 0
26.195000 -0.049382 0
26.200000 -0.099840 0
26.205000 -0.161953 0
26.210000 -0.225203 0
26.215000 -0.264300 2
26.220000 -0.244392 0
26.225000 -0.131476 0
26.230000 0.095772 0
26.235000 0.427964 0
26.240000 0.801474 0
26.245000 1.097129 0
26.250000 1.191739 3
26.255000 1.037528 0
26.260000 0.697750 0
26.265000 0.302090 0
26.270000 -0.034417 0
26.275000 -0.252088 0
26.280000 -0.341088 4
26.285000 -0.324230 0
26.290000 -0.243741 0
26.295000 -0.145156 0
26.300000 -0.059756 0
26.305000 0.002486 0
26.310000 0.046425 0
26.315000 0.080952 0
26.320000 0.112558 0
26.325000 0.144262 0
26.330000 0.176838 0
26.335000 0.210037 0
26.340000 0.243218 0
26.345000 0.275584 0
26.350000 0.306264 0
26.355000 0.334368 0
26.360000 0.359028 0
26.365000 0.379439 0
26.370000 0.394905 0
26.375000 0.404877 0
26.380000 0.408985 5
26.385000 0.407056 0
26.390000 0.399129 0
26.395000 0.385453 0
26.400000 0.366470 0
26.405000 0.342794 0
26.410000 0.315176 0
26.415000 0.284464 0
26.420000 0.251557 0
26.425000 0.217366 0
26.430000 0.182768 0
26.435000 0.148574 0
26.440000 0.115496 0
26.445000 0.084130 0
26.450000 0.054943 0
26.455000 0.028266 0
26.460000 0.004307 0
26.465000 -0.016850 0
26.470000 -0.035219 0
26.475000 -0.050902 0
26.480000 -0.064063 0
26.485000 -0.074916 0
26.490000 -0.083701 0
26.495000 -0.090671 0
26.500000 -0.096077 0
26.505000 -0.100163 0
26.510000 -0.103150 0
26.515000 -0.105241 0
26.520000 -0.104782 0
26.525000 -0.103895 0
26.530000 -0.103012 0
26.535000 -0.102133 0
26.540000 -0.101257 0
26.545000 -0.100382 0
26.550000 -0.099506 0
26.555000 -0.098623 0
26.560000 -0.097723 0
26.565000 -0.096786 0
26.570000 -0.095779 0
26.575000 -0.094647 0
26.580000 -0.093302 0
26.585000 -0.091609 0
26.590000 -0.089370 0
26.595000 -0.086304 0
26.600000 -0.082040 0
26.605000 -0.076110 0
26.610000 -0.067959 0
26.615000 -0.056984 0
26.620000 -0.042594 0
26.625000 -0.024302 0
26.630000 -0.001838 0
26.635000 0.024730 0
26.640000 0.054890 0
26.645000 0.087614 0
26.650000 0.121366 0
26.655000 0.154176 0
26.660000 0.183817 0
26.665000 0.208044 0
26.670000 0.224870 0
26.675000 0.232837 1
26.680000 0.231220 0
26.685000 0.220142 0
26.690000 0.200550 0
26.695000 0.174089 0
26.700000 0.142857 0
26.705000 0.109099 0
26.710000 0.074791 0
26.715000 0.041007 0
26.720000 0.006975 0
26.725000 -0.030799 0
26.730000 -0.077797 0
26.735000 -0.137117 0
26.740000 -0.201983 0
26.745000 -0.250575 2
26.750000 -0.249073 0
26.755000 -0.161604 0
26.760000 0.037979 0
26.765000 0.349624 0
26.770000 0.722672 0
26.775000 1.045790 0
26.780000 1.187876 3
26.785000 1.081698 0
26.790000 0.772229 0
26.795000 0.377666 0
26.800000 0.017834 0
26.805000 -0.235421 0
26.810000 -0.361212 0
26.815000 -0.373673 4
26.820000 -0.308980 0
26.825000 -0.211974 0
26.830000 -0.119172 0
26.835000 -0.047672 0
26.840000 0.002893 0
26.845000 0.040601 0
26.850000 0.073084 0
26.855000 0.104664 0
26.860000 0.136919 0
26.865000 0.169981 0
26.870000 0.203377 0
26.875000 0.236405 0
26.880000 0.268259 0
26.885000 0.298089 0
26.890000 0.325044 0
26.895000 0.348306 0
26.900000 0.367138 0
26.905000 0.380917 0
26.910000 0.389168 0
26.915000 0.391594 5
26.920000 0.388090 0
26.925000 0.378750 0
26.930000 0.363862 0
26.935000 0.343894 0
26.940000 0.319468 0
26.945000 0.291329 0
26.950000 0.260302 0
26.955000 0.227260 0
26.960000 0.193075 0
26.965000 0.158586 0
26.970000 0.124562 0
26.975000 0.091681 0
26.980000 0.060508 0
26.985000 0.031486 0
26.990000 0.004932 0
26.995000 -0.018957 0
27.000000 -0.040096 0
27.005000 -0.058498 0
27.010000 -0.074256 0
27.015000 -0.087525 0
27.020000 -0.098506 0
27.025000 -0.107429 0
27.030000 -0.114536 0
27.035000 -0.120070 0
27.040000 -0.124267 0
27.045000 -0.127345 0
27.050000 -0.129503 0
27.055000 -0.128952 0
27.060000 -0.127944 0
27.065000 -0.126941 0
27.070000 -0.125943 0
27.075000 -0.124949 0
27.080000 -0.123957 0
27.085000 -0.122966 0
27.090000 -0.121972 0
27.095000 -0.120966 0
27.100000 -0.119933 0
27.105000 -0.118849 0
27.110000 -0.117672 0
27.115000 -0.116332 0
27.120000 -0.114724 0
27.125000 -0.112690 0
27.130000 -0.110003 0
27.135000 -0.106356 0
27.140000 -0.101351 0
27.145000 -0.094500 0
27.150000 -0.085245 0
27.155000 -0.073004 0
27.160000 -0.057231 0
27.165000 -0.037517 0
27.170000 -0.013693 0
27.175000 0.014056 0
27.180000 0.045102 0
27.185000 0.078326 0
27.190000 0.112138 0
27.195000 0.144571 0
27.200000 0.173459 0
27.205000 0.196668 0
27.210000 0.212354 0
27.215000 0.219206 1
27.220000 0.216630 0
27.225000 0.204830 0
27.230000 0.184784 0
27.235000 0.158112 0
27.240000 0.126848 0
27.245000 0.093153 0
27.250000 0.058922 0
27.255000 0.025207 0
27.260000 -0.008662 0
27.265000 -0.045913 0
27.270000 -0.091790 0
27.275000 -0.149779 0
27.280000 -0.214754 0
27.285000 -0.267597 0
27.290000 -0.276934 2
27.295000 -0.207793 0
27.300000 -0.032294 0
27.305000 0.256543 0
27.310000 0.622971 0
27.315000 0.972705 0
27.320000 1.177375 3
27.325000 1.144553 0
27.330000 0.882435 0
27.335000 0.497690 0
27.340000 0.120170 0
27.345000 -0.161812 0
27.350000 -0.315615 0
27.355000 -0.349117 4
27.360000 -0.295863 0
27.365000 -0.201613 0
27.370000 -0.106608 0
27.375000 -0.031871 0
27.380000 0.020890 0
27.385000 0.059517 0
27.390000 0.092161 0
27.395000 0.123621 0
27.400000 0.155711 0
27.405000 0.188636 0
27.410000 0.221931 0
27.415000 0.254878 0
27.420000 0.286648 0
27.425000 0.316366 0
27.430000 0.343153 0
27.435000 0.366168 0
27.440000 0.384656 0
27.445000 0.397980 0
27.450000 0.405664 0
27.455000 0.407417 5
27.460000 0.403151 0
27.465000 0.392985 0
27.470000 0.377242 0
27.475000 0.356429 0
27.480000 0.331208 0
27.485000 0.302366 0
27.490000 0.270765 0
27.495000 0.237307 0
27.500000 0.202886 0
27.505000 0.168353 0
27.510000 0.134480 0
27.515000 0.101935 0
27.520000 0.071266 0
27.525000 0.042891 0
27.530000 0.017097 0
27.535000 -0.005952 0
27.540000 -0.026205 0
27.545000 -0.043705 0
27.550000 -0.058576 0
27.555000 -0.070998 0
27.560000 -0.081191 0
27.565000 -0.089399 0
27.570000 -0.095873 0
27.575000 -0.100862 0
27.580000 -0.104600 0
27.585000 -0.107304 0
27.590000 -0.108764 0
27.595000 -0.107857 0
27.600000 -0.106955 0
27.605000 -0.106056 0
27.610000 -0.105162 0
27.615000 -0.104270 0
27.620000 -0.103379 0
27.625000 -0.102486 0
27.630000 -0.101585 0
27.635000 -0.100662 0
27.640000 -0.099697 0
27.645000 -0.098652 0
27.650000 -0.097468 0
27.655000 -0.096047 0
27.660000 -0.094244 0
27.665000 -0.091846 0
27.670000 -0.088560 0
27.675000 -0.083997 0
27.680000 -0.077675 0
27.685000 -0.069032 0
27.690000 -0.057466 0
27.695000 -0.042405 0
27.700000 -0.023393 0
27.705000 -0.000212 0
27.710000 0.027002 0
27.715000 0.057663 0
27.720000 0.090669 0
27.725000 0.124424 0
27.730000 0.156926 0
27.735000 0.185948 0
27.740000 0.209284 0
27.745000 0.225021 0
27.750000 0.231799 1
27.755000 0.229006 0
27.760000 0.216864 0
27.765000 0.196405 0
27.770000 0.169323 0
27.775000 0.137730 0
27.780000 0.103845 0
27.785000 0.069571 0
27.790000 0.035844 0
27.795000 0.001680 0
27.800000 -0.036622 0
27.805000 -0.084529 0
27.810000 -0.144639 0
27.815000 -0.209253 0
27.820000 -0.255728 2
27.825000 -0.250069 0
27.830000 -0.156952 0
27.835000 0.048629 0
27.840000 0.364722 0
27.845000 0.738317 0
27.850000 1.056989 0
27.855000 1.191480 3
27.860000 1.076868 0
27.865000 0.760089 0
27.870000 0.364597 0
27.875000 0.011452 0
27.880000 -0.229912 0
27.885000 -0.342079 0
27.890000 -0.342663 4
27.895000 -0.270878 0
27.900000 -0.172709 0
27.905000 -0.083055 0
27.910000 -0.015971 0
27.915000 0.031187 0
27.920000 0.067129 0
27.925000 0.099050 0
27.930000 0.130637 0
27.935000 0.163038 0
27.940000 0.196168 0
27.945000 0.229452 0
27.950000 0.262127 0
27.955000 0.293344 0
27.960000 0.322221 0
27.965000 0.347888 0
27.970000 0.369528 0
27.975000 0.386419 0
27.980000 0.397973 0
27.985000 0.403772 5
27.990000 0.403590 0
27.995000 0.397404 0
28.000000 0.385403 0
28.005000 0.367970 0
28.010000 0.345666 0
28.015000 0.319198 0
28.020000 0.289381 0
28.025000 0.257096 0
28.030000 0.223245 0
28.035000 0.188713 0
28.040000 0.154329 0
28.045000 0.120832 0
28.050000 0.088854 0
28.055000 0.058901 0
28.060000 0.031347 0
28.065000 0.006441 0
28.070000 -0.015693 0
28.075000 -0.035035 0
28.080000 -0.051657 0
28.085000 -0.065703 0
28.090000 -0.077367 0
28.095000 -0.086880 0
28.100000 -0.094488 0
28.105000 -0.100444 0
28.110000 -0.104992 0
28.115000 -0.108361 0
28.120000 -0.110761 0
28.125000 -0.110324 0
28.130000 -0.109410 0
28.135000 -0.108499 0
28.140000 -0.107593 0
28.145000 -0.106690 0
28.150000 -0.105790 0
28.155000 -0.104890 0
28.160000 -0.103987 0
28.165000 -0.103071 0
28.170000 -0.102129 0
28.175000 -0.101134 0
28.180000 -0.100044 0
28.185000 -0.098788 0
28.190000 -0.097255 0
28.195000 -0.095280 0
28.200000 -0.092626 0
28.205000 -0.088970 0
28.210000 -0.083893 0
28.215000 -0.076885 0
28.220000 -0.067367 0
28.225000 -0.054736 0
28.230000 -0.038447 0
28.235000 -0.018106 0
28.240000 0.006403 0
28.245000 0.034811 0
28.250000 0.066371 0
28.255000 0.099820 0
28.260000 0.133416 0
28.265000 0.165064 0
28.270000 0.192516 0
28.275000 0.213629 0
28.280000 0.226641 0
28.285000 0.230412 1
28.290000 0.224592 0
28.295000 0.209669 0
28.300000 0.186907 0
28.305000 0.158159 0
28.310000 0.125612 0
28.315000 0.091435 0
28.320000 0.057311 0
28.325000 0.023680 0
28.330000 -0.011257 0
28.335000 -0.052006 0
28.340000 -0.103824 0
28.345000 -0.166865 0
28.350000 -0.228876 0
28.355000 -0.262819 2
28.360000 -0.233072 0
28.365000 -0.106247 0
28.370000 0.136395 0
28.375000 0.479396 0
28.380000 0.850010 0
28.385000 1.123130 0
28.390000 1.180958 3
28.395000 0.993221 0
28.400000 0.638364 0
28.405000 0.244438 0
