0.000000 1.160746 3
0.005000 1.034956 0
0.010000 0.721682 0
0.015000 0.335045 0
0.020000 -0.013803 0
0.025000 -0.259311 0
0.030000 -0.382732 0
0.035000 -0.397468 4
0.040000 -0.337346 0
0.045000 -0.244585 0
0.050000 -0.154332 0
0.055000 -0.084002 0
0.060000 -0.034287 0
0.065000 0.002175 0
0.070000 0.032936 0
0.075000 0.062587 0
0.080000 0.093009 0
0.085000 0.124561 0
0.090000 0.156937 0
0.095000 0.189564 0
0.100000 0.221741 0
0.105000 0.252702 0
0.110000 0.281643 0
0.115000 0.307766 0
0.120000 0.330305 0
0.125000 0.348572 0
0.130000 0.361984 0
0.135000 0.370099 0
0.140000 0.372635 5
0.145000 0.369490 0
0.150000 0.360745 0
0.155000 0.346661 0
0.160000 0.327666 0
0.165000 0.304334 0
0.170000 0.277352 0
0.175000 0.247492 0
0.180000 0.215568 0
0.185000 0.182404 0
0.190000 0.148798 0
0.195000 0.115490 0
0.200000 0.083138 0
0.205000 0.052299 0
0.210000 0.023422 0
0.215000 -0.003164 0
0.220000 -0.027241 0
0.225000 -0.048697 0
0.230000 -0.067516 0
0.235000 -0.083760 0
0.240000 -0.097556 0
0.245000 -0.109080 0
0.250000 -0.118537 0
0.255000 -0.126153 0
0.260000 -0.132158 0
0.265000 -0.136778 0
0.270000 -0.140226 0
0.275000 -0.142699 0
0.280000 -0.144373 0
0.285000 -0.143710 0
0.290000 -0.142653 0
0.295000 -0.141601 0
0.300000 -0.140554 0
0.305000 -0.139512 0
0.310000 -0.138475 0
0.315000 -0.137441 0
0.320000 -0.136409 0
0.325000 -0.135375 0
0.330000 -0.134334 0
0.335000 -0.133274 0
0.340000 -0.132176 0
0.345000 -0.131007 0
0.350000 -0.129714 0
0.355000 -0.128213 0
0.360000 -0.126380 0
0.365000 -0.124033 0
0.370000 -0.120921 0
0.375000 -0.116711 0
0.380000 -0.110987 0
0.385000 -0.103256 0
0.390000 -0.092977 0
0.395000 -0.079608 0
0.400000 -0.062677 0
0.405000 -0.041875 0
0.410000 -0.017158 0
0.415000 0.011158 0
0.420000 0.042327 0
0.425000 0.075147 0
0.430000 0.107999 0
0.435000 0.138962 0
0.440000 0.165981 0
0.445000 0.187093 0
0.450000 0.200663 0
0.455000 0.205590 1
0.460000 0.201460 0
0.465000 0.188601 0
0.470000 0.168043 0
0.475000 0.141379 0
0.480000 0.110562 0
0.485000 0.077635 0
0.490000 0.044408 0
0.495000 0.011977 0
0.500000 -0.020013 0
0.505000 -0.054178 0
0.510000 -0.095321 0
0.515000 -0.147766 0
0.520000 -0.209584 0
0.525000 -0.266734 0
0.530000 -0.292514 2
0.535000 -0.253998 0
0.540000 -0.121496 0
0.545000 0.120578 0
0.550000 0.456366 0
0.555000 0.818777 0
0.560000 1.093799 0
0.565000 1.170945 3
0.570000 1.013753 0
0.575000 0.683353 0
0.580000 0.295978 0
0.585000 -0.042927 0
0.590000 -0.274772 0
0.595000 -0.385440 0
0.600000 -0.390830 4
0.605000 -0.325806 0
0.610000 -0.232072 0
0.615000 -0.143070 0
0.620000 -0.074448 0
0.625000 -0.025945 0
0.630000 0.009935 0
0.635000 0.040512 0
0.640000 0.070143 0
0.645000 0.100581 0
0.650000 0.132138 0
0.655000 0.164498 0
0.660000 0.197089 0
0.665000 0.229218 0
0.670000 0.260127 0
0.675000 0.289023 0
0.680000 0.315117 0
0.685000 0.337655 0
0.690000 0.355956 0
0.695000 0.369443 0
0.700000 0.377675 0
0.705000 0.380372 5
0.710000 0.377424 0
0.715000 0.368905 0
0.720000 0.355065 0
0.725000 0.336318 0
0.730000 0.313221 0
0.735000 0.286448 0
0.740000 0.256755 0
0.745000 0.224945 0
0.750000 0.191830 0
0.755000 0.158204 0
0.760000 0.124801 0
0.765000 0.092283 0
0.770000 0.061211 0
0.775000 0.032040 0
0.780000 0.005112 0
0.785000 -0.019346 0
0.790000 -0.041208 0
0.795000 -0.060447 0
0.800000 -0.077112 0
0.805000 -0.091321 0
0.810000 -0.103240 0
0.815000 -0.113068 0
0.820000 -0.121025 0
0.825000 -0.127339 0
0.830000 -0.132232 0
0.835000 -0.135920 0
0.840000 -0.138601 0
0.845000 -0.140453 0
0.850000 -0.141309 0
0.855000 -0.140264 0
0.860000 -0.139224 0
0.865000 -0.138189 0
0.870000 -0.137159 0
0.875000 -0.136134 0
0.880000 -0.135112 0
0.885000 -0.134093 0
0.890000 -0.133073 0
0.895000 -0.132048 0
0.900000 -0.131008 0
0.905000 -0.129937 0
0.910000 -0.128806 0
0.915000 -0.127571 0
0.920000 -0.126160 0
0.925000 -0.124463 0
0.930000 -0.122321 0
0.935000 -0.119509 0
0.940000 -0.115727 0
0.945000 -0.110592 0
0.950000 -0.103643 0
0.955000 -0.094356 0
0.960000 -0.082191 0
0.965000 -0.066645 0
0.970000 -0.047345 0
0.975000 -0.024134 0
0.980000 0.002822 0
0.985000 0.032958 0
0.990000 0.065267 0
0.995000 0.098307 0
1.000000 0.130287 0
1.005000 0.159208 0
1.010000 0.183067 0
1.015000 0.200081 0
1.020000 0.208912 1
1.025000 0.208837 0
1.030000 0.199851 0
1.035000 0.182665 0
1.040000 0.158618 0
1.045000 0.129500 0
1.050000 0.097321 0
1.055000 0.064028 0
1.060000 0.031120 0
1.065000 -0.000936 0
1.070000 -0.033521 0
1.075000 -0.070411 0
1.080000 -0.116661 0
1.085000 -0.174429 0
1.090000 -0.236683 0
1.095000 -0.283342 0
1.100000 -0.284122 2
1.105000 -0.206775 0
1.110000 -0.026623 0
1.115000 0.260688 0
1.120000 0.619396 0
1.125000 0.960394 0
1.130000 1.164073 3
1.135000 1.143335 0
1.140000 0.901601 0
1.145000 0.532012 0
1.150000 0.155103 0
1.155000 -0.140958 0
1.160000 -0.318254 0
1.165000 -0.377740 4
1.170000 -0.345565 0
1.175000 -0.262129 0
1.180000 -0.167602 0
1.185000 -0.087792 0
1.190000 -0.029881 0
1.195000 0.011172 0
1.200000 0.043529 0
1.205000 0.073180 0
1.210000 0.103045 0
1.215000 0.134007 0
1.220000 0.165973 0
1.225000 0.198458 0
1.230000 0.230804 0
1.235000 0.262268 0
1.240000 0.292055 0
1.245000 0.319359 0
1.250000 0.343394 0
1.255000 0.363435 0
1.260000 0.378847 0
1.265000 0.389126 0
1.270000 0.393919 5
1.275000 0.393047 0
1.280000 0.386513 0
1.285000 0.374506 0
1.290000 0.357385 0
1.295000 0.335670 0
1.300000 0.310004 0
1.305000 0.281130 0
1.310000 0.249852 0
1.315000 0.216995 0
1.320000 0.183373 0
1.325000 0.149755 0
1.330000 0.116835 0
1.335000 0.085216 0
1.340000 0.055392 0
1.345000 0.027742 0
1.350000 0.002529 0
1.355000 -0.020093 0
1.360000 -0.040071 0
1.365000 -0.057438 0
1.370000 -0.072297 0
1.375000 -0.084806 0
1.380000 -0.095161 0
1.385000 -0.103581 0
1.390000 -0.110297 0
1.395000 -0.115536 0
1.400000 -0.119520 0
1.405000 -0.122452 0
1.410000 -0.124518 0
1.415000 -0.125541 0
1.420000 -0.124575 0
1.425000 -0.123613 0
1.430000 -0.122656 0
1.435000 -0.121704 0
1.440000 -0.120756 0
1.445000 -0.119811 0
1.450000 -0.118869 0
1.455000 -0.117926 0
1.460000 -0.116977 0
1.465000 -0.116015 0
1.470000 -0.115022 0
1.475000 -0.113973 0
1.480000 -0.112822 0
1.485000 -0.111499 0
1.490000 -0.109896 0
1.495000 -0.107854 0
1.500000 -0.105149 0
1.505000 -0.101480 0
1.510000 -0.096460 0
1.515000 -0.089624 0
1.520000 -0.080442 0
1.525000 -0.068363 0
1.530000 -0.052880 0
1.535000 -0.033611 0
1.540000 -0.010402 0
1.545000 0.016574 0
1.550000 0.046733 0
1.555000 0.079036 0
1.560000 0.112007 0
1.565000 0.143813 0
1.570000 0.172419 0
1.575000 0.195800 0
1.580000 0.212171 0
1.585000 0.220215 1
1.590000 0.219258 0
1.595000 0.209362 0
1.600000 0.191318 0
1.605000 0.166541 0
1.610000 0.136887 0
1.615000 0.104405 0
1.620000 0.071034 0
1.625000 0.038196 0
1.630000 0.006144 0
1.635000 -0.026877 0
1.640000 -0.065047 0
1.645000 -0.113386 0
1.650000 -0.172911 0
1.655000 -0.234204 0
1.660000 -0.274486 2
1.665000 -0.261898 0
1.670000 -0.164486 0
1.675000 0.039734 0
1.680000 0.348113 0
1.685000 0.712417 0
1.690000 1.031119 0
1.695000 1.184264 3
1.700000 1.103500 0
1.705000 0.818994 0
1.710000 0.436928 0
1.715000 0.073442 0
1.720000 -0.195891 0
1.725000 -0.344089 0
1.730000 -0.379069 4
1.735000 -0.331192 0
1.740000 -0.242008 0
1.745000 -0.149221 0
1.750000 -0.074233 0
1.755000 -0.020688 0
1.760000 0.017820 0
1.765000 0.049210 0
1.770000 0.078753 0
1.775000 0.108822 0
1.780000 0.140018 0
1.785000 0.172138 0
1.790000 0.204653 0
1.795000 0.236887 0
1.800000 0.268089 0
1.805000 0.297465 0
1.810000 0.324212 0
1.815000 0.347559 0
1.820000 0.366799 0
1.825000 0.381321 0
1.830000 0.390650 0
1.835000 0.394464 5
1.840000 0.392617 0
1.845000 0.385143 0
1.850000 0.372260 0
1.855000 0.354353 0
1.860000 0.331960 0
1.865000 0.305739 0
1.870000 0.276442 0
1.875000 0.244873 0
1.880000 0.211853 0
1.885000 0.178186 0
1.890000 0.144628 0
1.895000 0.111859 0
1.900000 0.080462 0
1.905000 0.050913 0
1.910000 0.023573 0
1.915000 -0.001310 0
1.920000 -0.023598 0
1.925000 -0.043248 0
1.930000 -0.060303 0
1.935000 -0.074873 0
1.940000 -0.087121 0
1.945000 -0.097245 0
1.950000 -0.105464 0
1.955000 -0.112008 0
1.960000 -0.117103 0
1.965000 -0.120967 0
1.970000 -0.123802 0
1.975000 -0.125789 0
1.980000 -0.126759 0
1.985000 -0.125786 0
1.990000 -0.124819 0
1.995000 -0.123856 0
2.000000 -0.122897 0
2.005000 -0.121943 0
2.010000 -0.120992 0
2.015000 -0.120044 0
2.020000 -0.119094 0
2.025000 -0.118139 0
2.030000 -0.117170 0
2.035000 -0.116168 0
2.040000 -0.115109 0
2.045000 -0.113945 0
2.050000 -0.112605 0
2.055000 -0.110978 0
2.060000 -0.108906 0
2.065000 -0.106161 0
2.070000 -0.102440 0
2.075000 -0.097357 0
2.080000 -0.090444 0
2.085000 -0.081175 0
2.090000 -0.069001 0
2.095000 -0.053421 0
2.100000 -0.034058 0
2.105000 -0.010767 0
2.110000 0.016273 0
2.115000 0.046474 0
2.120000 0.078797 0
2.125000 0.111769 0
2.130000 0.143566 0
2.135000 0.172163 0
2.140000 0.195546 0
2.145000 0.211942 0
2.150000 0.220038 1
2.155000 0.219162 0
2.160000 0.209366 0
2.165000 0.191431 0
2.170000 0.166757 0
2.175000 0.137183 0
2.180000 0.104744 0
2.185000 0.071378 0
2.190000 0.038516 0
2.195000 0.006458 0
2.200000 -0.026469 0
2.205000 -0.064346 0
2.210000 -0.112203 0
2.215000 -0.171344 0
2.220000 -0.232955 0
2.225000 -0.274957 2
2.230000 -0.265913 0
2.235000 -0.173817 0
2.240000 0.024041 0
2.245000 0.326984 0
2.250000 0.690294 0
2.255000 1.015840 0
2.260000 1.183521 3
2.265000 1.119336 0
2.270000 0.845886 0
2.275000 0.466440 0
2.280000 0.098919 0
2.285000 -0.177545 0
2.290000 -0.333151 0
2.295000 -0.374127 4
2.300000 -0.329908 0
2.305000 -0.241937 0
2.310000 -0.148663 0
2.315000 -0.072580 0
2.320000 -0.018115 0
2.325000 0.020889 0
2.330000 0.052439 0
2.335000 0.081974 0
2.340000 0.111978 0
2.345000 0.143109 0
2.350000 0.175181 0
2.355000 0.207672 0
2.360000 0.239907 0
2.365000 0.271134 0
2.370000 0.300555 0
2.375000 0.327367 0
2.380000 0.350792 0
2.385000 0.370118 0
2.390000 0.384731 0
2.395000 0.394150 0
2.400000 0.398048 5
2.405000 0.396274 0
2.410000 0.388862 0
2.415000 0.376025 0
2.420000 0.358150 0
2.425000 0.335774 0
2.430000 0.309559 0
2.435000 0.280256 0
2.440000 0.248673 0
2.445000 0.215635 0
2.450000 0.181949 0
2.455000 0.148373 0
2.460000 0.115590 0
2.465000 0.084185 0
2.470000 0.054634 0
2.475000 0.027299 0
2.480000 0.002428 0
2.485000 -0.019841 0
2.490000 -0.039468 0
2.495000 -0.056497 0
2.500000 -0.071039 0
2.505000 -0.083257 0
2.510000 -0.093353 0
2.515000 -0.101546 0
2.520000 -0.108066 0
2.525000 -0.113142 0
2.530000 -0.116991 0
2.535000 -0.119815 0
2.540000 -0.121795 0
2.545000 -0.122765 0
2.550000 -0.121813 0
2.555000 -0.120865 0
2.560000 -0.119922 0
2.565000 -0.118983 0
2.570000 -0.118048 0
2.575000 -0.117117 0
2.580000 -0.116187 0
2.585000 -0.115257 0
2.590000 -0.114320 0
2.595000 -0.113368 0
2.600000 -0.112383 0
2.605000 -0.111337 0
2.610000 -0.110183 0
2.615000 -0.108846 0
2.620000 -0.107214 0
2.625000 -0.105122 0
2.630000 -0.102337 0
2.635000 -0.098549 0
2.640000 -0.093365 0
2.645000 -0.086309 0
2.650000 -0.076850 0
2.655000 -0.064438 0
2.660000 -0.048576 0
2.665000 -0.028902 0
2.670000 -0.005293 0
2.675000 0.022038 0
2.680000 0.052463 0
2.685000 0.084897 0
2.690000 0.117825 0
2.695000 0.149390 0
2.700000 0.177551 0
2.705000 0.200300 0
2.710000 0.215891 0
2.715000 0.223067 1
2.720000 0.221225 0
2.725000 0.210495 0
2.730000 0.191735 0
2.735000 0.166408 0
2.740000 0.136394 0
2.745000 0.103742 0
2.750000 0.070361 0
2.755000 0.037595 0
2.760000 0.005553 0
2.765000 -0.027732 0
2.770000 -0.066610 0
2.775000 -0.115986 0
2.780000 -0.176224 0
2.785000 -0.236816 0
2.790000 -0.273998 2
2.795000 -0.255597 0
2.800000 -0.150133 0
2.805000 0.062997 0
2.810000 0.378294 0
2.815000 0.743277 0
2.820000 1.053243 0
2.825000 1.189781 3
2.830000 1.090201 0
2.835000 0.791448 0
2.840000 0.406340 0
2.845000 0.051215 0
2.850000 -0.202652 0
2.855000 -0.333204 0
2.860000 -0.352586 4
2.865000 -0.294631 0
2.870000 -0.202433 0
2.875000 -0.112240 0
2.880000 -0.042104 0
2.885000 0.007227 0
2.890000 0.043296 0
2.895000 0.073769 0
2.900000 0.103234 0
2.905000 0.133525 0
2.910000 0.164954 0
2.915000 0.197183 0
2.920000 0.229613 0
2.925000 0.261518 0
2.930000 0.292110 0
2.935000 0.320566 0
2.940000 0.346071 0
2.945000 0.367850 0
2.950000 0.385213 0
2.955000 0.397584 0
2.960000 0.404538 0
2.965000 0.405818 5
2.970000 0.401355 0
2.975000 0.391269 0
2.980000 0.375866 0
2.985000 0.355618 0
2.990000 0.331144 0
2.995000 0.303170 0
3.000000 0.272500 0
3.005000 0.239975 0
3.010000 0.206431 0
3.015000 0.172671 0
3.020000 0.139427 0
3.025000 0.107343 0
3.030000 0.076952 0
3.035000 0.048673 0
3.040000 0.022801 0
3.045000 -0.000480 0
3.050000 -0.021094 0
3.055000 -0.039057 0
3.060000 -0.054461 0
3.065000 -0.067459 0
3.070000 -0.078243 0
3.075000 -0.087035 0
3.080000 -0.094068 0
3.085000 -0.099578 0
3.090000 -0.103788 0
3.095000 -0.106912 0
3.100000 -0.109139 0
3.105000 -0.110293 0
3.110000 -0.109402 0
3.115000 -0.108516 0
3.120000 -0.107635 0
3.125000 -0.106757 0
3.130000 -0.105884 0
3.135000 -0.105013 0
3.140000 -0.104145 0
3.145000 -0.103275 0
3.150000 -0.102400 0
3.155000 -0.101510 0
3.160000 -0.100589 0
3.165000 -0.099610 0
3.170000 -0.098525 0
3.175000 -0.097263 0
3.180000 -0.095710 0
3.185000 -0.093700 0
3.190000 -0.091001 0
3.195000 -0.087298 0
3.200000 -0.082188 0
3.205000 -0.075189 0
3.210000 -0.065755 0
3.215000 -0.053326 0
3.220000 -0.037394 0
3.225000 -0.017596 0
3.230000 0.006180 0
3.235000 0.033695 0
3.240000 0.064275 0
3.245000 0.096776 0
3.250000 0.129611 0
3.255000 0.160853 0
3.260000 0.188409 0
3.265000 0.210243 0
3.270000 0.224629 0
3.275000 0.230367 1
3.280000 0.226955 0
3.285000 0.214659 0
3.290000 0.194474 0
3.295000 0.167998 0
3.300000 0.137208 0
3.305000 0.104199 0
3.310000 0.070834 0
3.315000 0.038260 0
3.320000 0.006139 0
3.325000 -0.028202 0
3.330000 -0.069678 0
3.335000 -0.122633 0
3.340000 -0.184761 0
3.345000 -0.241105 0
3.350000 -0.263804 2
3.355000 -0.219123 0
3.360000 -0.077389 0
3.365000 0.175296 0
3.370000 0.518218 0
3.375000 0.876448 0
3.380000 1.130309 0
3.385000 1.173187 3
3.390000 0.981649 0
3.395000 0.631987 0
3.400000 0.247151 0
3.405000 -0.071804 0
3.410000 -0.275180 0
3.415000 -0.356869 4
3.420000 -0.339293 0
3.425000 -0.261939 0
3.430000 -0.167064 0
3.435000 -0.084130 0
3.440000 -0.023239 0
3.445000 0.019534 0
3.450000 0.052515 0
3.455000 0.082215 0
3.460000 0.111935 0
3.465000 0.142734 0
3.470000 0.174579 0
3.475000 0.206994 0
3.480000 0.239315 0
3.485000 0.270786 0
3.490000 0.300598 0
3.495000 0.327926 0
3.500000 0.351967 0
3.505000 0.371976 0
3.510000 0.387307 0
3.515000 0.397443 0
3.520000 0.402027 5
3.525000 0.400882 0
3.530000 0.394019 0
3.535000 0.381639 0
3.540000 0.364120 0
3.545000 0.342002 0
3.550000 0.315954 0
3.555000 0.286742 0
3.560000 0.255190 0
3.565000 0.222144 0
3.570000 0.188429 0
3.575000 0.154824 0
3.580000 0.122024 0
3.585000 0.090629 0
3.590000 0.061124 0
3.595000 0.033873 0
3.600000 0.009125 0
3.605000 -0.012986 0
3.610000 -0.032426 0
3.615000 -0.049245 0
3.620000 -0.063563 0
3.625000 -0.075554 0
3.630000 -0.085425 0
3.635000 -0.093403 0
3.640000 -0.099725 0
3.645000 -0.104623 0
3.650000 -0.108317 0
3.655000 -0.111009 0
3.660000 -0.112882 0
3.665000 -0.112381 0
3.670000 -0.111480 0
3.675000 -0.110584 0
3.680000 -0.109692 0
3.685000 -0.108804 0
3.690000 -0.107919 0
3.695000 -0.107038 0
3.700000 -0.106157 0
3.705000 -0.105274 0
3.710000 -0.104382 0
3.715000 -0.103469 0
3.720000 -0.102514 0
3.725000 -0.101483 0
3.730000 -0.100318 0
3.735000 -0.098931 0
3.740000 -0.097186 0
3.745000 -0.094888 0
3.750000 -0.091770 0
3.755000 -0.087476 0
3.760000 -0.081567 0
3.765000 -0.073527 0
3.770000 -0.062796 0
3.775000 -0.048826 0
3.780000 -0.031163 0
3.785000 -0.009543 0
3.790000 0.015997 0
3.795000 0.045030 0
3.800000 0.076666 0
3.805000 0.109551 0
3.810000 0.141924 0
3.815000 0.171754 0
3.820000 0.196942 0
3.825000 0.215562 0
3.830000 0.226101 0
3.835000 0.227664 1
3.840000 0.220098 0
3.845000 0.204016 0
3.850000 0.180715 0
3.855000 0.151999 0
3.860000 0.119939 0
3.865000 0.086574 0
3.870000 0.053513 0
3.875000 0.021326 0
3.880000 -0.011323 0
3.885000 -0.048287 0
3.890000 -0.094791 0
3.895000 -0.152968 0
3.900000 -0.215123 0
3.905000 -0.259788 2
3.910000 -0.255152 0
3.915000 -0.168080 0
3.920000 0.025512 0
3.925000 0.326137 0
3.930000 0.689113 0
3.935000 1.014178 0
3.940000 1.178178 3
3.945000 1.106480 0
3.950000 0.825303 0
3.955000 0.443445 0
3.960000 0.081117 0
3.965000 -0.184223 0
3.970000 -0.326053 0
3.975000 -0.354037 4
3.980000 -0.300860 0
3.985000 -0.209847 0
3.990000 -0.118666 0
3.995000 -0.047001 0
4.000000 0.003450 0
4.005000 0.040059 0
4.010000 0.070692 0
4.015000 0.100156 0
4.020000 0.130407 0
4.025000 0.161807 0
4.030000 0.194030 0
4.035000 0.226474 0
4.040000 0.258412 0
4.045000 0.289046 0
4.050000 0.317547 0
4.055000 0.343090 0
4.060000 0.364894 0
4.065000 0.382260 0
4.070000 0.394608 0
4.075000 0.401508 0
4.080000 0.402703 5
4.085000 0.398128 0
4.090000 0.387908 0
4.095000 0.372355 0
4.100000 0.351952 0
4.105000 0.327328 0
4.110000 0.299222 0
4.115000 0.268447 0
4.120000 0.235852 0
4.125000 0.202283 0
4.130000 0.168544 0
4.135000 0.135373 0
4.140000 0.103410 0
4.145000 0.073185 0
4.150000 0.045111 0
4.155000 0.019478 0
4.160000 -0.003541 0
4.165000 -0.023879 0
4.170000 -0.041559 0
4.175000 -0.056682 0
4.180000 -0.069407 0
4.185000 -0.079934 0
4.190000 -0.088488 0
4.195000 -0.095305 0
4.200000 -0.100621 0
4.205000 -0.104664 0
4.210000 -0.107642 0
4.215000 -0.109748 0
4.220000 -0.110814 0
4.225000 -0.109921 0
4.230000 -0.109033 0
4.235000 -0.108149 0
4.240000 -0.107268 0
4.245000 -0.106392 0
4.250000 -0.105519 0
4.255000 -0.104647 0
4.260000 -0.103773 0
4.265000 -0.102893 0
4.270000 -0.101995 0
4.275000 -0.101061 0
4.280000 -0.100060 0
4.285000 -0.098940 0
4.290000 -0.097620 0
4.295000 -0.095975 0
4.300000 -0.093823 0
4.305000 -0.090909 0
4.310000 -0.086896 0
4.315000 -0.081357 0
4.320000 -0.073783 0
4.325000 -0.063616 0
4.330000 -0.050295 0
4.335000 -0.033337 0
4.340000 -0.012433 0
4.345000 0.012442 0
4.350000 0.040929 0
4.355000 0.072214 0
4.360000 0.105004 0
4.365000 0.137582 0
4.370000 0.167928 0
4.375000 0.193921 0
4.380000 0.213577 0
4.385000 0.225297 0
4.390000 0.228081 1
4.395000 0.221673 0
4.400000 0.206592 0
4.405000 0.184070 0
4.410000 0.155875 0
4.415000 0.124081 0
4.420000 0.090764 0
4.425000 0.057619 0
4.430000 0.025362 0
4.435000 -0.007126 0
4.440000 -0.043501 0
4.445000 -0.089036 0
4.450000 -0.146395 0
4.455000 -0.208829 0
4.460000 -0.255718 2
4.465000 -0.255454 0
4.470000 -0.174393 0
4.475000 0.012671 0
4.480000 0.308172 0
4.485000 0.669978 0
4.490000 0.999408 0
4.495000 1.171921 3
4.500000 1.108744 0
4.505000 0.832388 0
4.510000 0.451446 0
4.515000 0.088087 0
4.520000 -0.178378 0
4.525000 -0.320623 0
4.530000 -0.348323 4
4.535000 -0.294617 0
4.540000 -0.203385 0
4.545000 -0.112536 0
4.550000 -0.041549 0
4.555000 0.008253 0
4.560000 0.044460 0
4.565000 0.074942 0
4.570000 0.104407 0
4.575000 0.134716 0
4.580000 0.166175 0
4.585000 0.198426 0
4.590000 0.230848 0
4.595000 0.262697 0
4.600000 0.293160 0
4.605000 0.321398 0
4.610000 0.346576 0
4.615000 0.367910 0
4.620000 0.384704 0
4.625000 0.396388 0
4.630000 0.402545 0
4.635000 0.402942 5
4.640000 0.397537 0
4.645000 0.386486 0
4.650000 0.370132 0
4.655000 0.348990 0
4.660000 0.323715 0
4.665000 0.295072 0
4.670000 0.263895 0
4.675000 0.231044 0
4.680000 0.197372 0
4.685000 0.163683 0
4.690000 0.130704 0
4.695000 0.099062 0
4.700000 0.069270 0
4.705000 0.041717 0
4.710000 0.016670 0
4.715000 -0.005722 0
4.720000 -0.025414 0
4.725000 -0.042450 0
4.730000 -0.056950 0
4.735000 -0.069086 0
4.740000 -0.079069 0
4.745000 -0.087132 0
4.750000 -0.093515 0
4.755000 -0.098454 0
4.760000 -0.102176 0
4.765000 -0.104887 0
4.770000 -0.106773 0
4.775000 -0.106299 0
4.780000 -0.105429 0
4.785000 -0.104563 0
4.790000 -0.103701 0
4.795000 -0.102843 0
4.800000 -0.101988 0
4.805000 -0.101136 0
4.810000 -0.100284 0
4.815000 -0.099429 0
4.820000 -0.098564 0
4.825000 -0.097674 0
4.830000 -0.096739 0
4.835000 -0.095718 0
4.840000 -0.094550 0
4.845000 -0.093134 0
4.850000 -0.091325 0
4.855000 -0.088907 0
4.860000 -0.085591 0
4.865000 -0.080993 0
4.870000 -0.074645 0
4.875000 -0.066004 0
4.880000 -0.054496 0
4.885000 -0.039577 0
4.890000 -0.020825 0
4.895000 0.001952 0
4.900000 0.028608 0
4.905000 0.058566 0
4.910000 0.090765 0
4.915000 0.123674 0
4.920000 0.155381 0
4.925000 0.183762 0
4.930000 0.206704 0
4.935000 0.222371 0
4.940000 0.229437 1
4.945000 0.227276 0
4.950000 0.216051 0
4.955000 0.196693 0
4.960000 0.170774 0
4.965000 0.140289 0
4.970000 0.107381 0
4.975000 0.073990 0
4.980000 0.041356 0
4.985000 0.009240 0
4.990000 -0.024971 0
4.995000 -0.066249 0
5.000000 -0.119091 0
5.005000 -0.181227 0
5.010000 -0.237341 0
5.015000 -0.258825 2
5.020000 -0.211176 0
5.025000 -0.064403 0
5.030000 0.194508 0
5.035000 0.541525 0
5.040000 0.895988 0
5.045000 1.133963 0
5.050000 1.151828 3
5.055000 0.937166 0
5.060000 0.576930 0
5.065000 0.195800 0
5.070000 -0.109945 0
5.075000 -0.296607 0
5.080000 -0.362635 4
5.085000 -0.333750 0
5.090000 -0.251247 0
5.095000 -0.156765 0
5.100000 -0.077136 0
5.105000 -0.019715 0
5.110000 0.020831 0
5.115000 0.052886 0
5.120000 0.082454 0
5.125000 0.112367 0
5.130000 0.143415 0
5.135000 0.175445 0
5.140000 0.207925 0
5.145000 0.240164 0
5.150000 0.271381 0
5.155000 0.300752 0
5.160000 0.327447 0
5.165000 0.350662 0
5.170000 0.369665 0
5.175000 0.383831 0
5.180000 0.392673 0
5.185000 0.395873 5
5.190000 0.393299 0
5.195000 0.385010 0
5.200000 0.371257 0
5.205000 0.352470 0
5.210000 0.329230 0
5.215000 0.302245 0
5.220000 0.272308 0
5.225000 0.240262 0
5.230000 0.206960 0
5.235000 0.173226 0
5.240000 0.139822 0
5.245000 0.107424 0
5.250000 0.076603 0
5.255000 0.047812 0
5.260000 0.021379 0
5.265000 -0.002483 0
5.270000 -0.023672 0
5.275000 -0.042185 0
5.280000 -0.058098 0
5.285000 -0.071555 0
5.290000 -0.082743 0
5.295000 -0.091882 0
5.300000 -0.099205 0
5.305000 -0.104952 0
5.310000 -0.109351 0
5.315000 -0.112621 0
5.320000 -0.114958 0
5.325000 -0.116537 0
5.330000 -0.115976 0
5.335000 -0.115057 0
5.340000 -0.114143 0
5.345000 -0.113233 0
5.350000 -0.112327 0
5.355000 -0.111425 0
5.360000 -0.110525 0
5.365000 -0.109624 0
5.370000 -0.108719 0
5.375000 -0.107800 0
5.380000 -0.106853 0
5.385000 -0.105849 0
5.390000 -0.104746 0
5.395000 -0.103472 0
5.400000 -0.101916 0
5.405000 -0.099916 0
5.410000 -0.097241 0
5.415000 -0.093578 0
5.420000 -0.088528 0
5.425000 -0.081603 0
5.430000 -0.072255 0
5.435000 -0.059917 0
5.440000 -0.044072 0
5.445000 -0.024346 0
5.450000 -0.000617 0
5.455000 0.026880 0
5.460000 0.057470 0
5.465000 0.090001 0
5.470000 0.122867 0
5.475000 0.154120 0
5.480000 0.181641 0
5.485000 0.203375 0
5.490000 0.217583 0
5.495000 0.223069 1
5.500000 0.219349 0
5.505000 0.206720 0
5.510000 0.186220 0
5.515000 0.159487 0
5.520000 0.128538 0
5.525000 0.095485 0
5.530000 0.062184 0
5.535000 0.029713 0
5.540000 -0.002427 0
5.545000 -0.037160 0
5.550000 -0.079572 0
5.555000 -0.133709 0
5.560000 -0.196156 0
5.565000 -0.250252 0
5.570000 -0.266694 2
5.575000 -0.211323 0
5.580000 -0.055383 0
5.585000 0.211865 0
5.590000 0.562874 0
5.595000 0.913752 0
5.600000 1.140789 0
5.605000 1.145190 3
5.610000 0.920427 0
5.615000 0.556308 0
5.620000 0.176920 0
5.625000 -0.124150 0
5.630000 -0.305591 0
5.635000 -0.367251 4
5.640000 -0.335573 0
5.645000 -0.251982 0
5.650000 -0.157643 0
5.655000 -0.078642 0
5.660000 -0.021778 0
5.665000 0.018467 0
5.670000 0.050424 0
5.675000 0.079996 0
5.680000 0.109941 0
5.685000 0.141022 0
5.690000 0.173077 0
5.695000 0.205573 0
5.700000 0.237818 0
5.705000 0.269038 0
5.710000 0.298412 0
5.715000 0.325111 0
5.720000 0.348338 0
5.725000 0.367363 0
5.730000 0.381562 0
5.735000 0.390453 0
5.740000 0.393716 5
5.745000 0.391218 0
5.750000 0.383017 0
5.755000 0.369360 0
5.760000 0.350671 0
5.765000 0.327527 0
5.770000 0.300630 0
5.775000 0.270769 0
5.780000 0.238782 0
5.785000 0.205517 0
5.790000 0.171796 0
5.795000 0.138382 0
5.800000 0.105950 0
5.805000 0.075072 0
5.810000 0.046203 0
5.815000 0.019676 0
5.820000 -0.004292 0
5.825000 -0.025597 0
5.830000 -0.044229 0
5.835000 -0.060262 0
5.840000 -0.073834 0
5.845000 -0.085132 0
5.850000 -0.094371 0
5.855000 -0.101786 0
5.860000 -0.107611 0
5.865000 -0.112079 0
5.870000 -0.115405 0
5.875000 -0.117787 0
5.880000 -0.119401 0
5.885000 -0.118834 0
5.890000 -0.117901 0
5.895000 -0.116972 0
5.900000 -0.116048 0
5.905000 -0.115129 0
5.910000 -0.114212 0
5.915000 -0.113298 0
5.920000 -0.112385 0
5.925000 -0.111467 0
5.930000 -0.110537 0
5.935000 -0.109580 0
5.940000 -0.108571 0
5.945000 -0.107467 0
5.950000 -0.106203 0
5.955000 -0.104671 0
5.960000 -0.102717 0
5.965000 -0.100119 0
5.970000 -0.096577 0
5.975000 -0.091700 0
5.980000 -0.085014 0
5.985000 -0.075980 0
5.990000 -0.064031 0
5.995000 -0.048642 0
6.000000 -0.029416 0
6.005000 -0.006196 0
6.010000 0.020839 0
6.015000 0.051078 0
6.020000 0.083437 0
6.025000 0.116378 0
6.030000 0.147998 0
6.035000 0.176200 0
6.040000 0.198913 0
6.045000 0.214344 0
6.050000 0.221211 1
6.055000 0.218916 0
6.060000 0.207636 0
6.065000 0.188296 0
6.070000 0.162444 0
6.075000 0.132046 0
6.080000 0.099209 0
6.085000 0.065855 0
6.090000 0.033232 0
6.095000 0.001178 0
6.100000 -0.032765 0
6.105000 -0.073412 0
6.110000 -0.125376 0
6.115000 -0.187114 0
6.120000 -0.244634 0
6.125000 -0.270658 2
6.130000 -0.231315 0
6.135000 -0.096152 0
6.140000 0.150244 0
6.145000 0.489658 0
6.150000 0.849805 0
6.155000 1.111492 0
6.160000 1.165028 3
6.165000 0.982455 0
6.170000 0.637134 0
6.175000 0.251449 0
6.180000 -0.071745 0
6.185000 -0.280566 0
6.190000 -0.367337 4
6.195000 -0.353432 0
6.200000 -0.277794 0
6.205000 -0.182877 0
6.210000 -0.098952 0
6.215000 -0.036973 0
6.220000 0.006540 0
6.225000 0.039876 0
6.230000 0.069691 0
6.235000 0.099427 0
6.240000 0.130222 0
6.245000 0.162077 0
6.250000 0.194532 0
6.255000 0.226930 0
6.260000 0.258519 0
6.265000 0.288493 0
6.270000 0.316027 0
6.275000 0.340318 0
6.280000 0.360618 0
6.285000 0.376274 0
6.290000 0.386762 0
6.295000 0.391717 5
6.300000 0.390951 0
6.305000 0.384463 0
6.310000 0.372444 0
6.315000 0.355263 0
6.320000 0.333449 0
6.325000 0.307665 0
6.330000 0.278670 0
6.335000 0.247286 0
6.340000 0.214356 0
6.345000 0.180709 0
6.350000 0.147124 0
6.355000 0.114304 0
6.360000 0.082853 0
6.365000 0.053263 0
6.370000 0.025906 0
6.375000 0.001038 0
6.380000 -0.021201 0
6.385000 -0.040769 0
6.390000 -0.057712 0
6.395000 -0.072147 0
6.400000 -0.084242 0
6.405000 -0.094203 0
6.410000 -0.102258 0
6.415000 -0.108641 0
6.420000 -0.113585 0
6.425000 -0.117311 0
6.430000 -0.120022 0
6.435000 -0.121902 0
6.440000 -0.122799 0
6.445000 -0.121847 0
6.450000 -0.120899 0
6.455000 -0.119955 0
6.460000 -0.119016 0
6.465000 -0.118081 0
6.470000 -0.117149 0
6.475000 -0.116218 0
6.480000 -0.115286 0
6.485000 -0.114345 0
6.490000 -0.113385 0
6.495000 -0.112385 0
6.500000 -0.111313 0
6.505000 -0.110113 0
6.510000 -0.108699 0
6.515000 -0.106941 0
6.520000 -0.104650 0
6.525000 -0.101563 0
6.530000 -0.097334 0
6.535000 -0.091531 0
6.540000 -0.083642 0
6.545000 -0.073111 0
6.550000 -0.059388 0
6.555000 -0.042007 0
6.560000 -0.020683 0
6.565000 0.004576 0
6.570000 0.033380 0
6.575000 0.064881 0
6.580000 0.097767 0
6.585000 0.130308 0
6.590000 0.160494 0
6.595000 0.186223 0
6.600000 0.205547 0
6.605000 0.216907 0
6.610000 0.219348 1
6.615000 0.212647 0
6.620000 0.197347 0
6.625000 0.174688 0
6.630000 0.146433 0
6.635000 0.114639 0
6.640000 0.081360 0
6.645000 0.048265 0
6.650000 0.016057 0
6.655000 -0.016378 0
6.660000 -0.052656 0
6.665000 -0.098000 0
6.670000 -0.155127 0
6.675000 -0.217578 0
6.680000 -0.265238 0
6.685000 -0.266996 2
6.690000 -0.189434 0
6.695000 -0.007064 0
6.700000 0.283899 0
6.705000 0.644308 0
6.710000 0.979049 0
6.715000 1.164466 3
6.720000 1.118949 0
6.725000 0.858952 0
6.730000 0.483415 0
6.735000 0.111414 0
6.740000 -0.174003 0
6.745000 -0.339495 0
6.750000 -0.388914 4
6.755000 -0.350150 0
6.760000 -0.264128 0
6.765000 -0.170092 0
6.770000 -0.092100 0
6.775000 -0.035886 0
6.780000 0.004178 0
6.785000 0.036177 0
6.790000 0.065821 0
6.795000 0.095808 0
6.800000 0.126906 0
6.805000 0.158980 0
6.810000 0.191526 0
6.815000 0.223880 0
6.820000 0.255296 0
6.825000 0.284981 0
6.830000 0.312130 0
6.835000 0.335965 0
6.840000 0.355765 0
6.845000 0.370908 0
6.850000 0.380897 0
6.855000 0.385393 5
6.860000 0.384228 0
6.865000 0.377415 0
6.870000 0.365153 0
6.875000 0.347811 0
6.880000 0.325912 0
6.885000 0.300106 0
6.890000 0.271136 0
6.895000 0.239806 0
6.900000 0.206938 0
6.905000 0.173343 0
6.910000 0.139783 0
6.915000 0.106949 0
6.920000 0.075437 0
6.925000 0.045733 0
6.930000 0.018212 0
6.935000 -0.006868 0
6.940000 -0.029358 0
6.945000 -0.049208 0
6.950000 -0.066453 0
6.955000 -0.081199 0
6.960000 -0.093603 0
6.965000 -0.103862 0
6.970000 -0.112196 0
6.975000 -0.118833 0
6.980000 -0.124002 0
6.985000 -0.127921 0
6.990000 -0.130794 0
6.995000 -0.132805 0
7.000000 -0.133780 0
7.005000 -0.132772 0
7.010000 -0.131770 0
7.015000 -0.130772 0
7.020000 -0.129779 0
7.025000 -0.128791 0
7.030000 -0.127806 0
7.035000 -0.126823 0
7.040000 -0.125841 0
7.045000 -0.124853 0
7.050000 -0.123851 0
7.055000 -0.122820 0
7.060000 -0.121732 0
7.065000 -0.120543 0
7.070000 -0.119183 0
7.075000 -0.117545 0
7.080000 -0.115470 0
7.085000 -0.112737 0
7.090000 -0.109045 0
7.095000 -0.104012 0
7.100000 -0.097173 0
7.105000 -0.088001 0
7.110000 -0.075948 0
7.115000 -0.060505 0
7.120000 -0.041289 0
7.125000 -0.018139 0
7.130000 0.008780 0
7.135000 0.038898 0
7.140000 0.071192 0
7.145000 0.104203 0
7.150000 0.136111 0
7.155000 0.164893 0
7.160000 0.188524 0
7.165000 0.205214 0
7.170000 0.213628 1
7.175000 0.213069 0
7.180000 0.203566 0
7.185000 0.185881 0
7.190000 0.161401 0
7.195000 0.131960 0
7.200000 0.099599 0
7.205000 0.066264 0
7.210000 0.033411 0
7.215000 0.001374 0
7.220000 -0.031475 0
7.225000 -0.069184 0
7.230000 -0.116809 0
7.235000 -0.175775 0
7.240000 -0.237450 0
7.245000 -0.279885 2
7.250000 -0.271640 0
7.255000 -0.180577 0
7.260000 0.016233 0
7.265000 0.318426 0
7.270000 0.681615 0
7.275000 1.007759 0
7.280000 1.176416 3
7.285000 1.113475 0
7.290000 0.841589 0
7.295000 0.462753 0
7.300000 0.094191 0
7.305000 -0.184729 0
7.310000 -0.343510 0
7.315000 -0.387584 4
7.320000 -0.345595 0
7.325000 -0.258467 0
7.330000 -0.164743 0
7.335000 -0.087555 0
7.340000 -0.032012 0
7.345000 0.007691 0
7.350000 0.039558 0
7.355000 0.069175 0
7.360000 0.099165 0
7.365000 0.130266 0
7.370000 0.162333 0
7.375000 0.194865 0
7.380000 0.227201 0
7.385000 0.258600 0
7.390000 0.288275 0
7.395000 0.315428 0
7.400000 0.339283 0
7.405000 0.359127 0
7.410000 0.374339 0
7.415000 0.384425 0
7.420000 0.389042 5
7.425000 0.388021 0
7.430000 0.381370 0
7.435000 0.369280 0
7.440000 0.352112 0
7.445000 0.330379 0
7.450000 0.304722 0
7.455000 0.275877 0
7.460000 0.244637 0
7.465000 0.211820 0
7.470000 0.178233 0
7.475000 0.144635 0
7.480000 0.111719 0
7.485000 0.080081 0
7.490000 0.050214 0
7.495000 0.022498 0
7.500000 -0.002802 0
7.505000 -0.025530 0
7.510000 -0.045628 0
7.515000 -0.063123 0
7.520000 -0.078114 0
7.525000 -0.090755 0
7.530000 -0.101237 0
7.535000 -0.109776 0
7.540000 -0.116599 0
7.545000 -0.121934 0
7.550000 -0.125999 0
7.555000 -0.128998 0
7.560000 -0.131116 0
7.565000 -0.132168 0
7.570000 -0.131168 0
7.575000 -0.130174 0
7.580000 -0.129184 0
7.585000 -0.128199 0
7.590000 -0.127219 0
7.595000 -0.126242 0
7.600000 -0.125268 0
7.605000 -0.124294 0
7.610000 -0.123316 0
7.615000 -0.122326 0
7.620000 -0.121310 0
7.625000 -0.120242 0
7.630000 -0.119084 0
7.635000 -0.117770 0
7.640000 -0.116202 0
7.645000 -0.114233 0
7.650000 -0.111655 0
7.655000 -0.108186 0
7.660000 -0.103463 0
7.665000 -0.097039 0
7.670000 -0.088402 0
7.675000 -0.077006 0
7.680000 -0.062334 0
7.685000 -0.043969 0
7.690000 -0.021695 0
7.695000 0.004403 0
7.700000 0.033855 0
7.705000 0.065750 0
7.710000 0.098734 0
7.715000 0.131073 0
7.720000 0.160791 0
7.725000 0.185856 0
7.730000 0.204412 0
7.735000 0.215002 0
7.740000 0.216762 1
7.745000 0.209531 0
7.750000 0.193881 0
7.755000 0.171041 0
7.760000 0.142736 0
7.765000 0.110962 0
7.770000 0.077711 0
7.775000 0.044615 0
7.780000 0.012399 0
7.785000 -0.019910 0
7.790000 -0.055664 0
7.795000 -0.099919 0
7.800000 -0.155820 0
7.805000 -0.218399 0
7.810000 -0.269822 0
7.815000 -0.280965 2
7.820000 -0.219109 0
7.825000 -0.057429 0
7.830000 0.213116 0
7.835000 0.564760 0
7.840000 0.916520 0
7.845000 1.149666 0
7.850000 1.167172 3
7.855000 0.957261 0
7.860000 0.600968 0
7.865000 0.217306 0
7.870000 -0.098592 0
7.875000 -0.300479 0
7.880000 -0.382940 4
7.885000 -0.367421 0
7.890000 -0.291681 0
7.895000 -0.196683 0
7.900000 -0.111945 0
7.905000 -0.048675 0
7.910000 -0.004018 0
7.915000 0.029970 0
7.920000 0.059982 0
7.925000 0.089654 0
7.930000 0.120297 0
7.935000 0.152021 0
7.940000 0.184429 0
7.945000 0.216916 0
7.950000 0.248772 0
7.955000 0.279229 0
7.960000 0.307494 0
7.965000 0.332786 0
7.970000 0.354364 0
7.975000 0.371570 0
7.980000 0.383856 0
7.985000 0.390818 0
7.990000 0.392211 5
7.995000 0.387967 0
8.000000 0.378198 0
8.005000 0.363191 0
8.010000 0.343393 0
8.015000 0.319386 0
8.020000 0.291865 0
8.025000 0.261596 0
8.030000 0.229384 0
8.035000 0.196041 0
8.040000 0.162347 0
8.045000 0.129021 0
8.050000 0.096705 0
8.055000 0.065936 0
8.060000 0.037147 0
8.065000 0.010653 0
8.070000 -0.013340 0
8.075000 -0.034726 0
8.080000 -0.053495 0
8.085000 -0.069713 0
8.090000 -0.083506 0
8.095000 -0.095048 0
8.100000 -0.104543 0
8.105000 -0.112214 0
8.110000 -0.118286 0
8.115000 -0.122982 0
8.120000 -0.126513 0
8.125000 -0.129073 0
8.130000 -0.130836 0
8.135000 -0.130243 0
8.140000 -0.129253 0
8.145000 -0.128268 0
8.150000 -0.127288 0
8.155000 -0.126312 0
8.160000 -0.125341 0
8.165000 -0.124373 0
8.170000 -0.123406 0
8.175000 -0.122438 0
8.180000 -0.121463 0
8.185000 -0.120471 0
8.190000 -0.119443 0
8.195000 -0.118350 0
8.200000 -0.117142 0
8.205000 -0.115741 0
8.210000 -0.114032 0
8.215000 -0.111844 0
8.220000 -0.108943 0
8.225000 -0.105014 0
8.230000 -0.099661 0
8.235000 -0.092413 0
8.240000 -0.082742 0
8.245000 -0.070108 0
8.250000 -0.054026 0
8.255000 -0.034151 0
8.260000 -0.010372 0
8.265000 0.017086 0
8.270000 0.047593 0
8.275000 0.080072 0
8.280000 0.113024 0
8.285000 0.144619 0
8.290000 0.172848 0
8.295000 0.195730 0
8.300000 0.211541 0
8.305000 0.219028 1
8.310000 0.217572 0
8.315000 0.207275 0
8.320000 0.188948 0
8.325000 0.164004 0
8.330000 0.134277 0
8.335000 0.101781 0
8.340000 0.068421 0
8.345000 0.035592 0
8.350000 0.003553 0
8.355000 -0.029392 0
8.360000 -0.067309 0
8.365000 -0.115170 0
8.370000 -0.174261 0
8.375000 -0.235928 0
8.380000 -0.278458 2
8.385000 -0.270847 0
8.390000 -0.181355 0
8.395000 0.012883 0
8.400000 0.312288 0
8.405000 0.674691 0
8.410000 1.005084 0
8.415000 1.184263 3
8.420000 1.135261 0
8.425000 0.874820 0
8.430000 0.499700 0
8.435000 0.126319 0
8.440000 -0.163178 0
8.445000 -0.334721 0
8.450000 -0.390675 4
8.455000 -0.357107 0
8.460000 -0.273460 0
8.465000 -0.178799 0
8.470000 -0.098410 0
8.475000 -0.039655 0
8.480000 0.002114 0
8.485000 0.034860 0
8.490000 0.064613 0
8.495000 0.094424 0
8.500000 0.125284 0
8.505000 0.157172 0
8.510000 0.189644 0
8.515000 0.222078 0
8.520000 0.253761 0
8.525000 0.283927 0
8.530000 0.311793 0
8.535000 0.336589 0
8.540000 0.357594 0
8.545000 0.374168 0
8.550000 0.385790 0
8.555000 0.392078 0
8.560000 0.392811 5
8.565000 0.387943 0
8.570000 0.377605 0
8.575000 0.362097 0
8.580000 0.341875 0
8.585000 0.317529 0
8.590000 0.289750 0
8.595000 0.259303 0
8.600000 0.226985 0
8.605000 0.193597 0
8.610000 0.159907 0
8.615000 0.126623 0
8.620000 0.094373 0
8.625000 0.063685 0
8.630000 0.034979 0
8.635000 0.008566 0
8.640000 -0.015355 0
8.645000 -0.036683 0
8.650000 -0.055409 0
8.655000 -0.071598 0
8.660000 -0.085377 0
8.665000 -0.096917 0
8.670000 -0.106421 0
8.675000 -0.114107 0
8.680000 -0.120200 0
8.685000 -0.124919 0
8.690000 -0.128474 0
8.695000 -0.131057 0
8.700000 -0.132841 0
8.705000 -0.133666 0
8.710000 -0.132659 0
8.715000 -0.131657 0
8.720000 -0.130660 0
8.725000 -0.129668 0
8.730000 -0.128679 0
8.735000 -0.127695 0
8.740000 -0.126712 0
8.745000 -0.125729 0
8.750000 -0.124739 0
8.755000 -0.123733 0
8.760000 -0.122695 0
8.765000 -0.121596 0
8.770000 -0.120390 0
8.775000 -0.119005 0
8.780000 -0.117331 0
8.785000 -0.115208 0
8.790000 -0.112413 0
8.795000 -0.108650 0
8.800000 -0.103537 0
8.805000 -0.096620 0
8.810000 -0.087384 0
8.815000 -0.075292 0
8.820000 -0.059852 0
8.825000 -0.040688 0
8.830000 -0.017642 0
8.835000 0.009137 0
8.840000 0.039106 0
8.845000 0.071293 0
8.850000 0.104298 0
8.855000 0.136371 0
8.860000 0.165547 0
8.865000 0.189844 0
8.870000 0.207478 0
8.875000 0.217080 0
8.880000 0.217878 1
8.885000 0.209790 0
8.890000 0.193447 0
8.895000 0.170105 0
8.900000 0.141488 0
8.905000 0.109566 0
8.910000 0.076285 0
8.915000 0.043220 0
8.920000 0.011031 0
8.925000 -0.021306 0
8.930000 -0.057139 0
8.935000 -0.101446 0
8.940000 -0.157305 0
8.945000 -0.219884 0
8.950000 -0.271833 0
8.955000 -0.284711 2
8.960000 -0.226343 0
8.965000 -0.069950 0
8.970000 0.194610 0
8.975000 0.542785 0
8.980000 0.898562 0
8.985000 1.146434 0
8.990000 1.186350 3
8.995000 0.996147 0
9.000000 0.648692 0
9.005000 0.262831 0
9.010000 -0.061922 0
9.015000 -0.274696 0
9.020000 -0.367031 4
9.025000 -0.358555 0
9.030000 -0.286239 0
9.035000 -0.191538 0
9.040000 -0.105425 0
9.045000 -0.040562 0
9.050000 0.005151 0
9.055000 0.039588 0
9.060000 0.069666 0
9.065000 0.099243 0
9.070000 0.129753 0
9.075000 0.161360 0
9.080000 0.193687 0
9.085000 0.226132 0
9.090000 0.257988 0
9.095000 0.288487 0
9.100000 0.316834 0
9.105000 0.342240 0
9.110000 0.363960 0
9.115000 0.381328 0
9.120000 0.393788 0
9.125000 0.400927 0
9.130000 0.402492 5
9.135000 0.398408 0
9.140000 0.388780 0
9.145000 0.373891 0
9.150000 0.354183 0
9.155000 0.330239 0
9.160000 0.302751 0
9.165000 0.272490 0
9.170000 0.240263 0
9.175000 0.206884 0
9.180000 0.173138 0
9.185000 0.139751 0
9.190000 0.107365 0
9.195000 0.076524 0
9.200000 0.047662 0
9.205000 0.021098 0
9.210000 -0.002960 0
9.215000 -0.024407 0
9.220000 -0.043231 0
9.225000 -0.059497 0
9.230000 -0.073335 0
9.235000 -0.084917 0
9.240000 -0.094449 0
9.245000 -0.102155 0
9.250000 -0.108260 0
9.255000 -0.112989 0
9.260000 -0.116554 0
9.265000 -0.119148 0
9.270000 -0.120946 0
9.275000 -0.120400 0
9.280000 -0.119460 0
9.285000 -0.118524 0
9.290000 -0.117592 0
9.295000 -0.116665 0
9.300000 -0.115741 0
9.305000 -0.114821 0
9.310000 -0.113902 0
9.315000 -0.112981 0
9.320000 -0.112053 0
9.325000 -0.111106 0
9.330000 -0.110123 0
9.335000 -0.109071 0
9.340000 -0.107902 0
9.345000 -0.106534 0
9.350000 -0.104849 0
9.355000 -0.102674 0
9.360000 -0.099766 0
9.365000 -0.095808 0
9.370000 -0.090396 0
9.375000 -0.083051 0
9.380000 -0.073241 0
9.385000 -0.060427 0
9.390000 -0.044128 0
9.395000 -0.024009 0
9.400000 0.000017 0
9.405000 0.027699 0
9.410000 0.058367 0
9.415000 0.090905 0
9.420000 0.123777 0
9.425000 0.155122 0
9.430000 0.182917 0
9.435000 0.205186 0
9.440000 0.220232 0
9.445000 0.226849 1
9.450000 0.224484 0
9.455000 0.213308 0
9.460000 0.194202 0
9.465000 0.168637 0
9.470000 0.138485 0
9.475000 0.105772 0
9.480000 0.072380 0
9.485000 0.039616 0
9.490000 0.007565 0
9.495000 -0.025747 0
9.500000 -0.064636 0
9.505000 -0.113958 0
9.510000 -0.174124 0
9.515000 -0.234882 0
9.520000 -0.272918 2
9.525000 -0.256487 0
9.530000 -0.154304 0
9.535000 0.054571 0
9.540000 0.366094 0
9.545000 0.730746 0
9.550000 1.046986 0
9.555000 1.196624 3
9.560000 1.112451 0
9.565000 0.825398 0
9.570000 0.442681 0
9.575000 0.080401 0
9.580000 -0.186604 0
9.585000 -0.332145 0
9.590000 -0.364779 4
9.595000 -0.315377 0
9.600000 -0.225721 0
9.605000 -0.133313 0
9.610000 -0.059070 0
9.615000 -0.006201 0
9.620000 0.031882 0
9.625000 0.063072 0
9.630000 0.092544 0
9.635000 0.122589 0
9.640000 0.153767 0
9.645000 0.185854 0
9.650000 0.218310 0
9.655000 0.250454 0
9.660000 0.281527 0
9.665000 0.310734 0
9.670000 0.337269 0
9.675000 0.360362 0
9.680000 0.379305 0
9.685000 0.393494 0
9.690000 0.402460 0
9.695000 0.405889 5
9.700000 0.403644 0
9.705000 0.395773 0
9.710000 0.382502 0
9.715000 0.364230 0
9.720000 0.341504 0
9.725000 0.314994 0
9.730000 0.285456 0
9.735000 0.253699 0
9.740000 0.220550 0
9.745000 0.186810 0
9.750000 0.153234 0
9.755000 0.120496 0
9.760000 0.089174 0
9.765000 0.059737 0
9.770000 0.032538 0
9.775000 0.007814 0
9.780000 -0.014302 0
9.785000 -0.033777 0
9.790000 -0.050660 0
9.795000 -0.065067 0
9.800000 -0.077164 0
9.805000 -0.087153 0
9.810000 -0.095256 0
9.815000 -0.101703 0
9.820000 -0.106721 0
9.825000 -0.110527 0
9.830000 -0.113321 0
9.835000 -0.115283 0
9.840000 -0.116251 0
9.845000 -0.115331 0
9.850000 -0.114415 0
9.855000 -0.113504 0
9.860000 -0.112597 0
9.865000 -0.111694 0
9.870000 -0.110795 0
9.875000 -0.109896 0
9.880000 -0.108997 0
9.885000 -0.108090 0
9.890000 -0.107167 0
9.895000 -0.106210 0
9.900000 -0.105189 0
9.905000 -0.104056 0
9.910000 -0.102735 0
9.915000 -0.101109 0
9.920000 -0.099010 0
9.925000 -0.096202 0
9.930000 -0.092369 0
9.935000 -0.087112 0
9.940000 -0.079952 0
9.945000 -0.070355 0
9.950000 -0.057774 0
9.955000 -0.041716 0
9.960000 -0.021831 0
9.965000 0.001984 0
9.970000 0.029496 0
9.975000 0.060048 0
9.980000 0.092530 0
9.985000 0.125404 0
9.990000 0.156797 0
9.995000 0.184665 0
10.000000 0.207010 0
10.005000 0.222112 0
10.010000 0.228747 1
10.015000 0.226353 0
10.020000 0.215105 0
10.025000 0.195898 0
10.030000 0.170223 0
10.035000 0.139978 0
10.040000 0.107211 0
10.045000 0.073810 0
10.050000 0.041070 0
10.055000 0.009008 0
10.060000 -0.024479 0
10.065000 -0.063845 0
10.070000 -0.113901 0
10.075000 -0.174576 0
10.080000 -0.234646 0
10.085000 -0.269724 2
10.090000 -0.247447 0
10.095000 -0.136662 0
10.100000 0.082297 0
10.105000 0.401976 0
10.110000 0.767024 0
10.115000 1.070697 0
10.120000 1.195797 3
10.125000 1.084546 0
10.130000 0.779570 0
10.135000 0.393668 0
10.140000 0.040484 0
10.145000 -0.211186 0
10.150000 -0.340422 0
10.155000 -0.359486 4
10.160000 -0.301757 0
10.165000 -0.209684 0
10.170000 -0.119158 0
10.175000 -0.048352 0
10.180000 0.001638 0
10.185000 0.038125 0
10.190000 0.068762 0
10.195000 0.098230 0
10.200000 0.128458 0
10.205000 0.159822 0
10.210000 0.192019 0
10.215000 0.224470 0
10.220000 0.256472 0
10.225000 0.287252 0
10.230000 0.316002 0
10.235000 0.341916 0
10.240000 0.364226 0
10.245000 0.382238 0
10.250000 0.395371 0
10.255000 0.403179 0
10.260000 0.405386 5
10.265000 0.401893 0
10.270000 0.392787 0
10.275000 0.378337 0
10.280000 0.358982 0
10.285000 0.335303 0
10.290000 0.307998 0
10.295000 0.277846 0
10.300000 0.245670 0
10.305000 0.212298 0
10.310000 0.178530 0
10.315000 0.145107 0
10.320000 0.112685 0
10.325000 0.081819 0
10.330000 0.052950 0
10.335000 0.026403 0
10.340000 0.002387 0
10.345000 -0.018995 0
10.350000 -0.037731 0
10.355000 -0.053894 0
10.360000 -0.067615 0
10.365000 -0.079074 0
10.370000 -0.088482 0
10.375000 -0.096067 0
10.380000 -0.102059 0
10.385000 -0.106686 0
10.390000 -0.110160 0
10.395000 -0.112678 0
10.400000 -0.114415 0
10.405000 -0.113887 0
10.410000 -0.112979 0
10.415000 -0.112075 0
10.420000 -0.111175 0
10.425000 -0.110280 0
10.430000 -0.109388 0
10.435000 -0.108499 0
10.440000 -0.107611 0
10.445000 -0.106719 0
10.450000 -0.105818 0
10.455000 -0.104895 0
10.460000 -0.103928 0
10.465000 -0.102882 0
10.470000 -0.101699 0
10.475000 -0.100289 0
10.480000 -0.098515 0
10.485000 -0.096185 0
10.490000 -0.093030 0
10.495000 -0.088700 0
10.500000 -0.082760 0
10.505000 -0.074702 0
10.510000 -0.063975 0
10.515000 -0.050041 0
10.520000 -0.032450 0
10.525000 -0.010941 0
10.530000 0.014464 0
10.535000 0.043357 0
10.540000 0.074886 0
10.545000 0.107741 0
10.550000 0.140213 0
10.555000 0.170316 0
10.560000 0.195984 0
10.565000 0.215297 0
10.570000 0.226719 0
10.575000 0.229301 1
10.580000 0.222808 0
10.585000 0.207754 0
10.590000 0.185336 0
10.595000 0.157276 0
10.600000 0.125588 0
10.605000 0.092305 0
10.610000 0.059112 0
10.615000 0.026802 0
10.620000 -0.005540 0
10.625000 -0.041245 0
10.630000 -0.085431 0
10.635000 -0.141342 0
10.640000 -0.203982 0
10.645000 -0.255211 0
10.650000 -0.265384 2
10.655000 -0.201311 0
10.660000 -0.036061 0
10.665000 0.238618 0
10.670000 0.592491 0
10.675000 0.940727 0
10.680000 1.162192 0
10.685000 1.162433 3
10.690000 0.934879 0
10.695000 0.569364 0
10.700000 0.190782 0
10.705000 -0.107662 0
10.710000 -0.285582 0
10.715000 -0.343767 4
10.720000 -0.309536 0
10.725000 -0.224902 0
10.730000 -0.130960 0
10.735000 -0.053118 0
10.740000 0.002582 0
10.745000 0.042051 0
10.750000 0.073630 0
10.755000 0.103066 0
10.760000 0.132974 0
10.765000 0.164031 0
10.770000 0.196036 0
10.775000 0.228437 0
10.780000 0.260527 0
10.785000 0.291521 0
10.790000 0.320590 0
10.795000 0.346900 0
10.800000 0.369652 0
10.805000 0.388120 0
10.810000 0.401688 0
10.815000 0.409885 0
10.820000 0.412410 5
10.825000 0.409150 0
10.830000 0.400185 0
10.835000 0.385786 0
10.840000 0.366402 0
10.845000 0.342630 0
10.850000 0.315193 0
10.855000 0.284893 0
10.860000 0.252580 0
10.865000 0.219106 0
10.870000 0.185292 0
10.875000 0.151894 0
10.880000 0.119579 0
10.885000 0.088905 0
10.890000 0.060309 0
10.895000 0.034110 0
10.900000 0.010504 0
10.905000 -0.010419 0
10.910000 -0.028668 0
10.915000 -0.044329 0
10.920000 -0.057551 0
10.925000 -0.068529 0
10.930000 -0.077486 0
10.935000 -0.084656 0
10.940000 -0.090280 0
10.945000 -0.094585 0
10.950000 -0.097788 0
10.955000 -0.100082 0
10.960000 -0.101291 0
10.965000 -0.100446 0
10.970000 -0.099605 0
10.975000 -0.098768 0
10.980000 -0.097934 0
10.985000 -0.097105 0
10.990000 -0.096278 0
10.995000 -0.095453 0
11.000000 -0.094626 0
11.005000 -0.093794 0
11.010000 -0.092945 0
11.015000 -0.092064 0
11.020000 -0.091121 0
11.025000 -0.090069 0
11.030000 -0.088829 0
11.035000 -0.087284 0
11.040000 -0.085260 0
11.045000 -0.082513 0
11.050000 -0.078714 0
11.055000 -0.073447 0
11.060000 -0.066211 0
11.065000 -0.056449 0
11.070000 -0.043594 0
11.075000 -0.027147 0
11.080000 -0.006769 0
11.085000 0.017606 0
11.090000 0.045666 0
11.095000 0.076648 0
11.100000 0.109308 0
11.105000 0.141963 0
11.110000 0.172610 0
11.115000 0.199117 0
11.120000 0.219464 0
11.125000 0.231996 0
11.130000 0.235640 1
11.135000 0.230062 0
11.140000 0.215710 0
11.145000 0.193761 0
11.150000 0.165951 0
11.155000 0.134347 0
11.160000 0.101047 0
11.165000 0.067805 0
11.170000 0.035451 0
11.175000 0.003038 0
11.180000 -0.032906 0
11.185000 -0.077657 0
11.190000 -0.134295 0
11.195000 -0.196913 0
11.200000 -0.245749 0
11.205000 -0.249546 2
11.210000 -0.174332 0
11.215000 0.006063 0
11.220000 0.295978 0
11.225000 0.656189 0
11.230000 0.990373 0
11.235000 1.173215 3
11.240000 1.121412 0
11.245000 0.853031 0
11.250000 0.474068 0
11.255000 0.107631 0
11.260000 -0.164427 0
11.265000 -0.312616 0
11.270000 -0.345194 4
11.275000 -0.294432 0
11.280000 -0.204043 0
11.285000 -0.112579 0
11.290000 -0.040503 0
11.295000 0.010163 0
11.300000 0.046811 0
11.305000 0.077416 0
11.310000 0.106849 0
11.315000 0.137082 0
11.320000 0.168469 0
11.325000 0.200675 0
11.330000 0.233086 0
11.335000 0.264963 0
11.340000 0.295497 0
11.345000 0.323847 0
11.350000 0.349180 0
11.355000 0.370707 0
11.360000 0.387728 0
11.365000 0.399665 0
11.370000 0.406093 0
11.375000 0.406769 5
11.380000 0.401642 0
11.385000 0.390857 0
11.390000 0.374748 0
11.395000 0.353821 0
11.400000 0.328725 0
11.405000 0.300220 0
11.410000 0.269136 0
11.415000 0.236335 0
11.420000 0.202668 0
11.425000 0.168943 0
11.430000 0.135892 0
11.435000 0.104147 0
11.440000 0.074228 0
11.445000 0.046531 0
11.450000 0.021327 0
11.455000 -0.001227 0
11.460000 -0.021081 0
11.465000 -0.038275 0
11.470000 -0.052926 0
11.475000 -0.065202 0
11.480000 -0.075314 0
11.485000 -0.083492 0
11.490000 -0.089977 0
11.495000 -0.095006 0
11.500000 -0.098806 0
11.505000 -0.101584 0
11.510000 -0.103528 0
11.515000 -0.103076 0
11.520000 -0.102222 0
11.525000 -0.101371 0
11.530000 -0.100525 0
11.535000 -0.099683 0
11.540000 -0.098844 0
11.545000 -0.098008 0
11.550000 -0.097172 0
11.555000 -0.096333 0
11.560000 -0.095484 0
11.565000 -0.094613 0
11.570000 -0.093696 0
11.575000 -0.092697 0
11.580000 -0.091555 0
11.585000 -0.090173 0
11.590000 -0.088406 0
11.595000 -0.086047 0
11.600000 -0.082808 0
11.605000 -0.078313 0
11.610000 -0.072098 0
11.615000 -0.063624 0
11.620000 -0.052316 0
11.625000 -0.037629 0
11.630000 -0.019129 0
11.635000 0.003392 0
11.640000 0.029813 0
11.645000 0.059583 0
11.650000 0.091671 0
11.655000 0.124574 0
11.660000 0.156399 0
11.665000 0.185029 0
11.670000 0.208346 0
11.675000 0.224489 0
11.680000 0.232095 1
11.685000 0.230491 0
11.690000 0.219792 0
11.695000 0.200884 0
11.700000 0.175303 0
11.705000 0.145026 0
11.710000 0.112194 0
11.715000 0.078773 0
11.720000 0.046065 0
11.725000 0.013952 0
11.730000 -0.020012 0
11.735000 -0.060692 0
11.740000 -0.112771 0
11.745000 -0.174629 0
11.750000 -0.231877 0
11.755000 -0.256610 2
11.760000 -0.214405 0
11.765000 -0.074668 0
11.770000 0.177207 0
11.775000 0.520312 0
11.780000 0.877806 0
11.785000 1.127127 0
11.790000 1.160902 3
11.795000 0.959490 0
11.800000 0.604569 0
11.805000 0.221578 0
11.810000 -0.089712 0
11.815000 -0.282547 0
11.820000 -0.353657 4
11.825000 -0.327969 0
11.830000 -0.246712 0
11.835000 -0.152135 0
11.840000 -0.071922 0
11.845000 -0.014008 0
11.850000 0.026775 0
11.855000 0.058885 0
11.860000 0.088431 0
11.865000 0.118304 0
11.870000 0.149315 0
11.875000 0.181314 0
11.880000 0.213765 0
11.885000 0.245971 0
11.890000 0.277146 0
11.895000 0.306458 0
11.900000 0.333070 0
11.905000 0.356173 0
11.910000 0.375032 0
11.915000 0.389018 0
11.920000 0.397648 0
11.925000 0.400605 5
11.930000 0.397764 0
11.935000 0.389194 0
11.940000 0.375155 0
11.945000 0.356087 0
11.950000 0.332586 0
11.955000 0.305370 0
11.960000 0.275244 0
11.965000 0.243058 0
11.970000 0.209670 0
11.975000 0.175909 0
11.980000 0.142536 0
11.985000 0.110225 0
11.990000 0.079542 0
11.995000 0.050930 0
12.000000 0.024712 0
12.005000 0.001089 0
12.010000 -0.019847 0
12.015000 -0.038100 0
12.020000 -0.053757 0
12.025000 -0.066968 0
12.030000 -0.077926 0
12.035000 -0.086854 0
12.040000 -0.093991 0
12.045000 -0.099576 0
12.050000 -0.103839 0
12.055000 -0.106995 0
12.060000 -0.109242 0
12.065000 -0.110404 0
12.070000 -0.109513 0
12.075000 -0.108626 0
12.080000 -0.107744 0
12.085000 -0.106866 0
12.090000 -0.105992 0
12.095000 -0.105121 0
12.100000 -0.104252 0
12.105000 -0.103381 0
12.110000 -0.102504 0
12.115000 -0.101612 0
12.120000 -0.100686 0
12.125000 -0.099697 0
12.130000 -0.098596 0
12.135000 -0.097304 0
12.140000 -0.095700 0
12.145000 -0.093608 0
12.150000 -0.090778 0
12.155000 -0.086876 0
12.160000 -0.081478 0
12.165000 -0.074079 0
12.170000 -0.064116 0
12.175000 -0.051021 0
12.180000 -0.034298 0
12.185000 -0.013622 0
12.190000 0.011052 0
12.195000 0.039384 0
12.200000 0.070574 0
12.205000 0.103338 0
12.210000 0.135955 0
12.215000 0.166396 0
12.220000 0.192518 0
12.225000 0.212312 0
12.230000 0.224154 0
12.235000 0.227026 1
12.240000 0.220662 0
12.245000 0.205583 0
12.250000 0.183031 0
12.255000 0.154795 0
12.260000 0.122967 0
12.265000 0.089643 0
12.270000 0.056518 0
12.275000 0.024282 0
12.280000 -0.008265 0
12.285000 -0.044897 0
12.290000 -0.090935 0
12.295000 -0.148795 0
12.300000 -0.211043 0
12.305000 -0.256134 2
12.310000 -0.251775 0
12.315000 -0.164225 0
12.320000 0.030943 0
12.325000 0.333716 0
12.330000 0.697244 0
12.335000 1.017918 0
12.340000 1.170984 3
12.345000 1.084215 0
12.350000 0.791249 0
12.355000 0.406827 0
12.360000 0.051609 0
12.365000 -0.200541 0
12.370000 -0.327347 0
12.375000 -0.342181 4
12.380000 -0.280769 0
12.385000 -0.187658 0
12.390000 -0.099028 0
12.395000 -0.031540 0
12.400000 0.015521 0
12.405000 0.050322 0
12.410000 0.080394 0
12.415000 0.109930 0
12.420000 0.140451 0
12.425000 0.172095 0
12.430000 0.204432 0
12.435000 0.236805 0
12.440000 0.268443 0
12.445000 0.298517 0
12.450000 0.326175 0
12.455000 0.350582 0
12.460000 0.370960 0
12.465000 0.386632 0
12.470000 0.397054 0
12.475000 0.401846 5
12.480000 0.400818 0
12.485000 0.393977 0
12.490000 0.381528 0
12.495000 0.363866 0
12.500000 0.341552 0
12.505000 0.315281 0
12.510000 0.285849 0
12.515000 0.254111 0
12.520000 0.220938 0
12.525000 0.187181 0
12.530000 0.153634 0
12.535000 0.121002 0
12.540000 0.089887 0
12.545000 0.060768 0
12.550000 0.033998 0
12.555000 0.009808 0
12.560000 -0.011686 0
12.565000 -0.030472 0
12.570000 -0.046623 0
12.575000 -0.060278 0
12.580000 -0.071628 0
12.585000 -0.080896 0
12.590000 -0.088320 0
12.595000 -0.094145 0
12.600000 -0.098606 0
12.605000 -0.101924 0
12.610000 -0.104300 0
12.615000 -0.105914 0
12.620000 -0.105403 0
12.625000 -0.104537 0
12.630000 -0.103675 0
12.635000 -0.102818 0
12.640000 -0.101964 0
12.645000 -0.101113 0
12.650000 -0.100264 0
12.655000 -0.099414 0
12.660000 -0.098557 0
12.665000 -0.097686 0
12.670000 -0.096782 0
12.675000 -0.095815 0
12.680000 -0.094738 0
12.685000 -0.093470 0
12.690000 -0.091890 0
12.695000 -0.089821 0
12.700000 -0.087008 0
12.705000 -0.083115 0
12.710000 -0.077709 0
12.715000 -0.070276 0
12.720000 -0.060246 0
12.725000 -0.047042 0
12.730000 -0.030168 0
12.735000 -0.009302 0
12.740000 0.015583 0
12.745000 0.044117 0
12.750000 0.075456 0
12.755000 0.108264 0
12.760000 0.140764 0
12.765000 0.170880 0
12.770000 0.196440 0
12.775000 0.215435 0
12.780000 0.226274 0
12.785000 0.228007 1
12.790000 0.220461 0
12.795000 0.204266 0
12.800000 0.180769 0
12.805000 0.151845 0
12.810000 0.119638 0
12.815000 0.086238 0
12.820000 0.053246 0
12.825000 0.021099 0
12.830000 -0.011864 0
12.835000 -0.049927 0
12.840000 -0.098379 0
12.845000 -0.158225 0
12.850000 -0.219080 0
12.855000 -0.256176 2
12.860000 -0.235536 0
12.865000 -0.124112 0
12.870000 0.098686 0
12.875000 0.423392 0
12.880000 0.787633 0
12.885000 1.075150 0
12.890000 1.166177 3
12.895000 1.016362 0
12.900000 0.686916 0
12.905000 0.299798 0
12.910000 -0.034831 0
12.915000 -0.257660 0
12.920000 -0.356576 4
12.925000 -0.350811 0
12.930000 -0.278811 0
12.935000 -0.184124 0
12.940000 -0.098928 0
12.945000 -0.035680 0
12.950000 0.008547 0
12.955000 0.042133 0
12.960000 0.071978 0
12.965000 0.101683 0
12.970000 0.132449 0
12.975000 0.164288 0
12.980000 0.196733 0
12.985000 0.229116 0
12.990000 0.260669 0
12.995000 0.290572 0
13.000000 0.317985 0
13.005000 0.342090 0
13.010000 0.362130 0
13.015000 0.377448 0
13.020000 0.387521 0
13.025000 0.391988 5
13.030000 0.390674 0
13.035000 0.383598 0
13.040000 0.370973 0
13.045000 0.353193 0
13.050000 0.330816 0
13.055000 0.304531 0
13.060000 0.275121 0
13.065000 0.243431 0
13.070000 0.210317 0
13.075000 0.176617 0
13.080000 0.143113 0
13.085000 0.110504 0
13.090000 0.079382 0
13.095000 0.050225 0
13.100000 0.023386 0
13.105000 -0.000901 0
13.110000 -0.022518 0
13.115000 -0.041444 0
13.120000 -0.057747 0
13.125000 -0.071559 0
13.130000 -0.083064 0
13.135000 -0.092480 0
13.140000 -0.100040 0
13.145000 -0.105985 0
13.150000 -0.110547 0
13.155000 -0.113947 0
13.160000 -0.116387 0
13.165000 -0.118045 0
13.170000 -0.117490 0
13.175000 -0.116563 0
13.180000 -0.115642 0
13.185000 -0.114724 0
13.190000 -0.113811 0
13.195000 -0.112901 0
13.200000 -0.111994 0
13.205000 -0.111087 0
13.210000 -0.110176 0
13.215000 -0.109252 0
13.220000 -0.108301 0
13.225000 -0.107297 0
13.230000 -0.106198 0
13.235000 -0.104934 0
13.240000 -0.103399 0
13.245000 -0.101433 0
13.250000 -0.098809 0
13.255000 -0.095219 0
13.260000 -0.090266 0
13.265000 -0.083466 0
13.270000 -0.074270 0
13.275000 -0.062106 0
13.280000 -0.046448 0
13.285000 -0.026911 0
13.290000 -0.003356 0
13.295000 0.023999 0
13.300000 0.054494 0
13.305000 0.086989 0
13.310000 0.119883 0
13.315000 0.151223 0
13.320000 0.178880 0
13.325000 0.200780 0
13.330000 0.215162 0
13.335000 0.220811 1
13.340000 0.217226 0
13.345000 0.204695 0
13.350000 0.184256 0
13.355000 0.157554 0
13.360000 0.126616 0
13.365000 0.093570 0
13.370000 0.060281 0
13.375000 0.027826 0
13.380000 -0.004317 0
13.385000 -0.039122 0
13.390000 -0.081727 0
13.395000 -0.136121 0
13.400000 -0.198616 0
13.405000 -0.252072 0
13.410000 -0.266730 2
13.415000 -0.208226 0
13.420000 -0.048018 0
13.425000 0.223634 0
13.430000 0.576868 0
13.435000 0.924708 0
13.440000 1.142113 3
13.445000 1.133140 0
13.450000 0.898619 0
13.455000 0.531318 0
13.460000 0.153386 0
13.465000 -0.144685 0
13.470000 -0.323568 0
13.475000 -0.383786 4
13.480000 -0.351656 0
13.485000 -0.268047 0
13.490000 -0.173559 0
13.495000 -0.094092 0
13.500000 -0.036632 0
13.505000 0.004088 0
13.510000 0.036306 0
13.515000 0.065969 0
13.520000 0.095922 0
13.525000 0.126990 0
13.530000 0.159049 0
13.535000 0.191592 0
13.540000 0.223945 0
13.545000 0.255351 0
13.550000 0.285003 0
13.555000 0.312086 0
13.560000 0.335808 0
13.565000 0.355441 0
13.570000 0.370357 0
13.575000 0.380059 0
13.580000 0.384211 5
13.585000 0.382652 0
13.590000 0.375411 0
13.595000 0.362702 0
13.600000 0.344914 0
13.605000 0.322592 0
13.610000 0.296407 0
13.615000 0.267122 0
13.620000 0.235556 0
13.625000 0.202546 0
13.630000 0.168910 0
13.635000 0.135415 0
13.640000 0.102746 0
13.645000 0.071495 0
13.650000 0.042136 0
13.655000 0.015029 0
13.660000 -0.009584 0
13.665000 -0.031570 0
13.670000 -0.050897 0
13.675000 -0.067617 0
13.680000 -0.081847 0
13.685000 -0.093761 0
13.690000 -0.103562 0
13.695000 -0.111478 0
13.700000 -0.117740 0
13.705000 -0.122581 0
13.710000 -0.126217 0
13.715000 -0.128851 0
13.720000 -0.130663 0
13.725000 -0.131502 0
13.730000 -0.130506 0
13.735000 -0.129515 0
13.740000 -0.128528 0
13.745000 -0.127547 0
13.750000 -0.126569 0
13.755000 -0.125594 0
13.760000 -0.124622 0
13.765000 -0.123647 0
13.770000 -0.122665 0
13.775000 -0.121664 0
13.780000 -0.120624 0
13.785000 -0.119513 0
13.790000 -0.118276 0
13.795000 -0.116830 0
13.800000 -0.115046 0
13.805000 -0.112739 0
13.810000 -0.109652 0
13.815000 -0.105446 0
13.820000 -0.099694 0
13.825000 -0.091895 0
13.830000 -0.081497 0
13.835000 -0.067951 0
13.840000 -0.050789 0
13.845000 -0.029713 0
13.850000 -0.004705 0
13.855000 0.023878 0
13.860000 0.055233 0
13.865000 0.088095 0
13.870000 0.120783 0
13.875000 0.151319 0
13.880000 0.177620 0
13.885000 0.197724 0
13.890000 0.210037 0
13.895000 0.213538 1
13.900000 0.207920 0
13.905000 0.193637 0
13.910000 0.171839 0
13.915000 0.144225 0
13.920000 0.112812 0
13.925000 0.079655 0
13.930000 0.046493 0
13.935000 0.014204 0
13.940000 -0.017996 0
13.945000 -0.053317 0
13.950000 -0.096872 0
13.955000 -0.152169 0
13.960000 -0.214719 0
13.965000 -0.266864 0
13.970000 -0.279094 2
13.975000 -0.217941 0
13.980000 -0.055898 0
13.985000 0.216143 0
13.990000 0.569008 0
13.995000 0.918476 0
14.000000 1.142786 0
14.005000 1.145882 3
14.010000 0.921766 0
14.015000 0.558421 0
14.020000 0.178286 0
14.025000 -0.125493 0
14.030000 -0.310993 0
14.035000 -0.377022 4
14.040000 -0.348825 0
14.045000 -0.266855 0
14.050000 -0.172158 0
14.055000 -0.091628 0
14.060000 -0.033134 0
14.065000 0.008205 0
14.070000 0.040653 0
14.075000 0.070325 0
14.080000 0.100203 0
14.085000 0.131185 0
14.090000 0.163176 0
14.095000 0.195681 0
14.100000 0.228033 0
14.105000 0.259474 0
14.110000 0.289203 0
14.115000 0.316400 0
14.120000 0.340273 0
14.125000 0.360089 0
14.130000 0.375213 0
14.135000 0.385142 0
14.140000 0.389531 5
14.145000 0.388211 0
14.150000 0.381203 0
14.155000 0.368711 0
14.160000 0.351118 0
14.165000 0.328961 0
14.170000 0.302908 0
14.175000 0.273718 0
14.180000 0.242209 0
14.185000 0.209220 0
14.190000 0.175569 0
14.195000 0.142026 0
14.200000 0.109284 0
14.205000 0.077934 0
14.210000 0.048461 0
14.215000 0.021227 0
14.220000 -0.003520 0
14.225000 -0.025643 0
14.230000 -0.045106 0
14.235000 -0.061956 0
14.240000 -0.076311 0
14.245000 -0.088340 0
14.250000 -0.098247 0
14.255000 -0.106259 0
14.260000 -0.112608 0
14.265000 -0.117525 0
14.270000 -0.121229 0
14.275000 -0.123923 0
14.280000 -0.125788 0
14.285000 -0.126670 0
14.290000 -0.125698 0
14.295000 -0.124731 0
14.300000 -0.123769 0
14.305000 -0.122811 0
14.310000 -0.121857 0
14.315000 -0.120906 0
14.320000 -0.119957 0
14.325000 -0.119006 0
14.330000 -0.118047 0
14.335000 -0.117070 0
14.340000 -0.116055 0
14.345000 -0.114970 0
14.350000 -0.113762 0
14.355000 -0.112348 0
14.360000 -0.110601 0
14.365000 -0.108338 0
14.370000 -0.105305 0
14.375000 -0.101164 0
14.380000 -0.095494 0
14.385000 -0.087792 0
14.390000 -0.077509 0
14.395000 -0.064095 0
14.400000 -0.047076 0
14.405000 -0.026147 0
14.410000 -0.001281 0
14.415000 0.027179 0
14.420000 0.058444 0
14.425000 0.091263 0
14.430000 0.123963 0
14.435000 0.154573 0
14.440000 0.181008 0
14.445000 0.201299 0
14.450000 0.213837 0
14.455000 0.217580 1
14.460000 0.212199 0
14.465000 0.198128 0
14.470000 0.176500 0
14.475000 0.149001 0
14.480000 0.117644 0
14.485000 0.084490 0
14.490000 0.051291 0
14.495000 0.018961 0
14.500000 -0.013232 0
14.505000 -0.048430 0
14.510000 -0.091731 0
14.515000 -0.146755 0
14.520000 -0.209299 0
14.525000 -0.262043 0
14.530000 -0.275677 2
14.535000 -0.216695 0
14.540000 -0.057306 0
14.545000 0.212249 0
14.550000 0.563943 0
14.555000 0.914793 0
14.560000 1.143265 0
14.565000 1.151811 3
14.570000 0.933573 0
14.575000 0.573496 0
14.580000 0.191374 0
14.585000 -0.119269 0
14.590000 -0.314382 0
14.595000 -0.390318 4
14.600000 -0.369890 0
14.605000 -0.291706 0
14.610000 -0.196643 0
14.615000 -0.113235 0
14.620000 -0.051518 0
14.625000 -0.007939 0
14.630000 0.025560 0
14.635000 0.055480 0
14.640000 0.085244 0
14.645000 0.116025 0
14.650000 0.147869 0
14.655000 0.180350 0
14.660000 0.212843 0
14.665000 0.244629 0
14.670000 0.274930 0
14.675000 0.302948 0
14.680000 0.327899 0
14.685000 0.349046 0
14.690000 0.365737 0
14.695000 0.377438 0
14.700000 0.383758 0
14.705000 0.384473 5
14.710000 0.379538 0
14.715000 0.369089 0
14.720000 0.353437 0
14.725000 0.333051 0
14.730000 0.308535 0
14.735000 0.280600 0
14.740000 0.250025 0
14.745000 0.217624 0
14.750000 0.184210 0
14.755000 0.150560 0
14.760000 0.117389 0
14.765000 0.085324 0
14.770000 0.054890 0
14.775000 0.026503 0
14.780000 0.000460 0
14.785000 -0.023047 0
14.790000 -0.043933 0
14.795000 -0.062200 0
14.800000 -0.077928 0
14.805000 -0.091253 0
14.810000 -0.102358 0
14.815000 -0.111453 0
14.820000 -0.118762 0
14.825000 -0.124513 0
14.830000 -0.128928 0
14.835000 -0.132216 0
14.840000 -0.134569 0
14.845000 -0.136156 0
14.850000 -0.135515 0
14.855000 -0.134498 0
14.860000 -0.133487 0
14.865000 -0.132481 0
14.870000 -0.131479 0
14.875000 -0.130482 0
14.880000 -0.129487 0
14.885000 -0.128494 0
14.890000 -0.127499 0
14.895000 -0.126495 0
14.900000 -0.125469 0
14.905000 -0.124402 0
14.910000 -0.123259 0
14.915000 -0.121984 0
14.920000 -0.120490 0
14.925000 -0.118648 0
14.930000 -0.116270 0
14.935000 -0.113099 0
14.940000 -0.108798 0
14.945000 -0.102946 0
14.950000 -0.095049 0
14.955000 -0.084568 0
14.960000 -0.070967 0
14.965000 -0.053790 0
14.970000 -0.032747 0
14.975000 -0.007815 0
14.980000 0.020665 0
14.985000 0.051927 0
14.990000 0.084753 0
14.995000 0.117521 0
15.000000 0.148315 0
15.005000 0.175098 0
15.010000 0.195934 0
15.015000 0.209215 0
15.020000 0.213872 1
15.025000 0.209511 0
15.030000 0.196474 0
15.035000 0.175791 0
15.040000 0.149049 0
15.045000 0.118183 0
15.050000 0.085220 0
15.055000 0.051953 0
15.060000 0.019476 0
15.065000 -0.012541 0
15.070000 -0.046655 0
15.075000 -0.087599 0
15.080000 -0.139733 0
15.085000 -0.201422 0
15.090000 -0.259206 0
15.095000 -0.287005 2
15.100000 -0.252258 0
15.105000 -0.125167 0
15.110000 0.110790 0
15.115000 0.442235 0
15.120000 0.806031 0
15.125000 1.091121 0
15.130000 1.185347 3
15.135000 1.046181 0
15.140000 0.726995 0
15.145000 0.339850 0
15.150000 -0.008261 0
15.155000 -0.254399 0
15.160000 -0.380288 0
15.165000 -0.398446 4
15.170000 -0.341147 0
15.175000 -0.249292 0
15.180000 -0.157879 0
15.185000 -0.085336 0
15.190000 -0.033589 0
15.195000 0.004091 0
15.200000 0.035285 0
15.205000 0.064893 0
15.210000 0.095082 0
15.215000 0.126385 0
15.220000 0.158588 0
15.225000 0.191172 0
15.230000 0.223480 0
15.235000 0.254781 0
15.240000 0.284304 0
15.245000 0.311270 0
15.250000 0.334924 0
15.255000 0.354574 0
15.260000 0.369619 0
15.265000 0.379583 0
15.270000 0.384135 5
15.275000 0.383112 0
15.280000 0.376525 0
15.285000 0.364559 0
15.290000 0.347562 0
15.295000 0.326035 0
15.300000 0.300597 0
15.305000 0.271964 0
15.310000 0.240909 0
15.315000 0.208231 0
15.320000 0.174718 0
15.325000 0.141122 0
15.330000 0.108125 0
15.335000 0.076323 0
15.340000 0.046212 0
15.345000 0.018178 0
15.350000 -0.007501 0
15.355000 -0.030656 0
15.360000 -0.051214 0
15.365000 -0.069187 0
15.370000 -0.084659 0
15.375000 -0.097770 0
15.380000 -0.108700 0
15.385000 -0.117655 0
15.390000 -0.124856 0
15.395000 -0.130526 0
15.400000 -0.134882 0
15.405000 -0.138127 0
15.410000 -0.140449 0
15.415000 -0.142013 0
15.420000 -0.141344 0
15.425000 -0.140299 0
15.430000 -0.139259 0
15.435000 -0.138224 0
15.440000 -0.137193 0
15.445000 -0.136168 0
15.450000 -0.135145 0
15.455000 -0.134124 0
15.460000 -0.133102 0
15.465000 -0.132072 0
15.470000 -0.131023 0
15.475000 -0.129937 0
15.480000 -0.128782 0
15.485000 -0.127508 0
15.490000 -0.126035 0
15.495000 -0.124246 0
15.500000 -0.121968 0
15.505000 -0.118967 0
15.510000 -0.114929 0
15.515000 -0.109460 0
15.520000 -0.102094 0
15.525000 -0.092311 0
15.530000 -0.079580 0
15.535000 -0.063426 0
15.540000 -0.043509 0
15.545000 -0.019721 0
15.550000 0.007721 0
15.555000 0.038203 0
15.560000 0.070680 0
15.565000 0.103688 0
15.570000 0.135440 0
15.575000 0.163961 0
15.580000 0.187298 0
15.585000 0.203729 0
15.590000 0.211980 1
15.595000 0.211386 0
15.600000 0.201983 0
15.605000 0.184501 0
15.610000 0.160274 0
15.615000 0.131069 0
15.620000 0.098861 0
15.625000 0.065559 0
15.630000 0.032636 0
15.635000 0.000567 0
15.640000 -0.031963 0
15.645000 -0.068595 0
15.650000 -0.114306 0
15.655000 -0.171497 0
15.660000 -0.233939 0
15.665000 -0.282757 0
15.670000 -0.288722 2
15.675000 -0.219978 0
15.680000 -0.051149 0
15.685000 0.224946 0
15.690000 0.578703 0
15.695000 0.928779 0
15.700000 1.158620 0
15.705000 1.174342 3
15.710000 0.963867 0
15.715000 0.607267 0
15.720000 0.223671 0
15.725000 -0.091860 0
15.730000 -0.293231 0
15.735000 -0.375171 4
15.740000 -0.359250 0
15.745000 -0.283320 0
15.750000 -0.188352 0
15.755000 -0.103783 0
15.760000 -0.040709 0
15.765000 0.003794 0
15.770000 0.037689 0
15.775000 0.067649 0
15.780000 0.097290 0
15.785000 0.127907 0
15.790000 0.159604 0
15.795000 0.191981 0
15.800000 0.224429 0
15.805000 0.256238 0
15.810000 0.286637 0
15.815000 0.314836 0
15.820000 0.340049 0
15.825000 0.361538 0
15.830000 0.378644 0
15.835000 0.390823 0
15.840000 0.397669 0
15.845000 0.398942 5
15.850000 0.394576 0
15.855000 0.384687 0
15.860000 0.369562 0
15.865000 0.349653 0
15.870000 0.325546 0
15.875000 0.297935 0
15.880000 0.267589 0
15.885000 0.235316 0
15.890000 0.201926 0
15.895000 0.168199 0
15.900000 0.134856 0
15.905000 0.102534 0
15.910000 0.071771 0
15.915000 0.042996 0
15.920000 0.016524 0
15.925000 -0.007442 0
15.930000 -0.028800 0
15.935000 -0.047539 0
15.940000 -0.063728 0
15.945000 -0.077496 0
15.950000 -0.089015 0
15.955000 -0.098493 0
15.960000 -0.106150 0
15.965000 -0.112214 0
15.970000 -0.116907 0
15.975000 -0.120440 0
15.980000 -0.123006 0
15.985000 -0.124779 0
15.990000 -0.124214 0
15.995000 -0.123254 0
16.000000 -0.122299 0
16.005000 -0.121348 0
16.010000 -0.120402 0
16.015000 -0.119460 0
16.020000 -0.118521 0
16.025000 -0.117584 0
16.030000 -0.116645 0
16.035000 -0.115698 0
16.040000 -0.114734 0
16.045000 -0.113733 0
16.050000 -0.112665 0
16.055000 -0.111480 0
16.060000 -0.110099 0
16.065000 -0.108403 0
16.070000 -0.106222 0
16.075000 -0.103316 0
16.080000 -0.099369 0
16.085000 -0.093982 0
16.090000 -0.086678 0
16.095000 -0.076929 0
16.100000 -0.064196 0
16.105000 -0.047997 0
16.110000 -0.027992 0
16.115000 -0.004084 0
16.120000 0.023489 0
16.125000 0.054076 0
16.130000 0.086581 0
16.135000 0.119490 0
16.140000 0.150957 0
16.145000 0.178969 0
16.150000 0.201551 0
16.155000 0.216991 0
16.160000 0.224062 1
16.165000 0.222175 0
16.170000 0.211465 0
16.175000 0.192774 0
16.180000 0.167541 0
16.185000 0.137613 0
16.190000 0.105011 0
16.195000 0.071628 0
16.200000 0.038819 0
16.205000 0.006771 0
16.210000 -0.026331 0
16.215000 -0.064656 0
16.220000 -0.113132 0
16.225000 -0.172693 0
16.230000 -0.234038 0
16.235000 -0.274806 2
16.240000 -0.263699 0
16.245000 -0.169166 0
16.250000 0.030899 0
16.255000 0.335191 0
16.260000 0.698698 0
16.265000 1.023848 0
16.270000 1.191744 3
16.275000 1.129666 0
16.280000 0.859354 0
16.285000 0.481149 0
16.290000 0.111200 0
16.295000 -0.170980 0
16.300000 -0.334050 0
16.305000 -0.382405 4
16.310000 -0.343610 0
16.315000 -0.257836 0
16.320000 -0.163686 0
16.325000 -0.085113 0
16.330000 -0.028172 0
16.335000 0.012423 0
16.340000 0.044648 0
16.345000 0.074282 0
16.350000 0.104143 0
16.355000 0.135087 0
16.360000 0.167028 0
16.365000 0.199496 0
16.370000 0.231852 0
16.375000 0.263371 0
16.380000 0.293278 0
16.385000 0.320787 0
16.390000 0.345125 0
16.395000 0.365576 0
16.400000 0.381511 0
16.405000 0.392421 0
16.410000 0.397942 5
16.415000 0.397876 0
16.420000 0.392200 0
16.425000 0.381071 0
16.430000 0.364813 0
16.435000 0.343908 0
16.440000 0.318965 0
16.445000 0.290693 0
16.450000 0.259868 0
16.455000 0.227297 0
16.460000 0.193779 0
16.465000 0.160081 0
16.470000 0.126902 0
16.475000 0.094857 0
16.480000 0.064460 0
16.485000 0.036115 0
16.490000 0.010112 0
16.495000 -0.013365 0
16.500000 -0.034234 0
16.505000 -0.052501 0
16.510000 -0.068243 0
16.515000 -0.081599 0
16.520000 -0.092748 0
16.525000 -0.101897 0
16.530000 -0.109269 0
16.535000 -0.115089 0
16.540000 -0.119577 0
16.545000 -0.122939 0
16.550000 -0.125366 0
16.555000 -0.127026 0
16.560000 -0.126434 0
16.565000 -0.125463 0
16.570000 -0.124497 0
16.575000 -0.123536 0
16.580000 -0.122579 0
16.585000 -0.121626 0
16.590000 -0.120676 0
16.595000 -0.119727 0
16.600000 -0.118776 0
16.605000 -0.117817 0
16.610000 -0.116838 0
16.615000 -0.115821 0
16.620000 -0.114733 0
16.625000 -0.113521 0
16.630000 -0.112104 0
16.635000 -0.110361 0
16.640000 -0.108114 0
16.645000 -0.105120 0
16.650000 -0.101057 0
16.655000 -0.095522 0
16.660000 -0.088037 0
16.665000 -0.078073 0
16.670000 -0.065097 0
16.675000 -0.048637 0
16.680000 -0.028368 0
16.685000 -0.004214 0
16.690000 0.023566 0
16.695000 0.054300 0
16.700000 0.086874 0
16.705000 0.119765 0
16.710000 0.151125 0
16.715000 0.178953 0
16.720000 0.201290 0
16.725000 0.216454 0
16.730000 0.223244 1
16.735000 0.221097 0
16.740000 0.210171 0
16.745000 0.191317 0
16.750000 0.165978 0
16.755000 0.135996 0
16.760000 0.103378 0
16.765000 0.070001 0
16.770000 0.037206 0
16.775000 0.005166 0
16.780000 -0.027926 0
16.785000 -0.066215 0
16.790000 -0.114604 0
16.795000 -0.174073 0
16.800000 -0.235506 0
16.805000 -0.276846 2
16.810000 -0.267071 0
16.815000 -0.174744 0
16.820000 0.022445 0
16.825000 0.324070 0
16.830000 0.686954 0
16.835000 1.015615 0
16.840000 1.191582 3
16.845000 1.138924 0
16.850000 0.875222 0
16.855000 0.498905 0
16.860000 0.126871 0
16.865000 -0.159415 0
16.870000 -0.326939 0
16.875000 -0.379048 4
16.880000 -0.342686 0
16.885000 -0.257851 0
16.890000 -0.163506 0
16.895000 -0.084251 0
16.900000 -0.026673 0
16.905000 0.014298 0
16.910000 0.046664 0
16.915000 0.076308 0
16.920000 0.106129 0
16.925000 0.137026 0
16.930000 0.168930 0
16.935000 0.201378 0
16.940000 0.233732 0
16.945000 0.265269 0
16.950000 0.295213 0
16.955000 0.322777 0
16.960000 0.347187 0
16.965000 0.367723 0
16.970000 0.383753 0
16.975000 0.394765 0
16.980000 0.400390 0
16.985000 0.400427 5
16.990000 0.394849 0
16.995000 0.383808 0
17.000000 0.367629 0
17.005000 0.346789 0
17.010000 0.321896 0
17.015000 0.293660 0
17.020000 0.262857 0
17.025000 0.230293 0
17.030000 0.196771 0
17.035000 0.163057 0
17.040000 0.129855 0
17.045000 0.097781 0
17.050000 0.067350 0
17.055000 0.038968 0
17.060000 0.012927 0
17.065000 -0.010587 0
17.070000 -0.031492 0
17.075000 -0.049792 0
17.080000 -0.065565 0
17.085000 -0.078949 0
17.090000 -0.090123 0
17.095000 -0.099295 0
17.100000 -0.106688 0
17.105000 -0.112526 0
17.110000 -0.117030 0
17.115000 -0.120408 0
17.120000 -0.122848 0
17.125000 -0.124522 0
17.130000 -0.123942 0
17.135000 -0.122984 0
17.140000 -0.122030 0
17.145000 -0.121081 0
17.150000 -0.120136 0
17.155000 -0.119196 0
17.160000 -0.118258 0
17.165000 -0.117321 0
17.170000 -0.116382 0
17.175000 -0.115435 0
17.180000 -0.114468 0
17.185000 -0.113462 0
17.190000 -0.112385 0
17.195000 -0.111183 0
17.200000 -0.109776 0
17.205000 -0.108040 0
17.210000 -0.105797 0
17.215000 -0.102805 0
17.220000 -0.098738 0
17.225000 -0.093193 0
17.230000 -0.085689 0
17.235000 -0.075697 0
17.240000 -0.062683 0
17.245000 -0.046176 0
17.250000 -0.025855 0
17.255000 -0.001646 0
17.260000 0.026182 0
17.265000 0.056951 0
17.270000 0.089537 0
17.275000 0.122406 0
17.280000 0.153704 0
17.285000 0.181425 0
17.290000 0.203613 0
17.295000 0.218590 0
17.300000 0.225166 1
17.305000 0.222795 0
17.310000 0.211652 0
17.315000 0.192605 0
17.320000 0.167111 0
17.325000 0.137023 0
17.330000 0.104351 0
17.335000 0.070967 0
17.340000 0.038189 0
17.345000 0.006145 0
17.350000 -0.027042 0
17.355000 -0.065585 0
17.360000 -0.114356 0
17.365000 -0.174109 0
17.370000 -0.235308 0
17.375000 -0.275468 2
17.380000 -0.263364 0
17.385000 -0.167664 0
17.390000 0.033446 0
17.395000 0.338370 0
17.400000 0.701968 0
17.405000 1.026955 0
17.410000 1.195014 3
17.415000 1.130069 0
17.420000 0.854448 0
17.425000 0.474029 0
17.430000 0.108550 0
17.435000 -0.162994 0
17.440000 -0.312100 0
17.445000 -0.346657 4
17.450000 -0.297841 0
17.455000 -0.208244 0
17.460000 -0.116087 0
17.465000 -0.042461 0
17.470000 0.009689 0
17.475000 0.047240 0
17.480000 0.078165 0
17.485000 0.107566 0
17.490000 0.137630 0
17.495000 0.168841 0
17.500000 0.200931 0
17.505000 0.233330 0
17.510000 0.265330 0
17.515000 0.296153 0
17.520000 0.324980 0
17.525000 0.350994 0
17.530000 0.373413 0
17.535000 0.391531 0
17.540000 0.404752 0
17.545000 0.412623 0
17.550000 0.414857 5
17.555000 0.411354 0
17.560000 0.402199 0
17.565000 0.387665 0
17.570000 0.368198 0
17.575000 0.344388 0
17.580000 0.316946 0
17.585000 0.286662 0
17.590000 0.254370 0
17.595000 0.220911 0
17.600000 0.187092 0
17.605000 0.153659 0
17.610000 0.121274 0
17.615000 0.090490 0
17.620000 0.061745 0
17.625000 0.035359 0
17.630000 0.011535 0
17.635000 -0.009632 0
17.640000 -0.028141 0
17.645000 -0.044071 0
17.650000 -0.057562 0
17.655000 -0.068802 0
17.660000 -0.078007 0
17.665000 -0.085408 0
17.670000 -0.091240 0
17.675000 -0.095730 0
17.680000 -0.099093 0
17.685000 -0.101524 0
17.690000 -0.103196 0
17.695000 -0.102707 0
17.700000 -0.101854 0
17.705000 -0.101006 0
17.710000 -0.100161 0
17.715000 -0.099321 0
17.720000 -0.098483 0
17.725000 -0.097648 0
17.730000 -0.096812 0
17.735000 -0.095972 0
17.740000 -0.095120 0
17.745000 -0.094240 0
17.750000 -0.093309 0
17.755000 -0.092285 0
17.760000 -0.091102 0
17.765000 -0.089657 0
17.770000 -0.087798 0
17.775000 -0.085308 0
17.780000 -0.081892 0
17.785000 -0.077169 0
17.790000 -0.070673 0
17.795000 -0.061870 0
17.800000 -0.050201 0
17.805000 -0.035139 0
17.810000 -0.016280 0
17.815000 0.006556 0
17.820000 0.033218 0
17.825000 0.063139 0
17.830000 0.095287 0
17.835000 0.128175 0
17.840000 0.159948 0
17.845000 0.188535 0
17.850000 0.211872 0
17.855000 0.228138 0
17.860000 0.235994 1
17.865000 0.234762 0
17.870000 0.224521 0
17.875000 0.206097 0
17.880000 0.180954 0
17.885000 0.150998 0
17.890000 0.118317 0
17.895000 0.084866 0
17.900000 0.052025 0
17.905000 0.019910 0
17.910000 -0.013508 0
17.915000 -0.052701 0
17.920000 -0.102614 0
17.925000 -0.163292 0
17.930000 -0.223345 0
17.935000 -0.257828 2
17.940000 -0.233659 0
17.945000 -0.119210 0
17.950000 0.104889 0
17.955000 0.429136 0
17.960000 0.793733 0
17.965000 1.087178 0
17.970000 1.192172 3
17.975000 1.058648 0
17.980000 0.739383 0
17.985000 0.352157 0
17.990000 0.008586 0
17.995000 -0.227817 0
18.000000 -0.340936 0
18.005000 -0.346710 4
18.010000 -0.281162 0
18.015000 -0.187383 0
18.020000 -0.099433 0
18.025000 -0.032537 0
18.030000 0.014365 0
18.035000 0.049222 0
18.040000 0.079342 0
18.045000 0.108854 0
18.050000 0.139301 0
18.055000 0.170865 0
18.060000 0.203155 0
18.065000 0.235550 0
18.070000 0.267313 0
18.075000 0.297649 0
18.080000 0.325735 0
18.085000 0.350759 0
18.090000 0.371957 0
18.095000 0.388653 0
18.100000 0.400291 0
18.105000 0.406466 0
18.110000 0.406949 5
18.115000 0.401696 0
18.120000 0.390853 0
18.125000 0.374750 0
18.130000 0.353881 0
18.135000 0.328879 0
18.140000 0.300485 0
18.145000 0.269508 0
18.150000 0.236790 0
18.155000 0.203165 0
18.160000 0.169427 0
18.165000 0.136297 0
18.170000 0.104405 0
18.175000 0.074268 0
18.180000 0.046289 0
18.185000 0.020747 0
18.190000 -0.002189 0
18.195000 -0.022456 0
18.200000 -0.040081 0
18.205000 -0.055164 0
18.210000 -0.067865 0
18.215000 -0.078381 0
18.220000 -0.086936 0
18.225000 -0.093763 0
18.230000 -0.099097 0
18.235000 -0.103161 0
18.240000 -0.106163 0
18.245000 -0.108293 0
18.250000 -0.109382 0
18.255000 -0.108496 0
18.260000 -0.107614 0
18.265000 -0.106737 0
18.270000 -0.105864 0
18.275000 -0.104995 0
18.280000 -0.104129 0
18.285000 -0.103264 0
18.290000 -0.102398 0
18.295000 -0.101526 0
18.300000 -0.100637 0
18.305000 -0.099714 0
18.310000 -0.098728 0
18.315000 -0.097630 0
18.320000 -0.096342 0
18.325000 -0.094746 0
18.330000 -0.092670 0
18.335000 -0.089869 0
18.340000 -0.086020 0
18.345000 -0.080710 0
18.350000 -0.073447 0
18.355000 -0.063681 0
18.360000 -0.050854 0
18.365000 -0.034472 0
18.370000 -0.014196 0
18.375000 0.010048 0
18.380000 0.037974 0
18.385000 0.068851 0
18.390000 0.101480 0
18.395000 0.134227 0
18.400000 0.165137 0
18.405000 0.192111 0
18.410000 0.213141 0
18.415000 0.226551 0
18.420000 0.231218 1
18.425000 0.226729 0
18.430000 0.213439 0
18.435000 0.192423 0
18.440000 0.165332 0
18.445000 0.134174 0
18.450000 0.101033 0
18.455000 0.067718 0
18.460000 0.035248 0
18.465000 0.003054 0
18.470000 -0.031832 0
18.475000 -0.074466 0
18.480000 -0.128783 0
18.485000 -0.191281 0
18.490000 -0.245404 0
18.495000 -0.262189 2
18.500000 -0.207872 0
18.505000 -0.053909 0
18.510000 0.210801 0
18.515000 0.560238 0
18.520000 0.913175 0
18.525000 1.147827 0
18.530000 1.163882 3
18.535000 0.949375 0
18.540000 0.589475 0
18.545000 0.207945 0
18.550000 -0.099234 0
18.555000 -0.288074 0
18.560000 -0.356475 4
18.565000 -0.329517 0
18.570000 -0.247958 0
18.575000 -0.153357 0
18.580000 -0.072970 0
18.585000 -0.014729 0
18.590000 0.026351 0
18.595000 0.058615 0
18.600000 0.088182 0
18.605000 0.118004 0
18.610000 0.148944 0
18.615000 0.180886 0
18.620000 0.213319 0
18.625000 0.245562 0
18.630000 0.276847 0
18.635000 0.306359 0
18.640000 0.333273 0
18.645000 0.356787 0
18.650000 0.376169 0
18.655000 0.390785 0
18.660000 0.400139 0
18.665000 0.403898 5
18.670000 0.401910 0
18.675000 0.394215 0
18.680000 0.381040 0
18.685000 0.362792 0
18.690000 0.340031 0
18.695000 0.313445 0
18.700000 0.283814 0
18.705000 0.251969 0
18.710000 0.218757 0
18.715000 0.185001 0
18.720000 0.151469 0
18.725000 0.118845 0
18.730000 0.087713 0
18.735000 0.058539 0
18.740000 0.031671 0
18.745000 0.007337 0
18.750000 -0.014344 0
18.755000 -0.033354 0
18.760000 -0.049755 0
18.765000 -0.063679 0
18.770000 -0.075305 0
18.775000 -0.084846 0
18.780000 -0.092533 0
18.785000 -0.098603 0
18.790000 -0.103285 0
18.795000 -0.106799 0
18.800000 -0.109344 0
18.805000 -0.111099 0
18.810000 -0.110587 0
18.815000 -0.109696 0
18.820000 -0.108808 0
18.825000 -0.107925 0
18.830000 -0.107046 0
18.835000 -0.106170 0
18.840000 -0.105297 0
18.845000 -0.104424 0
18.850000 -0.103547 0
18.855000 -0.102660 0
18.860000 -0.101749 0
18.865000 -0.100790 0
18.870000 -0.099746 0
18.875000 -0.098554 0
18.880000 -0.097116 0
18.885000 -0.095286 0
18.890000 -0.092857 0
18.895000 -0.089541 0
18.900000 -0.084968 0
18.905000 -0.078678 0
18.910000 -0.070142 0
18.915000 -0.058795 0
18.920000 -0.044102 0
18.925000 -0.025638 0
18.930000 -0.003191 0
18.935000 0.023127 0
18.940000 0.052794 0
18.945000 0.084818 0
18.950000 0.117747 0
18.955000 0.149745 0
18.960000 0.178741 0
18.965000 0.202648 0
18.970000 0.219605 0
18.975000 0.228216 1
18.980000 0.227740 0
18.985000 0.218196 0
18.990000 0.200361 0
18.995000 0.175666 0
19.000000 0.146003 0
19.005000 0.113470 0
19.010000 0.080053 0
19.015000 0.047191 0
19.020000 0.015098 0
19.025000 -0.018127 0
19.030000 -0.056873 0
19.035000 -0.106185 0
19.040000 -0.166492 0
19.045000 -0.226946 0
19.050000 -0.262965 2
19.055000 -0.241430 0
19.060000 -0.130314 0
19.065000 0.090473 0
19.070000 0.412552 0
19.075000 0.777342 0
19.080000 1.073660 0
19.085000 1.182941 3
19.090000 1.050614 0
19.095000 0.729644 0
19.100000 0.342451 0
19.105000 0.003534 0
19.110000 -0.224009 0
19.115000 -0.326294 4
19.120000 -0.322213 0
19.125000 -0.250710 0
19.130000 -0.156179 0
19.135000 -0.071370 0
19.140000 -0.008749 0
19.145000 0.034877 0
19.150000 0.068069 0
19.155000 0.097725 0
19.160000 0.127360 0
19.165000 0.158094 0
19.170000 0.189889 0
19.175000 0.222245 0
19.180000 0.254468 0
19.185000 0.285769 0
19.190000 0.315306 0
19.195000 0.342223 0
19.200000 0.365693 0
19.205000 0.384955 0
19.210000 0.399356 0
19.215000 0.408388 0
19.220000 0.411716 5
19.225000 0.409194 0
19.230000 0.400880 0
19.235000 0.387030 0
19.240000 0.368083 0
19.245000 0.344639 0
19.250000 0.317428 0
19.255000 0.287266 0
19.260000 0.255021 0
19.265000 0.221567 0
19.270000 0.187744 0
19.275000 0.154328 0
19.280000 0.122004 0
19.285000 0.091341 0
19.290000 0.062787 0
19.295000 0.036664 0
19.300000 0.013168 0
19.305000 -0.007613 0
19.310000 -0.025692 0
19.315000 -0.041165 0
19.320000 -0.054187 0
19.325000 -0.064960 0
19.330000 -0.073716 0
19.335000 -0.080695 0
19.340000 -0.086142 0
19.345000 -0.090288 0
19.350000 -0.093352 0
19.355000 -0.095528 0
19.360000 -0.096659 0
19.365000 -0.095837 0
19.370000 -0.095018 0
19.375000 -0.094204 0
19.380000 -0.093393 0
19.385000 -0.092586 0
19.390000 -0.091781 0
19.395000 -0.090978 0
19.400000 -0.090171 0
19.405000 -0.089356 0
19.410000 -0.088521 0
19.415000 -0.087645 0
19.420000 -0.086693 0
19.425000 -0.085607 0
19.430000 -0.084295 0
19.435000 -0.082619 0
19.440000 -0.080375 0
19.445000 -0.077283 0
19.450000 -0.072971 0
19.455000 -0.066976 0
19.460000 -0.058758 0
19.465000 -0.047735 0
19.470000 -0.033345 0
19.475000 -0.015139 0
19.480000 0.007117 0
19.485000 0.033319 0
19.490000 0.062935 0
19.495000 0.094940 0
19.500000 0.127822 0
19.505000 0.159670 0
19.510000 0.188336 0
19.515000 0.211670 0
19.520000 0.227777 0
19.525000 0.235276 1
19.530000 0.233492 0
19.535000 0.222555 0
19.540000 0.203382 0
19.545000 0.177552 0
19.550000 0.147084 0
19.555000 0.114152 0
19.560000 0.080729 0
19.565000 0.048068 0
19.570000 0.015909 0
19.575000 -0.018449 0
19.580000 -0.060084 0
19.585000 -0.113442 0
19.590000 -0.175786 0
19.595000 -0.230872 0
19.600000 -0.249099 2
19.605000 -0.195428 0
19.610000 -0.040169 0
19.615000 0.227794 0
19.620000 0.579720 0
19.625000 0.928330 0
19.630000 1.146427 3
19.635000 1.136033 0
19.640000 0.897946 0
19.645000 0.528383 0
19.650000 0.152755 0
19.655000 -0.138259 0
19.660000 -0.307242 0
19.665000 -0.357285 4
19.670000 -0.317435 0
19.675000 -0.230567 0
19.680000 -0.137241 0
19.685000 -0.061325 0
19.690000 -0.007425 0
19.695000 0.031002 0
19.700000 0.062234 0
19.705000 0.091714 0
19.710000 0.121810 0
19.715000 0.153067 0
19.720000 0.185224 0
19.725000 0.217700 0
19.730000 0.249772 0
19.735000 0.280639 0
19.740000 0.309463 0
19.745000 0.335409 0
19.750000 0.357676 0
19.755000 0.375547 0
19.760000 0.388422 0
19.765000 0.395847 0
19.770000 0.397549 5
19.775000 0.393443 0
19.780000 0.383641 0
19.785000 0.368446 0
19.790000 0.348337 0
19.795000 0.323941 0
19.800000 0.296001 0
19.805000 0.265340 0
19.810000 0.232814 0
19.815000 0.199281 0
19.820000 0.165557 0
19.825000 0.132390 0
19.830000 0.100429 0
19.835000 0.070214 0
19.840000 0.042161 0
19.845000 0.016564 0
19.850000 -0.006402 0
19.855000 -0.026670 0
19.860000 -0.044268 0
19.865000 -0.059297 0
19.870000 -0.071920 0
19.875000 -0.082342 0
19.880000 -0.090790 0
19.885000 -0.097504 0
19.890000 -0.102723 0
19.895000 -0.106675 0
19.900000 -0.109572 0
19.905000 -0.111604 0
19.910000 -0.112615 0
19.915000 -0.111713 0
19.920000 -0.110816 0
19.925000 -0.109923 0
19.930000 -0.109034 0
19.935000 -0.108148 0
19.940000 -0.107266 0
19.945000 -0.106385 0
19.950000 -0.105501 0
19.955000 -0.104610 0
19.960000 -0.103699 0
19.965000 -0.102747 0
19.970000 -0.101722 0
19.975000 -0.100566 0
19.980000 -0.099190 0
19.985000 -0.097459 0
19.990000 -0.095177 0
19.995000 -0.092071 0
20.000000 -0.087781 0
20.005000 -0.081857 0
20.010000 -0.073772 0
20.015000 -0.062953 0
20.020000 -0.048844 0
20.025000 -0.030986 0
20.030000 -0.009122 0
20.035000 0.016690 0
20.040000 0.045980 0
20.045000 0.077802 0
20.050000 0.110731 0
20.055000 0.142932 0
20.060000 0.172314 0
20.065000 0.196740 0
20.070000 0.214287 0
20.075000 0.223490 0
20.080000 0.223545 1
20.085000 0.214429 0
20.090000 0.196898 0
20.095000 0.172388 0
20.100000 0.142816 0
20.105000 0.110318 0
20.110000 0.076917 0
20.115000 0.044079 0
20.120000 0.012001 0
20.125000 -0.021304 0
20.130000 -0.060365 0
20.135000 -0.110249 0
20.140000 -0.170975 0
20.145000 -0.230686 0
20.150000 -0.263531 2
20.155000 -0.235513 0
20.160000 -0.114598 0
20.165000 0.117773 0
20.170000 0.448693 0
20.175000 0.811805 0
20.180000 1.089521 0
20.185000 1.165928 3
20.190000 1.003598 0
20.195000 0.668215 0
20.200000 0.281341 0
20.205000 -0.049938 0
20.210000 -0.269015 0
20.215000 -0.365106 4
20.220000 -0.357790 0
20.225000 -0.285264 0
20.230000 -0.190511 0
20.235000 -0.105236 0
20.240000 -0.041769 0
20.245000 0.002706 0
20.250000 0.036457 0
20.255000 0.066365 0
20.260000 0.096068 0
20.265000 0.126807 0
20.270000 0.158625 0
20.275000 0.191073 0
20.280000 0.223499 0
20.285000 0.255151 0
20.290000 0.285219 0
20.295000 0.312875 0
20.300000 0.337310 0
20.305000 0.357768 0
20.310000 0.373590 0
20.315000 0.384246 0
20.320000 0.389362 5
20.325000 0.388745 0
20.330000 0.382389 0
20.335000 0.370482 0
20.340000 0.353392 0
20.345000 0.331648 0
20.350000 0.305914 0
20.355000 0.276953 0
20.360000 0.245590 0
20.365000 0.212673 0
20.370000 0.179035 0
20.375000 0.145459 0
20.380000 0.112652 0
20.385000 0.081219 0
20.390000 0.051655 0
20.395000 0.024334 0
20.400000 -0.000491 0
20.405000 -0.022679 0
20.410000 -0.042189 0
20.415000 -0.059070 0
20.420000 -0.073439 0
20.425000 -0.085468 0
20.430000 -0.095365 0
20.435000 -0.103357 0
20.440000 -0.109682 0
20.445000 -0.114572 0
20.450000 -0.118249 0
20.455000 -0.120917 0
20.460000 -0.122760 0
20.465000 -0.122212 0
20.470000 -0.121262 0
20.475000 -0.120317 0
20.480000 -0.119376 0
20.485000 -0.118440 0
20.490000 -0.117508 0
20.495000 -0.116579 0
20.500000 -0.115651 0
20.505000 -0.114720 0
20.510000 -0.113781 0
20.515000 -0.112821 0
20.520000 -0.111820 0
20.525000 -0.110742 0
20.530000 -0.109531 0
20.535000 -0.108097 0
20.540000 -0.106303 0
20.545000 -0.103955 0
20.550000 -0.100781 0
20.555000 -0.096426 0
20.560000 -0.090447 0
20.565000 -0.082323 0
20.570000 -0.071494 0
20.575000 -0.057410 0
20.580000 -0.039618 0
20.585000 -0.017858 0
20.590000 0.007824 0
20.595000 0.036988 0
20.600000 0.068728 0
20.605000 0.101670 0
20.610000 0.134036 0
20.615000 0.163780 0
20.620000 0.188796 0
20.625000 0.207163 0
20.630000 0.217383 0
20.635000 0.218587 1
20.640000 0.210655 0
20.645000 0.194236 0
20.650000 0.170662 0
20.655000 0.141764 0
20.660000 0.109626 0
20.665000 0.076284 0
20.670000 0.043314 0
20.675000 0.011202 0
20.680000 -0.021538 0
20.685000 -0.058919 0
20.690000 -0.106162 0
20.695000 -0.164962 0
20.700000 -0.226706 0
20.705000 -0.268911 2
20.710000 -0.259207 0
20.715000 -0.164637 0
20.720000 0.037785 0
20.725000 0.345843 0
20.730000 0.710183 0
20.735000 1.026302 0
20.740000 1.171717 3
20.745000 1.078003 0
20.750000 0.781388 0
20.755000 0.396485 0
20.760000 0.042190 0
20.765000 -0.209121 0
20.770000 -0.335737 0
20.775000 -0.350934 4
20.780000 -0.289995 0
20.785000 -0.196998 0
20.790000 -0.107986 0
20.795000 -0.039858 0
20.800000 0.007770 0
20.805000 0.042904 0
20.810000 0.073097 0
20.815000 0.102637 0
20.820000 0.133122 0
20.825000 0.164735 0
20.830000 0.197072 0
20.835000 0.229492 0
20.840000 0.261239 0
20.845000 0.291497 0
20.850000 0.319422 0
20.855000 0.344185 0
20.860000 0.365012 0
20.865000 0.381220 0
20.870000 0.392257 0
20.875000 0.397727 5
20.880000 0.397422 0
20.885000 0.391323 0
20.890000 0.379611 0
20.895000 0.362652 0
20.900000 0.340980 0
20.905000 0.315266 0
20.910000 0.286285 0
20.915000 0.254876 0
20.920000 0.221903 0
20.925000 0.188210 0
20.930000 0.154596 0
20.935000 0.121776 0
20.940000 0.090364 0
20.945000 0.060857 0
20.950000 0.033628 0
20.955000 0.008930 0
20.960000 -0.013103 0
20.965000 -0.032436 0
20.970000 -0.049125 0
20.975000 -0.063297 0
20.980000 -0.075130 0
20.985000 -0.084839 0
20.990000 -0.092656 0
20.995000 -0.098824 0
21.000000 -0.103578 0
21.005000 -0.107140 0
21.010000 -0.109717 0
21.015000 -0.111490 0
21.020000 -0.110979 0
21.025000 -0.110085 0
21.030000 -0.109196 0
21.035000 -0.108311 0
21.040000 -0.107429 0
21.045000 -0.106552 0
21.050000 -0.105677 0
21.055000 -0.104801 0
21.060000 -0.103923 0
21.065000 -0.103032 0
21.070000 -0.102116 0
21.075000 -0.101150 0
21.080000 -0.100092 0
21.085000 -0.098877 0
21.090000 -0.097400 0
21.095000 -0.095506 0
21.100000 -0.092973 0
21.105000 -0.089499 0
21.110000 -0.084692 0
21.115000 -0.078070 0
21.120000 -0.069086 0
21.125000 -0.057165 0
21.130000 -0.041773 0
21.135000 -0.022511 0
21.140000 0.000779 0
21.145000 0.027902 0
21.150000 0.058223 0
21.155000 0.090621 0
21.160000 0.123513 0
21.165000 0.154949 0
21.170000 0.182795 0
21.175000 0.204958 0
21.180000 0.219652 0
21.185000 0.225629 1
21.190000 0.222356 0
21.195000 0.210093 0
21.200000 0.189859 0
21.205000 0.163290 0
21.210000 0.132415 0
21.215000 0.099372 0
21.220000 0.066047 0
21.225000 0.033548 0
21.230000 0.001392 0
21.235000 -0.033363 0
21.240000 -0.075854 0
21.245000 -0.130143 0
21.250000 -0.192643 0
21.255000 -0.246266 0
21.260000 -0.261183 2
21.265000 -0.202874 0
21.270000 -0.042651 0
21.275000 0.229251 0
21.280000 0.582685 0
21.285000 0.930001 0
21.290000 1.145555 3
21.295000 1.133662 0
21.300000 0.896677 0
21.305000 0.528446 0
21.310000 0.151094 0
21.315000 -0.145503 0
21.320000 -0.322654 0
21.325000 -0.381329 4
21.330000 -0.348149 0
21.335000 -0.264116 0
21.340000 -0.169724 0
21.345000 -0.090600 0
21.350000 -0.033473 0
21.355000 0.007036 0
21.360000 0.039163 0
21.365000 0.068803 0
21.370000 0.098761 0
21.375000 0.129837 0
21.380000 0.161897 0
21.385000 0.194431 0
21.390000 0.226763 0
21.395000 0.258133 0
21.400000 0.287735 0
21.405000 0.314751 0
21.410000 0.338391 0
21.415000 0.357929 0
21.420000 0.372737 0
21.425000 0.382321 0
21.430000 0.386348 5
21.435000 0.384663 0
21.440000 0.377296 0
21.445000 0.364467 0
21.450000 0.346567 0
21.455000 0.324145 0
21.460000 0.297873 0
21.465000 0.268519 0
21.470000 0.236902 0
21.475000 0.203859 0
21.480000 0.170207 0
21.485000 0.136713 0
21.490000 0.104061 0
21.495000 0.072839 0
21.500000 0.043519 0
21.505000 0.016460 0
21.510000 -0.008100 0
21.515000 -0.030031 0
21.520000 -0.049303 0
21.525000 -0.065968 0
21.530000 -0.080148 0
21.535000 -0.092014 0
21.540000 -0.101774 0
21.545000 -0.109653 0
21.550000 -0.115885 0
21.555000 -0.120700 0
21.560000 -0.124317 0
21.565000 -0.126936 0
21.570000 -0.128738 0
21.575000 -0.128159 0
21.580000 -0.127180 0
21.585000 -0.126205 0
21.590000 -0.125235 0
21.595000 -0.124270 0
21.600000 -0.123308 0
21.605000 -0.122350 0
21.610000 -0.121393 0
21.615000 -0.120435 0
21.620000 -0.119468 0
21.625000 -0.118482 0
21.630000 -0.117456 0
21.635000 -0.116358 0
21.640000 -0.115132 0
21.645000 -0.113692 0
21.650000 -0.111910 0
21.655000 -0.109598 0
21.660000 -0.106495 0
21.665000 -0.102261 0
21.670000 -0.096465 0
21.675000 -0.088603 0
21.680000 -0.078123 0
21.685000 -0.064477 0
21.690000 -0.047199 0
21.695000 -0.026001 0
21.700000 -0.000875 0
21.705000 0.027806 0
21.710000 0.059224 0
21.715000 0.092097 0
21.720000 0.124729 0
21.725000 0.155135 0
21.730000 0.181229 0
21.735000 0.201060 0
21.740000 0.213049 0
21.745000 0.216199 1
21.750000 0.210231 0
21.755000 0.195626 0
21.760000 0.173561 0
21.765000 0.145751 0
21.770000 0.114219 0
21.775000 0.081020 0
21.780000 0.047870 0
21.785000 0.015601 0
21.790000 -0.016658 0
21.795000 -0.052217 0
21.800000 -0.096219 0
21.805000 -0.151985 0
21.810000 -0.214565 0
21.815000 -0.265729 0
21.820000 -0.275603 2
21.825000 -0.210750 0
21.830000 -0.044128 0
21.835000 0.232231 0
21.840000 0.587038 0
21.845000 0.933735 0
21.850000 1.150064 3
21.855000 1.142713 0
21.860000 0.910975 0
21.865000 0.545552 0
21.870000 0.165850 0
21.875000 -0.137934 0
21.880000 -0.324999 0
21.885000 -0.393818 4
21.890000 -0.368483 0
21.895000 -0.288112 0
21.900000 -0.193111 0
21.905000 -0.110882 0
21.910000 -0.050401 0
21.915000 -0.007614 0
21.920000 0.025548 0
21.925000 0.055405 0
21.930000 0.085216 0
21.935000 0.116067 0
21.940000 0.147965 0
21.945000 0.180469 0
21.950000 0.212953 0
21.955000 0.244692 0
21.960000 0.274911 0
21.965000 0.302812 0
21.970000 0.327615 0
21.975000 0.348587 0
21.980000 0.365082 0
21.985000 0.376574 0
21.990000 0.382678 0
21.995000 0.383178 5
22.000000 0.378037 0
22.005000 0.367397 0
22.010000 0.351573 0
22.015000 0.331040 0
22.020000 0.306405 0
22.025000 0.278379 0
22.030000 0.247742 0
22.035000 0.215306 0
22.040000 0.181881 0
22.045000 0.148242 0
22.050000 0.115099 0
22.055000 0.083076 0
22.060000 0.052695 0
22.065000 0.024366 0
22.070000 -0.001615 0
22.075000 -0.025061 0
22.080000 -0.045888 0
22.085000 -0.064100 0
22.090000 -0.079776 0
22.095000 -0.093057 0
22.100000 -0.104122 0
22.105000 -0.113183 0
22.110000 -0.120462 0
22.115000 -0.126189 0
22.120000 -0.130583 0
22.125000 -0.133854 0
22.130000 -0.136191 0
22.135000 -0.137766 0
22.140000 -0.137116 0
22.145000 -0.136092 0
22.150000 -0.135073 0
22.155000 -0.134059 0
22.160000 -0.133049 0
22.165000 -0.132044 0
22.170000 -0.131042 0
22.175000 -0.130041 0
22.180000 -0.129038 0
22.185000 -0.128026 0
22.190000 -0.126993 0
22.195000 -0.125919 0
22.200000 -0.124769 0
22.205000 -0.123488 0
22.210000 -0.121990 0
22.215000 -0.120145 0
22.220000 -0.117768 0
22.225000 -0.114603 0
22.230000 -0.110314 0
22.235000 -0.104484 0
22.240000 -0.096620 0
22.245000 -0.086184 0
22.250000 -0.072643 0
22.255000 -0.055537 0
22.260000 -0.034573 0
22.265000 -0.009722 0
22.270000 0.018686 0
22.275000 0.049897 0
22.280000 0.082706 0
22.285000 0.115507 0
22.290000 0.146392 0
22.295000 0.173329 0
22.300000 0.194382 0
22.305000 0.207932 0
22.310000 0.212892 1
22.315000 0.208845 0
22.320000 0.196108 0
22.325000 0.175687 0
22.330000 0.149146 0
22.335000 0.118408 0
22.340000 0.085496 0
22.345000 0.052219 0
22.350000 0.019708 0
22.355000 -0.012289 0
22.360000 -0.046213 0
22.365000 -0.086719 0
22.370000 -0.138283 0
22.375000 -0.199705 0
22.380000 -0.258201 0
22.385000 -0.288278 2
22.390000 -0.257558 0
22.395000 -0.135934 0
22.400000 0.094124 0
22.405000 0.421436 0
22.410000 0.786051 0
22.415000 1.079037 0
22.420000 1.186617 3
22.425000 1.058571 0
22.430000 0.743390 0
22.435000 0.356455 0
22.440000 0.009197 0
22.445000 -0.233416 0
22.450000 -0.353482 0
22.455000 -0.365251 4
22.460000 -0.303311 0
22.465000 -0.210221 0
22.470000 -0.120798 0
22.475000 -0.051724 0
22.480000 -0.003074 0
22.485000 0.032737 0
22.490000 0.063190 0
22.495000 0.092716 0
22.500000 0.123076 0
22.505000 0.154564 0
22.510000 0.186845 0
22.515000 0.219326 0
22.520000 0.251296 0
22.525000 0.281975 0
22.530000 0.310555 0
22.535000 0.336229 0
22.540000 0.358235 0
22.545000 0.375887 0
22.550000 0.388610 0
22.555000 0.395976 0
22.560000 0.397721 5
22.565000 0.393763 0
22.570000 0.384206 0
22.575000 0.369334 0
22.580000 0.349601 0
22.585000 0.325600 0
22.590000 0.298039 0
22.595000 0.267703 0
22.600000 0.235418 0
22.605000 0.202012 0
22.610000 0.168282 0
22.615000 0.134962 0
22.620000 0.102700 0
22.625000 0.072042 0
22.630000 0.043417 0
22.635000 0.017139 0
22.640000 -0.006591 0
22.645000 -0.027681 0
22.650000 -0.046128 0
22.655000 -0.062011 0
22.660000 -0.075466 0
22.665000 -0.086679 0
22.670000 -0.095862 0
22.675000 -0.103244 0
22.680000 -0.109056 0
22.685000 -0.113524 0
22.690000 -0.116860 0
22.695000 -0.119258 0
22.700000 -0.120891 0
22.705000 -0.120321 0
22.710000 -0.119381 0
22.715000 -0.118445 0
22.720000 -0.117514 0
22.725000 -0.116586 0
22.730000 -0.115663 0
22.735000 -0.114742 0
22.740000 -0.113822 0
22.745000 -0.112899 0
22.750000 -0.111965 0
22.755000 -0.111007 0
22.760000 -0.110002 0
22.765000 -0.108914 0
22.770000 -0.107680 0
22.775000 -0.106206 0
22.780000 -0.104351 0
22.785000 -0.101913 0
22.790000 -0.098614 0
22.795000 -0.094095 0
22.800000 -0.087911 0
22.805000 -0.079545 0
22.810000 -0.068446 0
22.815000 -0.054081 0
22.820000 -0.036015 0
22.825000 -0.014014 0
22.830000 0.011858 0
22.835000 0.041144 0
22.840000 0.072935 0
22.845000 0.105870 0
22.850000 0.138196 0
22.855000 0.167905 0
22.860000 0.192932 0
22.865000 0.211391 0
22.870000 0.221805 0
22.875000 0.223305 1
22.880000 0.215748 0
22.885000 0.199738 0
22.890000 0.176549 0
22.895000 0.147953 0
22.900000 0.115986 0
22.905000 0.082661 0
22.910000 0.049590 0
22.915000 0.017398 0
22.920000 -0.015106 0
22.925000 -0.051570 0
22.930000 -0.097155 0
22.935000 -0.154433 0
22.940000 -0.216887 0
22.945000 -0.264609 0
22.950000 -0.266933 2
22.955000 -0.190887 0
22.960000 -0.011120 0
22.965000 0.276847 0
22.970000 0.636058 0
22.975000 0.974649 0
22.980000 1.170597 3
22.985000 1.139486 0
22.990000 0.891486 0
22.995000 0.520235 0
23.000000 0.143982 0
23.005000 -0.151423 0
23.010000 -0.329074 0
23.015000 -0.389841 4
23.020000 -0.359174 0
23.025000 -0.276594 0
23.030000 -0.181814 0
23.035000 -0.100909 0
23.040000 -0.041735 0
23.045000 0.000239 0
23.050000 0.033049 0
23.055000 0.062817 0
23.060000 0.092637 0
23.065000 0.123513 0
23.070000 0.155419 0
23.075000 0.187906 0
23.080000 0.220344 0
23.085000 0.252011 0
23.090000 0.282132 0
23.095000 0.309916 0
23.100000 0.334586 0
23.105000 0.355417 0
23.110000 0.371768 0
23.115000 0.383117 0
23.120000 0.389088 0
23.125000 0.389469 5
23.130000 0.384223 0
23.135000 0.373496 0
23.140000 0.357603 0
23.145000 0.337018 0
23.150000 0.312344 0
23.155000 0.284289 0
23.160000 0.253629 0
23.165000 0.221172 0
23.170000 0.187724 0
23.175000 0.154056 0
23.180000 0.120875 0
23.185000 0.088804 0
23.190000 0.058361 0
23.195000 0.029959 0
23.200000 0.003894 0
23.205000 -0.019646 0
23.210000 -0.040575 0
23.215000 -0.058894 0
23.220000 -0.074680 0
23.225000 -0.088070 0
23.230000 -0.099243 0
23.235000 -0.108408 0
23.240000 -0.115785 0
23.245000 -0.121603 0
23.250000 -0.126082 0
23.255000 -0.129429 0
23.260000 -0.131836 0
23.265000 -0.133472 0
23.270000 -0.132850 0
23.275000 -0.131847 0
23.280000 -0.130849 0
23.285000 -0.129856 0
23.290000 -0.128867 0
23.295000 -0.127883 0
23.300000 -0.126902 0
23.305000 -0.125922 0
23.310000 -0.124940 0
23.315000 -0.123950 0
23.320000 -0.122941 0
23.325000 -0.121892 0
23.330000 -0.120772 0
23.335000 -0.119528 0
23.340000 -0.118076 0
23.345000 -0.116294 0
23.350000 -0.114003 0
23.355000 -0.110957 0
23.360000 -0.106831 0
23.365000 -0.101218 0
23.370000 -0.093634 0
23.375000 -0.083549 0
23.380000 -0.070428 0
23.385000 -0.053801 0
23.390000 -0.033350 0
23.395000 -0.009008 0
23.400000 0.018948 0
23.405000 0.049823 0
23.410000 0.082480 0
23.415000 0.115369 0
23.420000 0.146626 0
23.425000 0.174236 0
23.430000 0.196241 0
23.435000 0.210975 0
23.440000 0.217264 1
23.445000 0.214588 0
23.450000 0.203147 0
23.455000 0.183841 0
23.460000 0.158150 0
23.465000 0.127944 0
23.470000 0.095240 0
23.475000 0.061899 0
23.480000 0.029203 0
23.485000 -0.002796 0
23.490000 -0.036102 0
23.495000 -0.075036 0
23.500000 -0.124412 0
23.505000 -0.184576 0
23.510000 -0.245261 0
23.515000 -0.283245 2
23.520000 -0.266956 0
23.525000 -0.165266 0
23.530000 0.042744 0
23.535000 0.353352 0
23.540000 0.717921 0
23.545000 1.036053 0
23.550000 1.189919 3
23.555000 1.112275 0
23.560000 0.831739 0
23.565000 0.450984 0
23.570000 0.084289 0
23.575000 -0.192109 0
23.580000 -0.349314 0
23.585000 -0.393045 4
23.590000 -0.351463 0
23.595000 -0.264692 0
23.600000 -0.170721 0
23.605000 -0.092724 0
23.610000 -0.036252 0
23.615000 0.004120 0
23.620000 0.036298 0
23.625000 0.065964 0
23.630000 0.095878 0
23.635000 0.126872 0
23.640000 0.158858 0
23.645000 0.191367 0
23.650000 0.223765 0
23.655000 0.255332 0
23.660000 0.285301 0
23.665000 0.312889 0
23.670000 0.337330 0
23.675000 0.357912 0
23.680000 0.374008 0
23.685000 0.385109 0
23.690000 0.390850 0
23.695000 0.391028 5
23.700000 0.385614 0
23.705000 0.374756 0
23.710000 0.358771 0
23.715000 0.338127 0
23.720000 0.313426 0
23.725000 0.285366 0
23.730000 0.254714 0
23.735000 0.222270 0
23.740000 0.188830 0
23.745000 0.155156 0
23.750000 0.121951 0
23.755000 0.089831 0
23.760000 0.059315 0
23.765000 0.030813 0
23.770000 0.004623 0
23.775000 -0.019064 0
23.780000 -0.040155 0
23.785000 -0.058649 0
23.790000 -0.074617 0
23.795000 -0.088189 0
23.800000 -0.099541 0
23.805000 -0.108876 0
23.810000 -0.116413 0
23.815000 -0.122376 0
23.820000 -0.126985 0
23.825000 -0.130446 0
23.830000 -0.132951 0
23.835000 -0.134670 0
23.840000 -0.134054 0
23.845000 -0.133046 0
23.850000 -0.132042 0
23.855000 -0.131043 0
23.860000 -0.130048 0
23.865000 -0.129058 0
23.870000 -0.128072 0
23.875000 -0.127087 0
23.880000 -0.126101 0
23.885000 -0.125108 0
23.890000 -0.124099 0
23.895000 -0.123055 0
23.900000 -0.121948 0
23.905000 -0.120731 0
23.910000 -0.119328 0
23.915000 -0.117627 0
23.920000 -0.115466 0
23.925000 -0.112616 0
23.930000 -0.108776 0
23.935000 -0.103562 0
23.940000 -0.096513 0
23.945000 -0.087113 0
23.950000 -0.074828 0
23.955000 -0.059170 0
23.960000 -0.039775 0
23.965000 -0.016499 0
23.970000 0.010485 0
23.975000 0.040614 0
23.980000 0.072889 0
23.985000 0.105892 0
23.990000 0.137859 0
23.995000 0.166822 0
24.000000 0.190806 0
24.005000 0.208046 0
24.010000 0.217206 0
24.015000 0.217545 1
24.020000 0.209022 0
24.025000 0.192298 0
24.030000 0.168656 0
24.035000 0.139834 0
24.040000 0.107806 0
24.045000 0.074506 0
24.050000 0.041477 0
24.055000 0.009321 0
24.060000 -0.023080 0
24.065000 -0.059173 0
24.070000 -0.103942 0
24.075000 -0.160255 0
24.080000 -0.222829 0
24.085000 -0.273805 0
24.090000 -0.284466 2
24.095000 -0.222722 0
24.100000 -0.062239 0
24.105000 0.206171 0
24.110000 0.556297 0
24.115000 0.910325 0
24.120000 1.152303 0
24.125000 1.184147 3
24.130000 0.987011 0
24.135000 0.635439 0
24.140000 0.250743 0
24.145000 -0.068027 0
24.150000 -0.272107 0
24.155000 -0.355330 4
24.160000 -0.339485 0
24.165000 -0.263235 0
24.170000 -0.168359 0
24.175000 -0.084534 0
24.180000 -0.022507 0
24.185000 0.021113 0
24.190000 0.054499 0
24.195000 0.084273 0
24.200000 0.113904 0
24.205000 0.144570 0
24.210000 0.176302 0
24.215000 0.208658 0
24.220000 0.241001 0
24.225000 0.272594 0
24.230000 0.302645 0
24.235000 0.330342 0
24.240000 0.354889 0
24.245000 0.375543 0
24.250000 0.391650 0
24.255000 0.402679 0
24.260000 0.408250 5
24.265000 0.408156 0
24.270000 0.402372 0
24.275000 0.391060 0
24.280000 0.374559 0
24.285000 0.353369 0
24.290000 0.328122 0
24.295000 0.299555 0
24.300000 0.268468 0
24.305000 0.235693 0
24.310000 0.202050 0
24.315000 0.168320 0
24.320000 0.135212 0
24.325000 0.103344 0
24.330000 0.073225 0
24.335000 0.045251 0
24.340000 0.019697 0
24.345000 -0.003269 0
24.350000 -0.023585 0
24.355000 -0.041275 0
24.360000 -0.056438 0
24.365000 -0.069226 0
24.370000 -0.079836 0
24.375000 -0.088485 0
24.380000 -0.095405 0
24.385000 -0.100826 0
24.390000 -0.104971 0
24.395000 -0.108046 0
24.400000 -0.110238 0
24.405000 -0.111369 0
24.410000 -0.110474 0
24.415000 -0.109582 0
24.420000 -0.108695 0
24.425000 -0.107813 0
24.430000 -0.106934 0
24.435000 -0.106058 0
24.440000 -0.105184 0
24.445000 -0.104310 0
24.450000 -0.103430 0
24.455000 -0.102536 0
24.460000 -0.101613 0
24.465000 -0.100633 0
24.470000 -0.099552 0
24.475000 -0.098302 0
24.480000 -0.096773 0
24.485000 -0.094808 0
24.490000 -0.092183 0
24.495000 -0.088597 0
24.500000 -0.083663 0
24.505000 -0.076911 0
24.510000 -0.067811 0
24.515000 -0.055809 0
24.520000 -0.040393 0
24.525000 -0.021180 0
24.530000 0.001985 0
24.535000 0.028926 0
24.540000 0.059053 0
24.545000 0.091316 0
24.550000 0.124224 0
24.555000 0.155930 0
24.560000 0.184385 0
24.565000 0.207555 0
24.570000 0.223654 0
24.575000 0.231374 1
24.580000 0.230057 0
24.585000 0.219791 0
24.590000 0.201397 0
24.595000 0.176320 0
24.600000 0.146440 0
24.605000 0.113818 0
24.610000 0.080392 0
24.615000 0.047548 0
24.620000 0.015455 0
24.625000 -0.017791 0
24.630000 -0.056518 0
24.635000 -0.105696 0
24.640000 -0.165847 0
24.645000 -0.226597 0
24.650000 -0.264159 2
24.655000 -0.246156 0
24.660000 -0.140849 0
24.665000 0.072533 0
24.670000 0.388331 0
24.675000 0.753288 0
24.680000 1.061508 0
24.685000 1.194034 3
24.690000 1.090719 0
24.695000 0.791678 0
24.700000 0.406774 0
24.705000 0.049537 0
24.710000 -0.209364 0
24.715000 -0.346812 0
24.720000 -0.373119 4
24.725000 -0.320030 0
24.730000 -0.229274 0
24.735000 -0.137437 0
24.740000 -0.064280 0
24.745000 -0.012261 0
24.750000 0.025399 0
24.755000 0.056476 0
24.760000 0.085981 0
24.765000 0.116101 0
24.770000 0.147351 0
24.775000 0.179494 0
24.780000 0.211987 0
24.785000 0.244150 0
24.790000 0.275230 0
24.795000 0.304433 0
24.800000 0.330962 0
24.805000 0.354049 0
24.810000 0.372993 0
24.815000 0.387195 0
24.820000 0.396188 0
24.825000 0.399662 5
24.830000 0.397480 0
24.835000 0.389687 0
24.840000 0.376509 0
24.845000 0.358339 0
24.850000 0.335718 0
24.855000 0.309312 0
24.860000 0.279869 0
24.865000 0.248194 0
24.870000 0.215107 0
24.875000 0.181407 0
24.880000 0.147846 0
24.885000 0.115096 0
24.890000 0.083737 0
24.895000 0.054238 0
24.900000 0.026956 0
24.905000 0.002134 0
24.910000 -0.020094 0
24.915000 -0.039688 0
24.920000 -0.056693 0
24.925000 -0.071221 0
24.930000 -0.083433 0
24.935000 -0.093530 0
24.940000 -0.101730 0
24.945000 -0.108261 0
24.950000 -0.113351 0
24.955000 -0.117215 0
24.960000 -0.120054 0
24.965000 -0.122049 0
24.970000 -0.123031 0
24.975000 -0.122077 0
24.980000 -0.121128 0
24.985000 -0.120183 0
24.990000 -0.119243 0
24.995000 -0.118307 0
25.000000 -0.117375 0
25.005000 -0.116444 0
25.010000 -0.115513 0
25.015000 -0.114575 0
25.020000 -0.113623 0
25.025000 -0.112640 0
25.030000 -0.111598 0
25.035000 -0.110453 0
25.040000 -0.109132 0
25.045000 -0.107527 0
25.050000 -0.105478 0
25.055000 -0.102760 0
25.060000 -0.099073 0
25.065000 -0.094032 0
25.070000 -0.087172 0
25.075000 -0.077968 0
25.080000 -0.065875 0
25.085000 -0.050390 0
25.090000 -0.031134 0
25.095000 -0.007956 0
25.100000 0.018975 0
25.105000 0.049083 0
25.110000 0.081346 0
25.115000 0.114306 0
25.120000 0.146153 0
25.125000 0.174873 0
25.130000 0.198453 0
25.135000 0.215112 0
25.140000 0.223523 1
25.145000 0.222986 0
25.150000 0.213527 0
25.155000 0.195895 0
25.160000 0.171463 0
25.165000 0.142050 0
25.170000 0.109683 0
25.175000 0.076306 0
25.180000 0.043382 0
25.185000 0.011288 0
25.190000 -0.021525 0
25.195000 -0.059013 0
25.200000 -0.106229 0
25.205000 -0.164854 0
25.210000 -0.226822 0
25.215000 -0.270860 2
25.220000 -0.265960 0
25.225000 -0.179966 0
25.230000 0.010692 0
25.235000 0.307446 0
25.240000 0.669212 0
25.245000 1.001326 0
25.250000 1.183547 3
25.255000 1.136599 0
25.260000 0.875754 0
25.265000 0.499960 0
25.270000 0.127948 0
25.275000 -0.157531 0
25.280000 -0.323241 0
25.285000 -0.372998 4
25.290000 -0.334572 0
25.295000 -0.248760 0
25.300000 -0.154754 0
25.305000 -0.076672 0
25.310000 -0.020353 0
25.315000 0.019756 0
25.320000 0.051732 0
25.325000 0.081303 0
25.330000 0.111197 0
25.335000 0.142198 0
25.340000 0.174180 0
25.345000 0.206643 0
25.350000 0.238930 0
25.355000 0.270296 0
25.360000 0.299951 0
25.365000 0.327093 0
25.370000 0.350943 0
25.375000 0.370782 0
25.380000 0.385985 0
25.385000 0.396056 0
25.390000 0.400647 5
25.395000 0.399588 0
25.400000 0.392887 0
25.405000 0.380734 0
25.410000 0.363492 0
25.415000 0.341679 0
25.420000 0.315937 0
25.425000 0.287006 0
25.430000 0.255684 0
25.435000 0.222793 0
25.440000 0.189142 0
25.445000 0.155494 0
25.450000 0.122541 0
25.455000 0.090882 0
25.460000 0.061010 0
25.465000 0.033301 0
25.470000 0.008020 0
25.475000 -0.014679 0
25.480000 -0.034742 0
25.485000 -0.052199 0
25.490000 -0.067151 0
25.495000 -0.079754 0
25.500000 -0.090203 0
25.505000 -0.098714 0
25.510000 -0.105516 0
25.515000 -0.110838 0
25.520000 -0.114897 0
25.525000 -0.117898 0
25.530000 -0.120027 0
25.535000 -0.121102 0
25.540000 -0.120157 0
25.545000 -0.119218 0
25.550000 -0.118283 0
25.555000 -0.117352 0
25.560000 -0.116426 0
25.565000 -0.115503 0
25.570000 -0.114582 0
25.575000 -0.113661 0
25.580000 -0.112735 0
25.585000 -0.111796 0
25.590000 -0.110828 0
25.595000 -0.109807 0
25.600000 -0.108689 0
25.605000 -0.107408 0
25.610000 -0.105860 0
25.615000 -0.103892 0
25.620000 -0.101290 0
25.625000 -0.097763 0
25.630000 -0.092935 0
25.635000 -0.086351 0
25.640000 -0.077490 0
25.645000 -0.065806 0
25.650000 -0.050783 0
25.655000 -0.032022 0
25.660000 -0.009336 0
25.665000 0.017150 0
25.670000 0.046911 0
25.675000 0.078978 0
25.680000 0.111937 0
25.685000 0.144007 0
25.690000 0.173185 0
25.695000 0.197438 0
25.700000 0.214944 0
25.705000 0.224310 0
25.710000 0.224758 1
25.715000 0.216233 0
25.720000 0.199411 0
25.725000 0.175608 0
25.730000 0.146612 0
25.735000 0.114448 0
25.740000 0.081087 0
25.745000 0.048071 0
25.750000 0.015918 0
25.755000 -0.016698 0
25.760000 -0.053526 0
25.765000 -0.099668 0
25.770000 -0.157393 0
25.775000 -0.219747 0
25.780000 -0.266568 0
25.785000 -0.267325 2
25.790000 -0.189493 0
25.795000 -0.008256 0
25.800000 0.280442 0
25.805000 0.639729 0
25.810000 0.978728 0
25.815000 1.176761 3
25.820000 1.146959 0
25.825000 0.895170 0
25.830000 0.521152 0
25.835000 0.148761 0
25.840000 -0.135363 0
25.845000 -0.297072 0
25.850000 -0.341297 4
25.855000 -0.297986 0
25.860000 -0.210038 0
25.865000 -0.117209 0
25.870000 -0.042301 0
25.875000 0.010779 0
25.880000 0.048748 0
25.885000 0.079779 0
25.890000 0.109171 0
25.895000 0.139209 0
25.900000 0.170405 0
25.905000 0.202489 0
25.910000 0.234881 0
25.915000 0.266861 0
25.920000 0.297633 0
25.925000 0.326367 0
25.930000 0.352231 0
25.935000 0.374431 0
25.940000 0.392254 0
25.945000 0.405103 0
25.950000 0.412527 0
25.955000 0.414251 5
25.960000 0.410186 0
25.965000 0.400441 0
25.970000 0.385313 0
25.975000 0.365271 0
25.980000 0.340935 0
25.985000 0.313039 0
25.990000 0.282396 0
25.995000 0.249860 0
26.000000 0.216280 0
26.005000 0.182471 0
26.010000 0.149178 0
26.015000 0.117055 0
26.020000 0.086642 0
26.025000 0.058362 0
26.030000 0.032513 0
26.035000 0.009278 0
26.040000 -0.011269 0
26.045000 -0.029148 0
26.050000 -0.044457 0
26.055000 -0.057352 0
26.060000 -0.068032 0
26.065000 -0.076724 0
26.070000 -0.083664 0
26.075000 -0.089091 0
26.080000 -0.093231 0
26.085000 -0.096298 0
26.090000 -0.098484 0
26.095000 -0.099621 0
26.100000 -0.098784 0
26.105000 -0.097951 0
26.110000 -0.097122 0
26.115000 -0.096297 0
26.120000 -0.095475 0
26.125000 -0.094657 0
26.130000 -0.093839 0
26.135000 -0.093019 0
26.140000 -0.092193 0
26.145000 -0.091348 0
26.150000 -0.090467 0
26.155000 -0.089518 0
26.160000 -0.088450 0
26.165000 -0.087180 0
26.170000 -0.085582 0
26.175000 -0.083472 0
26.180000 -0.080594 0
26.185000 -0.076606 0
26.190000 -0.071077 0
26.195000 -0.063495 0
26.200000 -0.053297 0
26.205000 -0.039921 0
26.210000 -0.022885 0
26.215000 -0.001887 0
26.220000 0.023088 0
26.225000 0.051662 0
26.230000 0.082996 0
26.235000 0.115770 0
26.240000 0.148241 0
26.245000 0.178369 0
26.250000 0.204022 0
26.255000 0.223220 0
26.260000 0.234385 0
26.265000 0.236554 1
26.270000 0.229516 0
26.275000 0.213845 0
26.280000 0.190819 0
26.285000 0.162249 0
26.290000 0.130227 0
26.295000 0.096828 0
26.300000 0.063702 0
26.305000 0.031457 0
26.310000 -0.001230 0
26.315000 -0.038246 0
26.320000 -0.084886 0
26.325000 -0.143251 0
26.330000 -0.205348 0
26.335000 -0.249126 2
26.340000 -0.242159 0
26.345000 -0.150998 0
26.350000 0.048102 0
26.355000 0.353903 0
26.360000 0.717886 0
26.365000 1.035395 0
26.370000 1.182585 3
26.375000 1.091666 0
26.380000 0.798651 0
26.385000 0.414553 0
26.390000 0.056539 0
26.395000 -0.202157 0
26.400000 -0.337794 0
26.405000 -0.361344 4
26.410000 -0.305865 0
26.415000 -0.214283 0
26.420000 -0.123404 0
26.425000 -0.052156 0
26.430000 -0.001928 0
26.435000 0.034632 0
26.440000 0.065285 0
26.445000 0.094774 0
26.450000 0.125038 0
26.455000 0.156445 0
26.460000 0.188679 0
26.465000 0.221149 0
26.470000 0.253138 0
26.475000 0.283862 0
26.480000 0.312500 0
26.485000 0.338237 0
26.490000 0.360298 0
26.495000 0.377987 0
26.500000 0.390722 0
26.505000 0.398067 0
26.510000 0.399755 5
26.515000 0.395705 0
26.520000 0.386025 0
26.525000 0.371006 0
26.530000 0.351110 0
26.535000 0.326944 0
26.540000 0.299227 0
26.545000 0.268758 0
26.550000 0.236371 0
26.555000 0.202906 0
26.560000 0.169166 0
26.565000 0.135888 0
26.570000 0.103722 0
26.575000 0.073210 0
26.580000 0.044778 0
26.585000 0.018731 0
26.590000 -0.004739 0
26.595000 -0.025548 0
26.600000 -0.043704 0
26.605000 -0.059294 0
26.610000 -0.072464 0
26.615000 -0.083406 0
26.620000 -0.092337 0
26.625000 -0.099490 0
26.630000 -0.105099 0
26.635000 -0.109392 0
26.640000 -0.112579 0
26.645000 -0.114855 0
26.650000 -0.116389 0
26.655000 -0.115823 0
26.660000 -0.114905 0
26.665000 -0.113991 0
26.670000 -0.113082 0
26.675000 -0.112177 0
26.680000 -0.111275 0
26.685000 -0.110376 0
26.690000 -0.109476 0
26.695000 -0.108571 0
26.700000 -0.107653 0
26.705000 -0.106707 0
26.710000 -0.105705 0
26.715000 -0.104606 0
26.720000 -0.103338 0
26.725000 -0.101795 0
26.730000 -0.099818 0
26.735000 -0.097183 0
26.740000 -0.093586 0
26.745000 -0.088635 0
26.750000 -0.081857 0
26.755000 -0.072714 0
26.760000 -0.060644 0
26.765000 -0.045131 0
26.770000 -0.025790 0
26.775000 -0.002471 0
26.780000 0.024634 0
26.785000 0.054910 0
26.790000 0.087274 0
26.795000 0.120194 0
26.800000 0.151784 0
26.805000 0.179962 0
26.810000 0.202678 0
26.815000 0.218152 0
26.820000 0.225111 1
26.825000 0.222952 0
26.830000 0.211837 0
26.835000 0.192669 0
26.840000 0.166970 0
26.845000 0.136676 0
26.850000 0.103880 0
26.855000 0.070498 0
26.860000 0.037814 0
26.865000 0.005755 0
26.870000 -0.027978 0
26.875000 -0.068058 0
26.880000 -0.119218 0
26.885000 -0.180567 0
26.890000 -0.239239 0
26.895000 -0.269042 2
26.900000 -0.236571 0
26.905000 -0.110950 0
26.910000 0.125058 0
26.915000 0.457548 0
26.920000 0.820582 0
26.925000 1.098978 0
26.930000 1.179212 3
26.935000 1.021868 0
26.940000 0.689524 0
26.945000 0.302336 0
26.950000 -0.032184 0
26.955000 -0.256067 0
26.960000 -0.357180 4
26.965000 -0.353935 0
26.970000 -0.283652 0
26.975000 -0.189152 0
26.980000 -0.102830 0
26.985000 -0.038019 0
26.990000 0.007428 0
26.995000 0.041630 0
27.000000 0.071622 0
27.005000 0.101235 0
27.010000 0.131840 0
27.015000 0.163540 0
27.020000 0.195918 0
27.025000 0.228338 0
27.030000 0.260060 0
27.035000 0.290287 0
27.040000 0.318196 0
27.045000 0.342979 0
27.050000 0.363881 0
27.055000 0.380235 0
27.060000 0.391498 0
27.065000 0.397279 0
27.070000 0.397363 5
27.075000 0.391722 0
27.080000 0.380515 0
27.085000 0.364085 0
27.090000 0.342935 0
27.095000 0.317708 0
27.100000 0.289148 0
27.105000 0.258068 0
27.110000 0.225306 0
27.115000 0.191695 0
27.120000 0.158022 0
27.125000 0.125002 0
27.130000 0.093255 0
27.135000 0.063291 0
27.140000 0.035503 0
27.145000 0.010164 0
27.150000 -0.012565 0
27.155000 -0.032627 0
27.160000 -0.050054 0
27.165000 -0.064951 0
27.170000 -0.077477 0
27.175000 -0.087834 0
27.180000 -0.096244 0
27.185000 -0.102941 0
27.190000 -0.108158 0
27.195000 -0.112119 0
27.200000 -0.115029 0
27.205000 -0.117077 0
27.210000 -0.118097 0
27.215000 -0.117167 0
27.220000 -0.116243 0
27.225000 -0.115322 0
27.230000 -0.114407 0
27.235000 -0.113495 0
27.240000 -0.112586 0
27.245000 -0.111679 0
27.250000 -0.110771 0
27.255000 -0.109856 0
27.260000 -0.108924 0
27.265000 -0.107958 0
27.270000 -0.106928 0
27.275000 -0.105784 0
27.280000 -0.104447 0
27.285000 -0.102798 0
27.290000 -0.100662 0
27.295000 -0.097795 0
27.300000 -0.093869 0
27.305000 -0.088472 0
27.310000 -0.081109 0
27.315000 -0.071231 0
27.320000 -0.058281 0
27.325000 -0.041770 0
27.330000 -0.021365 0
27.335000 0.003004 0
27.340000 0.031037 0
27.345000 0.062000 0
27.350000 0.094684 0
27.355000 0.127454 0
27.360000 0.158352 0
27.365000 0.185285 0
27.370000 0.206251 0
27.375000 0.219584 0
27.380000 0.224174 1
27.385000 0.219617 0
27.390000 0.206275 0
27.395000 0.185229 0
27.400000 0.158131 0
27.405000 0.126987 0
27.410000 0.093874 0
27.415000 0.060596 0
27.420000 0.028164 0
27.425000 -0.003997 0
27.430000 -0.038856 0
27.435000 -0.081464 0
27.440000 -0.135745 0
27.445000 -0.198206 0
27.450000 -0.252345 0
27.455000 -0.269278 2
27.460000 -0.215310 0
27.465000 -0.061908 0
27.470000 0.202150 0
27.475000 0.551218 0
27.480000 0.904658 0
27.485000 1.141063 0
27.490000 1.159738 3
27.495000 0.946888 0
27.500000 0.586645 0
27.505000 0.205892 0
27.510000 -0.097821 0
27.515000 -0.280931 0
27.520000 -0.342808 4
27.525000 -0.310471 0
27.530000 -0.226366 0
27.535000 -0.132375 0
27.540000 -0.054497 0
27.545000 0.001086 0
27.550000 0.040401 0
27.555000 0.071899 0
27.560000 0.101338 0
27.565000 0.131300 0
27.570000 0.162425 0
27.575000 0.194484 0
27.580000 0.226904 0
27.585000 0.258963 0
27.590000 0.289856 0
27.595000 0.318740 0
27.600000 0.344771 0
27.605000 0.367140 0
27.610000 0.385120 0
27.615000 0.398100 0
27.620000 0.405620 0
27.625000 0.407398 5
27.630000 0.403343 0
27.635000 0.393567 0
27.640000 0.378371 0
27.645000 0.358238 0
27.650000 0.333797 0
27.655000 0.305799 0
27.660000 0.275072 0
27.665000 0.242480 0
27.670000 0.208888 0
27.675000 0.175117 0
27.680000 0.141919 0
27.685000 0.109948 0
27.690000 0.079743 0
27.695000 0.051721 0
27.700000 0.026174 0
27.705000 0.003272 0
27.710000 -0.016921 0
27.715000 -0.034434 0
27.720000 -0.049377 0
27.725000 -0.061916 0
27.730000 -0.072257 0
27.735000 -0.080632 0
27.740000 -0.087283 0
27.745000 -0.092451 0
27.750000 -0.096363 0
27.755000 -0.099232 0
27.760000 -0.101249 0
27.765000 -0.102264 0
27.770000 -0.101413 0
27.775000 -0.100567 0
27.780000 -0.099725 0
27.785000 -0.098887 0
27.790000 -0.098052 0
27.795000 -0.097220 0
27.800000 -0.096388 0
27.805000 -0.095554 0
27.810000 -0.094709 0
27.815000 -0.093843 0
27.820000 -0.092933 0
27.825000 -0.091941 0
27.830000 -0.090807 0
27.835000 -0.089436 0
27.840000 -0.087682 0
27.845000 -0.085336 0
27.850000 -0.082111 0
27.855000 -0.077629 0
27.860000 -0.071421 0
27.865000 -0.062946 0
27.870000 -0.051623 0
27.875000 -0.036903 0
27.880000 -0.018351 0
27.885000 0.004239 0
27.890000 0.030739 0
27.895000 0.060582 0
27.900000 0.092718 0
27.905000 0.125616 0
27.910000 0.157360 0
27.915000 0.185811 0
27.920000 0.208839 0
27.925000 0.224586 0
27.930000 0.231710 1
27.935000 0.229574 0
27.940000 0.218338 0
27.945000 0.198940 0
27.950000 0.172967 0
27.955000 0.142430 0
27.960000 0.109488 0
27.965000 0.076090 0
27.970000 0.043464 0
27.975000 0.011323 0
27.980000 -0.023039 0
27.985000 -0.064677 0
27.990000 -0.117999 0
27.995000 -0.180308 0
28.000000 -0.235549 0
28.005000 -0.254423 2
28.010000 -0.202144 0
28.015000 -0.049058 0
28.020000 0.216424 0
28.025000 0.566994 0
28.030000 0.917581 0
28.035000 1.142251 3
28.040000 1.141319 0
28.045000 0.911198 0
28.050000 0.545193 0
28.055000 0.166719 0
28.060000 -0.132192 0
28.065000 -0.311422 0
28.070000 -0.371404 4
28.075000 -0.338768 0
28.080000 -0.254849 0
28.085000 -0.160531 0
28.090000 -0.081625 0
28.095000 -0.024802 0
28.100000 0.015452 0
28.105000 0.047433 0
28.110000 0.077021 0
28.115000 0.106974 0
28.120000 0.138057 0
28.125000 0.170115 0
28.130000 0.202622 0
28.135000 0.234891 0
28.140000 0.266150 0
28.145000 0.295584 0
28.150000 0.322369 0
28.155000 0.345709 0
28.160000 0.364876 0
28.165000 0.379247 0
28.170000 0.388335 0
28.175000 0.391817 5
28.180000 0.389554 0
28.185000 0.381596 0
28.190000 0.368181 0
28.195000 0.349723 0
28.200000 0.326792 0
28.205000 0.300079 0
28.210000 0.270366 0
28.215000 0.238487 0
28.220000 0.205285 0
28.225000 0.171581 0
28.230000 0.138137 0
28.235000 0.105633 0
28.240000 0.074645 0
28.245000 0.045633 0
28.250000 0.018939 0
28.255000 -0.005216 0
28.260000 -0.026717 0
28.265000 -0.045550 0
28.270000 -0.061782 0
28.275000 -0.075545 0
28.280000 -0.087021 0
28.285000 -0.096424 0
28.290000 -0.103984 0
28.295000 -0.109937 0
28.300000 -0.114514 0
28.305000 -0.117931 0
28.310000 -0.120388 0
28.315000 -0.122062 0
28.320000 -0.121492 0
28.325000 -0.120546 0
28.330000 -0.119604 0
28.335000 -0.118667 0
28.340000 -0.117734 0
28.345000 -0.116805 0
28.350000 -0.115879 0
28.355000 -0.114953 0
28.360000 -0.114024 0
28.365000 -0.113083 0
28.370000 -0.112119 0
28.375000 -0.111107 0
28.380000 -0.110008 0
28.385000 -0.108759 0
28.390000 -0.107262 0
