0.000000 1.163664 3
0.005000 1.044542 0
0.010000 0.747573 0
0.015000 0.377845 0
0.020000 0.039445 0
0.025000 -0.204371 0
0.030000 -0.333678 0
0.035000 -0.358805 4
0.040000 -0.309570 0
0.045000 -0.224868 0
0.050000 -0.138894 0
0.055000 -0.070408 0
0.060000 -0.022089 0
0.065000 0.012256 0
0.070000 0.040045 0
0.075000 0.066247 0
0.080000 0.093178 0
0.085000 0.121521 0
0.090000 0.151204 0
0.095000 0.181838 0
0.100000 0.212881 0
0.105000 0.243702 0
0.110000 0.273603 0
0.115000 0.301849 0
0.120000 0.327696 0
0.125000 0.350422 0
0.130000 0.369361 0
0.135000 0.383934 0
0.140000 0.393678 0
0.145000 0.398270 5
0.150000 0.397545 0
0.155000 0.391501 0
0.160000 0.380307 0
0.165000 0.364287 0
0.170000 0.343910 0
0.175000 0.319762 0
0.180000 0.292521 0
0.185000 0.262924 0
0.190000 0.231731 0
0.195000 0.199699 0
0.200000 0.167545 0
0.205000 0.135926 0
0.210000 0.105418 0
0.215000 0.076498 0
0.220000 0.049543 0
0.225000 0.024823 0
0.230000 0.002506 0
0.235000 -0.017332 0
0.240000 -0.034700 0
0.245000 -0.049672 0
0.250000 -0.062381 0
0.255000 -0.072995 0
0.260000 -0.081712 0
0.265000 -0.088740 0
0.270000 -0.094293 0
0.275000 -0.098578 0
0.280000 -0.101790 0
0.285000 -0.104110 0
0.290000 -0.105698 0
0.295000 -0.106694 0
0.300000 -0.106022 0
0.305000 -0.105072 0
0.310000 -0.104126 0
0.315000 -0.103186 0
0.320000 -0.102249 0
0.325000 -0.101318 0
0.330000 -0.100390 0
0.335000 -0.099466 0
0.340000 -0.098545 0
0.345000 -0.097624 0
0.350000 -0.096700 0
0.355000 -0.095765 0
0.360000 -0.094806 0
0.365000 -0.093803 0
0.370000 -0.092720 0
0.375000 -0.091499 0
0.380000 -0.090053 0
0.385000 -0.088254 0
0.390000 -0.085917 0
0.395000 -0.082792 0
0.400000 -0.078554 0
0.405000 -0.072801 0
0.410000 -0.065065 0
0.415000 -0.054842 0
0.420000 -0.041635 0
0.425000 -0.025027 0
0.430000 -0.004760 0
0.435000 0.019170 0
0.440000 0.046430 0
0.445000 0.076290 0
0.450000 0.107609 0
0.455000 0.138868 0
0.460000 0.168279 0
0.465000 0.193943 0
0.470000 0.214046 0
0.475000 0.227074 0
0.480000 0.231999 1
0.485000 0.228413 0
0.490000 0.216587 0
0.495000 0.197433 0
0.500000 0.172390 0
0.505000 0.143244 0
0.510000 0.111904 0
0.515000 0.080151 0
0.520000 0.049300 0
0.525000 0.019696 0
0.530000 -0.010016 0
0.535000 -0.043402 0
0.540000 -0.085345 0
0.545000 -0.138389 0
0.550000 -0.196974 0
0.555000 -0.243481 0
0.560000 -0.250222 2
0.565000 -0.186725 0
0.570000 -0.028417 0
0.575000 0.232347 0
0.580000 0.568707 0
0.585000 0.904546 0
0.590000 1.128980 0
0.595000 1.150681 3
0.600000 0.956190 0
0.605000 0.618818 0
0.610000 0.250252 0
0.615000 -0.058053 0
0.620000 -0.259999 0
0.625000 -0.348394 4
0.630000 -0.341836 0
0.635000 -0.274921 0
0.640000 -0.186469 0
0.645000 -0.105756 0
0.650000 -0.045109 0
0.655000 -0.002904 0
0.660000 0.028221 0
0.665000 0.054976 0
0.670000 0.081263 0
0.675000 0.108665 0
0.680000 0.137510 0
0.685000 0.167575 0
0.690000 0.198403 0
0.695000 0.229416 0
0.700000 0.259955 0
0.705000 0.289305 0
0.710000 0.316724 0
0.715000 0.341472 0
0.720000 0.362845 0
0.725000 0.380203 0
0.730000 0.393010 0
0.735000 0.400850 0
0.740000 0.403457 5
0.745000 0.400728 0
0.750000 0.392723 0
0.755000 0.379670 0
0.760000 0.361949 0
0.765000 0.340076 0
0.770000 0.314675 0
0.775000 0.286448 0
0.780000 0.256146 0
0.785000 0.224532 0
0.790000 0.192350 0
0.795000 0.160300 0
0.800000 0.129008 0
0.805000 0.099016 0
0.810000 0.070765 0
0.815000 0.044591 0
0.820000 0.020727 0
0.825000 -0.000696 0
0.830000 -0.019635 0
0.835000 -0.036123 0
0.840000 -0.050259 0
0.845000 -0.062189 0
0.850000 -0.072096 0
0.855000 -0.080182 0
0.860000 -0.086659 0
0.865000 -0.091738 0
0.870000 -0.095624 0
0.875000 -0.098506 0
0.880000 -0.100558 0
0.885000 -0.101931 0
0.890000 -0.102504 0
0.895000 -0.101571 0
0.900000 -0.100643 0
0.905000 -0.099720 0
0.910000 -0.098801 0
0.915000 -0.097887 0
0.920000 -0.096977 0
0.925000 -0.096071 0
0.930000 -0.095168 0
0.935000 -0.094267 0
0.940000 -0.093365 0
0.945000 -0.092457 0
0.950000 -0.091534 0
0.955000 -0.090582 0
0.960000 -0.089573 0
0.965000 -0.088466 0
0.970000 -0.087192 0
0.975000 -0.085652 0
0.980000 -0.083696 0
0.985000 -0.081117 0
0.990000 -0.077638 0
0.995000 -0.072904 0
1.000000 -0.066488 0
1.005000 -0.057903 0
1.010000 -0.046641 0
1.015000 -0.032226 0
1.020000 -0.014290 0
1.025000 0.007341 0
1.030000 0.032555 0
1.035000 0.060875 0
1.040000 0.091417 0
1.045000 0.122891 0
1.050000 0.153662 0
1.055000 0.181879 0
1.060000 0.205650 0
1.065000 0.223249 0
1.070000 0.233323 0
1.075000 0.235064 1
1.080000 0.228315 0
1.085000 0.213596 0
1.090000 0.192034 0
1.095000 0.165220 0
1.100000 0.135015 0
1.105000 0.103312 0
1.110000 0.071764 0
1.115000 0.041397 0
1.120000 0.012009 0
1.125000 -0.018562 0
1.130000 -0.054606 0
1.135000 -0.100723 0
1.140000 -0.157116 0
1.145000 -0.213916 0
1.150000 -0.249141 2
1.155000 -0.233058 0
1.160000 -0.136365 0
1.165000 0.060781 0
1.170000 0.355461 0
1.175000 0.703161 0
1.180000 1.010703 0
1.185000 1.166686 3
1.190000 1.105376 0
1.195000 0.849699 0
1.200000 0.489824 0
1.205000 0.131742 0
1.210000 -0.149345 0
1.215000 -0.321159 0
1.220000 -0.384355 4
1.225000 -0.361247 0
1.230000 -0.287004 0
1.235000 -0.198054 0
1.240000 -0.119868 0
1.245000 -0.061804 0
1.250000 -0.021083 0
1.255000 0.009529 0
1.260000 0.036262 0
1.265000 0.062673 0
1.270000 0.090201 0
1.275000 0.119139 0
1.280000 0.149271 0
1.285000 0.180163 0
1.290000 0.211266 0
1.295000 0.241952 0
1.300000 0.271541 0
1.305000 0.299323 0
1.310000 0.324589 0
1.315000 0.346657 0
1.320000 0.364903 0
1.325000 0.378791 0
1.330000 0.387898 0
1.335000 0.391935 5
1.340000 0.390760 0
1.345000 0.384389 0
1.350000 0.372992 0
1.355000 0.356889 0
1.360000 0.336532 0
1.365000 0.312482 0
1.370000 0.285389 0
1.375000 0.255956 0
1.380000 0.224912 0
1.385000 0.192981 0
1.390000 0.160858 0
1.395000 0.129178 0
1.400000 0.098505 0
1.405000 0.069314 0
1.410000 0.041982 0
1.415000 0.016790 0
1.420000 -0.006080 0
1.425000 -0.026533 0
1.430000 -0.044557 0
1.435000 -0.060207 0
1.440000 -0.073593 0
1.445000 -0.084867 0
1.450000 -0.094209 0
1.455000 -0.101817 0
1.460000 -0.107895 0
1.465000 -0.112644 0
1.470000 -0.116258 0
1.475000 -0.118916 0
1.480000 -0.120781 0
1.485000 -0.121998 0
1.490000 -0.122441 0
1.495000 -0.121409 0
1.500000 -0.120382 0
1.505000 -0.119360 0
1.510000 -0.118344 0
1.515000 -0.117332 0
1.520000 -0.116325 0
1.525000 -0.115322 0
1.530000 -0.114323 0
1.535000 -0.113327 0
1.540000 -0.112331 0
1.545000 -0.111331 0
1.550000 -0.110319 0
1.555000 -0.109282 0
1.560000 -0.108197 0
1.565000 -0.107028 0
1.570000 -0.105718 0
1.575000 -0.104179 0
1.580000 -0.102285 0
1.585000 -0.099855 0
1.590000 -0.096650 0
1.595000 -0.092355 0
1.600000 -0.086587 0
1.605000 -0.078901 0
1.610000 -0.068814 0
1.615000 -0.055848 0
1.620000 -0.039592 0
1.625000 -0.019779 0
1.630000 0.003636 0
1.635000 0.030390 0
1.640000 0.059855 0
1.645000 0.091016 0
1.650000 0.122494 0
1.655000 0.152629 0
1.660000 0.179612 0
1.665000 0.201660 0
1.670000 0.217215 0
1.675000 0.225119 1
1.680000 0.224764 0
1.685000 0.216163 0
1.690000 0.199956 0
1.695000 0.177331 0
1.700000 0.149876 0
1.705000 0.119396 0
1.710000 0.087688 0
1.715000 0.056287 0
1.720000 0.026090 0
1.725000 -0.003214 0
1.730000 -0.033815 0
1.735000 -0.069886 0
1.740000 -0.115831 0
1.745000 -0.171935 0
1.750000 -0.229103 0
1.755000 -0.266812 2
1.760000 -0.256854 0
1.765000 -0.170750 0
1.770000 0.012120 0
1.775000 0.293075 0
1.780000 0.636980 0
1.785000 0.962043 0
1.790000 1.160514 3
1.795000 1.153101 0
1.800000 0.938672 0
1.805000 0.594212 0
1.810000 0.226917 0
1.815000 -0.078099 0
1.820000 -0.278465 0
1.825000 -0.367801 4
1.830000 -0.363720 0
1.835000 -0.298965 0
1.840000 -0.210805 0
1.845000 -0.128339 0
1.850000 -0.064989 0
1.855000 -0.020418 0
1.860000 0.012105 0
1.865000 0.039359 0
1.870000 0.065596 0
1.875000 0.092713 0
1.880000 0.121228 0
1.885000 0.151022 0
1.890000 0.181708 0
1.895000 0.212762 0
1.900000 0.243579 0
1.905000 0.273492 0
1.910000 0.301800 0
1.915000 0.327792 0
1.920000 0.350777 0
1.925000 0.370115 0
1.930000 0.385243 0
1.935000 0.395705 0
1.940000 0.401173 0
1.945000 0.401461 5
1.950000 0.396541 0
1.955000 0.386538 0
1.960000 0.371728 0
1.965000 0.352525 0
1.970000 0.329460 0
1.975000 0.303156 0
1.980000 0.274302 0
1.985000 0.243619 0
1.990000 0.211836 0
1.995000 0.179656 0
2.000000 0.147732 0
2.005000 0.116650 0
2.010000 0.086912 0
2.015000 0.058925 0
2.020000 0.032999 0
2.025000 0.009344 0
2.030000 -0.011917 0
2.035000 -0.030749 0
2.040000 -0.047186 0
2.045000 -0.061322 0
2.050000 -0.073296 0
2.055000 -0.083280 0
2.060000 -0.091468 0
2.065000 -0.098062 0
2.070000 -0.103263 0
2.075000 -0.107269 0
2.080000 -0.110263 0
2.085000 -0.112413 0
2.090000 -0.113870 0
2.095000 -0.114765 0
2.100000 -0.114045 0
2.105000 -0.113055 0
2.110000 -0.112069 0
2.115000 -0.111089 0
2.120000 -0.110113 0
2.125000 -0.109143 0
2.130000 -0.108176 0
2.135000 -0.107213 0
2.140000 -0.106254 0
2.145000 -0.105295 0
2.150000 -0.104334 0
2.155000 -0.103364 0
2.160000 -0.102374 0
2.165000 -0.101346 0
2.170000 -0.100248 0
2.175000 -0.099033 0
2.180000 -0.097625 0
2.185000 -0.095912 0
2.190000 -0.093737 0
2.195000 -0.090882 0
2.200000 -0.087062 0
2.205000 -0.081920 0
2.210000 -0.075032 0
2.215000 -0.065927 0
2.220000 -0.054120 0
2.225000 -0.039169 0
2.230000 -0.020743 0
2.235000 0.001293 0
2.240000 0.026803 0
2.245000 0.055302 0
2.250000 0.085926 0
2.255000 0.117432 0
2.260000 0.148258 0
2.265000 0.176639 0
2.270000 0.200765 0
2.275000 0.218972 0
2.280000 0.229932 0
2.285000 0.232812 1
2.290000 0.227376 0
2.295000 0.214023 0
2.300000 0.193736 0
2.305000 0.167959 0
2.310000 0.138432 0
2.315000 0.106977 0
2.320000 0.075266 0
2.325000 0.044505 0
2.330000 0.014952 0
2.335000 -0.014748 0
2.340000 -0.048026 0
2.345000 -0.089562 0
2.350000 -0.141982 0
2.355000 -0.200597 0
2.360000 -0.249531 0
2.365000 -0.263051 2
2.370000 -0.211911 0
2.375000 -0.071210 0
2.380000 0.170246 0
2.385000 0.494876 0
2.390000 0.840503 0
2.395000 1.105528 0
2.400000 1.191198 3
2.405000 1.057898 0
2.410000 0.752370 0
2.415000 0.381682 0
2.420000 0.048083 0
2.425000 -0.188284 0
2.430000 -0.309970 0
2.435000 -0.328956 4
2.440000 -0.276096 0
2.445000 -0.190467 0
2.450000 -0.105468 0
2.455000 -0.038631 0
2.460000 0.008285 0
2.465000 0.041787 0
2.470000 0.069191 0
2.475000 0.095258 0
2.480000 0.122149 0
2.485000 0.150467 0
2.490000 0.180104 0
2.495000 0.210656 0
2.500000 0.241574 0
2.505000 0.272219 0
2.510000 0.301887 0
2.515000 0.329843 0
2.520000 0.355341 0
2.525000 0.377662 0
2.530000 0.396144 0
2.535000 0.410217 0
2.540000 0.419428 0
2.545000 0.423465 5
2.550000 0.422175 0
2.555000 0.415573 0
2.560000 0.403839 0
2.565000 0.387311 0
2.570000 0.366469 0
2.575000 0.341910 0
2.580000 0.314317 0
2.585000 0.284431 0
2.590000 0.253015 0
2.595000 0.220825 0
2.600000 0.188573 0
2.605000 0.156912 0
2.610000 0.126408 0
2.615000 0.097532 0
2.620000 0.070652 0
2.625000 0.046026 0
2.630000 0.023817 0
2.635000 0.004090 0
2.640000 -0.013168 0
2.645000 -0.028039 0
2.650000 -0.040659 0
2.655000 -0.051201 0
2.660000 -0.059862 0
2.665000 -0.066854 0
2.670000 -0.072389 0
2.675000 -0.076674 0
2.680000 -0.079904 0
2.685000 -0.082257 0
2.690000 -0.083891 0
2.695000 -0.084945 0
2.700000 -0.084374 0
2.705000 -0.083531 0
2.710000 -0.082693 0
2.715000 -0.081859 0
2.720000 -0.081030 0
2.725000 -0.080204 0
2.730000 -0.079381 0
2.735000 -0.078562 0
2.740000 -0.077745 0
2.745000 -0.076927 0
2.750000 -0.076105 0
2.755000 -0.075270 0
2.760000 -0.074410 0
2.765000 -0.073502 0
2.770000 -0.072507 0
2.775000 -0.071367 0
2.780000 -0.069991 0
2.785000 -0.068242 0
2.790000 -0.065932 0
2.795000 -0.062800 0
2.800000 -0.058514 0
2.805000 -0.052663 0
2.810000 -0.044773 0
2.815000 -0.034337 0
2.820000 -0.020863 0
2.825000 -0.003947 0
2.830000 0.016646 0
2.835000 0.040884 0
2.840000 0.068393 0
2.845000 0.098394 0
2.850000 0.129697 0
2.855000 0.160745 0
2.860000 0.189726 0
2.865000 0.214737 0
2.870000 0.233988 0
2.875000 0.246010 0
2.880000 0.249843 1
2.885000 0.245157 0
2.890000 0.232304 0
2.895000 0.212267 0
2.900000 0.186540 0
2.905000 0.156937 0
2.910000 0.125371 0
2.915000 0.093584 0
2.920000 0.062810 0
2.925000 0.033222 0
2.930000 0.003206 0
2.935000 -0.031068 0
2.940000 -0.074458 0
2.945000 -0.128821 0
2.950000 -0.187191 0
2.955000 -0.230403 2
2.960000 -0.229914 0
2.965000 -0.155484 0
2.970000 0.016041 0
2.975000 0.288979 0
2.980000 0.630559 0
2.985000 0.958325 0
2.990000 1.160099 3
2.995000 1.151685 0
3.000000 0.931692 0
3.005000 0.583036 0
3.010000 0.218486 0
3.015000 -0.075826 0
3.020000 -0.260114 0
3.025000 -0.331879 4
3.030000 -0.313034 0
3.035000 -0.240065 0
3.040000 -0.151406 0
3.045000 -0.073892 0
3.050000 -0.017033 0
3.055000 0.022463 0
3.060000 0.052247 0
3.065000 0.078604 0
3.070000 0.104945 0
3.075000 0.132543 0
3.080000 0.161574 0
3.085000 0.191750 0
3.090000 0.222581 0
3.095000 0.253462 0
3.100000 0.283716 0
3.105000 0.312612 0
3.110000 0.339401 0
3.115000 0.363341 0
3.120000 0.383734 0
3.125000 0.399958 0
3.130000 0.411498 0
3.135000 0.417972 0
3.140000 0.419149 5
3.145000 0.414968 0
3.150000 0.405533 0
3.155000 0.391116 0
3.160000 0.372139 0
3.165000 0.349153 0
3.170000 0.322812 0
3.175000 0.293843 0
3.180000 0.263007 0
3.185000 0.231073 0
3.190000 0.198781 0
3.195000 0.166815 0
3.200000 0.135785 0
3.205000 0.106206 0
3.210000 0.078491 0
3.215000 0.052946 0
3.220000 0.029773 0
3.225000 0.009074 0
3.230000 -0.009133 0
3.235000 -0.024906 0
3.240000 -0.038362 0
3.245000 -0.049661 0
3.250000 -0.058997 0
3.255000 -0.066576 0
3.260000 -0.072615 0
3.265000 -0.077325 0
3.270000 -0.080906 0
3.275000 -0.083544 0
3.280000 -0.085406 0
3.285000 -0.086640 0
3.290000 -0.087141 0
3.295000 -0.086285 0
3.300000 -0.085433 0
3.305000 -0.084586 0
3.310000 -0.083743 0
3.315000 -0.082903 0
3.320000 -0.082068 0
3.325000 -0.081235 0
3.330000 -0.080406 0
3.335000 -0.079576 0
3.340000 -0.078744 0
3.345000 -0.077902 0
3.350000 -0.077040 0
3.355000 -0.076138 0
3.360000 -0.075162 0
3.365000 -0.074061 0
3.370000 -0.072753 0
3.375000 -0.071116 0
3.380000 -0.068975 0
3.385000 -0.066091 0
3.390000 -0.062149 0
3.395000 -0.056756 0
3.400000 -0.049449 0
3.405000 -0.039723 0
3.410000 -0.027072 0
3.415000 -0.011059 0
3.420000 0.008606 0
3.425000 0.031968 0
3.430000 0.058741 0
3.435000 0.088245 0
3.440000 0.119380 0
3.445000 0.150658 0
3.450000 0.180301 0
3.455000 0.206396 0
3.460000 0.227095 0
3.465000 0.240828 0
3.470000 0.246503 1
3.475000 0.243642 0
3.480000 0.232454 0
3.485000 0.213803 0
3.490000 0.189103 0
3.495000 0.160133 0
3.500000 0.128817 0
3.505000 0.096970 0
3.510000 0.065963 0
3.515000 0.036227 0
3.520000 0.006519 0
3.525000 -0.026635 0
3.530000 -0.068150 0
3.535000 -0.120823 0
3.540000 -0.179512 0
3.545000 -0.226933 0
3.550000 -0.235422 2
3.555000 -0.174216 0
3.560000 -0.018265 0
3.565000 0.240673 0
3.570000 0.576298 0
3.575000 0.912555 0
3.580000 1.137810 0
3.585000 1.159742 3
3.590000 0.966091 0
3.595000 0.630831 0
3.600000 0.261233 0
3.605000 -0.053103 0
3.610000 -0.265073 0
3.615000 -0.365126 0
3.620000 -0.368960 4
3.625000 -0.308380 0
3.630000 -0.220962 0
3.635000 -0.137168 0
3.640000 -0.071975 0
3.645000 -0.026005 0
3.650000 0.007252 0
3.655000 0.034750 0
3.660000 0.060986 0
3.665000 0.088020 0
3.670000 0.116444 0
3.675000 0.146172 0
3.680000 0.176826 0
3.685000 0.207888 0
3.690000 0.238754 0
3.695000 0.268756 0
3.700000 0.297192 0
3.705000 0.323348 0
3.710000 0.346526 0
3.715000 0.366080 0
3.720000 0.381439 0
3.725000 0.392141 0
3.730000 0.397847 0
3.735000 0.398366 5
3.740000 0.393661 0
3.745000 0.383853 0
3.750000 0.369214 0
3.755000 0.350155 0
3.760000 0.327207 0
3.765000 0.300994 0
3.770000 0.272205 0
3.775000 0.241568 0
3.780000 0.209812 0
3.785000 0.177645 0
3.790000 0.145726 0
3.795000 0.114644 0
3.800000 0.084904 0
3.805000 0.056916 0
3.810000 0.030992 0
3.815000 0.007345 0
3.820000 -0.013903 0
3.825000 -0.032716 0
3.830000 -0.049129 0
3.835000 -0.063236 0
3.840000 -0.075178 0
3.845000 -0.085128 0
3.850000 -0.093280 0
3.855000 -0.099837 0
3.860000 -0.105003 0
3.865000 -0.108974 0
3.870000 -0.111936 0
3.875000 -0.114056 0
3.880000 -0.115486 0
3.885000 -0.116356 0
3.890000 -0.115626 0
3.895000 -0.114627 0
3.900000 -0.113634 0
3.905000 -0.112646 0
3.910000 -0.111663 0
3.915000 -0.110684 0
3.920000 -0.109710 0
3.925000 -0.108740 0
3.930000 -0.107772 0
3.935000 -0.106805 0
3.940000 -0.105836 0
3.945000 -0.104857 0
3.950000 -0.103858 0
3.955000 -0.102819 0
3.960000 -0.101707 0
3.965000 -0.100473 0
3.970000 -0.099038 0
3.975000 -0.097288 0
3.980000 -0.095059 0
3.985000 -0.092128 0
3.990000 -0.088201 0
3.995000 -0.082915 0
4.000000 -0.075837 0
4.005000 -0.066491 0
4.010000 -0.054393 0
4.015000 -0.039103 0
4.020000 -0.020307 0
4.025000 0.002109 0
4.030000 0.027973 0
4.035000 0.056760 0
4.040000 0.087559 0
4.045000 0.119081 0
4.050000 0.149726 0
4.055000 0.177706 0
4.060000 0.201209 0
4.065000 0.218596 0
4.070000 0.228584 0
4.075000 0.230406 1
4.080000 0.223909 0
4.085000 0.209573 0
4.090000 0.188457 0
4.095000 0.162064 0
4.100000 0.132166 0
4.105000 0.100588 0
4.110000 0.068966 0
4.115000 0.038407 0
4.120000 0.008975 0
4.125000 -0.020994 0
4.130000 -0.055244 0
4.135000 -0.098444 0
4.140000 -0.152435 0
4.145000 -0.210856 0
4.150000 -0.255878 0
4.155000 -0.260532 2
4.160000 -0.195611 0
4.165000 -0.037673 0
4.170000 0.220785 0
4.175000 0.555112 0
4.180000 0.894369 0
4.185000 1.132847 0
4.190000 1.178475 3
4.195000 1.009323 0
4.200000 0.687192 0
4.205000 0.316054 0
4.210000 -0.011116 0
4.215000 -0.241432 0
4.220000 -0.360365 0
4.225000 -0.379752 4
4.230000 -0.328588 0
4.235000 -0.243676 0
4.240000 -0.157272 0
4.245000 -0.087506 0
4.250000 -0.037567 0
4.255000 -0.001966 0
4.260000 0.026435 0
4.265000 0.052723 0
4.270000 0.079449 0
4.275000 0.107485 0
4.280000 0.136875 0
4.285000 0.167308 0
4.290000 0.198308 0
4.295000 0.229304 0
4.300000 0.259658 0
4.305000 0.288689 0
4.310000 0.315696 0
4.315000 0.339985 0
4.320000 0.360903 0
4.325000 0.377858 0
4.330000 0.390354 0
4.335000 0.398012 0
4.340000 0.400587 5
4.345000 0.397982 0
4.350000 0.390254 0
4.355000 0.377609 0
4.360000 0.360395 0
4.365000 0.339086 0
4.370000 0.314257 0
4.375000 0.286560 0
4.380000 0.256696 0
4.385000 0.225383 0
4.390000 0.193331 0
4.395000 0.161211 0
4.400000 0.129639 0
4.405000 0.099154 0
4.410000 0.070207 0
4.415000 0.043155 0
4.420000 0.018258 0
4.425000 -0.004316 0
4.430000 -0.024487 0
4.435000 -0.042252 0
4.440000 -0.057670 0
4.445000 -0.070857 0
4.450000 -0.081964 0
4.455000 -0.091172 0
4.460000 -0.098675 0
4.465000 -0.104675 0
4.470000 -0.109369 0
4.475000 -0.112948 0
4.480000 -0.115586 0
4.485000 -0.117444 0
4.490000 -0.118662 0
4.495000 -0.119115 0
4.500000 -0.118099 0
4.505000 -0.117089 0
4.510000 -0.116084 0
4.515000 -0.115083 0
4.520000 -0.114088 0
4.525000 -0.113097 0
4.530000 -0.112110 0
4.535000 -0.111128 0
4.540000 -0.110147 0
4.545000 -0.109168 0
4.550000 -0.108184 0
4.555000 -0.107190 0
4.560000 -0.106172 0
4.565000 -0.105109 0
4.570000 -0.103967 0
4.575000 -0.102693 0
4.580000 -0.101204 0
4.585000 -0.099381 0
4.590000 -0.097056 0
4.595000 -0.093999 0
4.600000 -0.089914 0
4.605000 -0.084433 0
4.610000 -0.077128 0
4.615000 -0.067528 0
4.620000 -0.055157 0
4.625000 -0.039595 0
4.630000 -0.020542 0
4.635000 0.002095 0
4.640000 0.028129 0
4.645000 0.057025 0
4.650000 0.087874 0
4.655000 0.119397 0
4.660000 0.150020 0
4.665000 0.177986 0
4.670000 0.201516 0
4.675000 0.218998 0
4.680000 0.229167 0
4.685000 0.231259 1
4.690000 0.225102 0
4.695000 0.211143 0
4.700000 0.190394 0
4.705000 0.164311 0
4.710000 0.134620 0
4.715000 0.103120 0
4.720000 0.071443 0
4.725000 0.040748 0
4.730000 0.011239 0
4.735000 -0.018489 0
4.740000 -0.051875 0
4.745000 -0.093541 0
4.750000 -0.146023 0
4.755000 -0.204627 0
4.760000 -0.253680 0
4.765000 -0.267826 2
4.770000 -0.218199 0
4.775000 -0.080062 0
4.780000 0.158165 0
4.785000 0.480390 0
4.790000 0.827140 0
4.795000 1.099276 0
4.800000 1.197622 3
4.805000 1.078191 0
4.810000 0.781744 0
4.815000 0.412009 0
4.820000 0.072151 0
4.825000 -0.174517 0
4.830000 -0.307442 0
4.835000 -0.336102 4
4.840000 -0.289406 0
4.845000 -0.205666 0
4.850000 -0.119209 0
4.855000 -0.049537 0
4.860000 -0.000107 0
4.865000 0.034882 0
4.870000 0.062849 0
4.875000 0.088939 0
4.880000 0.115629 0
4.885000 0.143701 0
4.890000 0.173131 0
4.895000 0.203556 0
4.900000 0.234456 0
4.905000 0.265215 0
4.910000 0.295152 0
4.915000 0.323543 0
4.920000 0.349654 0
4.925000 0.372767 0
4.930000 0.392213 0
4.935000 0.407405 0
4.940000 0.417866 0
4.945000 0.423253 0
4.950000 0.423373 5
4.955000 0.418197 0
4.960000 0.407859 0
4.965000 0.392651 0
4.970000 0.373008 0
4.975000 0.349489 0
4.980000 0.322745 0
4.985000 0.293495 0
4.990000 0.262487 0
4.995000 0.230472 0
5.000000 0.198170 0
5.005000 0.166246 0
5.010000 0.135291 0
5.015000 0.105801 0
5.020000 0.078177 0
5.025000 0.052711 0
5.030000 0.029598 0
5.035000 0.008936 0
5.040000 -0.009259 0
5.045000 -0.025045 0
5.050000 -0.038535 0
5.055000 -0.049887 0
5.060000 -0.059289 0
5.065000 -0.066944 0
5.070000 -0.073062 0
5.075000 -0.077852 0
5.080000 -0.081511 0
5.085000 -0.084222 0
5.090000 -0.086150 0
5.095000 -0.087442 0
5.100000 -0.087985 0
5.105000 -0.087125 0
5.110000 -0.086269 0
5.115000 -0.085417 0
5.120000 -0.084569 0
5.125000 -0.083726 0
5.130000 -0.082887 0
5.135000 -0.082050 0
5.140000 -0.081217 0
5.145000 -0.080385 0
5.150000 -0.079550 0
5.155000 -0.078709 0
5.160000 -0.077850 0
5.165000 -0.076957 0
5.170000 -0.076003 0
5.175000 -0.074940 0
5.180000 -0.073700 0
5.185000 -0.072174 0
5.190000 -0.070209 0
5.195000 -0.067591 0
5.200000 -0.064036 0
5.205000 -0.059184 0
5.210000 -0.052604 0
5.215000 -0.043811 0
5.220000 -0.032304 0
5.225000 -0.017621 0
5.230000 0.000588 0
5.235000 0.022471 0
5.240000 0.047889 0
5.245000 0.076341 0
5.250000 0.106924 0
5.255000 0.138337 0
5.260000 0.168951 0
5.265000 0.196929 0
5.270000 0.220407 0
5.275000 0.237691 0
5.280000 0.247462 0
5.285000 0.248940 1
5.290000 0.241986 0
5.295000 0.227123 0
5.300000 0.205469 0
5.305000 0.178599 0
5.310000 0.148350 0
5.315000 0.116592 0
5.320000 0.084963 0
5.325000 0.054496 0
5.330000 0.025038 0
5.335000 -0.005469 0
5.340000 -0.041196 0
5.345000 -0.086760 0
5.350000 -0.142753 0
5.355000 -0.200145 0
5.360000 -0.237948 2
5.365000 -0.227096 0
5.370000 -0.138300 0
5.375000 0.049252 0
5.380000 0.335506 0
5.385000 0.681263 0
5.390000 0.998844 0
5.395000 1.177386 3
5.400000 1.141156 0
5.405000 0.899284 0
5.410000 0.542439 0
5.415000 0.183097 0
5.420000 -0.097980 0
5.425000 -0.266589 0
5.430000 -0.324179 4
5.435000 -0.295386 0
5.440000 -0.218014 0
5.445000 -0.129764 0
5.450000 -0.055156 0
5.455000 -0.001370 0
5.460000 0.036089 0
5.465000 0.064955 0
5.470000 0.091110 0
5.475000 0.117566 0
5.480000 0.145363 0
5.485000 0.174571 0
5.490000 0.204857 0
5.495000 0.235702 0
5.500000 0.266486 0
5.505000 0.296516 0
5.510000 0.325052 0
5.515000 0.351340 0
5.520000 0.374639 0
5.525000 0.394261 0
5.530000 0.409597 0
5.535000 0.420153 0
5.540000 0.425572 0
5.545000 0.425657 5
5.550000 0.420376 0
5.555000 0.409870 0
5.560000 0.394444 0
5.565000 0.374549 0
5.570000 0.350766 0
5.575000 0.323768 0
5.580000 0.294297 0
5.585000 0.263121 0
5.590000 0.231011 0
5.595000 0.198699 0
5.600000 0.166859 0
5.605000 0.136082 0
5.610000 0.106866 0
5.615000 0.079598 0
5.620000 0.054562 0
5.625000 0.031937 0
5.630000 0.011805 0
5.635000 -0.005837 0
5.640000 -0.021062 0
5.645000 -0.034001 0
5.650000 -0.044824 0
5.655000 -0.053729 0
5.660000 -0.060929 0
5.665000 -0.066640 0
5.670000 -0.071071 0
5.675000 -0.074421 0
5.680000 -0.076873 0
5.685000 -0.078588 0
5.690000 -0.079709 0
5.695000 -0.079169 0
5.700000 -0.078353 0
5.705000 -0.077541 0
5.710000 -0.076733 0
5.715000 -0.075929 0
5.720000 -0.075128 0
5.725000 -0.074331 0
5.730000 -0.073537 0
5.735000 -0.072745 0
5.740000 -0.071952 0
5.745000 -0.071155 0
5.750000 -0.070345 0
5.755000 -0.069509 0
5.760000 -0.068625 0
5.765000 -0.067653 0
5.770000 -0.066533 0
5.775000 -0.065171 0
5.780000 -0.063431 0
5.785000 -0.061116 0
5.790000 -0.057962 0
5.795000 -0.053627 0
5.800000 -0.047691 0
5.805000 -0.039672 0
5.810000 -0.029055 0
5.815000 -0.015347 0
5.820000 0.001853 0
5.825000 0.022761 0
5.830000 0.047319 0
5.835000 0.075108 0
5.840000 0.105298 0
5.845000 0.136640 0
5.850000 0.167520 0
5.855000 0.196084 0
5.860000 0.220406 0
5.865000 0.238705 0
5.870000 0.249558 0
5.875000 0.252079 1
5.880000 0.246039 0
5.885000 0.231901 0
5.890000 0.210757 0
5.895000 0.184188 0
5.900000 0.154068 0
5.905000 0.122321 0
5.910000 0.090645 0
5.915000 0.060127 0
5.920000 0.030637 0
5.925000 0.000076 0
5.930000 -0.035844 0
5.935000 -0.081819 0
5.940000 -0.138197 0
5.945000 -0.195136 0
5.950000 -0.230436 2
5.955000 -0.213978 0
5.960000 -0.116104 0
5.965000 0.083073 0
5.970000 0.379899 0
5.975000 0.727882 0
5.980000 1.031246 0
5.985000 1.177692 3
5.990000 1.104110 0
5.995000 0.838450 0
6.000000 0.475269 0
6.005000 0.121292 0
6.010000 -0.150563 0
6.015000 -0.311051 0
6.020000 -0.363477 4
6.025000 -0.332431 0
6.030000 -0.254531 0
6.035000 -0.166022 0
6.040000 -0.090661 0
6.045000 -0.035758 0
6.050000 0.002705 0
6.055000 0.032187 0
6.060000 0.058586 0
6.065000 0.085061 0
6.070000 0.112786 0
6.075000 0.141917 0
6.080000 0.172175 0
6.085000 0.203087 0
6.090000 0.234072 0
6.095000 0.264477 0
6.100000 0.293600 0
6.105000 0.320716 0
6.110000 0.345106 0
6.115000 0.366090 0
6.120000 0.383054 0
6.125000 0.395484 0
6.130000 0.402987 0
6.135000 0.405313 5
6.140000 0.402370 0
6.145000 0.394223 0
6.150000 0.381099 0
6.155000 0.363371 0
6.160000 0.341540 0
6.165000 0.316216 0
6.170000 0.288081 0
6.175000 0.257865 0
6.180000 0.226313 0
6.185000 0.194152 0
6.190000 0.162067 0
6.195000 0.130678 0
6.200000 0.100521 0
6.205000 0.072037 0
6.210000 0.045568 0
6.215000 0.021352 0
6.220000 -0.000467 0
6.225000 -0.019832 0
6.230000 -0.036766 0
6.235000 -0.051354 0
6.240000 -0.063730 0
6.245000 -0.074065 0
6.250000 -0.082553 0
6.255000 -0.089399 0
6.260000 -0.094811 0
6.265000 -0.098991 0
6.270000 -0.102128 0
6.275000 -0.104394 0
6.280000 -0.105947 0
6.285000 -0.106921 0
6.290000 -0.106245 0
6.295000 -0.105294 0
6.300000 -0.104348 0
6.305000 -0.103406 0
6.310000 -0.102468 0
6.315000 -0.101536 0
6.320000 -0.100607 0
6.325000 -0.099682 0
6.330000 -0.098760 0
6.335000 -0.097838 0
6.340000 -0.096914 0
6.345000 -0.095980 0
6.350000 -0.095025 0
6.355000 -0.094030 0
6.360000 -0.092961 0
6.365000 -0.091768 0
6.370000 -0.090370 0
6.375000 -0.088651 0
6.380000 -0.086441 0
6.385000 -0.083511 0
6.390000 -0.079561 0
6.395000 -0.074215 0
6.400000 -0.067031 0
6.405000 -0.057523 0
6.410000 -0.045199 0
6.415000 -0.029624 0
6.420000 -0.010490 0
6.425000 0.012289 0
6.430000 0.038503 0
6.435000 0.067572 0
6.440000 0.098518 0
6.445000 0.129985 0
6.450000 0.160311 0
6.455000 0.187663 0
6.460000 0.210217 0
6.465000 0.226353 0
6.470000 0.234850 0
6.475000 0.235039 1
6.480000 0.226889 0
6.485000 0.211013 0
6.490000 0.188590 0
6.495000 0.161225 0
6.500000 0.130749 0
6.505000 0.098995 0
6.510000 0.067532 0
6.515000 0.037280 0
6.520000 0.007919 0
6.525000 -0.022803 0
6.530000 -0.059159 0
6.535000 -0.105577 0
6.540000 -0.162071 0
6.545000 -0.218850 0
6.550000 -0.254451 2
6.555000 -0.239913 0
6.560000 -0.146550 0
6.565000 0.045522 0
6.570000 0.335011 0
6.575000 0.681520 0
6.580000 0.997199 0
6.585000 1.172616 3
6.590000 1.136100 0
6.595000 0.899631 0
6.600000 0.546616 0
6.605000 0.183019 0
6.610000 -0.111433 0
6.615000 -0.299428 0
6.620000 -0.377774 4
6.625000 -0.365905 0
6.630000 -0.297279 0
6.635000 -0.208601 0
6.640000 -0.127471 0
6.645000 -0.065801 0
6.650000 -0.022425 0
6.655000 0.009525 0
6.660000 0.036624 0
6.665000 0.062902 0
6.670000 0.090119 0
6.675000 0.118733 0
6.680000 0.148605 0
6.685000 0.179339 0
6.690000 0.210415 0
6.695000 0.241228 0
6.700000 0.271116 0
6.705000 0.299382 0
6.710000 0.325323 0
6.715000 0.348254 0
6.720000 0.367543 0
6.725000 0.382633 0
6.730000 0.393074 0
6.735000 0.398541 0
6.740000 0.398852 5
6.745000 0.393977 0
6.750000 0.384039 0
6.755000 0.369312 0
6.760000 0.350203 0
6.765000 0.327237 0
6.770000 0.301030 0
6.775000 0.272262 0
6.780000 0.241651 0
6.785000 0.209915 0
6.790000 0.177755 0
6.795000 0.145820 0
6.800000 0.114697 0
6.805000 0.084885 0
6.810000 0.056796 0
6.815000 0.030740 0
6.820000 0.006936 0
6.825000 -0.014492 0
6.830000 -0.033501 0
6.835000 -0.050119 0
6.840000 -0.064436 0
6.845000 -0.076587 0
6.850000 -0.086739 0
6.855000 -0.095082 0
6.860000 -0.101816 0
6.865000 -0.107142 0
6.870000 -0.111256 0
6.875000 -0.114341 0
6.880000 -0.116567 0
6.885000 -0.118085 0
6.890000 -0.119027 0
6.895000 -0.118295 0
6.900000 -0.117284 0
6.905000 -0.116278 0
6.910000 -0.115276 0
6.915000 -0.114280 0
6.920000 -0.113288 0
6.925000 -0.112301 0
6.930000 -0.111318 0
6.935000 -0.110338 0
6.940000 -0.109360 0
6.945000 -0.108380 0
6.950000 -0.107393 0
6.955000 -0.106389 0
6.960000 -0.105352 0
6.965000 -0.104253 0
6.970000 -0.103048 0
6.975000 -0.101669 0
6.980000 -0.100015 0
6.985000 -0.097940 0
6.990000 -0.095241 0
6.995000 -0.091652 0
7.000000 -0.086835 0
7.005000 -0.080384 0
7.010000 -0.071841 0
7.015000 -0.060725 0
7.020000 -0.046581 0
7.025000 -0.029046 0
7.030000 -0.007929 0
7.035000 0.016712 0
7.040000 0.044494 0
7.045000 0.074662 0
7.050000 0.106082 0
7.055000 0.137284 0
7.060000 0.166562 0
7.065000 0.192116 0
7.070000 0.212234 0
7.075000 0.225485 0
7.080000 0.230880 1
7.085000 0.228002 0
7.090000 0.217052 0
7.095000 0.198834 0
7.100000 0.174651 0
7.105000 0.146156 0
7.110000 0.115150 0
7.115000 0.083372 0
7.120000 0.052212 0
7.125000 0.022315 0
7.130000 -0.007037 0
7.135000 -0.038527 0
7.140000 -0.076590 0
7.145000 -0.125103 0
7.150000 -0.182655 0
7.155000 -0.237736 0
7.160000 -0.267919 2
7.165000 -0.244612 0
7.170000 -0.140566 0
7.175000 0.061923 0
7.180000 0.358659 0
7.185000 0.706494 0
7.190000 1.017250 0
7.195000 1.184841 3
7.200000 1.139987 0
7.205000 0.894483 0
7.210000 0.537290 0
7.215000 0.177269 0
7.220000 -0.106911 0
7.225000 -0.280994 0
7.230000 -0.345106 4
7.235000 -0.321920 0
7.240000 -0.247405 0
7.245000 -0.158691 0
7.250000 -0.081394 0
7.255000 -0.024499 0
7.260000 0.015223 0
7.265000 0.045211 0
7.270000 0.071653 0
7.275000 0.097970 0
7.280000 0.125486 0
7.285000 0.154422 0
7.290000 0.184523 0
7.295000 0.215325 0
7.300000 0.246254 0
7.305000 0.276659 0
7.310000 0.305835 0
7.315000 0.333057 0
7.320000 0.357601 0
7.325000 0.378779 0
7.330000 0.395968 0
7.335000 0.408645 0
7.340000 0.416405 0
7.345000 0.418989 5
7.350000 0.416291 0
7.355000 0.408370 0
7.360000 0.395443 0
7.365000 0.377879 0
7.370000 0.356174 0
7.375000 0.330934 0
7.380000 0.302845 0
7.385000 0.272636 0
7.390000 0.241057 0
7.395000 0.208839 0
7.400000 0.176673 0
7.405000 0.145184 0
7.410000 0.114914 0
7.415000 0.086308 0
7.420000 0.059713 0
7.425000 0.035373 0
7.430000 0.013433 0
7.435000 -0.006049 0
7.440000 -0.023092 0
7.445000 -0.037781 0
7.450000 -0.050251 0
7.455000 -0.060673 0
7.460000 -0.069241 0
7.465000 -0.076163 0
7.470000 -0.081646 0
7.475000 -0.085892 0
7.480000 -0.089093 0
7.485000 -0.091422 0
7.490000 -0.093036 0
7.495000 -0.094070 0
7.500000 -0.093458 0
7.505000 -0.092570 0
7.510000 -0.091687 0
7.515000 -0.090808 0
7.520000 -0.089934 0
7.525000 -0.089064 0
7.530000 -0.088197 0
7.535000 -0.087334 0
7.540000 -0.086473 0
7.545000 -0.085613 0
7.550000 -0.084749 0
7.555000 -0.083875 0
7.560000 -0.082980 0
7.565000 -0.082042 0
7.570000 -0.081028 0
7.575000 -0.079887 0
7.580000 -0.078536 0
7.585000 -0.076854 0
7.590000 -0.074671 0
7.595000 -0.071752 0
7.600000 -0.067790 0
7.605000 -0.062404 0
7.610000 -0.055146 0
7.615000 -0.045528 0
7.620000 -0.033055 0
7.625000 -0.017297 0
7.630000 0.002042 0
7.635000 0.025033 0
7.640000 0.051435 0
7.645000 0.080638 0
7.650000 0.111629 0
7.655000 0.143015 0
7.660000 0.173107 0
7.665000 0.200057 0
7.670000 0.222042 0
7.675000 0.237463 0
7.680000 0.245141 1
7.685000 0.244459 0
7.690000 0.235452 0
7.695000 0.218796 0
7.700000 0.195728 0
7.705000 0.167893 0
7.710000 0.137141 0
7.715000 0.105301 0
7.720000 0.073897 0
7.725000 0.043746 0
7.730000 0.014335 0
7.735000 -0.016860 0
7.740000 -0.054303 0
7.745000 -0.102190 0
7.750000 -0.159566 0
7.755000 -0.215076 0
7.760000 -0.245819 2
7.765000 -0.222266 0
7.770000 -0.116267 0
7.775000 0.090122 0
7.780000 0.391228 0
7.785000 0.739646 0
7.790000 1.041395 0
7.795000 1.187944 3
7.800000 1.115669 0
7.805000 0.848253 0
7.810000 0.483946 0
7.815000 0.132596 0
7.820000 -0.132479 0
7.825000 -0.283565 0
7.830000 -0.326270 4
7.835000 -0.287769 0
7.840000 -0.206652 0
7.845000 -0.119260 0
7.850000 -0.047529 0
7.855000 0.003543 0
7.860000 0.039364 0
7.865000 0.067584 0
7.870000 0.093664 0
7.875000 0.120273 0
7.880000 0.148268 0
7.885000 0.177644 0
7.890000 0.208037 0
7.895000 0.238914 0
7.900000 0.269647 0
7.905000 0.299536 0
7.910000 0.327843 0
7.915000 0.353815 0
7.920000 0.376718 0
7.925000 0.395875 0
7.930000 0.410690 0
7.935000 0.420685 0
7.940000 0.425523 5
7.945000 0.425023 0
7.950000 0.419175 0
7.955000 0.408135 0
7.960000 0.392224 0
7.965000 0.371907 0
7.970000 0.347772 0
7.975000 0.320499 0
7.980000 0.290831 0
7.985000 0.259538 0
7.990000 0.227381 0
7.995000 0.195088 0
8.000000 0.163324 0
8.005000 0.132671 0
8.010000 0.103612 0
8.015000 0.076528 0
8.020000 0.051691 0
8.025000 0.029271 0
8.030000 0.009342 0
8.035000 -0.008105 0
8.040000 -0.023147 0
8.045000 -0.035917 0
8.050000 -0.046590 0
8.055000 -0.055362 0
8.060000 -0.062448 0
8.065000 -0.068060 0
8.070000 -0.072410 0
8.075000 -0.075692 0
8.080000 -0.078088 0
8.085000 -0.079758 0
8.090000 -0.080843 0
8.095000 -0.080294 0
8.100000 -0.079472 0
8.105000 -0.078654 0
8.110000 -0.077840 0
8.115000 -0.077031 0
8.120000 -0.076225 0
8.125000 -0.075422 0
8.130000 -0.074623 0
8.135000 -0.073825 0
8.140000 -0.073026 0
8.145000 -0.072223 0
8.150000 -0.071407 0
8.155000 -0.070565 0
8.160000 -0.069673 0
8.165000 -0.068692 0
8.170000 -0.067561 0
8.175000 -0.066185 0
8.180000 -0.064427 0
8.185000 -0.062089 0
8.190000 -0.058907 0
8.195000 -0.054537 0
8.200000 -0.048559 0
8.205000 -0.040493 0
8.210000 -0.029825 0
8.215000 -0.016063 0
8.220000 0.001188 0
8.225000 0.022142 0
8.230000 0.046737 0
8.235000 0.074552 0
8.240000 0.104757 0
8.245000 0.136104 0
8.250000 0.166985 0
8.255000 0.195549 0
8.260000 0.219879 0
8.265000 0.238200 0
8.270000 0.249092 0
8.275000 0.251669 1
8.280000 0.245699 0
8.285000 0.231638 0
8.290000 0.210568 0
8.295000 0.184063 0
8.300000 0.153984 0
8.305000 0.122251 0
8.310000 0.090565 0
8.315000 0.060022 0
8.320000 0.030529 0
8.325000 0.000040 0
8.330000 -0.035675 0
8.335000 -0.081333 0
8.340000 -0.137483 0
8.345000 -0.194674 0
8.350000 -0.231127 2
8.355000 -0.216956 0
8.360000 -0.122443 0
8.365000 0.072779 0
8.370000 0.366302 0
8.375000 0.713790 0
8.380000 1.021482 0
8.385000 1.176914 3
8.390000 1.113469 0
8.395000 0.854551 0
8.400000 0.493178 0
8.405000 0.137180 0
8.410000 -0.138457 0
8.415000 -0.302881 0
8.420000 -0.358500 4
8.425000 -0.329464 0
8.430000 -0.252359 0
8.435000 -0.163784 0
8.440000 -0.088009 0
8.445000 -0.032726 0
8.450000 0.005949 0
8.455000 0.035501 0
8.460000 0.061897 0
8.465000 0.088345 0
8.470000 0.116040 0
8.475000 0.145146 0
8.480000 0.175383 0
8.485000 0.206278 0
8.490000 0.237247 0
8.495000 0.267634 0
8.500000 0.296733 0
8.505000 0.323815 0
8.510000 0.348160 0
8.515000 0.369083 0
8.520000 0.385970 0
8.525000 0.398305 0
8.530000 0.405696 0
8.535000 0.407895 5
8.540000 0.404811 0
8.545000 0.396516 0
8.550000 0.383241 0
8.555000 0.365363 0
8.560000 0.343393 0
8.565000 0.317942 0
8.570000 0.289700 0
8.575000 0.259402 0
8.580000 0.227795 0
8.585000 0.195608 0
8.590000 0.163529 0
8.595000 0.132174 0
8.600000 0.102079 0
8.605000 0.073681 0
8.610000 0.047318 0
8.615000 0.023225 0
8.620000 0.001541 0
8.625000 -0.017685 0
8.630000 -0.034477 0
8.635000 -0.048925 0
8.640000 -0.061167 0
8.645000 -0.071376 0
8.650000 -0.079750 0
8.655000 -0.086494 0
8.660000 -0.091817 0
8.665000 -0.095921 0
8.670000 -0.098994 0
8.675000 -0.101209 0
8.680000 -0.102721 0
8.685000 -0.103665 0
8.690000 -0.102999 0
8.695000 -0.102064 0
8.700000 -0.101133 0
8.705000 -0.100207 0
8.710000 -0.099286 0
8.715000 -0.098369 0
8.720000 -0.097456 0
8.725000 -0.096547 0
8.730000 -0.095640 0
8.735000 -0.094733 0
8.740000 -0.093823 0
8.745000 -0.092902 0
8.750000 -0.091959 0
8.755000 -0.090971 0
8.760000 -0.089904 0
8.765000 -0.088704 0
8.770000 -0.087286 0
8.775000 -0.085526 0
8.780000 -0.083248 0
8.785000 -0.080210 0
8.790000 -0.076101 0
8.795000 -0.070534 0
8.800000 -0.063056 0
8.805000 -0.053175 0
8.810000 -0.040401 0
8.815000 -0.024310 0
8.820000 -0.004624 0
8.825000 0.018707 0
8.830000 0.045413 0
8.835000 0.074851 0
8.840000 0.105974 0
8.845000 0.137361 0
8.850000 0.167304 0
8.855000 0.193950 0
8.860000 0.215485 0
8.865000 0.230341 0
8.870000 0.237377 1
8.875000 0.236033 0
8.880000 0.226395 0
8.885000 0.209191 0
8.890000 0.185698 0
8.895000 0.157588 0
8.900000 0.126717 0
8.905000 0.094901 0
8.910000 0.063622 0
8.915000 0.033614 0
8.920000 0.004220 0
8.925000 -0.027267 0
8.930000 -0.065413 0
8.935000 -0.114202 0
8.940000 -0.171986 0
8.945000 -0.226411 0
8.950000 -0.253764 2
8.955000 -0.224316 0
8.960000 -0.110404 0
8.965000 0.104565 0
8.970000 0.412131 0
8.975000 0.760818 0
8.980000 1.053633 0
8.985000 1.183448 3
8.990000 1.096538 0
8.995000 0.823890 0
9.000000 0.459374 0
9.005000 0.106222 0
9.010000 -0.165474 0
9.015000 -0.327429 0
9.020000 -0.382554 4
9.025000 -0.354279 0
9.030000 -0.277909 0
9.035000 -0.189054 0
9.040000 -0.111930 0
9.045000 -0.054915 0
9.050000 -0.014840 0
9.055000 0.015492 0
9.060000 0.042144 0
9.065000 0.068548 0
9.070000 0.096079 0
9.075000 0.125010 0
9.080000 0.155123 0
9.085000 0.185989 0
9.090000 0.217063 0
9.095000 0.247725 0
9.100000 0.277305 0
9.105000 0.305101 0
9.110000 0.330411 0
9.115000 0.352562 0
9.120000 0.370935 0
9.125000 0.384995 0
9.130000 0.394321 0
9.135000 0.398617 5
9.140000 0.397738 0
9.145000 0.391687 0
9.150000 0.380625 0
9.155000 0.364855 0
9.160000 0.344815 0
9.165000 0.321051 0
9.170000 0.294198 0
9.175000 0.264947 0
9.180000 0.234017 0
9.185000 0.202126 0
9.190000 0.169964 0
9.195000 0.138169 0
9.200000 0.107307 0
9.205000 0.077858 0
9.210000 0.050211 0
9.215000 0.024656 0
9.220000 0.001389 0
9.225000 -0.019485 0
9.230000 -0.037942 0
9.235000 -0.054023 0
9.240000 -0.067831 0
9.245000 -0.079508 0
9.250000 -0.089228 0
9.255000 -0.097185 0
9.260000 -0.103578 0
9.265000 -0.108610 0
9.270000 -0.112472 0
9.275000 -0.115345 0
9.280000 -0.117395 0
9.285000 -0.118769 0
9.290000 -0.119594 0
9.295000 -0.118843 0
9.300000 -0.117829 0
9.305000 -0.116820 0
9.310000 -0.115816 0
9.315000 -0.114817 0
9.320000 -0.113823 0
9.325000 -0.112833 0
9.330000 -0.111847 0
9.335000 -0.110864 0
9.340000 -0.109882 0
9.345000 -0.108897 0
9.350000 -0.107904 0
9.355000 -0.106890 0
9.360000 -0.105838 0
9.365000 -0.104716 0
9.370000 -0.103475 0
9.375000 -0.102041 0
9.380000 -0.100303 0
9.385000 -0.098103 0
9.390000 -0.095225 0
9.395000 -0.091387 0
9.400000 -0.086235 0
9.405000 -0.079350 0
9.410000 -0.070265 0
9.415000 -0.058500 0
9.420000 -0.043615 0
9.425000 -0.025278 0
9.430000 -0.003347 0
9.435000 0.022052 0
9.440000 0.050454 0
9.445000 0.081019 0
9.450000 0.112531 0
9.455000 0.143459 0
9.460000 0.172059 0
9.465000 0.196535 0
9.470000 0.215224 0
9.475000 0.226779 0
9.480000 0.230333 1
9.485000 0.225604 0
9.490000 0.212936 0
9.495000 0.193253 0
9.500000 0.167953 0
9.505000 0.138739 0
9.510000 0.107420 0
9.515000 0.075680 0
9.520000 0.044788 0
9.525000 0.015140 0
9.530000 -0.014378 0
9.535000 -0.046916 0
9.540000 -0.087079 0
9.545000 -0.138032 0
9.550000 -0.196442 0
9.555000 -0.248225 0
9.560000 -0.269000 2
9.565000 -0.229806 0
9.570000 -0.104760 0
9.575000 0.120261 0
9.580000 0.433826 0
9.585000 0.782372 0
9.590000 1.069988 0
9.595000 1.193872 3
9.600000 1.099956 0
9.605000 0.820789 0
9.610000 0.454289 0
9.615000 0.105183 0
9.620000 -0.157769 0
9.625000 -0.308745 0
9.630000 -0.353197 4
9.635000 -0.316986 0
9.640000 -0.237082 0
9.645000 -0.149004 0
9.650000 -0.075168 0
9.655000 -0.021750 0
9.660000 0.015766 0
9.665000 0.044817 0
9.670000 0.071095 0
9.675000 0.097579 0
9.680000 0.125343 0
9.685000 0.154503 0
9.690000 0.184762 0
9.695000 0.215642 0
9.700000 0.246558 0
9.705000 0.276857 0
9.710000 0.305836 0
9.715000 0.332773 0
9.720000 0.356953 0
9.725000 0.377701 0
9.730000 0.394409 0
9.735000 0.406570 0
9.740000 0.413798 0
9.745000 0.415852 5
9.750000 0.412645 0
9.755000 0.404250 0
9.760000 0.390898 0
9.765000 0.372966 0
9.770000 0.350959 0
9.775000 0.325485 0
9.780000 0.297228 0
9.785000 0.266915 0
9.790000 0.235288 0
9.795000 0.203073 0
9.800000 0.170949 0
9.805000 0.139533 0
9.810000 0.109357 0
9.815000 0.080858 0
9.820000 0.054376 0
9.825000 0.030146 0
9.830000 0.008312 0
9.835000 -0.011074 0
9.840000 -0.028032 0
9.845000 -0.042648 0
9.850000 -0.055057 0
9.855000 -0.065430 0
9.860000 -0.073958 0
9.865000 -0.080848 0
9.870000 -0.086306 0
9.875000 -0.090532 0
9.880000 -0.093716 0
9.885000 -0.096031 0
9.890000 -0.097631 0
9.895000 -0.098652 0
9.900000 -0.098018 0
9.905000 -0.097108 0
9.910000 -0.096202 0
9.915000 -0.095301 0
9.920000 -0.094404 0
9.925000 -0.093512 0
9.930000 -0.092623 0
9.935000 -0.091738 0
9.940000 -0.090856 0
9.945000 -0.089974 0
9.950000 -0.089089 0
9.955000 -0.088195 0
9.960000 -0.087280 0
9.965000 -0.086325 0
9.970000 -0.085298 0
9.975000 -0.084150 0
9.980000 -0.082801 0
9.985000 -0.081136 0
9.990000 -0.078990 0
9.995000 -0.076137 0
10.000000 -0.072281 0
10.005000 -0.067052 0
10.010000 -0.060011 0
10.015000 -0.050676 0
10.020000 -0.038557 0
10.025000 -0.023212 0
10.030000 -0.004328 0
10.035000 0.018198 0
10.040000 0.044175 0
10.045000 0.073050 0
10.050000 0.103874 0
10.055000 0.135318 0
10.060000 0.165743 0
10.065000 0.193330 0
10.070000 0.216252 0
10.075000 0.232874 0
10.080000 0.241946 0
10.085000 0.242753 1
10.090000 0.235215 0
10.095000 0.219892 0
10.100000 0.197919 0
10.105000 0.170868 0
10.110000 0.140551 0
10.115000 0.108805 0
10.120000 0.077230 0
10.125000 0.046822 0
10.130000 0.017405 0
10.135000 -0.013061 0
10.140000 -0.048684 0
10.145000 -0.094023 0
10.150000 -0.149783 0
10.155000 -0.207370 0
10.160000 -0.246489 2
10.165000 -0.238722 0
10.170000 -0.155065 0
10.175000 0.025721 0
10.180000 0.305483 0
10.185000 0.649116 0
10.190000 0.973902 0
10.195000 1.170630 3
10.200000 1.156621 0
10.205000 0.932250 0
10.210000 0.581878 0
10.215000 0.218128 0
10.220000 -0.073941 0
10.225000 -0.255594 0
10.230000 -0.325021 4
10.235000 -0.304565 0
10.240000 -0.230890 0
10.245000 -0.142284 0
10.250000 -0.065211 0
10.255000 -0.008821 0
10.260000 0.030354 0
10.265000 0.059977 0
10.270000 0.086273 0
10.275000 0.112597 0
10.280000 0.140187 0
10.285000 0.169209 0
10.290000 0.199368 0
10.295000 0.230170 0
10.300000 0.261012 0
10.305000 0.291212 0
10.310000 0.320042 0
10.315000 0.346752 0
10.320000 0.370601 0
10.325000 0.390893 0
10.330000 0.407008 0
10.335000 0.418432 0
10.340000 0.424786 0
10.345000 0.425844 5
10.350000 0.421545 0
10.355000 0.411997 0
10.360000 0.397474 0
10.365000 0.378399 0
10.370000 0.355326 0
10.375000 0.328910 0
10.380000 0.299876 0
10.385000 0.268988 0
10.390000 0.237013 0
10.395000 0.204688 0
10.400000 0.172700 0
10.405000 0.141654 0
10.410000 0.112064 0
10.415000 0.084343 0
10.420000 0.058794 0
10.425000 0.035618 0
10.430000 0.014917 0
10.435000 -0.003293 0
10.440000 -0.019070 0
10.445000 -0.032533 0
10.450000 -0.043841 0
10.455000 -0.053188 0
10.460000 -0.060781 0
10.465000 -0.066836 0
10.470000 -0.071564 0
10.475000 -0.075165 0
10.480000 -0.077825 0
10.485000 -0.079710 0
10.490000 -0.080968 0
10.495000 -0.081495 0
10.500000 -0.080667 0
10.505000 -0.079843 0
10.510000 -0.079023 0
10.515000 -0.078208 0
10.520000 -0.077396 0
10.525000 -0.076588 0
10.530000 -0.075783 0
10.535000 -0.074980 0
10.540000 -0.074178 0
10.545000 -0.073373 0
10.550000 -0.072558 0
10.555000 -0.071722 0
10.560000 -0.070846 0
10.565000 -0.069896 0
10.570000 -0.068821 0
10.575000 -0.067538 0
10.580000 -0.065926 0
10.585000 -0.063810 0
10.590000 -0.060950 0
10.595000 -0.057031 0
10.600000 -0.051661 0
10.605000 -0.044377 0
10.610000 -0.034674 0
10.615000 -0.022046 0
10.620000 -0.006057 0
10.625000 0.013583 0
10.630000 0.036919 0
10.635000 0.063666 0
10.640000 0.093144 0
10.645000 0.124253 0
10.650000 0.155507 0
10.655000 0.185130 0
10.660000 0.211210 0
10.665000 0.231898 0
10.670000 0.245627 0
10.675000 0.251302 1
10.680000 0.248444 0
10.685000 0.237259 0
10.690000 0.218610 0
10.695000 0.193907 0
10.700000 0.164927 0
10.705000 0.133594 0
10.710000 0.101723 0
10.715000 0.070687 0
10.720000 0.040922 0
10.725000 0.011199 0
10.730000 -0.021942 0
10.735000 -0.063413 0
10.740000 -0.116040 0
10.745000 -0.174754 0
10.750000 -0.222367 0
10.755000 -0.231282 2
10.760000 -0.170745 0
10.765000 -0.015638 0
10.770000 0.242471 0
10.775000 0.577668 0
10.780000 0.914368 0
10.785000 1.141119 0
10.790000 1.165163 3
10.795000 0.973180 0
10.800000 0.637467 0
10.805000 0.268276 0
10.810000 -0.043024 0
10.815000 -0.249472 0
10.820000 -0.342762 4
10.825000 -0.340345 0
10.830000 -0.275834 0
10.835000 -0.187729 0
10.840000 -0.105882 0
10.845000 -0.043650 0
10.850000 -0.000201 0
10.855000 0.031572 0
10.860000 0.058499 0
10.865000 0.084699 0
10.870000 0.111918 0
10.875000 0.140570 0
10.880000 0.170476 0
10.885000 0.201203 0
10.890000 0.232195 0
10.895000 0.262807 0
10.900000 0.292341 0
10.905000 0.320066 0
10.910000 0.345249 0
10.915000 0.367187 0
10.920000 0.385237 0
10.925000 0.398848 0
10.930000 0.407588 0
10.935000 0.411166 5
10.940000 0.409447 0
10.945000 0.402461 0
10.950000 0.390400 0
10.955000 0.373609 0
10.960000 0.352570 0
10.965000 0.327878 0
10.970000 0.300213 0
10.975000 0.270307 0
10.980000 0.238914 0
10.985000 0.206776 0
10.990000 0.174597 0
10.995000 0.143017 0
11.000000 0.112595 0
11.005000 0.083793 0
11.010000 0.056974 0
11.015000 0.032393 0
11.020000 0.010211 0
11.025000 -0.009505 0
11.030000 -0.026768 0
11.035000 -0.041657 0
11.040000 -0.054303 0
11.045000 -0.064875 0
11.050000 -0.073569 0
11.055000 -0.080592 0
11.060000 -0.086154 0
11.065000 -0.090460 0
11.070000 -0.093702 0
11.075000 -0.096059 0
11.080000 -0.097688 0
11.085000 -0.098728 0
11.090000 -0.098096 0
11.095000 -0.097186 0
11.100000 -0.096279 0
11.105000 -0.095378 0
11.110000 -0.094481 0
11.115000 -0.093588 0
11.120000 -0.092699 0
11.125000 -0.091813 0
11.130000 -0.090930 0
11.135000 -0.090048 0
11.140000 -0.089162 0
11.145000 -0.088266 0
11.150000 -0.087349 0
11.155000 -0.086389 0
11.160000 -0.085353 0
11.165000 -0.084188 0
11.170000 -0.082811 0
11.175000 -0.081100 0
11.180000 -0.078881 0
11.185000 -0.075915 0
11.190000 -0.071892 0
11.195000 -0.066424 0
11.200000 -0.059059 0
11.205000 -0.049300 0
11.210000 -0.036654 0
11.215000 -0.020688 0
11.220000 -0.001115 0
11.225000 0.022119 0
11.230000 0.048752 0
11.235000 0.078142 0
11.240000 0.109237 0
11.245000 0.140609 0
11.250000 0.170536 0
11.255000 0.197149 0
11.260000 0.218621 0
11.265000 0.233371 0
11.270000 0.240258 1
11.275000 0.238724 0
11.280000 0.228872 0
11.285000 0.211450 0
11.290000 0.187761 0
11.295000 0.159498 0
11.300000 0.128538 0
11.305000 0.096702 0
11.310000 0.065462 0
11.315000 0.035502 0
11.320000 0.006063 0
11.325000 -0.025717 0
11.330000 -0.064504 0
11.335000 -0.114110 0
11.340000 -0.172243 0
11.345000 -0.225519 0
11.350000 -0.249286 2
11.355000 -0.213424 0
11.360000 -0.090631 0
11.365000 0.134186 0
11.370000 0.449038 0
11.375000 0.796986 0
11.380000 1.076790 0
11.385000 1.183041 3
11.390000 1.070869 0
11.395000 0.781314 0
11.400000 0.413013 0
11.405000 0.067280 0
11.410000 -0.190909 0
11.415000 -0.337927 0
11.420000 -0.379968 4
11.425000 -0.342760 0
11.430000 -0.262624 0
11.435000 -0.174361 0
11.440000 -0.100054 0
11.445000 -0.045988 0
11.450000 -0.007898 0
11.455000 0.021515 0
11.460000 0.047955 0
11.465000 0.074480 0
11.470000 0.102235 0
11.475000 0.131381 0
11.480000 0.161651 0
11.485000 0.192588 0
11.490000 0.223631 0
11.495000 0.254144 0
11.500000 0.283445 0
11.505000 0.310828 0
11.510000 0.335589 0
11.515000 0.357058 0
11.520000 0.374627 0
11.525000 0.387779 0
11.530000 0.396113 0
11.535000 0.399362 5
11.540000 0.397408 0
11.545000 0.390289 0
11.550000 0.378195 0
11.555000 0.361464 0
11.560000 0.340559 0
11.565000 0.316053 0
11.570000 0.288598 0
11.575000 0.258899 0
11.580000 0.227681 0
11.585000 0.195663 0
11.590000 0.163527 0
11.595000 0.131899 0
11.600000 0.101331 0
11.605000 0.072284 0
11.610000 0.045123 0
11.615000 0.020118 0
11.620000 -0.002559 0
11.625000 -0.022822 0
11.630000 -0.040666 0
11.635000 -0.056150 0
11.640000 -0.069387 0
11.645000 -0.080532 0
11.650000 -0.089765 0
11.655000 -0.097283 0
11.660000 -0.103289 0
11.665000 -0.107984 0
11.670000 -0.111559 0
11.675000 -0.114191 0
11.680000 -0.116041 0
11.685000 -0.117252 0
11.690000 -0.117700 0
11.695000 -0.116691 0
11.700000 -0.115688 0
11.705000 -0.114690 0
11.710000 -0.113696 0
11.715000 -0.112708 0
11.720000 -0.111724 0
11.725000 -0.110744 0
11.730000 -0.109768 0
11.735000 -0.108794 0
11.740000 -0.107821 0
11.745000 -0.106843 0
11.750000 -0.105853 0
11.755000 -0.104838 0
11.760000 -0.103775 0
11.765000 -0.102628 0
11.770000 -0.101340 0
11.775000 -0.099824 0
11.780000 -0.097955 0
11.785000 -0.095554 0
11.790000 -0.092382 0
11.795000 -0.088130 0
11.800000 -0.082417 0
11.805000 -0.074802 0
11.810000 -0.064804 0
11.815000 -0.051950 0
11.820000 -0.035827 0
11.825000 -0.016163 0
11.830000 0.007094 0
11.835000 0.033697 0
11.840000 0.063037 0
11.845000 0.094124 0
11.850000 0.125601 0
11.855000 0.155831 0
11.860000 0.183018 0
11.865000 0.205386 0
11.870000 0.221366 0
11.875000 0.229779 0
11.880000 0.229979 1
11.885000 0.221937 0
11.890000 0.206246 0
11.895000 0.184049 0
11.900000 0.156900 0
11.905000 0.126581 0
11.910000 0.094891 0
11.915000 0.063390 0
11.920000 0.033048 0
11.925000 0.003700 0
11.930000 -0.026629 0
11.935000 -0.061923 0
11.940000 -0.106700 0
11.945000 -0.161945 0
11.950000 -0.219842 0
11.955000 -0.261193 2
11.960000 -0.258502 0
11.965000 -0.183079 0
11.970000 -0.012981 0
11.975000 0.256377 0
11.980000 0.595693 0
11.985000 0.929456 0
11.990000 1.151383 0
11.995000 1.175027 3
12.000000 0.985920 0
12.005000 0.652552 0
12.010000 0.282605 0
12.015000 -0.033154 0
12.020000 -0.246661 0
12.025000 -0.347895 0
12.030000 -0.352426 4
12.035000 -0.292145 0
12.040000 -0.204832 0
12.045000 -0.121137 0
12.050000 -0.056104 0
12.055000 -0.010321 0
12.060000 0.022776 0
12.065000 0.050162 0
12.070000 0.076326 0
12.075000 0.103308 0
12.080000 0.131689 0
12.085000 0.161371 0
12.090000 0.191970 0
12.095000 0.222965 0
12.100000 0.253743 0
12.105000 0.283633 0
12.110000 0.311927 0
12.115000 0.337907 0
12.120000 0.360873 0
12.125000 0.380178 0
12.130000 0.395253 0
12.135000 0.405637 0
12.140000 0.410998 0
12.145000 0.411151 5
12.150000 0.406069 0
12.155000 0.395883 0
12.160000 0.380874 0
12.165000 0.361466 0
12.170000 0.338198 0
12.175000 0.311705 0
12.180000 0.282684 0
12.185000 0.251866 0
12.190000 0.219986 0
12.195000 0.187751 0
12.200000 0.155819 0
12.205000 0.124775 0
12.210000 0.095119 0
12.215000 0.067255 0
12.220000 0.041485 0
12.225000 0.018015 0
12.230000 -0.003042 0
12.235000 -0.021657 0
12.240000 -0.037873 0
12.245000 -0.051790 0
12.250000 -0.063555 0
12.255000 -0.073344 0
12.260000 -0.081354 0
12.265000 -0.087790 0
12.270000 -0.092856 0
12.275000 -0.096749 0
12.280000 -0.099652 0
12.285000 -0.101733 0
12.290000 -0.103140 0
12.295000 -0.104002 0
12.300000 -0.103323 0
12.305000 -0.102386 0
12.310000 -0.101454 0
12.315000 -0.100527 0
12.320000 -0.099604 0
12.325000 -0.098685 0
12.330000 -0.097771 0
12.335000 -0.096860 0
12.340000 -0.095951 0
12.345000 -0.095042 0
12.350000 -0.094130 0
12.355000 -0.093206 0
12.360000 -0.092258 0
12.365000 -0.091266 0
12.370000 -0.090192 0
12.375000 -0.088984 0
12.380000 -0.087555 0
12.385000 -0.085783 0
12.390000 -0.083492 0
12.395000 -0.080444 0
12.400000 -0.076330 0
12.405000 -0.070769 0
12.410000 -0.063316 0
12.415000 -0.053486 0
12.420000 -0.040796 0
12.425000 -0.024825 0
12.430000 -0.005293 0
12.435000 0.017860 0
12.440000 0.044386 0
12.445000 0.073673 0
12.450000 0.104715 0
12.455000 0.136135 0
12.460000 0.166269 0
12.465000 0.193297 0
12.470000 0.215420 0
12.475000 0.231058 0
12.480000 0.239036 1
12.485000 0.238728 0
12.490000 0.230140 0
12.495000 0.213910 0
12.500000 0.191231 0
12.505000 0.163703 0
12.510000 0.133142 0
12.515000 0.101362 0
12.520000 0.069902 0
12.525000 0.039656 0
12.530000 0.010284 0
12.535000 -0.020465 0
12.540000 -0.056831 0
12.545000 -0.103202 0
12.550000 -0.159635 0
12.555000 -0.216562 0
12.560000 -0.252895 2
12.565000 -0.240043 0
12.570000 -0.149495 0
12.575000 0.038858 0
12.580000 0.324807 0
12.585000 0.670294 0
12.590000 0.990272 0
12.595000 1.176197 3
12.600000 1.149660 0
12.605000 0.916230 0
12.610000 0.562698 0
12.615000 0.200614 0
12.620000 -0.087511 0
12.625000 -0.264976 0
12.630000 -0.331049 4
12.635000 -0.308516 0
12.640000 -0.234012 0
12.645000 -0.145401 0
12.650000 -0.068615 0
12.655000 -0.012463 0
12.660000 0.026612 0
12.665000 0.056223 0
12.670000 0.082536 0
12.675000 0.108875 0
12.680000 0.136474 0
12.685000 0.165498 0
12.690000 0.195661 0
12.695000 0.226472 0
12.700000 0.257335 0
12.705000 0.287576 0
12.710000 0.316472 0
12.715000 0.343278 0
12.720000 0.367260 0
12.725000 0.387725 0
12.730000 0.404053 0
12.735000 0.415729 0
12.740000 0.422370 0
12.745000 0.423743 5
12.750000 0.419778 0
12.755000 0.410574 0
12.760000 0.396390 0
12.765000 0.377638 0
12.770000 0.354859 0
12.775000 0.328697 0
12.780000 0.299866 0
12.785000 0.269123 0
12.790000 0.237229 0
12.795000 0.204922 0
12.800000 0.172885 0
12.805000 0.141732 0
12.810000 0.111981 0
12.815000 0.084052 0
12.820000 0.058259 0
12.825000 0.034811 0
12.830000 0.013822 0
12.835000 -0.004683 0
12.840000 -0.020754 0
12.845000 -0.034500 0
12.850000 -0.046076 0
12.855000 -0.055670 0
12.860000 -0.063487 0
12.865000 -0.069739 0
12.870000 -0.074638 0
12.875000 -0.078385 0
12.880000 -0.081166 0
12.885000 -0.083150 0
12.890000 -0.084485 0
12.895000 -0.085061 0
12.900000 -0.084215 0
12.905000 -0.083374 0
12.910000 -0.082536 0
12.915000 -0.081703 0
12.920000 -0.080874 0
12.925000 -0.080049 0
12.930000 -0.079227 0
12.935000 -0.078408 0
12.940000 -0.077589 0
12.945000 -0.076769 0
12.950000 -0.075940 0
12.955000 -0.075095 0
12.960000 -0.074214 0
12.965000 -0.073269 0
12.970000 -0.072213 0
12.975000 -0.070972 0
12.980000 -0.069437 0
12.985000 -0.067447 0
12.990000 -0.064781 0
12.995000 -0.061146 0
13.000000 -0.056170 0
13.005000 -0.049412 0
13.010000 -0.040376 0
13.015000 -0.028558 0
13.020000 -0.013495 0
13.025000 0.005145 0
13.030000 0.027484 0
13.035000 0.053336 0
13.040000 0.082143 0
13.045000 0.112930 0
13.050000 0.144326 0
13.055000 0.174640 0
13.060000 0.201994 0
13.065000 0.224513 0
13.070000 0.240535 0
13.075000 0.248810 1
13.080000 0.248663 0
13.085000 0.240081 0
13.090000 0.223722 0
13.095000 0.200825 0
13.100000 0.173058 0
13.105000 0.142310 0
13.110000 0.110446 0
13.115000 0.079025 0
13.120000 0.048869 0
13.125000 0.019420 0
13.130000 -0.011968 0
13.135000 -0.049898 0
13.140000 -0.098516 0
13.145000 -0.156310 0
13.150000 -0.210797 0
13.155000 -0.237776 2
13.160000 -0.206883 0
13.165000 -0.090020 0
13.170000 0.129178 0
13.175000 0.440533 0
13.180000 0.788810 0
13.185000 1.072889 0
13.190000 1.185196 3
13.195000 1.075851 0
13.200000 0.785353 0
13.205000 0.416499 0
13.210000 0.074031 0
13.215000 -0.176597 0
13.220000 -0.313349 0
13.225000 -0.344912 4
13.230000 -0.299854 0
13.235000 -0.216572 0
13.240000 -0.129841 0
13.245000 -0.059677 0
13.250000 -0.009853 0
13.255000 0.025358 0
13.260000 0.053428 0
13.265000 0.079567 0
13.270000 0.106292 0
13.275000 0.134400 0
13.280000 0.163871 0
13.285000 0.194341 0
13.290000 0.225287 0
13.295000 0.256091 0
13.300000 0.286067 0
13.305000 0.314488 0
13.310000 0.340616 0
13.315000 0.363729 0
13.320000 0.383158 0
13.325000 0.398312 0
13.330000 0.408716 0
13.335000 0.414026 0
13.340000 0.414053 5
13.345000 0.408772 0
13.350000 0.398322 0
13.355000 0.383002 0
13.360000 0.363254 0
13.365000 0.339641 0
13.370000 0.312824 0
13.375000 0.283524 0
13.380000 0.252496 0
13.385000 0.220492 0
13.390000 0.188235 0
13.395000 0.156391 0
13.400000 0.125546 0
13.405000 0.096197 0
13.410000 0.068736 0
13.415000 0.043455 0
13.420000 0.020541 0
13.425000 0.000087 0
13.430000 -0.017896 0
13.435000 -0.033470 0
13.440000 -0.046754 0
13.445000 -0.057909 0
13.450000 -0.067124 0
13.455000 -0.074606 0
13.460000 -0.080566 0
13.465000 -0.085212 0
13.470000 -0.088742 0
13.475000 -0.091338 0
13.480000 -0.093164 0
13.485000 -0.094366 0
13.490000 -0.094836 0
13.495000 -0.093942 0
13.500000 -0.093052 0
13.505000 -0.092166 0
13.510000 -0.091285 0
13.515000 -0.090408 0
13.520000 -0.089535 0
13.525000 -0.088666 0
13.530000 -0.087799 0
13.535000 -0.086933 0
13.540000 -0.086065 0
13.545000 -0.085189 0
13.550000 -0.084294 0
13.555000 -0.083362 0
13.560000 -0.082364 0
13.565000 -0.081249 0
13.570000 -0.079943 0
13.575000 -0.078332 0
13.580000 -0.076255 0
13.585000 -0.073484 0
13.590000 -0.069725 0
13.595000 -0.064604 0
13.600000 -0.057677 0
13.605000 -0.048453 0
13.610000 -0.036429 0
13.615000 -0.021154 0
13.620000 -0.002303 0
13.625000 0.020231 0
13.630000 0.046250 0
13.635000 0.075183 0
13.640000 0.106050 0
13.645000 0.137480 0
13.650000 0.167785 0
13.655000 0.195103 0
13.660000 0.217573 0
13.665000 0.233551 0
13.670000 0.241801 1
13.675000 0.241659 0
13.680000 0.233115 0
13.685000 0.216821 0
13.690000 0.194005 0
13.695000 0.166320 0
13.700000 0.135639 0
13.705000 0.103816 0
13.710000 0.072408 0
13.715000 0.042255 0
13.720000 0.012850 0
13.725000 -0.018361 0
13.730000 -0.055904 0
13.735000 -0.103997 0
13.740000 -0.161508 0
13.745000 -0.216621 0
13.750000 -0.245814 2
13.755000 -0.219072 0
13.760000 -0.108139 0
13.765000 0.104303 0
13.770000 0.410489 0
13.775000 0.759118 0
13.780000 1.052338 0
13.785000 1.181604 3
13.790000 1.092471 0
13.795000 0.817163 0
13.800000 0.451732 0
13.805000 0.100566 0
13.810000 -0.166622 0
13.815000 -0.322719 0
13.820000 -0.371988 4
13.825000 -0.339233 0
13.830000 -0.260772 0
13.835000 -0.172264 0
13.840000 -0.096968 0
13.845000 -0.042012 0
13.850000 -0.003424 0
13.855000 0.026163 0
13.860000 0.052611 0
13.865000 0.079088 0
13.870000 0.106789 0
13.875000 0.135891 0
13.880000 0.166129 0
13.885000 0.197041 0
13.890000 0.228061 0
13.895000 0.258547 0
13.900000 0.287807 0
13.905000 0.315129 0
13.910000 0.339800 0
13.915000 0.361144 0
13.920000 0.378550 0
13.925000 0.391498 0
13.930000 0.399587 0
13.935000 0.402554 5
13.940000 0.400288 0
13.945000 0.392836 0
13.950000 0.380400 0
13.955000 0.363328 0
13.960000 0.342101 0
13.965000 0.317303 0
13.970000 0.289600 0
13.975000 0.259706 0
13.980000 0.228356 0
13.985000 0.196274 0
13.990000 0.164144 0
13.995000 0.132593 0
14.000000 0.102166 0
14.005000 0.073319 0
14.010000 0.046410 0
14.015000 0.021696 0
14.020000 -0.000659 0
14.025000 -0.020583 0
14.030000 -0.038079 0
14.035000 -0.053218 0
14.040000 -0.066121 0
14.045000 -0.076950 0
14.050000 -0.085890 0
14.055000 -0.093143 0
14.060000 -0.098914 0
14.065000 -0.103403 0
14.070000 -0.106803 0
14.075000 -0.109289 0
14.080000 -0.111020 0
14.085000 -0.112136 0
14.090000 -0.112526 0
14.095000 -0.111543 0
14.100000 -0.110565 0
14.105000 -0.109592 0
14.110000 -0.108624 0
14.115000 -0.107661 0
14.120000 -0.106702 0
14.125000 -0.105747 0
14.130000 -0.104796 0
14.135000 -0.103846 0
14.140000 -0.102895 0
14.145000 -0.101938 0
14.150000 -0.100966 0
14.155000 -0.099962 0
14.160000 -0.098901 0
14.165000 -0.097741 0
14.170000 -0.096416 0
14.175000 -0.094827 0
14.180000 -0.092831 0
14.185000 -0.090230 0
14.190000 -0.086760 0
14.195000 -0.082083 0
14.200000 -0.075791 0
14.205000 -0.067423 0
14.210000 -0.056488 0
14.215000 -0.042521 0
14.220000 -0.025149 0
14.225000 -0.004165 0
14.230000 0.020377 0
14.235000 0.048098 0
14.240000 0.078235 0
14.245000 0.109637 0
14.250000 0.140812 0
14.255000 0.170019 0
14.260000 0.195431 0
14.265000 0.215313 0
14.270000 0.228221 0
14.275000 0.233175 1
14.280000 0.229782 0
14.285000 0.218286 0
14.290000 0.199541 0
14.295000 0.174908 0
14.300000 0.146085 0
14.305000 0.114910 0
14.310000 0.083126 0
14.315000 0.052086 0
14.320000 0.022315 0
14.325000 -0.007144 0
14.330000 -0.039309 0
14.335000 -0.078811 0
14.340000 -0.129116 0
14.345000 -0.187397 0
14.350000 -0.239968 0
14.355000 -0.262430 2
14.360000 -0.225386 0
14.365000 -0.102323 0
14.370000 0.121456 0
14.375000 0.434715 0
14.380000 0.783157 0
14.385000 1.069182 0
14.390000 1.188667 3
14.395000 1.089980 0
14.400000 0.808087 0
14.405000 0.441096 0
14.410000 0.092828 0
14.415000 -0.168951 0
14.420000 -0.318985 0
14.425000 -0.362898 4
14.430000 -0.326492 0
14.435000 -0.246550 0
14.440000 -0.158401 0
14.445000 -0.084393 0
14.450000 -0.030754 0
14.455000 0.006950 0
14.460000 0.036119 0
14.465000 0.062454 0
14.470000 0.088958 0
14.475000 0.116728 0
14.480000 0.145893 0
14.485000 0.176165 0
14.490000 0.207071 0
14.495000 0.238034 0
14.500000 0.268406 0
14.505000 0.297489 0
14.510000 0.324566 0
14.515000 0.348924 0
14.520000 0.369890 0
14.525000 0.386856 0
14.530000 0.399312 0
14.535000 0.406867 0
14.540000 0.409272 5
14.545000 0.406431 0
14.550000 0.398408 0
14.555000 0.385421 0
14.560000 0.367837 0
14.565000 0.346148 0
14.570000 0.320953 0
14.575000 0.292927 0
14.580000 0.262791 0
14.585000 0.231283 0
14.590000 0.199125 0
14.595000 0.167000 0
14.600000 0.135527 0
14.605000 0.105244 0
14.610000 0.076595 0
14.615000 0.049927 0
14.620000 0.025485 0
14.625000 0.003420 0
14.630000 -0.016204 0
14.635000 -0.033401 0
14.640000 -0.048251 0
14.645000 -0.060882 0
14.650000 -0.071459 0
14.655000 -0.080174 0
14.660000 -0.087227 0
14.665000 -0.092827 0
14.670000 -0.097172 0
14.675000 -0.100453 0
14.680000 -0.102845 0
14.685000 -0.104503 0
14.690000 -0.105566 0
14.695000 -0.104909 0
14.700000 -0.103964 0
14.705000 -0.103024 0
14.710000 -0.102089 0
14.715000 -0.101159 0
14.720000 -0.100232 0
14.725000 -0.099310 0
14.730000 -0.098392 0
14.735000 -0.097477 0
14.740000 -0.096563 0
14.745000 -0.095647 0
14.750000 -0.094723 0
14.755000 -0.093781 0
14.760000 -0.092804 0
14.765000 -0.091763 0
14.770000 -0.090612 0
14.775000 -0.089279 0
14.780000 -0.087657 0
14.785000 -0.085593 0
14.790000 -0.082875 0
14.795000 -0.079224 0
14.800000 -0.074286 0
14.805000 -0.067639 0
14.810000 -0.058809 0
14.815000 -0.047307 0
14.820000 -0.032677 0
14.825000 -0.014573 0
14.830000 0.007162 0
14.835000 0.032411 0
14.840000 0.060711 0
14.845000 0.091210 0
14.850000 0.122672 0
14.855000 0.153530 0
14.860000 0.182004 0
14.865000 0.206262 0
14.870000 0.224613 0
14.875000 0.235702 0
14.880000 0.238673 1
14.885000 0.233280 0
14.890000 0.219920 0
14.895000 0.199585 0
14.900000 0.173738 0
14.905000 0.144139 0
14.910000 0.112632 0
14.915000 0.080902 0
14.920000 0.050149 0
14.925000 0.020594 0
14.930000 -0.009213 0
14.935000 -0.042829 0
14.940000 -0.084983 0
14.945000 -0.138058 0
14.950000 -0.196681 0
14.955000 -0.244008 0
14.960000 -0.253491 2
14.965000 -0.195610 0
14.970000 -0.045939 0
14.975000 0.204913 0
14.980000 0.535334 0
14.985000 0.877498 0
14.990000 1.126296 0
14.995000 1.186141 3
15.000000 1.027099 0
15.005000 0.707792 0
15.010000 0.336757 0
15.015000 0.011574 0
15.020000 -0.213254 0
15.025000 -0.324070 0
15.030000 -0.334946 4
15.035000 -0.277659 0
15.040000 -0.190961 0
15.045000 -0.106897 0
15.050000 -0.041506 0
15.055000 0.004339 0
15.060000 0.037323 0
15.065000 0.064589 0
15.070000 0.090692 0
15.075000 0.117667 0
15.080000 0.146067 0
15.085000 0.175767 0
15.090000 0.206363 0
15.095000 0.237307 0
15.100000 0.267965 0
15.105000 0.297643 0
15.110000 0.325610 0
15.115000 0.351129 0
15.120000 0.373490 0
15.125000 0.392038 0
15.130000 0.406206 0
15.135000 0.415544 0
15.140000 0.419742 5
15.145000 0.418644 0
15.150000 0.412259 0
15.155000 0.400759 0
15.160000 0.384473 0
15.165000 0.363868 0
15.170000 0.339530 0
15.175000 0.312131 0
15.180000 0.282402 0
15.185000 0.251096 0
15.190000 0.218963 0
15.195000 0.186713 0
15.200000 0.154996 0
15.205000 0.124383 0
15.210000 0.095347 0
15.215000 0.068263 0
15.220000 0.043399 0
15.225000 0.020925 0
15.230000 0.000918 0
15.235000 -0.016628 0
15.240000 -0.031786 0
15.245000 -0.044683 0
15.250000 -0.055486 0
15.255000 -0.064389 0
15.260000 -0.071598 0
15.265000 -0.077325 0
15.270000 -0.081776 0
15.275000 -0.085146 0
15.280000 -0.087614 0
15.285000 -0.089340 0
15.290000 -0.090465 0
15.295000 -0.089881 0
15.300000 -0.089011 0
15.305000 -0.088146 0
15.310000 -0.087285 0
15.315000 -0.086428 0
15.320000 -0.085575 0
15.325000 -0.084726 0
15.330000 -0.083881 0
15.335000 -0.083037 0
15.340000 -0.082195 0
15.345000 -0.081349 0
15.350000 -0.080493 0
15.355000 -0.079616 0
15.360000 -0.078699 0
15.365000 -0.077708 0
15.370000 -0.076591 0
15.375000 -0.075268 0
15.380000 -0.073618 0
15.385000 -0.071470 0
15.390000 -0.068589 0
15.395000 -0.064668 0
15.400000 -0.059321 0
15.405000 -0.052098 0
15.410000 -0.042503 0
15.415000 -0.030038 0
15.420000 -0.014266 0
15.425000 0.005110 0
15.430000 0.028156 0
15.435000 0.054626 0
15.440000 0.083889 0
15.445000 0.114909 0
15.450000 0.146266 0
15.455000 0.176240 0
15.460000 0.202962 0
15.465000 0.224592 0
15.470000 0.239535 0
15.475000 0.246630 1
15.480000 0.245299 0
15.485000 0.235627 0
15.490000 0.218347 0
15.495000 0.194755 0
15.500000 0.166541 0
15.505000 0.135585 0
15.510000 0.103718 0
15.515000 0.072426 0
15.520000 0.042415 0
15.525000 0.012950 0
15.530000 -0.018803 0
15.535000 -0.057512 0
15.540000 -0.107036 0
15.545000 -0.165164 0
15.550000 -0.218586 0
15.555000 -0.242646 2
15.560000 -0.207148 0
15.565000 -0.084682 0
15.570000 0.139939 0
15.575000 0.454746 0
15.580000 0.802639 0
15.585000 1.082059 0
15.590000 1.187390 3
15.595000 1.071868 0
15.600000 0.778078 0
15.605000 0.408779 0
15.610000 0.067353 0
15.615000 -0.182031 0
15.620000 -0.317965 0
15.625000 -0.349245 4
15.630000 -0.304245 0
15.635000 -0.221044 0
15.640000 -0.134192 0
15.645000 -0.063710 0
15.650000 -0.013526 0
15.655000 0.021946 0
15.660000 0.050140 0
15.665000 0.076300 0
15.670000 0.102995 0
15.675000 0.131055 0
15.680000 0.160481 0
15.685000 0.190923 0
15.690000 0.221868 0
15.695000 0.252706 0
15.700000 0.282762 0
15.705000 0.311316 0
15.710000 0.337637 0
15.715000 0.361006 0
15.720000 0.380754 0
15.725000 0.396290 0
15.730000 0.407131 0
15.735000 0.412925 0
15.740000 0.413470 5
15.745000 0.408725 0
15.750000 0.398811 0
15.755000 0.384009 0
15.760000 0.364742 0
15.765000 0.341558 0
15.770000 0.315100 0
15.775000 0.286079 0
15.780000 0.255241 0
15.785000 0.223334 0
15.790000 0.191079 0
15.795000 0.159145 0
15.800000 0.128128 0
15.805000 0.098533 0
15.810000 0.070765 0
15.815000 0.045128 0
15.820000 0.021825 0
15.825000 0.000963 0
15.830000 -0.017435 0
15.835000 -0.033418 0
15.840000 -0.047097 0
15.845000 -0.058622 0
15.850000 -0.068180 0
15.855000 -0.075971 0
15.860000 -0.082205 0
15.865000 -0.087089 0
15.870000 -0.090822 0
15.875000 -0.093588 0
15.880000 -0.095555 0
15.885000 -0.096870 0
15.890000 -0.097414 0
15.895000 -0.096507 0
15.900000 -0.095604 0
15.905000 -0.094706 0
15.910000 -0.093812 0
15.915000 -0.092923 0
15.920000 -0.092037 0
15.925000 -0.091156 0
15.930000 -0.090277 0
15.935000 -0.089400 0
15.940000 -0.088522 0
15.945000 -0.087638 0
15.950000 -0.086739 0
15.955000 -0.085809 0
15.960000 -0.084822 0
15.965000 -0.083737 0
15.970000 -0.082487 0
15.975000 -0.080971 0
15.980000 -0.079045 0
15.985000 -0.076506 0
15.990000 -0.073082 0
15.995000 -0.068426 0
16.000000 -0.062120 0
16.005000 -0.053689 0
16.010000 -0.042631 0
16.015000 -0.028475 0
16.020000 -0.010848 0
16.025000 0.010439 0
16.030000 0.035302 0
16.035000 0.063311 0
16.040000 0.093636 0
16.045000 0.125050 0
16.050000 0.155981 0
16.055000 0.184624 0
16.060000 0.209112 0
16.065000 0.227710 0
16.070000 0.239020 0
16.075000 0.242152 1
16.080000 0.236842 0
16.085000 0.223486 0
16.090000 0.203092 0
16.095000 0.177153 0
16.100000 0.147464 0
16.105000 0.115902 0
16.110000 0.084173 0
16.115000 0.053466 0
16.120000 0.023931 0
16.125000 -0.006037 0
16.130000 -0.040206 0
16.135000 -0.083363 0
16.140000 -0.137439 0
16.145000 -0.195880 0
16.150000 -0.240240 0
16.155000 -0.242711 2
16.160000 -0.173435 0
16.165000 -0.008953 0
16.170000 0.256792 0
16.175000 0.595105 0
16.180000 0.928945 0
16.185000 1.148680 0
16.190000 1.165818 3
16.195000 0.970361 0
16.200000 0.634153 0
16.205000 0.264719 0
16.210000 -0.048604 0
16.215000 -0.259151 0
16.220000 -0.357756 0
16.225000 -0.360422 4
16.230000 -0.299179 0
16.235000 -0.211651 0
16.240000 -0.128140 0
16.245000 -0.063365 0
16.250000 -0.017745 0
16.255000 0.015297 0
16.260000 0.042697 0
16.265000 0.068899 0
16.270000 0.095924 0
16.275000 0.124346 0
16.280000 0.154065 0
16.285000 0.184701 0
16.290000 0.215730 0
16.295000 0.246547 0
16.300000 0.276481 0
16.305000 0.304827 0
16.310000 0.330870 0
16.315000 0.353914 0
16.320000 0.373311 0
16.325000 0.388494 0
16.330000 0.399002 0
16.335000 0.404502 0
16.340000 0.404807 5
16.345000 0.399885 0
16.350000 0.389863 0
16.355000 0.375018 0
16.360000 0.355768 0
16.365000 0.332648 0
16.370000 0.306286 0
16.375000 0.277376 0
16.380000 0.246646 0
16.385000 0.214826 0
16.390000 0.182625 0
16.395000 0.150699 0
16.400000 0.119636 0
16.405000 0.089936 0
16.410000 0.062007 0
16.415000 0.036156 0
16.420000 0.012592 0
16.425000 -0.008568 0
16.430000 -0.027290 0
16.435000 -0.043614 0
16.440000 -0.057636 0
16.445000 -0.069499 0
16.450000 -0.079378 0
16.455000 -0.087469 0
16.460000 -0.093974 0
16.465000 -0.099098 0
16.470000 -0.103038 0
16.475000 -0.105977 0
16.480000 -0.108083 0
16.485000 -0.109506 0
16.490000 -0.110376 0
16.495000 -0.109670 0
16.500000 -0.108702 0
16.505000 -0.107739 0
16.510000 -0.106780 0
16.515000 -0.105826 0
16.520000 -0.104876 0
16.525000 -0.103931 0
16.530000 -0.102989 0
16.535000 -0.102050 0
16.540000 -0.101112 0
16.545000 -0.100170 0
16.550000 -0.099218 0
16.555000 -0.098245 0
16.560000 -0.097229 0
16.565000 -0.096137 0
16.570000 -0.094918 0
16.575000 -0.093492 0
16.580000 -0.091738 0
16.585000 -0.089491 0
16.590000 -0.086520 0
16.595000 -0.082527 0
16.600000 -0.077140 0
16.605000 -0.069924 0
16.610000 -0.060397 0
16.615000 -0.048077 0
16.620000 -0.032531 0
16.625000 -0.013456 0
16.630000 0.009239 0
16.635000 0.035356 0
16.640000 0.064335 0
16.645000 0.095229 0
16.650000 0.126717 0
16.655000 0.157174 0
16.660000 0.184798 0
16.665000 0.207784 0
16.670000 0.224513 0
16.675000 0.233742 0
16.680000 0.234757 1
16.685000 0.227464 0
16.690000 0.212404 0
16.695000 0.190685 0
16.700000 0.163848 0
16.705000 0.133682 0
16.710000 0.102010 0
16.715000 0.070433 0
16.720000 0.039985 0
16.725000 0.010586 0
16.730000 -0.019640 0
16.735000 -0.054631 0
16.740000 -0.098990 0
16.745000 -0.153956 0
16.750000 -0.212024 0
16.755000 -0.254146 2
16.760000 -0.252695 0
16.765000 -0.178648 0
16.770000 -0.009675 0
16.775000 0.259106 0
16.780000 0.598338 0
16.785000 0.931818 0
16.790000 1.152228 0
16.795000 1.172790 3
16.800000 0.980465 0
16.805000 0.645368 0
16.810000 0.275782 0
16.815000 -0.037920 0
16.820000 -0.248495 0
16.825000 -0.346687 0
16.830000 -0.348715 4
16.835000 -0.286966 0
16.840000 -0.199355 0
16.845000 -0.116207 0
16.850000 -0.052011 0
16.855000 -0.006922 0
16.860000 0.025781 0
16.865000 0.053025 0
16.870000 0.079190 0
16.875000 0.106230 0
16.880000 0.134679 0
16.885000 0.164417 0
16.890000 0.195048 0
16.895000 0.226041 0
16.900000 0.256778 0
16.905000 0.286582 0
16.910000 0.314738 0
16.915000 0.340526 0
16.920000 0.363248 0
16.925000 0.382255 0
16.930000 0.396984 0
16.935000 0.406980 0
16.940000 0.411923 5
16.945000 0.411638 0
16.950000 0.406111 0
16.955000 0.395486 0
16.960000 0.380061 0
16.965000 0.360270 0
16.970000 0.336666 0
16.975000 0.309893 0
16.980000 0.280658 0
16.985000 0.249695 0
16.990000 0.217740 0
16.995000 0.185502 0
17.000000 0.153633 0
17.005000 0.122713 0
17.010000 0.093233 0
17.015000 0.065588 0
17.020000 0.040071 0
17.025000 0.016877 0
17.030000 -0.003891 0
17.035000 -0.022214 0
17.040000 -0.038142 0
17.045000 -0.051783 0
17.050000 -0.063288 0
17.055000 -0.072838 0
17.060000 -0.080632 0
17.065000 -0.086876 0
17.070000 -0.091775 0
17.075000 -0.095526 0
17.080000 -0.098309 0
17.085000 -0.100291 0
17.090000 -0.101617 0
17.095000 -0.102165 0
17.100000 -0.101234 0
17.105000 -0.100308 0
17.110000 -0.099386 0
17.115000 -0.098469 0
17.120000 -0.097557 0
17.125000 -0.096648 0
17.130000 -0.095744 0
17.135000 -0.094842 0
17.140000 -0.093943 0
17.145000 -0.093043 0
17.150000 -0.092139 0
17.155000 -0.091221 0
17.160000 -0.090276 0
17.165000 -0.089281 0
17.170000 -0.088196 0
17.175000 -0.086963 0
17.180000 -0.085489 0
17.185000 -0.083641 0
17.190000 -0.081233 0
17.195000 -0.078011 0
17.200000 -0.073651 0
17.205000 -0.067756 0
17.210000 -0.059868 0
17.215000 -0.049498 0
17.220000 -0.036166 0
17.225000 -0.019473 0
17.230000 0.000824 0
17.235000 0.024725 0
17.240000 0.051908 0
17.245000 0.081671 0
17.250000 0.112920 0
17.255000 0.144199 0
17.260000 0.173788 0
17.265000 0.199846 0
17.270000 0.220599 0
17.275000 0.234538 0
17.280000 0.240600 1
17.285000 0.238301 0
17.290000 0.227799 0
17.295000 0.209880 0
17.300000 0.185855 0
17.305000 0.157403 0
17.310000 0.126371 0
17.315000 0.094538 0
17.320000 0.063332 0
17.325000 0.033400 0
17.330000 0.003969 0
17.335000 -0.027779 0
17.340000 -0.066428 0
17.345000 -0.115769 0
17.350000 -0.173764 0
17.355000 -0.227662 0
17.360000 -0.253636 2
17.365000 -0.222191 0
17.370000 -0.106117 0
17.375000 0.110638 0
17.380000 0.419131 0
17.385000 0.767826 0
17.390000 1.060453 0
17.395000 1.190951 3
17.400000 1.101516 0
17.405000 0.823633 0
17.410000 0.457099 0
17.415000 0.108988 0
17.420000 -0.151001 0
17.425000 -0.297464 0
17.430000 -0.336979 4
17.435000 -0.296866 0
17.440000 -0.215289 0
17.445000 -0.127912 0
17.450000 -0.056179 0
17.455000 -0.004969 0
17.460000 0.031031 0
17.465000 0.059375 0
17.470000 0.085503 0
17.475000 0.112106 0
17.480000 0.140074 0
17.485000 0.169422 0
17.490000 0.199802 0
17.495000 0.230697 0
17.500000 0.261493 0
17.505000 0.291506 0
17.510000 0.320009 0
17.515000 0.346261 0
17.520000 0.369537 0
17.525000 0.389160 0
17.530000 0.404536 0
17.535000 0.415177 0
17.540000 0.420733 0
17.545000 0.421006 5
17.550000 0.415960 0
17.555000 0.405728 0
17.560000 0.390602 0
17.565000 0.371016 0
17.570000 0.347533 0
17.575000 0.320809 0
17.580000 0.291567 0
17.585000 0.260563 0
17.590000 0.228550 0
17.595000 0.196257 0
17.600000 0.164352 0
17.605000 0.133427 0
17.610000 0.103984 0
17.615000 0.076421 0
17.620000 0.051032 0
17.625000 0.028008 0
17.630000 0.007447 0
17.635000 -0.010639 0
17.640000 -0.026311 0
17.645000 -0.039686 0
17.650000 -0.050924 0
17.655000 -0.060215 0
17.660000 -0.067766 0
17.665000 -0.073788 0
17.670000 -0.078490 0
17.675000 -0.082071 0
17.680000 -0.084714 0
17.685000 -0.086583 0
17.690000 -0.087825 0
17.695000 -0.088333 0
17.700000 -0.087471 0
17.705000 -0.086613 0
17.710000 -0.085760 0
17.715000 -0.084910 0
17.720000 -0.084065 0
17.725000 -0.083224 0
17.730000 -0.082386 0
17.735000 -0.081551 0
17.740000 -0.080716 0
17.745000 -0.079879 0
17.750000 -0.079034 0
17.755000 -0.078169 0
17.760000 -0.077268 0
17.765000 -0.076299 0
17.770000 -0.075213 0
17.775000 -0.073935 0
17.780000 -0.072350 0
17.785000 -0.070295 0
17.790000 -0.067544 0
17.795000 -0.063796 0
17.800000 -0.058679 0
17.805000 -0.051745 0
17.810000 -0.042502 0
17.815000 -0.030445 0
17.820000 -0.015124 0
17.825000 0.003783 0
17.830000 0.026376 0
17.835000 0.052451 0
17.840000 0.081423 0
17.845000 0.112300 0
17.850000 0.143695 0
17.855000 0.173910 0
17.860000 0.201074 0
17.865000 0.223325 0
17.870000 0.239025 0
17.875000 0.246953 1
17.880000 0.246466 0
17.885000 0.237579 0
17.890000 0.220970 0
17.895000 0.197891 0
17.900000 0.170013 0
17.905000 0.139218 0
17.910000 0.107359 0
17.915000 0.075974 0
17.920000 0.045857 0
17.925000 0.016416 0
17.930000 -0.015022 0
17.935000 -0.053062 0
17.940000 -0.101791 0
17.945000 -0.159617 0
17.950000 -0.214011 0
17.955000 -0.240833 2
17.960000 -0.209858 0
17.965000 -0.093130 0
17.970000 0.125670 0
17.975000 0.436567 0
17.980000 0.784937 0
17.985000 1.070436 0
17.990000 1.185703 3
17.995000 1.079625 0
18.000000 0.791228 0
18.005000 0.422723 0
18.010000 0.079175 0
18.015000 -0.173258 0
18.020000 -0.311933 0
18.025000 -0.345114 4
18.030000 -0.301084 0
18.035000 -0.218150 0
18.040000 -0.131247 0
18.045000 -0.060696 0
18.050000 -0.010522 0
18.055000 0.024897 0
18.060000 0.053047 0
18.065000 0.079192 0
18.070000 0.105892 0
18.075000 0.133969 0
18.080000 0.163413 0
18.085000 0.193865 0
18.090000 0.224806 0
18.095000 0.255619 0
18.100000 0.285621 0
18.105000 0.314085 0
18.110000 0.340274 0
18.115000 0.363466 0
18.120000 0.382989 0
18.125000 0.398253 0
18.130000 0.408778 0
18.135000 0.414217 0
18.140000 0.414379 5
18.145000 0.409233 0
18.150000 0.398915 0
18.155000 0.383718 0
18.160000 0.364081 0
18.165000 0.340564 0
18.170000 0.313825 0
18.175000 0.284583 0
18.180000 0.253593 0
18.185000 0.221606 0
18.190000 0.189346 0
18.195000 0.157480 0
18.200000 0.126597 0
18.205000 0.097195 0
18.210000 0.069672 0
18.215000 0.044319 0
18.220000 0.021328 0
18.225000 0.000796 0
18.230000 -0.017266 0
18.235000 -0.032917 0
18.240000 -0.046274 0
18.245000 -0.057496 0
18.250000 -0.066774 0
18.255000 -0.074311 0
18.260000 -0.080320 0
18.265000 -0.085009 0
18.270000 -0.088574 0
18.275000 -0.091201 0
18.280000 -0.093052 0
18.285000 -0.094274 0
18.290000 -0.094758 0
18.295000 -0.093864 0
18.300000 -0.092975 0
18.305000 -0.092089 0
18.310000 -0.091209 0
18.315000 -0.090332 0
18.320000 -0.089460 0
18.325000 -0.088591 0
18.330000 -0.087724 0
18.335000 -0.086859 0
18.340000 -0.085992 0
18.345000 -0.085117 0
18.350000 -0.084223 0
18.355000 -0.083294 0
18.360000 -0.082300 0
18.365000 -0.081192 0
18.370000 -0.079896 0
18.375000 -0.078302 0
18.380000 -0.076249 0
18.385000 -0.073515 0
18.390000 -0.069806 0
18.395000 -0.064754 0
18.400000 -0.057918 0
18.405000 -0.048807 0
18.410000 -0.036920 0
18.415000 -0.021800 0
18.420000 -0.003118 0
18.425000 0.019247 0
18.430000 0.045114 0
18.435000 0.073928 0
18.440000 0.104732 0
18.445000 0.136170 0
18.450000 0.166570 0
18.455000 0.194074 0
18.460000 0.216819 0
18.465000 0.233146 0
18.470000 0.241796 0
18.475000 0.242075 1
18.480000 0.233939 0
18.485000 0.218008 0
18.490000 0.195485 0
18.495000 0.168003 0
18.500000 0.137428 0
18.505000 0.105622 0
18.510000 0.074162 0
18.515000 0.043940 0
18.520000 0.014538 0
18.525000 -0.016475 0
18.530000 -0.053553 0
18.535000 -0.101032 0
18.540000 -0.158224 0
18.545000 -0.213983 0
18.550000 -0.245357 2
18.555000 -0.222501 0
18.560000 -0.116861 0
18.565000 0.089780 0
18.570000 0.391568 0
18.575000 0.740050 0
18.580000 1.039533 0
18.585000 1.180527 3
18.590000 1.103578 0
18.595000 0.836017 0
18.600000 0.472425 0
18.605000 0.118773 0
18.610000 -0.152731 0
18.615000 -0.313159 0
18.620000 -0.365819 4
18.625000 -0.335119 0
18.630000 -0.257435 0
18.635000 -0.168866 0
18.640000 -0.093215 0
18.645000 -0.037963 0
18.650000 0.000766 0
18.655000 0.030384 0
18.660000 0.056817 0
18.665000 0.083271 0
18.670000 0.110954 0
18.675000 0.140043 0
18.680000 0.170270 0
18.685000 0.201169 0
18.690000 0.232167 0
18.695000 0.262617 0
18.700000 0.291824 0
18.705000 0.319066 0
18.710000 0.343628 0
18.715000 0.364832 0
18.720000 0.382063 0
18.725000 0.394801 0
18.730000 0.402649 0
18.735000 0.405348 5
18.740000 0.402794 0
18.745000 0.395041 0
18.750000 0.382303 0
18.755000 0.364939 0
18.760000 0.343440 0
18.765000 0.318400 0
18.770000 0.290494 0
18.775000 0.260445 0
18.780000 0.228993 0
18.785000 0.196864 0
18.790000 0.164744 0
18.795000 0.133257 0
18.800000 0.102946 0
18.805000 0.074259 0
18.810000 0.047547 0
18.815000 0.023060 0
18.820000 0.000950 0
18.825000 -0.018715 0
18.830000 -0.035950 0
18.835000 -0.050831 0
18.840000 -0.063486 0
18.845000 -0.074082 0
18.850000 -0.082808 0
18.855000 -0.089869 0
18.860000 -0.095471 0
18.865000 -0.099814 0
18.870000 -0.103090 0
18.875000 -0.105473 0
18.880000 -0.107122 0
18.885000 -0.108173 0
18.890000 -0.107504 0
18.895000 -0.106546 0
18.900000 -0.105594 0
18.905000 -0.104646 0
18.910000 -0.103702 0
18.915000 -0.102763 0
18.920000 -0.101829 0
18.925000 -0.100898 0
18.930000 -0.099970 0
18.935000 -0.099043 0
18.940000 -0.098115 0
18.945000 -0.097179 0
18.950000 -0.096224 0
18.955000 -0.095234 0
18.960000 -0.094179 0
18.965000 -0.093012 0
18.970000 -0.091661 0
18.975000 -0.090018 0
18.980000 -0.087927 0
18.985000 -0.085174 0
18.990000 -0.081476 0
18.995000 -0.076477 0
19.000000 -0.069751 0
19.005000 -0.060822 0
19.010000 -0.049198 0
19.015000 -0.034425 0
19.020000 -0.016162 0
19.025000 0.005739 0
19.030000 0.031148 0
19.035000 0.059583 0
19.040000 0.090171 0
19.045000 0.121655 0
19.050000 0.152449 0
19.055000 0.180760 0
19.060000 0.204753 0
19.065000 0.222745 0
19.070000 0.233399 0
19.075000 0.235891 1
19.080000 0.230011 0
19.085000 0.216196 0
19.090000 0.195474 0
19.095000 0.169338 0
19.100000 0.139567 0
19.105000 0.108007 0
19.110000 0.076326 0
19.115000 0.045680 0
19.120000 0.016191 0
19.125000 -0.013743 0
19.130000 -0.047840 0
19.135000 -0.090821 0
19.140000 -0.144670 0
19.145000 -0.203150 0
19.150000 -0.248412 0
19.155000 -0.253276 2
19.160000 -0.188246 0
19.165000 -0.029669 0
19.170000 0.229859 0
19.175000 0.564932 0
19.180000 0.903129 0
19.185000 1.137412 0
19.190000 1.176085 3
19.195000 0.999306 0
19.200000 0.671899 0
19.205000 0.301237 0
19.210000 -0.019471 0
19.215000 -0.239408 0
19.220000 -0.346679 0
19.225000 -0.355735 4
19.230000 -0.297912 0
19.235000 -0.211120 0
19.240000 -0.126748 0
19.245000 -0.060712 0
19.250000 -0.014151 0
19.255000 0.019359 0
19.260000 0.046889 0
19.265000 0.073061 0
19.270000 0.100004 0
19.275000 0.128342 0
19.280000 0.157994 0
19.285000 0.188581 0
19.290000 0.219584 0
19.295000 0.250391 0
19.300000 0.280330 0
19.305000 0.308691 0
19.310000 0.334754 0
19.315000 0.357816 0
19.320000 0.377226 0
19.325000 0.392411 0
19.330000 0.402905 0
19.335000 0.408373 0
19.340000 0.408628 5
19.345000 0.403638 0
19.350000 0.393531 0
19.355000 0.378591 0
19.360000 0.359238 0
19.365000 0.336013 0
19.370000 0.309552 0
19.375000 0.280554 0
19.380000 0.249754 0
19.385000 0.217886 0
19.390000 0.185661 0
19.395000 0.153740 0
19.400000 0.122710 0
19.405000 0.093071 0
19.410000 0.065227 0
19.415000 0.039483 0
19.420000 0.016044 0
19.425000 -0.004978 0
19.430000 -0.023555 0
19.435000 -0.039730 0
19.440000 -0.053604 0
19.445000 -0.065325 0
19.450000 -0.075071 0
19.455000 -0.083039 0
19.460000 -0.089434 0
19.465000 -0.094463 0
19.470000 -0.098321 0
19.475000 -0.101192 0
19.480000 -0.103245 0
19.485000 -0.104626 0
19.490000 -0.105466 0
19.495000 -0.104777 0
19.500000 -0.103833 0
19.505000 -0.102894 0
19.510000 -0.101959 0
19.515000 -0.101029 0
19.520000 -0.100103 0
19.525000 -0.099182 0
19.530000 -0.098264 0
19.535000 -0.097348 0
19.540000 -0.096432 0
19.545000 -0.095512 0
19.550000 -0.094580 0
19.555000 -0.093624 0
19.560000 -0.092620 0
19.565000 -0.091534 0
19.570000 -0.090308 0
19.575000 -0.088856 0
19.580000 -0.087051 0
19.585000 -0.084713 0
19.590000 -0.081599 0
19.595000 -0.077395 0
19.600000 -0.071714 0
19.605000 -0.064106 0
19.610000 -0.054082 0
19.615000 -0.041160 0
19.620000 -0.024925 0
19.625000 -0.005110 0
19.630000 0.018324 0
19.635000 0.045103 0
19.640000 0.074582 0
19.645000 0.105718 0
19.650000 0.137106 0
19.655000 0.167055 0
19.660000 0.193733 0
19.665000 0.215349 0
19.670000 0.230345 0
19.675000 0.237586 1
19.680000 0.236502 0
19.685000 0.227159 0
19.690000 0.210253 0
19.695000 0.187029 0
19.700000 0.159123 0
19.705000 0.128366 0
19.710000 0.096562 0
19.715000 0.065211 0
19.720000 0.035109 0
19.725000 0.005742 0
19.730000 -0.025383 0
19.735000 -0.062672 0
19.740000 -0.110309 0
19.745000 -0.167499 0
19.750000 -0.223308 0
19.755000 -0.255392 2
19.760000 -0.234659 0
19.765000 -0.133058 0
19.770000 0.067882 0
19.775000 0.364275 0
19.780000 0.712116 0
19.785000 1.020965 0
19.790000 1.182639 3
19.795000 1.128809 0
19.800000 0.876647 0
19.805000 0.517269 0
19.810000 0.159211 0
19.815000 -0.120609 0
19.820000 -0.289649 0
19.825000 -0.349240 4
19.830000 -0.322880 0
19.835000 -0.246929 0
19.840000 -0.158288 0
19.845000 -0.081861 0
19.850000 -0.025911 0
19.855000 0.013178 0
19.860000 0.042887 0
19.865000 0.069281 0
19.870000 0.095659 0
19.875000 0.123267 0
19.880000 0.152291 0
19.885000 0.182460 0
19.890000 0.213303 0
19.895000 0.244240 0
19.900000 0.274614 0
19.905000 0.303719 0
19.910000 0.330827 0
19.915000 0.355215 0
19.920000 0.376197 0
19.925000 0.393154 0
19.930000 0.405568 0
19.935000 0.413042 0
19.940000 0.415325 5
19.945000 0.412322 0
19.950000 0.404101 0
19.955000 0.390889 0
19.960000 0.373064 0
19.965000 0.351131 0
19.970000 0.325703 0
19.975000 0.297469 0
19.980000 0.267164 0
19.985000 0.235536 0
19.990000 0.203318 0
19.995000 0.171195 0
20.000000 0.139790 0
20.005000 0.109639 0
20.010000 0.081181 0
20.015000 0.054755 0
20.020000 0.030599 0
20.025000 0.008852 0
20.030000 -0.010434 0
20.035000 -0.027285 0
20.040000 -0.041788 0
20.045000 -0.054083 0
20.050000 -0.064342 0
20.055000 -0.072762 0
20.060000 -0.079550 0
20.065000 -0.084915 0
20.070000 -0.089058 0
20.075000 -0.092169 0
20.080000 -0.094421 0
20.085000 -0.095969 0
20.090000 -0.096947 0
20.095000 -0.096314 0
20.100000 -0.095412 0
20.105000 -0.094515 0
20.110000 -0.093622 0
20.115000 -0.092734 0
20.120000 -0.091850 0
20.125000 -0.090969 0
20.130000 -0.090092 0
20.135000 -0.089217 0
20.140000 -0.088343 0
20.145000 -0.087465 0
20.150000 -0.086575 0
20.155000 -0.085663 0
20.160000 -0.084706 0
20.165000 -0.083670 0
20.170000 -0.082499 0
20.175000 -0.081109 0
20.180000 -0.079375 0
20.185000 -0.077120 0
20.190000 -0.074102 0
20.195000 -0.070007 0
20.200000 -0.064447 0
20.205000 -0.056968 0
20.210000 -0.047076 0
20.215000 -0.034283 0
20.220000 -0.018164 0
20.225000 0.001556 0
20.230000 0.024922 0
20.235000 0.051657 0
20.240000 0.081111 0
20.245000 0.112226 0
20.250000 0.143573 0
20.255000 0.173437 0
20.260000 0.199961 0
20.265000 0.221333 0
20.270000 0.235989 0
20.275000 0.242800 1
20.280000 0.241218 0
20.285000 0.231348 0
20.290000 0.213933 0
20.295000 0.190266 0
20.300000 0.162028 0
20.305000 0.131080 0
20.310000 0.099234 0
20.315000 0.067962 0
20.320000 0.037965 0
20.325000 0.008531 0
20.330000 -0.023118 0
20.335000 -0.061590 0
20.340000 -0.110780 0
20.345000 -0.168749 0
20.350000 -0.222711 0
20.355000 -0.248593 2
20.360000 -0.216557 0
20.365000 -0.099133 0
20.370000 0.119662 0
20.375000 0.430046 0
20.380000 0.778576 0
20.385000 1.066798 0
20.390000 1.188278 3
20.395000 1.090417 0
20.400000 0.808473 0
20.405000 0.441365 0
20.410000 0.093670 0
20.415000 -0.166674 0
20.420000 -0.314692 0
20.425000 -0.356494 4
20.430000 -0.318458 0
20.435000 -0.237810 0
20.440000 -0.149916 0
20.445000 -0.076728 0
20.450000 -0.023962 0
20.455000 0.013136 0
20.460000 0.042016 0
20.465000 0.068281 0
20.470000 0.094825 0
20.475000 0.122670 0
20.480000 0.151906 0
20.485000 0.182224 0
20.490000 0.213139 0
20.495000 0.244061 0
20.500000 0.274331 0
20.505000 0.303242 0
20.510000 0.330071 0
20.515000 0.354100 0
20.520000 0.374657 0
20.525000 0.391135 0
20.530000 0.403034 0
20.535000 0.409974 0
20.540000 0.411721 5
20.545000 0.408200 0
20.550000 0.399492 0
20.555000 0.385841 0
20.560000 0.367634 0
20.565000 0.345383 0
20.570000 0.319707 0
20.575000 0.291294 0
20.580000 0.260877 0
20.585000 0.229199 0
20.590000 0.196985 0
20.595000 0.164913 0
20.600000 0.133596 0
20.605000 0.103559 0
20.610000 0.075234 0
20.615000 0.048951 0
20.620000 0.024941 0
20.625000 0.003337 0
20.630000 -0.015814 0
20.635000 -0.032539 0
20.640000 -0.046930 0
20.645000 -0.059124 0
20.650000 -0.069297 0
20.655000 -0.077643 0
20.660000 -0.084367 0
20.665000 -0.089679 0
20.670000 -0.093776 0
20.675000 -0.096849 0
20.680000 -0.099067 0
20.685000 -0.100586 0
20.690000 -0.101538 0
20.695000 -0.100882 0
20.700000 -0.099957 0
20.705000 -0.099037 0
20.710000 -0.098122 0
20.715000 -0.097211 0
20.720000 -0.096304 0
20.725000 -0.095402 0
20.730000 -0.094503 0
20.735000 -0.093606 0
20.740000 -0.092710 0
20.745000 -0.091810 0
20.750000 -0.090900 0
20.755000 -0.089967 0
20.760000 -0.088991 0
20.765000 -0.087938 0
20.770000 -0.086754 0
20.775000 -0.085357 0
20.780000 -0.083624 0
20.785000 -0.081383 0
20.790000 -0.078398 0
20.795000 -0.074360 0
20.800000 -0.068890 0
20.805000 -0.061539 0
20.810000 -0.051819 0
20.815000 -0.039242 0
20.820000 -0.023379 0
20.825000 -0.003941 0
20.830000 0.019137 0
20.835000 0.045612 0
20.840000 0.074871 0
20.845000 0.105900 0
20.850000 0.137314 0
20.855000 0.167429 0
20.860000 0.194408 0
20.865000 0.216435 0
20.870000 0.231920 0
20.875000 0.239687 1
20.880000 0.239119 0
20.885000 0.230242 0
20.890000 0.213723 0
20.895000 0.190783 0
20.900000 0.163054 0
20.905000 0.132376 0
20.910000 0.100571 0
20.915000 0.069167 0
20.920000 0.039004 0
20.925000 0.009625 0
20.930000 -0.021407 0
20.935000 -0.058486 0
20.940000 -0.105876 0
20.945000 -0.162957 0
20.950000 -0.218955 0
20.955000 -0.251552 2
20.960000 -0.231510 0
20.965000 -0.130548 0
20.970000 0.070019 0
20.975000 0.366373 0
20.980000 0.714223 0
20.985000 1.022434 0
20.990000 1.182221 3
20.995000 1.127269 0
21.000000 0.875626 0
21.005000 0.516818 0
21.010000 0.157780 0
21.015000 -0.124965 0
21.020000 -0.298284 0
21.025000 -0.362492 4
21.030000 -0.339893 0
21.035000 -0.265837 0
21.040000 -0.177000 0
21.045000 -0.099003 0
21.050000 -0.041200 0
21.055000 -0.000734 0
21.060000 0.029685 0
21.065000 0.056290 0
21.070000 0.082619 0
21.075000 0.110086 0
21.080000 0.138967 0
21.085000 0.169036 0
21.090000 0.199852 0
21.095000 0.230859 0
21.100000 0.261421 0
21.105000 0.290853 0
21.110000 0.318440 0
21.115000 0.343467 0
21.120000 0.365251 0
21.125000 0.383168 0
21.130000 0.396683 0
21.135000 0.405380 0
21.140000 0.408975 5
21.145000 0.407337 0
21.150000 0.400493 0
21.155000 0.388626 0
21.160000 0.372070 0
21.165000 0.351288 0
21.170000 0.326856 0
21.175000 0.299433 0
21.180000 0.269729 0
21.185000 0.238481 0
21.190000 0.206416 0
21.195000 0.174227 0
21.200000 0.142547 0
21.205000 0.111936 0
21.210000 0.082859 0
21.215000 0.055687 0
21.220000 0.030688 0
21.225000 0.008037 0
21.230000 -0.012185 0
21.235000 -0.029972 0
21.240000 -0.045389 0
21.245000 -0.058553 0
21.250000 -0.069622 0
21.255000 -0.078781 0
21.260000 -0.086229 0
21.265000 -0.092172 0
21.270000 -0.096813 0
21.275000 -0.100344 0
21.280000 -0.102943 0
21.285000 -0.104772 0
21.290000 -0.105973 0
21.295000 -0.106429 0
21.300000 -0.105477 0
21.305000 -0.104529 0
21.310000 -0.103587 0
21.315000 -0.102648 0
21.320000 -0.101715 0
21.325000 -0.100786 0
21.330000 -0.099860 0
21.335000 -0.098938 0
21.340000 -0.098018 0
21.345000 -0.097097 0
21.350000 -0.096170 0
21.355000 -0.095228 0
21.360000 -0.094257 0
21.365000 -0.093232 0
21.370000 -0.092110 0
21.375000 -0.090830 0
21.380000 -0.089294 0
21.385000 -0.087364 0
21.390000 -0.084846 0
21.395000 -0.081480 0
21.400000 -0.076933 0
21.405000 -0.070803 0
21.410000 -0.062628 0
21.415000 -0.051919 0
21.420000 -0.038206 0
21.425000 -0.021105 0
21.430000 -0.000396 0
21.435000 0.023889 0
21.440000 0.051393 0
21.445000 0.081377 0
21.450000 0.112714 0
21.455000 0.143927 0
21.460000 0.173285 0
21.465000 0.198955 0
21.470000 0.219189 0
21.475000 0.232516 0
21.480000 0.237925 1
21.485000 0.234982 0
21.490000 0.223898 0
21.495000 0.205497 0
21.500000 0.181117 0
21.505000 0.152446 0
21.510000 0.121325 0
21.515000 0.089510 0
21.520000 0.058388 0
21.525000 0.028538 0
21.530000 -0.000909 0
21.535000 -0.032875 0
21.540000 -0.071965 0
21.545000 -0.121802 0
21.550000 -0.179956 0
21.555000 -0.233230 0
21.560000 -0.257551 2
21.565000 -0.223515 0
21.570000 -0.104284 0
21.575000 0.115559 0
21.580000 0.426097 0
21.585000 0.774742 0
21.590000 1.064884 0
21.595000 1.191429 3
21.600000 1.099625 0
21.605000 0.821145 0
21.610000 0.454667 0
21.615000 0.105925 0
21.620000 -0.155880 0
21.625000 -0.305059 0
21.630000 -0.347511 4
21.635000 -0.309692 0
21.640000 -0.229075 0
21.645000 -0.141260 0
21.650000 -0.068279 0
21.655000 -0.015776 0
21.660000 0.021104 0
21.665000 0.049855 0
21.670000 0.076068 0
21.675000 0.102604 0
21.680000 0.130458 0
21.685000 0.159702 0
21.690000 0.190019 0
21.695000 0.220913 0
21.700000 0.251789 0
21.705000 0.281978 0
21.710000 0.310769 0
21.715000 0.337431 0
21.720000 0.361244 0
21.725000 0.381533 0
21.730000 0.397694 0
21.735000 0.409229 0
21.740000 0.415766 0
21.745000 0.417081 5
21.750000 0.413108 0
21.755000 0.403946 0
21.760000 0.389849 0
21.765000 0.371221 0
21.770000 0.348589 0
21.775000 0.322582 0
21.780000 0.293902 0
21.785000 0.263287 0
21.790000 0.231487 0
21.795000 0.199227 0
21.800000 0.167183 0
21.805000 0.135964 0
21.810000 0.106088 0
21.815000 0.077976 0
21.820000 0.051950 0
21.825000 0.028227 0
21.830000 0.006930 0
21.835000 -0.011904 0
21.840000 -0.028314 0
21.845000 -0.042399 0
21.850000 -0.054305 0
21.855000 -0.064210 0
21.860000 -0.072315 0
21.865000 -0.078826 0
21.870000 -0.083953 0
21.875000 -0.087895 0
21.880000 -0.090838 0
21.885000 -0.092953 0
21.890000 -0.094391 0
21.895000 -0.095283 0
21.900000 -0.094645 0
21.905000 -0.093751 0
21.910000 -0.092862 0
21.915000 -0.091978 0
21.920000 -0.091097 0
21.925000 -0.090221 0
21.930000 -0.089349 0
21.935000 -0.088480 0
21.940000 -0.087612 0
21.945000 -0.086745 0
21.950000 -0.085872 0
21.955000 -0.084986 0
21.960000 -0.084074 0
21.965000 -0.083112 0
21.970000 -0.082062 0
21.975000 -0.080862 0
21.980000 -0.079423 0
21.985000 -0.077609 0
21.990000 -0.075231 0
21.995000 -0.072033 0
22.000000 -0.067687 0
22.005000 -0.061790 0
22.010000 -0.053877 0
22.015000 -0.043452 0
22.020000 -0.030031 0
22.025000 -0.013213 0
22.030000 0.007237 0
22.035000 0.031306 0
22.040000 0.058648 0
22.045000 0.088527 0
22.050000 0.119809 0
22.055000 0.150996 0
22.060000 0.180329 0
22.065000 0.205944 0
22.070000 0.226061 0
22.075000 0.239188 0
22.080000 0.244307 1
22.085000 0.240998 0
22.090000 0.229499 0
22.095000 0.210678 0
22.100000 0.185922 0
22.105000 0.156967 0
22.110000 0.125687 0
22.115000 0.093852 0
22.120000 0.062815 0
22.125000 0.033048 0
22.130000 0.003452 0
22.135000 -0.029207 0
22.140000 -0.069695 0
22.145000 -0.121179 0
22.150000 -0.179784 0
22.155000 -0.230185 0
22.160000 -0.246477 2
22.165000 -0.198612 0
22.170000 -0.060665 0
22.175000 0.179386 0
22.180000 0.503928 0
22.185000 0.849032 0
22.190000 1.110056 0
22.195000 1.186683 3
22.200000 1.042759 0
22.205000 0.731080 0
22.210000 0.360098 0
22.215000 0.030588 0
22.220000 -0.199708 0
22.225000 -0.315242 0
22.230000 -0.329288 4
22.235000 -0.273522 0
22.240000 -0.187142 0
22.245000 -0.102883 0
22.250000 -0.037284 0
22.255000 0.008622 0
22.260000 0.041575 0
22.265000 0.068801 0
22.270000 0.094888 0
22.275000 0.121872 0
22.280000 0.150292 0
22.285000 0.180013 0
22.290000 0.210617 0
22.295000 0.241548 0
22.300000 0.272160 0
22.305000 0.301746 0
22.310000 0.329567 0
22.315000 0.354877 0
22.320000 0.376959 0
22.325000 0.395156 0
22.330000 0.408902 0
22.335000 0.417755 0
22.340000 0.421413 5
22.345000 0.419736 0
22.350000 0.412749 0
22.355000 0.400646 0
22.360000 0.383778 0
22.365000 0.362634 0
22.370000 0.337820 0
22.375000 0.310027 0
22.380000 0.280000 0
22.385000 0.248503 0
22.390000 0.216291 0
22.395000 0.184074 0
22.400000 0.152498 0
22.405000 0.122124 0
22.410000 0.093415 0
22.415000 0.066728 0
22.420000 0.042316 0
22.425000 0.020332 0
22.430000 0.000833 0
22.435000 -0.016199 0
22.440000 -0.030853 0
22.445000 -0.043268 0
22.450000 -0.053621 0
22.455000 -0.062110 0
22.460000 -0.068949 0
22.465000 -0.074350 0
22.470000 -0.078519 0
22.475000 -0.081650 0
22.480000 -0.083919 0
22.485000 -0.085483 0
22.490000 -0.086479 0
22.495000 -0.085893 0
22.500000 -0.085044 0
22.505000 -0.084198 0
22.510000 -0.083357 0
22.515000 -0.082519 0
22.520000 -0.081686 0
22.525000 -0.080856 0
22.530000 -0.080029 0
22.535000 -0.079204 0
22.540000 -0.078379 0
22.545000 -0.077548 0
22.550000 -0.076704 0
22.555000 -0.075832 0
22.560000 -0.074909 0
22.565000 -0.073894 0
22.570000 -0.072725 0
22.575000 -0.071307 0
22.580000 -0.069498 0
22.585000 -0.067101 0
22.590000 -0.063848 0
22.595000 -0.059395 0
22.600000 -0.053324 0
22.605000 -0.045154 0
22.610000 -0.034376 0
22.615000 -0.020503 0
22.620000 -0.003146 0
22.625000 0.017902 0
22.630000 0.042574 0
22.635000 0.070445 0
22.640000 0.100687 0
22.645000 0.132057 0
22.650000 0.162957 0
22.655000 0.191551 0
22.660000 0.215935 0
22.665000 0.234345 0
22.670000 0.245366 0
22.675000 0.248111 1
22.680000 0.242339 0
22.685000 0.228485 0
22.690000 0.207614 0
22.695000 0.181272 0
22.700000 0.151307 0
22.705000 0.119624 0
22.710000 0.087926 0
22.715000 0.057341 0
22.720000 0.027845 0
22.725000 -0.002476 0
22.730000 -0.037726 0
22.735000 -0.082662 0
22.740000 -0.138263 0
22.745000 -0.195930 0
22.750000 -0.234817 2
22.755000 -0.225575 0
22.760000 -0.138378 0
22.765000 0.048135 0
22.770000 0.334172 0
22.775000 0.680011 0
22.780000 0.996427 0
22.785000 1.171008 3
22.790000 1.129913 0
22.795000 0.886519 0
22.800000 0.529854 0
22.805000 0.169759 0
22.810000 -0.114268 0
22.815000 -0.287692 0
22.820000 -0.350780 4
22.825000 -0.326573 0
22.830000 -0.251454 0
22.835000 -0.162757 0
22.840000 -0.085946 0
22.845000 -0.029659 0
22.850000 0.009612 0
22.855000 0.039390 0
22.860000 0.065808 0
22.865000 0.092202 0
22.870000 0.119832 0
22.875000 0.148882 0
22.880000 0.179079 0
22.885000 0.209946 0
22.890000 0.240897 0
22.895000 0.271272 0
22.900000 0.300356 0
22.905000 0.327418 0
22.910000 0.351727 0
22.915000 0.372595 0
22.920000 0.389403 0
22.925000 0.401631 0
22.930000 0.408887 0
22.935000 0.410924 5
22.940000 0.407655 0
22.945000 0.399157 0
22.950000 0.385668 0
22.955000 0.367577 0
22.960000 0.345401 0
22.965000 0.319763 0
22.970000 0.291363 0
22.975000 0.260943 0
22.980000 0.229256 0
22.985000 0.197036 0
22.990000 0.164972 0
22.995000 0.133681 0
23.000000 0.103695 0
23.005000 0.075447 0
23.010000 0.049268 0
23.015000 0.025385 0
23.020000 0.003931 0
23.025000 -0.015053 0
23.030000 -0.031601 0
23.035000 -0.045807 0
23.040000 -0.057818 0
23.045000 -0.067810 0
23.050000 -0.075984 0
23.055000 -0.082550 0
23.060000 -0.087716 0
23.065000 -0.091685 0
23.070000 -0.094645 0
23.075000 -0.096768 0
23.080000 -0.098206 0
23.085000 -0.099094 0
23.090000 -0.098438 0
23.095000 -0.097526 0
23.100000 -0.096618 0
23.105000 -0.095715 0
23.110000 -0.094816 0
23.115000 -0.093921 0
23.120000 -0.093030 0
23.125000 -0.092143 0
23.130000 -0.091257 0
23.135000 -0.090371 0
23.140000 -0.089480 0
23.145000 -0.088576 0
23.150000 -0.087646 0
23.155000 -0.086664 0
23.160000 -0.085594 0
23.165000 -0.084372 0
23.170000 -0.082906 0
23.175000 -0.081060 0
23.180000 -0.078640 0
23.185000 -0.075387 0
23.190000 -0.070967 0
23.195000 -0.064972 0
23.200000 -0.056931 0
23.205000 -0.046343 0
23.210000 -0.032725 0
23.215000 -0.015681 0
23.220000 0.005016 0
23.225000 0.029333 0
23.230000 0.056896 0
23.235000 0.086938 0
23.240000 0.118288 0
23.245000 0.149415 0
23.250000 0.178532 0
23.255000 0.203762 0
23.260000 0.223330 0
23.265000 0.235771 0
23.270000 0.240110 1
23.275000 0.235986 0
23.280000 0.223706 0
23.285000 0.204202 0
23.290000 0.178917 0
23.295000 0.149625 0
23.300000 0.118214 0
23.305000 0.086433 0
23.310000 0.055570 0
23.315000 0.025942 0
23.320000 -0.003806 0
23.325000 -0.037209 0
23.330000 -0.079094 0
23.335000 -0.132025 0
23.340000 -0.190665 0
23.345000 -0.237848 0
23.350000 -0.246393 2
23.355000 -0.186140 0
23.360000 -0.032408 0
23.365000 0.223440 0
23.370000 0.557077 0
23.375000 0.896050 0
23.380000 1.131633 0
23.385000 1.170066 3
23.390000 0.992021 0
23.395000 0.664370 0
23.400000 0.293701 0
23.405000 -0.027448 0
23.410000 -0.248429 0
23.415000 -0.357147 0
23.420000 -0.367655 4
23.425000 -0.310825 0
23.430000 -0.224269 0
23.435000 -0.139448 0
23.440000 -0.072650 0
23.445000 -0.025394 0
23.450000 0.008559 0
23.455000 0.036287 0
23.460000 0.062504 0
23.465000 0.089425 0
23.470000 0.117725 0
23.475000 0.147347 0
23.480000 0.177931 0
23.485000 0.208965 0
23.490000 0.239851 0
23.495000 0.269925 0
23.500000 0.298484 0
23.505000 0.324814 0
23.510000 0.348216 0
23.515000 0.368037 0
23.520000 0.383701 0
23.525000 0.394734 0
23.530000 0.400790 0
23.535000 0.401666 5
23.540000 0.397313 0
23.545000 0.387842 0
23.550000 0.373514 0
23.555000 0.354732 0
23.560000 0.332019 0
23.565000 0.305994 0
23.570000 0.277344 0
23.575000 0.246794 0
23.580000 0.215076 0
23.585000 0.182900 0
23.590000 0.150929 0
23.595000 0.119759 0
23.600000 0.089901 0
23.605000 0.061771 0
23.610000 0.035689 0
23.615000 0.011873 0
23.620000 -0.009549 0
23.625000 -0.028534 0
23.630000 -0.045114 0
23.635000 -0.059380 0
23.640000 -0.071469 0
23.645000 -0.081554 0
23.650000 -0.089828 0
23.655000 -0.096494 0
23.660000 -0.101755 0
23.665000 -0.105810 0
23.670000 -0.108843 0
23.675000 -0.111025 0
23.680000 -0.112507 0
23.685000 -0.113422 0
23.690000 -0.112710 0
23.695000 -0.111727 0
23.700000 -0.110748 0
23.705000 -0.109775 0
23.710000 -0.108806 0
23.715000 -0.107841 0
23.720000 -0.106881 0
23.725000 -0.105925 0
23.730000 -0.104972 0
23.735000 -0.104019 0
23.740000 -0.103064 0
23.745000 -0.102101 0
23.750000 -0.101117 0
23.755000 -0.100094 0
23.760000 -0.099001 0
23.765000 -0.097789 0
23.770000 -0.096382 0
23.775000 -0.094666 0
23.780000 -0.092481 0
23.785000 -0.089607 0
23.790000 -0.085755 0
23.795000 -0.080563 0
23.800000 -0.073603 0
23.805000 -0.064399 0
23.810000 -0.052465 0
23.815000 -0.037360 0
23.820000 -0.018758 0
23.825000 0.003466 0
23.830000 0.029155 0
23.835000 0.057804 0
23.840000 0.088520 0
23.845000 0.120029 0
23.850000 0.150743 0
23.855000 0.178880 0
23.860000 0.202623 0
23.865000 0.220318 0
23.870000 0.230661 0
23.875000 0.232857 1
23.880000 0.226725 0
23.885000 0.212716 0
23.890000 0.191866 0
23.895000 0.165661 0
23.900000 0.135868 0
23.905000 0.104316 0
23.910000 0.072655 0
23.915000 0.042027 0
23.920000 0.012554 0
23.925000 -0.017340 0
23.930000 -0.051325 0
23.935000 -0.094086 0
23.940000 -0.147693 0
23.945000 -0.206215 0
23.950000 -0.252280 0
23.955000 -0.259157 2
23.960000 -0.197554 0
23.965000 -0.043615 0
23.970000 0.211069 0
23.975000 0.543440 0
23.980000 0.884345 0
23.985000 1.128647 0
23.990000 1.182545 3
23.995000 1.020154 0
24.000000 0.700485 0
24.005000 0.329364 0
24.010000 0.002184 0
24.015000 -0.226944 0
24.020000 -0.343487 0
24.025000 -0.360019 4
24.030000 -0.306624 0
24.035000 -0.220979 0
24.040000 -0.135424 0
24.045000 -0.067372 0
24.050000 -0.019108 0
24.055000 0.015378 0
24.060000 0.043267 0
24.065000 0.069449 0
24.070000 0.096264 0
24.075000 0.124447 0
24.080000 0.153969 0
24.085000 0.184476 0
24.090000 0.215462 0
24.095000 0.246329 0
24.100000 0.276414 0
24.105000 0.305013 0
24.110000 0.331408 0
24.115000 0.354898 0
24.120000 0.374825 0
24.125000 0.390607 0
24.130000 0.401764 0
24.135000 0.407946 0
24.140000 0.408942 5
24.145000 0.404701 0
24.150000 0.395327 0
24.155000 0.381081 0
24.160000 0.362361 0
24.165000 0.339690 0
24.170000 0.313688 0
24.175000 0.285043 0
24.180000 0.254482 0
24.185000 0.222740 0
24.190000 0.190530 0
24.195000 0.158517 0
24.200000 0.127301 0
24.205000 0.097394 0
24.210000 0.069217 0
24.215000 0.043088 0
24.220000 0.019230 0
24.225000 -0.002231 0
24.230000 -0.021251 0
24.235000 -0.037861 0
24.240000 -0.052154 0
24.245000 -0.064267 0
24.250000 -0.074374 0
24.255000 -0.082669 0
24.260000 -0.089354 0
24.265000 -0.094634 0
24.270000 -0.098708 0
24.275000 -0.101762 0
24.280000 -0.103966 0
24.285000 -0.105471 0
24.290000 -0.106411 0
24.295000 -0.105732 0
24.300000 -0.104784 0
24.305000 -0.103840 0
24.310000 -0.102900 0
24.315000 -0.101966 0
24.320000 -0.101035 0
24.325000 -0.100109 0
24.330000 -0.099187 0
24.335000 -0.098267 0
24.340000 -0.097348 0
24.345000 -0.096426 0
24.350000 -0.095494 0
24.355000 -0.094542 0
24.360000 -0.093549 0
24.365000 -0.092485 0
24.370000 -0.091297 0
24.375000 -0.089909 0
24.380000 -0.088205 0
24.385000 -0.086021 0
24.390000 -0.083133 0
24.395000 -0.079245 0
24.400000 -0.073992 0
24.405000 -0.066940 0
24.410000 -0.057611 0
24.415000 -0.045516 0
24.420000 -0.030219 0
24.425000 -0.011403 0
24.430000 0.011041 0
24.435000 0.036933 0
24.440000 0.065738 0
24.445000 0.096532 0
24.450000 0.128011 0
24.455000 0.158563 0
24.460000 0.186388 0
24.465000 0.209670 0
24.470000 0.226771 0
24.475000 0.236419 0
24.480000 0.237867 1
24.485000 0.230986 0
24.490000 0.216286 0
24.495000 0.194851 0
24.500000 0.168208 0
24.505000 0.138144 0
24.510000 0.106488 0
24.515000 0.074864 0
24.520000 0.044342 0
24.525000 0.014906 0
24.530000 -0.015236 0
24.535000 -0.049958 0
24.540000 -0.093904 0
24.545000 -0.148552 0
24.550000 -0.206787 0
24.555000 -0.249926 0
24.560000 -0.250471 2
24.565000 -0.179245 0
24.570000 -0.013505 0
24.575000 0.252425 0
24.580000 0.590426 0
24.585000 0.925459 0
24.590000 1.150262 0
24.595000 1.176494 3
24.600000 0.988759 0
24.605000 0.655267 0
24.610000 0.285529 0
24.615000 -0.028511 0
24.620000 -0.238790 0
24.625000 -0.335997 0
24.630000 -0.336753 4
24.635000 -0.274054 0
24.640000 -0.186274 0
24.645000 -0.103725 0
24.650000 -0.040482 0
24.655000 0.003763 0
24.660000 0.035949 0
24.665000 0.062984 0
24.670000 0.089130 0
24.675000 0.116232 0
24.680000 0.144761 0
24.685000 0.174562 0
24.690000 0.205217 0
24.695000 0.236178 0
24.700000 0.266812 0
24.705000 0.296427 0
24.710000 0.324296 0
24.715000 0.349691 0
24.720000 0.371908 0
24.725000 0.390301 0
24.730000 0.404312 0
24.735000 0.413501 0
24.740000 0.417563 5
24.745000 0.416349 0
24.750000 0.409872 0
24.755000 0.398306 0
24.760000 0.381979 0
24.765000 0.361357 0
24.770000 0.337020 0
24.775000 0.309637 0
24.780000 0.279931 0
24.785000 0.248651 0
24.790000 0.216538 0
24.795000 0.184298 0
24.800000 0.152579 0
24.805000 0.121946 0
24.810000 0.092873 0
24.815000 0.065734 0
24.820000 0.040798 0
24.825000 0.018238 0
24.830000 -0.001868 0
24.835000 -0.019519 0
24.840000 -0.034787 0
24.845000 -0.047795 0
24.850000 -0.058706 0
24.855000 -0.067712 0
24.860000 -0.075016 0
24.865000 -0.080829 0
24.870000 -0.085356 0
24.875000 -0.088790 0
24.880000 -0.091311 0
24.885000 -0.093080 0
24.890000 -0.094239 0
24.895000 -0.094682 0
24.900000 -0.093788 0
24.905000 -0.092899 0
24.910000 -0.092014 0
24.915000 -0.091134 0
24.920000 -0.090258 0
24.925000 -0.089385 0
24.930000 -0.088517 0
24.935000 -0.087651 0
24.940000 -0.086785 0
24.945000 -0.085918 0
24.950000 -0.085042 0
24.955000 -0.084148 0
24.960000 -0.083216 0
24.965000 -0.082218 0
24.970000 -0.081105 0
24.975000 -0.079802 0
24.980000 -0.078197 0
24.985000 -0.076131 0
24.990000 -0.073382 0
24.995000 -0.069658 0
25.000000 -0.064592 0
25.005000 -0.057748 0
25.010000 -0.048640 0
25.015000 -0.036770 0
25.020000 -0.021687 0
25.025000 -0.003061 0
25.030000 0.019230 0
25.035000 0.045012 0
25.040000 0.073748 0
25.045000 0.104500 0
25.050000 0.135939 0
25.055000 0.166418 0
25.060000 0.194102 0
25.065000 0.217141 0
25.070000 0.233875 0
25.075000 0.243032 0
25.080000 0.243883 1
25.085000 0.236340 0
25.090000 0.220972 0
25.095000 0.198929 0
25.100000 0.171802 0
25.105000 0.141427 0
25.110000 0.109658 0
25.115000 0.078102 0
25.120000 0.047735 0
25.125000 0.018319 0
25.130000 -0.012308 0
25.135000 -0.048379 0
25.140000 -0.094420 0
25.145000 -0.150711 0
25.150000 -0.207780 0
25.155000 -0.244323 2
25.160000 -0.231268 0
25.165000 -0.139619 0
25.170000 0.050906 0
25.175000 0.339423 0
25.180000 0.685727 0
25.185000 1.001611 0
25.190000 1.176846 3
25.195000 1.138437 0
25.200000 0.897980 0
25.205000 0.542619 0
25.210000 0.181211 0
25.215000 -0.106372 0
25.220000 -0.284547 0
25.225000 -0.352444 4
25.230000 -0.331995 0
25.235000 -0.258750 0
25.240000 -0.169962 0
25.245000 -0.091831 0
25.250000 -0.033994 0
25.255000 0.006397 0
25.260000 0.036723 0
25.265000 0.063273 0
25.270000 0.089587 0
25.275000 0.117063 0
25.280000 0.145962 0
25.285000 0.176043 0
25.290000 0.206855 0
25.295000 0.237827 0
25.300000 0.268314 0
25.305000 0.297619 0
25.310000 0.325016 0
25.315000 0.349783 0
25.320000 0.371231 0
25.325000 0.388735 0
25.330000 0.401763 0
25.335000 0.409906 0
25.340000 0.412892 5
25.345000 0.410606 0
25.350000 0.403095 0
25.355000 0.390564 0
25.360000 0.373369 0
25.365000 0.351997 0
25.370000 0.327044 0
25.375000 0.299189 0
25.380000 0.269157 0
25.385000 0.237695 0
25.390000 0.205534 0
25.395000 0.173368 0
25.400000 0.141826 0
25.405000 0.111457 0
25.410000 0.082715 0
25.415000 0.055953 0
25.420000 0.031423 0
25.425000 0.009281 0
25.430000 -0.010408 0
25.435000 -0.027658 0
25.440000 -0.042546 0
25.445000 -0.055203 0
25.450000 -0.065796 0
25.455000 -0.074517 0
25.460000 -0.081573 0
25.465000 -0.087169 0
25.470000 -0.091511 0
25.475000 -0.094787 0
25.480000 -0.097176 0
25.485000 -0.098833 0
25.490000 -0.099897 0
25.495000 -0.099265 0
25.500000 -0.098348 0
25.505000 -0.097436 0
25.510000 -0.096529 0
25.515000 -0.095626 0
25.520000 -0.094727 0
25.525000 -0.093833 0
25.530000 -0.092942 0
25.535000 -0.092053 0
25.540000 -0.091166 0
25.545000 -0.090276 0
25.550000 -0.089377 0
25.555000 -0.088458 0
25.560000 -0.087501 0
25.565000 -0.086474 0
25.570000 -0.085327 0
25.575000 -0.083985 0
25.580000 -0.082333 0
25.585000 -0.080208 0
25.590000 -0.077386 0
25.595000 -0.073570 0
25.600000 -0.068394 0
25.605000 -0.061418 0
25.610000 -0.052158 0
25.615000 -0.040120 0
25.620000 -0.024860 0
25.625000 -0.006057 0
25.630000 0.016398 0
25.635000 0.042321 0
25.640000 0.071163 0
25.645000 0.101977 0
25.650000 0.133430 0
25.655000 0.163878 0
25.660000 0.191493 0
25.665000 0.214438 0
25.670000 0.231070 0
25.675000 0.240130 0
25.680000 0.240902 1
25.685000 0.233309 0
25.690000 0.217918 0
25.695000 0.195876 0
25.700000 0.168767 0
25.705000 0.138415 0
25.710000 0.106666 0
25.715000 0.075118 0
25.720000 0.044751 0
25.725000 0.015349 0
25.730000 -0.015204 0
25.735000 -0.051089 0
25.740000 -0.096838 0
25.745000 -0.152906 0
25.750000 -0.210192 0
25.755000 -0.247837 2
25.760000 -0.237073 0
25.765000 -0.148922 0
25.770000 0.037310 0
25.775000 0.321977 0
25.780000 0.667213 0
25.785000 0.987332 0
25.790000 1.172556 3
25.795000 1.146987 0
25.800000 0.917288 0
25.805000 0.566239 0
25.810000 0.201941 0
25.815000 -0.093509 0
25.820000 -0.281609 0
25.825000 -0.359062 4
25.830000 -0.345847 0
25.835000 -0.276240 0
25.840000 -0.187543 0
25.845000 -0.107319 0
25.850000 -0.046939 0
25.855000 -0.004667 0
25.860000 0.026618 0
25.865000 0.053450 0
25.870000 0.079701 0
25.875000 0.106995 0
25.880000 0.135705 0
25.885000 0.165647 0
25.890000 0.196398 0
25.895000 0.227412 0
25.900000 0.258063 0
25.905000 0.287667 0
25.910000 0.315513 0
25.915000 0.340882 0
25.920000 0.363085 0
25.925000 0.381490 0
25.930000 0.395549 0
25.935000 0.404828 0
25.940000 0.409029 5
25.945000 0.408001 0
25.950000 0.401754 0
25.955000 0.390452 0
25.960000 0.374412 0
25.965000 0.354085 0
25.970000 0.330036 0
25.975000 0.302915 0
25.980000 0.273431 0
25.985000 0.242318 0
25.990000 0.210307 0
25.995000 0.178097 0
26.000000 0.146331 0
26.005000 0.115576 0
26.010000 0.086309 0
26.015000 0.058913 0
26.020000 0.033666 0
26.025000 0.010754 0
26.030000 -0.009732 0
26.035000 -0.027779 0
26.040000 -0.043446 0
26.045000 -0.056843 0
26.050000 -0.068127 0
26.055000 -0.077478 0
26.060000 -0.085097 0
26.065000 -0.091189 0
26.070000 -0.095957 0
26.075000 -0.099596 0
26.080000 -0.102285 0
26.085000 -0.104187 0
26.090000 -0.105447 0
26.095000 -0.105944 0
26.100000 -0.104995 0
26.105000 -0.104050 0
26.110000 -0.103109 0
26.115000 -0.102173 0
26.120000 -0.101242 0
26.125000 -0.100315 0
26.130000 -0.099393 0
26.135000 -0.098473 0
26.140000 -0.097556 0
26.145000 -0.096637 0
26.150000 -0.095714 0
26.155000 -0.094777 0
26.160000 -0.093812 0
26.165000 -0.092796 0
26.170000 -0.091688 0
26.175000 -0.090428 0
26.180000 -0.088924 0
26.185000 -0.087039 0
26.190000 -0.084587 0
26.195000 -0.081312 0
26.200000 -0.076888 0
26.205000 -0.070918 0
26.210000 -0.062946 0
26.215000 -0.052480 0
26.220000 -0.039048 0
26.225000 -0.022254 0
26.230000 -0.001860 0
26.235000 0.022126 0
26.240000 0.049378 0
26.245000 0.079189 0
26.250000 0.110463 0
26.255000 0.141748 0
26.260000 0.171326 0
26.265000 0.197366 0
26.270000 0.218102 0
26.275000 0.232033 0
26.280000 0.238102 1
26.285000 0.235827 0
26.290000 0.225367 0
26.295000 0.207499 0
26.300000 0.183528 0
26.305000 0.155125 0
26.310000 0.124126 0
26.315000 0.092306 0
26.320000 0.061095 0
26.325000 0.031155 0
26.330000 0.001750 0
26.335000 -0.029883 0
26.340000 -0.068285 0
26.345000 -0.117309 0
26.350000 -0.175158 0
26.355000 -0.229487 0
26.360000 -0.256856 2
26.365000 -0.227957 0
26.370000 -0.115472 0
26.375000 0.097216 0
26.380000 0.402554 0
26.385000 0.751266 0
26.390000 1.049011 0
26.395000 1.189320 3
26.400000 1.112100 0
26.405000 0.843104 0
26.410000 0.478812 0
26.415000 0.126591 0
26.420000 -0.141329 0
26.425000 -0.296881 0
26.430000 -0.344547 4
26.435000 -0.310011 0
26.440000 -0.230618 0
26.445000 -0.142530 0
26.450000 -0.068665 0
26.455000 -0.015350 0
26.460000 0.022005 0
26.465000 0.050938 0
26.470000 0.077169 0
26.475000 0.103660 0
26.480000 0.131458 0
26.485000 0.160655 0
26.490000 0.190939 0
26.495000 0.221817 0
26.500000 0.252692 0
26.505000 0.282895 0
26.510000 0.311712 0
26.515000 0.338409 0
26.520000 0.362263 0
26.525000 0.382593 0
26.530000 0.398794 0
26.535000 0.410363 0
26.540000 0.416925 0
26.545000 0.418255 5
26.550000 0.414286 0
26.555000 0.405115 0
26.560000 0.391001 0
26.565000 0.372347 0
26.570000 0.349683 0
26.575000 0.323643 0
26.580000 0.294930 0
26.585000 0.264288 0
26.590000 0.232468 0
26.595000 0.200198 0
26.600000 0.168158 0
26.605000 0.136954 0
26.610000 0.107107 0
26.615000 0.079038 0
26.620000 0.053066 0
26.625000 0.029406 0
26.630000 0.008180 0
26.635000 -0.010578 0
26.640000 -0.026910 0
26.645000 -0.040917 0
26.650000 -0.052746 0
26.655000 -0.062579 0
26.660000 -0.070616 0
26.665000 -0.077067 0
26.670000 -0.082140 0
26.675000 -0.086035 0
26.680000 -0.088940 0
26.685000 -0.091023 0
26.690000 -0.092436 0
26.695000 -0.093053 0
26.700000 -0.092168 0
26.705000 -0.091287 0
26.710000 -0.090410 0
26.715000 -0.089538 0
26.720000 -0.088670 0
26.725000 -0.087805 0
26.730000 -0.086945 0
26.735000 -0.086088 0
26.740000 -0.085232 0
26.745000 -0.084376 0
26.750000 -0.083514 0
26.755000 -0.082638 0
26.760000 -0.081734 0
26.765000 -0.080777 0
26.770000 -0.079726 0
26.775000 -0.078520 0
26.780000 -0.077062 0
26.785000 -0.075212 0
26.790000 -0.072774 0
26.795000 -0.069485 0
26.800000 -0.065005 0
26.805000 -0.058923 0
26.810000 -0.050768 0
26.815000 -0.040039 0
26.820000 -0.026256 0
26.825000 -0.009032 0
26.830000 0.011846 0
26.835000 0.036328 0
26.840000 0.064021 0
26.845000 0.094138 0
26.850000 0.125490 0
26.855000 0.156531 0
26.860000 0.185472 0
26.865000 0.210441 0
26.870000 0.229677 0
26.875000 0.241737 0
26.880000 0.245674 1
26.885000 0.241159 0
26.890000 0.228525 0
26.895000 0.208727 0
26.900000 0.183221 0
26.905000 0.153787 0
26.910000 0.122305 0
26.915000 0.090513 0
26.920000 0.059669 0
26.925000 0.030045 0
26.930000 0.000221 0
26.935000 -0.033396 0
26.940000 -0.075622 0
26.945000 -0.128865 0
26.950000 -0.187502 0
26.955000 -0.234079 0
26.960000 -0.241300 2
26.965000 -0.179110 0
26.970000 -0.023123 0
26.975000 0.234754 0
26.980000 0.569354 0
26.985000 0.907426 0
26.990000 1.140204 0
26.995000 1.174979 3
27.000000 0.992368 0
27.005000 0.660096 0
27.010000 0.290484 0
27.015000 -0.022075 0
27.020000 -0.228872 0
27.025000 -0.321287 4
27.030000 -0.317340 0
27.035000 -0.251621 0
27.040000 -0.163402 0
27.045000 -0.082559 0
27.050000 -0.021816 0
27.055000 0.020353 0
27.060000 0.051365 0
27.065000 0.077997 0
27.070000 0.104177 0
27.075000 0.131489 0
27.080000 0.160251 0
27.085000 0.190232 0
27.090000 0.220967 0
27.095000 0.251868 0
27.100000 0.282266 0
27.105000 0.311439 0
27.110000 0.338635 0
27.115000 0.363108 0
27.120000 0.384149 0
27.125000 0.401120 0
27.130000 0.413482 0
27.135000 0.420828 0
27.140000 0.422901 5
27.145000 0.419608 0
27.150000 0.411028 0
27.155000 0.397404 0
27.160000 0.379134 0
27.165000 0.356753 0
27.170000 0.330899 0
27.175000 0.302291 0
27.180000 0.271690 0
27.185000 0.239864 0
27.190000 0.207564 0
27.195000 0.175484 0
27.200000 0.144250 0
27.205000 0.114394 0
27.210000 0.086345 0
27.215000 0.060427 0
27.220000 0.036858 0
27.225000 0.015756 0
27.230000 -0.002849 0
27.235000 -0.019005 0
27.240000 -0.032820 0
27.245000 -0.044451 0
27.250000 -0.054085 0
27.255000 -0.061930 0
27.260000 -0.068201 0
27.265000 -0.073111 0
27.270000 -0.076862 0
27.275000 -0.079643 0
27.280000 -0.081626 0
27.285000 -0.082958 0
27.290000 -0.083532 0
27.295000 -0.082694 0
27.300000 -0.081860 0
27.305000 -0.081031 0
27.310000 -0.080205 0
27.315000 -0.079383 0
27.320000 -0.078566 0
27.325000 -0.077751 0
27.330000 -0.076939 0
27.335000 -0.076127 0
27.340000 -0.075314 0
27.345000 -0.074491 0
27.350000 -0.073650 0
27.355000 -0.072772 0
27.360000 -0.071825 0
27.365000 -0.070761 0
27.370000 -0.069502 0
27.375000 -0.067932 0
27.380000 -0.065883 0
27.385000 -0.063123 0
27.390000 -0.059346 0
27.395000 -0.054169 0
27.400000 -0.047135 0
27.405000 -0.037742 0
27.410000 -0.025479 0
27.415000 -0.009895 0
27.420000 0.009321 0
27.425000 0.032247 0
27.430000 0.058640 0
27.435000 0.087866 0
27.440000 0.118870 0
27.445000 0.150201 0
27.450000 0.180103 0
27.455000 0.206666 0
27.460000 0.228020 0
27.465000 0.242553 0
27.470000 0.249108 1
27.475000 0.247139 0
27.480000 0.236781 0
27.485000 0.218834 0
27.490000 0.194665 0
27.495000 0.166029 0
27.500000 0.134850 0
27.505000 0.102969 0
27.510000 0.071826 0
27.515000 0.041972 0
27.520000 0.012362 0
27.525000 -0.020268 0
27.530000 -0.060808 0
27.535000 -0.112495 0
27.540000 -0.171171 0
27.545000 -0.220688 0
27.550000 -0.234039 2
27.555000 -0.180324 0
27.560000 -0.033544 0
27.565000 0.216680 0
27.570000 0.547868 0
27.575000 0.888231 0
27.580000 1.127320 0
27.585000 1.168321 3
27.590000 0.990207 0
27.595000 0.661162 0
27.600000 0.290893 0
27.605000 -0.026495 0
27.610000 -0.240842 0
27.615000 -0.341592 0
27.620000 -0.344768 4
27.625000 -0.283223 0
27.630000 -0.195599 0
27.635000 -0.112717 0
27.640000 -0.049085 0
27.645000 -0.004584 0
27.650000 0.027727 0
27.655000 0.054822 0
27.660000 0.081007 0
27.665000 0.108150 0
27.670000 0.136723 0
27.675000 0.166571 0
27.680000 0.197273 0
27.685000 0.228276 0
27.690000 0.258941 0
27.695000 0.288571 0
27.700000 0.316435 0
27.705000 0.341800 0
27.710000 0.363957 0
27.715000 0.382260 0
27.720000 0.396151 0
27.725000 0.405189 0
27.730000 0.409076 5
27.735000 0.407666 0
27.740000 0.400979 0
27.745000 0.389200 0
27.750000 0.372666 0
27.755000 0.351853 0
27.760000 0.327350 0
27.765000 0.299834 0
27.770000 0.270037 0
27.775000 0.238712 0
27.780000 0.206604 0
27.785000 0.174420 0
27.790000 0.142805 0
27.795000 0.112322 0
27.800000 0.083440 0
27.805000 0.056525 0
27.810000 0.031840 0
27.815000 0.009550 0
27.820000 -0.010275 0
27.825000 -0.027644 0
27.830000 -0.042632 0
27.835000 -0.055368 0
27.840000 -0.066023 0
27.845000 -0.074788 0
27.850000 -0.081873 0
27.855000 -0.087486 0
27.860000 -0.091834 0
27.865000 -0.095111 0
27.870000 -0.097494 0
27.875000 -0.099142 0
27.880000 -0.100196 0
27.885000 -0.099560 0
27.890000 -0.098643 0
27.895000 -0.097729 0
27.900000 -0.096820 0
27.905000 -0.095916 0
27.910000 -0.095016 0
27.915000 -0.094120 0
27.920000 -0.093227 0
27.925000 -0.092337 0
27.930000 -0.091448 0
27.935000 -0.090556 0
27.940000 -0.089653 0
27.945000 -0.088730 0
27.950000 -0.087765 0
27.955000 -0.086726 0
27.960000 -0.085560 0
27.965000 -0.084185 0
27.970000 -0.082480 0
27.975000 -0.080273 0
27.980000 -0.077328 0
27.985000 -0.073335 0
27.990000 -0.067909 0
27.995000 -0.060599 0
28.000000 -0.050909 0
28.005000 -0.038342 0
28.010000 -0.022465 0
28.015000 -0.002985 0
28.020000 0.020161 0
28.025000 0.046720 0
28.030000 0.076058 0
28.035000 0.107134 0
28.040000 0.138525 0
28.045000 0.168514 0
28.050000 0.195232 0
28.055000 0.216845 0
28.060000 0.231764 0
28.065000 0.238835 1
28.070000 0.237486 0
28.075000 0.227806 0
28.080000 0.210530 0
28.085000 0.186955 0
28.090000 0.158767 0
28.095000 0.127846 0
28.100000 0.096017 0
28.105000 0.064764 0
28.110000 0.034791 0
28.115000 0.005365 0
28.120000 -0.026339 0
28.125000 -0.064977 0
28.130000 -0.114414 0
28.135000 -0.172483 0
28.140000 -0.225964 0
28.145000 -0.250303 2
28.150000 -0.215369 0
28.155000 -0.093742 0
28.160000 0.129901 0
28.165000 0.443983 0
28.170000 0.792054 0
28.175000 1.073103 0
28.180000 1.181350 3
28.185000 1.069909 0
28.190000 0.781029 0
28.195000 0.412889 0
28.200000 0.066652 0
28.205000 -0.192554 0
28.210000 -0.340825 0
28.215000 -0.384069 4
28.220000 -0.347739 0
28.225000 -0.267972 0
28.230000 -0.179591 0
28.235000 -0.104892 0
28.240000 -0.050408 0
28.245000 -0.012025 0
28.250000 0.017534 0
28.255000 0.044018 0
28.260000 0.070535 0
28.265000 0.098266 0
28.270000 0.127388 0
28.275000 0.157644 0
28.280000 0.188582 0
28.285000 0.219646 0
28.290000 0.250205 0
28.295000 0.279579 0
28.300000 0.307065 0
28.305000 0.331961 0
28.310000 0.353597 0
28.315000 0.371364 0
28.320000 0.384742 0
28.325000 0.393325 0
28.330000 0.396840 5
28.335000 0.395162 0
28.340000 0.388322 0
28.345000 0.376501 0
28.350000 0.360028 0
28.355000 0.339359 0
28.360000 0.315059 0
28.365000 0.287774 0
28.370000 0.258206 0
28.375000 0.227075 0
28.380000 0.195101 0
28.385000 0.162966 0
28.390000 0.131299 0
28.395000 0.100655 0
28.400000 0.071500 0
28.405000 0.044206 0
