0.000000 1.151495 3
0.005000 1.047635 0
0.010000 0.785491 0
0.015000 0.445907 0
0.020000 0.115282 0
0.025000 -0.146450 0
0.030000 -0.312973 0
0.035000 -0.383812 4
0.040000 -0.375869 0
0.045000 -0.317084 0
0.050000 -0.238369 0
0.055000 -0.164113 0
0.060000 -0.106415 0
0.065000 -0.066064 0
0.070000 -0.037854 0
0.075000 -0.015747 0
0.080000 0.004565 0
0.085000 0.025373 0
0.090000 0.047608 0
0.095000 0.071508 0
0.100000 0.097001 0
0.105000 0.123862 0
0.110000 0.151777 0
0.115000 0.180353 0
0.120000 0.209132 0
0.125000 0.237598 0
0.130000 0.265197 0
0.135000 0.291345 0
0.140000 0.315457 0
0.145000 0.336960 0
0.150000 0.355323 0
0.155000 0.370069 0
0.160000 0.380806 0
0.165000 0.387235 0
0.170000 0.389168 5
0.175000 0.386536 0
0.180000 0.379391 0
0.185000 0.367907 0
0.190000 0.352369 0
0.195000 0.333163 0
0.200000 0.310762 0
0.205000 0.285699 0
0.210000 0.258557 0
0.215000 0.229935 0
0.220000 0.200433 0
0.225000 0.170630 0
0.230000 0.141065 0
0.235000 0.112225 0
0.240000 0.084528 0
0.245000 0.058321 0
0.250000 0.033874 0
0.255000 0.011381 0
0.260000 -0.009037 0
0.265000 -0.027327 0
0.270000 -0.043497 0
0.275000 -0.057603 0
0.280000 -0.069743 0
0.285000 -0.080046 0
0.290000 -0.088662 0
0.295000 -0.095755 0
0.300000 -0.101494 0
0.305000 -0.106045 0
0.310000 -0.109569 0
0.315000 -0.112219 0
0.320000 -0.114132 0
0.325000 -0.115433 0
0.330000 -0.116232 0
0.335000 -0.116625 0
0.340000 -0.116692 0
0.345000 -0.116383 0
0.350000 -0.115374 0
0.355000 -0.114371 0
0.360000 -0.113372 0
0.365000 -0.112379 0
0.370000 -0.111390 0
0.375000 -0.110406 0
0.380000 -0.109428 0
0.385000 -0.108454 0
0.390000 -0.107484 0
0.395000 -0.106519 0
0.400000 -0.105558 0
0.405000 -0.104601 0
0.410000 -0.103645 0
0.415000 -0.102690 0
0.420000 -0.101729 0
0.425000 -0.100756 0
0.430000 -0.099759 0
0.435000 -0.098718 0
0.440000 -0.097601 0
0.445000 -0.096361 0
0.450000 -0.094927 0
0.455000 -0.093196 0
0.460000 -0.091028 0
0.465000 -0.088235 0
0.470000 -0.084573 0
0.475000 -0.079744 0
0.480000 -0.073398 0
0.485000 -0.065146 0
0.490000 -0.054587 0
0.495000 -0.041346 0
0.500000 -0.025125 0
0.505000 -0.005761 0
0.510000 0.016713 0
0.515000 0.042012 0
0.520000 0.069558 0
0.525000 0.098475 0
0.530000 0.127604 0
0.535000 0.155573 0
0.540000 0.180890 0
0.545000 0.202079 0
0.550000 0.217814 0
0.555000 0.227060 0
0.560000 0.229185 1
0.565000 0.224032 0
0.570000 0.211940 0
0.575000 0.193702 0
0.580000 0.170487 0
0.585000 0.143708 0
0.590000 0.114886 0
0.595000 0.085492 0
0.600000 0.056795 0
0.605000 0.029661 0
0.610000 0.004251 0
0.615000 -0.020434 0
0.620000 -0.046960 0
0.625000 -0.079248 0
0.630000 -0.120807 0
0.635000 -0.171214 0
0.640000 -0.222311 0
0.645000 -0.256961 2
0.650000 -0.251950 0
0.655000 -0.183446 0
0.660000 -0.032885 0
0.665000 0.205342 0
0.670000 0.511753 0
0.675000 0.830842 0
0.680000 1.077217 0
0.685000 1.168352 3
0.690000 1.067875 0
0.695000 0.807588 0
0.700000 0.468343 0
0.705000 0.137210 0
0.710000 -0.125194 0
0.715000 -0.292179 0
0.720000 -0.363185 4
0.725000 -0.355199 0
0.730000 -0.296338 0
0.735000 -0.217682 0
0.740000 -0.143671 0
0.745000 -0.086334 0
0.750000 -0.046340 0
0.755000 -0.018404 0
0.760000 0.003528 0
0.765000 0.023739 0
0.770000 0.044487 0
0.775000 0.066683 0
0.780000 0.090550 0
0.785000 0.116010 0
0.790000 0.142832 0
0.795000 0.170696 0
0.800000 0.199205 0
0.805000 0.227893 0
0.810000 0.256242 0
0.815000 0.283689 0
0.820000 0.309649 0
0.825000 0.333531 0
0.830000 0.354763 0
0.835000 0.372812 0
0.840000 0.387204 0
0.845000 0.397550 0
0.850000 0.403558 0
0.855000 0.405046 5
0.860000 0.401957 0
0.865000 0.394351 0
0.870000 0.382414 0
0.875000 0.366442 0
0.880000 0.346834 0
0.885000 0.324068 0
0.890000 0.298691 0
0.895000 0.271288 0
0.900000 0.242465 0
0.905000 0.212824 0
0.910000 0.182943 0
0.915000 0.153361 0
0.920000 0.124557 0
0.925000 0.096946 0
0.930000 0.070867 0
0.935000 0.046582 0
0.940000 0.024277 0
0.945000 0.004063 0
0.950000 -0.014014 0
0.955000 -0.029969 0
0.960000 -0.043865 0
0.965000 -0.055807 0
0.970000 -0.065927 0
0.975000 -0.074379 0
0.980000 -0.081329 0
0.985000 -0.086946 0
0.990000 -0.091398 0
0.995000 -0.094845 0
1.000000 -0.097439 0
1.005000 -0.099315 0
1.010000 -0.100597 0
1.015000 -0.101394 0
1.020000 -0.101797 0
1.025000 -0.101887 0
1.030000 -0.101099 0
1.035000 -0.100167 0
1.040000 -0.099239 0
1.045000 -0.098316 0
1.050000 -0.097397 0
1.055000 -0.096483 0
1.060000 -0.095574 0
1.065000 -0.094669 0
1.070000 -0.093769 0
1.075000 -0.092873 0
1.080000 -0.091980 0
1.085000 -0.091092 0
1.090000 -0.090206 0
1.095000 -0.089321 0
1.100000 -0.088435 0
1.105000 -0.087543 0
1.110000 -0.086635 0
1.115000 -0.085699 0
1.120000 -0.084712 0
1.125000 -0.083639 0
1.130000 -0.082428 0
1.135000 -0.080999 0
1.140000 -0.079241 0
1.145000 -0.077002 0
1.150000 -0.074078 0
1.155000 -0.070210 0
1.160000 -0.065085 0
1.165000 -0.058337 0
1.170000 -0.049570 0
1.175000 -0.038383 0
1.180000 -0.024415 0
1.185000 -0.007395 0
1.190000 0.012791 0
1.195000 0.036044 0
1.200000 0.061997 0
1.205000 0.089982 0
1.210000 0.119031 0
1.215000 0.147908 0
1.220000 0.175185 0
1.225000 0.199352 0
1.230000 0.218954 0
1.235000 0.232732 0
1.240000 0.239759 1
1.245000 0.239542 0
1.250000 0.232081 0
1.255000 0.217865 0
1.260000 0.197827 0
1.265000 0.173235 0
1.270000 0.145562 0
1.275000 0.116338 0
1.280000 0.086995 0
1.285000 0.058700 0
1.290000 0.032125 0
1.295000 0.007092 0
1.300000 -0.017912 0
1.305000 -0.046027 0
1.310000 -0.081349 0
1.315000 -0.126485 0
1.320000 -0.178613 0
1.325000 -0.226222 0
1.330000 -0.249338 2
1.335000 -0.223701 0
1.340000 -0.126580 0
1.345000 0.056996 0
1.350000 0.324871 0
1.355000 0.644581 0
1.360000 0.946734 0
1.365000 1.141420 0
1.370000 1.158951 3
1.375000 0.988678 0
1.380000 0.685733 0
1.385000 0.340323 0
1.390000 0.032682 0
1.395000 -0.190286 0
1.400000 -0.314048 0
1.405000 -0.346751 4
1.410000 -0.311633 0
1.415000 -0.239939 0
1.420000 -0.161277 0
1.425000 -0.094810 0
1.430000 -0.046635 0
1.435000 -0.013652 0
1.440000 0.010423 0
1.445000 0.030972 0
1.450000 0.051213 0
1.455000 0.072616 0
1.460000 0.095661 0
1.465000 0.120373 0
1.470000 0.146576 0
1.475000 0.173978 0
1.480000 0.202206 0
1.485000 0.230811 0
1.490000 0.259285 0
1.495000 0.287069 0
1.500000 0.313574 0
1.505000 0.338196 0
1.510000 0.360343 0
1.515000 0.379453 0
1.520000 0.395023 0
1.525000 0.406625 0
1.530000 0.413927 0
1.535000 0.416709 5
1.540000 0.414874 0
1.545000 0.408448 0
1.550000 0.397586 0
1.555000 0.382561 0
1.560000 0.363753 0
1.565000 0.341632 0
1.570000 0.316741 0
1.575000 0.289668 0
1.580000 0.261029 0
1.585000 0.231440 0
1.590000 0.201498 0
1.595000 0.171759 0
1.600000 0.142726 0
1.605000 0.114831 0
1.610000 0.088435 0
1.615000 0.063816 0
1.620000 0.041174 0
1.625000 0.020633 0
1.630000 0.002246 0
1.635000 -0.013994 0
1.640000 -0.028148 0
1.645000 -0.040318 0
1.650000 -0.050637 0
1.655000 -0.059262 0
1.660000 -0.066359 0
1.665000 -0.072103 0
1.670000 -0.076664 0
1.675000 -0.080206 0
1.680000 -0.082883 0
1.685000 -0.084834 0
1.690000 -0.086186 0
1.695000 -0.087047 0
1.700000 -0.087513 0
1.705000 -0.087665 0
1.710000 -0.086946 0
1.715000 -0.086084 0
1.720000 -0.085227 0
1.725000 -0.084374 0
1.730000 -0.083525 0
1.735000 -0.082680 0
1.740000 -0.081839 0
1.745000 -0.081003 0
1.750000 -0.080171 0
1.755000 -0.079342 0
1.760000 -0.078517 0
1.765000 -0.077696 0
1.770000 -0.076877 0
1.775000 -0.076058 0
1.780000 -0.075236 0
1.785000 -0.074406 0
1.790000 -0.073559 0
1.795000 -0.072679 0
1.800000 -0.071740 0
1.805000 -0.070704 0
1.810000 -0.069512 0
1.815000 -0.068075 0
1.820000 -0.066271 0
1.825000 -0.063931 0
1.830000 -0.060832 0
1.835000 -0.056697 0
1.840000 -0.051186 0
1.845000 -0.043917 0
1.850000 -0.034481 0
1.855000 -0.022475 0
1.860000 -0.007555 0
1.865000 0.010507 0
1.870000 0.031760 0
1.875000 0.056009 0
1.880000 0.082771 0
1.885000 0.111247 0
1.890000 0.140338 0
1.895000 0.168696 0
1.900000 0.194815 0
1.905000 0.217161 0
1.910000 0.234318 0
1.915000 0.245135 0
1.920000 0.248854 1
1.925000 0.245195 0
1.930000 0.234395 0
1.935000 0.217176 0
1.940000 0.194669 0
1.945000 0.168290 0
1.950000 0.139587 0
1.955000 0.110090 0
1.960000 0.081139 0
1.965000 0.053691 0
1.970000 0.028015 0
1.975000 0.003236 0
1.980000 -0.023125 0
1.985000 -0.055011 0
1.990000 -0.096137 0
1.995000 -0.146383 0
2.000000 -0.197755 0
2.005000 -0.232928 2
2.010000 -0.228164 0
2.015000 -0.159027 0
2.020000 -0.006579 0
2.025000 0.234467 0
2.030000 0.542927 0
2.035000 0.860058 0
2.040000 1.097349 0
2.045000 1.172363 3
2.050000 1.054172 0
2.055000 0.781771 0
2.060000 0.439521 0
2.065000 0.113706 0
2.070000 -0.138297 0
2.075000 -0.293122 0
2.080000 -0.352776 4
2.085000 -0.336237 0
2.090000 -0.272871 0
2.095000 -0.193707 0
2.100000 -0.121831 0
2.105000 -0.067445 0
2.110000 -0.029888 0
2.115000 -0.003401 0
2.120000 0.017936 0
2.125000 0.038073 0
2.130000 0.058995 0
2.135000 0.081451 0
2.140000 0.105591 0
2.145000 0.131295 0
2.150000 0.158312 0
2.155000 0.186300 0
2.160000 0.214842 0
2.165000 0.243455 0
2.170000 0.271603 0
2.175000 0.298711 0
2.180000 0.324184 0
2.185000 0.347426 0
2.190000 0.367866 0
2.195000 0.384980 0
2.200000 0.398307 0
2.205000 0.407478 0
2.210000 0.412227 0
2.215000 0.412404 5
2.220000 0.407982 0
2.225000 0.399061 0
2.230000 0.385859 0
2.235000 0.368710 0
2.240000 0.348042 0
2.245000 0.324363 0
2.250000 0.298239 0
2.255000 0.270271 0
2.260000 0.241073 0
2.265000 0.211247 0
2.270000 0.181368 0
2.275000 0.151959 0
2.280000 0.123486 0
2.285000 0.096341 0
2.290000 0.070839 0
2.295000 0.047217 0
2.300000 0.025636 0
2.305000 0.006181 0
2.310000 -0.011124 0
2.315000 -0.026315 0
2.320000 -0.039473 0
2.325000 -0.050715 0
2.330000 -0.060186 0
2.335000 -0.068047 0
2.340000 -0.074468 0
2.345000 -0.079620 0
2.350000 -0.083670 0
2.355000 -0.086776 0
2.360000 -0.089086 0
2.365000 -0.090730 0
2.370000 -0.091827 0
2.375000 -0.092480 0
2.380000 -0.092775 0
2.385000 -0.092657 0
2.390000 -0.091767 0
2.395000 -0.090881 0
2.400000 -0.089999 0
2.405000 -0.089122 0
2.410000 -0.088250 0
2.415000 -0.087381 0
2.420000 -0.086517 0
2.425000 -0.085658 0
2.430000 -0.084802 0
2.435000 -0.083950 0
2.440000 -0.083102 0
2.445000 -0.082257 0
2.450000 -0.081414 0
2.455000 -0.080571 0
2.460000 -0.079723 0
2.465000 -0.078864 0
2.470000 -0.077984 0
2.475000 -0.077063 0
2.480000 -0.076072 0
2.485000 -0.074967 0
2.490000 -0.073680 0
2.495000 -0.072113 0
2.500000 -0.070131 0
2.505000 -0.067548 0
2.510000 -0.064126 0
2.515000 -0.059570 0
2.520000 -0.053530 0
2.525000 -0.045613 0
2.530000 -0.035411 0
2.535000 -0.022539 0
2.540000 -0.006682 0
2.545000 0.012338 0
2.550000 0.034507 0
2.555000 0.059553 0
2.560000 0.086908 0
2.565000 0.115694 0
2.570000 0.144745 0
2.575000 0.172672 0
2.580000 0.197961 0
2.585000 0.219106 0
2.590000 0.234757 0
2.595000 0.243863 0
2.600000 0.245783 1
2.605000 0.240366 0
2.610000 0.227969 0
2.615000 0.209413 0
2.620000 0.185898 0
2.625000 0.158872 0
2.630000 0.129882 0
2.635000 0.100415 0
2.640000 0.071738 0
2.645000 0.044686 0
2.650000 0.019330 0
2.655000 -0.005492 0
2.660000 -0.032576 0
2.665000 -0.065986 0
2.670000 -0.109004 0
2.675000 -0.160320 0
2.680000 -0.210294 0
2.685000 -0.240266 2
2.690000 -0.226131 0
2.695000 -0.144141 0
2.700000 0.022905 0
2.705000 0.276963 0
2.710000 0.591607 0
2.715000 0.902808 0
2.720000 1.120804 0
2.725000 1.168666 3
2.730000 1.025105 0
2.735000 0.737216 0
2.740000 0.392499 0
2.745000 0.074582 0
2.750000 -0.164122 0
2.755000 -0.304498 0
2.760000 -0.351472 4
2.765000 -0.326021 0
2.770000 -0.258445 0
2.775000 -0.179213 0
2.780000 -0.109664 0
2.785000 -0.058097 0
2.790000 -0.022675 0
2.795000 0.002655 0
2.800000 0.023589 0
2.805000 0.043747 0
2.810000 0.064871 0
2.815000 0.087583 0
2.820000 0.111974 0
2.825000 0.137898 0
2.830000 0.165087 0
2.835000 0.193185 0
2.840000 0.221763 0
2.845000 0.250326 0
2.850000 0.278330 0
2.855000 0.305194 0
2.860000 0.330320 0
2.865000 0.353114 0
2.870000 0.373009 0
2.875000 0.389488 0
2.880000 0.402107 0
2.885000 0.410510 0
2.890000 0.414451 5
2.895000 0.413801 0
2.900000 0.408556 0
2.905000 0.398837 0
2.910000 0.384885 0
2.915000 0.367052 0
2.920000 0.345783 0
2.925000 0.321600 0
2.930000 0.295078 0
2.935000 0.266825 0
2.940000 0.237454 0
2.945000 0.207566 0
2.950000 0.177727 0
2.955000 0.148453 0
2.960000 0.120197 0
2.965000 0.093337 0
2.970000 0.068174 0
2.975000 0.044931 0
2.980000 0.023753 0
2.985000 0.004713 0
2.990000 -0.012178 0
2.995000 -0.026965 0
3.000000 -0.039738 0
3.005000 -0.050620 0
3.010000 -0.059761 0
3.015000 -0.067324 0
3.020000 -0.073481 0
3.025000 -0.078402 0
3.030000 -0.082253 0
3.035000 -0.085192 0
3.040000 -0.087362 0
3.045000 -0.088892 0
3.050000 -0.089897 0
3.055000 -0.090477 0
3.060000 -0.090716 0
3.065000 -0.090563 0
3.070000 -0.089683 0
3.075000 -0.088808 0
3.080000 -0.087937 0
3.085000 -0.087070 0
3.090000 -0.086208 0
3.095000 -0.085350 0
3.100000 -0.084496 0
3.105000 -0.083646 0
3.110000 -0.082800 0
3.115000 -0.081959 0
3.120000 -0.081120 0
3.125000 -0.080285 0
3.130000 -0.079450 0
3.135000 -0.078615 0
3.140000 -0.077774 0
3.145000 -0.076921 0
3.150000 -0.076041 0
3.155000 -0.075116 0
3.160000 -0.074111 0
3.165000 -0.072979 0
3.170000 -0.071643 0
3.175000 -0.069999 0
3.180000 -0.067898 0
3.185000 -0.065143 0
3.190000 -0.061482 0
3.195000 -0.056604 0
3.200000 -0.050146 0
3.205000 -0.041709 0
3.210000 -0.030885 0
3.215000 -0.017300 0
3.220000 -0.000667 0
3.225000 0.019152 0
3.230000 0.042079 0
3.235000 0.067771 0
3.240000 0.095581 0
3.245000 0.124549 0
3.250000 0.153444 0
3.255000 0.180829 0
3.260000 0.205174 0
3.265000 0.224997 0
3.270000 0.239011 0
3.275000 0.246259 1
3.280000 0.246224 0
3.285000 0.238890 0
3.290000 0.224744 0
3.295000 0.204722 0
3.300000 0.180106 0
3.305000 0.152390 0
3.310000 0.123123 0
3.315000 0.093753 0
3.320000 0.065457 0
3.325000 0.038900 0
3.330000 0.013866 0
3.335000 -0.011239 0
3.340000 -0.039662 0
3.345000 -0.075552 0
3.350000 -0.121342 0
3.355000 -0.173677 0
3.360000 -0.220224 0
3.365000 -0.240221 2
3.370000 -0.208994 0
3.375000 -0.103948 0
3.380000 0.088881 0
3.385000 0.364727 0
3.390000 0.686571 0
3.395000 0.980245 0
3.400000 1.154696 3
3.405000 1.145456 0
3.410000 0.952427 0
3.415000 0.639019 0
3.420000 0.294338 0
3.425000 -0.006284 0
3.430000 -0.220582 0
3.435000 -0.336753 0
3.440000 -0.364131 4
3.445000 -0.326159 0
3.450000 -0.253539 0
3.455000 -0.174925 0
3.460000 -0.108665 0
3.465000 -0.060504 0
3.470000 -0.027370 0
3.475000 -0.003119 0
3.480000 0.017541 0
3.485000 0.037817 0
3.490000 0.059197 0
3.495000 0.082186 0
3.500000 0.106829 0
3.505000 0.132962 0
3.510000 0.160311 0
3.515000 0.188517 0
3.520000 0.217152 0
3.525000 0.245725 0
3.530000 0.273698 0
3.535000 0.300498 0
3.540000 0.325538 0
3.545000 0.348234 0
3.550000 0.368033 0
3.555000 0.384429 0
3.560000 0.396987 0
3.565000 0.405363 0
3.570000 0.409314 5
3.575000 0.408714 0
3.580000 0.403560 0
3.585000 0.393969 0
3.590000 0.380176 0
3.595000 0.362521 0
3.600000 0.341440 0
3.605000 0.317443 0
3.610000 0.291091 0
3.615000 0.262979 0
3.620000 0.233712 0
3.625000 0.203880 0
3.630000 0.174045 0
3.635000 0.144718 0
3.640000 0.116351 0
3.645000 0.089326 0
3.650000 0.063949 0
3.655000 0.040448 0
3.660000 0.018976 0
3.665000 -0.000382 0
3.670000 -0.017608 0
3.675000 -0.032736 0
3.680000 -0.045848 0
3.685000 -0.057060 0
3.690000 -0.066514 0
3.695000 -0.074367 0
3.700000 -0.080788 0
3.705000 -0.085946 0
3.710000 -0.090004 0
3.715000 -0.093120 0
3.720000 -0.095437 0
3.725000 -0.097088 0
3.730000 -0.098188 0
3.735000 -0.098840 0
3.740000 -0.099132 0
3.745000 -0.099002 0
3.750000 -0.098080 0
3.755000 -0.097163 0
3.760000 -0.096250 0
3.765000 -0.095342 0
3.770000 -0.094438 0
3.775000 -0.093539 0
3.780000 -0.092644 0
3.785000 -0.091754 0
3.790000 -0.090868 0
3.795000 -0.089986 0
3.800000 -0.089108 0
3.805000 -0.088234 0
3.810000 -0.087361 0
3.815000 -0.086489 0
3.820000 -0.085614 0
3.825000 -0.084730 0
3.830000 -0.083828 0
3.835000 -0.082890 0
3.840000 -0.081893 0
3.845000 -0.080794 0
3.850000 -0.079535 0
3.855000 -0.078027 0
3.860000 -0.076148 0
3.865000 -0.073730 0
3.870000 -0.070554 0
3.875000 -0.066345 0
3.880000 -0.060774 0
3.885000 -0.053466 0
3.890000 -0.044020 0
3.895000 -0.032044 0
3.900000 -0.017201 0
3.905000 0.000739 0
3.910000 0.021833 0
3.915000 0.045909 0
3.920000 0.072518 0
3.925000 0.100906 0
3.930000 0.130028 0
3.935000 0.158591 0
3.940000 0.185139 0
3.945000 0.208168 0
3.950000 0.226270 0
3.955000 0.238272 0
3.960000 0.243359 1
3.965000 0.241170 0
3.970000 0.231836 0
3.975000 0.215971 0
3.980000 0.194600 0
3.985000 0.169053 0
3.990000 0.140825 0
3.995000 0.111430 0
4.000000 0.082243 0
4.005000 0.054325 0
4.010000 0.028178 0
4.015000 0.003342 0
4.020000 -0.022077 0
4.025000 -0.051553 0
4.030000 -0.089105 0
4.035000 -0.136430 0
4.040000 -0.188892 0
4.045000 -0.232899 0
4.050000 -0.247112 2
4.055000 -0.207217 0
4.060000 -0.091734 0
4.065000 0.111434 0
4.070000 0.394652 0
4.075000 0.717597 0
4.080000 1.004411 0
4.085000 1.165977 3
4.090000 1.142995 0
4.095000 0.940034 0
4.100000 0.622088 0
4.105000 0.278180 0
4.110000 -0.018291 0
4.115000 -0.227172 0
4.120000 -0.338128 0
4.125000 -0.361383 4
4.130000 -0.320880 0
4.135000 -0.247357 0
4.140000 -0.169028 0
4.145000 -0.103575 0
4.150000 -0.056201 0
4.155000 -0.023589 0
4.160000 0.000410 0
4.165000 0.020994 0
4.170000 0.041279 0
4.175000 0.062699 0
4.180000 0.085732 0
4.185000 0.110413 0
4.190000 0.136574 0
4.195000 0.163940 0
4.200000 0.192149 0
4.205000 0.220775 0
4.210000 0.249325 0
4.215000 0.277264 0
4.220000 0.304018 0
4.225000 0.329003 0
4.230000 0.351639 0
4.235000 0.371372 0
4.240000 0.387702 0
4.245000 0.400195 0
4.250000 0.408509 0
4.255000 0.412403 5
4.260000 0.411755 0
4.265000 0.406560 0
4.270000 0.396937 0
4.275000 0.383119 0
4.280000 0.365447 0
4.285000 0.344355 0
4.290000 0.320350 0
4.295000 0.293993 0
4.300000 0.265877 0
4.305000 0.236603 0
4.310000 0.206761 0
4.315000 0.176910 0
4.320000 0.147561 0
4.325000 0.119165 0
4.330000 0.092104 0
4.335000 0.066683 0
4.340000 0.043133 0
4.345000 0.021606 0
4.350000 0.002188 0
4.355000 -0.015100 0
4.360000 -0.030293 0
4.365000 -0.043471 0
4.370000 -0.054747 0
4.375000 -0.064263 0
4.380000 -0.072177 0
4.385000 -0.078654 0
4.390000 -0.083864 0
4.395000 -0.087971 0
4.400000 -0.091130 0
4.405000 -0.093487 0
4.410000 -0.095174 0
4.415000 -0.096306 0
4.420000 -0.096986 0
4.425000 -0.097302 0
4.430000 -0.097328 0
4.435000 -0.096551 0
4.440000 -0.095641 0
4.445000 -0.094736 0
4.450000 -0.093835 0
4.455000 -0.092939 0
4.460000 -0.092047 0
4.465000 -0.091160 0
4.470000 -0.090277 0
4.475000 -0.089399 0
4.480000 -0.088524 0
4.485000 -0.087654 0
4.490000 -0.086786 0
4.495000 -0.085921 0
4.500000 -0.085057 0
4.505000 -0.084190 0
4.510000 -0.083314 0
4.515000 -0.082421 0
4.520000 -0.081495 0
4.525000 -0.080510 0
4.530000 -0.079430 0
4.535000 -0.078194 0
4.540000 -0.076720 0
4.545000 -0.074887 0
4.550000 -0.072533 0
4.555000 -0.069444 0
4.560000 -0.065353 0
4.565000 -0.059934 0
4.570000 -0.052818 0
4.575000 -0.043608 0
4.580000 -0.031910 0
4.585000 -0.017380 0
4.590000 0.000226 0
4.595000 0.020984 0
4.600000 0.044750 0
4.605000 0.071107 0
4.610000 0.099337 0
4.615000 0.128429 0
4.620000 0.157119 0
4.625000 0.183967 0
4.630000 0.207475 0
4.635000 0.226221 0
4.640000 0.238999 0
4.645000 0.244950 1
4.650000 0.243655 0
4.655000 0.235185 0
4.660000 0.220092 0
4.665000 0.199351 0
4.670000 0.174258 0
4.675000 0.146288 0
4.680000 0.116957 0
4.685000 0.087662 0
4.690000 0.059518 0
4.695000 0.033118 0
4.700000 0.008168 0
4.705000 -0.016996 0
4.710000 -0.045636 0
4.715000 -0.081814 0
4.720000 -0.127802 0
4.725000 -0.180142 0
4.730000 -0.226647 0
4.735000 -0.246970 2
4.740000 -0.216953 0
4.745000 -0.114373 0
4.750000 0.074834 0
4.755000 0.347037 0
4.760000 0.667901 0
4.765000 0.966759 0
4.770000 1.154296 0
4.775000 1.163413 3
4.780000 0.986920 0
4.785000 0.681694 0
4.790000 0.336240 0
4.795000 0.028675 0
4.800000 -0.195239 0
4.805000 -0.321068 0
4.810000 -0.356411 4
4.815000 -0.323606 0
4.820000 -0.253048 0
4.825000 -0.174046 0
4.830000 -0.106189 0
4.835000 -0.056358 0
4.840000 -0.022076 0
4.845000 0.002726 0
4.850000 0.023518 0
4.855000 0.043706 0
4.860000 0.064911 0
4.865000 0.087704 0
4.870000 0.112158 0
4.875000 0.138125 0
4.880000 0.165337 0
4.885000 0.193443 0
4.890000 0.222021 0
4.895000 0.250584 0
4.900000 0.278598 0
4.905000 0.305491 0
4.910000 0.330675 0
4.915000 0.353567 0
4.920000 0.373609 0
4.925000 0.390288 0
4.930000 0.403163 0
4.935000 0.411879 0
4.940000 0.416186 5
4.945000 0.415947 0
4.950000 0.411147 0
4.955000 0.401893 0
4.960000 0.388410 0
4.965000 0.371032 0
4.970000 0.350186 0
4.975000 0.326377 0
4.980000 0.300165 0
4.985000 0.272142 0
4.990000 0.242913 0
4.995000 0.213072 0
5.000000 0.183183 0
5.005000 0.153764 0
5.010000 0.125272 0
5.015000 0.098094 0
5.020000 0.072543 0
5.025000 0.048854 0
5.030000 0.027186 0
5.035000 0.007628 0
5.040000 -0.009795 0
5.045000 -0.025116 0
5.050000 -0.038412 0
5.055000 -0.049796 0
5.060000 -0.059410 0
5.065000 -0.067411 0
5.070000 -0.073965 0
5.075000 -0.079243 0
5.080000 -0.083409 0
5.085000 -0.086620 0
5.090000 -0.089022 0
5.095000 -0.090749 0
5.100000 -0.091916 0
5.105000 -0.092628 0
5.110000 -0.092974 0
5.115000 -0.093027 0
5.120000 -0.092272 0
5.125000 -0.091383 0
5.130000 -0.090499 0
5.135000 -0.089620 0
5.140000 -0.088745 0
5.145000 -0.087874 0
5.150000 -0.087008 0
5.155000 -0.086146 0
5.160000 -0.085288 0
5.165000 -0.084434 0
5.170000 -0.083583 0
5.175000 -0.082736 0
5.180000 -0.081891 0
5.185000 -0.081047 0
5.190000 -0.080200 0
5.195000 -0.079344 0
5.200000 -0.078470 0
5.205000 -0.077563 0
5.210000 -0.076596 0
5.215000 -0.075532 0
5.220000 -0.074312 0
5.225000 -0.072848 0
5.230000 -0.071022 0
5.235000 -0.068668 0
5.240000 -0.065570 0
5.245000 -0.061457 0
5.250000 -0.056001 0
5.255000 -0.048829 0
5.260000 -0.039542 0
5.265000 -0.027745 0
5.270000 -0.013096 0
5.275000 0.004642 0
5.280000 0.025539 0
5.285000 0.049436 0
5.290000 0.075898 0
5.295000 0.104189 0
5.300000 0.133279 0
5.305000 0.161884 0
5.310000 0.188551 0
5.315000 0.211777 0
5.320000 0.230142 0
5.325000 0.242457 0
5.330000 0.247885 1
5.335000 0.246040 0
5.340000 0.237030 0
5.345000 0.221443 0
5.350000 0.200290 0
5.355000 0.174889 0
5.360000 0.146733 0
5.365000 0.117339 0
5.370000 0.088092 0
5.375000 0.060076 0
5.380000 0.033825 0
5.385000 0.008935 0
5.390000 -0.016415 0
5.395000 -0.045642 0
5.400000 -0.082791 0
5.405000 -0.129746 0
5.410000 -0.182223 0
5.415000 -0.227011 0
5.420000 -0.243006 2
5.425000 -0.205880 0
5.430000 -0.093895 0
5.435000 0.105617 0
5.440000 0.386087 0
5.445000 0.708672 0
5.450000 0.998637 0
5.455000 1.166562 3
5.460000 1.150821 0
5.465000 0.952943 0
5.470000 0.636992 0
5.475000 0.292743 0
5.480000 -0.005046 0
5.485000 -0.215212 0
5.490000 -0.326977 0
5.495000 -0.350526 4
5.500000 -0.309994 0
5.505000 -0.236414 0
5.510000 -0.158216 0
5.515000 -0.093105 0
5.520000 -0.046150 0
5.525000 -0.013890 0
5.530000 0.009891 0
5.535000 0.030380 0
5.540000 0.050650 0
5.545000 0.072097 0
5.550000 0.095175 0
5.555000 0.119904 0
5.560000 0.146108 0
5.565000 0.173502 0
5.570000 0.201718 0
5.575000 0.230318 0
5.580000 0.258804 0
5.585000 0.286628 0
5.590000 0.313212 0
5.595000 0.337964 0
5.600000 0.360299 0
5.605000 0.379665 0
5.610000 0.395559 0
5.615000 0.407556 0
5.620000 0.415319 0
5.625000 0.418620 5
5.630000 0.417348 0
5.635000 0.411517 0
5.640000 0.401261 0
5.645000 0.386831 0
5.650000 0.368588 0
5.655000 0.346981 0
5.660000 0.322532 0
5.665000 0.295813 0
5.670000 0.267426 0
5.675000 0.237979 0
5.680000 0.208062 0
5.685000 0.178233 0
5.690000 0.148997 0
5.695000 0.120798 0
5.700000 0.094006 0
5.705000 0.068914 0
5.710000 0.045738 0
5.715000 0.024621 0
5.720000 0.005631 0
5.725000 -0.011222 0
5.730000 -0.025984 0
5.735000 -0.038744 0
5.740000 -0.049626 0
5.745000 -0.058775 0
5.750000 -0.066355 0
5.755000 -0.072534 0
5.760000 -0.077482 0
5.765000 -0.081363 0
5.770000 -0.084332 0
5.775000 -0.086531 0
5.780000 -0.088090 0
5.785000 -0.089122 0
5.790000 -0.089726 0
5.795000 -0.089987 0
5.800000 -0.089851 0
5.805000 -0.088975 0
5.810000 -0.088103 0
5.815000 -0.087235 0
5.820000 -0.086372 0
5.825000 -0.085513 0
5.830000 -0.084659 0
5.835000 -0.083808 0
5.840000 -0.082962 0
5.845000 -0.082120 0
5.850000 -0.081282 0
5.855000 -0.080447 0
5.860000 -0.079615 0
5.865000 -0.078784 0
5.870000 -0.077953 0
5.875000 -0.077118 0
5.880000 -0.076271 0
5.885000 -0.075401 0
5.890000 -0.074489 0
5.895000 -0.073505 0
5.900000 -0.072404 0
5.905000 -0.071118 0
5.910000 -0.069547 0
5.915000 -0.067555 0
5.920000 -0.064957 0
5.925000 -0.061515 0
5.930000 -0.056933 0
5.935000 -0.050863 0
5.940000 -0.042917 0
5.945000 -0.032690 0
5.950000 -0.019800 0
5.955000 -0.003938 0
5.960000 0.015075 0
5.965000 0.037220 0
5.970000 0.062231 0
5.975000 0.089547 0
5.980000 0.118303 0
5.985000 0.147347 0
5.990000 0.175307 0
5.995000 0.200683 0
6.000000 0.221983 0
6.005000 0.237861 0
6.010000 0.247259 0
6.015000 0.249524 1
6.020000 0.244482 0
6.025000 0.232458 0
6.030000 0.214242 0
6.035000 0.191004 0
6.040000 0.164164 0
6.045000 0.135255 0
6.050000 0.105760 0
6.055000 0.076960 0
6.060000 0.049728 0
6.065000 0.024224 0
6.070000 -0.000564 0
6.075000 -0.027241 0
6.080000 -0.059763 0
6.085000 -0.101632 0
6.090000 -0.152291 0
6.095000 -0.203291 0
6.100000 -0.237137 2
6.105000 -0.230324 0
6.110000 -0.158931 0
6.115000 -0.004602 0
6.120000 0.237480 0
6.125000 0.546124 0
6.130000 0.863473 0
6.135000 1.102577 0
6.140000 1.181928 3
6.145000 1.068942 0
6.150000 0.799582 0
6.155000 0.457891 0
6.160000 0.130924 0
6.165000 -0.122922 0
6.170000 -0.279568 0
6.175000 -0.340655 4
6.180000 -0.325024 0
6.185000 -0.262071 0
6.190000 -0.182991 0
6.195000 -0.111070 0
6.200000 -0.056648 0
6.205000 -0.019105 0
6.210000 0.007334 0
6.215000 0.028614 0
6.220000 0.048700 0
6.225000 0.069576 0
6.230000 0.091994 0
6.235000 0.116099 0
6.240000 0.141770 0
6.245000 0.168753 0
6.250000 0.196704 0
6.255000 0.225202 0
6.260000 0.253762 0
6.265000 0.281845 0
6.270000 0.308871 0
6.275000 0.334244 0
6.280000 0.357366 0
6.285000 0.377664 0
6.290000 0.394611 0
6.295000 0.407751 0
6.300000 0.416715 0
6.305000 0.421239 5
6.310000 0.421179 0
6.315000 0.416511 0
6.320000 0.407342 0
6.325000 0.393898 0
6.330000 0.376517 0
6.335000 0.355633 0
6.340000 0.331761 0
6.345000 0.305472 0
6.350000 0.277370 0
6.355000 0.248073 0
6.360000 0.218183 0
6.365000 0.188275 0
6.370000 0.158871 0
6.375000 0.130434 0
6.380000 0.103352 0
6.385000 0.077938 0
6.390000 0.054422 0
6.395000 0.032960 0
6.400000 0.013633 0
6.405000 -0.003541 0
6.410000 -0.018601 0
6.415000 -0.031632 0
6.420000 -0.042755 0
6.425000 -0.052118 0
6.430000 -0.059882 0
6.435000 -0.066219 0
6.440000 -0.071300 0
6.445000 -0.075293 0
6.450000 -0.078356 0
6.455000 -0.080633 0
6.460000 -0.082258 0
6.465000 -0.083345 0
6.470000 -0.083997 0
6.475000 -0.084300 0
6.480000 -0.084200 0
6.485000 -0.083352 0
6.490000 -0.082508 0
6.495000 -0.081669 0
6.500000 -0.080833 0
6.505000 -0.080002 0
6.510000 -0.079175 0
6.515000 -0.078352 0
6.520000 -0.077533 0
6.525000 -0.076718 0
6.530000 -0.075906 0
6.535000 -0.075098 0
6.540000 -0.074293 0
6.545000 -0.073489 0
6.550000 -0.072684 0
6.555000 -0.071874 0
6.560000 -0.071051 0
6.565000 -0.070204 0
6.570000 -0.069313 0
6.575000 -0.068346 0
6.580000 -0.067256 0
6.585000 -0.065969 0
6.590000 -0.064383 0
6.595000 -0.062353 0
6.600000 -0.059686 0
6.605000 -0.056133 0
6.610000 -0.051388 0
6.615000 -0.045090 0
6.620000 -0.036840 0
6.625000 -0.026231 0
6.630000 -0.012882 0
6.635000 0.003501 0
6.640000 0.023070 0
6.645000 0.045764 0
6.650000 0.071260 0
6.655000 0.098927 0
6.660000 0.127829 0
6.665000 0.156745 0
6.670000 0.184245 0
6.675000 0.208801 0
6.680000 0.228918 0
6.685000 0.243292 0
6.690000 0.250939 0
6.695000 0.251314 1
6.700000 0.244370 0
6.705000 0.230566 0
6.710000 0.210816 0
6.715000 0.186391 0
6.720000 0.158778 0
6.725000 0.129531 0
6.730000 0.100110 0
6.735000 0.071714 0
6.740000 0.045041 0
6.745000 0.019932 0
6.750000 -0.005132 0
6.755000 -0.033332 0
6.760000 -0.068823 0
6.765000 -0.114206 0
6.770000 -0.166465 0
6.775000 -0.213662 0
6.780000 -0.235284 2
6.785000 -0.206657 0
6.790000 -0.104936 0
6.795000 0.084373 0
6.800000 0.357475 0
6.805000 0.678707 0
6.810000 0.974959 0
6.815000 1.154941 3
6.820000 1.152354 0
6.825000 0.964395 0
6.830000 0.652933 0
6.835000 0.308066 0
6.840000 0.006613 0
6.845000 -0.208192 0
6.850000 -0.324244 0
6.855000 -0.351019 4
6.860000 -0.312360 0
6.865000 -0.239404 0
6.870000 -0.161020 0
6.875000 -0.095429 0
6.880000 -0.048054 0
6.885000 -0.015547 0
6.890000 0.008336 0
6.895000 0.028851 0
6.900000 0.049122 0
6.905000 0.070565 0
6.910000 0.093645 0
6.915000 0.118382 0
6.920000 0.144599 0
6.925000 0.172008 0
6.930000 0.200240 0
6.935000 0.228851 0
6.940000 0.257340 0
6.945000 0.285154 0
6.950000 0.311711 0
6.955000 0.336415 0
6.960000 0.358677 0
6.965000 0.377942 0
6.970000 0.393708 0
6.975000 0.405547 0
6.980000 0.413126 0
6.985000 0.416221 5
6.990000 0.414724 0
6.995000 0.408656 0
7.000000 0.398160 0
7.005000 0.383494 0
7.010000 0.365028 0
7.015000 0.343218 0
7.020000 0.318596 0
7.025000 0.291739 0
7.030000 0.263256 0
7.035000 0.233757 0
7.040000 0.203835 0
7.045000 0.174047 0
7.050000 0.144897 0
7.055000 0.116825 0
7.060000 0.090197 0
7.065000 0.065300 0
7.070000 0.042344 0
7.075000 0.021463 0
7.080000 0.002721 0
7.085000 -0.013880 0
7.090000 -0.028392 0
7.095000 -0.040909 0
7.100000 -0.051558 0
7.105000 -0.060490 0
7.110000 -0.067869 0
7.115000 -0.073866 0
7.120000 -0.078651 0
7.125000 -0.082388 0
7.130000 -0.085231 0
7.135000 -0.087323 0
7.140000 -0.088791 0
7.145000 -0.089746 0
7.150000 -0.090287 0
7.155000 -0.090497 0
7.160000 -0.090325 0
7.165000 -0.089446 0
7.170000 -0.088572 0
7.175000 -0.087702 0
7.180000 -0.086836 0
7.185000 -0.085975 0
7.190000 -0.085118 0
7.195000 -0.084265 0
7.200000 -0.083417 0
7.205000 -0.082572 0
7.210000 -0.081732 0
7.215000 -0.080894 0
7.220000 -0.080060 0
7.225000 -0.079226 0
7.230000 -0.078392 0
7.235000 -0.077551 0
7.240000 -0.076697 0
7.245000 -0.075817 0
7.250000 -0.074888 0
7.255000 -0.073879 0
7.260000 -0.072738 0
7.265000 -0.071390 0
7.270000 -0.069728 0
7.275000 -0.067602 0
7.280000 -0.064813 0
7.285000 -0.061108 0
7.290000 -0.056175 0
7.295000 -0.049650 0
7.300000 -0.041136 0
7.305000 -0.030227 0
7.310000 -0.016552 0
7.315000 0.000170 0
7.320000 0.020070 0
7.325000 0.043067 0
7.330000 0.068810 0
7.335000 0.096649 0
7.340000 0.125625 0
7.345000 0.154506 0
7.350000 0.181859 0
7.355000 0.206163 0
7.360000 0.225944 0
7.365000 0.239921 0
7.370000 0.247146 1
7.375000 0.247104 0
7.380000 0.239780 0
7.385000 0.225657 0
7.390000 0.205666 0
7.395000 0.181081 0
7.400000 0.153388 0
7.405000 0.124129 0
7.410000 0.094748 0
7.415000 0.066421 0
7.420000 0.039824 0
7.425000 0.014765 0
7.430000 -0.010305 0
7.435000 -0.038579 0
7.440000 -0.074189 0
7.445000 -0.119668 0
7.450000 -0.171928 0
7.455000 -0.219024 0
7.460000 -0.240541 2
7.465000 -0.211960 0
7.470000 -0.110581 0
7.475000 0.078055 0
7.480000 0.350381 0
7.485000 0.671390 0
7.490000 0.968919 0
7.495000 1.152238 0
7.500000 1.154457 3
7.505000 0.970832 0
7.510000 0.661418 0
7.515000 0.316342 0
7.520000 0.013262 0
7.525000 -0.203679 0
7.530000 -0.321764 0
7.535000 -0.350120 4
7.540000 -0.312416 0
7.545000 -0.239800 0
7.550000 -0.161327 0
7.555000 -0.095474 0
7.560000 -0.047852 0
7.565000 -0.015193 0
7.570000 0.008756 0
7.575000 0.029285 0
7.580000 0.049546 0
7.585000 0.070973 0
7.590000 0.094037 0
7.595000 0.118761 0
7.600000 0.144968 0
7.605000 0.172371 0
7.610000 0.200598 0
7.615000 0.229207 0
7.620000 0.257694 0
7.625000 0.285506 0
7.630000 0.312060 0
7.635000 0.336757 0
7.640000 0.359008 0
7.645000 0.378258 0
7.650000 0.394001 0
7.655000 0.405812 0
7.660000 0.413355 0
7.665000 0.416408 5
7.670000 0.414865 0
7.675000 0.408745 0
7.680000 0.398194 0
7.685000 0.383475 0
7.690000 0.364955 0
7.695000 0.343097 0
7.700000 0.318431 0
7.705000 0.291539 0
7.710000 0.263029 0
7.715000 0.233514 0
7.720000 0.203587 0
7.725000 0.173806 0
7.730000 0.144675 0
7.735000 0.116632 0
7.740000 0.090042 0
7.745000 0.065191 0
7.750000 0.042289 0
7.755000 0.021466 0
7.760000 0.002785 0
7.765000 -0.013753 0
7.770000 -0.028202 0
7.775000 -0.040658 0
7.780000 -0.051248 0
7.785000 -0.060125 0
7.790000 -0.067454 0
7.795000 -0.073406 0
7.800000 -0.078150 0
7.805000 -0.081852 0
7.810000 -0.084666 0
7.815000 -0.086732 0
7.820000 -0.088179 0
7.825000 -0.089117 0
7.830000 -0.089645 0
7.835000 -0.089844 0
7.840000 -0.089123 0
7.845000 -0.088251 0
7.850000 -0.087382 0
7.855000 -0.086518 0
7.860000 -0.085659 0
7.865000 -0.084803 0
7.870000 -0.083952 0
7.875000 -0.083105 0
7.880000 -0.082263 0
7.885000 -0.081424 0
7.890000 -0.080589 0
7.895000 -0.079757 0
7.900000 -0.078928 0
7.905000 -0.078100 0
7.910000 -0.077271 0
7.915000 -0.076435 0
7.920000 -0.075585 0
7.925000 -0.074707 0
7.930000 -0.073780 0
7.935000 -0.072768 0
7.940000 -0.071621 0
7.945000 -0.070260 0
7.950000 -0.068575 0
7.955000 -0.066413 0
7.960000 -0.063571 0
7.965000 -0.059790 0
7.970000 -0.054753 0
7.975000 -0.048094 0
7.980000 -0.039410 0
7.985000 -0.028298 0
7.990000 -0.014391 0
7.995000 0.002584 0
8.000000 0.022744 0
8.005000 0.045985 0
8.010000 0.071932 0
8.015000 0.099908 0
8.020000 0.128924 0
8.025000 0.157726 0
8.030000 0.184865 0
8.035000 0.208814 0
8.040000 0.228107 0
8.045000 0.241488 0
8.050000 0.248040 1
8.055000 0.247295 0
8.060000 0.239285 0
8.065000 0.224540 0
8.070000 0.204033 0
8.075000 0.179067 0
8.080000 0.151143 0
8.085000 0.121805 0
8.090000 0.092481 0
8.095000 0.064311 0
8.100000 0.037900 0
8.105000 0.012937 0
8.110000 -0.012300 0
8.115000 -0.041175 0
8.120000 -0.077812 0
8.125000 -0.124340 0
8.130000 -0.176795 0
8.135000 -0.222155 0
8.140000 -0.239222 2
8.145000 -0.203328 0
8.150000 -0.092322 0
8.155000 0.106792 0
8.160000 0.387440 0
8.165000 0.710086 0
8.170000 0.998623 0
8.175000 1.162493 3
8.180000 1.141072 0
8.185000 0.938849 0
8.190000 0.621017 0
8.195000 0.277168 0
8.200000 -0.018876 0
8.205000 -0.226874 0
8.210000 -0.336641 0
8.215000 -0.358677 4
8.220000 -0.317252 0
8.225000 -0.243351 0
8.230000 -0.165205 0
8.235000 -0.100281 0
8.240000 -0.053486 0
8.245000 -0.021304 0
8.250000 0.002467 0
8.255000 0.022984 0
8.260000 0.043295 0
8.265000 0.064785 0
8.270000 0.087904 0
8.275000 0.112671 0
8.280000 0.138911 0
8.285000 0.166338 0
8.290000 0.194588 0
8.295000 0.223222 0
8.300000 0.251745 0
8.305000 0.279611 0
8.310000 0.306243 0
8.315000 0.331051 0
8.320000 0.353452 0
8.325000 0.372895 0
8.330000 0.388879 0
8.335000 0.400976 0
8.340000 0.408850 0
8.345000 0.412272 5
8.350000 0.411130 0
8.355000 0.405432 0
8.360000 0.395311 0
8.365000 0.381016 0
8.370000 0.362902 0
8.375000 0.341415 0
8.380000 0.317074 0
8.385000 0.290449 0
8.390000 0.262139 0
8.395000 0.232750 0
8.400000 0.202871 0
8.405000 0.173061 0
8.410000 0.143825 0
8.415000 0.115607 0
8.420000 0.088781 0
8.425000 0.063642 0
8.430000 0.040409 0
8.435000 0.019225 0
8.440000 0.000165 0
8.445000 -0.016762 0
8.450000 -0.031597 0
8.455000 -0.044427 0
8.460000 -0.055375 0
8.465000 -0.064584 0
8.470000 -0.072217 0
8.475000 -0.078442 0
8.480000 -0.083428 0
8.485000 -0.087339 0
8.490000 -0.090329 0
8.495000 -0.092543 0
8.500000 -0.094110 0
8.505000 -0.095143 0
8.510000 -0.095744 0
8.515000 -0.095996 0
8.520000 -0.095845 0
8.525000 -0.094939 0
8.530000 -0.094037 0
8.535000 -0.093140 0
8.540000 -0.092248 0
8.545000 -0.091359 0
8.550000 -0.090475 0
8.555000 -0.089596 0
8.560000 -0.088721 0
8.565000 -0.087850 0
8.570000 -0.086983 0
8.575000 -0.086120 0
8.580000 -0.085260 0
8.585000 -0.084402 0
8.590000 -0.083543 0
8.595000 -0.082681 0
8.600000 -0.081808 0
8.605000 -0.080914 0
8.610000 -0.079980 0
8.615000 -0.078978 0
8.620000 -0.077865 0
8.625000 -0.076575 0
8.630000 -0.075013 0
8.635000 -0.073047 0
8.640000 -0.070498 0
8.645000 -0.067135 0
8.650000 -0.062669 0
8.655000 -0.056759 0
8.660000 -0.049020 0
8.665000 -0.039049 0
8.670000 -0.026461 0
8.675000 -0.010936 0
8.680000 0.007722 0
8.685000 0.029523 0
8.690000 0.054232 0
8.695000 0.081328 0
8.700000 0.109985 0
8.705000 0.139088 0
8.710000 0.167292 0
8.715000 0.193111 0
8.720000 0.215048 0
8.725000 0.231735 0
8.730000 0.242070 0
8.735000 0.245345 1
8.740000 0.241316 0
8.745000 0.230243 0
8.750000 0.212852 0
8.755000 0.190262 0
8.760000 0.163866 0
8.765000 0.135182 0
8.770000 0.105708 0
8.775000 0.076760 0
8.780000 0.049285 0
8.785000 0.023573 0
8.790000 -0.001175 0
8.795000 -0.027306 0
8.800000 -0.058626 0
8.805000 -0.098896 0
8.810000 -0.148471 0
8.815000 -0.200349 0
8.820000 -0.238420 0
8.825000 -0.239865 2
8.830000 -0.180500 0
8.835000 -0.040668 0
8.840000 0.187408 0
8.845000 0.487885 0
8.850000 0.809406 0
8.855000 1.068438 0
8.860000 1.179509 3
8.865000 1.099579 0
8.870000 0.853361 0
8.875000 0.518236 0
8.880000 0.182527 0
8.885000 -0.089471 0
8.890000 -0.267585 0
8.895000 -0.348828 4
8.900000 -0.348531 0
8.905000 -0.293885 0
8.910000 -0.216100 0
8.915000 -0.140756 0
8.920000 -0.081355 0
8.925000 -0.039630 0
8.930000 -0.010683 0
8.935000 0.011630 0
8.940000 0.031839 0
8.945000 0.052406 0
8.950000 0.074359 0
8.955000 0.097979 0
8.960000 0.123208 0
8.965000 0.149832 0
8.970000 0.177541 0
8.975000 0.205944 0
8.980000 0.234587 0
8.985000 0.262955 0
8.990000 0.290492 0
8.995000 0.316614 0
9.000000 0.340731 0
9.005000 0.362268 0
9.010000 0.380686 0
9.015000 0.395503 0
9.020000 0.406320 0
9.025000 0.412831 0
9.030000 0.414842 5
9.035000 0.412277 0
9.040000 0.405184 0
9.045000 0.393732 0
9.050000 0.378205 0
9.055000 0.358987 0
9.060000 0.336548 0
9.065000 0.311427 0
9.070000 0.284205 0
9.075000 0.255485 0
9.080000 0.225871 0
9.085000 0.195944 0
9.090000 0.166248 0
9.095000 0.137272 0
9.100000 0.109438 0
9.105000 0.083095 0
9.110000 0.058516 0
9.115000 0.035895 0
9.120000 0.015355 0
9.125000 -0.003053 0
9.130000 -0.019333 0
9.135000 -0.033545 0
9.140000 -0.045787 0
9.145000 -0.056188 0
9.150000 -0.064901 0
9.155000 -0.072088 0
9.160000 -0.077920 0
9.165000 -0.082564 0
9.170000 -0.086183 0
9.175000 -0.088927 0
9.180000 -0.090936 0
9.185000 -0.092336 0
9.190000 -0.093235 0
9.195000 -0.093728 0
9.200000 -0.093898 0
9.205000 -0.093156 0
9.210000 -0.092263 0
9.215000 -0.091375 0
9.220000 -0.090491 0
9.225000 -0.089612 0
9.230000 -0.088737 0
9.235000 -0.087866 0
9.240000 -0.087000 0
9.245000 -0.086137 0
9.250000 -0.085279 0
9.255000 -0.084425 0
9.260000 -0.083574 0
9.265000 -0.082726 0
9.270000 -0.081880 0
9.275000 -0.081032 0
9.280000 -0.080178 0
9.285000 -0.079311 0
9.290000 -0.078418 0
9.295000 -0.077477 0
9.300000 -0.076457 0
9.305000 -0.075307 0
9.310000 -0.073954 0
9.315000 -0.072292 0
9.320000 -0.070174 0
9.325000 -0.067406 0
9.330000 -0.063738 0
9.335000 -0.058865 0
9.340000 -0.052429 0
9.345000 -0.044036 0
9.350000 -0.033286 0
9.355000 -0.019807 0
9.360000 -0.003312 0
9.365000 0.016343 0
9.370000 0.039096 0
9.375000 0.064624 0
9.380000 0.092310 0
9.385000 0.121232 0
9.390000 0.150194 0
9.395000 0.177794 0
9.400000 0.202527 0
9.405000 0.222920 0
9.410000 0.237676 0
9.415000 0.245806 0
9.420000 0.246744 1
9.425000 0.240407 0
9.430000 0.227207 0
9.435000 0.208009 0
9.440000 0.184033 0
9.445000 0.156729 0
9.450000 0.127626 0
9.455000 0.098181 0
9.460000 0.069616 0
9.465000 0.042707 0
9.470000 0.017449 0
9.475000 -0.007416 0
9.480000 -0.034759 0
9.485000 -0.068631 0
9.490000 -0.112139 0
9.495000 -0.163663 0
9.500000 -0.213280 0
9.505000 -0.242262 2
9.510000 -0.226703 0
9.515000 -0.143217 0
9.520000 0.025009 0
9.525000 0.279648 0
9.530000 0.594354 0
9.535000 0.905802 0
9.540000 1.125286 0
9.545000 1.176345 3
9.550000 1.036763 0
9.555000 0.751840 0
9.560000 0.407512 0
9.565000 0.087140 0
9.570000 -0.156060 0
9.575000 -0.301840 0
9.580000 -0.354017 4
9.585000 -0.332526 0
9.590000 -0.266927 0
9.595000 -0.187654 0
9.600000 -0.116741 0
9.605000 -0.063459 0
9.610000 -0.026677 0
9.615000 -0.000577 0
9.620000 0.020631 0
9.625000 0.040762 0
9.630000 0.061716 0
9.635000 0.084208 0
9.640000 0.108374 0
9.645000 0.134091 0
9.650000 0.161110 0
9.655000 0.189090 0
9.660000 0.217619 0
9.665000 0.246219 0
9.670000 0.274359 0
9.675000 0.301470 0
9.680000 0.326965 0
9.685000 0.350254 0
9.690000 0.370770 0
9.695000 0.387992 0
9.700000 0.401464 0
9.705000 0.410816 0
9.710000 0.415779 0
9.715000 0.416198 5
9.720000 0.412041 0
9.725000 0.403399 0
9.730000 0.390481 0
9.735000 0.373607 0
9.740000 0.353196 0
9.745000 0.329745 0
9.750000 0.303809 0
9.755000 0.275981 0
9.760000 0.246869 0
9.765000 0.217070 0
9.770000 0.187157 0
9.775000 0.157655 0
9.780000 0.129031 0
9.785000 0.101683 0
9.790000 0.075934 0
9.795000 0.052027 0
9.800000 0.030133 0
9.805000 0.010346 0
9.810000 -0.007302 0
9.815000 -0.022837 0
9.820000 -0.036333 0
9.825000 -0.047902 0
9.830000 -0.057682 0
9.835000 -0.065830 0
9.840000 -0.072513 0
9.845000 -0.077902 0
9.850000 -0.082162 0
9.855000 -0.085453 0
9.860000 -0.087921 0
9.865000 -0.089702 0
9.870000 -0.090914 0
9.875000 -0.091662 0
9.880000 -0.092036 0
9.885000 -0.092113 0
9.890000 -0.091365 0
9.895000 -0.090481 0
9.900000 -0.089602 0
9.905000 -0.088726 0
9.910000 -0.087856 0
9.915000 -0.086990 0
9.920000 -0.086127 0
9.925000 -0.085270 0
9.930000 -0.084416 0
9.935000 -0.083566 0
9.940000 -0.082721 0
9.945000 -0.081878 0
9.950000 -0.081038 0
9.955000 -0.080198 0
9.960000 -0.079355 0
9.965000 -0.078504 0
9.970000 -0.077635 0
9.975000 -0.076734 0
9.980000 -0.075774 0
9.985000 -0.074718 0
9.990000 -0.073506 0
9.995000 -0.072055 0
10.000000 -0.070242 0
10.005000 -0.067905 0
10.010000 -0.064827 0
10.015000 -0.060736 0
10.020000 -0.055306 0
10.025000 -0.048160 0
10.030000 -0.038900 0
10.035000 -0.027128 0
10.040000 -0.012499 0
10.045000 0.005225 0
10.050000 0.026115 0
10.055000 0.050011 0
10.060000 0.076477 0
10.065000 0.104774 0
10.070000 0.133863 0
10.075000 0.162454 0
10.080000 0.189089 0
10.085000 0.212257 0
10.090000 0.230534 0
10.095000 0.242731 0
10.100000 0.248016 1
10.105000 0.246009 0
10.110000 0.236830 0
10.115000 0.221082 0
10.120000 0.199788 0
10.125000 0.174279 0
10.130000 0.146058 0
10.135000 0.116645 0
10.140000 0.087425 0
10.145000 0.059470 0
10.150000 0.033289 0
10.155000 0.008426 0
10.160000 -0.017020 0
10.165000 -0.046540 0
10.170000 -0.084171 0
10.175000 -0.131592 0
10.180000 -0.184076 0
10.185000 -0.227863 0
10.190000 -0.241432 2
10.195000 -0.200345 0
10.200000 -0.083121 0
10.205000 0.122102 0
10.210000 0.407011 0
10.215000 0.730087 0
10.220000 1.014258 0
10.225000 1.170208 3
10.230000 1.140255 0
10.235000 0.931399 0
10.240000 0.610657 0
10.245000 0.267493 0
10.250000 -0.025618 0
10.255000 -0.229867 0
10.260000 -0.336054 0
10.265000 -0.355288 4
10.270000 -0.312176 0
10.275000 -0.237714 0
10.280000 -0.159816 0
10.285000 -0.095478 0
10.290000 -0.049240 0
10.295000 -0.017423 0
10.300000 0.006174 0
10.305000 0.026636 0
10.310000 0.046952 0
10.315000 0.068466 0
10.320000 0.091612 0
10.325000 0.116402 0
10.330000 0.142657 0
10.335000 0.170091 0
10.340000 0.198338 0
10.345000 0.226959 0
10.350000 0.255459 0
10.355000 0.283292 0
10.360000 0.309881 0
10.365000 0.334639 0
10.370000 0.356984 0
10.375000 0.376366 0
10.380000 0.392285 0
10.385000 0.404317 0
10.390000 0.412128 0
10.395000 0.415489 5
10.400000 0.414290 0
10.405000 0.408541 0
10.410000 0.398375 0
10.415000 0.384041 0
10.420000 0.365894 0
10.425000 0.344380 0
10.430000 0.320017 0
10.435000 0.293373 0
10.440000 0.265048 0
10.445000 0.235644 0
10.450000 0.205751 0
10.455000 0.175926 0
10.460000 0.146674 0
10.465000 0.118437 0
10.470000 0.091589 0
10.475000 0.066425 0
10.480000 0.043164 0
10.485000 0.021949 0
10.490000 0.002856 0
10.495000 -0.014105 0
10.500000 -0.028976 0
10.505000 -0.041844 0
10.510000 -0.052828 0
10.515000 -0.062074 0
10.520000 -0.069743 0
10.525000 -0.076001 0
10.530000 -0.081019 0
10.535000 -0.084960 0
10.540000 -0.087979 0
10.545000 -0.090220 0
10.550000 -0.091810 0
10.555000 -0.092866 0
10.560000 -0.093487 0
10.565000 -0.093759 0
10.570000 -0.093624 0
10.575000 -0.092729 0
10.580000 -0.091838 0
10.585000 -0.090952 0
10.590000 -0.090070 0
10.595000 -0.089193 0
10.600000 -0.088320 0
10.605000 -0.087451 0
10.610000 -0.086587 0
10.615000 -0.085727 0
10.620000 -0.084870 0
10.625000 -0.084018 0
10.630000 -0.083168 0
10.635000 -0.082321 0
10.640000 -0.081473 0
10.645000 -0.080621 0
10.650000 -0.079759 0
10.655000 -0.078877 0
10.660000 -0.077956 0
10.665000 -0.076968 0
10.670000 -0.075872 0
10.675000 -0.074602 0
10.680000 -0.073067 0
10.685000 -0.071134 0
10.690000 -0.068630 0
10.695000 -0.065326 0
10.700000 -0.060936 0
10.705000 -0.055123 0
10.710000 -0.047504 0
10.715000 -0.037678 0
10.720000 -0.025258 0
10.725000 -0.009919 0
10.730000 0.008542 0
10.735000 0.030149 0
10.740000 0.054683 0
10.745000 0.081642 0
10.750000 0.110220 0
10.755000 0.139323 0
10.760000 0.167619 0
10.765000 0.193631 0
10.770000 0.215863 0
10.775000 0.232935 0
10.780000 0.243726 0
10.785000 0.247498 1
10.790000 0.243975 0
10.795000 0.233380 0
10.800000 0.216406 0
10.805000 0.194147 0
10.810000 0.167975 0
10.815000 0.139401 0
10.820000 0.109928 0
10.825000 0.080888 0
10.830000 0.053266 0
10.835000 0.027415 0
10.840000 0.002644 0
10.845000 -0.023253 0
10.850000 -0.053987 0
10.855000 -0.093420 0
10.860000 -0.142356 0
10.865000 -0.194554 0
10.870000 -0.234688 0
10.875000 -0.240382 2
10.880000 -0.187382 0
10.885000 -0.055414 0
10.890000 0.164772 0
10.895000 0.460102 0
10.900000 0.782833 0
10.905000 1.051739 0
10.910000 1.179795 3
10.915000 1.117591 0
10.920000 0.883412 0
10.925000 0.552181 0
10.930000 0.213753 0
10.935000 -0.064373 0
10.940000 -0.249322 0
10.945000 -0.336500 0
10.950000 -0.340401 4
10.955000 -0.287954 0
10.960000 -0.210685 0
10.965000 -0.134898 0
10.970000 -0.074811 0
10.975000 -0.032572 0
10.980000 -0.003373 0
10.985000 0.019005 0
10.990000 0.039188 0
10.995000 0.059701 0
11.000000 0.081600 0
11.005000 0.105173 0
11.010000 0.130364 0
11.015000 0.156958 0
11.020000 0.184640 0
11.025000 0.213016 0
11.030000 0.241626 0
11.035000 0.269949 0
11.040000 0.297423 0
11.045000 0.323458 0
11.050000 0.347459 0
11.055000 0.368845 0
11.060000 0.387075 0
11.065000 0.401665 0
11.070000 0.412217 0
11.075000 0.418427 0
11.080000 0.420108 5
11.085000 0.417190 0
11.090000 0.409731 0
11.095000 0.397911 0
11.100000 0.382023 0
11.105000 0.362465 0
11.110000 0.339720 0
11.115000 0.314333 0
11.120000 0.286897 0
11.125000 0.258020 0
11.130000 0.228312 0
11.135000 0.198355 0
11.140000 0.168694 0
11.145000 0.139812 0
11.150000 0.112128 0
11.155000 0.085984 0
11.160000 0.061643 0
11.165000 0.039293 0
11.170000 0.019045 0
11.175000 0.000942 0
11.180000 -0.015030 0
11.185000 -0.028937 0
11.190000 -0.040885 0
11.195000 -0.051009 0
11.200000 -0.059465 0
11.205000 -0.066420 0
11.210000 -0.072045 0
11.215000 -0.076509 0
11.220000 -0.079974 0
11.225000 -0.082590 0
11.230000 -0.084495 0
11.235000 -0.085811 0
11.240000 -0.086646 0
11.245000 -0.087094 0
11.250000 -0.087232 0
11.255000 -0.086514 0
11.260000 -0.085654 0
11.265000 -0.084799 0
11.270000 -0.083948 0
11.275000 -0.083101 0
11.280000 -0.082258 0
11.285000 -0.081420 0
11.290000 -0.080586 0
11.295000 -0.079756 0
11.300000 -0.078929 0
11.305000 -0.078107 0
11.310000 -0.077287 0
11.315000 -0.076470 0
11.320000 -0.075653 0
11.325000 -0.074834 0
11.330000 -0.074006 0
11.335000 -0.073162 0
11.340000 -0.072286 0
11.345000 -0.071353 0
11.350000 -0.070326 0
11.355000 -0.069147 0
11.360000 -0.067732 0
11.365000 -0.065960 0
11.370000 -0.063670 0
11.375000 -0.060645 0
11.380000 -0.056614 0
11.385000 -0.051247 0
11.390000 -0.044169 0
11.395000 -0.034975 0
11.400000 -0.023267 0
11.405000 -0.008694 0
11.410000 0.008987 0
11.415000 0.029846 0
11.420000 0.053724 0
11.425000 0.080182 0
11.430000 0.108473 0
11.435000 0.137547 0
11.440000 0.166102 0
11.445000 0.192663 0
11.450000 0.215709 0
11.455000 0.233810 0
11.460000 0.245773 0
11.465000 0.250774 1
11.470000 0.248450 0
11.475000 0.238940 0
11.480000 0.222875 0
11.485000 0.201303 0
11.490000 0.175581 0
11.495000 0.147227 0
11.500000 0.117771 0
11.505000 0.088595 0
11.510000 0.060748 0
11.515000 0.034686 0
11.520000 0.009851 0
11.525000 -0.015809 0
11.530000 -0.045929 0
11.535000 -0.084509 0
11.540000 -0.132800 0
11.545000 -0.185196 0
11.550000 -0.226881 0
11.555000 -0.235570 2
11.560000 -0.186667 0
11.565000 -0.059257 0
11.570000 0.156838 0
11.575000 0.449739 0
11.580000 0.772687 0
11.585000 1.044393 0
11.590000 1.176411 3
11.595000 1.118752 0
11.600000 0.888494 0
11.605000 0.558923 0
11.610000 0.219381 0
11.615000 -0.062016 0
11.620000 -0.251348 0
11.625000 -0.343036 0
11.630000 -0.350704 4
11.635000 -0.300574 0
11.640000 -0.223921 0
11.645000 -0.147409 0
11.650000 -0.085998 0
11.655000 -0.042518 0
11.660000 -0.012497 0
11.665000 0.010272 0
11.670000 0.030552 0
11.675000 0.051008 0
11.680000 0.072788 0
11.685000 0.096226 0
11.690000 0.121290 0
11.695000 0.147778 0
11.700000 0.175387 0
11.705000 0.203735 0
11.710000 0.232372 0
11.715000 0.260789 0
11.720000 0.288434 0
11.725000 0.314722 0
11.730000 0.339064 0
11.735000 0.360880 0
11.740000 0.379626 0
11.745000 0.394815 0
11.750000 0.406036 0
11.755000 0.412974 0
11.760000 0.415423 5
11.765000 0.413296 0
11.770000 0.406628 0
11.775000 0.395577 0
11.780000 0.380417 0
11.785000 0.361523 0
11.790000 0.339360 0
11.795000 0.314461 0
11.800000 0.287404 0
11.805000 0.258793 0
11.810000 0.229232 0
11.815000 0.199308 0
11.820000 0.169567 0
11.825000 0.140505 0
11.830000 0.112551 0
11.835000 0.086061 0
11.840000 0.061316 0
11.845000 0.038515 0
11.850000 0.017789 0
11.855000 -0.000806 0
11.860000 -0.017269 0
11.865000 -0.031657 0
11.870000 -0.044063 0
11.875000 -0.054616 0
11.880000 -0.063465 0
11.885000 -0.070775 0
11.890000 -0.076715 0
11.895000 -0.081453 0
11.900000 -0.085152 0
11.905000 -0.087965 0
11.910000 -0.090032 0
11.915000 -0.091478 0
11.920000 -0.092417 0
11.925000 -0.092942 0
11.930000 -0.093138 0
11.935000 -0.092954 0
11.940000 -0.092062 0
11.945000 -0.091175 0
11.950000 -0.090292 0
11.955000 -0.089413 0
11.960000 -0.088539 0
11.965000 -0.087669 0
11.970000 -0.086804 0
11.975000 -0.085943 0
11.980000 -0.085086 0
11.985000 -0.084233 0
11.990000 -0.083383 0
11.995000 -0.082536 0
12.000000 -0.081691 0
12.005000 -0.080844 0
12.010000 -0.079992 0
12.015000 -0.079128 0
12.020000 -0.078238 0
12.025000 -0.077302 0
12.030000 -0.076290 0
12.035000 -0.075152 0
12.040000 -0.073815 0
12.045000 -0.072177 0
12.050000 -0.070094 0
12.055000 -0.067374 0
12.060000 -0.063771 0
12.065000 -0.058982 0
12.070000 -0.052652 0
12.075000 -0.044388 0
12.080000 -0.033789 0
12.085000 -0.020479 0
12.090000 -0.004165 0
12.095000 0.015308 0
12.100000 0.037890 0
12.105000 0.063276 0
12.110000 0.090863 0
12.115000 0.119745 0
12.120000 0.148739 0
12.125000 0.176449 0
12.130000 0.201371 0
12.135000 0.222027 0
12.140000 0.237102 0
12.145000 0.245590 0
12.150000 0.246899 1
12.155000 0.240920 0
12.160000 0.228044 0
12.165000 0.209113 0
12.170000 0.185336 0
12.175000 0.158156 0
12.180000 0.129103 0
12.185000 0.099644 0
12.190000 0.071017 0
12.195000 0.044025 0
12.200000 0.018707 0
12.205000 -0.006127 0
12.210000 -0.033283 0
12.215000 -0.066792 0
12.220000 -0.109877 0
12.225000 -0.161200 0
12.230000 -0.211213 0
12.235000 -0.241485 2
12.240000 -0.228184 0
12.245000 -0.147765 0
12.250000 0.016998 0
12.255000 0.268589 0
12.260000 0.581944 0
12.265000 0.895026 0
12.270000 1.119431 0
12.275000 1.177343 3
12.280000 1.043383 0
12.285000 0.761127 0
12.290000 0.417097 0
12.295000 0.096092 0
12.300000 -0.147559 0
12.305000 -0.293182 0
12.310000 -0.344670 4
12.315000 -0.322325 0
12.320000 -0.256175 0
12.325000 -0.176947 0
12.330000 -0.106619 0
12.335000 -0.054144 0
12.340000 -0.018063 0
12.345000 0.007596 0
12.350000 0.028617 0
12.355000 0.048730 0
12.360000 0.069754 0
12.365000 0.092352 0
12.370000 0.116632 0
12.375000 0.142457 0
12.380000 0.169562 0
12.385000 0.197596 0
12.390000 0.226132 0
12.395000 0.254680 0
12.400000 0.282695 0
12.405000 0.309600 0
12.410000 0.334794 0
12.415000 0.357684 0
12.420000 0.377701 0
12.425000 0.394325 0
12.430000 0.407106 0
12.435000 0.415685 0
12.440000 0.419810 5
12.445000 0.419347 0
12.450000 0.414285 0
12.455000 0.404740 0
12.460000 0.390948 0
12.465000 0.373255 0
12.470000 0.352105 0
12.475000 0.328014 0
12.480000 0.301558 0
12.485000 0.273343 0
12.490000 0.243982 0
12.495000 0.214079 0
12.500000 0.184201 0
12.505000 0.154867 0
12.510000 0.126532 0
12.515000 0.099579 0
12.520000 0.074313 0
12.525000 0.050958 0
12.530000 0.029665 0
12.535000 0.010509 0
12.540000 -0.006497 0
12.545000 -0.021396 0
12.550000 -0.034275 0
12.555000 -0.045258 0
12.560000 -0.054492 0
12.565000 -0.062141 0
12.570000 -0.068376 0
12.575000 -0.073368 0
12.580000 -0.077284 0
12.585000 -0.080281 0
12.590000 -0.082503 0
12.595000 -0.084080 0
12.600000 -0.085127 0
12.605000 -0.085746 0
12.610000 -0.086020 0
12.615000 -0.085899 0
12.620000 -0.085042 0
12.625000 -0.084190 0
12.630000 -0.083342 0
12.635000 -0.082498 0
12.640000 -0.081659 0
12.645000 -0.080823 0
12.650000 -0.079992 0
12.655000 -0.079165 0
12.660000 -0.078341 0
12.665000 -0.077522 0
12.670000 -0.076706 0
12.675000 -0.075892 0
12.680000 -0.075080 0
12.685000 -0.074267 0
12.690000 -0.073448 0
12.695000 -0.072617 0
12.700000 -0.071760 0
12.705000 -0.070858 0
12.710000 -0.069879 0
12.715000 -0.068773 0
12.720000 -0.067467 0
12.725000 -0.065856 0
12.730000 -0.063794 0
12.735000 -0.061086 0
12.740000 -0.057481 0
12.745000 -0.052669 0
12.750000 -0.046290 0
12.755000 -0.037944 0
12.760000 -0.027224 0
12.765000 -0.013752 0
12.770000 0.002760 0
12.775000 0.022458 0
12.780000 0.045271 0
12.785000 0.070866 0
12.790000 0.098602 0
12.795000 0.127533 0
12.800000 0.156432 0
12.805000 0.183865 0
12.810000 0.208304 0
12.815000 0.228264 0
12.820000 0.242447 0
12.825000 0.249885 0
12.830000 0.250048 1
12.835000 0.242903 0
12.840000 0.228923 0
12.845000 0.209033 0
12.850000 0.184510 0
12.855000 0.156841 0
12.860000 0.127579 0
12.865000 0.098177 0
12.870000 0.069821 0
12.875000 0.043196 0
12.880000 0.018116 0
12.885000 -0.006969 0
12.890000 -0.035268 0
12.895000 -0.070932 0
12.900000 -0.116490 0
12.905000 -0.168787 0
12.910000 -0.215730 0
12.915000 -0.236722 2
12.920000 -0.207104 0
12.925000 -0.104144 0
12.930000 0.086445 0
12.935000 0.360521 0
12.940000 0.681973 0
12.945000 0.977389 0
12.950000 1.155624 3
12.955000 1.151012 0
12.960000 0.961515 0
12.965000 0.649249 0
12.970000 0.304501 0
12.975000 0.003893 0
12.980000 -0.209686 0
12.985000 -0.324441 0
12.990000 -0.350099 4
12.995000 -0.310694 0
13.000000 -0.237453 0
13.005000 -0.159173 0
13.010000 -0.093889 0
13.015000 -0.046832 0
13.020000 -0.014550 0
13.025000 0.009221 0
13.030000 0.029705 0
13.035000 0.049988 0
13.040000 0.071463 0
13.045000 0.094579 0
13.050000 0.119352 0
13.055000 0.145600 0
13.060000 0.173034 0
13.065000 0.201279 0
13.070000 0.229893 0
13.075000 0.258369 0
13.080000 0.286155 0
13.085000 0.312665 0
13.090000 0.337303 0
13.095000 0.359481 0
13.100000 0.378642 0
13.105000 0.394287 0
13.110000 0.405990 0
13.115000 0.413419 0
13.120000 0.416355 5
13.125000 0.414696 0
13.130000 0.408464 0
13.135000 0.397807 0
13.140000 0.382990 0
13.145000 0.364385 0
13.150000 0.342454 0
13.155000 0.317730 0
13.160000 0.290794 0
13.165000 0.262255 0
13.170000 0.232725 0
13.175000 0.202796 0
13.180000 0.173025 0
13.185000 0.143913 0
13.190000 0.115898 0
13.195000 0.089343 0
13.200000 0.064531 0
13.205000 0.041670 0
13.210000 0.020891 0
13.215000 0.002253 0
13.220000 -0.014243 0
13.225000 -0.028653 0
13.230000 -0.041071 0
13.235000 -0.051628 0
13.240000 -0.060475 0
13.245000 -0.067777 0
13.250000 -0.073706 0
13.255000 -0.078430 0
13.260000 -0.082115 0
13.265000 -0.084914 0
13.270000 -0.086969 0
13.275000 -0.088405 0
13.280000 -0.089336 0
13.285000 -0.089857 0
13.290000 -0.090051 0
13.295000 -0.089328 0
13.300000 -0.088454 0
13.305000 -0.087585 0
13.310000 -0.086720 0
13.315000 -0.085860 0
13.320000 -0.085003 0
13.325000 -0.084151 0
13.330000 -0.083303 0
13.335000 -0.082459 0
13.340000 -0.081620 0
13.345000 -0.080784 0
13.350000 -0.079951 0
13.355000 -0.079121 0
13.360000 -0.078292 0
13.365000 -0.077462 0
13.370000 -0.076625 0
13.375000 -0.075774 0
13.380000 -0.074894 0
13.385000 -0.073966 0
13.390000 -0.072952 0
13.395000 -0.071803 0
13.400000 -0.070439 0
13.405000 -0.068750 0
13.410000 -0.066583 0
13.415000 -0.063734 0
13.420000 -0.059946 0
13.425000 -0.054899 0
13.430000 -0.048229 0
13.435000 -0.039532 0
13.440000 -0.028406 0
13.445000 -0.014484 0
13.450000 0.002506 0
13.455000 0.022680 0
13.460000 0.045933 0
13.465000 0.071890 0
13.470000 0.099871 0
13.475000 0.128889 0
13.480000 0.157689 0
13.485000 0.184823 0
13.490000 0.208765 0
13.495000 0.228051 0
13.500000 0.241424 0
13.505000 0.247969 1
13.510000 0.247220 0
13.515000 0.239208 0
13.520000 0.224464 0
13.525000 0.203959 0
13.530000 0.178996 0
13.535000 0.151075 0
13.540000 0.121738 0
13.545000 0.092414 0
13.550000 0.064241 0
13.555000 0.037826 0
13.560000 0.012862 0
13.565000 -0.012369 0
13.570000 -0.041224 0
13.575000 -0.077827 0
13.580000 -0.124318 0
13.585000 -0.176768 0
13.590000 -0.222203 0
13.595000 -0.239465 2
13.600000 -0.203906 0
13.605000 -0.093359 0
13.610000 0.105238 0
13.615000 0.385469 0
13.620000 0.708056 0
13.625000 0.997136 0
13.630000 1.162167 3
13.635000 1.142246 0
13.640000 0.940872 0
13.645000 0.623268 0
13.650000 0.279412 0
13.655000 -0.016518 0
13.660000 -0.224146 0
13.665000 -0.333331 0
13.670000 -0.354725 4
13.675000 -0.312797 0
13.680000 -0.238695 0
13.685000 -0.160676 0
13.690000 -0.096084 0
13.695000 -0.049653 0
13.700000 -0.017745 0
13.705000 0.005878 0
13.710000 0.026344 0
13.715000 0.046663 0
13.720000 0.068188 0
13.725000 0.091351 0
13.730000 0.116163 0
13.735000 0.142443 0
13.740000 0.169900 0
13.745000 0.198164 0
13.750000 0.226793 0
13.755000 0.255286 0
13.760000 0.283093 0
13.765000 0.309633 0
13.770000 0.334313 0
13.775000 0.356549 0
13.780000 0.375789 0
13.785000 0.391533 0
13.790000 0.403358 0
13.795000 0.410932 0
13.800000 0.414032 5
13.805000 0.412553 0
13.810000 0.406514 0
13.815000 0.396056 0
13.820000 0.381439 0
13.825000 0.363026 0
13.830000 0.341272 0
13.835000 0.316704 0
13.840000 0.289897 0
13.845000 0.261455 0
13.850000 0.231986 0
13.855000 0.202081 0
13.860000 0.172294 0
13.865000 0.143130 0
13.870000 0.115028 0
13.875000 0.088354 0
13.880000 0.063397 0
13.885000 0.040369 0
13.890000 0.019407 0
13.895000 0.000577 0
13.900000 -0.016116 0
13.905000 -0.030722 0
13.910000 -0.043331 0
13.915000 -0.054069 0
13.920000 -0.063085 0
13.925000 -0.070542 0
13.930000 -0.076610 0
13.935000 -0.081457 0
13.940000 -0.085248 0
13.945000 -0.088137 0
13.950000 -0.090266 0
13.955000 -0.091763 0
13.960000 -0.092741 0
13.965000 -0.093298 0
13.970000 -0.093518 0
13.975000 -0.093349 0
13.980000 -0.092455 0
13.985000 -0.091566 0
13.990000 -0.090681 0
13.995000 -0.089801 0
14.000000 -0.088924 0
14.005000 -0.088053 0
14.010000 -0.087185 0
14.015000 -0.086322 0
14.020000 -0.085463 0
14.025000 -0.084608 0
14.030000 -0.083757 0
14.035000 -0.082908 0
14.040000 -0.082061 0
14.045000 -0.081213 0
14.050000 -0.080360 0
14.055000 -0.079495 0
14.060000 -0.078606 0
14.065000 -0.077672 0
14.070000 -0.076663 0
14.075000 -0.075532 0
14.080000 -0.074206 0
14.085000 -0.072585 0
14.090000 -0.070526 0
14.095000 -0.067840 0
14.100000 -0.064282 0
14.105000 -0.059551 0
14.110000 -0.053293 0
14.115000 -0.045116 0
14.120000 -0.034615 0
14.125000 -0.021412 0
14.130000 -0.005208 0
14.135000 0.014156 0
14.140000 0.036641 0
14.145000 0.061948 0
14.150000 0.089483 0
14.155000 0.118346 0
14.160000 0.147358 0
14.165000 0.175121 0
14.170000 0.200130 0
14.175000 0.220898 0
14.180000 0.236102 0
14.185000 0.244725 0
14.190000 0.246164 1
14.195000 0.240301 0
14.200000 0.227520 0
14.205000 0.208662 0
14.210000 0.184934 0
14.215000 0.157781 0
14.220000 0.128740 0
14.225000 0.099282 0
14.230000 0.070652 0
14.235000 0.043657 0
14.240000 0.018340 0
14.245000 -0.006494 0
14.250000 -0.033657 0
14.255000 -0.067195 0
14.260000 -0.110330 0
14.265000 -0.161684 0
14.270000 -0.211618 0
14.275000 -0.241575 2
14.280000 -0.227626 0
14.285000 -0.146189 0
14.290000 0.019885 0
14.295000 0.272777 0
14.300000 0.586780 0
14.305000 0.899013 0
14.310000 1.120587 0
14.315000 1.174182 3
14.320000 1.036581 0
14.325000 0.752606 0
14.330000 0.408393 0
14.335000 0.087801 0
14.340000 -0.155565 0
14.345000 -0.301304 0
14.350000 -0.353255 4
14.355000 -0.331473 0
14.360000 -0.265679 0
14.365000 -0.186407 0
14.370000 -0.115678 0
14.375000 -0.062656 0
14.380000 -0.026101 0
14.385000 -0.000140 0
14.390000 0.021015 0
14.395000 0.041150 0
14.400000 0.062139 0
14.405000 0.084679 0
14.410000 0.108895 0
14.415000 0.134660 0
14.420000 0.161720 0
14.425000 0.189730 0
14.430000 0.218274 0
14.435000 0.246868 0
14.440000 0.274978 0
14.445000 0.302031 0
14.450000 0.327436 0
14.455000 0.350601 0
14.460000 0.370959 0
14.465000 0.387989 0
14.470000 0.401238 0
14.475000 0.410337 0
14.480000 0.415026 0
14.485000 0.415154 5
14.490000 0.410699 0
14.495000 0.401758 0
14.500000 0.388550 0
14.505000 0.371405 0
14.510000 0.350749 0
14.515000 0.327087 0
14.520000 0.300980 0
14.525000 0.273026 0
14.530000 0.243835 0
14.535000 0.214006 0
14.540000 0.184111 0
14.545000 0.154673 0
14.550000 0.126155 0
14.555000 0.098949 0
14.560000 0.073373 0
14.565000 0.049663 0
14.570000 0.027983 0
14.575000 0.008422 0
14.580000 -0.008996 0
14.585000 -0.024303 0
14.590000 -0.037578 0
14.595000 -0.048934 0
14.600000 -0.058516 0
14.605000 -0.066482 0
14.610000 -0.073000 0
14.615000 -0.078241 0
14.620000 -0.082372 0
14.625000 -0.085550 0
14.630000 -0.087923 0
14.635000 -0.089623 0
14.640000 -0.090767 0
14.645000 -0.091460 0
14.650000 -0.091790 0
14.655000 -0.091697 0
14.660000 -0.090812 0
14.665000 -0.089931 0
14.670000 -0.089054 0
14.675000 -0.088182 0
14.680000 -0.087314 0
14.685000 -0.086450 0
14.690000 -0.085591 0
14.695000 -0.084736 0
14.700000 -0.083885 0
14.705000 -0.083038 0
14.710000 -0.082194 0
14.715000 -0.081354 0
14.720000 -0.080516 0
14.725000 -0.079677 0
14.730000 -0.078836 0
14.735000 -0.077984 0
14.740000 -0.077113 0
14.745000 -0.076204 0
14.750000 -0.075232 0
14.755000 -0.074153 0
14.760000 -0.072906 0
14.765000 -0.071397 0
14.770000 -0.069498 0
14.775000 -0.067036 0
14.780000 -0.063781 0
14.785000 -0.059450 0
14.790000 -0.053702 0
14.795000 -0.046156 0
14.800000 -0.036405 0
14.805000 -0.024058 0
14.810000 -0.008786 0
14.815000 0.009620 0
14.820000 0.031185 0
14.825000 0.055694 0
14.830000 0.082641 0
14.835000 0.111216 0
14.840000 0.140313 0
14.845000 0.168590 0
14.850000 0.194557 0
14.855000 0.216705 0
14.860000 0.233646 0
14.865000 0.244259 0
14.870000 0.247809 1
14.875000 0.244034 0
14.880000 0.233174 0
14.885000 0.215947 0
14.890000 0.193469 0
14.895000 0.167134 0
14.900000 0.138469 0
14.905000 0.108983 0
14.910000 0.080006 0
14.915000 0.052496 0
14.920000 0.026756 0
14.925000 0.001991 0
14.930000 -0.024150 0
14.935000 -0.055495 0
14.940000 -0.095824 0
14.945000 -0.145468 0
14.950000 -0.197313 0
14.955000 -0.235060 0
14.960000 -0.235692 2
14.965000 -0.174904 0
14.970000 -0.033076 0
14.975000 0.197215 0
14.980000 0.499206 0
14.985000 0.820103 0
14.990000 1.075190 0
14.995000 1.179254 3
15.000000 1.092792 0
15.005000 0.843067 0
15.010000 0.507144 0
15.015000 0.171801 0
15.020000 -0.100022 0
15.025000 -0.278718 0
15.030000 -0.361227 0
15.035000 -0.362433 4
15.040000 -0.308911 0
15.045000 -0.231406 0
15.050000 -0.155471 0
15.055000 -0.094995 0
15.060000 -0.052205 0
15.065000 -0.022508 0
15.070000 0.000186 0
15.075000 0.020500 0
15.080000 0.041018 0
15.085000 0.062850 0
15.090000 0.086325 0
15.095000 0.111413 0
15.100000 0.137915 0
15.105000 0.165538 0
15.110000 0.193907 0
15.115000 0.222583 0
15.120000 0.251070 0
15.125000 0.278824 0
15.130000 0.305276 0
15.135000 0.329844 0
15.140000 0.351958 0
15.145000 0.371079 0
15.150000 0.386721 0
15.155000 0.398472 0
15.160000 0.406010 0
15.165000 0.409118 5
15.170000 0.407695 0
15.175000 0.401757 0
15.180000 0.391442 0
15.185000 0.377001 0
15.190000 0.358786 0
15.195000 0.337240 0
15.200000 0.312875 0
15.205000 0.286252 0
15.210000 0.257961 0
15.215000 0.228599 0
15.220000 0.198746 0
15.225000 0.168952 0
15.230000 0.139716 0
15.235000 0.111477 0
15.240000 0.084604 0
15.245000 0.059392 0
15.250000 0.036062 0
15.255000 0.014758 0
15.260000 -0.004443 0
15.265000 -0.021524 0
15.270000 -0.036524 0
15.275000 -0.049526 0
15.280000 -0.060645 0
15.285000 -0.070022 0
15.290000 -0.077814 0
15.295000 -0.084188 0
15.300000 -0.089308 0
15.305000 -0.093339 0
15.310000 -0.096434 0
15.315000 -0.098736 0
15.320000 -0.100375 0
15.325000 -0.101466 0
15.330000 -0.102111 0
15.335000 -0.102394 0
15.340000 -0.102255 0
15.345000 -0.101317 0
15.350000 -0.100384 0
15.355000 -0.099455 0
15.360000 -0.098531 0
15.365000 -0.097611 0
15.370000 -0.096696 0
15.375000 -0.095786 0
15.380000 -0.094880 0
15.385000 -0.093978 0
15.390000 -0.093081 0
15.395000 -0.092188 0
15.400000 -0.091298 0
15.405000 -0.090410 0
15.410000 -0.089524 0
15.415000 -0.088635 0
15.420000 -0.087738 0
15.425000 -0.086825 0
15.430000 -0.085879 0
15.435000 -0.084879 0
15.440000 -0.083786 0
15.445000 -0.082544 0
15.450000 -0.081073 0
15.455000 -0.079257 0
15.460000 -0.076940 0
15.465000 -0.073915 0
15.470000 -0.069921 0
15.475000 -0.064643 0
15.480000 -0.057719 0
15.485000 -0.048756 0
15.490000 -0.037363 0
15.495000 -0.023189 0
15.500000 -0.005978 0
15.505000 0.014373 0
15.510000 0.037752 0
15.515000 0.063786 0
15.520000 0.091809 0
15.525000 0.120861 0
15.530000 0.149723 0
15.535000 0.176990 0
15.540000 0.201178 0
15.545000 0.220855 0
15.550000 0.234780 0
15.555000 0.242033 0
15.560000 0.242114 1
15.565000 0.235001 0
15.570000 0.221154 0
15.575000 0.201463 0
15.580000 0.177159 0
15.585000 0.149680 0
15.590000 0.120530 0
15.595000 0.091133 0
15.600000 0.062671 0
15.605000 0.035875 0
15.610000 0.010694 0
15.615000 -0.014163 0
15.620000 -0.041570 0
15.625000 -0.075526 0
15.630000 -0.119058 0
15.635000 -0.170542 0
15.640000 -0.220240 0
15.645000 -0.249802 2
15.650000 -0.235744 0
15.655000 -0.154965 0
15.660000 0.009436 0
15.665000 0.260011 0
15.670000 0.572597 0
15.675000 0.886999 0
15.680000 1.116639 0
15.685000 1.183684 3
15.690000 1.059727 0
15.695000 0.784287 0
15.700000 0.441492 0
15.705000 0.116387 0
15.710000 -0.134780 0
15.715000 -0.289200 0
15.720000 -0.348956 4
15.725000 -0.332822 0
15.730000 -0.269825 0
15.735000 -0.190714 0
15.740000 -0.118533 0
15.745000 -0.063658 0
15.750000 -0.025655 0
15.755000 0.001109 0
15.760000 0.022543 0
15.765000 0.042651 0
15.770000 0.063474 0
15.775000 0.085802 0
15.780000 0.109804 0
15.785000 0.135376 0
15.790000 0.162274 0
15.795000 0.190168 0
15.800000 0.218648 0
15.805000 0.247245 0
15.810000 0.275430 0
15.815000 0.302639 0
15.820000 0.328283 0
15.825000 0.351772 0
15.830000 0.372539 0
15.835000 0.390055 0
15.840000 0.403859 0
15.845000 0.413572 0
15.850000 0.418915 0
15.855000 0.419725 5
15.860000 0.415957 0
15.865000 0.407690 0
15.870000 0.395124 0
15.875000 0.378571 0
15.880000 0.358440 0
15.885000 0.335221 0
15.890000 0.309467 0
15.895000 0.281768 0
15.900000 0.252730 0
15.905000 0.222953 0
15.910000 0.193012 0
15.915000 0.163437 0
15.920000 0.134701 0
15.925000 0.107209 0
15.930000 0.081289 0
15.935000 0.057193 0
15.940000 0.035097 0
15.945000 0.015103 0
15.950000 -0.002752 0
15.955000 -0.018490 0
15.960000 -0.032182 0
15.965000 -0.043934 0
15.970000 -0.053884 0
15.975000 -0.062188 0
15.980000 -0.069011 0
15.985000 -0.074525 0
15.990000 -0.078895 0
15.995000 -0.082282 0
16.000000 -0.084834 0
16.005000 -0.086686 0
16.010000 -0.087960 0
16.015000 -0.088760 0
16.020000 -0.089179 0
16.025000 -0.089294 0
16.030000 -0.088564 0
16.035000 -0.087694 0
16.040000 -0.086828 0
16.045000 -0.085967 0
16.050000 -0.085110 0
16.055000 -0.084258 0
16.060000 -0.083409 0
16.065000 -0.082565 0
16.070000 -0.081725 0
16.075000 -0.080889 0
16.080000 -0.080056 0
16.085000 -0.079227 0
16.090000 -0.078400 0
16.095000 -0.077574 0
16.100000 -0.076745 0
16.105000 -0.075909 0
16.110000 -0.075056 0
16.115000 -0.074171 0
16.120000 -0.073231 0
16.125000 -0.072199 0
16.130000 -0.071018 0
16.135000 -0.069606 0
16.140000 -0.067846 0
16.145000 -0.065579 0
16.150000 -0.062593 0
16.155000 -0.058621 0
16.160000 -0.053343 0
16.165000 -0.046386 0
16.170000 -0.037351 0
16.175000 -0.025840 0
16.180000 -0.011501 0
16.185000 0.005917 0
16.190000 0.026503 0
16.195000 0.050121 0
16.200000 0.076362 0
16.205000 0.104515 0
16.210000 0.133569 0
16.215000 0.162255 0
16.220000 0.189124 0
16.225000 0.212667 0
16.230000 0.231445 0
16.235000 0.244240 0
16.240000 0.250184 1
16.245000 0.248851 0
16.250000 0.240315 0
16.255000 0.225133 0
16.260000 0.204296 0
16.265000 0.179109 0
16.270000 0.151065 0
16.275000 0.121690 0
16.280000 0.092389 0
16.285000 0.064271 0
16.290000 0.037913 0
16.295000 0.012970 0
16.300000 -0.012305 0
16.305000 -0.041272 0
16.310000 -0.078009 0
16.315000 -0.124589 0
16.320000 -0.177049 0
16.325000 -0.222500 0
16.330000 -0.239989 2
16.335000 -0.205104 0
16.340000 -0.095835 0
16.345000 0.100965 0
16.350000 0.379479 0
16.355000 0.701755 0
16.360000 0.993564 0
16.365000 1.165032 3
16.370000 1.153291 0
16.375000 0.958676 0
16.380000 0.644259 0
16.385000 0.299735 0
16.390000 0.000450 0
16.395000 -0.211725 0
16.400000 -0.325484 0
16.405000 -0.350656 4
16.410000 -0.311148 0
16.415000 -0.237940 0
16.420000 -0.159613 0
16.425000 -0.094138 0
16.430000 -0.046820 0
16.435000 -0.014316 0
16.440000 0.009581 0
16.445000 0.030100 0
16.450000 0.050355 0
16.455000 0.071769 0
16.460000 0.094811 0
16.465000 0.119506 0
16.470000 0.145681 0
16.475000 0.173052 0
16.480000 0.201254 0
16.485000 0.229851 0
16.490000 0.258344 0
16.495000 0.286187 0
16.500000 0.312803 0
16.505000 0.337599 0
16.510000 0.359992 0
16.515000 0.379426 0
16.520000 0.395399 0
16.525000 0.407483 0
16.530000 0.415339 0
16.535000 0.418737 5
16.540000 0.417564 0
16.545000 0.411829 0
16.550000 0.401666 0
16.555000 0.387323 0
16.560000 0.369158 0
16.565000 0.347618 0
16.570000 0.323224 0
16.575000 0.296547 0
16.580000 0.268190 0
16.585000 0.238759 0
16.590000 0.208845 0
16.595000 0.179008 0
16.600000 0.149754 0
16.605000 0.121527 0
16.610000 0.094699 0
16.615000 0.069567 0
16.620000 0.046347 0
16.625000 0.025182 0
16.630000 0.006144 0
16.635000 -0.010757 0
16.640000 -0.025565 0
16.645000 -0.038369 0
16.650000 -0.049291 0
16.655000 -0.058478 0
16.660000 -0.066092 0
16.665000 -0.072301 0
16.670000 -0.077275 0
16.675000 -0.081179 0
16.680000 -0.084167 0
16.685000 -0.086383 0
16.690000 -0.087955 0
16.695000 -0.088998 0
16.700000 -0.089612 0
16.705000 -0.089881 0
16.710000 -0.089750 0
16.715000 -0.088874 0
16.720000 -0.088003 0
16.725000 -0.087136 0
16.730000 -0.086273 0
16.735000 -0.085414 0
16.740000 -0.084560 0
16.745000 -0.083710 0
16.750000 -0.082865 0
16.755000 -0.082023 0
16.760000 -0.081185 0
16.765000 -0.080351 0
16.770000 -0.079519 0
16.775000 -0.078690 0
16.780000 -0.077859 0
16.785000 -0.077024 0
16.790000 -0.076178 0
16.795000 -0.075309 0
16.800000 -0.074399 0
16.805000 -0.073419 0
16.810000 -0.072322 0
16.815000 -0.071041 0
16.820000 -0.069479 0
16.825000 -0.067499 0
16.830000 -0.064918 0
16.835000 -0.061499 0
16.840000 -0.056949 0
16.845000 -0.050919 0
16.850000 -0.043022 0
16.855000 -0.032854 0
16.860000 -0.020031 0
16.865000 -0.004243 0
16.870000 0.014694 0
16.875000 0.036767 0
16.880000 0.061714 0
16.885000 0.088984 0
16.890000 0.117717 0
16.895000 0.146769 0
16.900000 0.174771 0
16.905000 0.200227 0
16.910000 0.221640 0
16.915000 0.237661 0
16.920000 0.247223 0
16.925000 0.249664 1
16.930000 0.244795 0
16.935000 0.232931 0
16.940000 0.214852 0
16.945000 0.191718 0
16.950000 0.164948 0
16.955000 0.136070 0
16.960000 0.106573 0
16.965000 0.077743 0
16.970000 0.050467 0
16.975000 0.024926 0
16.980000 0.000144 0
16.985000 -0.026444 0
16.990000 -0.058774 0
16.995000 -0.100396 0
17.000000 -0.150902 0
17.005000 -0.202070 0
17.010000 -0.236605 2
17.015000 -0.231091 0
17.020000 -0.161547 0
17.025000 -0.009400 0
17.030000 0.230632 0
17.035000 0.538168 0
17.040000 0.856282 0
17.045000 1.098430 0
17.050000 1.182415 3
17.055000 1.073456 0
17.060000 0.806543 0
17.065000 0.465369 0
17.070000 0.137512 0
17.075000 -0.117852 0
17.080000 -0.276063 0
17.085000 -0.338436 4
17.090000 -0.323651 0
17.095000 -0.261086 0
17.100000 -0.182045 0
17.105000 -0.109996 0
17.110000 -0.055427 0
17.115000 -0.017789 0
17.120000 0.008690 0
17.125000 0.029977 0
17.130000 0.050055 0
17.135000 0.070922 0
17.140000 0.093331 0
17.145000 0.117429 0
17.150000 0.143095 0
17.155000 0.170075 0
17.160000 0.198023 0
17.165000 0.226517 0
17.170000 0.255070 0
17.175000 0.283141 0
17.180000 0.310151 0
17.185000 0.335499 0
17.190000 0.358588 0
17.195000 0.378843 0
17.200000 0.395738 0
17.205000 0.408815 0
17.210000 0.417705 0
17.215000 0.422148 5
17.220000 0.421998 0
17.225000 0.417238 0
17.230000 0.407974 0
17.235000 0.394435 0
17.240000 0.376963 0
17.245000 0.355996 0
17.250000 0.332050 0
17.255000 0.305700 0
17.260000 0.277552 0
17.265000 0.248223 0
17.270000 0.218320 0
17.275000 0.188414 0
17.280000 0.159030 0
17.285000 0.130627 0
17.290000 0.103594 0
17.295000 0.078238 0
17.300000 0.054791 0
17.305000 0.033405 0
17.310000 0.014158 0
17.315000 -0.002934 0
17.320000 -0.017912 0
17.325000 -0.030864 0
17.330000 -0.041912 0
17.335000 -0.051203 0
17.340000 -0.058903 0
17.345000 -0.065181 0
17.350000 -0.070211 0
17.355000 -0.074160 0
17.360000 -0.077185 0
17.365000 -0.079431 0
17.370000 -0.081030 0
17.375000 -0.082097 0
17.380000 -0.082733 0
17.385000 -0.083025 0
17.390000 -0.082919 0
17.395000 -0.082077 0
17.400000 -0.081240 0
17.405000 -0.080406 0
17.410000 -0.079577 0
17.415000 -0.078752 0
17.420000 -0.077931 0
17.425000 -0.077114 0
17.430000 -0.076301 0
17.435000 -0.075492 0
17.440000 -0.074687 0
17.445000 -0.073885 0
17.450000 -0.073086 0
17.455000 -0.072287 0
17.460000 -0.071488 0
17.465000 -0.070683 0
17.470000 -0.069865 0
17.475000 -0.069021 0
17.480000 -0.068130 0
17.485000 -0.067161 0
17.490000 -0.066062 0
17.495000 -0.064760 0
17.500000 -0.063148 0
17.505000 -0.061076 0
17.510000 -0.058347 0
17.515000 -0.054706 0
17.520000 -0.049841 0
17.525000 -0.043385 0
17.530000 -0.034938 0
17.535000 -0.024090 0
17.540000 -0.010467 0
17.545000 0.006216 0
17.550000 0.026093 0
17.555000 0.049080 0
17.560000 0.074822 0
17.565000 0.102659 0
17.570000 0.131619 0
17.575000 0.160453 0
17.580000 0.187712 0
17.585000 0.211860 0
17.590000 0.231414 0
17.595000 0.245093 0
17.600000 0.251954 1
17.605000 0.251504 0
17.610000 0.243753 0
17.615000 0.229216 0
17.620000 0.208856 0
17.625000 0.183978 0
17.630000 0.156090 0
17.635000 0.126746 0
17.640000 0.097389 0
17.645000 0.069173 0
17.650000 0.042718 0
17.655000 0.017725 0
17.660000 -0.007529 0
17.665000 -0.036421 0
17.670000 -0.073103 0
17.675000 -0.119707 0
17.680000 -0.172192 0
17.685000 -0.217362 0
17.690000 -0.233796 2
17.695000 -0.196654 0
17.700000 -0.083743 0
17.705000 0.117699 0
17.710000 0.400336 0
17.715000 0.723210 0
17.720000 1.008698 0
17.725000 1.165899 3
17.730000 1.134776 0
17.735000 0.922574 0
17.740000 0.599388 0
17.745000 0.257454 0
17.750000 -0.030142 0
17.755000 -0.225774 0
17.760000 -0.322112 0
17.765000 -0.332365 4
17.770000 -0.283174 0
17.775000 -0.206692 0
17.780000 -0.130384 0
17.785000 -0.069514 0
17.790000 -0.026751 0
17.795000 0.002655 0
17.800000 0.025061 0
17.805000 0.045217 0
17.810000 0.065710 0
17.815000 0.087610 0
17.820000 0.111204 0
17.825000 0.136430 0
17.830000 0.163061 0
17.835000 0.190774 0
17.840000 0.219161 0
17.845000 0.247748 0
17.850000 0.275999 0
17.855000 0.303338 0
17.860000 0.329160 0
17.865000 0.352857 0
17.870000 0.373840 0
17.875000 0.391564 0
17.880000 0.405546 0
17.885000 0.415392 0
17.890000 0.420811 0
17.895000 0.421632 5
17.900000 0.417808 0
17.905000 0.409422 0
17.910000 0.396682 0
17.915000 0.379912 0
17.920000 0.359539 0
17.925000 0.336073 0
17.930000 0.310086 0
17.935000 0.282188 0
17.940000 0.253002 0
17.945000 0.223146 0
17.950000 0.193205 0
17.955000 0.163717 0
17.960000 0.135156 0
17.965000 0.107926 0
17.970000 0.082349 0
17.975000 0.058668 0
17.980000 0.037045 0
17.985000 0.017569 0
17.990000 0.000261 0
17.995000 -0.014916 0
18.000000 -0.028045 0
18.005000 -0.039247 0
18.010000 -0.048672 0
18.015000 -0.056483 0
18.020000 -0.062854 0
18.025000 -0.067959 0
18.030000 -0.071968 0
18.035000 -0.075040 0
18.040000 -0.077324 0
18.045000 -0.078952 0
18.050000 -0.080042 0
18.055000 -0.080696 0
18.060000 -0.081002 0
18.065000 -0.080908 0
18.070000 -0.080076 0
18.075000 -0.079249 0
18.080000 -0.078425 0
18.085000 -0.077606 0
18.090000 -0.076791 0
18.095000 -0.075980 0
18.100000 -0.075172 0
18.105000 -0.074369 0
18.110000 -0.073570 0
18.115000 -0.072774 0
18.120000 -0.071982 0
18.125000 -0.071192 0
18.130000 -0.070402 0
18.135000 -0.069612 0
18.140000 -0.068815 0
18.145000 -0.068004 0
18.150000 -0.067166 0
18.155000 -0.066278 0
18.160000 -0.065307 0
18.165000 -0.064199 0
18.170000 -0.062875 0
18.175000 -0.061224 0
18.180000 -0.059089 0
18.185000 -0.056263 0
18.190000 -0.052479 0
18.195000 -0.047414 0
18.200000 -0.040691 0
18.205000 -0.031901 0
18.210000 -0.020632 0
18.215000 -0.006515 0
18.220000 0.010716 0
18.225000 0.031163 0
18.230000 0.054695 0
18.235000 0.080898 0
18.240000 0.109040 0
18.245000 0.138080 0
18.250000 0.166706 0
18.255000 0.193421 0
18.260000 0.216671 0
18.265000 0.234988 0
18.270000 0.247142 0
18.275000 0.252277 1
18.280000 0.250013 0
18.285000 0.240488 0
18.290000 0.224344 0
18.295000 0.202657 0
18.300000 0.176815 0
18.305000 0.148372 0
18.310000 0.118886 0
18.315000 0.089753 0
18.320000 0.062017 0
18.325000 0.036081 0
18.330000 0.011262 0
18.335000 -0.014700 0
18.340000 -0.045640 0
18.345000 -0.085509 0
18.350000 -0.134911 0
18.355000 -0.186893 0
18.360000 -0.224984 0
18.365000 -0.225673 2
18.370000 -0.164064 0
18.375000 -0.020165 0
18.380000 0.213164 0
18.385000 0.517541 0
18.390000 0.836981 0
18.395000 1.083555 0
18.400000 1.171889 3
18.405000 1.067603 0
18.410000 0.804856 0
18.415000 0.464975 0
18.420000 0.134660 0
18.425000 -0.126176 0
18.430000 -0.291434 0
18.435000 -0.360928 4
18.440000 -0.351869 0
18.445000 -0.292468 0
18.450000 -0.213739 0
18.455000 -0.139933 0
18.460000 -0.082873 0
18.465000 -0.043100 0
18.470000 -0.015294 0
18.475000 0.006580 0
18.480000 0.026773 0
18.485000 0.047521 0
18.490000 0.069720 0
18.495000 0.093591 0
18.500000 0.119051 0
18.505000 0.145871 0
18.510000 0.173729 0
18.515000 0.202227 0
18.520000 0.230901 0
18.525000 0.259231 0
18.530000 0.286656 0
18.535000 0.312592 0
18.540000 0.336447 0
18.545000 0.357651 0
18.550000 0.375671 0
18.555000 0.390035 0
18.560000 0.400354 0
18.565000 0.406336 0
18.570000 0.407801 5
18.575000 0.404691 0
18.580000 0.397068 0
18.585000 0.385115 0
18.590000 0.369131 0
18.595000 0.349511 0
18.600000 0.326736 0
18.605000 0.301350 0
18.610000 0.273938 0
18.615000 0.245106 0
18.620000 0.215454 0
18.625000 0.185560 0
18.630000 0.155963 0
18.635000 0.127142 0
18.640000 0.099511 0
18.645000 0.073409 0
18.650000 0.049099 0
18.655000 0.026768 0
18.660000 0.006526 0
18.665000 -0.011581 0
18.670000 -0.027566 0
18.675000 -0.041493 0
18.680000 -0.053465 0
18.685000 -0.063615 0
18.690000 -0.072096 0
18.695000 -0.079073 0
18.700000 -0.084716 0
18.705000 -0.089193 0
18.710000 -0.092664 0
18.715000 -0.095279 0
18.720000 -0.097175 0
18.725000 -0.098476 0
18.730000 -0.099290 0
18.735000 -0.099710 0
18.740000 -0.099814 0
18.745000 -0.099038 0
18.750000 -0.098116 0
18.755000 -0.097198 0
18.760000 -0.096285 0
18.765000 -0.095377 0
18.770000 -0.094473 0
18.775000 -0.093574 0
18.780000 -0.092679 0
18.785000 -0.091788 0
18.790000 -0.090902 0
18.795000 -0.090020 0
18.800000 -0.089141 0
18.805000 -0.088265 0
18.810000 -0.087390 0
18.815000 -0.086514 0
18.820000 -0.085631 0
18.825000 -0.084734 0
18.830000 -0.083808 0
18.835000 -0.082833 0
18.840000 -0.081772 0
18.845000 -0.080575 0
18.850000 -0.079163 0
18.855000 -0.077427 0
18.860000 -0.075214 0
18.865000 -0.072323 0
18.870000 -0.068499 0
18.875000 -0.063428 0
18.880000 -0.056748 0
18.885000 -0.048063 0
18.890000 -0.036972 0
18.895000 -0.023112 0
18.900000 -0.006210 0
18.905000 0.013857 0
18.910000 0.036996 0
18.915000 0.062851 0
18.920000 0.090768 0
18.925000 0.119789 0
18.930000 0.148688 0
18.935000 0.176045 0
18.940000 0.200352 0
18.945000 0.220150 0
18.950000 0.234172 0
18.955000 0.241476 0
18.960000 0.241552 1
18.965000 0.234376 0
18.970000 0.220421 0
18.975000 0.200598 0
18.980000 0.176165 0
18.985000 0.148586 0
18.990000 0.119390 0
18.995000 0.090016 0
19.000000 0.061645 0
19.005000 0.034978 0
19.010000 0.009887 0
19.015000 -0.015068 0
19.020000 -0.042950 0
19.025000 -0.077846 0
19.030000 -0.122516 0
19.035000 -0.174499 0
19.040000 -0.222758 0
19.045000 -0.247688 2
19.050000 -0.225137 0
19.055000 -0.132177 0
19.060000 0.046733 0
19.065000 0.310647 0
19.070000 0.629032 0
19.075000 0.934377 0
19.080000 1.137083 0
19.085000 1.165250 3
19.090000 1.004926 0
19.095000 0.708232 0
19.100000 0.362853 0
19.105000 0.049412 0
19.110000 -0.183020 0
19.115000 -0.317505 0
19.120000 -0.360036 4
19.125000 -0.331955 0
19.130000 -0.263366 0
19.135000 -0.184128 0
19.140000 -0.114912 0
19.145000 -0.063605 0
19.150000 -0.028274 0
19.155000 -0.002930 0
19.160000 0.018042 0
19.165000 0.038221 0
19.170000 0.059342 0
19.175000 0.082032 0
19.180000 0.106391 0
19.185000 0.132279 0
19.190000 0.159435 0
19.195000 0.187513 0
19.200000 0.216094 0
19.205000 0.244694 0
19.210000 0.272780 0
19.215000 0.299780 0
19.220000 0.325107 0
19.225000 0.348173 0
19.230000 0.368416 0
19.235000 0.385321 0
19.240000 0.398439 0
19.245000 0.407411 0
19.250000 0.411977 0
19.255000 0.411996 5
19.260000 0.407446 0
19.265000 0.398427 0
19.270000 0.385160 0
19.275000 0.367975 0
19.280000 0.347296 0
19.285000 0.323625 0
19.290000 0.297523 0
19.295000 0.269581 0
19.300000 0.240408 0
19.305000 0.210598 0
19.310000 0.180720 0
19.315000 0.151293 0
19.320000 0.122779 0
19.325000 0.095569 0
19.330000 0.069978 0
19.335000 0.046245 0
19.340000 0.024533 0
19.345000 0.004931 0
19.350000 -0.012534 0
19.355000 -0.027892 0
19.360000 -0.041220 0
19.365000 -0.052631 0
19.370000 -0.062266 0
19.375000 -0.070283 0
19.380000 -0.076848 0
19.385000 -0.082132 0
19.390000 -0.086300 0
19.395000 -0.089510 0
19.400000 -0.091908 0
19.405000 -0.093627 0
19.410000 -0.094786 0
19.415000 -0.095488 0
19.420000 -0.095822 0
19.425000 -0.095863 0
19.430000 -0.095093 0
19.435000 -0.094191 0
19.440000 -0.093293 0
19.445000 -0.092400 0
19.450000 -0.091511 0
19.455000 -0.090626 0
19.460000 -0.089746 0
19.465000 -0.088870 0
19.470000 -0.087998 0
19.475000 -0.087131 0
19.480000 -0.086267 0
19.485000 -0.085407 0
19.490000 -0.084549 0
19.495000 -0.083691 0
19.500000 -0.082830 0
19.505000 -0.081961 0
19.510000 -0.081074 0
19.515000 -0.080153 0
19.520000 -0.079172 0
19.525000 -0.078093 0
19.530000 -0.076855 0
19.535000 -0.075372 0
19.540000 -0.073523 0
19.545000 -0.071141 0
19.550000 -0.068007 0
19.555000 -0.063849 0
19.560000 -0.058337 0
19.565000 -0.051095 0
19.570000 -0.041723 0
19.575000 -0.029826 0
19.580000 -0.015063 0
19.585000 0.002799 0
19.590000 0.023822 0
19.595000 0.047838 0
19.600000 0.074400 0
19.605000 0.102759 0
19.610000 0.131869 0
19.615000 0.160434 0
19.620000 0.186993 0
19.625000 0.210040 0
19.630000 0.228159 0
19.635000 0.240170 0
19.640000 0.245256 1
19.645000 0.243053 0
19.650000 0.233693 0
19.655000 0.217793 0
19.660000 0.196383 0
19.665000 0.170800 0
19.670000 0.142545 0
19.675000 0.113135 0
19.680000 0.083948 0
19.685000 0.056044 0
19.690000 0.029915 0
19.695000 0.005079 0
19.700000 -0.020395 0
19.705000 -0.050019 0
19.710000 -0.087813 0
19.715000 -0.135373 0
19.720000 -0.187837 0
19.725000 -0.231315 0
19.730000 -0.244229 2
19.735000 -0.202181 0
19.740000 -0.083808 0
19.745000 0.122545 0
19.750000 0.408238 0
19.755000 0.731376 0
19.760000 1.014692 0
19.765000 1.169090 3
19.770000 1.138954 0
19.775000 0.931782 0
19.780000 0.612589 0
19.785000 0.268768 0
19.790000 -0.027892 0
19.795000 -0.237954 0
19.800000 -0.351001 0
19.805000 -0.376704 4
19.810000 -0.338207 0
19.815000 -0.265557 0
19.820000 -0.186795 0
19.825000 -0.120033 0
19.830000 -0.071164 0
19.835000 -0.037391 0
19.840000 -0.012733 0
19.845000 0.008092 0
19.850000 0.028361 0
19.855000 0.049640 0
19.860000 0.072485 0
19.865000 0.096971 0
19.870000 0.122956 0
19.875000 0.150184 0
19.880000 0.178314 0
19.885000 0.206938 0
19.890000 0.235586 0
19.895000 0.263740 0
19.900000 0.290844 0
19.905000 0.316326 0
19.910000 0.339615 0
19.915000 0.360160 0
19.920000 0.377455 0
19.925000 0.391056 0
19.930000 0.400602 0
19.935000 0.405830 0
19.940000 0.406583 5
19.945000 0.402822 0
19.950000 0.394627 0
19.955000 0.382192 0
19.960000 0.365818 0
19.965000 0.345900 0
19.970000 0.322914 0
19.975000 0.297392 0
19.980000 0.269907 0
19.985000 0.241048 0
19.990000 0.211400 0
19.995000 0.181526 0
20.000000 0.151946 0
20.005000 0.123131 0
20.010000 0.095482 0
20.015000 0.069334 0
20.020000 0.044944 0
20.025000 0.022497 0
20.030000 0.002108 0
20.035000 -0.016175 0
20.040000 -0.032360 0
20.045000 -0.046503 0
20.050000 -0.058702 0
20.055000 -0.069082 0
20.060000 -0.077790 0
20.065000 -0.084986 0
20.070000 -0.090835 0
20.075000 -0.095500 0
20.080000 -0.099140 0
20.085000 -0.101904 0
20.090000 -0.103928 0
20.095000 -0.105336 0
20.100000 -0.106236 0
20.105000 -0.106723 0
20.110000 -0.106878 0
20.115000 -0.106647 0
20.120000 -0.105687 0
20.125000 -0.104732 0
20.130000 -0.103781 0
20.135000 -0.102835 0
20.140000 -0.101894 0
20.145000 -0.100958 0
20.150000 -0.100026 0
20.155000 -0.099099 0
20.160000 -0.098177 0
20.165000 -0.097258 0
20.170000 -0.096344 0
20.175000 -0.095433 0
20.180000 -0.094524 0
20.185000 -0.093615 0
20.190000 -0.092704 0
20.195000 -0.091782 0
20.200000 -0.090842 0
20.205000 -0.089864 0
20.210000 -0.088825 0
20.215000 -0.087683 0
20.220000 -0.086377 0
20.225000 -0.084821 0
20.230000 -0.082892 0
20.235000 -0.080425 0
20.240000 -0.077206 0
20.245000 -0.072964 0
20.250000 -0.067378 0
20.255000 -0.060082 0
20.260000 -0.050686 0
20.265000 -0.038805 0
20.270000 -0.024106 0
20.275000 -0.006356 0
20.280000 0.014513 0
20.285000 0.038354 0
20.290000 0.064754 0
20.295000 0.093008 0
20.300000 0.122126 0
20.305000 0.150872 0
20.310000 0.177838 0
20.315000 0.201555 0
20.320000 0.220622 0
20.325000 0.233843 0
20.330000 0.240349 1
20.335000 0.239695 0
20.340000 0.231910 0
20.345000 0.217493 0
20.350000 0.197362 0
20.355000 0.172755 0
20.360000 0.145108 0
20.365000 0.115908 0
20.370000 0.086553 0
20.375000 0.058190 0
20.380000 0.031507 0
20.385000 0.006400 0
20.390000 -0.018479 0
20.395000 -0.046044 0
20.400000 -0.080264 0
20.405000 -0.124053 0
20.410000 -0.175624 0
20.415000 -0.225140 0
20.420000 -0.254315 2
20.425000 -0.239881 0
20.430000 -0.158995 0
20.435000 0.005059 0
20.440000 0.254903 0
20.445000 0.566952 0
20.450000 0.882161 0
20.455000 1.115077 0
20.460000 1.187867 3
20.465000 1.070369 0
20.470000 0.799526 0
20.475000 0.457763 0
20.480000 0.130116 0
20.485000 -0.125988 0
20.490000 -0.286331 0
20.495000 -0.351775 4
20.500000 -0.340037 0
20.505000 -0.279402 0
20.510000 -0.200551 0
20.515000 -0.127181 0
20.520000 -0.070641 0
20.525000 -0.031242 0
20.530000 -0.003640 0
20.535000 0.018133 0
20.540000 0.038266 0
20.545000 0.058962 0
20.550000 0.081104 0
20.555000 0.104911 0
20.560000 0.130301 0
20.565000 0.157048 0
20.570000 0.184834 0
20.575000 0.213265 0
20.580000 0.241882 0
20.585000 0.270172 0
20.590000 0.297577 0
20.595000 0.323520 0
20.600000 0.347414 0
20.605000 0.368692 0
20.610000 0.386823 0
20.615000 0.401335 0
20.620000 0.411839 0
20.625000 0.418038 0
20.630000 0.419749 5
20.635000 0.416902 0
20.640000 0.409553 0
20.645000 0.397875 0
20.650000 0.382155 0
20.655000 0.362777 0
20.660000 0.340213 0
20.665000 0.314996 0
20.670000 0.287705 0
20.675000 0.258938 0
20.680000 0.229293 0
20.685000 0.199346 0
20.690000 0.169637 0
20.695000 0.140648 0
20.700000 0.112798 0
20.705000 0.086434 0
20.710000 0.061825 0
20.715000 0.039165 0
20.720000 0.018576 0
20.725000 0.000111 0
20.730000 -0.016234 0
20.735000 -0.030518 0
20.740000 -0.042835 0
20.745000 -0.053315 0
20.750000 -0.062106 0
20.755000 -0.069372 0
20.760000 -0.075279 0
20.765000 -0.079995 0
20.770000 -0.083681 0
20.775000 -0.086487 0
20.780000 -0.088553 0
20.785000 -0.090003 0
20.790000 -0.090948 0
20.795000 -0.091482 0
20.800000 -0.091687 0
20.805000 -0.091512 0
20.810000 -0.090627 0
20.815000 -0.089747 0
20.820000 -0.088871 0
20.825000 -0.088000 0
20.830000 -0.087133 0
20.835000 -0.086270 0
20.840000 -0.085412 0
20.845000 -0.084557 0
20.850000 -0.083707 0
20.855000 -0.082861 0
20.860000 -0.082018 0
20.865000 -0.081178 0
20.870000 -0.080340 0
20.875000 -0.079501 0
20.880000 -0.078656 0
20.885000 -0.077800 0
20.890000 -0.076921 0
20.895000 -0.075998 0
20.900000 -0.075003 0
20.905000 -0.073888 0
20.910000 -0.072586 0
20.915000 -0.070997 0
20.920000 -0.068985 0
20.925000 -0.066366 0
20.930000 -0.062904 0
20.935000 -0.058305 0
20.940000 -0.052225 0
20.945000 -0.044280 0
20.950000 -0.034069 0
20.955000 -0.021215 0
20.960000 -0.005410 0
20.965000 0.013525 0
20.970000 0.035580 0
20.975000 0.060497 0
20.980000 0.087734 0
20.985000 0.116447 0
20.990000 0.145511 0
20.995000 0.173578 0
21.000000 0.199168 0
21.005000 0.220802 0
21.010000 0.237133 0
21.015000 0.247090 0
21.020000 0.249990 1
21.025000 0.245619 0
21.030000 0.234252 0
21.035000 0.216630 0
21.040000 0.193874 0
21.045000 0.167372 0
21.050000 0.138632 0
21.055000 0.109135 0
21.060000 0.080184 0
21.065000 0.052710 0
21.070000 0.026992 0
21.075000 0.002227 0
21.080000 -0.023916 0
21.085000 -0.055214 0
21.090000 -0.095406 0
21.095000 -0.144900 0
21.100000 -0.196868 0
21.105000 -0.235482 0
21.110000 -0.238195 2
21.115000 -0.180980 0
21.120000 -0.044111 0
21.125000 0.180698 0
21.130000 0.478887 0
21.135000 0.801099 0
21.140000 1.065475 0
21.145000 1.186237 3
21.150000 1.115511 0
21.155000 0.874355 0
21.160000 0.540414 0
21.165000 0.204116 0
21.170000 -0.068328 0
21.175000 -0.245903 0
21.180000 -0.325673 4
21.185000 -0.323554 0
21.190000 -0.267554 0
21.195000 -0.189501 0
21.200000 -0.115004 0
21.205000 -0.057045 0
21.210000 -0.016717 0
21.215000 0.011260 0
21.220000 0.033084 0
21.225000 0.053149 0
21.230000 0.073765 0
21.235000 0.095851 0
21.240000 0.119629 0
21.245000 0.145011 0
21.250000 0.171759 0
21.255000 0.199540 0
21.260000 0.227944 0
21.265000 0.256493 0
21.270000 0.284651 0
21.275000 0.311843 0
21.280000 0.337467 0
21.285000 0.360923 0
21.290000 0.381629 0
21.295000 0.399047 0
21.300000 0.412707 0
21.305000 0.422224 0
21.310000 0.427319 0
21.315000 0.427828 5
21.320000 0.423713 0
21.325000 0.415064 0
21.330000 0.402093 0
21.335000 0.385128 0
21.340000 0.364595 0
21.345000 0.341003 0
21.350000 0.314920 0
21.355000 0.286952 0
21.360000 0.257719 0
21.365000 0.227830 0
21.370000 0.197866 0
21.375000 0.168359 0
21.380000 0.139780 0
21.385000 0.112527 0
21.390000 0.086920 0
21.395000 0.063201 0
21.400000 0.041530 0
21.405000 0.021997 0
21.410000 0.004624 0
21.415000 -0.010626 0
21.420000 -0.023833 0
21.425000 -0.035118 0
21.430000 -0.044626 0
21.435000 -0.052521 0
21.440000 -0.058973 0
21.445000 -0.064156 0
21.450000 -0.068239 0
21.455000 -0.071380 0
21.460000 -0.073728 0
21.465000 -0.075414 0
21.470000 -0.076556 0
21.475000 -0.077258 0
21.480000 -0.077606 0
21.485000 -0.077546 0
21.490000 -0.076731 0
21.495000 -0.075921 0
21.500000 -0.075114 0
21.505000 -0.074311 0
21.510000 -0.073512 0
21.515000 -0.072718 0
21.520000 -0.071927 0
21.525000 -0.071140 0
21.530000 -0.070356 0
21.535000 -0.069577 0
21.540000 -0.068800 0
21.545000 -0.068026 0
21.550000 -0.067254 0
21.555000 -0.066480 0
21.560000 -0.065701 0
21.565000 -0.064909 0
21.570000 -0.064092 0
21.575000 -0.063230 0
21.580000 -0.062292 0
21.585000 -0.061228 0
21.590000 -0.059965 0
21.595000 -0.058399 0
21.600000 -0.056383 0
21.605000 -0.053721 0
21.610000 -0.050161 0
21.615000 -0.045392 0
21.620000 -0.039051 0
21.625000 -0.030735 0
21.630000 -0.020035 0
21.635000 -0.006570 0
21.640000 0.009950 0
21.645000 0.029667 0
21.650000 0.052507 0
21.655000 0.078129 0
21.660000 0.105880 0
21.665000 0.134797 0
21.670000 0.163638 0
21.675000 0.190954 0
21.680000 0.215204 0
21.685000 0.234897 0
21.690000 0.248739 0
21.695000 0.255774 1
21.700000 0.255494 0
21.705000 0.247893 0
21.710000 0.233479 0
21.715000 0.213208 0
21.720000 0.188383 0
21.725000 0.160515 0
21.730000 0.131163 0
21.735000 0.101777 0
21.740000 0.073521 0
21.745000 0.047026 0
21.750000 0.022004 0
21.755000 -0.003257 0
21.760000 -0.032134 0
21.765000 -0.068793 0
21.770000 -0.115388 0
21.775000 -0.167891 0
21.780000 -0.213078 0
21.785000 -0.229461 2
21.790000 -0.192123 0
21.795000 -0.078820 0
21.800000 0.123180 0
21.805000 0.406335 0
21.810000 0.729244 0
21.815000 1.013754 0
21.820000 1.168784 3
21.825000 1.135517 0
21.830000 0.922123 0
21.835000 0.598628 0
21.840000 0.256702 0
21.845000 -0.031062 0
21.850000 -0.227215 0
21.855000 -0.324352 0
21.860000 -0.335461 4
21.865000 -0.286903 0
21.870000 -0.210624 0
21.875000 -0.134087 0
21.880000 -0.072749 0
21.885000 -0.029519 0
21.890000 0.000211 0
21.895000 0.022772 0
21.900000 0.042960 0
21.905000 0.063418 0
21.910000 0.085253 0
21.915000 0.108773 0
21.920000 0.133927 0
21.925000 0.160496 0
21.930000 0.188162 0
21.935000 0.216526 0
21.940000 0.245120 0
21.945000 0.273415 0
21.950000 0.300840 0
21.955000 0.326796 0
21.960000 0.350679 0
21.965000 0.371901 0
21.970000 0.389915 0
21.975000 0.404237 0
21.980000 0.414466 0
21.985000 0.420305 0
21.990000 0.421570 5
21.995000 0.418204 0
22.000000 0.410277 0
22.005000 0.397983 0
22.010000 0.381633 0
22.015000 0.361641 0
22.020000 0.338504 0
22.025000 0.312786 0
22.030000 0.285089 0
22.035000 0.256033 0
22.040000 0.226233 0
22.045000 0.196275 0
22.050000 0.166701 0
22.055000 0.137992 0
22.060000 0.110559 0
22.065000 0.084733 0
22.070000 0.060767 0
22.075000 0.038834 0
22.080000 0.019032 0
22.085000 0.001392 0
22.090000 -0.014114 0
22.095000 -0.027562 0
22.100000 -0.039068 0
22.105000 -0.048775 0
22.110000 -0.056845 0
22.115000 -0.063449 0
22.120000 -0.068760 0
22.125000 -0.072948 0
22.130000 -0.076175 0
22.135000 -0.078589 0
22.140000 -0.080325 0
22.145000 -0.081503 0
22.150000 -0.082229 0
22.155000 -0.082590 0
22.160000 -0.082532 0
22.165000 -0.081692 0
22.170000 -0.080856 0
22.175000 -0.080025 0
22.180000 -0.079198 0
22.185000 -0.078375 0
22.190000 -0.077556 0
22.195000 -0.076741 0
22.200000 -0.075930 0
22.205000 -0.075123 0
22.210000 -0.074319 0
22.215000 -0.073519 0
22.220000 -0.072722 0
22.225000 -0.071926 0
22.230000 -0.071130 0
22.235000 -0.070328 0
22.240000 -0.069516 0
22.245000 -0.068680 0
22.250000 -0.067801 0
22.255000 -0.066850 0
22.260000 -0.065779 0
22.265000 -0.064518 0
22.270000 -0.062965 0
22.275000 -0.060977 0
22.280000 -0.058364 0
22.285000 -0.054879 0
22.290000 -0.050215 0
22.295000 -0.044013 0
22.300000 -0.035871 0
22.305000 -0.025379 0
22.310000 -0.012150 0
22.315000 0.004116 0
22.320000 0.023577 0
22.325000 0.046183 0
22.330000 0.071612 0
22.335000 0.099240 0
22.340000 0.128127 0
22.345000 0.157047 0
22.350000 0.184562 0
22.355000 0.209131 0
22.360000 0.229250 0
22.365000 0.243601 0
22.370000 0.251196 0
22.375000 0.251488 1
22.380000 0.244435 0
22.385000 0.230508 0
22.390000 0.210636 0
22.395000 0.186105 0
22.400000 0.158417 0
22.405000 0.129138 0
22.410000 0.099734 0
22.415000 0.071396 0
22.420000 0.044803 0
22.425000 0.019739 0
22.430000 -0.005405 0
22.435000 -0.033918 0
22.440000 -0.069985 0
22.445000 -0.116002 0
22.450000 -0.168410 0
22.455000 -0.214518 0
22.460000 -0.233165 2
22.465000 -0.199412 0
22.470000 -0.090661 0
22.475000 0.106589 0
22.480000 0.386212 0
22.485000 0.708732 0
22.490000 0.997399 0
22.495000 1.160597 3
22.500000 1.136246 0
22.505000 0.928489 0
22.510000 0.606837 0
22.515000 0.264549 0
22.520000 -0.023922 0
22.525000 -0.220106 0
22.530000 -0.316436 0
22.535000 -0.326269 4
22.540000 -0.276603 0
22.545000 -0.199954 0
22.550000 -0.123920 0
22.555000 -0.063618 0
22.560000 -0.021446 0
22.565000 0.007538 0
22.570000 0.029735 0
22.575000 0.049845 0
22.580000 0.070384 0
22.585000 0.092372 0
22.590000 0.116069 0
22.595000 0.141394 0
22.600000 0.168113 0
22.605000 0.195888 0
22.610000 0.224302 0
22.615000 0.252868 0
22.620000 0.281041 0
22.625000 0.308232 0
22.630000 0.333829 0
22.635000 0.357219 0
22.640000 0.377808 0
22.645000 0.395052 0
22.650000 0.408474 0
22.655000 0.417687 0
22.660000 0.422416 0
22.665000 0.422505 5
22.670000 0.417926 0
22.675000 0.408785 0
22.680000 0.395313 0
22.685000 0.377856 0
22.690000 0.356862 0
22.695000 0.332862 0
22.700000 0.306441 0
22.705000 0.278222 0
22.710000 0.248837 0
22.715000 0.218904 0
22.720000 0.189007 0
22.725000 0.159677 0
22.730000 0.131378 0
22.735000 0.104500 0
22.740000 0.079350 0
22.745000 0.056153 0
22.750000 0.035055 0
22.755000 0.016127 0
22.760000 -0.000625 0
22.765000 -0.015251 0
22.770000 -0.027850 0
22.775000 -0.038551 0
22.780000 -0.047509 0
22.785000 -0.054895 0
22.790000 -0.060886 0
22.795000 -0.065655 0
22.800000 -0.069373 0
22.805000 -0.072198 0
22.810000 -0.074274 0
22.815000 -0.075730 0
22.820000 -0.076682 0
22.825000 -0.077226 0
22.830000 -0.077447 0
22.835000 -0.076782 0
22.840000 -0.075971 0
22.845000 -0.075164 0
22.850000 -0.074361 0
22.855000 -0.073562 0
22.860000 -0.072767 0
22.865000 -0.071976 0
22.870000 -0.071188 0
22.875000 -0.070405 0
22.880000 -0.069625 0
22.885000 -0.068849 0
22.890000 -0.068076 0
22.895000 -0.067304 0
22.900000 -0.066532 0
22.905000 -0.065757 0
22.910000 -0.064973 0
22.915000 -0.064169 0
22.920000 -0.063329 0
22.925000 -0.062426 0
22.930000 -0.061416 0
22.935000 -0.060236 0
22.940000 -0.058790 0
22.945000 -0.056946 0
22.950000 -0.054521 0
22.955000 -0.051278 0
22.960000 -0.046917 0
22.965000 -0.041084 0
22.970000 -0.033378 0
22.975000 -0.023377 0
22.980000 -0.010683 0
22.985000 0.005033 0
22.990000 0.023961 0
22.995000 0.046086 0
23.000000 0.071127 0
23.005000 0.098494 0
23.010000 0.127271 0
23.015000 0.156243 0
23.020000 0.183968 0
23.025000 0.208880 0
23.030000 0.229439 0
23.035000 0.244279 0
23.040000 0.252363 0
23.045000 0.253101 1
23.050000 0.246417 0
23.055000 0.232763 0
23.060000 0.213066 0
23.065000 0.188625 0
23.070000 0.160966 0
23.075000 0.131682 0
23.080000 0.102267 0
23.085000 0.073933 0
23.090000 0.047360 0
23.095000 0.022308 0
23.100000 -0.002915 0
23.105000 -0.031713 0
23.110000 -0.068334 0
23.115000 -0.114982 0
23.120000 -0.167493 0
23.125000 -0.212222 0
23.130000 -0.227091 2
23.135000 -0.186681 0
23.140000 -0.068590 0
23.145000 0.139330 0
23.150000 0.427466 0
23.155000 0.750538 0
23.160000 1.026329 0
23.165000 1.163069 3
23.170000 1.108649 0
23.175000 0.881471 0
23.180000 0.553355 0
23.185000 0.212995 0
23.190000 -0.071148 0
23.195000 -0.264325 0
23.200000 -0.360090 0
23.205000 -0.371251 4
23.210000 -0.323336 0
23.215000 -0.247308 0
23.220000 -0.170105 0
23.225000 -0.107372 0
23.230000 -0.062603 0
23.235000 -0.031685 0
23.240000 -0.008447 0
23.245000 0.011998 0
23.250000 0.032457 0
23.255000 0.054170 0
23.260000 0.077520 0
23.265000 0.102501 0
23.270000 0.128925 0
23.275000 0.156502 0
23.280000 0.184862 0
23.285000 0.213566 0
23.290000 0.242118 0
23.295000 0.269973 0
23.300000 0.296557 0
23.305000 0.321285 0
23.310000 0.343580 0
23.315000 0.362897 0
23.320000 0.378742 0
23.325000 0.390696 0
23.330000 0.398431 0
23.335000 0.401724 5
23.340000 0.400467 0
23.345000 0.394675 0
23.350000 0.384484 0
23.355000 0.370143 0
23.360000 0.352006 0
23.365000 0.330520 0
23.370000 0.306199 0
23.375000 0.279609 0
23.380000 0.251345 0
23.385000 0.222009 0
23.390000 0.192185 0
23.395000 0.162426 0
23.400000 0.133236 0
23.405000 0.105055 0
23.410000 0.078255 0
23.415000 0.053131 0
23.420000 0.029900 0
23.425000 0.008708 0
23.430000 -0.010370 0
23.435000 -0.027322 0
23.440000 -0.042188 0
23.445000 -0.055053 0
23.450000 -0.066035 0
23.455000 -0.075279 0
23.460000 -0.082943 0
23.465000 -0.089195 0
23.470000 -0.094202 0
23.475000 -0.098127 0
23.480000 -0.101125 0
23.485000 -0.103340 0
23.490000 -0.104900 0
23.495000 -0.105921 0
23.500000 -0.106502 0
23.505000 -0.106730 0
23.510000 -0.106546 0
23.515000 -0.105586 0
23.520000 -0.104632 0
23.525000 -0.103682 0
23.530000 -0.102736 0
23.535000 -0.101796 0
23.540000 -0.100860 0
23.545000 -0.099929 0
23.550000 -0.099002 0
23.555000 -0.098080 0
23.560000 -0.097162 0
23.565000 -0.096248 0
23.570000 -0.095338 0
23.575000 -0.094430 0
23.580000 -0.093523 0
23.585000 -0.092612 0
23.590000 -0.091693 0
23.595000 -0.090754 0
23.600000 -0.089780 0
23.605000 -0.088745 0
23.610000 -0.087608 0
23.615000 -0.086308 0
23.620000 -0.084758 0
23.625000 -0.082833 0
23.630000 -0.080366 0
23.635000 -0.077137 0
23.640000 -0.072871 0
23.645000 -0.067239 0
23.650000 -0.059867 0
23.655000 -0.050358 0
23.660000 -0.038320 0
23.665000 -0.023417 0
23.670000 -0.005424 0
23.675000 0.015716 0
23.680000 0.039830 0
23.685000 0.066470 0
23.690000 0.094885 0
23.695000 0.124037 0
23.700000 0.152637 0
23.705000 0.179237 0
23.710000 0.202340 0
23.715000 0.220542 0
23.720000 0.232671 0
23.725000 0.237910 1
23.730000 0.235890 0
23.735000 0.226734 0
23.740000 0.211042 0
23.745000 0.189825 0
23.750000 0.164404 0
23.755000 0.136263 0
23.760000 0.106910 0
23.765000 0.077722 0
23.770000 0.049772 0
23.775000 0.023584 0
23.780000 -0.001252 0
23.785000 -0.026554 0
23.790000 -0.055722 0
23.795000 -0.092783 0
23.800000 -0.139629 0
23.805000 -0.192052 0
23.810000 -0.236995 0
23.815000 -0.253534 2
23.820000 -0.217470 0
23.825000 -0.107086 0
23.830000 0.090483 0
23.835000 0.369289 0
23.840000 0.691626 0
23.845000 0.983983 0
23.850000 1.157261 3
23.855000 1.149175 0
23.860000 0.959583 0
23.865000 0.648561 0
23.870000 0.303443 0
23.875000 -0.000732 0
23.880000 -0.220814 0
23.885000 -0.343712 0
23.890000 -0.377398 4
23.895000 -0.343995 0
23.900000 -0.273341 0
23.905000 -0.194187 0
23.910000 -0.125873 0
23.915000 -0.075384 0
23.920000 -0.040482 0
23.925000 -0.015256 0
23.930000 0.005744 0
23.935000 0.025984 0
23.940000 0.047153 0
23.945000 0.069868 0
23.950000 0.094233 0
23.955000 0.120116 0
23.960000 0.147265 0
23.965000 0.175347 0
23.970000 0.203956 0
23.975000 0.232624 0
23.980000 0.260832 0
23.985000 0.288028 0
23.990000 0.313635 0
23.995000 0.337080 0
24.000000 0.357808 0
24.005000 0.375309 0
24.010000 0.389132 0
24.015000 0.398911 0
24.020000 0.404373 0
24.025000 0.405357 5
24.030000 0.401819 0
24.035000 0.393831 0
24.040000 0.381583 0
24.045000 0.365374 0
24.050000 0.345597 0
24.055000 0.322725 0
24.060000 0.297291 0
24.065000 0.269870 0
24.070000 0.241051 0
24.075000 0.211423 0
24.080000 0.181552 0
24.085000 0.151962 0
24.090000 0.123126 0
24.095000 0.095450 0
24.100000 0.069269 0
24.105000 0.044846 0
24.110000 0.022367 0
24.115000 0.001948 0
24.120000 -0.016362 0
24.125000 -0.032569 0
24.130000 -0.046730 0
24.135000 -0.058942 0
24.140000 -0.069331 0
24.145000 -0.078045 0
24.150000 -0.085242 0
24.155000 -0.091090 0
24.160000 -0.095753 0
24.165000 -0.099388 0
24.170000 -0.102147 0
24.175000 -0.104164 0
24.180000 -0.105566 0
24.185000 -0.106460 0
24.190000 -0.106941 0
24.195000 -0.107091 0
24.200000 -0.106855 0
24.205000 -0.105894 0
24.210000 -0.104938 0
24.215000 -0.103986 0
24.220000 -0.103039 0
24.225000 -0.102097 0
24.230000 -0.101160 0
24.235000 -0.100227 0
24.240000 -0.099299 0
24.245000 -0.098375 0
24.250000 -0.097456 0
24.255000 -0.096541 0
24.260000 -0.095629 0
24.265000 -0.094719 0
24.270000 -0.093809 0
24.275000 -0.092896 0
24.280000 -0.091973 0
24.285000 -0.091029 0
24.290000 -0.090049 0
24.295000 -0.089004 0
24.300000 -0.087853 0
24.305000 -0.086534 0
24.310000 -0.084959 0
24.315000 -0.083001 0
24.320000 -0.080493 0
24.325000 -0.077215 0
24.330000 -0.072893 0
24.335000 -0.067201 0
24.340000 -0.059769 0
24.345000 -0.050204 0
24.350000 -0.038124 0
24.355000 -0.023197 0
24.360000 -0.005203 0
24.365000 0.015915 0
24.370000 0.039986 0
24.375000 0.066574 0
24.380000 0.094947 0
24.385000 0.124088 0
24.390000 0.152737 0
24.395000 0.179471 0
24.400000 0.202815 0
24.405000 0.221377 0
24.410000 0.233982 0
24.415000 0.239796 1
24.420000 0.238419 0
24.425000 0.229926 0
24.430000 0.214866 0
24.435000 0.194198 0
24.440000 0.169194 0
24.445000 0.141306 0
24.450000 0.112025 0
24.455000 0.082734 0
24.460000 0.054545 0
24.465000 0.028075 0
24.470000 0.003098 0
24.475000 -0.021921 0
24.480000 -0.050087 0
24.485000 -0.085406 0
24.490000 -0.130429 0
24.495000 -0.182478 0
24.500000 -0.230520 0
24.505000 -0.255273 2
24.510000 -0.233117 0
24.515000 -0.141606 0
24.520000 0.034665 0
24.525000 0.295462 0
24.530000 0.612405 0
24.535000 0.921283 0
24.540000 1.134840 0
24.545000 1.179800 3
24.550000 1.036714 0
24.555000 0.751098 0
24.560000 0.406808 0
24.565000 0.085190 0
24.570000 -0.161243 0
24.575000 -0.311825 0
24.580000 -0.369354 4
24.585000 -0.352436 0
24.590000 -0.289405 0
24.595000 -0.210225 0
24.600000 -0.137515 0
24.605000 -0.081743 0
24.610000 -0.042823 0
24.615000 -0.015399 0
24.620000 0.006369 0
24.625000 0.026558 0
24.630000 0.047313 0
24.635000 0.069500 0
24.640000 0.093336 0
24.645000 0.118743 0
24.650000 0.145502 0
24.655000 0.173302 0
24.660000 0.201761 0
24.665000 0.230430 0
24.670000 0.258808 0
24.675000 0.286350 0
24.680000 0.312488 0
24.685000 0.336647 0
24.690000 0.358267 0
24.695000 0.376821 0
24.700000 0.391840 0
24.705000 0.402928 0
24.710000 0.409782 0
24.715000 0.412206 5
24.720000 0.410116 0
24.725000 0.403546 0
24.730000 0.392647 0
24.735000 0.377684 0
24.740000 0.359016 0
24.745000 0.337093 0
24.750000 0.312429 0
24.755000 0.285583 0
24.760000 0.257142 0
24.765000 0.227694 0
24.770000 0.197815 0
24.775000 0.168042 0
24.780000 0.138866 0
24.785000 0.110716 0
24.790000 0.083951 0
24.795000 0.058859 0
24.800000 0.035652 0
24.805000 0.014468 0
24.810000 -0.004620 0
24.815000 -0.021599 0
24.820000 -0.036510 0
24.825000 -0.049435 0
24.830000 -0.060492 0
24.835000 -0.069821 0
24.840000 -0.077577 0
24.845000 -0.083924 0
24.850000 -0.089028 0
24.855000 -0.093049 0
24.860000 -0.096141 0
24.865000 -0.098443 0
24.870000 -0.100086 0
24.875000 -0.101183 0
24.880000 -0.101834 0
24.885000 -0.102125 0
24.890000 -0.102129 0
24.895000 -0.101327 0
24.900000 -0.100394 0
24.905000 -0.099465 0
24.910000 -0.098541 0
24.915000 -0.097621 0
24.920000 -0.096706 0
24.925000 -0.095796 0
24.930000 -0.094890 0
24.935000 -0.093988 0
24.940000 -0.093091 0
24.945000 -0.092198 0
24.950000 -0.091308 0
24.955000 -0.090421 0
24.960000 -0.089534 0
24.965000 -0.088646 0
24.970000 -0.087751 0
24.975000 -0.086840 0
24.980000 -0.085900 0
24.985000 -0.084908 0
24.990000 -0.083829 0
24.995000 -0.082611 0
25.000000 -0.081176 0
25.005000 -0.079417 0
25.010000 -0.077182 0
25.015000 -0.074276 0
25.020000 -0.070448 0
25.025000 -0.065395 0
25.030000 -0.058762 0
25.035000 -0.050167 0
25.040000 -0.039217 0
25.045000 -0.025554 0
25.050000 -0.008906 0
25.055000 0.010861 0
25.060000 0.033681 0
25.065000 0.059236 0
25.070000 0.086925 0
25.075000 0.115853 0
25.080000 0.144862 0
25.085000 0.172590 0
25.090000 0.197576 0
25.095000 0.218376 0
25.100000 0.233710 0
25.105000 0.242581 0
25.110000 0.244392 1
25.115000 0.239004 0
25.120000 0.226759 0
25.125000 0.208441 0
25.130000 0.185193 0
25.135000 0.158399 0
25.140000 0.129547 0
25.145000 0.100081 0
25.150000 0.071256 0
25.155000 0.043948 0
25.160000 0.018367 0
25.165000 -0.006360 0
25.170000 -0.032616 0
25.175000 -0.064160 0
25.180000 -0.104615 0
25.185000 -0.154229 0
25.190000 -0.206114 0
25.195000 -0.244609 0
25.200000 -0.247537 2
25.205000 -0.191273 0
25.210000 -0.056331 0
25.215000 0.165815 0
25.220000 0.461797 0
25.225000 0.784612 0
25.230000 1.054908 0
25.235000 1.187381 3
25.240000 1.132543 0
25.245000 0.905193 0
25.250000 0.577006 0
25.255000 0.236461 0
25.260000 -0.048084 0
25.265000 -0.241856 0
25.270000 -0.338314 0
25.275000 -0.350137 4
25.280000 -0.302715 0
25.285000 -0.226926 0
25.290000 -0.149727 0
25.295000 -0.086869 0
25.300000 -0.041970 0
25.305000 -0.010992 0
25.310000 0.012222 0
25.315000 0.032582 0
25.320000 0.052921 0
25.325000 0.074497 0
25.330000 0.097706 0
25.335000 0.122547 0
25.340000 0.148836 0
25.345000 0.176284 0
25.350000 0.204526 0
25.355000 0.233125 0
25.360000 0.261588 0
25.365000 0.289371 0
25.370000 0.315905 0
25.375000 0.340605 0
25.380000 0.362895 0
25.385000 0.382229 0
25.390000 0.398114 0
25.395000 0.410128 0
25.400000 0.417939 0
25.405000 0.421322 5
25.410000 0.420164 0
25.415000 0.414474 0
25.420000 0.404382 0
25.425000 0.390132 0
25.430000 0.372074 0
25.435000 0.350647 0
25.440000 0.326362 0
25.445000 0.299783 0
25.450000 0.271500 0
25.455000 0.242114 0
25.460000 0.212210 0
25.465000 0.182343 0
25.470000 0.153015 0
25.475000 0.124673 0
25.480000 0.097689 0
25.485000 0.072363 0
25.490000 0.048918 0
25.495000 0.027502 0
25.500000 0.008195 0
25.505000 -0.008987 0
25.510000 -0.024082 0
25.515000 -0.037170 0
25.520000 -0.048368 0
25.525000 -0.057819 0
25.530000 -0.065679 0
25.535000 -0.072115 0
25.540000 -0.077295 0
25.545000 -0.081382 0
25.550000 -0.084532 0
25.555000 -0.086887 0
25.560000 -0.088578 0
25.565000 -0.089720 0
25.570000 -0.090416 0
25.575000 -0.090752 0
25.580000 -0.090666 0
25.585000 -0.089785 0
25.590000 -0.088909 0
25.595000 -0.088038 0
25.600000 -0.087171 0
25.605000 -0.086308 0
25.610000 -0.085449 0
25.615000 -0.084595 0
25.620000 -0.083745 0
25.625000 -0.082899 0
25.630000 -0.082056 0
25.635000 -0.081218 0
25.640000 -0.080383 0
25.645000 -0.079550 0
25.650000 -0.078717 0
25.655000 -0.077881 0
25.660000 -0.077037 0
25.665000 -0.076175 0
25.670000 -0.075280 0
25.675000 -0.074326 0
25.680000 -0.073276 0
25.685000 -0.072071 0
25.690000 -0.070627 0
25.695000 -0.068826 0
25.700000 -0.066505 0
25.705000 -0.063452 0
25.710000 -0.059399 0
25.715000 -0.054026 0
25.720000 -0.046962 0
25.725000 -0.037813 0
25.730000 -0.026186 0
25.735000 -0.011737 0
25.740000 0.005779 0
25.745000 0.026442 0
25.750000 0.050114 0
25.755000 0.076384 0
25.760000 0.104546 0
25.765000 0.133600 0
25.770000 0.162293 0
25.775000 0.189193 0
25.780000 0.212808 0
25.785000 0.231716 0
25.790000 0.244706 0
25.795000 0.250906 1
25.800000 0.249881 0
25.805000 0.241681 0
25.810000 0.226837 0
25.815000 0.206304 0
25.820000 0.181359 0
25.825000 0.153469 0
25.830000 0.124144 0
25.835000 0.094787 0
25.840000 0.066529 0
25.845000 0.039999 0
25.850000 0.014967 0
25.855000 -0.010131 0
25.860000 -0.038456 0
25.865000 -0.074062 0
25.870000 -0.119441 0
25.875000 -0.171655 0
25.880000 -0.219188 0
25.885000 -0.242232 2
25.890000 -0.216800 0
25.895000 -0.120406 0
25.900000 0.061852 0
25.905000 0.328192 0
25.910000 0.647260 0
25.915000 0.951320 0
25.920000 1.151567 0
25.925000 1.177486 3
25.930000 1.014462 0
25.935000 0.714052 0
25.940000 0.368601 0
25.945000 0.060948 0
25.950000 -0.160663 0
25.955000 -0.281669 0
25.960000 -0.310983 4
25.965000 -0.273026 0
25.970000 -0.200107 0
25.975000 -0.122129 0
25.980000 -0.057617 0
25.985000 -0.011634 0
25.990000 0.019672 0
25.995000 0.042808 0
26.000000 0.063005 0
26.005000 0.083239 0
26.010000 0.104795 0
26.015000 0.128047 0
26.020000 0.152969 0
26.025000 0.179346 0
26.030000 0.206859 0
26.035000 0.235103 0
26.040000 0.263600 0
26.045000 0.291810 0
26.050000 0.319148 0
26.055000 0.345000 0
26.060000 0.368746 0
26.065000 0.389785 0
26.070000 0.407557 0
26.075000 0.421568 0
26.080000 0.431413 0
26.085000 0.436795 0
26.090000 0.437537 5
26.095000 0.433591 0
26.100000 0.425043 0
26.105000 0.412106 0
26.110000 0.395114 0
26.115000 0.374505 0
26.120000 0.350802 0
26.125000 0.324590 0
26.130000 0.296492 0
26.135000 0.267144 0
26.140000 0.237172 0
26.145000 0.207168 0
26.150000 0.177676 0
26.155000 0.149170 0
26.160000 0.122051 0
26.165000 0.096639 0
26.170000 0.073168 0
26.175000 0.051792 0
26.180000 0.032591 0
26.185000 0.015575 0
26.190000 0.000698 0
26.195000 -0.012134 0
26.200000 -0.023050 0
26.205000 -0.032205 0
26.210000 -0.039769 0
26.215000 -0.045920 0
26.220000 -0.050834 0
26.225000 -0.054683 0
26.230000 -0.057625 0
26.235000 -0.059809 0
26.240000 -0.061365 0
26.245000 -0.062408 0
26.250000 -0.063039 0
26.255000 -0.063341 0
26.260000 -0.062748 0
26.265000 -0.062007 0
26.270000 -0.061270 0
26.275000 -0.060536 0
26.280000 -0.059806 0
26.285000 -0.059079 0
26.290000 -0.058357 0
26.295000 -0.057637 0
26.300000 -0.056921 0
26.305000 -0.056209 0
26.310000 -0.055500 0
26.315000 -0.054793 0
26.320000 -0.054087 0
26.325000 -0.053382 0
26.330000 -0.052672 0
26.335000 -0.051953 0
26.340000 -0.051213 0
26.345000 -0.050436 0
26.350000 -0.049595 0
26.355000 -0.048644 0
26.360000 -0.047519 0
26.365000 -0.046124 0
26.370000 -0.044321 0
26.375000 -0.041925 0
26.380000 -0.038695 0
26.385000 -0.034325 0
26.390000 -0.028455 0
26.395000 -0.020679 0
26.400000 -0.010574 0
26.405000 0.002260 0
26.410000 0.018146 0
26.415000 0.037262 0
26.420000 0.059575 0
26.425000 0.084780 0
26.430000 0.112253 0
26.435000 0.141045 0
26.440000 0.169910 0
26.445000 0.197375 0
26.450000 0.221861 0
26.455000 0.241826 0
26.460000 0.255925 0
26.465000 0.263156 1
26.470000 0.262979 0
26.475000 0.255381 0
26.480000 0.240877 0
26.485000 0.220453 0
26.490000 0.195454 0
26.495000 0.167436 0
26.500000 0.137999 0
26.505000 0.108620 0
26.510000 0.080461 0
26.515000 0.054104 0
26.520000 0.029123 0
26.525000 0.003556 0
26.530000 -0.026259 0
26.535000 -0.064520 0
26.540000 -0.112710 0
26.545000 -0.165185 0
26.550000 -0.206560 0
26.555000 -0.213585 2
26.560000 -0.160733 0
26.565000 -0.026691 0
26.570000 0.197786 0
26.575000 0.497257 0
26.580000 0.818398 0
26.585000 1.073446 0
26.590000 1.173675 3
26.595000 1.078310 0
26.600000 0.819332 0
26.605000 0.479905 0
26.610000 0.149874 0
26.615000 -0.108924 0
26.620000 -0.270160 0
26.625000 -0.334501 4
26.630000 -0.320611 0
26.635000 -0.258244 0
26.640000 -0.179223 0
26.645000 -0.107360 0
26.650000 -0.053170 0
26.655000 -0.015939 0
26.660000 0.010254 0
26.665000 0.031417 0
26.670000 0.051501 0
26.675000 0.072449 0
26.680000 0.094976 0
26.685000 0.119205 0
26.690000 0.144999 0
26.695000 0.172090 0
26.700000 0.200119 0
26.705000 0.228650 0
26.710000 0.257181 0
26.715000 0.285156 0
26.720000 0.311982 0
26.725000 0.337048 0
26.730000 0.359748 0
26.735000 0.379504 0
26.740000 0.395790 0
26.745000 0.408155 0
26.750000 0.416243 0
26.755000 0.419808 5
26.760000 0.418729 0
26.765000 0.413012 0
26.770000 0.402794 0
26.775000 0.388333 0
26.780000 0.370000 0
26.785000 0.348262 0
26.790000 0.323660 0
26.795000 0.296787 0
26.800000 0.268266 0
26.805000 0.238723 0
26.810000 0.208767 0
26.815000 0.178968 0
26.820000 0.149839 0
26.825000 0.121827 0
26.830000 0.095303 0
26.835000 0.070553 0
26.840000 0.047786 0
26.845000 0.027132 0
26.850000 0.008646 0
26.855000 -0.007677 0
26.860000 -0.021896 0
26.865000 -0.034115 0
26.870000 -0.044470 0
26.875000 -0.053117 0
26.880000 -0.060228 0
26.885000 -0.065978 0
26.890000 -0.070540 0
26.895000 -0.074080 0
26.900000 -0.076755 0
26.905000 -0.078704 0
26.910000 -0.080056 0
26.915000 -0.080920 0
26.920000 -0.081391 0
26.925000 -0.081551 0
26.930000 -0.080860 0
26.935000 -0.080028 0
26.940000 -0.079201 0
26.945000 -0.078378 0
26.950000 -0.077559 0
26.955000 -0.076744 0
26.960000 -0.075933 0
26.965000 -0.075126 0
26.970000 -0.074323 0
26.975000 -0.073524 0
26.980000 -0.072728 0
26.985000 -0.071935 0
26.990000 -0.071144 0
26.995000 -0.070352 0
27.000000 -0.069557 0
27.005000 -0.068753 0
27.010000 -0.067927 0
27.015000 -0.067064 0
27.020000 -0.066135 0
27.025000 -0.065096 0
27.030000 -0.063881 0
27.035000 -0.062394 0
27.040000 -0.060499 0
27.045000 -0.058011 0
27.050000 -0.054691 0
27.055000 -0.050239 0
27.060000 -0.044298 0
27.065000 -0.036468 0
27.070000 -0.026333 0
27.075000 -0.013495 0
27.080000 0.002365 0
27.085000 0.021429 0
27.090000 0.043675 0
27.095000 0.068813 0
27.100000 0.096247 0
27.105000 0.125058 0
27.110000 0.154035 0
27.115000 0.181739 0
27.120000 0.206614 0
27.125000 0.227132 0
27.130000 0.241940 0
27.135000 0.250009 0
27.140000 0.250755 1
27.145000 0.244103 0
27.150000 0.230500 0
27.155000 0.210867 0
27.160000 0.186489 0
27.165000 0.158882 0
27.170000 0.129628 0
27.175000 0.100214 0
27.180000 0.071853 0
27.185000 0.045241 0
27.190000 0.020172 0
27.195000 -0.004979 0
27.200000 -0.033539 0
27.205000 -0.069736 0
27.210000 -0.115934 0
27.215000 -0.168380 0
27.220000 -0.214000 0
27.225000 -0.231197 2
27.230000 -0.194735 0
27.235000 -0.082000 0
27.240000 0.119997 0
27.245000 0.403592 0
27.250000 0.726561 0
27.255000 1.009333 0
27.260000 1.159849 3
27.265000 1.120229 0
27.270000 0.901357 0
27.275000 0.575415 0
27.280000 0.234671 0
27.285000 -0.049159 0
27.290000 -0.240012 0
27.295000 -0.331723 0
27.300000 -0.338320 4
27.305000 -0.286968 0
27.310000 -0.209882 0
27.315000 -0.134080 0
27.320000 -0.074147 0
27.325000 -0.032214 0
27.330000 -0.003305 0
27.335000 0.018912 0
27.340000 0.039074 0
27.345000 0.059664 0
27.350000 0.081695 0
27.355000 0.105423 0
27.360000 0.130775 0
27.365000 0.157517 0
27.370000 0.185318 0
27.375000 0.213768 0
27.380000 0.242386 0
27.385000 0.270633 0
27.390000 0.297928 0
27.395000 0.323667 0
27.400000 0.347239 0
27.405000 0.368058 0
27.410000 0.385580 0
27.415000 0.399328 0
27.420000 0.408912 0
27.425000 0.414050 0
27.430000 0.414579 5
27.435000 0.410460 0
27.440000 0.401786 0
27.445000 0.388774 0
27.450000 0.371757 0
27.455000 0.351169 0
27.460000 0.327526 0
27.465000 0.301405 0
27.470000 0.273418 0
27.475000 0.244192 0
27.480000 0.214340 0
27.485000 0.184448 0
27.490000 0.155049 0
27.495000 0.126614 0
27.500000 0.099540 0
27.505000 0.074142 0
27.510000 0.050659 0
27.515000 0.029245 0
27.520000 0.009984 0
27.525000 -0.007108 0
27.530000 -0.022073 0
27.535000 -0.034999 0
27.540000 -0.046009 0
27.545000 -0.055253 0
27.550000 -0.062898 0
27.555000 -0.069118 0
27.560000 -0.074087 0
27.565000 -0.077974 0
27.570000 -0.080938 0
27.575000 -0.083126 0
27.580000 -0.084670 0
27.585000 -0.085686 0
27.590000 -0.086276 0
27.595000 -0.086524 0
27.600000 -0.086382 0
27.605000 -0.085523 0
27.610000 -0.084669 0
27.615000 -0.083818 0
27.620000 -0.082972 0
27.625000 -0.082130 0
27.630000 -0.081292 0
27.635000 -0.080459 0
27.640000 -0.079629 0
27.645000 -0.078804 0
27.650000 -0.077982 0
27.655000 -0.077163 0
27.660000 -0.076347 0
27.665000 -0.075532 0
27.670000 -0.074715 0
27.675000 -0.073891 0
27.680000 -0.073052 0
27.685000 -0.072184 0
27.690000 -0.071263 0
27.695000 -0.070254 0
27.700000 -0.069100 0
27.705000 -0.067720 0
27.710000 -0.065997 0
27.715000 -0.063768 0
27.720000 -0.060819 0
27.725000 -0.056876 0
27.730000 -0.051609 0
27.735000 -0.044634 0
27.740000 -0.035541 0
27.745000 -0.023917 0
27.750000 -0.009405 0
27.755000 0.008247 0
27.760000 0.029115 0
27.765000 0.053035 0
27.770000 0.079553 0
27.775000 0.107898 0
27.780000 0.136987 0
27.785000 0.165477 0
27.790000 0.191855 0
27.795000 0.214566 0
27.800000 0.232161 0
27.805000 0.243452 0
27.810000 0.247640 1
27.815000 0.244410 0
27.820000 0.233970 0
27.825000 0.217029 0
27.830000 0.194713 0
27.835000 0.168444 0
27.840000 0.139790 0
27.845000 0.110298 0
27.850000 0.081331 0
27.855000 0.053865 0
27.860000 0.028180 0
27.865000 0.003399 0
27.870000 -0.022989 0
27.875000 -0.054979 0
27.880000 -0.096300 0
27.885000 -0.146709 0
27.890000 -0.197885 0
27.895000 -0.232041 2
27.900000 -0.225032 0
27.905000 -0.152250 0
27.910000 0.005015 0
27.915000 0.251017 0
27.920000 0.562256 0
27.925000 0.876782 0
27.930000 1.104042 0
27.935000 1.163198 3
27.940000 1.029884 0
27.945000 0.749723 0
27.950000 0.406304 0
27.955000 0.082559 0
27.960000 -0.167126 0
27.965000 -0.320825 0
27.970000 -0.380720 4
27.975000 -0.365209 0
27.980000 -0.302722 0
27.985000 -0.223536 0
27.990000 -0.150627 0
27.995000 -0.094687 0
28.000000 -0.055682 0
28.005000 -0.028219 0
28.010000 -0.006409 0
28.015000 0.013843 0
28.020000 0.034682 0
28.025000 0.056968 0
28.030000 0.080912 0
28.035000 0.106429 0
28.040000 0.133295 0
28.045000 0.161195 0
28.050000 0.189739 0
28.055000 0.218473 0
28.060000 0.246887 0
28.065000 0.274432 0
28.070000 0.300532 0
28.075000 0.324609 0
28.080000 0.346098 0
28.085000 0.364471 0
28.090000 0.379260 0
28.095000 0.390072 0
28.100000 0.396610 0
28.105000 0.398685 5
28.110000 0.396223 0
28.115000 0.389272 0
28.120000 0.377994 0
28.125000 0.362667 0
28.130000 0.343667 0
28.135000 0.321453 0
28.140000 0.296550 0
28.145000 0.269529 0
28.150000 0.240982 0
28.155000 0.211503 0
28.160000 0.181666 0
28.165000 0.152011 0
28.170000 0.123021 0
28.175000 0.095121 0
28.180000 0.068663 0
28.185000 0.043923 0
28.190000 0.021103 0
28.195000 0.000332 0
28.200000 -0.018327 0
28.205000 -0.034873 0
28.210000 -0.049355 0
28.215000 -0.061862 0
28.220000 -0.072519 0
28.225000 -0.081470 0
28.230000 -0.088876 0
28.235000 -0.094900 0
28.240000 -0.099711 0
28.245000 -0.103469 0
28.250000 -0.106325 0
28.255000 -0.108419 0
28.260000 -0.109879 0
28.265000 -0.110814 0
28.270000 -0.111324 0
28.275000 -0.111492 0
28.280000 -0.111260 0
28.285000 -0.110277 0
28.290000 -0.109299 0
28.295000 -0.108326 0
28.300000 -0.107358 0
28.305000 -0.106394 0
28.310000 -0.105435 0
28.315000 -0.104481 0
28.320000 -0.103532 0
28.325000 -0.102587 0
28.330000 -0.101647 0
28.335000 -0.100711 0
28.340000 -0.099778 0
28.345000 -0.098848 0
28.350000 -0.097918 0
28.355000 -0.096985 0
28.360000 -0.096043 0
28.365000 -0.095082 0
28.370000 -0.094085 0
28.375000 -0.093026 0
28.380000 -0.091864 0
28.385000 -0.090540 0
28.390000 -0.088965 0
