0.000000 1.123343 3
0.005000 1.047499 0
0.010000 0.853449 0
0.015000 0.586518 0
0.020000 0.301198 0
0.025000 0.043388 0
0.030000 -0.158259 0
0.035000 -0.291907 0
0.040000 -0.358309 0
0.045000 -0.367116 4
0.050000 -0.334209 0
0.055000 -0.278454 0
0.060000 -0.217420 0
0.065000 -0.163558 0
0.070000 -0.122611 0
0.075000 -0.094664 0
0.080000 -0.076647 0
0.085000 -0.064750 0
0.090000 -0.055842 0
0.095000 -0.047878 0
0.100000 -0.039723 0
0.105000 -0.030806 0
0.110000 -0.020854 0
0.115000 -0.009723 0
0.120000 0.002674 0
0.125000 0.016391 0
0.130000 0.031459 0
0.135000 0.047882 0
0.140000 0.065636 0
0.145000 0.084666 0
0.150000 0.104881 0
0.155000 0.126153 0
0.160000 0.148317 0
0.165000 0.171168 0
0.170000 0.194467 0
0.175000 0.217941 0
0.180000 0.241285 0
0.185000 0.264174 0
0.190000 0.286264 0
0.195000 0.307203 0
0.200000 0.326640 0
0.205000 0.344233 0
0.210000 0.359661 0
0.215000 0.372630 0
0.220000 0.382887 0
0.225000 0.390223 0
0.230000 0.394484 0
0.235000 0.395571 5
0.240000 0.393451 0
0.245000 0.388150 0
0.250000 0.379758 0
0.255000 0.368425 0
0.260000 0.354355 0
0.265000 0.337801 0
0.270000 0.319057 0
0.275000 0.298447 0
0.280000 0.276321 0
0.285000 0.253038 0
0.290000 0.228963 0
0.295000 0.204453 0
0.300000 0.179849 0
0.305000 0.155470 0
0.310000 0.131607 0
0.315000 0.108517 0
0.320000 0.086418 0
0.325000 0.065490 0
0.330000 0.045875 0
0.335000 0.027672 0
0.340000 0.010946 0
0.345000 -0.004273 0
0.350000 -0.017986 0
0.355000 -0.030223 0
0.360000 -0.041033 0
0.365000 -0.050486 0
0.370000 -0.058665 0
0.375000 -0.065664 0
0.380000 -0.071581 0
0.385000 -0.076518 0
0.390000 -0.080578 0
0.395000 -0.083860 0
0.400000 -0.086458 0
0.405000 -0.088463 0
0.410000 -0.089956 0
0.415000 -0.091014 0
0.420000 -0.091703 0
0.425000 -0.092084 0
0.430000 -0.092210 0
0.435000 -0.092125 0
0.440000 -0.091869 0
0.445000 -0.091475 0
0.450000 -0.090971 0
0.455000 -0.090380 0
0.460000 -0.089720 0
0.465000 -0.089008 0
0.470000 -0.088256 0
0.475000 -0.087460 0
0.480000 -0.086580 0
0.485000 -0.085704 0
0.490000 -0.084832 0
0.495000 -0.083965 0
0.500000 -0.083102 0
0.505000 -0.082244 0
0.510000 -0.081389 0
0.515000 -0.080539 0
0.520000 -0.079694 0
0.525000 -0.078852 0
0.530000 -0.078015 0
0.535000 -0.077181 0
0.540000 -0.076352 0
0.545000 -0.075528 0
0.550000 -0.074707 0
0.555000 -0.073890 0
0.560000 -0.073077 0
0.565000 -0.072269 0
0.570000 -0.071464 0
0.575000 -0.070664 0
0.580000 -0.069867 0
0.585000 -0.069074 0
0.590000 -0.068286 0
0.595000 -0.067500 0
0.600000 -0.066718 0
0.605000 -0.065939 0
0.610000 -0.065162 0
0.615000 -0.064387 0
0.620000 -0.063610 0
0.625000 -0.062828 0
0.630000 -0.062038 0
0.635000 -0.061229 0
0.640000 -0.060392 0
0.645000 -0.059508 0
0.650000 -0.058552 0
0.655000 -0.057487 0
0.660000 -0.056264 0
0.665000 -0.054817 0
0.670000 -0.053055 0
0.675000 -0.050868 0
0.680000 -0.048113 0
0.685000 -0.044623 0
0.690000 -0.040199 0
0.695000 -0.034620 0
0.700000 -0.027650 0
0.705000 -0.019047 0
0.710000 -0.008587 0
0.715000 0.003919 0
0.720000 0.018599 0
0.725000 0.035489 0
0.730000 0.054509 0
0.735000 0.075443 0
0.740000 0.097921 0
0.745000 0.121419 0
0.750000 0.145265 0
0.755000 0.168667 0
0.760000 0.190751 0
0.765000 0.210613 0
0.770000 0.227378 0
0.775000 0.240265 0
0.780000 0.248645 0
0.785000 0.252092 1
0.790000 0.250419 0
0.795000 0.243696 0
0.800000 0.232241 0
0.805000 0.216598 0
0.810000 0.197490 0
0.815000 0.175771 0
0.820000 0.152353 0
0.825000 0.128151 0
0.830000 0.104022 0
0.835000 0.080713 0
0.840000 0.058830 0
0.845000 0.038797 0
0.850000 0.020818 0
0.855000 0.004789 0
0.860000 -0.009844 0
0.865000 -0.024279 0
0.870000 -0.040497 0
0.875000 -0.061092 0
0.880000 -0.088476 0
0.885000 -0.123382 0
0.890000 -0.163046 0
0.895000 -0.200009 0
0.900000 -0.222408 2
0.905000 -0.215810 0
0.910000 -0.165757 0
0.915000 -0.060325 0
0.920000 0.106782 0
0.925000 0.331359 0
0.930000 0.592679 0
0.935000 0.850614 0
0.940000 1.051692 0
0.945000 1.145575 3
0.950000 1.107545 0
0.955000 0.945819 0
0.960000 0.696993 0
0.965000 0.412105 0
0.970000 0.139168 0
0.975000 -0.087983 0
0.980000 -0.251987 0
0.985000 -0.348866 0
0.990000 -0.384217 4
0.995000 -0.370534 0
1.000000 -0.324728 0
1.005000 -0.264683 0
1.010000 -0.205341 0
1.015000 -0.155973 0
1.020000 -0.119760 0
1.025000 -0.095422 0
1.030000 -0.079590 0
1.035000 -0.068745 0
1.040000 -0.060191 0
1.045000 -0.052229 0
1.050000 -0.043930 0
1.055000 -0.034827 0
1.060000 -0.024689 0
1.065000 -0.013391 0
1.070000 -0.000855 0
1.075000 0.012967 0
1.080000 0.028103 0
1.085000 0.044556 0
1.090000 0.062304 0
1.095000 0.081294 0
1.100000 0.101441 0
1.105000 0.122626 0
1.110000 0.144696 0
1.115000 0.167462 0
1.120000 0.190701 0
1.125000 0.214159 0
1.130000 0.237554 0
1.135000 0.260580 0
1.140000 0.282915 0
1.145000 0.304227 0
1.150000 0.324183 0
1.155000 0.342453 0
1.160000 0.358726 0
1.165000 0.372713 0
1.170000 0.384156 0
1.175000 0.392839 0
1.180000 0.398591 0
1.185000 0.401293 5
1.190000 0.400882 0
1.195000 0.397351 0
1.200000 0.390753 0
1.205000 0.381196 0
1.210000 0.368845 0
1.215000 0.353908 0
1.220000 0.336640 0
1.225000 0.317331 0
1.230000 0.296295 0
1.235000 0.273866 0
1.240000 0.250389 0
1.245000 0.226208 0
1.250000 0.201659 0
1.255000 0.177064 0
1.260000 0.152723 0
1.265000 0.128908 0
1.270000 0.105860 0
1.275000 0.083786 0
1.280000 0.062855 0
1.285000 0.043201 0
1.290000 0.024921 0
1.295000 0.008078 0
1.300000 -0.007297 0
1.305000 -0.021203 0
1.310000 -0.033663 0
1.315000 -0.044722 0
1.320000 -0.054443 0
1.325000 -0.062902 0
1.330000 -0.070185 0
1.335000 -0.076387 0
1.340000 -0.081602 0
1.345000 -0.085928 0
1.350000 -0.089461 0
1.355000 -0.092293 0
1.360000 -0.094511 0
1.365000 -0.096195 0
1.370000 -0.097421 0
1.375000 -0.098257 0
1.380000 -0.098763 0
1.385000 -0.098993 0
1.390000 -0.098993 0
1.395000 -0.098805 0
1.400000 -0.098462 0
1.405000 -0.097996 0
1.410000 -0.097430 0
1.415000 -0.096785 0
1.420000 -0.096078 0
1.425000 -0.095324 0
1.430000 -0.094533 0
1.435000 -0.093636 0
1.440000 -0.092725 0
1.445000 -0.091819 0
1.450000 -0.090916 0
1.455000 -0.090019 0
1.460000 -0.089126 0
1.465000 -0.088237 0
1.470000 -0.087353 0
1.475000 -0.086473 0
1.480000 -0.085598 0
1.485000 -0.084727 0
1.490000 -0.083860 0
1.495000 -0.082998 0
1.500000 -0.082140 0
1.505000 -0.081286 0
1.510000 -0.080437 0
1.515000 -0.079591 0
1.520000 -0.078750 0
1.525000 -0.077914 0
1.530000 -0.077081 0
1.535000 -0.076252 0
1.540000 -0.075428 0
1.545000 -0.074607 0
1.550000 -0.073791 0
1.555000 -0.072978 0
1.560000 -0.072169 0
1.565000 -0.071364 0
1.570000 -0.070561 0
1.575000 -0.069760 0
1.580000 -0.068959 0
1.585000 -0.068157 0
1.590000 -0.067349 0
1.595000 -0.066530 0
1.600000 -0.065691 0
1.605000 -0.064819 0
1.610000 -0.063896 0
1.615000 -0.062896 0
1.620000 -0.061782 0
1.625000 -0.060503 0
1.630000 -0.058993 0
1.635000 -0.057165 0
1.640000 -0.054909 0
1.645000 -0.052089 0
1.650000 -0.048542 0
1.655000 -0.044082 0
1.660000 -0.038497 0
1.665000 -0.031563 0
1.670000 -0.023052 0
1.675000 -0.012749 0
1.680000 -0.000470 0
1.685000 0.013911 0
1.690000 0.030443 0
1.695000 0.049072 0
1.700000 0.069618 0
1.705000 0.091763 0
1.710000 0.115045 0
1.715000 0.138863 0
1.720000 0.162497 0
1.725000 0.185139 0
1.730000 0.205935 0
1.735000 0.224037 0
1.740000 0.238662 0
1.745000 0.249145 0
1.750000 0.254990 0
1.755000 0.255909 1
1.760000 0.251842 0
1.765000 0.242969 0
1.770000 0.229689 0
1.775000 0.212595 0
1.780000 0.192430 0
1.785000 0.170029 0
1.790000 0.146265 0
1.795000 0.121996 0
1.800000 0.098008 0
1.805000 0.074979 0
1.810000 0.053449 0
1.815000 0.033779 0
1.820000 0.016120 0
1.825000 0.000319 0
1.830000 -0.014212 0
1.835000 -0.028678 0
1.840000 -0.045011 0
1.845000 -0.065688 0
1.850000 -0.092991 0
1.855000 -0.127643 0
1.860000 -0.167166 0
1.865000 -0.204762 0
1.870000 -0.229480 2
1.875000 -0.227778 0
1.880000 -0.185795 0
1.885000 -0.091645 0
1.890000 0.061976 0
1.895000 0.273764 0
1.900000 0.528368 0
1.905000 0.792550 0
1.910000 1.018036 0
1.915000 1.153890 0
1.920000 1.164730 3
1.925000 1.045172 0
1.930000 0.822166 0
1.935000 0.544031 0
1.940000 0.262014 0
1.945000 0.015970 0
1.950000 -0.170985 0
1.955000 -0.290656 0
1.960000 -0.345755 0
1.965000 -0.346797 4
1.970000 -0.309681 0
1.975000 -0.252557 0
1.980000 -0.191844 0
1.985000 -0.138880 0
1.990000 -0.098708 0
1.995000 -0.071188 0
2.000000 -0.053328 0
2.005000 -0.041475 0
2.010000 -0.032615 0
2.015000 -0.024754 0
2.020000 -0.016762 0
2.025000 -0.008063 0
2.030000 0.001626 0
2.035000 0.012453 0
2.040000 0.024506 0
2.045000 0.037840 0
2.050000 0.052491 0
2.055000 0.068466 0
2.060000 0.085752 0
2.065000 0.104301 0
2.070000 0.124038 0
2.075000 0.144851 0
2.080000 0.166592 0
2.085000 0.189081 0
2.090000 0.212101 0
2.095000 0.235401 0
2.100000 0.258703 0
2.105000 0.281703 0
2.110000 0.304081 0
2.115000 0.325503 0
2.120000 0.345631 0
2.125000 0.364132 0
2.130000 0.380689 0
2.135000 0.395003 0
2.140000 0.406809 0
2.145000 0.415881 0
2.150000 0.422037 0
2.155000 0.425148 5
2.160000 0.425139 0
2.165000 0.421995 0
2.170000 0.415760 0
2.175000 0.406534 0
2.180000 0.394472 0
2.185000 0.379781 0
2.190000 0.362710 0
2.195000 0.343546 0
2.200000 0.322604 0
2.205000 0.300220 0
2.210000 0.276738 0
2.215000 0.252507 0
2.220000 0.227868 0
2.225000 0.203146 0
2.230000 0.178647 0
2.235000 0.154649 0
2.240000 0.131398 0
2.245000 0.109106 0
2.250000 0.087948 0
2.255000 0.068061 0
2.260000 0.049548 0
2.265000 0.032475 0
2.270000 0.016874 0
2.275000 0.002750 0
2.280000 -0.009920 0
2.285000 -0.021179 0
2.290000 -0.031089 0
2.295000 -0.039728 0
2.300000 -0.047181 0
2.305000 -0.053542 0
2.310000 -0.058909 0
2.315000 -0.063378 0
2.320000 -0.067048 0
2.325000 -0.070009 0
2.330000 -0.072351 0
2.335000 -0.074156 0
2.340000 -0.075499 0
2.345000 -0.076448 0
2.350000 -0.077065 0
2.355000 -0.077404 0
2.360000 -0.077511 0
2.365000 -0.077429 0
2.370000 -0.077192 0
2.375000 -0.076830 0
2.380000 -0.076368 0
2.385000 -0.075826 0
2.390000 -0.075223 0
2.395000 -0.074571 0
2.400000 -0.073882 0
2.405000 -0.073088 0
2.410000 -0.072280 0
2.415000 -0.071475 0
2.420000 -0.070675 0
2.425000 -0.069878 0
2.430000 -0.069085 0
2.435000 -0.068297 0
2.440000 -0.067512 0
2.445000 -0.066731 0
2.450000 -0.065954 0
2.455000 -0.065181 0
2.460000 -0.064412 0
2.465000 -0.063647 0
2.470000 -0.062885 0
2.475000 -0.062128 0
2.480000 -0.061374 0
2.485000 -0.060623 0
2.490000 -0.059877 0
2.495000 -0.059134 0
2.500000 -0.058395 0
2.505000 -0.057660 0
2.510000 -0.056928 0
2.515000 -0.056200 0
2.520000 -0.055475 0
2.525000 -0.054754 0
2.530000 -0.054036 0
2.535000 -0.053321 0
2.540000 -0.052607 0
2.545000 -0.051896 0
2.550000 -0.051183 0
2.555000 -0.050468 0
2.560000 -0.049746 0
2.565000 -0.049011 0
2.570000 -0.048254 0
2.575000 -0.047461 0
2.580000 -0.046612 0
2.585000 -0.045678 0
2.590000 -0.044621 0
2.595000 -0.043386 0
2.600000 -0.041903 0
2.605000 -0.040080 0
2.610000 -0.037799 0
2.615000 -0.034919 0
2.620000 -0.031270 0
2.625000 -0.026657 0
2.630000 -0.020864 0
2.635000 -0.013663 0
2.640000 -0.004825 0
2.645000 0.005861 0
2.650000 0.018568 0
2.655000 0.033409 0
2.660000 0.050407 0
2.665000 0.069477 0
2.670000 0.090404 0
2.675000 0.112828 0
2.680000 0.136246 0
2.685000 0.160017 0
2.690000 0.183385 0
2.695000 0.205519 0
2.700000 0.225553 0
2.705000 0.242645 0
2.710000 0.256035 0
2.715000 0.265099 0
2.720000 0.269394 1
2.725000 0.268698 0
2.730000 0.263028 0
2.735000 0.252635 0
2.740000 0.237988 0
2.745000 0.219739 0
2.750000 0.198673 0
2.755000 0.175651 0
2.760000 0.151556 0
2.765000 0.127231 0
2.770000 0.103438 0
2.775000 0.080815 0
2.780000 0.059846 0
2.785000 0.040828 0
2.790000 0.023813 0
2.795000 0.008509 0
2.800000 -0.005888 0
2.805000 -0.020861 0
2.810000 -0.038613 0
2.815000 -0.061689 0
2.820000 -0.091977 0
2.825000 -0.129134 0
2.830000 -0.169023 0
2.835000 -0.203018 0
2.840000 -0.218776 2
2.845000 -0.202226 0
2.850000 -0.139932 0
2.855000 -0.021449 0
2.860000 0.157554 0
2.865000 0.390447 0
2.870000 0.654243 0
2.875000 0.907980 0
2.880000 1.099770 0
2.885000 1.182865 3
2.890000 1.133761 0
2.895000 0.962275 0
2.900000 0.707524 0
2.905000 0.421663 0
2.910000 0.152242 0
2.915000 -0.068301 0
2.920000 -0.224157 0
2.925000 -0.312679 0
2.930000 -0.340591 4
2.935000 -0.321345 0
2.940000 -0.272468 0
2.945000 -0.211882 0
2.950000 -0.153949 0
2.955000 -0.107003 0
2.960000 -0.073329 0
2.965000 -0.051074 0
2.970000 -0.036673 0
2.975000 -0.026674 0
2.980000 -0.018553 0
2.985000 -0.010775 0
2.990000 -0.002524 0
2.995000 0.006606 0
3.000000 0.016815 0
3.005000 0.028215 0
3.010000 0.040878 0
3.015000 0.054846 0
3.020000 0.070143 0
3.025000 0.086764 0
3.030000 0.104679 0
3.035000 0.123826 0
3.040000 0.144108 0
3.045000 0.165395 0
3.050000 0.187521 0
3.055000 0.210283 0
3.060000 0.233445 0
3.065000 0.256740 0
3.070000 0.279872 0
3.075000 0.302527 0
3.080000 0.324372 0
3.085000 0.345070 0
3.090000 0.364283 0
3.095000 0.381683 0
3.100000 0.396961 0
3.105000 0.409834 0
3.110000 0.420058 0
3.115000 0.427429 0
3.120000 0.431794 0
3.125000 0.433056 5
3.130000 0.431174 0
3.135000 0.426166 0
3.140000 0.418111 0
3.145000 0.407143 0
3.150000 0.393448 0
3.155000 0.377262 0
3.160000 0.358857 0
3.165000 0.338542 0
3.170000 0.316645 0
3.175000 0.293512 0
3.180000 0.269492 0
3.185000 0.244932 0
3.190000 0.220166 0
3.195000 0.195510 0
3.200000 0.171255 0
3.205000 0.147660 0
3.210000 0.124952 0
3.215000 0.103321 0
3.220000 0.082919 0
3.225000 0.063861 0
3.230000 0.046227 0
3.235000 0.030061 0
3.240000 0.015377 0
3.245000 0.002163 0
3.250000 -0.009619 0
3.255000 -0.020025 0
3.260000 -0.029128 0
3.265000 -0.037012 0
3.270000 -0.043769 0
3.275000 -0.049495 0
3.280000 -0.054289 0
3.285000 -0.058249 0
3.290000 -0.061469 0
3.295000 -0.064039 0
3.300000 -0.066045 0
3.305000 -0.067564 0
3.310000 -0.068668 0
3.315000 -0.069419 0
3.320000 -0.069876 0
3.325000 -0.070086 0
3.330000 -0.070095 0
3.335000 -0.069938 0
3.340000 -0.069646 0
3.345000 -0.069248 0
3.350000 -0.068764 0
3.355000 -0.068213 0
3.360000 -0.067609 0
3.365000 -0.066966 0
3.370000 -0.066277 0
3.375000 -0.065502 0
3.380000 -0.064731 0
3.385000 -0.063964 0
3.390000 -0.063201 0
3.395000 -0.062442 0
3.400000 -0.061687 0
3.405000 -0.060935 0
3.410000 -0.060187 0
3.415000 -0.059443 0
3.420000 -0.058702 0
3.425000 -0.057965 0
3.430000 -0.057232 0
3.435000 -0.056502 0
3.440000 -0.055777 0
3.445000 -0.055054 0
3.450000 -0.054336 0
3.455000 -0.053621 0
3.460000 -0.052909 0
3.465000 -0.052201 0
3.470000 -0.051497 0
3.475000 -0.050796 0
3.480000 -0.050098 0
3.485000 -0.049404 0
3.490000 -0.048713 0
3.495000 -0.048025 0
3.500000 -0.047340 0
3.505000 -0.046657 0
3.510000 -0.045975 0
3.515000 -0.045294 0
3.520000 -0.044609 0
3.525000 -0.043919 0
3.530000 -0.043217 0
3.535000 -0.042494 0
3.540000 -0.041739 0
3.545000 -0.040931 0
3.550000 -0.040044 0
3.555000 -0.039041 0
3.560000 -0.037870 0
3.565000 -0.036464 0
3.570000 -0.034733 0
3.575000 -0.032565 0
3.580000 -0.029821 0
3.585000 -0.026335 0
3.590000 -0.021914 0
3.595000 -0.016345 0
3.600000 -0.009398 0
3.605000 -0.000843 0
3.610000 0.009536 0
3.615000 0.021921 0
3.620000 0.036434 0
3.625000 0.053114 0
3.630000 0.071891 0
3.635000 0.092567 0
3.640000 0.114800 0
3.645000 0.138101 0
3.650000 0.161843 0
3.655000 0.185279 0
3.660000 0.207578 0
3.665000 0.227873 0
3.670000 0.245310 0
3.675000 0.259114 0
3.680000 0.268637 0
3.685000 0.273416 1
3.690000 0.273202 0
3.695000 0.267988 0
3.700000 0.258003 0
3.705000 0.243701 0
3.710000 0.225720 0
3.715000 0.204842 0
3.720000 0.181928 0
3.725000 0.157866 0
3.730000 0.133508 0
3.735000 0.109630 0
3.740000 0.086882 0
3.745000 0.065764 0
3.750000 0.046588 0
3.755000 0.029428 0
3.760000 0.014013 0
3.765000 -0.000427 0
3.770000 -0.015341 0
3.775000 -0.032908 0
3.780000 -0.055689 0
3.785000 -0.085647 0
3.790000 -0.122581 0
3.795000 -0.162520 0
3.800000 -0.196971 0
3.805000 -0.213635 2
3.810000 -0.198384 0
3.815000 -0.137649 0
3.820000 -0.020800 0
3.825000 0.156738 0
3.830000 0.388630 0
3.835000 0.652150 0
3.840000 0.906413 0
3.845000 1.099319 0
3.850000 1.183677 3
3.855000 1.134577 0
3.860000 0.960471 0
3.865000 0.702937 0
3.870000 0.416824 0
3.875000 0.151101 0
3.880000 -0.061962 0
3.885000 -0.207701 0
3.890000 -0.285019 0
3.895000 -0.302382 4
3.900000 -0.275022 0
3.905000 -0.221800 0
3.910000 -0.160940 0
3.915000 -0.105925 0
3.920000 -0.063484 0
3.925000 -0.034332 0
3.930000 -0.015626 0
3.935000 -0.003509 0
3.940000 0.005300 0
3.945000 0.012988 0
3.950000 0.020785 0
3.955000 0.029308 0
3.960000 0.038856 0
3.965000 0.049581 0
3.970000 0.061575 0
3.975000 0.074895 0
3.980000 0.089572 0
3.985000 0.105615 0
3.990000 0.123000 0
3.995000 0.141674 0
4.000000 0.161546 0
4.005000 0.182489 0
4.010000 0.204338 0
4.015000 0.226889 0
4.020000 0.249898 0
4.025000 0.273092 0
4.030000 0.296164 0
4.035000 0.318784 0
4.040000 0.340605 0
4.045000 0.361273 0
4.050000 0.380432 0
4.055000 0.397736 0
4.060000 0.412861 0
4.065000 0.425511 0
4.070000 0.435430 0
4.075000 0.442409 0
4.080000 0.446293 0
4.085000 0.446986 5
4.090000 0.444456 0
4.095000 0.438732 0
4.100000 0.429910 0
4.105000 0.418142 0
4.110000 0.403640 0
4.115000 0.386661 0
4.120000 0.367505 0
4.125000 0.346502 0
4.130000 0.324008 0
4.135000 0.300385 0
4.140000 0.276002 0
4.145000 0.251219 0
4.150000 0.226378 0
4.155000 0.201799 0
4.160000 0.177771 0
4.165000 0.154551 0
4.170000 0.132353 0
4.175000 0.111356 0
4.180000 0.091694 0
4.185000 0.073465 0
4.190000 0.056729 0
4.195000 0.041509 0
4.200000 0.027801 0
4.205000 0.015572 0
4.210000 0.004766 0
4.215000 -0.004688 0
4.220000 -0.012878 0
4.225000 -0.019897 0
4.230000 -0.025848 0
4.235000 -0.030834 0
4.240000 -0.034957 0
4.245000 -0.038317 0
4.250000 -0.041009 0
4.255000 -0.043123 0
4.260000 -0.044738 0
4.265000 -0.045931 0
4.270000 -0.046768 0
4.275000 -0.047307 0
4.280000 -0.047599 0
4.285000 -0.047690 0
4.290000 -0.047616 0
4.295000 -0.047411 0
4.300000 -0.047100 0
4.305000 -0.046707 0
4.310000 -0.046248 0
4.315000 -0.045739 0
4.320000 -0.045192 0
4.325000 -0.044541 0
4.330000 -0.043875 0
4.335000 -0.043212 0
4.340000 -0.042552 0
4.345000 -0.041896 0
4.350000 -0.041243 0
4.355000 -0.040593 0
4.360000 -0.039947 0
4.365000 -0.039303 0
4.370000 -0.038663 0
4.375000 -0.038026 0
4.380000 -0.037393 0
4.385000 -0.036762 0
4.390000 -0.036135 0
4.395000 -0.035510 0
4.400000 -0.034889 0
4.405000 -0.034271 0
4.410000 -0.033656 0
4.415000 -0.033044 0
4.420000 -0.032435 0
4.425000 -0.031829 0
4.430000 -0.031226 0
4.435000 -0.030626 0
4.440000 -0.030029 0
4.445000 -0.029434 0
4.450000 -0.028842 0
4.455000 -0.028251 0
4.460000 -0.027661 0
4.465000 -0.027070 0
4.470000 -0.026476 0
4.475000 -0.025875 0
4.480000 -0.025260 0
4.485000 -0.024621 0
4.490000 -0.023945 0
4.495000 -0.023210 0
4.500000 -0.022386 0
4.505000 -0.021429 0
4.510000 -0.020282 0
4.515000 -0.018866 0
4.520000 -0.017081 0
4.525000 -0.014798 0
4.530000 -0.011862 0
4.535000 -0.008085 0
4.540000 -0.003254 0
4.545000 0.002862 0
4.550000 0.010508 0
4.555000 0.019921 0
4.560000 0.031312 0
4.565000 0.044840 0
4.570000 0.060588 0
4.575000 0.078529 0
4.580000 0.098509 0
4.585000 0.120222 0
4.590000 0.143204 0
4.595000 0.166836 0
4.600000 0.190366 0
4.605000 0.212939 0
4.610000 0.233646 0
4.615000 0.251583 0
4.620000 0.265917 0
4.625000 0.275943 0
4.630000 0.281149 0
4.635000 0.281250 1
4.640000 0.276220 0
4.645000 0.266287 0
4.650000 0.251923 0
4.655000 0.233801 0
4.660000 0.212742 0
4.665000 0.189657 0
4.670000 0.165474 0
4.675000 0.141085 0
4.680000 0.117289 0
4.685000 0.094746 0
4.690000 0.073950 0
4.695000 0.055182 0
4.700000 0.038446 0
4.705000 0.023341 0
4.710000 0.008873 0
4.715000 -0.006726 0
4.720000 -0.025945 0
4.725000 -0.051401 0
4.730000 -0.084488 0
4.735000 -0.123545 0
4.740000 -0.162350 0
4.745000 -0.189961 0
4.750000 -0.192228 2
4.755000 -0.154303 0
4.760000 -0.063256 0
4.765000 0.089015 0
4.770000 0.301314 0
4.775000 0.557025 0
4.780000 0.819891 0
4.785000 1.037756 0
4.790000 1.157329 3
4.795000 1.144177 0
4.800000 0.998053 0
4.805000 0.755199 0
4.810000 0.470777 0
4.815000 0.197817 0
4.820000 -0.026629 0
4.825000 -0.184308 0
4.830000 -0.272005 0
4.835000 -0.297095 4
4.840000 -0.274438 0
4.845000 -0.223194 0
4.850000 -0.162423 0
4.855000 -0.106613 0
4.860000 -0.063271 0
4.865000 -0.033490 0
4.870000 -0.014473 0
4.875000 -0.002255 0
4.880000 0.006564 0
4.885000 0.014245 0
4.890000 0.022048 0
4.895000 0.030602 0
4.900000 0.040205 0
4.905000 0.051012 0
4.910000 0.063112 0
4.915000 0.076562 0
4.920000 0.091393 0
4.925000 0.107610 0
4.930000 0.125185 0
4.935000 0.144058 0
4.940000 0.164130 0
4.945000 0.185264 0
4.950000 0.207280 0
4.955000 0.229961 0
4.960000 0.253050 0
4.965000 0.276256 0
4.970000 0.299256 0
4.975000 0.321706 0
4.980000 0.343244 0
4.985000 0.363504 0
4.990000 0.382122 0
4.995000 0.398748 0
5.000000 0.413055 0
5.005000 0.424753 0
5.010000 0.433595 0
5.015000 0.439385 0
5.020000 0.441987 5
5.025000 0.441329 0
5.030000 0.437405 0
5.035000 0.430274 0
5.040000 0.420062 0
5.045000 0.406957 0
5.050000 0.391198 0
5.055000 0.373074 0
5.060000 0.352912 0
5.065000 0.331066 0
5.070000 0.307908 0
5.075000 0.283816 0
5.080000 0.259165 0
5.085000 0.234317 0
5.090000 0.209610 0
5.095000 0.185357 0
5.100000 0.161832 0
5.105000 0.139274 0
5.110000 0.117877 0
5.115000 0.097797 0
5.120000 0.079143 0
5.125000 0.061990 0
5.130000 0.046372 0
5.135000 0.032291 0
5.140000 0.019720 0
5.145000 0.008607 0
5.150000 -0.001119 0
5.155000 -0.009544 0
5.160000 -0.016765 0
5.165000 -0.022885 0
5.170000 -0.028010 0
5.175000 -0.032246 0
5.180000 -0.035697 0
5.185000 -0.038460 0
5.190000 -0.040627 0
5.195000 -0.042285 0
5.200000 -0.043509 0
5.205000 -0.044369 0
5.210000 -0.044925 0
5.215000 -0.045230 0
5.220000 -0.045331 0
5.225000 -0.045266 0
5.230000 -0.045067 0
5.235000 -0.044763 0
5.240000 -0.044376 0
5.245000 -0.043924 0
5.250000 -0.043422 0
5.255000 -0.042883 0
5.260000 -0.042242 0
5.265000 -0.041588 0
5.270000 -0.040936 0
5.275000 -0.040288 0
5.280000 -0.039643 0
5.285000 -0.039001 0
5.290000 -0.038363 0
5.295000 -0.037727 0
5.300000 -0.037095 0
5.305000 -0.036466 0
5.310000 -0.035840 0
5.315000 -0.035217 0
5.320000 -0.034597 0
5.325000 -0.033981 0
5.330000 -0.033367 0
5.335000 -0.032757 0
5.340000 -0.032149 0
5.345000 -0.031545 0
5.350000 -0.030943 0
5.355000 -0.030345 0
5.360000 -0.029749 0
5.365000 -0.029157 0
5.370000 -0.028567 0
5.375000 -0.027980 0
5.380000 -0.027395 0
5.385000 -0.026812 0
5.390000 -0.026231 0
5.395000 -0.025649 0
5.400000 -0.025065 0
5.405000 -0.024476 0
5.410000 -0.023876 0
5.415000 -0.023257 0
5.420000 -0.022605 0
5.425000 -0.021903 0
5.430000 -0.021123 0
5.435000 -0.020226 0
5.440000 -0.019157 0
5.445000 -0.017843 0
5.450000 -0.016189 0
5.455000 -0.014071 0
5.460000 -0.011336 0
5.465000 -0.007800 0
5.470000 -0.003252 0
5.475000 0.002546 0
5.480000 0.009842 0
5.485000 0.018885 0
5.490000 0.029898 0
5.495000 0.043059 0
5.500000 0.058465 0
5.505000 0.076111 0
5.510000 0.095856 0
5.515000 0.117403 0
5.520000 0.140295 0
5.525000 0.163907 0
5.530000 0.187474 0
5.535000 0.210120 0
5.540000 0.230911 0
5.545000 0.248915 0
5.550000 0.263270 0
5.555000 0.273253 0
5.560000 0.278335 1
5.565000 0.278232 0
5.570000 0.272926 0
5.575000 0.262669 0
5.580000 0.247961 0
5.585000 0.229512 0
5.590000 0.208179 0
5.595000 0.184904 0
5.600000 0.160644 0
5.605000 0.136306 0
5.610000 0.112690 0
5.615000 0.090452 0
5.620000 0.070060 0
5.625000 0.051752 0
5.630000 0.035453 0
5.635000 0.020624 0
5.640000 0.006053 0
5.645000 -0.010302 0
5.650000 -0.031132 0
5.655000 -0.058933 0
5.660000 -0.094361 0
5.665000 -0.134287 0
5.670000 -0.170573 0
5.675000 -0.190519 2
5.680000 -0.178969 0
5.685000 -0.121085 0
5.690000 -0.005131 0
5.695000 0.173923 0
5.700000 0.408764 0
5.705000 0.673434 0
5.710000 0.921890 0
5.715000 1.097420 0
5.720000 1.152479 3
5.725000 1.069447 0
5.730000 0.868636 0
5.735000 0.597988 0
5.740000 0.313453 0
5.745000 0.060762 0
5.750000 -0.132673 0
5.755000 -0.256570 0
5.760000 -0.313207 0
5.765000 -0.313719 4
5.770000 -0.275272 0
5.775000 -0.217388 0
5.780000 -0.157346 0
5.785000 -0.106487 0
5.790000 -0.069185 0
5.795000 -0.044462 0
5.800000 -0.028753 0
5.805000 -0.018234 0
5.810000 -0.010006 0
5.815000 -0.002284 0
5.820000 0.005873 0
5.825000 0.014925 0
5.830000 0.025093 0
5.835000 0.036498 0
5.840000 0.049214 0
5.845000 0.063289 0
5.850000 0.078741 0
5.855000 0.095565 0
5.860000 0.113721 0
5.865000 0.133136 0
5.870000 0.153698 0
5.875000 0.175256 0
5.880000 0.197619 0
5.885000 0.220559 0
5.890000 0.243808 0
5.895000 0.267067 0
5.900000 0.290008 0
5.905000 0.312286 0
5.910000 0.333538 0
5.915000 0.353402 0
5.920000 0.371521 0
5.925000 0.387554 0
5.930000 0.401188 0
5.935000 0.412148 0
5.940000 0.420203 0
5.945000 0.425176 0
5.950000 0.426950 5
5.955000 0.425472 0
5.960000 0.420752 0
5.965000 0.412870 0
5.970000 0.401965 0
5.975000 0.388237 0
5.980000 0.371938 0
5.985000 0.353362 0
5.990000 0.332841 0
5.995000 0.310730 0
6.000000 0.287401 0
6.005000 0.263228 0
6.010000 0.238580 0
6.015000 0.213810 0
6.020000 0.189250 0
6.025000 0.165200 0
6.030000 0.141926 0
6.035000 0.119654 0
6.040000 0.098571 0
6.045000 0.078821 0
6.050000 0.060508 0
6.055000 0.043695 0
6.060000 0.028413 0
6.065000 0.014657 0
6.070000 0.002396 0
6.075000 -0.008423 0
6.080000 -0.017875 0
6.085000 -0.026046 0
6.090000 -0.033032 0
6.095000 -0.038938 0
6.100000 -0.043868 0
6.105000 -0.047927 0
6.110000 -0.051216 0
6.115000 -0.053833 0
6.120000 -0.055867 0
6.125000 -0.057402 0
6.130000 -0.058513 0
6.135000 -0.059268 0
6.140000 -0.059727 0
6.145000 -0.059941 0
6.150000 -0.059954 0
6.155000 -0.059805 0
6.160000 -0.059526 0
6.165000 -0.059144 0
6.170000 -0.058681 0
6.175000 -0.058155 0
6.180000 -0.057580 0
6.185000 -0.056969 0
6.190000 -0.056258 0
6.195000 -0.055533 0
6.200000 -0.054812 0
6.205000 -0.054095 0
6.210000 -0.053381 0
6.215000 -0.052671 0
6.220000 -0.051964 0
6.225000 -0.051261 0
6.230000 -0.050561 0
6.235000 -0.049865 0
6.240000 -0.049172 0
6.245000 -0.048482 0
6.250000 -0.047797 0
6.255000 -0.047114 0
6.260000 -0.046435 0
6.265000 -0.045759 0
6.270000 -0.045087 0
6.275000 -0.044418 0
6.280000 -0.043752 0
6.285000 -0.043090 0
6.290000 -0.042431 0
6.295000 -0.041775 0
6.300000 -0.041122 0
6.305000 -0.040473 0
6.310000 -0.039826 0
6.315000 -0.039181 0
6.320000 -0.038538 0
6.325000 -0.037895 0
6.330000 -0.037251 0
6.335000 -0.036602 0
6.340000 -0.035944 0
6.345000 -0.035267 0
6.350000 -0.034562 0
6.355000 -0.033809 0
6.360000 -0.032982 0
6.365000 -0.032046 0
6.370000 -0.030948 0
6.375000 -0.029619 0
6.380000 -0.027968 0
6.385000 -0.025878 0
6.390000 -0.023201 0
6.395000 -0.019761 0
6.400000 -0.015353 0
6.405000 -0.009745 0
6.410000 -0.002693 0
6.415000 0.006049 0
6.420000 0.016712 0
6.425000 0.029480 0
6.430000 0.044470 0
6.435000 0.061699 0
6.440000 0.081058 0
6.445000 0.102289 0
6.450000 0.124974 0
6.455000 0.148532 0
6.460000 0.172234 0
6.465000 0.195237 0
6.470000 0.216624 0
6.475000 0.235465 0
6.480000 0.250885 0
6.485000 0.262124 0
6.490000 0.268605 0
6.495000 0.269978 1
6.500000 0.266151 0
6.505000 0.257301 0
6.510000 0.243857 0
6.515000 0.226467 0
6.520000 0.205943 0
6.525000 0.183201 0
6.530000 0.159190 0
6.535000 0.134829 0
6.540000 0.110950 0
6.545000 0.088250 0
6.550000 0.067258 0
6.555000 0.048291 0
6.560000 0.031390 0
6.565000 0.016201 0
6.570000 0.001777 0
6.575000 -0.013613 0
6.580000 -0.032460 0
6.585000 -0.057454 0
6.590000 -0.090138 0
6.595000 -0.129006 0
6.600000 -0.167910 0
6.605000 -0.195822 0
6.610000 -0.198355 2
6.615000 -0.160370 0
6.620000 -0.068688 0
6.625000 0.084876 0
6.630000 0.298837 0
6.635000 0.555683 0
6.640000 0.817663 0
6.645000 1.031135 0
6.650000 1.142394 3
6.655000 1.119773 0
6.660000 0.967816 0
6.665000 0.722861 0
6.670000 0.438349 0
6.675000 0.165271 0
6.680000 -0.060563 0
6.685000 -0.221173 0
6.690000 -0.312945 0
6.695000 -0.342454 4
6.700000 -0.323533 0
6.705000 -0.274409 0
6.710000 -0.213712 0
6.715000 -0.156215 0
6.720000 -0.110236 0
6.725000 -0.077758 0
6.730000 -0.056580 0
6.735000 -0.042935 0
6.740000 -0.033334 0
6.745000 -0.025320 0
6.750000 -0.017452 0
6.755000 -0.008988 0
6.760000 0.000434 0
6.765000 0.010994 0
6.770000 0.022793 0
6.775000 0.035898 0
6.780000 0.050348 0
6.785000 0.066156 0
6.790000 0.083310 0
6.795000 0.101767 0
6.800000 0.121447 0
6.805000 0.142236 0
6.810000 0.163983 0
6.815000 0.186497 0
6.820000 0.209549 0
6.825000 0.232877 0
6.830000 0.256187 0
6.835000 0.279160 0
6.840000 0.301455 0
6.845000 0.322724 0
6.850000 0.342612 0
6.855000 0.360772 0
6.860000 0.376873 0
6.865000 0.390612 0
6.870000 0.401719 0
6.875000 0.409968 0
6.880000 0.415185 0
6.885000 0.417253 5
6.890000 0.416115 0
6.895000 0.411776 0
6.900000 0.404307 0
6.905000 0.393837 0
6.910000 0.380552 0
6.915000 0.364691 0
6.920000 0.346536 0
6.925000 0.326402 0
6.930000 0.304633 0
6.935000 0.281588 0
6.940000 0.257629 0
6.945000 0.233119 0
6.950000 0.208406 0
6.955000 0.183819 0
6.960000 0.159657 0
6.965000 0.136190 0
6.970000 0.113649 0
6.975000 0.092228 0
6.980000 0.072080 0
6.985000 0.053319 0
6.990000 0.036021 0
6.995000 0.020226 0
7.000000 0.005942 0
7.005000 -0.006852 0
7.010000 -0.018199 0
7.015000 -0.028164 0
7.020000 -0.036826 0
7.025000 -0.044275 0
7.030000 -0.050611 0
7.035000 -0.055934 0
7.040000 -0.060346 0
7.045000 -0.063949 0
7.050000 -0.066840 0
7.055000 -0.069109 0
7.060000 -0.070841 0
7.065000 -0.072116 0
7.070000 -0.073001 0
7.075000 -0.073560 0
7.080000 -0.073848 0
7.085000 -0.073913 0
7.090000 -0.073794 0
7.095000 -0.073528 0
7.100000 -0.073144 0
7.105000 -0.072665 0
7.110000 -0.072113 0
7.115000 -0.071504 0
7.120000 -0.070851 0
7.125000 -0.070148 0
7.130000 -0.069354 0
7.135000 -0.068564 0
7.140000 -0.067778 0
7.145000 -0.066996 0
7.150000 -0.066218 0
7.155000 -0.065444 0
7.160000 -0.064673 0
7.165000 -0.063907 0
7.170000 -0.063144 0
7.175000 -0.062385 0
7.180000 -0.061630 0
7.185000 -0.060878 0
7.190000 -0.060130 0
7.195000 -0.059386 0
7.200000 -0.058646 0
7.205000 -0.057910 0
7.210000 -0.057177 0
7.215000 -0.056447 0
7.220000 -0.055722 0
7.225000 -0.055000 0
7.230000 -0.054281 0
7.235000 -0.053566 0
7.240000 -0.052855 0
7.245000 -0.052147 0
7.250000 -0.051441 0
7.255000 -0.050739 0
7.260000 -0.050038 0
7.265000 -0.049339 0
7.270000 -0.048638 0
7.275000 -0.047934 0
7.280000 -0.047222 0
7.285000 -0.046494 0
7.290000 -0.045740 0
7.295000 -0.044943 0
7.300000 -0.044081 0
7.305000 -0.043120 0
7.310000 -0.042015 0
7.315000 -0.040701 0
7.320000 -0.039097 0
7.325000 -0.037095 0
7.330000 -0.034561 0
7.335000 -0.031334 0
7.340000 -0.027220 0
7.345000 -0.022004 0
7.350000 -0.015450 0
7.355000 -0.007318 0
7.360000 0.002624 0
7.365000 0.014577 0
7.370000 0.028683 0
7.375000 0.045003 0
7.380000 0.063486 0
7.385000 0.083948 0
7.390000 0.106053 0
7.395000 0.129310 0
7.400000 0.153078 0
7.405000 0.176586 0
7.410000 0.198972 0
7.415000 0.219333 0
7.420000 0.236779 0
7.425000 0.250501 0
7.430000 0.259832 0
7.435000 0.264297 1
7.440000 0.263656 0
7.445000 0.257922 0
7.450000 0.247364 0
7.455000 0.232482 0
7.460000 0.213969 0
7.465000 0.192655 0
7.470000 0.169451 0
7.475000 0.145277 0
7.480000 0.121007 0
7.485000 0.097417 0
7.490000 0.075146 0
7.495000 0.054658 0
7.500000 0.036207 0
7.505000 0.019759 0
7.510000 0.004863 0
7.515000 -0.009539 0
7.520000 -0.025280 0
7.525000 -0.044876 0
7.530000 -0.070879 0
7.535000 -0.104489 0
7.540000 -0.143731 0
7.545000 -0.182054 0
7.550000 -0.208300 2
7.555000 -0.208298 0
7.560000 -0.167367 0
7.565000 -0.072886 0
7.570000 0.082798 0
7.575000 0.297848 0
7.580000 0.554892 0
7.585000 0.817096 0
7.590000 1.032319 0
7.595000 1.148030 3
7.600000 1.133161 0
7.605000 0.991537 0
7.610000 0.755032 0
7.615000 0.472931 0
7.620000 0.194458 0
7.625000 -0.043734 0
7.630000 -0.221364 0
7.635000 -0.332126 0
7.640000 -0.379832 4
7.645000 -0.375580 0
7.650000 -0.335408 0
7.655000 -0.277151 0
7.660000 -0.216582 0
7.665000 -0.164325 0
7.670000 -0.124888 0
7.675000 -0.097867 0
7.680000 -0.080233 0
7.685000 -0.068406 0
7.690000 -0.059463 0
7.695000 -0.051474 0
7.700000 -0.043344 0
7.705000 -0.034512 0
7.710000 -0.024701 0
7.715000 -0.013765 0
7.720000 -0.001618 0
7.725000 0.011798 0
7.730000 0.026514 0
7.735000 0.042543 0
7.740000 0.059869 0
7.745000 0.078450 0
7.750000 0.098214 0
7.755000 0.119053 0
7.760000 0.140826 0
7.765000 0.163359 0
7.770000 0.186442 0
7.775000 0.209835 0
7.780000 0.233265 0
7.785000 0.256441 0
7.790000 0.279046 0
7.795000 0.300757 0
7.800000 0.321241 0
7.805000 0.340171 0
7.810000 0.357231 0
7.815000 0.372124 0
7.820000 0.384584 0
7.825000 0.394378 0
7.830000 0.401318 0
7.835000 0.405266 0
7.840000 0.406136 5
7.845000 0.403897 0
7.850000 0.398578 0
7.855000 0.390263 0
7.860000 0.379090 0
7.865000 0.365248 0
7.870000 0.348969 0
7.875000 0.330526 0
7.880000 0.310220 0
7.885000 0.288375 0
7.890000 0.265327 0
7.895000 0.241418 0
7.900000 0.216986 0
7.905000 0.192357 0
7.910000 0.167839 0
7.915000 0.143717 0
7.920000 0.120243 0
7.925000 0.097640 0
7.930000 0.076094 0
7.935000 0.055756 0
7.940000 0.036740 0
7.945000 0.019125 0
7.950000 0.002959 0
7.955000 -0.011742 0
7.960000 -0.024988 0
7.965000 -0.036814 0
7.970000 -0.047271 0
7.975000 -0.056430 0
7.980000 -0.064370 0
7.985000 -0.071180 0
7.990000 -0.076955 0
7.995000 -0.081789 0
8.000000 -0.085780 0
8.005000 -0.089020 0
8.010000 -0.091598 0
8.015000 -0.093599 0
8.020000 -0.095100 0
8.025000 -0.096172 0
8.030000 -0.096881 0
8.035000 -0.097283 0
8.040000 -0.097428 0
8.045000 -0.097362 0
8.050000 -0.097120 0
8.055000 -0.096738 0
8.060000 -0.096240 0
8.065000 -0.095652 0
8.070000 -0.094992 0
8.075000 -0.094275 0
8.080000 -0.093515 0
8.085000 -0.092722 0
8.090000 -0.091832 0
8.095000 -0.090930 0
8.100000 -0.090033 0
8.105000 -0.089139 0
8.110000 -0.088251 0
8.115000 -0.087367 0
8.120000 -0.086487 0
8.125000 -0.085611 0
8.130000 -0.084740 0
8.135000 -0.083874 0
8.140000 -0.083011 0
8.145000 -0.082153 0
8.150000 -0.081299 0
8.155000 -0.080450 0
8.160000 -0.079604 0
8.165000 -0.078763 0
8.170000 -0.077926 0
8.175000 -0.077094 0
8.180000 -0.076265 0
8.185000 -0.075441 0
8.190000 -0.074620 0
8.195000 -0.073804 0
8.200000 -0.072991 0
8.205000 -0.072183 0
8.210000 -0.071378 0
8.215000 -0.070577 0
8.220000 -0.069779 0
8.225000 -0.068984 0
8.230000 -0.068191 0
8.235000 -0.067397 0
8.240000 -0.066601 0
8.245000 -0.065799 0
8.250000 -0.064984 0
8.255000 -0.064147 0
8.260000 -0.063276 0
8.265000 -0.062351 0
8.270000 -0.061344 0
8.275000 -0.060217 0
8.280000 -0.058918 0
8.285000 -0.057379 0
8.290000 -0.055511 0
8.295000 -0.053201 0
8.300000 -0.050314 0
8.305000 -0.046684 0
8.310000 -0.042123 0
8.315000 -0.036421 0
8.320000 -0.029354 0
8.325000 -0.020699 0
8.330000 -0.010243 0
8.335000 0.002191 0
8.340000 0.016723 0
8.345000 0.033396 0
8.350000 0.052146 0
8.355000 0.072787 0
8.360000 0.094997 0
8.365000 0.118310 0
8.370000 0.142125 0
8.375000 0.165725 0
8.380000 0.188306 0
8.385000 0.209024 0
8.390000 0.227040 0
8.395000 0.241580 0
8.400000 0.251990 0
8.405000 0.257781 0
8.410000 0.258669 1
8.415000 0.254597 0
8.420000 0.245742 0
8.425000 0.232498 0
8.430000 0.215450 0
8.435000 0.195331 0
8.440000 0.172967 0
8.445000 0.149223 0
8.450000 0.124947 0
8.455000 0.100922 0
8.460000 0.077826 0
8.465000 0.056197 0
8.470000 0.036407 0
8.475000 0.018615 0
8.480000 0.002694 0
8.485000 -0.011903 0
8.490000 -0.026319 0
8.495000 -0.042412 0
8.500000 -0.062608 0
8.505000 -0.089231 0
8.510000 -0.123212 0
8.515000 -0.162475 0
8.520000 -0.200750 0
8.525000 -0.227587 0
8.530000 -0.229763 2
8.535000 -0.193470 0
8.540000 -0.106577 0
8.545000 0.038919 0
8.550000 0.243167 0
8.555000 0.493222 0
8.560000 0.758764 0
8.565000 0.993660 0
8.570000 1.146751 0
8.575000 1.179359 3
8.580000 1.080805 0
8.585000 0.872915 0
8.590000 0.600903 0
8.595000 0.316017 0
8.600000 0.060368 0
8.605000 -0.139971 0
8.610000 -0.274209 0
8.615000 -0.343016 0
8.620000 -0.355245 4
8.625000 -0.325568 0
8.630000 -0.271680 0
8.635000 -0.210535 0
8.640000 -0.154785 0
8.645000 -0.110991 0
8.650000 -0.080182 0
8.655000 -0.059941 0
8.660000 -0.046678 0
8.665000 -0.037167 0
8.670000 -0.029144 0
8.675000 -0.021267 0
8.680000 -0.012828 0
8.685000 -0.003478 0
8.690000 0.006961 0
8.695000 0.018590 0
8.700000 0.031474 0
8.705000 0.045653 0
8.710000 0.061147 0
8.715000 0.077949 0
8.720000 0.096025 0
8.725000 0.115312 0
8.730000 0.135714 0
8.735000 0.157100 0
8.740000 0.179306 0
8.745000 0.202131 0
8.750000 0.225343 0
8.755000 0.248679 0
8.760000 0.271851 0
8.765000 0.294550 0
8.770000 0.316451 0
8.775000 0.337223 0
8.780000 0.356535 0
8.785000 0.374066 0
8.790000 0.389511 0
8.795000 0.402594 0
8.800000 0.413070 0
8.805000 0.420739 0
8.810000 0.425445 0
8.815000 0.427087 5
8.820000 0.425619 0
8.825000 0.421053 0
8.830000 0.413457 0
8.835000 0.402955 0
8.840000 0.389724 0
8.845000 0.373985 0
8.850000 0.356000 0
8.855000 0.336065 0
8.860000 0.314500 0
8.865000 0.291639 0
8.870000 0.267826 0
8.875000 0.243400 0
8.880000 0.218692 0
8.885000 0.194018 0
8.890000 0.169668 0
8.895000 0.145906 0
8.900000 0.122963 0
8.905000 0.101034 0
8.910000 0.080281 0
8.915000 0.060826 0
8.920000 0.042760 0
8.925000 0.026135 0
8.930000 0.010977 0
8.935000 -0.002719 0
8.940000 -0.014982 0
8.945000 -0.025859 0
8.950000 -0.035418 0
8.955000 -0.043735 0
8.960000 -0.050898 0
8.965000 -0.057001 0
8.970000 -0.062140 0
8.975000 -0.066411 0
8.980000 -0.069908 0
8.985000 -0.072721 0
8.990000 -0.074938 0
8.995000 -0.076636 0
9.000000 -0.077890 0
9.005000 -0.078764 0
9.010000 -0.079319 0
9.015000 -0.079606 0
9.020000 -0.079670 0
9.025000 -0.079552 0
9.030000 -0.079285 0
9.035000 -0.078898 0
9.040000 -0.078414 0
9.045000 -0.077854 0
9.050000 -0.077234 0
9.055000 -0.076568 0
9.060000 -0.075866 0
9.065000 -0.075062 0
9.070000 -0.074243 0
9.075000 -0.073429 0
9.080000 -0.072619 0
9.085000 -0.071812 0
9.090000 -0.071010 0
9.095000 -0.070212 0
9.100000 -0.069418 0
9.105000 -0.068627 0
9.110000 -0.067841 0
9.115000 -0.067058 0
9.120000 -0.066280 0
9.125000 -0.065505 0
9.130000 -0.064734 0
9.135000 -0.063967 0
9.140000 -0.063204 0
9.145000 -0.062445 0
9.150000 -0.061690 0
9.155000 -0.060938 0
9.160000 -0.060190 0
9.165000 -0.059445 0
9.170000 -0.058705 0
9.175000 -0.057968 0
9.180000 -0.057234 0
9.185000 -0.056504 0
9.190000 -0.055777 0
9.195000 -0.055054 0
9.200000 -0.054332 0
9.205000 -0.053612 0
9.210000 -0.052892 0
9.215000 -0.052169 0
9.220000 -0.051441 0
9.225000 -0.050701 0
9.230000 -0.049940 0
9.235000 -0.049147 0
9.240000 -0.048302 0
9.245000 -0.047379 0
9.250000 -0.046343 0
9.255000 -0.045142 0
9.260000 -0.043711 0
9.265000 -0.041965 0
9.270000 -0.039792 0
9.275000 -0.037061 0
9.280000 -0.033609 0
9.285000 -0.029251 0
9.290000 -0.023778 0
9.295000 -0.016968 0
9.300000 -0.008594 0
9.305000 0.001558 0
9.310000 0.013671 0
9.315000 0.027876 0
9.320000 0.044225 0
9.325000 0.062669 0
9.330000 0.083037 0
9.335000 0.105022 0
9.340000 0.128173 0
9.345000 0.151902 0
9.350000 0.175503 0
9.355000 0.198176 0
9.360000 0.219076 0
9.365000 0.237358 0
9.370000 0.252238 0
9.375000 0.263042 0
9.380000 0.269261 0
9.385000 0.270589 1
9.390000 0.266945 0
9.395000 0.258482 0
9.400000 0.245577 0
9.405000 0.228800 0
9.410000 0.208873 0
9.415000 0.186620 0
9.420000 0.162906 0
9.425000 0.138587 0
9.430000 0.114454 0
9.435000 0.091199 0
9.440000 0.069375 0
9.445000 0.049369 0
9.450000 0.031361 0
9.455000 0.015250 0
9.460000 0.000527 0
9.465000 -0.013904 0
9.470000 -0.029854 0
9.475000 -0.049728 0
9.480000 -0.075902 0
9.485000 -0.109459 0
9.490000 -0.148570 0
9.495000 -0.187242 0
9.500000 -0.215237 0
9.505000 -0.219403 2
9.510000 -0.185860 0
9.515000 -0.102271 0
9.520000 0.039718 0
9.525000 0.240840 0
9.530000 0.488978 0
9.535000 0.754691 0
9.540000 0.992348 0
9.545000 1.150493 0
9.550000 1.189293 3
9.555000 1.096896 0
9.560000 0.893798 0
9.565000 0.624021 0
9.570000 0.338518 0
9.575000 0.079906 0
9.580000 -0.124872 0
9.585000 -0.264168 0
9.590000 -0.337931 0
9.595000 -0.354387 4
9.600000 -0.327700 0
9.605000 -0.275293 0
9.610000 -0.214214 0
9.615000 -0.157530 0
9.620000 -0.112366 0
9.625000 -0.080232 0
9.630000 -0.058984 0
9.635000 -0.045099 0
9.640000 -0.035289 0
9.645000 -0.027184 0
9.650000 -0.019354 0
9.655000 -0.011031 0
9.660000 -0.001836 0
9.665000 0.008424 0
9.670000 0.019857 0
9.675000 0.032532 0
9.680000 0.046492 0
9.685000 0.061759 0
9.690000 0.078331 0
9.695000 0.096179 0
9.700000 0.115246 0
9.705000 0.135441 0
9.710000 0.156643 0
9.715000 0.178692 0
9.720000 0.201398 0
9.725000 0.224536 0
9.730000 0.247851 0
9.735000 0.271062 0
9.740000 0.293865 0
9.745000 0.315942 0
9.750000 0.336965 0
9.755000 0.356606 0
9.760000 0.374542 0
9.765000 0.390468 0
9.770000 0.404103 0
9.775000 0.415195 0
9.780000 0.423535 0
9.785000 0.428959 0
9.790000 0.431351 5
9.795000 0.430653 0
9.800000 0.426862 0
9.805000 0.420030 0
9.810000 0.410268 0
9.815000 0.397736 0
9.820000 0.382643 0
9.825000 0.365238 0
9.830000 0.345806 0
9.835000 0.324658 0
9.840000 0.302122 0
9.845000 0.278538 0
9.850000 0.254243 0
9.855000 0.229571 0
9.860000 0.204838 0
9.865000 0.180341 0
9.870000 0.156350 0
9.875000 0.133105 0
9.880000 0.110812 0
9.885000 0.089641 0
9.890000 0.069727 0
9.895000 0.051169 0
9.900000 0.034032 0
9.905000 0.018351 0
9.910000 0.004131 0
9.915000 -0.008649 0
9.920000 -0.020030 0
9.925000 -0.030071 0
9.930000 -0.038847 0
9.935000 -0.046440 0
9.940000 -0.052942 0
9.945000 -0.058448 0
9.950000 -0.063051 0
9.955000 -0.066848 0
9.960000 -0.069930 0
9.965000 -0.072384 0
9.970000 -0.074291 0
9.975000 -0.075726 0
9.980000 -0.076758 0
9.985000 -0.077447 0
9.990000 -0.077849 0
9.995000 -0.078011 0
10.000000 -0.077976 0
10.005000 -0.077778 0
10.010000 -0.077448 0
10.015000 -0.077012 0
10.020000 -0.076492 0
10.025000 -0.075905 0
10.030000 -0.075267 0
10.035000 -0.074588 0
10.040000 -0.073863 0
10.045000 -0.073051 0
10.050000 -0.072243 0
10.055000 -0.071438 0
10.060000 -0.070638 0
10.065000 -0.069841 0
10.070000 -0.069049 0
10.075000 -0.068260 0
10.080000 -0.067476 0
10.085000 -0.066695 0
10.090000 -0.065919 0
10.095000 -0.065146 0
10.100000 -0.064377 0
10.105000 -0.063612 0
10.110000 -0.062850 0
10.115000 -0.062093 0
10.120000 -0.061339 0
10.125000 -0.060589 0
10.130000 -0.059843 0
10.135000 -0.059100 0
10.140000 -0.058361 0
10.145000 -0.057626 0
10.150000 -0.056894 0
10.155000 -0.056166 0
10.160000 -0.055442 0
10.165000 -0.054721 0
10.170000 -0.054002 0
10.175000 -0.053287 0
10.180000 -0.052573 0
10.185000 -0.051861 0
10.190000 -0.051147 0
10.195000 -0.050430 0
10.200000 -0.049705 0
10.205000 -0.048965 0
10.210000 -0.048201 0
10.215000 -0.047397 0
10.220000 -0.046534 0
10.225000 -0.045580 0
10.230000 -0.044496 0
10.235000 -0.043226 0
10.240000 -0.041698 0
10.245000 -0.039818 0
10.250000 -0.037470 0
10.255000 -0.034511 0
10.260000 -0.030772 0
10.265000 -0.026062 0
10.270000 -0.020167 0
10.275000 -0.012864 0
10.280000 -0.003931 0
10.285000 0.006838 0
10.290000 0.019608 0
10.295000 0.034488 0
10.300000 0.051498 0
10.305000 0.070555 0
10.310000 0.091448 0
10.315000 0.113829 0
10.320000 0.137210 0
10.325000 0.160970 0
10.330000 0.184376 0
10.335000 0.206620 0
10.340000 0.226858 0
10.345000 0.244263 0
10.350000 0.258083 0
10.355000 0.267689 0
10.360000 0.272628 0
10.365000 0.272653 1
10.370000 0.267744 0
10.375000 0.258112 0
10.380000 0.244181 0
10.385000 0.226558 0
10.390000 0.205990 0
10.395000 0.183306 0
10.400000 0.159369 0
10.405000 0.135016 0
10.410000 0.111013 0
10.415000 0.088018 0
10.420000 0.066545 0
10.425000 0.046940 0
10.430000 0.029330 0
10.435000 0.013547 0
10.440000 -0.001018 0
10.445000 -0.015582 0
10.450000 -0.032075 0
10.455000 -0.052942 0
10.460000 -0.080419 0
10.465000 -0.115183 0
10.470000 -0.154770 0
10.475000 -0.192491 0
10.480000 -0.217591 2
10.485000 -0.216757 0
10.490000 -0.176319 0
10.495000 -0.084474 0
10.500000 0.066215 0
10.505000 0.274989 0
10.510000 0.527634 0
10.515000 0.792536 0
10.520000 1.022892 0
10.525000 1.168101 0
10.530000 1.191299 3
10.535000 1.080477 0
10.540000 0.860496 0
10.545000 0.582389 0
10.550000 0.300877 0
10.555000 0.058033 0
10.560000 -0.122551 0
10.565000 -0.233430 0
10.570000 -0.278767 4
10.575000 -0.270957 0
10.580000 -0.227787 0
10.585000 -0.168594 0
10.590000 -0.109708 0
10.595000 -0.061194 0
10.600000 -0.026331 0
10.605000 -0.003527 0
10.610000 0.010933 0
10.615000 0.020748 0
10.620000 0.028622 0
10.625000 0.036177 0
10.630000 0.044256 0
10.635000 0.053270 0
10.640000 0.063417 0
10.645000 0.074810 0
10.650000 0.087519 0
10.655000 0.101585 0
10.660000 0.117026 0
10.665000 0.133832 0
10.670000 0.151958 0
10.675000 0.171329 0
10.680000 0.191829 0
10.685000 0.213304 0
10.690000 0.235559 0
10.695000 0.258364 0
10.700000 0.281450 0
10.705000 0.304517 0
10.710000 0.327238 0
10.715000 0.349265 0
10.720000 0.370242 0
10.725000 0.389806 0
10.730000 0.407605 0
10.735000 0.423302 0
10.740000 0.436589 0
10.745000 0.447195 0
10.750000 0.454893 0
10.755000 0.459512 0
10.760000 0.460939 5
10.765000 0.459125 0
10.770000 0.454084 0
10.775000 0.445897 0
10.780000 0.434707 0
10.785000 0.420712 0
10.790000 0.404166 0
10.795000 0.385362 0
10.800000 0.364632 0
10.805000 0.342327 0
10.810000 0.318818 0
10.815000 0.294475 0
10.820000 0.269665 0
10.825000 0.244740 0
10.830000 0.220026 0
10.835000 0.195824 0
10.840000 0.172397 0
10.845000 0.149969 0
10.850000 0.128726 0
10.855000 0.108812 0
10.860000 0.090328 0
10.865000 0.073341 0
10.870000 0.057880 0
10.875000 0.043941 0
10.880000 0.031494 0
10.885000 0.020487 0
10.890000 0.010846 0
10.895000 0.002486 0
10.900000 -0.004690 0
10.905000 -0.010782 0
10.910000 -0.015897 0
10.915000 -0.020137 0
10.920000 -0.023604 0
10.925000 -0.026395 0
10.930000 -0.028599 0
10.935000 -0.030300 0
10.940000 -0.031574 0
10.945000 -0.032487 0
10.950000 -0.033100 0
10.955000 -0.033464 0
10.960000 -0.033624 0
10.965000 -0.033620 0
10.970000 -0.033482 0
10.975000 -0.033239 0
10.980000 -0.032912 0
10.985000 -0.032520 0
10.990000 -0.032078 0
10.995000 -0.031598 0
11.000000 -0.031014 0
11.005000 -0.030415 0
11.010000 -0.029819 0
11.015000 -0.029227 0
11.020000 -0.028637 0
11.025000 -0.028050 0
11.030000 -0.027466 0
11.035000 -0.026885 0
11.040000 -0.026307 0
11.045000 -0.025731 0
11.050000 -0.025159 0
11.055000 -0.024589 0
11.060000 -0.024023 0
11.065000 -0.023459 0
11.070000 -0.022898 0
11.075000 -0.022339 0
11.080000 -0.021784 0
11.085000 -0.021231 0
11.090000 -0.020681 0
11.095000 -0.020134 0
11.100000 -0.019589 0
11.105000 -0.019047 0
11.110000 -0.018508 0
11.115000 -0.017971 0
11.120000 -0.017437 0
11.125000 -0.016904 0
11.130000 -0.016372 0
11.135000 -0.015841 0
11.140000 -0.015308 0
11.145000 -0.014770 0
11.150000 -0.014224 0
11.155000 -0.013662 0
11.160000 -0.013072 0
11.165000 -0.012440 0
11.170000 -0.011740 0
11.175000 -0.010940 0
11.180000 -0.009993 0
11.185000 -0.008832 0
11.190000 -0.007375 0
11.195000 -0.005510 0
11.200000 -0.003099 0
11.205000 0.000026 0
11.210000 0.004061 0
11.215000 0.009231 0
11.220000 0.015776 0
11.225000 0.023942 0
11.230000 0.033963 0
11.235000 0.046039 0
11.240000 0.060306 0
11.245000 0.076811 0
11.250000 0.095484 0
11.255000 0.116112 0
11.260000 0.138326 0
11.265000 0.161596 0
11.270000 0.185239 0
11.275000 0.208446 0
11.280000 0.230325 0
11.285000 0.249948 0
11.290000 0.266422 0
11.295000 0.278951 0
11.300000 0.286897 0
11.305000 0.289838 1
11.310000 0.287598 0
11.315000 0.280267 0
11.320000 0.268190 0
11.325000 0.251944 0
11.330000 0.232288 0
11.335000 0.210105 0
11.340000 0.186332 0
11.345000 0.161900 0
11.350000 0.137671 0
11.355000 0.114389 0
11.360000 0.092643 0
11.365000 0.072829 0
11.370000 0.055098 0
11.375000 0.039262 0
11.380000 0.024622 0
11.385000 0.009767 0
11.390000 -0.007522 0
11.395000 -0.029957 0
11.400000 -0.059713 0
11.405000 -0.096699 0
11.410000 -0.136737 0
11.415000 -0.170695 0
11.420000 -0.185337 2
11.425000 -0.165596 0
11.430000 -0.097272 0
11.435000 0.030228 0
11.440000 0.220095 0
11.445000 0.462314 0
11.450000 0.727912 0
11.455000 0.968986 0
11.460000 1.129686 0
11.465000 1.166322 3
11.470000 1.066109 0
11.475000 0.853246 0
11.480000 0.577748 0
11.485000 0.294943 0
11.490000 0.048355 0
11.495000 -0.136984 0
11.500000 -0.252590 0
11.505000 -0.301955 4
11.510000 -0.297039 0
11.515000 -0.255439 0
11.520000 -0.196597 0
11.525000 -0.137215 0
11.530000 -0.087819 0
11.535000 -0.052065 0
11.540000 -0.028563 0
11.545000 -0.013637 0
11.550000 -0.003539 0
11.555000 0.004505 0
11.560000 0.012169 0
11.565000 0.020331 0
11.570000 0.029416 0
11.575000 0.039630 0
11.580000 0.051087 0
11.585000 0.063860 0
11.590000 0.077991 0
11.595000 0.093500 0
11.600000 0.110375 0
11.605000 0.128576 0
11.610000 0.148026 0
11.615000 0.168610 0
11.620000 0.190174 0
11.625000 0.212527 0
11.630000 0.235435 0
11.635000 0.258630 0
11.640000 0.281811 0
11.645000 0.304652 0
11.650000 0.326803 0
11.655000 0.347906 0
11.660000 0.367598 0
11.665000 0.385525 0
11.670000 0.401348 0
11.675000 0.414758 0
11.680000 0.425482 0
11.685000 0.433294 0
11.690000 0.438020 0
11.695000 0.439549 5
11.700000 0.437829 0
11.705000 0.432876 0
11.710000 0.424772 0
11.715000 0.413660 0
11.720000 0.399740 0
11.725000 0.383266 0
11.730000 0.364535 0
11.735000 0.343877 0
11.740000 0.321648 0
11.745000 0.298219 0
11.750000 0.273962 0
11.755000 0.249245 0
11.760000 0.224420 0
11.765000 0.199815 0
11.770000 0.175729 0
11.775000 0.152426 0
11.780000 0.130131 0
11.785000 0.109028 0
11.790000 0.089259 0
11.795000 0.070926 0
11.800000 0.054094 0
11.805000 0.038790 0
11.810000 0.025010 0
11.815000 0.012722 0
11.820000 0.001873 0
11.825000 -0.007612 0
11.830000 -0.015819 0
11.835000 -0.022844 0
11.840000 -0.028791 0
11.845000 -0.033765 0
11.850000 -0.037869 0
11.855000 -0.041205 0
11.860000 -0.043870 0
11.865000 -0.045953 0
11.870000 -0.047537 0
11.875000 -0.048699 0
11.880000 -0.049504 0
11.885000 -0.050013 0
11.890000 -0.050276 0
11.895000 -0.050339 0
11.900000 -0.050240 0
11.905000 -0.050010 0
11.910000 -0.049677 0
11.915000 -0.049262 0
11.920000 -0.048784 0
11.925000 -0.048257 0
11.930000 -0.047692 0
11.935000 -0.047028 0
11.940000 -0.046349 0
11.945000 -0.045674 0
11.950000 -0.045002 0
11.955000 -0.044333 0
11.960000 -0.043668 0
11.965000 -0.043006 0
11.970000 -0.042348 0
11.975000 -0.041692 0
11.980000 -0.041040 0
11.985000 -0.040392 0
11.990000 -0.039746 0
11.995000 -0.039104 0
12.000000 -0.038465 0
12.005000 -0.037829 0
12.010000 -0.037196 0
12.015000 -0.036566 0
12.020000 -0.035940 0
12.025000 -0.035317 0
12.030000 -0.034696 0
12.035000 -0.034079 0
12.040000 -0.033465 0
12.045000 -0.032854 0
12.050000 -0.032245 0
12.055000 -0.031639 0
12.060000 -0.031036 0
12.065000 -0.030433 0
12.070000 -0.029831 0
12.075000 -0.029228 0
12.080000 -0.028619 0
12.085000 -0.028002 0
12.090000 -0.027367 0
12.095000 -0.026704 0
12.100000 -0.025994 0
12.105000 -0.025214 0
12.110000 -0.024327 0
12.115000 -0.023283 0
12.120000 -0.022015 0
12.125000 -0.020433 0
12.130000 -0.018423 0
12.135000 -0.015841 0
12.140000 -0.012514 0
12.145000 -0.008239 0
12.150000 -0.002789 0
12.155000 0.004082 0
12.160000 0.012618 0
12.165000 0.023050 0
12.170000 0.035570 0
12.175000 0.050300 0
12.180000 0.067270 0
12.185000 0.086383 0
12.190000 0.107400 0
12.195000 0.129919 0
12.200000 0.153378 0
12.205000 0.177067 0
12.210000 0.200154 0
12.215000 0.221732 0
12.220000 0.240871 0
12.225000 0.256689 0
12.230000 0.268413 0
12.235000 0.275444 0
12.240000 0.277403 1
12.245000 0.274167 0
12.250000 0.265882 0
12.255000 0.252944 0
12.260000 0.235975 0
12.265000 0.215767 0
12.270000 0.193224 0
12.275000 0.169291 0
12.280000 0.144892 0
12.285000 0.120870 0
12.290000 0.097941 0
12.295000 0.076656 0
12.300000 0.057364 0
12.305000 0.040150 0
12.310000 0.024727 0
12.315000 0.010247 0
12.320000 -0.004893 0
12.325000 -0.023086 0
12.330000 -0.047049 0
12.335000 -0.078604 0
12.340000 -0.116831 0
12.345000 -0.156366 0
12.350000 -0.186907 0
12.355000 -0.194477 2
12.360000 -0.163920 0
12.365000 -0.081608 0
12.370000 0.061672 0
12.375000 0.266414 0
12.380000 0.518198 0
12.385000 0.782730 0
12.390000 1.008374 0
12.395000 1.140116 0
12.400000 1.140743 3
12.405000 1.005647 0
12.410000 0.768321 0
12.415000 0.484861 0
12.420000 0.210519 0
12.425000 -0.015652 0
12.430000 -0.174298 0
12.435000 -0.261908 0
12.440000 -0.286089 4
12.445000 -0.262253 0
12.450000 -0.210208 0
12.455000 -0.149454 0
12.460000 -0.094500 0
12.465000 -0.052512 0
12.470000 -0.024121 0
12.475000 -0.006199 0
12.480000 0.005335 0
12.485000 0.013829 0
12.490000 0.021435 0
12.495000 0.029316 0
12.500000 0.038037 0
12.505000 0.047865 0
12.510000 0.058939 0
12.515000 0.071345 0
12.520000 0.085133 0
12.525000 0.100329 0
12.530000 0.116928 0
12.535000 0.134893 0
12.540000 0.154149 0
12.545000 0.174583 0
12.550000 0.196037 0
12.555000 0.218314 0
12.560000 0.241173 0
12.565000 0.264336 0
12.570000 0.287488 0
12.575000 0.310287 0
12.580000 0.332369 0
12.585000 0.353357 0
12.590000 0.372875 0
12.595000 0.390551 0
12.600000 0.406036 0
12.605000 0.419010 0
12.610000 0.429197 0
12.615000 0.436368 0
12.620000 0.440355 0
12.625000 0.441056 5
12.630000 0.438434 0
12.635000 0.432525 0
12.640000 0.423432 0
12.645000 0.411324 0
12.650000 0.396432 0
12.655000 0.379036 0
12.660000 0.359461 0
12.665000 0.338065 0
12.670000 0.315227 0
12.675000 0.291336 0
12.680000 0.266781 0
12.685000 0.241937 0
12.690000 0.217162 0
12.695000 0.192783 0
12.700000 0.169091 0
12.705000 0.146339 0
12.710000 0.124736 0
12.715000 0.104447 0
12.720000 0.085594 0
12.725000 0.068256 0
12.730000 0.052474 0
12.735000 0.038252 0
12.740000 0.025565 0
12.745000 0.014361 0
12.750000 0.004568 0
12.755000 -0.003903 0
12.760000 -0.011151 0
12.765000 -0.017282 0
12.770000 -0.022406 0
12.775000 -0.026632 0
12.780000 -0.030066 0
12.785000 -0.032809 0
12.790000 -0.034955 0
12.795000 -0.036591 0
12.800000 -0.037796 0
12.805000 -0.038639 0
12.810000 -0.039183 0
12.815000 -0.039479 0
12.820000 -0.039575 0
12.825000 -0.039509 0
12.830000 -0.039315 0
12.835000 -0.039018 0
12.840000 -0.038641 0
12.845000 -0.038203 0
12.850000 -0.037718 0
12.855000 -0.037181 0
12.860000 -0.036551 0
12.865000 -0.035925 0
12.870000 -0.035302 0
12.875000 -0.034682 0
12.880000 -0.034065 0
12.885000 -0.033451 0
12.890000 -0.032840 0
12.895000 -0.032232 0
12.900000 -0.031627 0
12.905000 -0.031025 0
12.910000 -0.030426 0
12.915000 -0.029830 0
12.920000 -0.029238 0
12.925000 -0.028648 0
12.930000 -0.028061 0
12.935000 -0.027477 0
12.940000 -0.026896 0
12.945000 -0.026317 0
12.950000 -0.025742 0
12.955000 -0.025169 0
12.960000 -0.024600 0
12.965000 -0.024033 0
12.970000 -0.023468 0
12.975000 -0.022906 0
12.980000 -0.022346 0
12.985000 -0.021788 0
12.990000 -0.021229 0
12.995000 -0.020669 0
13.000000 -0.020104 0
13.005000 -0.019530 0
13.010000 -0.018938 0
13.015000 -0.018318 0
13.020000 -0.017650 0
13.025000 -0.016908 0
13.030000 -0.016056 0
13.035000 -0.015039 0
13.040000 -0.013786 0
13.045000 -0.012200 0
13.050000 -0.010160 0
13.055000 -0.007509 0
13.060000 -0.004062 0
13.065000 0.000398 0
13.070000 0.006113 0
13.075000 0.013341 0
13.080000 0.022337 0
13.085000 0.033334 0
13.090000 0.046512 0
13.095000 0.061973 0
13.100000 0.079706 0
13.105000 0.099559 0
13.110000 0.121217 0
13.115000 0.144193 0
13.120000 0.167832 0
13.125000 0.191328 0
13.130000 0.213770 0
13.135000 0.234189 0
13.140000 0.251633 0
13.145000 0.265232 0
13.150000 0.274272 0
13.155000 0.278257 1
13.160000 0.276949 0
13.165000 0.270395 0
13.170000 0.258920 0
13.175000 0.243101 0
13.180000 0.223716 0
13.185000 0.201683 0
13.190000 0.177984 0
13.195000 0.153595 0
13.200000 0.129421 0
13.205000 0.106237 0
13.210000 0.084653 0
13.215000 0.065067 0
13.220000 0.047610 0
13.225000 0.032027 0
13.230000 0.017492 0
13.235000 0.002381 0
13.240000 -0.015775 0
13.245000 -0.039811 0
13.250000 -0.071613 0
13.255000 -0.110104 0
13.260000 -0.149422 0
13.265000 -0.178470 0
13.270000 -0.182424 2
13.275000 -0.145501 0
13.280000 -0.053913 0
13.285000 0.100848 0
13.290000 0.316943 0
13.295000 0.575304 0
13.300000 0.835384 0
13.305000 1.040635 0
13.310000 1.136496 3
13.315000 1.097032 0
13.320000 0.931673 0
13.325000 0.679447 0
13.330000 0.393954 0
13.335000 0.124499 0
13.340000 -0.095322 0
13.345000 -0.249318 0
13.350000 -0.335030 0
13.355000 -0.359721 4
13.360000 -0.337589 0
13.365000 -0.286880 0
13.370000 -0.225904 0
13.375000 -0.168898 0
13.380000 -0.123657 0
13.385000 -0.091816 0
13.390000 -0.071041 0
13.395000 -0.057579 0
13.400000 -0.048010 0
13.405000 -0.039947 0
13.410000 -0.031995 0
13.415000 -0.023435 0
13.420000 -0.013917 0
13.425000 -0.003264 0
13.430000 0.008623 0
13.435000 0.021809 0
13.440000 0.036333 0
13.445000 0.052208 0
13.450000 0.069422 0
13.455000 0.087931 0
13.460000 0.107660 0
13.465000 0.128494 0
13.470000 0.150283 0
13.475000 0.172841 0
13.480000 0.195942 0
13.485000 0.219328 0
13.490000 0.242708 0
13.495000 0.265767 0
13.500000 0.288170 0
13.505000 0.309570 0
13.510000 0.329617 0
13.515000 0.347967 0
13.520000 0.364291 0
13.525000 0.378284 0
13.530000 0.389678 0
13.535000 0.398245 0
13.540000 0.403808 0
13.545000 0.406245 5
13.550000 0.405494 0
13.555000 0.401554 0
13.560000 0.394488 0
13.565000 0.384417 0
13.570000 0.371520 0
13.575000 0.356028 0
13.580000 0.338213 0
13.585000 0.318385 0
13.590000 0.296882 0
13.595000 0.274056 0
13.600000 0.250268 0
13.605000 0.225876 0
13.610000 0.201229 0
13.615000 0.176655 0
13.620000 0.152457 0
13.625000 0.128907 0
13.630000 0.106240 0
13.635000 0.084656 0
13.640000 0.064314 0
13.645000 0.045333 0
13.650000 0.027795 0
13.655000 0.011749 0
13.660000 -0.002794 0
13.665000 -0.015846 0
13.670000 -0.027447 0
13.675000 -0.037657 0
13.680000 -0.046551 0
13.685000 -0.054218 0
13.690000 -0.060752 0
13.695000 -0.066254 0
13.700000 -0.070825 0
13.705000 -0.074567 0
13.710000 -0.077574 0
13.715000 -0.079941 0
13.720000 -0.081753 0
13.725000 -0.083088 0
13.730000 -0.084019 0
13.735000 -0.084608 0
13.740000 -0.084913 0
13.745000 -0.084982 0
13.750000 -0.084859 0
13.755000 -0.084579 0
13.760000 -0.084174 0
13.765000 -0.083668 0
13.770000 -0.083083 0
13.775000 -0.082436 0
13.780000 -0.081743 0
13.785000 -0.081013 0
13.790000 -0.080182 0
13.795000 -0.079338 0
13.800000 -0.078499 0
13.805000 -0.077663 0
13.810000 -0.076832 0
13.815000 -0.076004 0
13.820000 -0.075181 0
13.825000 -0.074362 0
13.830000 -0.073547 0
13.835000 -0.072736 0
13.840000 -0.071929 0
13.845000 -0.071127 0
13.850000 -0.070328 0
13.855000 -0.069533 0
13.860000 -0.068742 0
13.865000 -0.067955 0
13.870000 -0.067172 0
13.875000 -0.066393 0
13.880000 -0.065618 0
13.885000 -0.064846 0
13.890000 -0.064079 0
13.895000 -0.063315 0
13.900000 -0.062555 0
13.905000 -0.061799 0
13.910000 -0.061045 0
13.915000 -0.060296 0
13.920000 -0.059548 0
13.925000 -0.058803 0
13.930000 -0.058057 0
13.935000 -0.057310 0
13.940000 -0.056557 0
13.945000 -0.055793 0
13.950000 -0.055009 0
13.955000 -0.054191 0
13.960000 -0.053321 0
13.965000 -0.052371 0
13.970000 -0.051302 0
13.975000 -0.050061 0
13.980000 -0.048576 0
13.985000 -0.046755 0
13.990000 -0.044478 0
13.995000 -0.041600 0
14.000000 -0.037947 0
14.005000 -0.033315 0
14.010000 -0.027483 0
14.015000 -0.020211 0
14.020000 -0.011264 0
14.025000 -0.000423 0
14.030000 0.012489 0
14.035000 0.027581 0
14.040000 0.044869 0
14.045000 0.064249 0
14.050000 0.085478 0
14.055000 0.108159 0
14.060000 0.131744 0
14.065000 0.155541 0
14.070000 0.178748 0
14.075000 0.200488 0
14.080000 0.219862 0
14.085000 0.236015 0
14.090000 0.248191 0
14.095000 0.255794 0
14.100000 0.258439 1
14.105000 0.255977 0
14.110000 0.248514 0
14.115000 0.236401 0
14.120000 0.220205 0
14.125000 0.200669 0
14.130000 0.178647 0
14.135000 0.155052 0
14.140000 0.130787 0
14.145000 0.106690 0
14.150000 0.083490 0
14.155000 0.061769 0
14.160000 0.041926 0
14.165000 0.024136 0
14.170000 0.008255 0
14.175000 -0.006318 0
14.180000 -0.020847 0
14.185000 -0.037368 0
14.190000 -0.058483 0
14.195000 -0.086514 0
14.200000 -0.121971 0
14.205000 -0.161774 0
14.210000 -0.198165 0
14.215000 -0.219108 2
14.220000 -0.210192 0
14.225000 -0.157149 0
14.230000 -0.048377 0
14.235000 0.121943 0
14.240000 0.348926 0
14.245000 0.611077 0
14.250000 0.867746 0
14.255000 1.065586 0
14.260000 1.155130 3
14.265000 1.111282 0
14.270000 0.943229 0
14.275000 0.689965 0
14.280000 0.404329 0
14.285000 0.134769 0
14.290000 -0.085646 0
14.295000 -0.240858 0
14.300000 -0.328262 0
14.305000 -0.354809 4
14.310000 -0.334285 0
14.315000 -0.284559 0
14.320000 -0.223752 0
14.325000 -0.166195 0
14.330000 -0.119993 0
14.335000 -0.087139 0
14.340000 -0.065552 0
14.345000 -0.051574 0
14.350000 -0.041761 0
14.355000 -0.033649 0
14.360000 -0.025770 0
14.365000 -0.017351 0
14.370000 -0.008016 0
14.375000 0.002425 0
14.380000 0.014079 0
14.385000 0.027012 0
14.390000 0.041267 0
14.395000 0.056862 0
14.400000 0.073788 0
14.405000 0.092010 0
14.410000 0.111458 0
14.415000 0.132028 0
14.420000 0.153581 0
14.425000 0.175941 0
14.430000 0.198894 0
14.435000 0.222192 0
14.440000 0.245559 0
14.445000 0.268690 0
14.450000 0.291258 0
14.455000 0.312925 0
14.460000 0.333347 0
14.465000 0.352183 0
14.470000 0.369103 0
14.475000 0.383800 0
14.480000 0.395999 0
14.485000 0.405461 0
14.490000 0.411995 0
14.495000 0.415463 0
14.500000 0.415783 5
14.505000 0.412933 0
14.510000 0.406954 0
14.515000 0.397943 0
14.520000 0.386056 0
14.525000 0.371502 0
14.530000 0.354533 0
14.535000 0.335441 0
14.540000 0.314549 0
14.545000 0.292196 0
14.550000 0.268738 0
14.555000 0.244529 0
14.560000 0.219915 0
14.565000 0.195231 0
14.570000 0.170787 0
14.575000 0.146864 0
14.580000 0.123712 0
14.585000 0.101545 0
14.590000 0.080537 0
14.595000 0.060826 0
14.600000 0.042511 0
14.605000 0.025655 0
14.610000 0.010289 0
14.615000 -0.003587 0
14.620000 -0.015999 0
14.625000 -0.026996 0
14.630000 -0.036645 0
14.635000 -0.045024 0
14.640000 -0.052225 0
14.645000 -0.058343 0
14.650000 -0.063478 0
14.655000 -0.067731 0
14.660000 -0.071198 0
14.665000 -0.073974 0
14.670000 -0.076146 0
14.675000 -0.077797 0
14.680000 -0.079002 0
14.685000 -0.079829 0
14.690000 -0.080337 0
14.695000 -0.080580 0
14.700000 -0.080605 0
14.705000 -0.080450 0
14.710000 -0.080150 0
14.715000 -0.079733 0
14.720000 -0.079224 0
14.725000 -0.078641 0
14.730000 -0.078001 0
14.735000 -0.077318 0
14.740000 -0.076586 0
14.745000 -0.075760 0
14.750000 -0.074938 0
14.755000 -0.074120 0
14.760000 -0.073306 0
14.765000 -0.072496 0
14.770000 -0.071691 0
14.775000 -0.070889 0
14.780000 -0.070091 0
14.785000 -0.069298 0
14.790000 -0.068508 0
14.795000 -0.067722 0
14.800000 -0.066940 0
14.805000 -0.066163 0
14.810000 -0.065388 0
14.815000 -0.064618 0
14.820000 -0.063852 0
14.825000 -0.063089 0
14.830000 -0.062331 0
14.835000 -0.061576 0
14.840000 -0.060824 0
14.845000 -0.060077 0
14.850000 -0.059333 0
14.855000 -0.058593 0
14.860000 -0.057856 0
14.865000 -0.057123 0
14.870000 -0.056392 0
14.875000 -0.055664 0
14.880000 -0.054938 0
14.885000 -0.054212 0
14.890000 -0.053484 0
14.895000 -0.052750 0
14.900000 -0.052005 0
14.905000 -0.051239 0
14.910000 -0.050441 0
14.915000 -0.049592 0
14.920000 -0.048664 0
14.925000 -0.047620 0
14.930000 -0.046407 0
14.935000 -0.044957 0
14.940000 -0.043179 0
14.945000 -0.040959 0
14.950000 -0.038155 0
14.955000 -0.034597 0
14.960000 -0.030090 0
14.965000 -0.024414 0
14.970000 -0.017337 0
14.975000 -0.008626 0
14.980000 0.001938 0
14.985000 0.014536 0
14.990000 0.029285 0
14.995000 0.046217 0
15.000000 0.065249 0
15.005000 0.086164 0
15.010000 0.108599 0
15.015000 0.132040 0
15.020000 0.155832 0
15.025000 0.179203 0
15.030000 0.201302 0
15.035000 0.221245 0
15.040000 0.238174 0
15.045000 0.251319 0
15.050000 0.260053 0
15.055000 0.263942 1
15.060000 0.262779 0
15.065000 0.256604 0
15.070000 0.245699 0
15.075000 0.230568 0
15.080000 0.211897 0
15.085000 0.190502 0
15.090000 0.167270 0
15.095000 0.143098 0
15.100000 0.118838 0
15.105000 0.095246 0
15.110000 0.072945 0
15.115000 0.052395 0
15.120000 0.033850 0
15.125000 0.017296 0
15.130000 0.002327 0
15.135000 -0.012036 0
15.140000 -0.027504 0
15.145000 -0.046482 0
15.150000 -0.071511 0
15.155000 -0.104036 0
15.160000 -0.142684 0
15.165000 -0.181815 0
15.170000 -0.211241 0
15.175000 -0.217513 2
15.180000 -0.186217 0
15.185000 -0.104428 0
15.190000 0.036695 0
15.195000 0.238041 0
15.200000 0.486958 0
15.205000 0.752498 0
15.210000 0.986858 0
15.215000 1.136929 0
15.220000 1.163188 3
15.225000 1.058897 0
15.230000 0.848197 0
15.235000 0.575555 0
15.240000 0.290778 0
15.245000 0.034761 0
15.250000 -0.166996 0
15.255000 -0.303700 0
15.260000 -0.375651 0
15.265000 -0.391099 4
15.270000 -0.364009 0
15.275000 -0.311476 0
15.280000 -0.250227 0
15.285000 -0.193151 0
15.290000 -0.147372 0
15.295000 -0.114526 0
15.300000 -0.092615 0
15.305000 -0.078205 0
15.310000 -0.068027 0
15.315000 -0.059688 0
15.320000 -0.051714 0
15.325000 -0.043308 0
15.330000 -0.034069 0
15.335000 -0.023793 0
15.340000 -0.012368 0
15.345000 0.000276 0
15.350000 0.014187 0
15.355000 0.029388 0
15.360000 0.045881 0
15.365000 0.063644 0
15.370000 0.082625 0
15.375000 0.102742 0
15.380000 0.123881 0
15.385000 0.145895 0
15.390000 0.168604 0
15.395000 0.191794 0
15.400000 0.215224 0
15.405000 0.238623 0
15.410000 0.261700 0
15.415000 0.284145 0
15.420000 0.305639 0
15.425000 0.325860 0
15.430000 0.344490 0
15.435000 0.361223 0
15.440000 0.375773 0
15.445000 0.387886 0
15.450000 0.397342 0
15.455000 0.403961 0
15.460000 0.407614 0
15.465000 0.408223 5
15.470000 0.405763 0
15.475000 0.400266 0
15.480000 0.391816 0
15.485000 0.380551 0
15.490000 0.366656 0
15.495000 0.350359 0
15.500000 0.331926 0
15.505000 0.311650 0
15.510000 0.289846 0
15.515000 0.266844 0
15.520000 0.242975 0
15.525000 0.218570 0
15.530000 0.193947 0
15.535000 0.169410 0
15.540000 0.145236 0
15.545000 0.121678 0
15.550000 0.098954 0
15.555000 0.077252 0
15.560000 0.056722 0
15.565000 0.037484 0
15.570000 0.019619 0
15.575000 0.003178 0
15.580000 -0.011816 0
15.585000 -0.025369 0
15.590000 -0.037508 0
15.595000 -0.048283 0
15.600000 -0.057755 0
15.605000 -0.066002 0
15.610000 -0.073107 0
15.615000 -0.079162 0
15.620000 -0.084260 0
15.625000 -0.088494 0
15.630000 -0.091957 0
15.635000 -0.094736 0
15.640000 -0.096917 0
15.645000 -0.098577 0
15.650000 -0.099787 0
15.655000 -0.100615 0
15.660000 -0.101117 0
15.665000 -0.101346 0
15.670000 -0.101347 0
15.675000 -0.101161 0
15.680000 -0.100820 0
15.685000 -0.100355 0
15.690000 -0.099789 0
15.695000 -0.099144 0
15.700000 -0.098435 0
15.705000 -0.097678 0
15.710000 -0.096883 0
15.715000 -0.096044 0
15.720000 -0.095121 0
15.725000 -0.094202 0
15.730000 -0.093288 0
15.735000 -0.092379 0
15.740000 -0.091474 0
15.745000 -0.090574 0
15.750000 -0.089678 0
15.755000 -0.088787 0
15.760000 -0.087900 0
15.765000 -0.087017 0
15.770000 -0.086139 0
15.775000 -0.085266 0
15.780000 -0.084396 0
15.785000 -0.083531 0
15.790000 -0.082671 0
15.795000 -0.081814 0
15.800000 -0.080962 0
15.805000 -0.080114 0
15.810000 -0.079271 0
15.815000 -0.078431 0
15.820000 -0.077596 0
15.825000 -0.076765 0
15.830000 -0.075937 0
15.835000 -0.075114 0
15.840000 -0.074295 0
15.845000 -0.073479 0
15.850000 -0.072667 0
15.855000 -0.071857 0
15.860000 -0.071049 0
15.865000 -0.070241 0
15.870000 -0.069430 0
15.875000 -0.068613 0
15.880000 -0.067783 0
15.885000 -0.066933 0
15.890000 -0.066047 0
15.895000 -0.065109 0
15.900000 -0.064090 0
15.905000 -0.062954 0
15.910000 -0.061651 0
15.915000 -0.060115 0
15.920000 -0.058261 0
15.925000 -0.055981 0
15.930000 -0.053143 0
15.935000 -0.049590 0
15.940000 -0.045141 0
15.945000 -0.039594 0
15.950000 -0.032731 0
15.955000 -0.024333 0
15.960000 -0.014191 0
15.965000 -0.002125 0
15.970000 0.011995 0
15.975000 0.028227 0
15.980000 0.046532 0
15.985000 0.066757 0
15.990000 0.088620 0
15.995000 0.111701 0
16.000000 0.135447 0
16.005000 0.159188 0
16.010000 0.182160 0
16.015000 0.203546 0
16.020000 0.222522 0
16.025000 0.238308 0
16.030000 0.250219 0
16.035000 0.257719 0
16.040000 0.260455 1
16.045000 0.258288 0
16.050000 0.251303 0
16.055000 0.239801 0
16.060000 0.224282 0
16.065000 0.205405 0
16.070000 0.183942 0
16.075000 0.160727 0
16.080000 0.136600 0
16.085000 0.112360 0
16.090000 0.088724 0
16.095000 0.066287 0
16.100000 0.045500 0
16.105000 0.026632 0
16.110000 0.009724 0
16.115000 -0.005512 0
16.120000 -0.019842 0
16.125000 -0.034669 0
16.130000 -0.052072 0
16.135000 -0.074494 0
16.140000 -0.103860 0
16.145000 -0.140170 0
16.150000 -0.180017 0
16.155000 -0.215800 0
16.160000 -0.236213 2
16.165000 -0.227930 0
16.170000 -0.177763 0
16.175000 -0.074788 0
16.180000 0.087077 0
16.185000 0.305069 0
16.190000 0.562458 0
16.195000 0.825423 0
16.200000 1.046538 0
16.205000 1.176997 0
16.210000 1.183744 3
16.215000 1.061220 0
16.220000 0.836433 0
16.225000 0.557691 0
16.230000 0.275860 0
16.235000 0.030341 0
16.240000 -0.156083 0
16.245000 -0.275390 0
16.250000 -0.330339 0
16.255000 -0.331410 4
16.260000 -0.294423 0
16.265000 -0.237425 0
16.270000 -0.176764 0
16.275000 -0.123760 0
16.280000 -0.083490 0
16.285000 -0.055867 0
16.290000 -0.037938 0
16.295000 -0.026069 0
16.300000 -0.017243 0
16.305000 -0.009451 0
16.310000 -0.001551 0
16.315000 0.007042 0
16.320000 0.016616 0
16.325000 0.027320 0
16.330000 0.039244 0
16.335000 0.052445 0
16.340000 0.066957 0
16.345000 0.082791 0
16.350000 0.099932 0
16.355000 0.118338 0
16.360000 0.137932 0
16.365000 0.158608 0
16.370000 0.180220 0
16.375000 0.202590 0
16.380000 0.225505 0
16.385000 0.248718 0
16.390000 0.271955 0
16.395000 0.294916 0
16.400000 0.317281 0
16.405000 0.338721 0
16.410000 0.358899 0
16.415000 0.377485 0
16.420000 0.394158 0
16.425000 0.408623 0
16.430000 0.420611 0
16.435000 0.429893 0
16.440000 0.436284 0
16.445000 0.439649 0
16.450000 0.439909 5
16.455000 0.437042 0
16.460000 0.431085 0
16.465000 0.422131 0
16.470000 0.410330 0
16.475000 0.395879 0
16.480000 0.379022 0
16.485000 0.360041 0
16.490000 0.339245 0
16.495000 0.316966 0
16.500000 0.293547 0
16.505000 0.269333 0
16.510000 0.244665 0
16.515000 0.219869 0
16.520000 0.195254 0
16.525000 0.171098 0
16.530000 0.147654 0
16.535000 0.125135 0
16.540000 0.103723 0
16.545000 0.083560 0
16.550000 0.064753 0
16.555000 0.047373 0
16.560000 0.031459 0
16.565000 0.017019 0
16.570000 0.004036 0
16.575000 -0.007531 0
16.580000 -0.017741 0
16.585000 -0.026666 0
16.590000 -0.034393 0
16.595000 -0.041013 0
16.600000 -0.046621 0
16.605000 -0.051315 0
16.610000 -0.055193 0
16.615000 -0.058346 0
16.620000 -0.060863 0
16.625000 -0.062828 0
16.630000 -0.064317 0
16.635000 -0.065400 0
16.640000 -0.066138 0
16.645000 -0.066587 0
16.650000 -0.066796 0
16.655000 -0.066807 0
16.660000 -0.066655 0
16.665000 -0.066372 0
16.670000 -0.065984 0
16.675000 -0.065512 0
16.680000 -0.064974 0
16.685000 -0.064385 0
16.690000 -0.063756 0
16.695000 -0.063082 0
16.700000 -0.062324 0
16.705000 -0.061569 0
16.710000 -0.060818 0
16.715000 -0.060070 0
16.720000 -0.059326 0
16.725000 -0.058586 0
16.730000 -0.057850 0
16.735000 -0.057118 0
16.740000 -0.056389 0
16.745000 -0.055663 0
16.750000 -0.054942 0
16.755000 -0.054224 0
16.760000 -0.053509 0
16.765000 -0.052798 0
16.770000 -0.052091 0
16.775000 -0.051387 0
16.780000 -0.050686 0
16.785000 -0.049989 0
16.790000 -0.049296 0
16.795000 -0.048606 0
16.800000 -0.047920 0
16.805000 -0.047236 0
16.810000 -0.046556 0
16.815000 -0.045880 0
16.820000 -0.045206 0
16.825000 -0.044535 0
16.830000 -0.043866 0
16.835000 -0.043199 0
16.840000 -0.042532 0
16.845000 -0.041862 0
16.850000 -0.041187 0
16.855000 -0.040501 0
16.860000 -0.039797 0
16.865000 -0.039061 0
16.870000 -0.038278 0
16.875000 -0.037420 0
16.880000 -0.036455 0
16.885000 -0.035333 0
16.890000 -0.033991 0
16.895000 -0.032344 0
16.900000 -0.030286 0
16.905000 -0.027686 0
16.910000 -0.024383 0
16.915000 -0.020195 0
16.920000 -0.014911 0
16.925000 -0.008310 0
16.930000 -0.000161 0
16.935000 0.009753 0
16.940000 0.021623 0
16.945000 0.035586 0
16.950000 0.051702 0
16.955000 0.069933 0
16.960000 0.090117 0
16.965000 0.111954 0
16.970000 0.135001 0
16.975000 0.158672 0
16.980000 0.182260 0
16.985000 0.204963 0
16.990000 0.225929 0
16.995000 0.244304 0
17.000000 0.259290 0
17.005000 0.270204 0
17.010000 0.276524 0
17.015000 0.277935 1
17.020000 0.274348 0
17.025000 0.265916 0
17.030000 0.253014 0
17.035000 0.236216 0
17.040000 0.216252 0
17.045000 0.193951 0
17.050000 0.170189 0
17.055000 0.145829 0
17.060000 0.121670 0
17.065000 0.098406 0
17.070000 0.076592 0
17.075000 0.056613 0
17.080000 0.038644 0
17.085000 0.022570 0
17.090000 0.007851 0
17.095000 -0.006651 0
17.100000 -0.022803 0
17.105000 -0.043056 0
17.110000 -0.069769 0
17.115000 -0.103884 0
17.120000 -0.143276 0
17.125000 -0.181540 0
17.130000 -0.208025 0
17.135000 -0.209293 2
17.140000 -0.171381 0
17.145000 -0.082109 0
17.150000 0.066365 0
17.155000 0.273648 0
17.160000 0.525695 0
17.165000 0.790637 0
17.170000 1.020930 0
17.175000 1.165081 0
17.180000 1.185801 3
17.185000 1.074234 0
17.190000 0.855712 0
17.195000 0.578826 0
17.200000 0.296116 0
17.205000 0.048813 0
17.210000 -0.139075 0
17.215000 -0.259000 0
17.220000 -0.313710 0
17.225000 -0.313996 4
17.230000 -0.276171 0
17.235000 -0.218771 0
17.240000 -0.158398 0
17.245000 -0.106304 0
17.250000 -0.067261 0
17.255000 -0.040832 0
17.260000 -0.023833 0
17.265000 -0.012558 0
17.270000 -0.004034 0
17.275000 0.003659 0
17.280000 0.011587 0
17.285000 0.020284 0
17.290000 0.030013 0
17.295000 0.040910 0
17.300000 0.053059 0
17.305000 0.066513 0
17.310000 0.081302 0
17.315000 0.097431 0
17.320000 0.114878 0
17.325000 0.133589 0
17.330000 0.153478 0
17.335000 0.174422 0
17.340000 0.196262 0
17.345000 0.218804 0
17.350000 0.241815 0
17.355000 0.265032 0
17.360000 0.288162 0
17.365000 0.310889 0
17.370000 0.332880 0
17.375000 0.353792 0
17.380000 0.373280 0
17.385000 0.391009 0
17.390000 0.406660 0
17.395000 0.419941 0
17.400000 0.430593 0
17.405000 0.438404 0
17.410000 0.443209 0
17.415000 0.444898 5
17.420000 0.443421 0
17.425000 0.438788 0
17.430000 0.431069 0
17.435000 0.420394 0
17.440000 0.406946 0
17.445000 0.390957 0
17.450000 0.372702 0
17.455000 0.352490 0
17.460000 0.330654 0
17.465000 0.307542 0
17.470000 0.283510 0
17.475000 0.258911 0
17.480000 0.234085 0
17.485000 0.209354 0
17.490000 0.185015 0
17.495000 0.161332 0
17.500000 0.138537 0
17.505000 0.116824 0
17.510000 0.096347 0
17.515000 0.077225 0
17.520000 0.059537 0
17.525000 0.043329 0
17.530000 0.028615 0
17.535000 0.015381 0
17.540000 0.003589 0
17.545000 -0.006821 0
17.550000 -0.015921 0
17.555000 -0.023797 0
17.560000 -0.030544 0
17.565000 -0.036260 0
17.570000 -0.041045 0
17.575000 -0.044998 0
17.580000 -0.048214 0
17.585000 -0.050785 0
17.590000 -0.052796 0
17.595000 -0.054326 0
17.600000 -0.055445 0
17.605000 -0.056217 0
17.610000 -0.056700 0
17.615000 -0.056942 0
17.620000 -0.056985 0
17.625000 -0.056868 0
17.630000 -0.056620 0
17.635000 -0.056269 0
17.640000 -0.055834 0
17.645000 -0.055335 0
17.650000 -0.054786 0
17.655000 -0.054198 0
17.660000 -0.053502 0
17.665000 -0.052791 0
17.670000 -0.052084 0
17.675000 -0.051380 0
17.680000 -0.050680 0
17.685000 -0.049983 0
17.690000 -0.049290 0
17.695000 -0.048600 0
17.700000 -0.047913 0
17.705000 -0.047230 0
17.710000 -0.046551 0
17.715000 -0.045874 0
17.720000 -0.045201 0
17.725000 -0.044532 0
17.730000 -0.043866 0
17.735000 -0.043203 0
17.740000 -0.042543 0
17.745000 -0.041887 0
17.750000 -0.041234 0
17.755000 -0.040584 0
17.760000 -0.039938 0
17.765000 -0.039294 0
17.770000 -0.038654 0
17.775000 -0.038017 0
17.780000 -0.037383 0
17.785000 -0.036751 0
17.790000 -0.036122 0
17.795000 -0.035494 0
17.800000 -0.034867 0
17.805000 -0.034238 0
17.810000 -0.033605 0
17.815000 -0.032963 0
17.820000 -0.032305 0
17.825000 -0.031621 0
17.830000 -0.030895 0
17.835000 -0.030103 0
17.840000 -0.029214 0
17.845000 -0.028182 0
17.850000 -0.026948 0
17.855000 -0.025431 0
17.860000 -0.023528 0
17.865000 -0.021111 0
17.870000 -0.018023 0
17.875000 -0.014081 0
17.880000 -0.009075 0
17.885000 -0.002778 0
17.890000 0.005045 0
17.895000 0.014622 0
17.900000 0.026154 0
17.905000 0.039792 0
17.910000 0.055612 0
17.915000 0.073586 0
17.920000 0.093564 0
17.925000 0.115252 0
17.930000 0.138207 0
17.935000 0.161837 0
17.940000 0.185423 0
17.945000 0.208144 0
17.950000 0.229124 0
17.955000 0.247487 0
17.960000 0.262414 0
17.965000 0.273203 0
17.970000 0.279323 0
17.975000 0.280459 1
17.980000 0.276534 0
17.985000 0.267716 0
17.990000 0.254411 0
17.995000 0.237225 0
18.000000 0.216919 0
18.005000 0.194356 0
18.010000 0.170434 0
18.015000 0.146035 0
18.020000 0.121964 0
18.025000 0.098912 0
18.030000 0.077418 0
18.035000 0.057839 0
18.040000 0.040298 0
18.045000 0.024592 0
18.050000 0.010034 0
18.055000 -0.004730 0
18.060000 -0.021813 0
18.065000 -0.043803 0
18.070000 -0.072855 0
18.075000 -0.109132 0
18.080000 -0.149115 0
18.085000 -0.184675 0
18.090000 -0.203639 2
18.095000 -0.191730 0
18.100000 -0.135028 0
18.105000 -0.022409 0
18.110000 0.151340 0
18.115000 0.380639 0
18.120000 0.643414 0
18.125000 0.898937 0
18.130000 1.094500 0
18.135000 1.181752 3
18.140000 1.133363 0
18.145000 0.958762 0
18.150000 0.700425 0
18.155000 0.414301 0
18.160000 0.149982 0
18.165000 -0.060269 0
18.170000 -0.202207 0
18.175000 -0.275328 0
18.180000 -0.288795 4
18.185000 -0.258543 0
18.190000 -0.203926 0
18.195000 -0.143227 0
18.200000 -0.089513 0
18.205000 -0.048857 0
18.210000 -0.021384 0
18.215000 -0.003924 0
18.220000 0.007443 0
18.225000 0.015899 0
18.230000 0.023494 0
18.235000 0.031347 0
18.240000 0.040009 0
18.245000 0.049747 0
18.250000 0.060698 0
18.255000 0.072946 0
18.260000 0.086543 0
18.265000 0.101517 0
18.270000 0.117868 0
18.275000 0.135565 0
18.280000 0.154544 0
18.285000 0.174702 0
18.290000 0.195898 0
18.295000 0.217952 0
18.300000 0.240643 0
18.305000 0.263713 0
18.310000 0.286871 0
18.315000 0.309795 0
18.320000 0.332143 0
18.325000 0.353556 0
18.330000 0.373670 0
18.335000 0.392125 0
18.340000 0.408576 0
18.345000 0.422703 0
18.350000 0.434219 0
18.355000 0.442881 0
18.360000 0.448500 0
18.365000 0.450942 5
18.370000 0.450139 0
18.375000 0.446085 0
18.380000 0.438843 0
18.385000 0.428539 0
18.390000 0.415358 0
18.395000 0.399540 0
18.400000 0.381370 0
18.405000 0.361172 0
18.410000 0.339297 0
18.415000 0.316113 0
18.420000 0.291995 0
18.425000 0.267314 0
18.430000 0.242429 0
18.435000 0.217676 0
18.440000 0.193365 0
18.445000 0.169770 0
18.450000 0.147129 0
18.455000 0.125635 0
18.460000 0.105445 0
18.465000 0.086671 0
18.470000 0.069386 0
18.475000 0.053629 0
18.480000 0.039402 0
18.485000 0.026682 0
18.490000 0.015418 0
18.495000 0.005543 0
18.500000 -0.003030 0
18.505000 -0.010394 0
18.510000 -0.016652 0
18.515000 -0.021907 0
18.520000 -0.026267 0
18.525000 -0.029832 0
18.530000 -0.032702 0
18.535000 -0.034968 0
18.540000 -0.036716 0
18.545000 -0.038022 0
18.550000 -0.038957 0
18.555000 -0.039580 0
18.560000 -0.039947 0
18.565000 -0.040103 0
18.570000 -0.040088 0
18.575000 -0.039936 0
18.580000 -0.039674 0
18.585000 -0.039326 0
18.590000 -0.038910 0
18.595000 -0.038442 0
18.600000 -0.037934 0
18.605000 -0.037319 0
18.610000 -0.036689 0
18.615000 -0.036062 0
18.620000 -0.035438 0
18.625000 -0.034817 0
18.630000 -0.034199 0
18.635000 -0.033585 0
18.640000 -0.032973 0
18.645000 -0.032365 0
18.650000 -0.031759 0
18.655000 -0.031157 0
18.660000 -0.030557 0
18.665000 -0.029961 0
18.670000 -0.029367 0
18.675000 -0.028777 0
18.680000 -0.028189 0
18.685000 -0.027604 0
18.690000 -0.027023 0
18.695000 -0.026444 0
18.700000 -0.025868 0
18.705000 -0.025295 0
18.710000 -0.024724 0
18.715000 -0.024157 0
18.720000 -0.023592 0
18.725000 -0.023029 0
18.730000 -0.022468 0
18.735000 -0.021909 0
18.740000 -0.021350 0
18.745000 -0.020790 0
18.750000 -0.020225 0
18.755000 -0.019652 0
18.760000 -0.019062 0
18.765000 -0.018446 0
18.770000 -0.017786 0
18.775000 -0.017060 0
18.780000 -0.016232 0
18.785000 -0.015256 0
18.790000 -0.014065 0
18.795000 -0.012574 0
18.800000 -0.010671 0
18.805000 -0.008217 0
18.810000 -0.005041 0
18.815000 -0.000943 0
18.820000 0.004301 0
18.825000 0.010936 0
18.830000 0.019209 0
18.835000 0.029355 0
18.840000 0.041572 0
18.845000 0.055994 0
18.850000 0.072661 0
18.855000 0.091496 0
18.860000 0.112273 0
18.865000 0.134611 0
18.870000 0.157962 0
18.875000 0.181628 0
18.880000 0.204787 0
18.885000 0.226533 0
18.890000 0.245934 0
18.895000 0.262094 0
18.900000 0.274225 0
18.905000 0.281704 0
18.910000 0.284128 1
18.915000 0.281349 0
18.920000 0.273485 0
18.925000 0.260914 0
18.930000 0.244240 0
18.935000 0.224247 0
18.940000 0.201833 0
18.945000 0.177947 0
18.950000 0.153520 0
18.955000 0.129406 0
18.960000 0.106337 0
18.965000 0.084879 0
18.970000 0.065399 0
18.975000 0.048007 0
18.980000 0.032444 0
18.985000 0.017907 0
18.990000 0.002844 0
18.995000 -0.015103 0
19.000000 -0.038667 0
19.005000 -0.069783 0
19.010000 -0.107750 0
19.015000 -0.147475 0
19.020000 -0.178883 0
19.025000 -0.188092 2
19.030000 -0.159881 0
19.035000 -0.080430 0
19.040000 0.059813 0
19.045000 0.261889 0
19.050000 0.512144 0
19.055000 0.777057 0
19.060000 1.005331 0
19.065000 1.141498 0
19.070000 1.147153 3
19.075000 1.017746 0
19.080000 0.785153 0
19.085000 0.503116 0
19.090000 0.225921 0
19.095000 -0.006831 0
19.100000 -0.174435 0
19.105000 -0.271855 0
19.110000 -0.305153 4
19.115000 -0.288255 0
19.120000 -0.239903 0
19.125000 -0.179434 0
19.130000 -0.122195 0
19.135000 -0.076747 0
19.140000 -0.045002 0
19.145000 -0.024566 0
19.150000 -0.011516 0
19.155000 -0.002312 0
19.160000 0.005479 0
19.165000 0.013248 0
19.170000 0.021696 0
19.175000 0.031158 0
19.180000 0.041803 0
19.185000 0.053727 0
19.190000 0.066993 0
19.195000 0.081636 0
19.200000 0.097663 0
19.205000 0.115053 0
19.210000 0.133752 0
19.215000 0.153668 0
19.220000 0.174669 0
19.225000 0.196585 0
19.230000 0.219205 0
19.235000 0.242278 0
19.240000 0.265519 0
19.245000 0.288613 0
19.250000 0.311217 0
19.255000 0.332975 0
19.260000 0.353521 0
19.265000 0.372489 0
19.270000 0.389528 0
19.275000 0.404308 0
19.280000 0.416530 0
19.285000 0.425939 0
19.290000 0.432332 0
19.295000 0.435560 5
19.300000 0.435540 0
19.305000 0.432253 0
19.310000 0.425746 0
19.315000 0.416134 0
19.320000 0.403591 0
19.325000 0.388348 0
19.330000 0.370684 0
19.335000 0.350919 0
19.340000 0.329402 0
19.345000 0.306500 0
19.350000 0.282592 0
19.355000 0.258052 0
19.360000 0.233245 0
19.365000 0.208514 0
19.370000 0.184176 0
19.375000 0.160515 0
19.380000 0.137773 0
19.385000 0.116156 0
19.390000 0.095825 0
19.395000 0.076900 0
19.400000 0.059462 0
19.405000 0.043553 0
19.410000 0.029181 0
19.415000 0.016325 0
19.420000 0.004938 0
19.425000 -0.005046 0
19.430000 -0.013712 0
19.435000 -0.021154 0
19.440000 -0.027473 0
19.445000 -0.032776 0
19.450000 -0.037168 0
19.455000 -0.040753 0
19.460000 -0.043631 0
19.465000 -0.045894 0
19.470000 -0.047630 0
19.475000 -0.048916 0
19.480000 -0.049824 0
19.485000 -0.050416 0
19.490000 -0.050746 0
19.495000 -0.050862 0
19.500000 -0.050804 0
19.505000 -0.050606 0
19.510000 -0.050296 0
19.515000 -0.049899 0
19.520000 -0.049434 0
19.525000 -0.048916 0
19.530000 -0.048358 0
19.535000 -0.047691 0
19.540000 -0.047009 0
19.545000 -0.046331 0
19.550000 -0.045656 0
19.555000 -0.044984 0
19.560000 -0.044315 0
19.565000 -0.043650 0
19.570000 -0.042988 0
19.575000 -0.042330 0
19.580000 -0.041675 0
19.585000 -0.041023 0
19.590000 -0.040374 0
19.595000 -0.039729 0
19.600000 -0.039087 0
19.605000 -0.038447 0
19.610000 -0.037812 0
19.615000 -0.037179 0
19.620000 -0.036549 0
19.625000 -0.035923 0
19.630000 -0.035300 0
19.635000 -0.034680 0
19.640000 -0.034062 0
19.645000 -0.033448 0
19.650000 -0.032837 0
19.655000 -0.032228 0
19.660000 -0.031621 0
19.665000 -0.031016 0
19.670000 -0.030412 0
19.675000 -0.029806 0
19.680000 -0.029196 0
19.685000 -0.028576 0
19.690000 -0.027941 0
19.695000 -0.027277 0
19.700000 -0.026569 0
19.705000 -0.025791 0
19.710000 -0.024909 0
19.715000 -0.023871 0
19.720000 -0.022612 0
19.725000 -0.021042 0
19.730000 -0.019046 0
19.735000 -0.016479 0
19.740000 -0.013167 0
19.745000 -0.008906 0
19.750000 -0.003466 0
19.755000 0.003399 0
19.760000 0.011940 0
19.765000 0.022388 0
19.770000 0.034938 0
19.775000 0.049712 0
19.780000 0.066737 0
19.785000 0.085914 0
19.790000 0.106995 0
19.795000 0.129570 0
19.800000 0.153063 0
19.805000 0.176749 0
19.810000 0.199783 0
19.815000 0.221244 0
19.820000 0.240193 0
19.825000 0.255744 0
19.830000 0.267125 0
19.835000 0.273746 0
19.840000 0.275246 1
19.845000 0.271525 0
19.850000 0.262754 0
19.855000 0.249360 0
19.860000 0.231992 0
19.865000 0.211467 0
19.870000 0.188708 0
19.875000 0.164671 0
19.880000 0.140283 0
19.885000 0.116382 0
19.890000 0.093670 0
19.895000 0.072676 0
19.900000 0.053719 0
19.905000 0.036833 0
19.910000 0.021650 0
19.915000 0.007196 0
19.920000 -0.008298 0
19.925000 -0.027364 0
19.930000 -0.052699 0
19.935000 -0.085764 0
19.940000 -0.124853 0
19.945000 -0.163510 0
19.950000 -0.190383 0
19.955000 -0.190851 2
19.960000 -0.149699 0
19.965000 -0.053874 0
19.970000 0.104364 0
19.975000 0.322542 0
19.980000 0.581482 0
19.985000 0.841496 0
19.990000 1.047741 0
19.995000 1.147172 3
20.000000 1.111082 0
20.005000 0.946966 0
20.010000 0.694579 0
20.015000 0.408946 0
20.020000 0.140502 0
20.025000 -0.076779 0
20.030000 -0.226950 0
20.035000 -0.308138 0
20.040000 -0.328387 4
20.045000 -0.302757 0
20.050000 -0.250192 0
20.055000 -0.189214 0
20.060000 -0.133692 0
20.065000 -0.090675 0
20.070000 -0.061051 0
20.075000 -0.042016 0
20.080000 -0.029680 0
20.085000 -0.020712 0
20.090000 -0.012891 0
20.095000 -0.004967 0
20.100000 0.003685 0
20.105000 0.013367 0
20.110000 0.024233 0
20.115000 0.036373 0
20.120000 0.049846 0
20.125000 0.064683 0
20.130000 0.080892 0
20.135000 0.098448 0
20.140000 0.117295 0
20.145000 0.137342 0
20.150000 0.158458 0
20.155000 0.180475 0
20.160000 0.203184 0
20.165000 0.226338 0
20.170000 0.249659 0
20.175000 0.272834 0
20.180000 0.295531 0
20.185000 0.317397 0
20.190000 0.338074 0
20.195000 0.357204 0
20.200000 0.374438 0
20.205000 0.389453 0
20.210000 0.401953 0
20.215000 0.411683 0
20.220000 0.418439 0
20.225000 0.422071 0
20.230000 0.422489 5
20.235000 0.419668 0
20.240000 0.413646 0
20.245000 0.404528 0
20.250000 0.392476 0
20.255000 0.377710 0
20.260000 0.360498 0
20.265000 0.341147 0
20.270000 0.319995 0
20.275000 0.297401 0
20.280000 0.273736 0
20.285000 0.249370 0
20.290000 0.224662 0
20.295000 0.199955 0
20.300000 0.175568 0
20.305000 0.151786 0
20.310000 0.128860 0
20.315000 0.106999 0
20.320000 0.086374 0
20.325000 0.067114 0
20.330000 0.049309 0
20.335000 0.033010 0
20.340000 0.018237 0
20.345000 0.004975 0
20.350000 -0.006813 0
20.355000 -0.017187 0
20.360000 -0.026224 0
20.365000 -0.034014 0
20.370000 -0.040655 0
20.375000 -0.046249 0
20.380000 -0.050901 0
20.385000 -0.054715 0
20.390000 -0.057789 0
20.395000 -0.060217 0
20.400000 -0.062089 0
20.405000 -0.063483 0
20.410000 -0.064473 0
20.415000 -0.065124 0
20.420000 -0.065493 0
20.425000 -0.065629 0
20.430000 -0.065575 0
20.435000 -0.065367 0
20.440000 -0.065036 0
20.445000 -0.064608 0
20.450000 -0.064103 0
20.455000 -0.063538 0
20.460000 -0.062928 0
20.465000 -0.062268 0
20.470000 -0.061513 0
20.475000 -0.060762 0
20.480000 -0.060015 0
20.485000 -0.059272 0
20.490000 -0.058532 0
20.495000 -0.057796 0
20.500000 -0.057064 0
20.505000 -0.056335 0
20.510000 -0.055610 0
20.515000 -0.054888 0
20.520000 -0.054171 0
20.525000 -0.053456 0
20.530000 -0.052746 0
20.535000 -0.052039 0
20.540000 -0.051335 0
20.545000 -0.050635 0
20.550000 -0.049938 0
20.555000 -0.049245 0
20.560000 -0.048555 0
20.565000 -0.047869 0
20.570000 -0.047186 0
20.575000 -0.046507 0
20.580000 -0.045830 0
20.585000 -0.045157 0
20.590000 -0.044487 0
20.595000 -0.043819 0
20.600000 -0.043152 0
20.605000 -0.042486 0
20.610000 -0.041819 0
20.615000 -0.041147 0
20.620000 -0.040465 0
20.625000 -0.039766 0
20.630000 -0.039037 0
20.635000 -0.038260 0
20.640000 -0.037411 0
20.645000 -0.036451 0
20.650000 -0.035331 0
20.655000 -0.033982 0
20.660000 -0.032313 0
20.665000 -0.030208 0
20.670000 -0.027523 0
20.675000 -0.024083 0
20.680000 -0.019685 0
20.685000 -0.014103 0
20.690000 -0.007092 0
20.695000 0.001590 0
20.700000 0.012172 0
20.705000 0.024841 0
20.710000 0.039716 0
20.715000 0.056821 0
20.720000 0.076056 0
20.725000 0.097177 0
20.730000 0.119781 0
20.735000 0.143308 0
20.740000 0.167046 0
20.745000 0.190169 0
20.750000 0.211774 0
20.755000 0.230940 0
20.760000 0.246789 0
20.765000 0.258556 0
20.770000 0.265645 0
20.775000 0.267680 1
20.780000 0.264538 0
20.785000 0.256360 0
20.790000 0.243538 0
20.795000 0.226687 0
20.800000 0.206591 0
20.805000 0.184144 0
20.810000 0.160287 0
20.815000 0.135938 0
20.820000 0.111938 0
20.825000 0.089003 0
20.830000 0.067688 0
20.835000 0.048348 0
20.840000 0.031084 0
20.845000 0.015630 0
20.850000 0.001182 0
20.855000 -0.013808 0
20.860000 -0.031674 0
20.865000 -0.055125 0
20.870000 -0.086082 0
20.875000 -0.123890 0
20.880000 -0.163584 0
20.885000 -0.195286 0
20.890000 -0.205328 2
20.895000 -0.178648 0
20.900000 -0.101471 0
20.905000 0.035900 0
20.910000 0.235021 0
20.915000 0.483303 0
20.920000 0.748747 0
20.925000 0.981406 0
20.930000 1.126020 0
20.935000 1.142629 3
20.940000 1.025570 0
20.945000 0.803147 0
20.950000 0.524907 0
20.955000 0.243439 0
20.960000 -0.000660 0
20.965000 -0.184234 0
20.970000 -0.299510 0
20.975000 -0.349864 4
20.980000 -0.346625 0
20.985000 -0.306501 0
20.990000 -0.248148 0
20.995000 -0.187951 0
21.000000 -0.136707 0
21.005000 -0.098691 0
21.010000 -0.073116 0
21.015000 -0.056647 0
21.020000 -0.045589 0
21.025000 -0.037052 0
21.030000 -0.029203 0
21.035000 -0.021042 0
21.040000 -0.012072 0
21.045000 -0.002047 0
21.050000 0.009162 0
21.055000 0.021633 0
21.060000 0.035419 0
21.065000 0.050545 0
21.070000 0.067014 0
21.075000 0.084799 0
21.080000 0.103842 0
21.085000 0.124051 0
21.090000 0.145298 0
21.095000 0.167418 0
21.100000 0.190207 0
21.105000 0.213429 0
21.110000 0.236812 0
21.115000 0.260058 0
21.120000 0.282846 0
21.125000 0.304837 0
21.130000 0.325686 0
21.135000 0.345048 0
21.140000 0.362585 0
21.145000 0.377982 0
21.150000 0.390950 0
21.155000 0.401237 0
21.160000 0.408636 0
21.165000 0.412993 0
21.170000 0.414209 5
21.175000 0.412244 0
21.180000 0.407121 0
21.185000 0.398924 0
21.190000 0.387794 0
21.195000 0.373927 0
21.200000 0.357567 0
21.205000 0.338997 0
21.210000 0.318535 0
21.215000 0.296521 0
21.220000 0.273309 0
21.225000 0.249255 0
21.230000 0.224713 0
21.235000 0.200022 0
21.240000 0.175501 0
21.245000 0.151439 0
21.250000 0.128098 0
21.255000 0.105698 0
21.260000 0.084427 0
21.265000 0.064429 0
21.270000 0.045814 0
21.275000 0.028653 0
21.280000 0.012982 0
21.285000 -0.001191 0
21.290000 -0.013890 0
21.295000 -0.025157 0
21.300000 -0.035057 0
21.305000 -0.043668 0
21.310000 -0.051079 0
21.315000 -0.057385 0
21.320000 -0.062688 0
21.325000 -0.067087 0
21.330000 -0.070682 0
21.335000 -0.073567 0
21.340000 -0.075832 0
21.345000 -0.077562 0
21.350000 -0.078833 0
21.355000 -0.079714 0
21.360000 -0.080267 0
21.365000 -0.080546 0
21.370000 -0.080599 0
21.375000 -0.080468 0
21.380000 -0.080186 0
21.385000 -0.079783 0
21.390000 -0.079284 0
21.395000 -0.078710 0
21.400000 -0.078077 0
21.405000 -0.077398 0
21.410000 -0.076685 0
21.415000 -0.075876 0
21.420000 -0.075053 0
21.425000 -0.074235 0
21.430000 -0.073421 0
21.435000 -0.072610 0
21.440000 -0.071804 0
21.445000 -0.071002 0
21.450000 -0.070204 0
21.455000 -0.069409 0
21.460000 -0.068619 0
21.465000 -0.067833 0
21.470000 -0.067050 0
21.475000 -0.066272 0
21.480000 -0.065497 0
21.485000 -0.064727 0
21.490000 -0.063960 0
21.495000 -0.063197 0
21.500000 -0.062437 0
21.505000 -0.061682 0
21.510000 -0.060930 0
21.515000 -0.060182 0
21.520000 -0.059438 0
21.525000 -0.058697 0
21.530000 -0.057960 0
21.535000 -0.057226 0
21.540000 -0.056495 0
21.545000 -0.055766 0
21.550000 -0.055040 0
21.555000 -0.054313 0
21.560000 -0.053584 0
21.565000 -0.052850 0
21.570000 -0.052105 0
21.575000 -0.051339 0
21.580000 -0.050541 0
21.585000 -0.049691 0
21.590000 -0.048761 0
21.595000 -0.047715 0
21.600000 -0.046499 0
21.605000 -0.045044 0
21.610000 -0.043258 0
21.615000 -0.041025 0
21.620000 -0.038203 0
21.625000 -0.034619 0
21.630000 -0.030075 0
21.635000 -0.024351 0
21.640000 -0.017212 0
21.645000 -0.008423 0
21.650000 0.002235 0
21.655000 0.014941 0
21.660000 0.029810 0
21.665000 0.046867 0
21.670000 0.066023 0
21.675000 0.087051 0
21.680000 0.109574 0
21.685000 0.133066 0
21.690000 0.156858 0
21.695000 0.180166 0
21.700000 0.202127 0
21.705000 0.221851 0
21.710000 0.238482 0
21.715000 0.251252 0
21.720000 0.259547 0
21.725000 0.262950 1
21.730000 0.261278 0
21.735000 0.254594 0
21.740000 0.243208 0
21.745000 0.227649 0
21.750000 0.208626 0
21.755000 0.186970 0
21.760000 0.163580 0
21.765000 0.139355 0
21.770000 0.115144 0
21.775000 0.091693 0
21.780000 0.069610 0
21.785000 0.049330 0
21.790000 0.031079 0
21.795000 0.014794 0
21.800000 -0.000006 0
21.805000 -0.014406 0
21.810000 -0.030252 0
21.815000 -0.050035 0
21.820000 -0.076241 0
21.825000 -0.109982 0
21.830000 -0.149239 0
21.835000 -0.187533 0
21.840000 -0.213906 0
21.845000 -0.214466 2
21.850000 -0.174792 0
21.855000 -0.082412 0
21.860000 0.070430 0
21.865000 0.282499 0
21.870000 0.537749 0
21.875000 0.801270 0
21.880000 1.022610 0
21.885000 1.149462 3
21.890000 1.147262 0
21.895000 1.014607 0
21.900000 0.783208 0
21.905000 0.502402 0
21.910000 0.222590 0
21.915000 -0.018155 0
21.920000 -0.198478 0
21.925000 -0.311480 0
21.930000 -0.360744 4
21.935000 -0.357371 0
21.940000 -0.317568 0
21.945000 -0.259433 0
21.950000 -0.198978 0
21.955000 -0.146955 0
21.960000 -0.107865 0
21.965000 -0.081229 0
21.970000 -0.063935 0
21.975000 -0.052360 0
21.980000 -0.043579 0
21.985000 -0.035682 0
21.990000 -0.027595 0
21.995000 -0.018774 0
22.000000 -0.008952 0
22.005000 0.002013 0
22.010000 0.014206 0
22.015000 0.027681 0
22.020000 0.042470 0
22.025000 0.058582 0
22.030000 0.075999 0
22.035000 0.094673 0
22.040000 0.114527 0
22.045000 0.135446 0
22.050000 0.157285 0
22.055000 0.179858 0
22.060000 0.202948 0
22.065000 0.226306 0
22.070000 0.249652 0
22.075000 0.272683 0
22.080000 0.295078 0
22.085000 0.316504 0
22.090000 0.336625 0
22.095000 0.355111 0
22.100000 0.371644 0
22.105000 0.385929 0
22.110000 0.397703 0
22.115000 0.406741 0
22.120000 0.412864 0
22.125000 0.415945 5
22.130000 0.415910 0
22.135000 0.412747 0
22.140000 0.406498 0
22.145000 0.397267 0
22.150000 0.385208 0
22.155000 0.370527 0
22.160000 0.353475 0
22.165000 0.334337 0
22.170000 0.313427 0
22.175000 0.291079 0
22.180000 0.267638 0
22.185000 0.243451 0
22.190000 0.218856 0
22.195000 0.194179 0
22.200000 0.169724 0
22.205000 0.145768 0
22.210000 0.122556 0
22.215000 0.100301 0
22.220000 0.079175 0
22.225000 0.059318 0
22.230000 0.040831 0
22.235000 0.023779 0
22.240000 0.008197 0
22.245000 -0.005911 0
22.250000 -0.018566 0
22.255000 -0.029812 0
22.260000 -0.039711 0
22.265000 -0.048338 0
22.270000 -0.055779 0
22.275000 -0.062128 0
22.280000 -0.067482 0
22.285000 -0.071936 0
22.290000 -0.075589 0
22.295000 -0.078533 0
22.300000 -0.080855 0
22.305000 -0.082637 0
22.310000 -0.083956 0
22.315000 -0.084879 0
22.320000 -0.085468 0
22.325000 -0.085777 0
22.330000 -0.085853 0
22.335000 -0.085738 0
22.340000 -0.085468 0
22.345000 -0.085071 0
22.350000 -0.084573 0
22.355000 -0.083995 0
22.360000 -0.083354 0
22.365000 -0.082665 0
22.370000 -0.081938 0
22.375000 -0.081104 0
22.380000 -0.080255 0
22.385000 -0.079411 0
22.390000 -0.078571 0
22.395000 -0.077735 0
22.400000 -0.076903 0
22.405000 -0.076075 0
22.410000 -0.075252 0
22.415000 -0.074433 0
22.420000 -0.073617 0
22.425000 -0.072806 0
22.430000 -0.071999 0
22.435000 -0.071196 0
22.440000 -0.070396 0
22.445000 -0.069601 0
22.450000 -0.068810 0
22.455000 -0.068023 0
22.460000 -0.067239 0
22.465000 -0.066460 0
22.470000 -0.065684 0
22.475000 -0.064913 0
22.480000 -0.064145 0
22.485000 -0.063381 0
22.490000 -0.062620 0
22.495000 -0.061863 0
22.500000 -0.061110 0
22.505000 -0.060359 0
22.510000 -0.059611 0
22.515000 -0.058865 0
22.520000 -0.058118 0
22.525000 -0.057370 0
22.530000 -0.056615 0
22.535000 -0.055848 0
22.540000 -0.055061 0
22.545000 -0.054240 0
22.550000 -0.053366 0
22.555000 -0.052413 0
22.560000 -0.051342 0
22.565000 -0.050103 0
22.570000 -0.048627 0
22.575000 -0.046825 0
22.580000 -0.044585 0
22.585000 -0.041769 0
22.590000 -0.038212 0
22.595000 -0.033723 0
22.600000 -0.028090 0
22.605000 -0.021086 0
22.610000 -0.012482 0
22.615000 -0.002064 0
22.620000 0.010347 0
22.625000 0.024875 0
22.630000 0.041559 0
22.635000 0.060333 0
22.640000 0.081005 0
22.645000 0.103241 0
22.650000 0.126562 0
22.655000 0.150351 0
22.660000 0.173874 0
22.665000 0.196311 0
22.670000 0.216803 0
22.675000 0.234502 0
22.680000 0.248632 0
22.685000 0.258543 0
22.690000 0.263758 0
22.695000 0.264016 1
22.700000 0.259286 0
22.705000 0.249778 0
22.710000 0.235920 0
22.715000 0.218330 0
22.720000 0.197769 0
22.725000 0.175086 0
22.730000 0.151160 0
22.735000 0.126843 0
22.740000 0.102914 0
22.745000 0.080035 0
22.750000 0.058723 0
22.755000 0.039315 0
22.760000 0.021920 0
22.765000 0.006329 0
22.770000 -0.008135 0
22.775000 -0.022795 0
22.780000 -0.039707 0
22.785000 -0.061393 0
22.790000 -0.089997 0
22.795000 -0.125812 0
22.800000 -0.165656 0
22.805000 -0.201919 0
22.810000 -0.222996 2
22.815000 -0.215048 0
22.820000 -0.164342 0
22.825000 -0.059556 0
22.830000 0.105404 0
22.835000 0.327003 0
22.840000 0.586559 0
22.845000 0.847257 0
22.850000 1.058821 0
22.855000 1.171678 3
22.860000 1.155307 0
22.865000 1.011098 0
22.870000 0.772174 0
22.875000 0.489153 0
22.880000 0.211979 0
22.885000 -0.022782 0
22.890000 -0.195447 0
22.895000 -0.300496 0
22.900000 -0.342582 4
22.905000 -0.333663 0
22.910000 -0.290517 0
22.915000 -0.231324 0
22.920000 -0.171643 0
22.925000 -0.121430 0
22.930000 -0.084385 0
22.935000 -0.059480 0
22.940000 -0.043388 0
22.945000 -0.032515 0
22.950000 -0.024071 0
22.955000 -0.016289 0
22.960000 -0.008196 0
22.965000 0.000694 0
22.970000 0.010622 0
22.975000 0.021715 0
22.980000 0.034054 0
22.985000 0.047687 0
22.990000 0.062644 0
22.995000 0.078927 0
23.000000 0.096515 0
23.005000 0.115352 0
23.010000 0.135353 0
23.015000 0.156397 0
23.020000 0.178328 0
23.025000 0.200953 0
23.030000 0.224045 0
23.035000 0.247346 0
23.040000 0.270569 0
23.045000 0.293404 0
23.050000 0.315523 0
23.055000 0.336590 0
23.060000 0.356268 0
23.065000 0.374224 0
23.070000 0.390144 0
23.075000 0.403739 0
23.080000 0.414752 0
23.085000 0.422967 0
23.090000 0.428218 0
23.095000 0.430391 5
23.100000 0.429427 0
23.105000 0.425330 0
23.110000 0.418159 0
23.115000 0.408033 0
23.120000 0.395124 0
23.125000 0.379652 0
23.130000 0.361881 0
23.135000 0.342108 0
23.140000 0.320655 0
23.145000 0.297865 0
23.150000 0.274085 0
23.155000 0.249663 0
23.160000 0.224938 0
23.165000 0.200230 0
23.170000 0.175839 0
23.175000 0.152033 0
23.180000 0.129049 0
23.185000 0.107086 0
23.190000 0.086310 0
23.195000 0.066845 0
23.200000 0.048782 0
23.205000 0.032176 0
23.210000 0.017050 0
23.215000 0.003398 0
23.220000 -0.008809 0
23.225000 -0.019622 0
23.230000 -0.029109 0
23.235000 -0.037351 0
23.240000 -0.044437 0
23.245000 -0.050463 0
23.250000 -0.055527 0
23.255000 -0.059727 0
23.260000 -0.063158 0
23.265000 -0.065913 0
23.270000 -0.068077 0
23.275000 -0.069730 0
23.280000 -0.070947 0
23.285000 -0.071792 0
23.290000 -0.072325 0
23.295000 -0.072597 0
23.300000 -0.072654 0
23.305000 -0.072535 0
23.310000 -0.072271 0
23.315000 -0.071893 0
23.320000 -0.071422 0
23.325000 -0.070879 0
23.330000 -0.070279 0
23.335000 -0.069635 0
23.340000 -0.068958 0
23.345000 -0.068187 0
23.350000 -0.067402 0
23.355000 -0.066622 0
23.360000 -0.065846 0
23.365000 -0.065073 0
23.370000 -0.064305 0
23.375000 -0.063540 0
23.380000 -0.062779 0
23.385000 -0.062022 0
23.390000 -0.061268 0
23.395000 -0.060519 0
23.400000 -0.059773 0
23.405000 -0.059030 0
23.410000 -0.058292 0
23.415000 -0.057557 0
23.420000 -0.056826 0
23.425000 -0.056099 0
23.430000 -0.055375 0
23.435000 -0.054654 0
23.440000 -0.053938 0
23.445000 -0.053225 0
23.450000 -0.052515 0
23.455000 -0.051809 0
23.460000 -0.051106 0
23.465000 -0.050406 0
23.470000 -0.049709 0
23.475000 -0.049015 0
23.480000 -0.048323 0
23.485000 -0.047631 0
23.490000 -0.046937 0
23.495000 -0.046239 0
23.500000 -0.045532 0
23.505000 -0.044808 0
23.510000 -0.044056 0
23.515000 -0.043259 0
23.520000 -0.042395 0
23.525000 -0.041429 0
23.530000 -0.040317 0
23.535000 -0.038996 0
23.540000 -0.037387 0
23.545000 -0.035385 0
23.550000 -0.032862 0
23.555000 -0.029663 0
23.560000 -0.025604 0
23.565000 -0.020479 0
23.570000 -0.014065 0
23.575000 -0.006129 0
23.580000 0.003551 0
23.585000 0.015172 0
23.590000 0.028882 0
23.595000 0.044753 0
23.600000 0.062760 0
23.605000 0.082755 0
23.610000 0.104453 0
23.615000 0.127422 0
23.620000 0.151086 0
23.625000 0.174742 0
23.630000 0.197588 0
23.635000 0.218767 0
23.640000 0.237414 0
23.645000 0.252717 0
23.650000 0.263976 0
23.655000 0.270650 0
23.660000 0.272406 1
23.665000 0.269140 0
23.670000 0.260989 0
23.675000 0.248323 0
23.680000 0.231712 0
23.685000 0.211885 0
23.690000 0.189677 0
23.695000 0.165972 0
23.700000 0.141642 0
23.705000 0.117494 0
23.710000 0.094234 0
23.715000 0.072423 0
23.720000 0.052452 0
23.725000 0.034500 0
23.730000 0.018450 0
23.735000 0.003758 0
23.740000 -0.010732 0
23.745000 -0.026914 0
23.750000 -0.047267 0
23.755000 -0.074155 0
23.760000 -0.108468 0
23.765000 -0.147938 0
23.770000 -0.185938 0
23.775000 -0.211565 2
23.780000 -0.211181 0
23.785000 -0.170729 0
23.790000 -0.078080 0
23.795000 0.074314 0
23.800000 0.285338 0
23.805000 0.539662 0
23.810000 0.803769 0
23.815000 1.028817 0
23.820000 1.163305 0
23.825000 1.171728 3
23.830000 1.049332 0
23.835000 0.824131 0
23.840000 0.545113 0
23.845000 0.263722 0
23.850000 0.019568 0
23.855000 -0.164692 0
23.860000 -0.281338 0
23.865000 -0.333519 4
23.870000 -0.332153 0
23.875000 -0.293471 0
23.880000 -0.235766 0
23.885000 -0.175346 0
23.890000 -0.123232 0
23.895000 -0.084093 0
23.900000 -0.057496 0
23.905000 -0.040307 0
23.910000 -0.028865 0
23.915000 -0.020216 0
23.920000 -0.012437 0
23.925000 -0.004454 0
23.930000 0.004276 0
23.935000 0.014020 0
23.940000 0.024918 0
23.945000 0.037055 0
23.950000 0.050483 0
23.955000 0.065235 0
23.960000 0.081318 0
23.965000 0.098712 0
23.970000 0.117367 0
23.975000 0.137202 0
23.980000 0.158100 0
23.985000 0.179908 0
23.990000 0.202438 0
23.995000 0.225466 0
24.000000 0.248735 0
24.005000 0.271962 0
24.010000 0.294838 0
24.015000 0.317035 0
24.020000 0.338217 0
24.025000 0.358043 0
24.030000 0.376181 0
24.035000 0.392312 0
24.040000 0.406143 0
24.045000 0.417411 0
24.050000 0.425896 0
24.055000 0.431426 0
24.060000 0.433880 5
24.065000 0.433195 0
24.070000 0.429368 0
24.075000 0.422454 0
24.080000 0.412566 0
24.085000 0.399872 0
24.090000 0.384590 0
24.095000 0.366981 0
24.100000 0.347340 0
24.105000 0.325990 0
24.110000 0.303273 0
24.115000 0.279537 0
24.120000 0.255132 0
24.125000 0.230399 0
24.130000 0.205662 0
24.135000 0.181222 0
24.140000 0.157351 0
24.145000 0.134288 0
24.150000 0.112239 0
24.155000 0.091368 0
24.160000 0.071805 0
24.165000 0.053642 0
24.170000 0.036936 0
24.175000 0.021712 0
24.180000 0.007967 0
24.185000 -0.004328 0
24.190000 -0.015225 0
24.195000 -0.024789 0
24.200000 -0.033102 0
24.205000 -0.040253 0
24.210000 -0.046339 0
24.215000 -0.051456 0
24.220000 -0.055704 0
24.225000 -0.059179 0
24.230000 -0.061973 0
24.235000 -0.064172 0
24.240000 -0.065858 0
24.245000 -0.067104 0
24.250000 -0.067977 0
24.255000 -0.068535 0
24.260000 -0.068831 0
24.265000 -0.068910 0
24.270000 -0.068811 0
24.275000 -0.068569 0
24.280000 -0.068210 0
24.285000 -0.067758 0
24.290000 -0.067234 0
24.295000 -0.066652 0
24.300000 -0.066027 0
24.305000 -0.065368 0
24.310000 -0.064614 0
24.315000 -0.063848 0
24.320000 -0.063086 0
24.325000 -0.062327 0
24.330000 -0.061572 0
24.335000 -0.060821 0
24.340000 -0.060073 0
24.345000 -0.059330 0
24.350000 -0.058590 0
24.355000 -0.057853 0
24.360000 -0.057121 0
24.365000 -0.056392 0
24.370000 -0.055666 0
24.375000 -0.054945 0
24.380000 -0.054227 0
24.385000 -0.053512 0
24.390000 -0.052801 0
24.395000 -0.052094 0
24.400000 -0.051390 0
24.405000 -0.050689 0
24.410000 -0.049992 0
24.415000 -0.049299 0
24.420000 -0.048609 0
24.425000 -0.047922 0
24.430000 -0.047238 0
24.435000 -0.046557 0
24.440000 -0.045879 0
24.445000 -0.045202 0
24.450000 -0.044525 0
24.455000 -0.043847 0
24.460000 -0.043164 0
24.465000 -0.042471 0
24.470000 -0.041760 0
24.475000 -0.041021 0
24.480000 -0.040236 0
24.485000 -0.039380 0
24.490000 -0.038421 0
24.495000 -0.037311 0
24.500000 -0.035988 0
24.505000 -0.034368 0
24.510000 -0.032346 0
24.515000 -0.029791 0
24.520000 -0.026544 0
24.525000 -0.022421 0
24.530000 -0.017212 0
24.535000 -0.010691 0
24.540000 -0.002626 0
24.545000 0.007205 0
24.550000 0.018997 0
24.555000 0.032891 0
24.560000 0.048954 0
24.565000 0.067148 0
24.570000 0.087313 0
24.575000 0.109148 0
24.580000 0.132204 0
24.585000 0.155890 0
24.590000 0.179489 0
24.595000 0.202186 0
24.600000 0.223117 0
24.605000 0.241419 0
24.610000 0.256286 0
24.615000 0.267029 0
24.620000 0.273130 0
24.625000 0.274277 1
24.630000 0.270398 0
24.635000 0.261657 0
24.640000 0.248454 0
24.645000 0.231381 0
24.650000 0.211189 0
24.655000 0.188725 0
24.660000 0.164878 0
24.665000 0.140516 0
24.670000 0.116440 0
24.675000 0.093339 0
24.680000 0.071755 0
24.685000 0.052056 0
24.690000 0.034381 0
24.695000 0.018564 0
24.700000 0.003979 0
24.705000 -0.010638 0
24.710000 -0.027296 0
24.715000 -0.048529 0
24.720000 -0.076585 0
24.725000 -0.111974 0
24.730000 -0.151785 0
24.735000 -0.188636 0
24.740000 -0.211004 2
24.745000 -0.204967 0
24.750000 -0.156573 0
24.755000 -0.054208 0
24.760000 0.108578 0
24.765000 0.328638 0
24.770000 0.587593 0
24.775000 0.848640 0
24.780000 1.061097 0
24.785000 1.174730 3
24.790000 1.157691 0
24.795000 1.010214 0
24.800000 0.767695 0
24.805000 0.483492 0
24.810000 0.209159 0
24.815000 -0.018741 0
24.820000 -0.181618 0
24.825000 -0.275472 0
24.830000 -0.306656 4
24.835000 -0.288896 0
24.840000 -0.240421 0
24.845000 -0.179973 0
24.850000 -0.122493 0
24.855000 -0.076462 0
24.860000 -0.043962 0
24.865000 -0.022831 0
24.870000 -0.009292 0
24.875000 0.000165 0
24.880000 0.008017 0
24.885000 0.015717 0
24.890000 0.024013 0
24.895000 0.033269 0
24.900000 0.043665 0
24.905000 0.055305 0
24.910000 0.068254 0
24.915000 0.082551 0
24.920000 0.098211 0
24.925000 0.115219 0
24.930000 0.133533 0
24.935000 0.153072 0
24.940000 0.173722 0
24.945000 0.195329 0
24.950000 0.217702 0
24.955000 0.240609 0
24.960000 0.263788 0
24.965000 0.286943 0
24.970000 0.309751 0
24.975000 0.331872 0
24.980000 0.352955 0
24.985000 0.372643 0
24.990000 0.390590 0
24.995000 0.406463 0
25.000000 0.419959 0
25.005000 0.430809 0
25.010000 0.438789 0
25.015000 0.443725 0
25.020000 0.445502 5
25.025000 0.444066 0
25.030000 0.439427 0
25.035000 0.431657 0
25.040000 0.420889 0
25.045000 0.407314 0
25.050000 0.391174 0
25.055000 0.372753 0
25.060000 0.352371 0
25.065000 0.330373 0
25.070000 0.307120 0
25.075000 0.282978 0
25.080000 0.258308 0
25.085000 0.233459 0
25.090000 0.208759 0
25.095000 0.184507 0
25.100000 0.160971 0
25.105000 0.138380 0
25.110000 0.116925 0
25.115000 0.096757 0
25.120000 0.077987 0
25.125000 0.060688 0
25.130000 0.044897 0
25.135000 0.030620 0
25.140000 0.017834 0
25.145000 0.006492 0
25.150000 -0.003471 0
25.155000 -0.012137 0
25.160000 -0.019597 0
25.165000 -0.025951 0
25.170000 -0.031300 0
25.175000 -0.035747 0
25.180000 -0.039393 0
25.185000 -0.042334 0
25.190000 -0.044663 0
25.195000 -0.046463 0
25.200000 -0.047811 0
25.205000 -0.048776 0
25.210000 -0.049422 0
25.215000 -0.049801 0
25.220000 -0.049960 0
25.225000 -0.049941 0
25.230000 -0.049777 0
25.235000 -0.049498 0
25.240000 -0.049126 0
25.245000 -0.048682 0
25.250000 -0.048183 0
25.255000 -0.047640 0
25.260000 -0.047050 0
25.265000 -0.046371 0
25.270000 -0.045696 0
25.275000 -0.045024 0
25.280000 -0.044355 0
25.285000 -0.043690 0
25.290000 -0.043028 0
25.295000 -0.042369 0
25.300000 -0.041714 0
25.305000 -0.041062 0
25.310000 -0.040413 0
25.315000 -0.039767 0
25.320000 -0.039125 0
25.325000 -0.038486 0
25.330000 -0.037850 0
25.335000 -0.037217 0
25.340000 -0.036587 0
25.345000 -0.035961 0
25.350000 -0.035337 0
25.355000 -0.034717 0
25.360000 -0.034100 0
25.365000 -0.033485 0
25.370000 -0.032874 0
25.375000 -0.032266 0
25.380000 -0.031660 0
25.385000 -0.031057 0
25.390000 -0.030456 0
25.395000 -0.029856 0
25.400000 -0.029257 0
25.405000 -0.028655 0
25.410000 -0.028049 0
25.415000 -0.027432 0
25.420000 -0.026798 0
25.425000 -0.026134 0
25.430000 -0.025424 0
25.435000 -0.024641 0
25.440000 -0.023750 0
25.445000 -0.022702 0
25.450000 -0.021429 0
25.455000 -0.019844 0
25.460000 -0.017834 0
25.465000 -0.015258 0
25.470000 -0.011945 0
25.475000 -0.007699 0
25.480000 -0.002296 0
25.485000 0.004501 0
25.490000 0.012935 0
25.495000 0.023233 0
25.500000 0.035584 0
25.505000 0.050116 0
25.510000 0.066866 0
25.515000 0.085752 0
25.520000 0.106556 0
25.525000 0.128903 0
25.530000 0.152262 0
25.535000 0.175956 0
25.540000 0.199185 0
25.545000 0.221068 0
25.550000 0.240695 0
25.555000 0.257189 0
25.560000 0.269767 0
25.565000 0.277803 0
25.570000 0.280879 1
25.575000 0.278819 0
25.580000 0.271703 0
25.585000 0.259865 0
25.590000 0.243861 0
25.595000 0.224431 0
25.600000 0.202437 0
25.605000 0.178799 0
25.610000 0.154436 0
25.615000 0.130202 0
25.620000 0.106842 0
25.625000 0.084952 0
25.630000 0.064945 0
25.635000 0.047002 0
25.640000 0.030987 0
25.645000 0.016295 0
25.650000 0.001651 0
25.655000 -0.015010 0
25.660000 -0.036326 0
25.665000 -0.064633 0
25.670000 -0.100387 0
25.675000 -0.140340 0
25.680000 -0.176459 0
25.685000 -0.196402 2
25.690000 -0.185512 0
25.695000 -0.129412 0
25.700000 -0.016603 0
25.705000 0.158241 0
25.710000 0.389090 0
25.715000 0.652557 0
25.720000 0.905872 0
25.725000 1.094509 0
25.730000 1.169950 3
25.735000 1.109856 0
25.740000 0.927962 0
25.745000 0.666886 0
25.750000 0.380817 0
25.755000 0.117219 0
25.760000 -0.093054 0
25.765000 -0.236238 0
25.770000 -0.311648 0
25.775000 -0.327844 4
25.780000 -0.299932 0
25.785000 -0.246509 0
25.790000 -0.185519 0
25.795000 -0.130261 0
25.800000 -0.087437 0
25.805000 -0.057840 0
25.810000 -0.038725 0
25.815000 -0.026292 0
25.820000 -0.017268 0
25.825000 -0.009447 0
25.830000 -0.001572 0
25.835000 0.006993 0
25.840000 0.016559 0
25.845000 0.027282 0
25.850000 0.039256 0
25.855000 0.052540 0
25.860000 0.067168 0
25.865000 0.083150 0
25.870000 0.100468 0
25.875000 0.119071 0
25.880000 0.138878 0
25.885000 0.159767 0
25.890000 0.181582 0
25.895000 0.204126 0
25.900000 0.227169 0
25.905000 0.250443 0
25.910000 0.273654 0
25.915000 0.296480 0
25.920000 0.318583 0
25.925000 0.339614 0
25.930000 0.359222 0
25.935000 0.377064 0
25.940000 0.392814 0
25.945000 0.406176 0
25.950000 0.416886 0
25.955000 0.424725 0
25.960000 0.429528 0
25.965000 0.431184 5
25.970000 0.429643 0
25.975000 0.424919 0
25.980000 0.417085 0
25.985000 0.406277 0
25.990000 0.392685 0
25.995000 0.376550 0
26.000000 0.358154 0
26.005000 0.337814 0
26.010000 0.315873 0
26.015000 0.292686 0
26.020000 0.268616 0
26.025000 0.244020 0
26.030000 0.219244 0
26.035000 0.194612 0
26.040000 0.170420 0
26.045000 0.146933 0
26.050000 0.124381 0
26.055000 0.102952 0
26.060000 0.082798 0
26.065000 0.064030 0
26.070000 0.046722 0
26.075000 0.030913 0
26.080000 0.016609 0
26.085000 0.003791 0
26.090000 -0.007587 0
26.095000 -0.017588 0
26.100000 -0.026292 0
26.105000 -0.033788 0
26.110000 -0.040173 0
26.115000 -0.045549 0
26.120000 -0.050018 0
26.125000 -0.053679 0
26.130000 -0.056629 0
26.135000 -0.058958 0
26.140000 -0.060751 0
26.145000 -0.062085 0
26.150000 -0.063030 0
26.155000 -0.063648 0
26.160000 -0.063994 0
26.165000 -0.064115 0
26.170000 -0.064053 0
26.175000 -0.063841 0
26.180000 -0.063510 0
26.185000 -0.063084 0
26.190000 -0.062584 0
26.195000 -0.062025 0
26.200000 -0.061422 0
26.205000 -0.060768 0
26.210000 -0.060021 0
26.215000 -0.059278 0
26.220000 -0.058538 0
26.225000 -0.057802 0
26.230000 -0.057070 0
26.235000 -0.056341 0
26.240000 -0.055616 0
26.245000 -0.054894 0
26.250000 -0.054177 0
26.255000 -0.053462 0
26.260000 -0.052752 0
26.265000 -0.052044 0
26.270000 -0.051341 0
26.275000 -0.050641 0
26.280000 -0.049944 0
26.285000 -0.049251 0
26.290000 -0.048561 0
26.295000 -0.047875 0
26.300000 -0.047192 0
26.305000 -0.046512 0
26.310000 -0.045836 0
26.315000 -0.045163 0
26.320000 -0.044494 0
26.325000 -0.043827 0
26.330000 -0.043164 0
26.335000 -0.042503 0
26.340000 -0.041844 0
26.345000 -0.041185 0
26.350000 -0.040527 0
26.355000 -0.039864 0
26.360000 -0.039195 0
26.365000 -0.038511 0
26.370000 -0.037803 0
26.375000 -0.037057 0
26.380000 -0.036250 0
26.385000 -0.035352 0
26.390000 -0.034319 0
26.395000 -0.033094 0
26.400000 -0.031598 0
26.405000 -0.029730 0
26.410000 -0.027363 0
26.415000 -0.024342 0
26.420000 -0.020483 0
26.425000 -0.015575 0
26.430000 -0.009390 0
26.435000 -0.001687 0
26.440000 0.007767 0
26.445000 0.019181 0
26.450000 0.032712 0
26.455000 0.048444 0
26.460000 0.066355 0
26.465000 0.086297 0
26.470000 0.107978 0
26.475000 0.130950 0
26.480000 0.154612 0
26.485000 0.178233 0
26.490000 0.200976 0
26.495000 0.221950 0
26.500000 0.240262 0
26.505000 0.255079 0
26.510000 0.265694 0
26.515000 0.271575 0
26.520000 0.272413 1
26.525000 0.268146 0
26.530000 0.258967 0
26.535000 0.245305 0
26.540000 0.227795 0
26.545000 0.207226 0
26.550000 0.184484 0
26.555000 0.160485 0
26.560000 0.136118 0
26.565000 0.112191 0
26.570000 0.089386 0
26.575000 0.068226 0
26.580000 0.049037 0
26.585000 0.031895 0
26.590000 0.016513 0
26.595000 0.002072 0
26.600000 -0.012967 0
26.605000 -0.030903 0
26.610000 -0.054378 0
26.615000 -0.085268 0
26.620000 -0.122969 0
26.625000 -0.162742 0
26.630000 -0.195104 0
26.635000 -0.206841 2
26.640000 -0.183264 0
26.645000 -0.110759 0
26.650000 0.020598 0
26.655000 0.213328 0
26.660000 0.456968 0
26.665000 0.722703 0
26.670000 0.963650 0
26.675000 1.125447 0
26.680000 1.165341 3
26.685000 1.069705 0
26.690000 0.860396 0
26.695000 0.586419 0
26.700000 0.302855 0
26.705000 0.053669 0
26.710000 -0.135373 0
26.715000 -0.255076 0
26.720000 -0.308314 4
26.725000 -0.306504 0
26.730000 -0.266831 0
26.735000 -0.208606 0
26.740000 -0.148748 0
26.745000 -0.098252 0
26.750000 -0.061271 0
26.755000 -0.036751 0
26.760000 -0.021146 0
26.765000 -0.010679 0
26.770000 -0.002486 0
26.775000 0.005196 0
26.780000 0.013306 0
26.785000 0.022300 0
26.790000 0.032401 0
26.795000 0.043729 0
26.800000 0.056359 0
26.805000 0.070337 0
26.810000 0.085686 0
26.815000 0.102398 0
26.820000 0.120439 0
26.825000 0.139736 0
26.830000 0.160182 0
26.835000 0.181630 0
26.840000 0.203896 0
26.845000 0.226754 0
26.850000 0.249945 0
26.855000 0.273175 0
26.860000 0.296123 0
26.865000 0.318448 0
26.870000 0.339794 0
26.875000 0.359802 0
26.880000 0.378118 0
26.885000 0.394402 0
26.890000 0.408341 0
26.895000 0.419657 0
26.900000 0.428114 0
26.905000 0.433530 0
26.910000 0.435780 5
26.915000 0.434800 0
26.920000 0.430591 0
26.925000 0.423219 0
26.930000 0.412813 0
26.935000 0.399559 0
26.940000 0.383696 0
26.945000 0.365510 0
26.950000 0.345321 0
26.955000 0.323477 0
26.960000 0.300342 0
26.965000 0.276287 0
26.970000 0.251678 0
26.975000 0.226869 0
26.980000 0.202195 0
26.985000 0.177958 0
26.990000 0.154432 0
26.995000 0.131850 0
27.000000 0.110406 0
27.005000 0.090255 0
27.010000 0.071509 0
27.015000 0.054241 0
27.020000 0.038491 0
27.025000 0.024263 0
27.030000 0.011535 0
27.035000 0.000258 0
27.040000 -0.009634 0
27.045000 -0.018224 0
27.050000 -0.025605 0
27.055000 -0.031877 0
27.060000 -0.037144 0
27.065000 -0.041511 0
27.070000 -0.045078 0
27.075000 -0.047943 0
27.080000 -0.050199 0
27.085000 -0.051929 0
27.090000 -0.053212 0
27.095000 -0.054116 0
27.100000 -0.054704 0
27.105000 -0.055030 0
27.110000 -0.055140 0
27.115000 -0.055075 0
27.120000 -0.054869 0
27.125000 -0.054550 0
27.130000 -0.054141 0
27.135000 -0.053663 0
27.140000 -0.053131 0
27.145000 -0.052557 0
27.150000 -0.051938 0
27.155000 -0.051235 0
27.160000 -0.050535 0
27.165000 -0.049839 0
27.170000 -0.049147 0
27.175000 -0.048457 0
27.180000 -0.047772 0
27.185000 -0.047089 0
27.190000 -0.046410 0
27.195000 -0.045735 0
27.200000 -0.045063 0
27.205000 -0.044394 0
27.210000 -0.043728 0
27.215000 -0.043066 0
27.220000 -0.042407 0
27.225000 -0.041752 0
27.230000 -0.041099 0
27.235000 -0.040450 0
27.240000 -0.039804 0
27.245000 -0.039162 0
27.250000 -0.038522 0
27.255000 -0.037886 0
27.260000 -0.037253 0
27.265000 -0.036622 0
27.270000 -0.035995 0
27.275000 -0.035370 0
27.280000 -0.034747 0
27.285000 -0.034125 0
27.290000 -0.033503 0
27.295000 -0.032878 0
27.300000 -0.032246 0
27.305000 -0.031602 0
27.310000 -0.030937 0
27.315000 -0.030236 0
27.320000 -0.029479 0
27.325000 -0.028637 0
27.330000 -0.027669 0
27.335000 -0.026518 0
27.340000 -0.025108 0
27.345000 -0.023340 0
27.350000 -0.021088 0
27.355000 -0.018197 0
27.360000 -0.014483 0
27.365000 -0.009734 0
27.370000 -0.003715 0
27.375000 0.003817 0
27.380000 0.013104 0
27.385000 0.024361 0
27.390000 0.037755 0
27.395000 0.053374 0
27.400000 0.071202 0
27.405000 0.091091 0
27.410000 0.112744 0
27.415000 0.135701 0
27.420000 0.159349 0
27.425000 0.182934 0
27.430000 0.205598 0
27.435000 0.226426 0
27.440000 0.244505 0
27.445000 0.258992 0
27.450000 0.269172 0
27.455000 0.274521 0
27.460000 0.274748 1
27.465000 0.269821 0
27.470000 0.259968 0
27.475000 0.245660 0
27.480000 0.227575 0
27.485000 0.206542 0
27.490000 0.183477 0
27.495000 0.159317 0
27.500000 0.134961 0
27.505000 0.111211 0
27.510000 0.088731 0
27.515000 0.068014 0
27.520000 0.049337 0
27.525000 0.032694 0
27.530000 0.017663 0
27.535000 0.003213 0
27.540000 -0.012473 0
27.545000 -0.031930 0
27.550000 -0.057768 0
27.555000 -0.091273 0
27.560000 -0.130528 0
27.565000 -0.168943 0
27.570000 -0.195205 2
27.575000 -0.194908 0
27.580000 -0.153142 0
27.585000 -0.057143 0
27.590000 0.100671 0
27.595000 0.317976 0
27.600000 0.576289 0
27.605000 0.837181 0
27.610000 1.047126 0
27.615000 1.153496 3
27.620000 1.126407 0
27.625000 0.971924 0
27.630000 0.726194 0
27.635000 0.441627 0
27.640000 0.168146 0
27.645000 -0.059011 0
27.650000 -0.221901 0
27.655000 -0.316610 0
27.660000 -0.349204 4
27.665000 -0.332901 0
27.670000 -0.285369 0
27.675000 -0.224973 0
27.680000 -0.166642 0
27.685000 -0.119175 0
27.690000 -0.085106 0
27.695000 -0.062630 0
27.700000 -0.048129 0
27.705000 -0.038080 0
27.710000 -0.029912 0
27.715000 -0.022073 0
27.720000 -0.013740 0
27.725000 -0.004510 0
27.730000 0.005817 0
27.735000 0.017352 0
27.740000 0.030166 0
27.745000 0.044301 0
27.750000 0.059779 0
27.755000 0.076593 0
27.760000 0.094708 0
27.765000 0.114059 0
27.770000 0.134542 0
27.775000 0.156020 0
27.780000 0.178318 0
27.785000 0.201224 0
27.790000 0.224493 0
27.795000 0.247846 0
27.800000 0.270979 0
27.805000 0.293566 0
27.810000 0.315267 0
27.815000 0.335737 0
27.820000 0.354633 0
27.825000 0.371623 0
27.830000 0.386399 0
27.835000 0.398680 0
27.840000 0.408228 0
27.845000 0.414848 0
27.850000 0.418400 0
27.855000 0.418799 5
27.860000 0.416022 0
27.865000 0.410107 0
27.870000 0.401151 0
27.875000 0.389310 0
27.880000 0.374790 0
27.885000 0.357847 0
27.890000 0.338771 0
27.895000 0.317885 0
27.900000 0.295532 0
27.905000 0.272067 0
27.910000 0.247846 0
27.915000 0.223219 0
27.920000 0.198518 0
27.925000 0.174057 0
27.930000 0.150118 0
27.935000 0.126952 0
27.940000 0.104773 0
27.945000 0.083756 0
27.950000 0.064040 0
27.955000 0.045723 0
27.960000 0.028869 0
27.965000 0.013508 0
27.970000 -0.000361 0
27.975000 -0.012764 0
27.980000 -0.023749 0
27.985000 -0.033385 0
27.990000 -0.041752 0
27.995000 -0.048940 0
28.000000 -0.055046 0
28.005000 -0.060170 0
28.010000 -0.064413 0
28.015000 -0.067871 0
28.020000 -0.070640 0
28.025000 -0.072808 0
28.030000 -0.074457 0
28.035000 -0.075661 0
28.040000 -0.076489 0
28.045000 -0.077001 0
28.050000 -0.077249 0
28.055000 -0.077280 0
28.060000 -0.077133 0
28.065000 -0.076843 0
28.070000 -0.076437 0
28.075000 -0.075938 0
28.080000 -0.075368 0
28.085000 -0.074742 0
28.090000 -0.074072 0
28.095000 -0.073354 0
28.100000 -0.072544 0
28.105000 -0.071738 0
28.110000 -0.070936 0
28.115000 -0.070138 0
28.120000 -0.069344 0
28.125000 -0.068554 0
28.130000 -0.067768 0
28.135000 -0.066986 0
28.140000 -0.066208 0
28.145000 -0.065434 0
28.150000 -0.064663 0
28.155000 -0.063897 0
28.160000 -0.063134 0
28.165000 -0.062375 0
28.170000 -0.061620 0
28.175000 -0.060869 0
28.180000 -0.060121 0
28.185000 -0.059377 0
28.190000 -0.058637 0
28.195000 -0.057900 0
28.200000 -0.057167 0
28.205000 -0.056438 0
28.210000 -0.055712 0
28.215000 -0.054990 0
28.220000 -0.054270 0
28.225000 -0.053554 0
28.230000 -0.052840 0
28.235000 -0.052128 0
28.240000 -0.051415 0
28.245000 -0.050700 0
28.250000 -0.049978 0
28.255000 -0.049244 0
28.260000 -0.048489 0
28.265000 -0.047698 0
28.270000 -0.046853 0
28.275000 -0.045924 0
28.280000 -0.044873 0
28.285000 -0.043644 0
28.290000 -0.042165 0
28.295000 -0.040342 0
28.300000 -0.038057 0
28.305000 -0.035163 0
28.310000 -0.031485 0
28.315000 -0.026823 0
28.320000 -0.020955 0
28.325000 -0.013645 0
28.330000 -0.004660 0
28.335000 0.006214 0
28.340000 0.019150 0
28.345000 0.034254 0
28.350000 0.051540 0
28.355000 0.070904 0
