0.000000 1.119938 3
0.005000 1.053580 0
0.010000 0.882973 0
0.015000 0.642234 0
0.020000 0.374517 0
0.025000 0.119250 0
0.030000 -0.095650 0
0.035000 -0.255293 0
0.040000 -0.355522 0
0.045000 -0.400000 4
0.050000 -0.398130 0
0.055000 -0.363311 0
0.060000 -0.310598 0
0.065000 -0.253777 0
0.070000 -0.202833 0
0.075000 -0.162850 0
0.080000 -0.134569 0
0.085000 -0.115998 0
0.090000 -0.104143 0
0.095000 -0.096218 0
0.100000 -0.090177 0
0.105000 -0.084736 0
0.110000 -0.079180 0
0.115000 -0.073136 0
0.120000 -0.066406 0
0.125000 -0.058870 0
0.130000 -0.050441 0
0.135000 -0.041048 0
0.140000 -0.030627 0
0.145000 -0.019125 0
0.150000 -0.006501 0
0.155000 0.007272 0
0.160000 0.022206 0
0.165000 0.038292 0
0.170000 0.055498 0
0.175000 0.073770 0
0.180000 0.093027 0
0.185000 0.113162 0
0.190000 0.134039 0
0.195000 0.155496 0
0.200000 0.177342 0
0.205000 0.199366 0
0.210000 0.221331 0
0.215000 0.242984 0
0.220000 0.264058 0
0.225000 0.284278 0
0.230000 0.303366 0
0.235000 0.321047 0
0.240000 0.337055 0
0.245000 0.351143 0
0.250000 0.363084 0
0.255000 0.372682 0
0.260000 0.379771 0
0.265000 0.384227 0
0.270000 0.385967 5
0.275000 0.384951 0
0.280000 0.381186 0
0.285000 0.374723 0
0.290000 0.365659 0
0.295000 0.354131 0
0.300000 0.340316 0
0.305000 0.324422 0
0.310000 0.306688 0
0.315000 0.287373 0
0.320000 0.266752 0
0.325000 0.245112 0
0.330000 0.222739 0
0.335000 0.199917 0
0.340000 0.176921 0
0.345000 0.154011 0
0.350000 0.131427 0
0.355000 0.109387 0
0.360000 0.088084 0
0.365000 0.067680 0
0.370000 0.048312 0
0.375000 0.030087 0
0.380000 0.013083 0
0.385000 -0.002648 0
0.390000 -0.017080 0
0.395000 -0.030211 0
0.400000 -0.042055 0
0.405000 -0.052649 0
0.410000 -0.062041 0
0.415000 -0.070291 0
0.420000 -0.077469 0
0.425000 -0.083651 0
0.430000 -0.088916 0
0.435000 -0.093345 0
0.440000 -0.097019 0
0.445000 -0.100017 0
0.450000 -0.102415 0
0.455000 -0.104284 0
0.460000 -0.105692 0
0.465000 -0.106700 0
0.470000 -0.107364 0
0.475000 -0.107735 0
0.480000 -0.107859 0
0.485000 -0.107774 0
0.490000 -0.107516 0
0.495000 -0.107115 0
0.500000 -0.106597 0
0.505000 -0.105984 0
0.510000 -0.105295 0
0.515000 -0.104544 0
0.520000 -0.103746 0
0.525000 -0.102910 0
0.530000 -0.102046 0
0.535000 -0.101161 0
0.540000 -0.100259 0
0.545000 -0.099347 0
0.550000 -0.098397 0
0.555000 -0.097444 0
0.560000 -0.096496 0
0.565000 -0.095553 0
0.570000 -0.094615 0
0.575000 -0.093681 0
0.580000 -0.092752 0
0.585000 -0.091828 0
0.590000 -0.090908 0
0.595000 -0.089993 0
0.600000 -0.089082 0
0.605000 -0.088176 0
0.610000 -0.087275 0
0.615000 -0.086377 0
0.620000 -0.085485 0
0.625000 -0.084597 0
0.630000 -0.083713 0
0.635000 -0.082834 0
0.640000 -0.081959 0
0.645000 -0.081088 0
0.650000 -0.080222 0
0.655000 -0.079360 0
0.660000 -0.078503 0
0.665000 -0.077649 0
0.670000 -0.076800 0
0.675000 -0.075955 0
0.680000 -0.075115 0
0.685000 -0.074278 0
0.690000 -0.073446 0
0.695000 -0.072618 0
0.700000 -0.071793 0
0.705000 -0.070973 0
0.710000 -0.070156 0
0.715000 -0.069343 0
0.720000 -0.068532 0
0.725000 -0.067723 0
0.730000 -0.066915 0
0.735000 -0.066105 0
0.740000 -0.065291 0
0.745000 -0.064467 0
0.750000 -0.063627 0
0.755000 -0.062760 0
0.760000 -0.061851 0
0.765000 -0.060880 0
0.770000 -0.059820 0
0.775000 -0.058631 0
0.780000 -0.057264 0
0.785000 -0.055653 0
0.790000 -0.053717 0
0.795000 -0.051355 0
0.800000 -0.048445 0
0.805000 -0.044843 0
0.810000 -0.040388 0
0.815000 -0.034901 0
0.820000 -0.028194 0
0.825000 -0.020078 0
0.830000 -0.010376 0
0.835000 0.001065 0
0.840000 0.014353 0
0.845000 0.029537 0
0.850000 0.046584 0
0.855000 0.065371 0
0.860000 0.085664 0
0.865000 0.107119 0
0.870000 0.129279 0
0.875000 0.151586 0
0.880000 0.173400 0
0.885000 0.194025 0
0.890000 0.212748 0
0.895000 0.228876 0
0.900000 0.241777 0
0.905000 0.250926 0
0.910000 0.255933 0
0.915000 0.256579 1
0.920000 0.252822 0
0.925000 0.244809 0
0.930000 0.232860 0
0.935000 0.217452 0
0.940000 0.199183 0
0.945000 0.178735 0
0.950000 0.156833 0
0.955000 0.134200 0
0.960000 0.111522 0
0.965000 0.089411 0
0.970000 0.068385 0
0.975000 0.048847 0
0.980000 0.031073 0
0.985000 0.015195 0
0.990000 0.001174 0
0.995000 -0.011273 0
1.000000 -0.022772 0
1.005000 -0.034434 0
1.010000 -0.047922 0
1.015000 -0.065319 0
1.020000 -0.088596 0
1.025000 -0.118636 0
1.030000 -0.154005 0
1.035000 -0.189987 0
1.040000 -0.218421 0
1.045000 -0.228582 2
1.050000 -0.208764 0
1.055000 -0.148001 0
1.060000 -0.037786 0
1.065000 0.125637 0
1.070000 0.337750 0
1.075000 0.581706 0
1.080000 0.826420 0
1.085000 1.030222 0
1.090000 1.151196 0
1.095000 1.160938 3
1.100000 1.054190 0
1.105000 0.851481 0
1.110000 0.594113 0
1.115000 0.327336 0
1.120000 0.087968 0
1.125000 -0.101080 0
1.130000 -0.230080 0
1.135000 -0.299262 0
1.140000 -0.316023 4
1.145000 -0.292949 0
1.150000 -0.245559 0
1.155000 -0.189232 0
1.160000 -0.136086 0
1.165000 -0.093122 0
1.170000 -0.062308 0
1.175000 -0.042118 0
1.180000 -0.029509 0
1.185000 -0.021436 0
1.190000 -0.015585 0
1.195000 -0.010491 0
1.200000 -0.005338 0
1.205000 0.000294 0
1.210000 0.006626 0
1.215000 0.013785 0
1.220000 0.021864 0
1.225000 0.030940 0
1.230000 0.041077 0
1.235000 0.052331 0
1.240000 0.064745 0
1.245000 0.078347 0
1.250000 0.093144 0
1.255000 0.109123 0
1.260000 0.126247 0
1.265000 0.144453 0
1.270000 0.163648 0
1.275000 0.183709 0
1.280000 0.204486 0
1.285000 0.225796 0
1.290000 0.247431 0
1.295000 0.269156 0
1.300000 0.290714 0
1.305000 0.311830 0
1.310000 0.332218 0
1.315000 0.351585 0
1.320000 0.369638 0
1.325000 0.386092 0
1.330000 0.400676 0
1.335000 0.413142 0
1.340000 0.423270 0
1.345000 0.430874 0
1.350000 0.435809 0
1.355000 0.437973 5
1.360000 0.437314 0
1.365000 0.433826 0
1.370000 0.427556 0
1.375000 0.418595 0
1.380000 0.407083 0
1.385000 0.393200 0
1.390000 0.377166 0
1.395000 0.359227 0
1.400000 0.339659 0
1.405000 0.318751 0
1.410000 0.296804 0
1.415000 0.274121 0
1.420000 0.251001 0
1.425000 0.227733 0
1.430000 0.204588 0
1.435000 0.181816 0
1.440000 0.159643 0
1.445000 0.138266 0
1.450000 0.117849 0
1.455000 0.098529 0
1.460000 0.080410 0
1.465000 0.063565 0
1.470000 0.048039 0
1.475000 0.033850 0
1.480000 0.020994 0
1.485000 0.009444 0
1.490000 -0.000842 0
1.495000 -0.009924 0
1.500000 -0.017869 0
1.505000 -0.024755 0
1.510000 -0.030664 0
1.515000 -0.035681 0
1.520000 -0.039891 0
1.525000 -0.043379 0
1.530000 -0.046226 0
1.535000 -0.048508 0
1.540000 -0.050298 0
1.545000 -0.051661 0
1.550000 -0.052660 0
1.555000 -0.053347 0
1.560000 -0.053772 0
1.565000 -0.053978 0
1.570000 -0.054001 0
1.575000 -0.053873 0
1.580000 -0.053624 0
1.585000 -0.053274 0
1.590000 -0.052846 0
1.595000 -0.052353 0
1.600000 -0.051812 0
1.605000 -0.051231 0
1.610000 -0.050621 0
1.615000 -0.049988 0
1.620000 -0.049338 0
1.625000 -0.048677 0
1.630000 -0.047979 0
1.635000 -0.047278 0
1.640000 -0.046580 0
1.645000 -0.045886 0
1.650000 -0.045196 0
1.655000 -0.044508 0
1.660000 -0.043825 0
1.665000 -0.043144 0
1.670000 -0.042467 0
1.675000 -0.041794 0
1.680000 -0.041123 0
1.685000 -0.040457 0
1.690000 -0.039793 0
1.695000 -0.039133 0
1.700000 -0.038476 0
1.705000 -0.037822 0
1.710000 -0.037172 0
1.715000 -0.036525 0
1.720000 -0.035881 0
1.725000 -0.035240 0
1.730000 -0.034602 0
1.735000 -0.033968 0
1.740000 -0.033337 0
1.745000 -0.032709 0
1.750000 -0.032084 0
1.755000 -0.031462 0
1.760000 -0.030843 0
1.765000 -0.030228 0
1.770000 -0.029615 0
1.775000 -0.029005 0
1.780000 -0.028398 0
1.785000 -0.027793 0
1.790000 -0.027191 0
1.795000 -0.026590 0
1.800000 -0.025990 0
1.805000 -0.025389 0
1.810000 -0.024785 0
1.815000 -0.024174 0
1.820000 -0.023550 0
1.825000 -0.022905 0
1.830000 -0.022228 0
1.835000 -0.021499 0
1.840000 -0.020697 0
1.845000 -0.019785 0
1.850000 -0.018720 0
1.855000 -0.017442 0
1.860000 -0.015874 0
1.865000 -0.013919 0
1.870000 -0.011459 0
1.875000 -0.008354 0
1.880000 -0.004439 0
1.885000 0.000468 0
1.890000 0.006561 0
1.895000 0.014042 0
1.900000 0.023104 0
1.905000 0.033916 0
1.910000 0.046606 0
1.915000 0.061242 0
1.920000 0.077807 0
1.925000 0.096189 0
1.930000 0.116159 0
1.935000 0.137366 0
1.940000 0.159340 0
1.945000 0.181497 0
1.950000 0.203164 0
1.955000 0.223608 0
1.960000 0.242077 0
1.965000 0.257839 0
1.970000 0.270238 0
1.975000 0.278730 0
1.980000 0.282927 1
1.985000 0.282623 0
1.990000 0.277813 0
1.995000 0.268691 0
2.000000 0.255635 0
2.005000 0.239187 0
2.010000 0.220006 0
2.015000 0.198832 0
2.020000 0.176432 0
2.025000 0.153561 0
2.030000 0.130912 0
2.035000 0.109094 0
2.040000 0.088597 0
2.045000 0.069785 0
2.050000 0.052874 0
2.055000 0.037911 0
2.060000 0.024722 0
2.065000 0.012806 0
2.070000 0.001202 0
2.075000 -0.011642 0
2.080000 -0.027817 0
2.085000 -0.049518 0
2.090000 -0.078103 0
2.095000 -0.112760 0
2.100000 -0.149305 0
2.105000 -0.179777 0
2.110000 -0.193201 2
2.115000 -0.177265 0
2.120000 -0.120238 0
2.125000 -0.012873 0
2.130000 0.149114 0
2.135000 0.361197 0
2.140000 0.605544 0
2.145000 0.848953 0
2.150000 1.047157 0
2.155000 1.156660 3
2.160000 1.149809 0
2.165000 1.025709 0
2.170000 0.811030 0
2.175000 0.549073 0
2.180000 0.284733 0
2.185000 0.052911 0
2.190000 -0.125792 0
2.195000 -0.243610 0
2.200000 -0.302271 0
2.205000 -0.310350 4
2.210000 -0.281296 0
2.215000 -0.230987 0
2.220000 -0.174498 0
2.225000 -0.123084 0
2.230000 -0.082685 0
2.235000 -0.054381 0
2.240000 -0.036145 0
2.245000 -0.024806 0
2.250000 -0.017422 0
2.255000 -0.011861 0
2.260000 -0.006820 0
2.265000 -0.001593 0
2.270000 0.004183 0
2.275000 0.010697 0
2.280000 0.018069 0
2.285000 0.026385 0
2.290000 0.035719 0
2.295000 0.046135 0
2.300000 0.057685 0
2.305000 0.070410 0
2.310000 0.084331 0
2.315000 0.099452 0
2.320000 0.115752 0
2.325000 0.133187 0
2.330000 0.151684 0
2.335000 0.171141 0
2.340000 0.191427 0
2.345000 0.212379 0
2.350000 0.233807 0
2.355000 0.255489 0
2.360000 0.277184 0
2.365000 0.298625 0
2.370000 0.319532 0
2.375000 0.339612 0
2.380000 0.358570 0
2.385000 0.376112 0
2.390000 0.391955 0
2.395000 0.405832 0
2.400000 0.417503 0
2.405000 0.426756 0
2.410000 0.433419 0
2.415000 0.437360 0
2.420000 0.438495 5
2.425000 0.436787 0
2.430000 0.432250 0
2.435000 0.424949 0
2.440000 0.414993 0
2.445000 0.402542 0
2.450000 0.387790 0
2.455000 0.370972 0
2.460000 0.352348 0
2.465000 0.332202 0
2.470000 0.310832 0
2.475000 0.288542 0
2.480000 0.265637 0
2.485000 0.242416 0
2.490000 0.219161 0
2.495000 0.196140 0
2.500000 0.173593 0
2.505000 0.151735 0
2.510000 0.130752 0
2.515000 0.110798 0
2.520000 0.091994 0
2.525000 0.074432 0
2.530000 0.058173 0
2.535000 0.043250 0
2.540000 0.029670 0
2.545000 0.017418 0
2.550000 0.006459 0
2.555000 -0.003258 0
2.560000 -0.011797 0
2.565000 -0.019232 0
2.570000 -0.025642 0
2.575000 -0.031113 0
2.580000 -0.035731 0
2.585000 -0.039582 0
2.590000 -0.042748 0
2.595000 -0.045310 0
2.600000 -0.047342 0
2.605000 -0.048915 0
2.610000 -0.050093 0
2.615000 -0.050933 0
2.620000 -0.051487 0
2.625000 -0.051801 0
2.630000 -0.051915 0
2.635000 -0.051864 0
2.640000 -0.051677 0
2.645000 -0.051381 0
2.650000 -0.050996 0
2.655000 -0.050540 0
2.660000 -0.050029 0
2.665000 -0.049474 0
2.670000 -0.048885 0
2.675000 -0.048271 0
2.680000 -0.047638 0
2.685000 -0.046991 0
2.690000 -0.046328 0
2.695000 -0.045636 0
2.700000 -0.044946 0
2.705000 -0.044260 0
2.710000 -0.043578 0
2.715000 -0.042899 0
2.720000 -0.042223 0
2.725000 -0.041551 0
2.730000 -0.040882 0
2.735000 -0.040216 0
2.740000 -0.039554 0
2.745000 -0.038894 0
2.750000 -0.038239 0
2.755000 -0.037586 0
2.760000 -0.036937 0
2.765000 -0.036291 0
2.770000 -0.035648 0
2.775000 -0.035009 0
2.780000 -0.034372 0
2.785000 -0.033739 0
2.790000 -0.033109 0
2.795000 -0.032482 0
2.800000 -0.031858 0
2.805000 -0.031238 0
2.810000 -0.030620 0
2.815000 -0.030005 0
2.820000 -0.029394 0
2.825000 -0.028786 0
2.830000 -0.028180 0
2.835000 -0.027577 0
2.840000 -0.026978 0
2.845000 -0.026380 0
2.850000 -0.025785 0
2.855000 -0.025192 0
2.860000 -0.024600 0
2.865000 -0.024007 0
2.870000 -0.023412 0
2.875000 -0.022810 0
2.880000 -0.022198 0
2.885000 -0.021567 0
2.890000 -0.020907 0
2.895000 -0.020201 0
2.900000 -0.019426 0
2.905000 -0.018552 0
2.910000 -0.017536 0
2.915000 -0.016321 0
2.920000 -0.014835 0
2.925000 -0.012984 0
2.930000 -0.010654 0
2.935000 -0.007709 0
2.940000 -0.003988 0
2.945000 0.000688 0
2.950000 0.006515 0
2.955000 0.013694 0
2.960000 0.022424 0
2.965000 0.032880 0
2.970000 0.045202 0
2.975000 0.059470 0
2.980000 0.075686 0
2.985000 0.093755 0
2.990000 0.113468 0
2.995000 0.134492 0
3.000000 0.156372 0
3.005000 0.178540 0
3.010000 0.200328 0
3.015000 0.221006 0
3.020000 0.239814 0
3.025000 0.256009 0
3.030000 0.268915 0
3.035000 0.277966 0
3.040000 0.282747 0
3.045000 0.283026 1
3.050000 0.278770 0
3.055000 0.270149 0
3.060000 0.257525 0
3.065000 0.241425 0
3.070000 0.222504 0
3.075000 0.201500 0
3.080000 0.179186 0
3.085000 0.156326 0
3.090000 0.133627 0
3.095000 0.111711 0
3.100000 0.091083 0
3.105000 0.072122 0
3.110000 0.055058 0
3.115000 0.039953 0
3.120000 0.026649 0
3.125000 0.014670 0
3.130000 0.003078 0
3.135000 -0.009653 0
3.140000 -0.025608 0
3.145000 -0.047012 0
3.150000 -0.075302 0
3.155000 -0.109781 0
3.160000 -0.146379 0
3.165000 -0.177200 0
3.170000 -0.191253 2
3.175000 -0.176138 0
3.180000 -0.119997 0
3.185000 -0.013440 0
3.190000 0.147947 0
3.195000 0.359721 0
3.200000 0.604009 0
3.205000 0.847385 0
3.210000 1.045229 0
3.215000 1.153748 3
3.220000 1.145456 0
3.225000 1.020505 0
3.230000 0.806141 0
3.235000 0.544600 0
3.240000 0.279786 0
3.245000 0.046134 0
3.250000 -0.135691 0
3.255000 -0.257530 0
3.260000 -0.320550 0
3.265000 -0.332663 4
3.270000 -0.306643 0
3.275000 -0.257879 0
3.280000 -0.201340 0
3.285000 -0.148615 0
3.290000 -0.106246 0
3.295000 -0.075919 0
3.300000 -0.056016 0
3.305000 -0.043520 0
3.310000 -0.035448 0
3.315000 -0.029546 0
3.320000 -0.024385 0
3.325000 -0.019164 0
3.330000 -0.013470 0
3.335000 -0.007086 0
3.340000 0.000116 0
3.345000 0.008226 0
3.350000 0.017320 0
3.355000 0.027463 0
3.360000 0.038711 0
3.365000 0.051105 0
3.370000 0.064674 0
3.375000 0.079428 0
3.380000 0.095355 0
3.385000 0.112422 0
3.390000 0.130568 0
3.395000 0.149706 0
3.400000 0.169719 0
3.405000 0.190462 0
3.410000 0.211761 0
3.415000 0.233414 0
3.420000 0.255193 0
3.425000 0.276850 0
3.430000 0.298117 0
3.435000 0.318715 0
3.440000 0.338356 0
3.445000 0.356751 0
3.450000 0.373618 0
3.455000 0.388689 0
3.460000 0.401712 0
3.465000 0.412464 0
3.470000 0.420755 0
3.475000 0.426431 0
3.480000 0.429382 0
3.485000 0.429543 5
3.490000 0.426895 0
3.495000 0.421469 0
3.500000 0.413345 0
3.505000 0.402644 0
3.510000 0.389533 0
3.515000 0.374215 0
3.520000 0.356926 0
3.525000 0.337927 0
3.530000 0.317499 0
3.535000 0.295935 0
3.540000 0.273532 0
3.545000 0.250588 0
3.550000 0.227390 0
3.555000 0.204213 0
3.560000 0.181311 0
3.565000 0.158915 0
3.570000 0.137232 0
3.575000 0.116436 0
3.580000 0.096674 0
3.585000 0.078062 0
3.590000 0.060684 0
3.595000 0.044598 0
3.600000 0.029833 0
3.605000 0.016394 0
3.610000 0.004267 0
3.615000 -0.006586 0
3.620000 -0.016212 0
3.625000 -0.024677 0
3.630000 -0.032050 0
3.635000 -0.038412 0
3.640000 -0.043844 0
3.645000 -0.048431 0
3.650000 -0.052255 0
3.655000 -0.055400 0
3.660000 -0.057942 0
3.665000 -0.059955 0
3.670000 -0.061509 0
3.675000 -0.062665 0
3.680000 -0.063482 0
3.685000 -0.064010 0
3.690000 -0.064296 0
3.695000 -0.064378 0
3.700000 -0.064291 0
3.705000 -0.064067 0
3.710000 -0.063729 0
3.715000 -0.063300 0
3.720000 -0.062798 0
3.725000 -0.062239 0
3.730000 -0.061634 0
3.735000 -0.060993 0
3.740000 -0.060326 0
3.745000 -0.059639 0
3.750000 -0.058937 0
3.755000 -0.058218 0
3.760000 -0.057465 0
3.765000 -0.056717 0
3.770000 -0.055972 0
3.775000 -0.055231 0
3.780000 -0.054494 0
3.785000 -0.053761 0
3.790000 -0.053031 0
3.795000 -0.052304 0
3.800000 -0.051582 0
3.805000 -0.050863 0
3.810000 -0.050147 0
3.815000 -0.049435 0
3.820000 -0.048727 0
3.825000 -0.048022 0
3.830000 -0.047321 0
3.835000 -0.046623 0
3.840000 -0.045929 0
3.845000 -0.045238 0
3.850000 -0.044551 0
3.855000 -0.043867 0
3.860000 -0.043186 0
3.865000 -0.042509 0
3.870000 -0.041835 0
3.875000 -0.041165 0
3.880000 -0.040498 0
3.885000 -0.039834 0
3.890000 -0.039173 0
3.895000 -0.038516 0
3.900000 -0.037862 0
3.905000 -0.037211 0
3.910000 -0.036563 0
3.915000 -0.035918 0
3.920000 -0.035275 0
3.925000 -0.034634 0
3.930000 -0.033994 0
3.935000 -0.033353 0
3.940000 -0.032709 0
3.945000 -0.032059 0
3.950000 -0.031397 0
3.955000 -0.030716 0
3.960000 -0.030003 0
3.965000 -0.029241 0
3.970000 -0.028409 0
3.975000 -0.027473 0
3.980000 -0.026391 0
3.985000 -0.025105 0
3.990000 -0.023543 0
3.995000 -0.021612 0
4.000000 -0.019199 0
4.005000 -0.016168 0
4.010000 -0.012363 0
4.015000 -0.007608 0
4.020000 -0.001711 0
4.025000 0.005525 0
4.030000 0.014291 0
4.035000 0.024761 0
4.040000 0.037069 0
4.045000 0.051298 0
4.050000 0.067451 0
4.055000 0.085441 0
4.060000 0.105071 0
4.065000 0.126028 0
4.070000 0.147877 0
4.075000 0.170075 0
4.080000 0.191980 0
4.085000 0.212885 0
4.090000 0.232052 0
4.095000 0.248751 0
4.100000 0.262308 0
4.105000 0.272149 0
4.110000 0.277839 0
4.115000 0.279114 1
4.120000 0.275899 0
4.125000 0.268318 0
4.130000 0.256681 0
4.135000 0.241462 0
4.140000 0.223274 0
4.145000 0.202817 0
4.150000 0.180842 0
4.155000 0.158101 0
4.160000 0.135304 0
4.165000 0.113088 0
4.170000 0.091988 0
4.175000 0.072417 0
4.180000 0.054654 0
4.185000 0.038826 0
4.190000 0.024870 0
4.195000 0.012462 0
4.200000 0.000893 0
4.205000 -0.011072 0
4.210000 -0.025249 0
4.215000 -0.043829 0
4.220000 -0.068720 0
4.225000 -0.100410 0
4.230000 -0.136660 0
4.235000 -0.171624 0
4.240000 -0.195974 0
4.245000 -0.198099 2
4.250000 -0.165914 0
4.255000 -0.088688 0
4.260000 0.040995 0
4.265000 0.224336 0
4.270000 0.452125 0
4.275000 0.700856 0
4.280000 0.932758 0
4.285000 1.102877 0
4.290000 1.172523 3
4.295000 1.123924 0
4.300000 0.967039 0
4.305000 0.733705 0
4.310000 0.466966 0
4.315000 0.207748 0
4.320000 -0.013966 0
4.325000 -0.181482 0
4.330000 -0.289377 0
4.335000 -0.340485 0
4.340000 -0.343679 4
4.345000 -0.312104 0
4.350000 -0.260897 0
4.355000 -0.204239 0
4.360000 -0.152679 0
4.365000 -0.111836 0
4.370000 -0.082817 0
4.375000 -0.063788 0
4.380000 -0.051760 0
4.385000 -0.043878 0
4.390000 -0.038013 0
4.395000 -0.032820 0
4.400000 -0.027547 0
4.405000 -0.021798 0
4.410000 -0.015369 0
4.415000 -0.008133 0
4.420000 -0.000004 0
4.425000 0.009093 0
4.430000 0.019221 0
4.435000 0.030434 0
4.440000 0.042775 0
4.445000 0.056271 0
4.450000 0.070933 0
4.455000 0.086755 0
4.460000 0.103704 0
4.465000 0.121726 0
4.470000 0.140739 0
4.475000 0.160636 0
4.480000 0.181279 0
4.485000 0.202505 0
4.490000 0.224122 0
4.495000 0.245915 0
4.500000 0.267646 0
4.505000 0.289060 0
4.510000 0.309886 0
4.515000 0.329846 0
4.520000 0.348661 0
4.525000 0.366053 0
4.530000 0.381756 0
4.535000 0.395519 0
4.540000 0.407116 0
4.545000 0.416350 0
4.550000 0.423057 0
4.555000 0.427115 0
4.560000 0.428441 5
4.565000 0.426999 0
4.570000 0.422800 0
4.575000 0.415899 0
4.580000 0.406397 0
4.585000 0.394436 0
4.590000 0.380198 0
4.595000 0.363895 0
4.600000 0.345772 0
4.605000 0.326091 0
4.610000 0.305133 0
4.615000 0.283185 0
4.620000 0.260537 0
4.625000 0.237474 0
4.630000 0.214273 0
4.635000 0.191192 0
4.640000 0.168471 0
4.645000 0.146327 0
4.650000 0.124948 0
4.655000 0.104497 0
4.660000 0.085106 0
4.665000 0.066878 0
4.670000 0.049887 0
4.675000 0.034181 0
4.680000 0.019782 0
4.685000 0.006690 0
4.690000 -0.005115 0
4.695000 -0.015671 0
4.700000 -0.025030 0
4.705000 -0.033255 0
4.710000 -0.040418 0
4.715000 -0.046595 0
4.720000 -0.051867 0
4.725000 -0.056317 0
4.730000 -0.060025 0
4.735000 -0.063070 0
4.740000 -0.065528 0
4.745000 -0.067470 0
4.750000 -0.068963 0
4.755000 -0.070068 0
4.760000 -0.070839 0
4.765000 -0.071327 0
4.770000 -0.071576 0
4.775000 -0.071624 0
4.780000 -0.071506 0
4.785000 -0.071250 0
4.790000 -0.070883 0
4.795000 -0.070424 0
4.800000 -0.069893 0
4.805000 -0.069303 0
4.810000 -0.068667 0
4.815000 -0.067996 0
4.820000 -0.067298 0
4.825000 -0.066579 0
4.830000 -0.065845 0
4.835000 -0.065100 0
4.840000 -0.064320 0
4.845000 -0.063538 0
4.850000 -0.062759 0
4.855000 -0.061984 0
4.860000 -0.061213 0
4.865000 -0.060446 0
4.870000 -0.059683 0
4.875000 -0.058923 0
4.880000 -0.058168 0
4.885000 -0.057416 0
4.890000 -0.056668 0
4.895000 -0.055923 0
4.900000 -0.055183 0
4.905000 -0.054446 0
4.910000 -0.053712 0
4.915000 -0.052983 0
4.920000 -0.052257 0
4.925000 -0.051534 0
4.930000 -0.050815 0
4.935000 -0.050100 0
4.940000 -0.049389 0
4.945000 -0.048680 0
4.950000 -0.047976 0
4.955000 -0.047275 0
4.960000 -0.046577 0
4.965000 -0.045883 0
4.970000 -0.045192 0
4.975000 -0.044505 0
4.980000 -0.043821 0
4.985000 -0.043141 0
4.990000 -0.042463 0
4.995000 -0.041789 0
5.000000 -0.041118 0
5.005000 -0.040448 0
5.010000 -0.039781 0
5.015000 -0.039114 0
5.020000 -0.038446 0
5.025000 -0.037775 0
5.030000 -0.037096 0
5.035000 -0.036404 0
5.040000 -0.035690 0
5.045000 -0.034942 0
5.050000 -0.034142 0
5.055000 -0.033266 0
5.060000 -0.032282 0
5.065000 -0.031143 0
5.070000 -0.029794 0
5.075000 -0.028160 0
5.080000 -0.026148 0
5.085000 -0.023645 0
5.090000 -0.020517 0
5.095000 -0.016610 0
5.100000 -0.011751 0
5.105000 -0.005753 0
5.110000 0.001575 0
5.115000 0.010419 0
5.120000 0.020946 0
5.125000 0.033287 0
5.130000 0.047521 0
5.135000 0.063652 0
5.140000 0.081597 0
5.145000 0.101169 0
5.150000 0.122067 0
5.155000 0.143878 0
5.160000 0.166080 0
5.165000 0.188057 0
5.170000 0.209127 0
5.175000 0.228573 0
5.180000 0.245682 0
5.185000 0.259789 0
5.190000 0.270317 0
5.195000 0.276817 0
5.200000 0.279000 1
5.205000 0.276755 0
5.210000 0.270161 0
5.215000 0.259478 0
5.220000 0.245133 0
5.225000 0.227690 0
5.230000 0.207812 0
5.235000 0.186220 0
5.240000 0.163647 0
5.245000 0.140803 0
5.250000 0.118333 0
5.255000 0.096794 0
5.260000 0.076631 0
5.265000 0.058165 0
5.270000 0.041578 0
5.275000 0.026891 0
5.280000 0.013903 0
5.285000 0.002103 0
5.290000 -0.009469 0
5.295000 -0.022328 0
5.300000 -0.038484 0
5.305000 -0.060040 0
5.310000 -0.088318 0
5.315000 -0.122646 0
5.320000 -0.159236 0
5.325000 -0.190753 0
5.330000 -0.206934 2
5.335000 -0.196060 0
5.340000 -0.146720 0
5.345000 -0.049523 0
5.350000 0.100791 0
5.355000 0.302097 0
5.360000 0.540710 0
5.365000 0.788597 0
5.370000 1.005513 0
5.375000 1.148062 0
5.380000 1.183407 3
5.385000 1.100545 0
5.390000 0.914987 0
5.395000 0.665235 0
5.400000 0.396887 0
5.405000 0.149232 0
5.410000 -0.051791 0
5.415000 -0.193905 0
5.420000 -0.275495 0
5.425000 -0.302607 4
5.430000 -0.286872 0
5.435000 -0.243407 0
5.440000 -0.187893 0
5.445000 -0.133353 0
5.450000 -0.087943 0
5.455000 -0.054615 0
5.460000 -0.032431 0
5.465000 -0.018523 0
5.470000 -0.009760 0
5.475000 -0.003644 0
5.480000 0.001461 0
5.485000 0.006490 0
5.490000 0.011930 0
5.495000 0.018031 0
5.500000 0.024937 0
5.505000 0.032744 0
5.510000 0.041531 0
5.515000 0.051366 0
5.520000 0.062307 0
5.525000 0.074400 0
5.530000 0.087675 0
5.535000 0.102146 0
5.540000 0.117803 0
5.545000 0.134617 0
5.550000 0.152528 0
5.555000 0.171450 0
5.560000 0.191270 0
5.565000 0.211841 0
5.570000 0.232989 0
5.575000 0.254511 0
5.580000 0.276177 0
5.585000 0.297737 0
5.590000 0.318918 0
5.595000 0.339437 0
5.600000 0.359002 0
5.605000 0.377319 0
5.610000 0.394102 0
5.615000 0.409076 0
5.620000 0.421986 0
5.625000 0.432607 0
5.630000 0.440744 0
5.635000 0.446242 0
5.640000 0.448991 5
5.645000 0.448925 0
5.650000 0.446028 0
5.655000 0.440335 0
5.660000 0.431927 0
5.665000 0.420934 0
5.670000 0.407526 0
5.675000 0.391914 0
5.680000 0.374339 0
5.685000 0.355069 0
5.690000 0.334392 0
5.695000 0.312607 0
5.700000 0.290015 0
5.705000 0.266919 0
5.710000 0.243608 0
5.715000 0.220359 0
5.720000 0.197427 0
5.725000 0.175043 0
5.730000 0.153411 0
5.735000 0.132704 0
5.740000 0.113065 0
5.745000 0.094603 0
5.750000 0.077402 0
5.755000 0.061510 0
5.760000 0.046955 0
5.765000 0.033734 0
5.770000 0.021828 0
5.775000 0.011197 0
5.780000 0.001785 0
5.785000 -0.006473 0
5.790000 -0.013653 0
5.795000 -0.019837 0
5.800000 -0.025108 0
5.805000 -0.029551 0
5.810000 -0.033253 0
5.815000 -0.036293 0
5.820000 -0.038751 0
5.825000 -0.040700 0
5.830000 -0.042207 0
5.835000 -0.043335 0
5.840000 -0.044138 0
5.845000 -0.044668 0
5.850000 -0.044969 0
5.855000 -0.045078 0
5.860000 -0.045029 0
5.865000 -0.044851 0
5.870000 -0.044569 0
5.875000 -0.044202 0
5.880000 -0.043768 0
5.885000 -0.043280 0
5.890000 -0.042752 0
5.895000 -0.042191 0
5.900000 -0.041606 0
5.905000 -0.041003 0
5.910000 -0.040386 0
5.915000 -0.039730 0
5.920000 -0.039070 0
5.925000 -0.038413 0
5.930000 -0.037760 0
5.935000 -0.037110 0
5.940000 -0.036463 0
5.945000 -0.035819 0
5.950000 -0.035179 0
5.955000 -0.034542 0
5.960000 -0.033908 0
5.965000 -0.033277 0
5.970000 -0.032649 0
5.975000 -0.032025 0
5.980000 -0.031403 0
5.985000 -0.030785 0
5.990000 -0.030169 0
5.995000 -0.029557 0
6.000000 -0.028948 0
6.005000 -0.028342 0
6.010000 -0.027739 0
6.015000 -0.027138 0
6.020000 -0.026541 0
6.025000 -0.025947 0
6.030000 -0.025356 0
6.035000 -0.024768 0
6.040000 -0.024182 0
6.045000 -0.023600 0
6.050000 -0.023020 0
6.055000 -0.022444 0
6.060000 -0.021870 0
6.065000 -0.021298 0
6.070000 -0.020729 0
6.075000 -0.020162 0
6.080000 -0.019597 0
6.085000 -0.019033 0
6.090000 -0.018468 0
6.095000 -0.017900 0
6.100000 -0.017326 0
6.105000 -0.016741 0
6.110000 -0.016138 0
6.115000 -0.015505 0
6.120000 -0.014826 0
6.125000 -0.014080 0
6.130000 -0.013236 0
6.135000 -0.012250 0
6.140000 -0.011069 0
6.145000 -0.009620 0
6.150000 -0.007811 0
6.155000 -0.005532 0
6.160000 -0.002646 0
6.165000 0.001004 0
6.170000 0.005594 0
6.175000 0.011318 0
6.180000 0.018377 0
6.185000 0.026965 0
6.190000 0.037261 0
6.195000 0.049406 0
6.200000 0.063484 0
6.205000 0.079506 0
6.210000 0.097384 0
6.215000 0.116923 0
6.220000 0.137806 0
6.225000 0.159594 0
6.230000 0.181734 0
6.235000 0.203573 0
6.240000 0.224393 0
6.245000 0.243442 0
6.250000 0.259980 0
6.255000 0.273325 0
6.260000 0.282898 0
6.265000 0.288267 0
6.270000 0.289175 1
6.275000 0.285559 0
6.280000 0.277560 0
6.285000 0.265508 0
6.290000 0.249901 0
6.295000 0.231373 0
6.300000 0.210643 0
6.305000 0.188476 0
6.310000 0.165634 0
6.315000 0.142830 0
6.320000 0.120698 0
6.325000 0.099764 0
6.330000 0.080428 0
6.335000 0.062947 0
6.340000 0.047420 0
6.345000 0.033742 0
6.350000 0.021517 0
6.355000 0.009929 0
6.360000 -0.002404 0
6.365000 -0.017441 0
6.370000 -0.037421 0
6.375000 -0.064059 0
6.380000 -0.097294 0
6.385000 -0.133980 0
6.390000 -0.167199 0
6.395000 -0.186694 2
6.400000 -0.180342 0
6.405000 -0.136067 0
6.410000 -0.043718 0
6.415000 0.102719 0
6.420000 0.301688 0
6.425000 0.539546 0
6.430000 0.787389 0
6.435000 1.003226 0
6.440000 1.141835 0
6.445000 1.169722 3
6.450000 1.077575 0
6.455000 0.884247 0
6.460000 0.630472 0
6.465000 0.362800 0
6.470000 0.120073 0
6.475000 -0.073045 0
6.480000 -0.205730 0
6.485000 -0.277699 0
6.490000 -0.296221 4
6.495000 -0.274016 0
6.500000 -0.226926 0
6.505000 -0.170704 0
6.510000 -0.117746 0
6.515000 -0.075155 0
6.520000 -0.044842 0
6.525000 -0.025164 0
6.530000 -0.012981 0
6.535000 -0.005208 0
6.540000 0.000459 0
6.545000 0.005454 0
6.550000 0.010566 0
6.555000 0.016197 0
6.560000 0.022554 0
6.565000 0.029764 0
6.570000 0.037918 0
6.575000 0.047092 0
6.580000 0.057351 0
6.585000 0.068751 0
6.590000 0.081332 0
6.595000 0.095118 0
6.600000 0.110115 0
6.605000 0.126302 0
6.610000 0.143637 0
6.615000 0.162045 0
6.620000 0.181426 0
6.625000 0.201646 0
6.630000 0.222541 0
6.635000 0.243916 0
6.640000 0.265550 0
6.645000 0.287194 0
6.650000 0.308580 0
6.655000 0.329420 0
6.660000 0.349418 0
6.665000 0.368274 0
6.670000 0.385690 0
6.675000 0.401379 0
6.680000 0.415073 0
6.685000 0.426526 0
6.690000 0.435530 0
6.695000 0.441910 0
6.700000 0.445538 0
6.705000 0.446332 5
6.710000 0.444261 0
6.715000 0.439345 0
6.720000 0.431654 0
6.725000 0.421307 0
6.730000 0.408469 0
6.735000 0.393347 0
6.740000 0.376182 0
6.745000 0.357241 0
6.750000 0.336817 0
6.755000 0.315213 0
6.760000 0.292740 0
6.765000 0.269706 0
6.770000 0.246411 0
6.775000 0.223140 0
6.780000 0.200159 0
6.785000 0.177706 0
6.790000 0.155994 0
6.795000 0.135202 0
6.800000 0.115480 0
6.805000 0.096944 0
6.810000 0.079678 0
6.815000 0.063736 0
6.820000 0.049144 0
6.825000 0.035903 0
6.830000 0.023991 0
6.835000 0.013369 0
6.840000 0.003979 0
6.845000 -0.004246 0
6.850000 -0.011385 0
6.855000 -0.017519 0
6.860000 -0.022737 0
6.865000 -0.027125 0
6.870000 -0.030769 0
6.875000 -0.033754 0
6.880000 -0.036159 0
6.885000 -0.038057 0
6.890000 -0.039518 0
6.895000 -0.040603 0
6.900000 -0.041370 0
6.905000 -0.041869 0
6.910000 -0.042143 0
6.915000 -0.042230 0
6.920000 -0.042165 0
6.925000 -0.041974 0
6.930000 -0.041683 0
6.935000 -0.041311 0
6.940000 -0.040875 0
6.945000 -0.040389 0
6.950000 -0.039863 0
6.955000 -0.039308 0
6.960000 -0.038730 0
6.965000 -0.038135 0
6.970000 -0.037522 0
6.975000 -0.036873 0
6.980000 -0.036227 0
6.985000 -0.035585 0
6.990000 -0.034945 0
6.995000 -0.034309 0
7.000000 -0.033676 0
7.005000 -0.033047 0
7.010000 -0.032420 0
7.015000 -0.031796 0
7.020000 -0.031176 0
7.025000 -0.030559 0
7.030000 -0.029945 0
7.035000 -0.029334 0
7.040000 -0.028725 0
7.045000 -0.028120 0
7.050000 -0.027518 0
7.055000 -0.026919 0
7.060000 -0.026323 0
7.065000 -0.025730 0
7.070000 -0.025140 0
7.075000 -0.024553 0
7.080000 -0.023969 0
7.085000 -0.023387 0
7.090000 -0.022809 0
7.095000 -0.022233 0
7.100000 -0.021661 0
7.105000 -0.021091 0
7.110000 -0.020524 0
7.115000 -0.019959 0
7.120000 -0.019398 0
7.125000 -0.018838 0
7.130000 -0.018281 0
7.135000 -0.017726 0
7.140000 -0.017171 0
7.145000 -0.016616 0
7.150000 -0.016059 0
7.155000 -0.015497 0
7.160000 -0.014924 0
7.165000 -0.014334 0
7.170000 -0.013717 0
7.175000 -0.013056 0
7.180000 -0.012331 0
7.185000 -0.011511 0
7.190000 -0.010554 0
7.195000 -0.009406 0
7.200000 -0.007995 0
7.205000 -0.006230 0
7.210000 -0.003997 0
7.215000 -0.001160 0
7.220000 0.002441 0
7.225000 0.006986 0
7.230000 0.012674 0
7.235000 0.019709 0
7.240000 0.028292 0
7.245000 0.038605 0
7.250000 0.050792 0
7.255000 0.064938 0
7.260000 0.081050 0
7.265000 0.099034 0
7.270000 0.118683 0
7.275000 0.139662 0
7.280000 0.161511 0
7.285000 0.183652 0
7.290000 0.205410 0
7.295000 0.226041 0
7.300000 0.244773 0
7.305000 0.260855 0
7.310000 0.273601 0
7.315000 0.282442 0
7.320000 0.286965 1
7.325000 0.286943 0
7.330000 0.282356 0
7.335000 0.273392 0
7.340000 0.260432 0
7.345000 0.244021 0
7.350000 0.224836 0
7.355000 0.203632 0
7.360000 0.181194 0
7.365000 0.158294 0
7.370000 0.135640 0
7.375000 0.113849 0
7.380000 0.093420 0
7.385000 0.074713 0
7.390000 0.057939 0
7.395000 0.043129 0
7.400000 0.030077 0
7.405000 0.018227 0
7.410000 0.006524 0
7.415000 -0.006703 0
7.420000 -0.023646 0
7.425000 -0.046496 0
7.430000 -0.076361 0
7.435000 -0.111860 0
7.440000 -0.147962 0
7.445000 -0.175786 0
7.450000 -0.183642 2
7.455000 -0.158895 0
7.460000 -0.089965 0
7.465000 0.031614 0
7.470000 0.208287 0
7.475000 0.432091 0
7.480000 0.680253 0
7.485000 0.914590 0
7.490000 1.088477 0
7.495000 1.161049 3
7.500000 1.113948 0
7.505000 0.958369 0
7.510000 0.725863 0
7.515000 0.459353 0
7.520000 0.199817 0
7.525000 -0.022608 0
7.530000 -0.191049 0
7.535000 -0.299925 0
7.540000 -0.351949 0
7.545000 -0.355882 4
7.550000 -0.324791 0
7.555000 -0.273776 0
7.560000 -0.217049 0
7.565000 -0.165239 0
7.570000 -0.124068 0
7.575000 -0.094727 0
7.580000 -0.075433 0
7.585000 -0.063211 0
7.590000 -0.055197 0
7.595000 -0.049244 0
7.600000 -0.043990 0
7.605000 -0.038670 0
7.610000 -0.032884 0
7.615000 -0.026422 0
7.620000 -0.019158 0
7.625000 -0.011004 0
7.630000 -0.001885 0
7.635000 0.008262 0
7.640000 0.019491 0
7.645000 0.031845 0
7.650000 0.045353 0
7.655000 0.060026 0
7.660000 0.075858 0
7.665000 0.092817 0
7.670000 0.110851 0
7.675000 0.129879 0
7.680000 0.149794 0
7.685000 0.170461 0
7.690000 0.191716 0
7.695000 0.213370 0
7.700000 0.235210 0
7.705000 0.256997 0
7.710000 0.278478 0
7.715000 0.299385 0
7.720000 0.319438 0
7.725000 0.338359 0
7.730000 0.355871 0
7.735000 0.371706 0
7.740000 0.385614 0
7.745000 0.397369 0
7.750000 0.406770 0
7.755000 0.413654 0
7.760000 0.417894 0
7.765000 0.419408 5
7.770000 0.418158 0
7.775000 0.414149 0
7.780000 0.407437 0
7.785000 0.398119 0
7.790000 0.386334 0
7.795000 0.372263 0
7.800000 0.356116 0
7.805000 0.338134 0
7.810000 0.318581 0
7.815000 0.297734 0
7.820000 0.275880 0
7.825000 0.253310 0
7.830000 0.230308 0
7.835000 0.207150 0
7.840000 0.184097 0
7.845000 0.161389 0
7.850000 0.139244 0
7.855000 0.117853 0
7.860000 0.097379 0
7.865000 0.077955 0
7.870000 0.059688 0
7.875000 0.042652 0
7.880000 0.026898 0
7.885000 0.012450 0
7.890000 -0.000692 0
7.895000 -0.012547 0
7.900000 -0.023150 0
7.905000 -0.032553 0
7.910000 -0.040819 0
7.915000 -0.048017 0
7.920000 -0.054225 0
7.925000 -0.059522 0
7.930000 -0.063992 0
7.935000 -0.067714 0
7.940000 -0.070769 0
7.945000 -0.073231 0
7.950000 -0.075172 0
7.955000 -0.076660 0
7.960000 -0.077755 0
7.965000 -0.078513 0
7.970000 -0.078984 0
7.975000 -0.079212 0
7.980000 -0.079238 0
7.985000 -0.079095 0
7.990000 -0.078812 0
7.995000 -0.078416 0
8.000000 -0.077927 0
8.005000 -0.077364 0
8.010000 -0.076742 0
8.015000 -0.076073 0
8.020000 -0.075368 0
8.025000 -0.074636 0
8.030000 -0.073882 0
8.035000 -0.073113 0
8.040000 -0.072333 0
8.045000 -0.071517 0
8.050000 -0.070699 0
8.055000 -0.069884 0
8.060000 -0.069074 0
8.065000 -0.068268 0
8.070000 -0.067466 0
8.075000 -0.066667 0
8.080000 -0.065873 0
8.085000 -0.065083 0
8.090000 -0.064296 0
8.095000 -0.063514 0
8.100000 -0.062735 0
8.105000 -0.061961 0
8.110000 -0.061190 0
8.115000 -0.060423 0
8.120000 -0.059660 0
8.125000 -0.058900 0
8.130000 -0.058145 0
8.135000 -0.057393 0
8.140000 -0.056645 0
8.145000 -0.055901 0
8.150000 -0.055160 0
8.155000 -0.054423 0
8.160000 -0.053690 0
8.165000 -0.052960 0
8.170000 -0.052235 0
8.175000 -0.051512 0
8.180000 -0.050793 0
8.185000 -0.050078 0
8.190000 -0.049366 0
8.195000 -0.048658 0
8.200000 -0.047953 0
8.205000 -0.047251 0
8.210000 -0.046551 0
8.215000 -0.045853 0
8.220000 -0.045157 0
8.225000 -0.044459 0
8.230000 -0.043759 0
8.235000 -0.043052 0
8.240000 -0.042333 0
8.245000 -0.041593 0
8.250000 -0.040821 0
8.255000 -0.040000 0
8.260000 -0.039106 0
8.265000 -0.038109 0
8.270000 -0.036965 0
8.275000 -0.035618 0
8.280000 -0.033997 0
8.285000 -0.032012 0
8.290000 -0.029552 0
8.295000 -0.026487 0
8.300000 -0.022665 0
8.305000 -0.017915 0
8.310000 -0.012052 0
8.315000 -0.004886 0
8.320000 0.003770 0
8.325000 0.014088 0
8.330000 0.026203 0
8.335000 0.040202 0
8.340000 0.056101 0
8.345000 0.073830 0
8.350000 0.093216 0
8.355000 0.113977 0
8.360000 0.135714 0
8.365000 0.157921 0
8.370000 0.179996 0
8.375000 0.201263 0
8.380000 0.221012 0
8.385000 0.238525 0
8.390000 0.253130 0
8.395000 0.264235 0
8.400000 0.271371 0
8.405000 0.274225 1
8.410000 0.272659 0
8.415000 0.266723 0
8.420000 0.256651 0
8.425000 0.242847 0
8.430000 0.225855 0
8.435000 0.206324 0
8.440000 0.184968 0
8.445000 0.162522 0
8.450000 0.139699 0
8.455000 0.117155 0
8.460000 0.095462 0
8.465000 0.075082 0
8.470000 0.056357 0
8.475000 0.039491 0
8.480000 0.024532 0
8.485000 0.011322 0
8.490000 -0.000594 0
8.495000 -0.012093 0
8.500000 -0.024596 0
8.505000 -0.040046 0
8.510000 -0.060575 0
8.515000 -0.087708 0
8.520000 -0.121186 0
8.525000 -0.157792 0
8.530000 -0.190776 0
8.535000 -0.210287 2
8.540000 -0.204745 0
8.545000 -0.162585 0
8.550000 -0.073964 0
8.555000 0.067257 0
8.560000 0.260494 0
8.565000 0.494326 0
8.570000 0.743241 0
8.575000 0.968697 0
8.580000 1.126989 0
8.585000 1.182495 3
8.590000 1.120086 0
8.595000 0.951129 0
8.600000 0.710399 0
8.605000 0.442328 0
8.610000 0.187454 0
8.615000 -0.025778 0
8.620000 -0.182509 0
8.625000 -0.278960 0
8.630000 -0.319382 4
8.635000 -0.313895 0
8.640000 -0.276603 0
8.645000 -0.223024 0
8.650000 -0.166967 0
8.655000 -0.118001 0
8.660000 -0.080557 0
8.665000 -0.054760 0
8.670000 -0.038232 0
8.675000 -0.027858 0
8.680000 -0.020913 0
8.685000 -0.015487 0
8.690000 -0.010432 0
8.695000 -0.005126 0
8.700000 0.000750 0
8.705000 0.007369 0
8.710000 0.014839 0
8.715000 0.023245 0
8.720000 0.032657 0
8.725000 0.043136 0
8.730000 0.054733 0
8.735000 0.067485 0
8.740000 0.081415 0
8.745000 0.096524 0
8.750000 0.112794 0
8.755000 0.130183 0
8.760000 0.148621 0
8.765000 0.168011 0
8.770000 0.188228 0
8.775000 0.209119 0
8.780000 0.230500 0
8.785000 0.252162 0
8.790000 0.273871 0
8.795000 0.295375 0
8.800000 0.316402 0
8.805000 0.336671 0
8.810000 0.355896 0
8.815000 0.373792 0
8.820000 0.390080 0
8.825000 0.404498 0
8.830000 0.416804 0
8.835000 0.426787 0
8.840000 0.434267 0
8.845000 0.439104 0
8.850000 0.441199 5
8.855000 0.440504 0
8.860000 0.437012 0
8.865000 0.430769 0
8.870000 0.421864 0
8.875000 0.410433 0
8.880000 0.396650 0
8.885000 0.380728 0
8.890000 0.362908 0
8.895000 0.343456 0
8.900000 0.322654 0
8.905000 0.300795 0
8.910000 0.278177 0
8.915000 0.255092 0
8.920000 0.231823 0
8.925000 0.208640 0
8.930000 0.185789 0
8.935000 0.163496 0
8.940000 0.141956 0
8.945000 0.121339 0
8.950000 0.101782 0
8.955000 0.083393 0
8.960000 0.066251 0
8.965000 0.050405 0
8.970000 0.035881 0
8.975000 0.022678 0
8.980000 0.010776 0
8.985000 0.000137 0
8.990000 -0.009292 0
8.995000 -0.017575 0
9.000000 -0.024786 0
9.005000 -0.031004 0
9.010000 -0.036310 0
9.015000 -0.040789 0
9.020000 -0.044523 0
9.025000 -0.047594 0
9.030000 -0.050077 0
9.035000 -0.052046 0
9.040000 -0.053568 0
9.045000 -0.054703 0
9.050000 -0.055509 0
9.055000 -0.056035 0
9.060000 -0.056325 0
9.065000 -0.056418 0
9.070000 -0.056348 0
9.075000 -0.056144 0
9.080000 -0.055831 0
9.085000 -0.055429 0
9.090000 -0.054957 0
9.095000 -0.054429 0
9.100000 -0.053857 0
9.105000 -0.053251 0
9.110000 -0.052619 0
9.115000 -0.051968 0
9.120000 -0.051302 0
9.125000 -0.050620 0
9.130000 -0.049905 0
9.135000 -0.049195 0
9.140000 -0.048487 0
9.145000 -0.047784 0
9.150000 -0.047084 0
9.155000 -0.046387 0
9.160000 -0.045694 0
9.165000 -0.045004 0
9.170000 -0.044318 0
9.175000 -0.043635 0
9.180000 -0.042956 0
9.185000 -0.042280 0
9.190000 -0.041607 0
9.195000 -0.040938 0
9.200000 -0.040272 0
9.205000 -0.039609 0
9.210000 -0.038950 0
9.215000 -0.038294 0
9.220000 -0.037641 0
9.225000 -0.036992 0
9.230000 -0.036345 0
9.235000 -0.035702 0
9.240000 -0.035063 0
9.245000 -0.034426 0
9.250000 -0.033792 0
9.255000 -0.033162 0
9.260000 -0.032535 0
9.265000 -0.031911 0
9.270000 -0.031290 0
9.275000 -0.030671 0
9.280000 -0.030056 0
9.285000 -0.029443 0
9.290000 -0.028833 0
9.295000 -0.028224 0
9.300000 -0.027615 0
9.305000 -0.027007 0
9.310000 -0.026394 0
9.315000 -0.025776 0
9.320000 -0.025145 0
9.325000 -0.024495 0
9.330000 -0.023812 0
9.335000 -0.023082 0
9.340000 -0.022281 0
9.345000 -0.021377 0
9.350000 -0.020328 0
9.355000 -0.019076 0
9.360000 -0.017551 0
9.365000 -0.015659 0
9.370000 -0.013290 0
9.375000 -0.010309 0
9.380000 -0.006561 0
9.385000 -0.001870 0
9.390000 0.003951 0
9.395000 0.011099 0
9.400000 0.019765 0
9.405000 0.030123 0
9.410000 0.042309 0
9.415000 0.056406 0
9.420000 0.072424 0
9.425000 0.090282 0
9.430000 0.109789 0
9.435000 0.130642 0
9.440000 0.152417 0
9.445000 0.174580 0
9.450000 0.196499 0
9.455000 0.217477 0
9.460000 0.236778 0
9.465000 0.253676 0
9.470000 0.267495 0
9.475000 0.277653 0
9.480000 0.283706 0
9.485000 0.285374 1
9.490000 0.282564 0
9.495000 0.275380 0
9.500000 0.264113 0
9.505000 0.249219 0
9.510000 0.231293 0
9.515000 0.211025 0
9.520000 0.189158 0
9.525000 0.166441 0
9.530000 0.143587 0
9.535000 0.121240 0
9.540000 0.099945 0
9.545000 0.080129 0
9.550000 0.062088 0
9.555000 0.045969 0
9.560000 0.031739 0
9.565000 0.019118 0
9.570000 0.007465 0
9.575000 -0.004363 0
9.580000 -0.018091 0
9.585000 -0.035870 0
9.590000 -0.059705 0
9.595000 -0.090391 0
9.600000 -0.126217 0
9.605000 -0.161983 0
9.610000 -0.188934 0
9.615000 -0.195796 2
9.620000 -0.170502 0
9.625000 -0.102020 0
9.630000 0.017786 0
9.635000 0.191512 0
9.640000 0.412259 0
9.645000 0.659503 0
9.650000 0.898091 0
9.655000 1.083815 0
9.660000 1.175785 3
9.665000 1.149894 0
9.670000 1.009640 0
9.675000 0.784917 0
9.680000 0.519906 0
9.685000 0.258313 0
9.690000 0.032872 0
9.695000 -0.137892 0
9.700000 -0.247734 0
9.705000 -0.299386 0
9.710000 -0.302090 4
9.715000 -0.269652 0
9.720000 -0.217924 0
9.725000 -0.161568 0
9.730000 -0.111201 0
9.735000 -0.072140 0
9.740000 -0.045030 0
9.745000 -0.027659 0
9.750000 -0.016850 0
9.755000 -0.009744 0
9.760000 -0.004306 0
9.765000 0.000693 0
9.770000 0.005919 0
9.775000 0.011711 0
9.780000 0.018250 0
9.785000 0.025650 0
9.790000 0.033997 0
9.795000 0.043362 0
9.800000 0.053810 0
9.805000 0.065390 0
9.810000 0.078142 0
9.815000 0.092087 0
9.820000 0.107227 0
9.825000 0.123540 0
9.830000 0.140982 0
9.835000 0.159479 0
9.840000 0.178928 0
9.845000 0.199199 0
9.850000 0.220129 0
9.855000 0.241527 0
9.860000 0.263176 0
9.865000 0.284832 0
9.870000 0.306232 0
9.875000 0.327098 0
9.880000 0.347138 0
9.885000 0.366059 0
9.890000 0.383569 0
9.895000 0.399389 0
9.900000 0.413252 0
9.905000 0.424919 0
9.910000 0.434181 0
9.915000 0.440865 0
9.920000 0.444839 0
9.925000 0.446019 5
9.930000 0.444366 0
9.935000 0.439894 0
9.940000 0.432664 0
9.945000 0.422784 0
9.950000 0.410409 0
9.955000 0.395732 0
9.960000 0.378984 0
9.965000 0.360421 0
9.970000 0.340326 0
9.975000 0.318991 0
9.980000 0.296721 0
9.985000 0.273818 0
9.990000 0.250578 0
9.995000 0.227284 0
10.000000 0.204203 0
10.005000 0.181576 0
10.010000 0.159619 0
10.015000 0.138518 0
10.020000 0.118429 0
10.025000 0.099477 0
10.030000 0.081755 0
10.035000 0.065327 0
10.040000 0.050228 0
10.045000 0.036467 0
10.050000 0.024034 0
10.055000 0.012894 0
10.060000 0.002999 0
10.065000 -0.005712 0
10.070000 -0.013313 0
10.075000 -0.019883 0
10.080000 -0.025505 0
10.085000 -0.030264 0
10.090000 -0.034245 0
10.095000 -0.037533 0
10.100000 -0.040206 0
10.105000 -0.042341 0
10.110000 -0.044007 0
10.115000 -0.045268 0
10.120000 -0.046184 0
10.125000 -0.046807 0
10.130000 -0.047183 0
10.135000 -0.047353 0
10.140000 -0.047352 0
10.145000 -0.047211 0
10.150000 -0.046956 0
10.155000 -0.046609 0
10.160000 -0.046188 0
10.165000 -0.045709 0
10.170000 -0.045184 0
10.175000 -0.044624 0
10.180000 -0.044037 0
10.185000 -0.043429 0
10.190000 -0.042806 0
10.195000 -0.042167 0
10.200000 -0.041495 0
10.205000 -0.040826 0
10.210000 -0.040161 0
10.215000 -0.039499 0
10.220000 -0.038840 0
10.225000 -0.038184 0
10.230000 -0.037532 0
10.235000 -0.036883 0
10.240000 -0.036237 0
10.245000 -0.035595 0
10.250000 -0.034955 0
10.255000 -0.034319 0
10.260000 -0.033686 0
10.265000 -0.033057 0
10.270000 -0.032430 0
10.275000 -0.031806 0
10.280000 -0.031186 0
10.285000 -0.030569 0
10.290000 -0.029955 0
10.295000 -0.029343 0
10.300000 -0.028735 0
10.305000 -0.028130 0
10.310000 -0.027528 0
10.315000 -0.026929 0
10.320000 -0.026333 0
10.325000 -0.025740 0
10.330000 -0.025149 0
10.335000 -0.024562 0
10.340000 -0.023978 0
10.345000 -0.023396 0
10.350000 -0.022817 0
10.355000 -0.022240 0
10.360000 -0.021665 0
10.365000 -0.021091 0
10.370000 -0.020517 0
10.375000 -0.019941 0
10.380000 -0.019361 0
10.385000 -0.018771 0
10.390000 -0.018166 0
10.395000 -0.017537 0
10.400000 -0.016868 0
10.405000 -0.016140 0
10.410000 -0.015325 0
10.415000 -0.014386 0
10.420000 -0.013272 0
10.425000 -0.011918 0
10.430000 -0.010238 0
10.435000 -0.008129 0
10.440000 -0.005462 0
10.445000 -0.002089 0
10.450000 0.002162 0
10.455000 0.007480 0
10.460000 0.014063 0
10.465000 0.022112 0
10.470000 0.031811 0
10.475000 0.043317 0
10.480000 0.056737 0
10.485000 0.072109 0
10.490000 0.089380 0
10.495000 0.108393 0
10.500000 0.128873 0
10.505000 0.150420 0
10.510000 0.172518 0
10.515000 0.194544 0
10.520000 0.215798 0
10.525000 0.235533 0
10.530000 0.252997 0
10.535000 0.267484 0
10.540000 0.278375 0
10.545000 0.285183 0
10.550000 0.287591 1
10.555000 0.285469 0
10.560000 0.278892 0
10.565000 0.268130 0
10.570000 0.253631 0
10.575000 0.235989 0
10.580000 0.215901 0
10.585000 0.194124 0
10.590000 0.171428 0
10.595000 0.148546 0
10.600000 0.126143 0
10.605000 0.104782 0
10.610000 0.084906 0
10.615000 0.066821 0
10.620000 0.050679 0
10.625000 0.036447 0
10.630000 0.023834 0
10.635000 0.012172 0
10.640000 0.000267 0
10.645000 -0.013673 0
10.650000 -0.031865 0
10.655000 -0.056309 0
10.660000 -0.087650 0
10.665000 -0.123817 0
10.670000 -0.159068 0
10.675000 -0.184048 0
10.680000 -0.186995 2
10.685000 -0.155595 0
10.690000 -0.078881 0
10.695000 0.050736 0
10.700000 0.234474 0
10.705000 0.462834 0
10.710000 0.711612 0
10.715000 0.942039 0
10.720000 1.108345 0
10.725000 1.171813 3
10.730000 1.114527 0
10.735000 0.947695 0
10.740000 0.707102 0
10.745000 0.438990 0
10.750000 0.185386 0
10.755000 -0.024652 0
10.760000 -0.176427 0
10.765000 -0.266791 0
10.770000 -0.300889 4
10.775000 -0.289898 0
10.780000 -0.248913 0
10.785000 -0.194021 0
10.790000 -0.138934 0
10.795000 -0.092508 0
10.800000 -0.058201 0
10.805000 -0.035304 0
10.810000 -0.020976 0
10.815000 -0.012007 0
10.820000 -0.005809 0
10.825000 -0.000679 0
10.830000 0.004356 0
10.835000 0.009799 0
10.840000 0.015910 0
10.845000 0.022833 0
10.850000 0.030668 0
10.855000 0.039494 0
10.860000 0.049382 0
10.865000 0.060388 0
10.870000 0.072561 0
10.875000 0.085929 0
10.880000 0.100504 0
10.885000 0.116278 0
10.890000 0.133214 0
10.895000 0.151253 0
10.900000 0.170303 0
10.905000 0.190243 0
10.910000 0.210921 0
10.915000 0.232156 0
10.920000 0.253736 0
10.925000 0.275424 0
10.930000 0.296960 0
10.935000 0.318065 0
10.940000 0.338446 0
10.945000 0.357806 0
10.950000 0.375845 0
10.955000 0.392274 0
10.960000 0.406817 0
10.965000 0.419220 0
10.970000 0.429259 0
10.975000 0.436746 0
10.980000 0.441534 0
10.985000 0.443523 5
10.990000 0.442660 0
10.995000 0.438944 0
11.000000 0.432424 0
11.005000 0.423198 0
11.010000 0.411413 0
11.015000 0.397256 0
11.020000 0.380953 0
11.025000 0.362761 0
11.030000 0.342960 0
11.035000 0.321849 0
11.040000 0.299735 0
11.045000 0.276926 0
11.050000 0.253726 0
11.055000 0.230426 0
11.060000 0.207299 0
11.065000 0.184595 0
11.070000 0.162539 0
11.075000 0.141323 0
11.080000 0.121111 0
11.085000 0.102032 0
11.090000 0.084185 0
11.095000 0.067638 0
11.100000 0.052430 0
11.105000 0.038572 0
11.110000 0.026053 0
11.115000 0.014841 0
11.120000 0.004888 0
11.125000 -0.003870 0
11.130000 -0.011505 0
11.135000 -0.018098 0
11.140000 -0.023734 0
11.145000 -0.028499 0
11.150000 -0.032482 0
11.155000 -0.035765 0
11.160000 -0.038431 0
11.165000 -0.040555 0
11.170000 -0.042210 0
11.175000 -0.043460 0
11.180000 -0.044365 0
11.185000 -0.044977 0
11.190000 -0.045344 0
11.195000 -0.045506 0
11.200000 -0.045499 0
11.205000 -0.045353 0
11.210000 -0.045095 0
11.215000 -0.044747 0
11.220000 -0.044327 0
11.225000 -0.043849 0
11.230000 -0.043327 0
11.235000 -0.042771 0
11.240000 -0.042188 0
11.245000 -0.041586 0
11.250000 -0.040970 0
11.255000 -0.040337 0
11.260000 -0.039674 0
11.265000 -0.039015 0
11.270000 -0.038358 0
11.275000 -0.037705 0
11.280000 -0.037055 0
11.285000 -0.036409 0
11.290000 -0.035765 0
11.295000 -0.035125 0
11.300000 -0.034488 0
11.305000 -0.033854 0
11.310000 -0.033224 0
11.315000 -0.032596 0
11.320000 -0.031972 0
11.325000 -0.031351 0
11.330000 -0.030733 0
11.335000 -0.030118 0
11.340000 -0.029506 0
11.345000 -0.028897 0
11.350000 -0.028291 0
11.355000 -0.027688 0
11.360000 -0.027088 0
11.365000 -0.026491 0
11.370000 -0.025897 0
11.375000 -0.025306 0
11.380000 -0.024718 0
11.385000 -0.024133 0
11.390000 -0.023551 0
11.395000 -0.022971 0
11.400000 -0.022395 0
11.405000 -0.021821 0
11.410000 -0.021249 0
11.415000 -0.020680 0
11.420000 -0.020112 0
11.425000 -0.019544 0
11.430000 -0.018976 0
11.435000 -0.018404 0
11.440000 -0.017826 0
11.445000 -0.017235 0
11.450000 -0.016624 0
11.455000 -0.015981 0
11.460000 -0.015287 0
11.465000 -0.014519 0
11.470000 -0.013643 0
11.475000 -0.012613 0
11.480000 -0.011369 0
11.485000 -0.009833 0
11.490000 -0.007907 0
11.495000 -0.005469 0
11.500000 -0.002376 0
11.505000 0.001539 0
11.510000 0.006462 0
11.515000 0.012593 0
11.520000 0.020136 0
11.525000 0.029287 0
11.530000 0.040217 0
11.535000 0.053052 0
11.540000 0.067853 0
11.545000 0.084597 0
11.550000 0.103155 0
11.555000 0.123280 0
11.560000 0.144599 0
11.565000 0.166617 0
11.570000 0.188724 0
11.575000 0.210224 0
11.580000 0.230362 0
11.585000 0.248372 0
11.590000 0.263521 0
11.595000 0.275156 0
11.600000 0.282754 0
11.605000 0.285956 1
11.610000 0.284596 0
11.615000 0.278716 0
11.620000 0.268560 0
11.625000 0.254557 0
11.630000 0.237294 0
11.635000 0.217470 0
11.640000 0.195850 0
11.645000 0.173218 0
11.650000 0.150326 0
11.655000 0.127859 0
11.660000 0.106401 0
11.665000 0.086411 0
11.670000 0.068212 0
11.675000 0.051969 0
11.680000 0.037658 0
11.685000 0.024996 0
11.690000 0.013318 0
11.695000 0.001422 0
11.700000 -0.012508 0
11.705000 -0.030725 0
11.710000 -0.055260 0
11.715000 -0.086742 0
11.720000 -0.122990 0
11.725000 -0.158041 0
11.730000 -0.182251 0
11.735000 -0.183577 2
11.740000 -0.149515 0
11.745000 -0.069061 0
11.750000 0.065144 0
11.755000 0.253605 0
11.760000 0.485398 0
11.765000 0.734267 0
11.770000 0.959455 0
11.775000 1.114424 0
11.780000 1.161865 3
11.785000 1.091122 0
11.790000 0.917392 0
11.795000 0.675051 0
11.800000 0.406994 0
11.805000 0.152138 0
11.810000 -0.062089 0
11.815000 -0.221123 0
11.820000 -0.320963 0
11.825000 -0.365311 4
11.830000 -0.363531 0
11.835000 -0.328927 0
11.840000 -0.276442 0
11.845000 -0.219775 0
11.850000 -0.168881 0
11.855000 -0.128866 0
11.860000 -0.100528 0
11.865000 -0.081925 0
11.870000 -0.070093 0
11.875000 -0.062250 0
11.880000 -0.056338 0
11.885000 -0.051059 0
11.890000 -0.045687 0
11.895000 -0.039841 0
11.900000 -0.033317 0
11.905000 -0.025995 0
11.910000 -0.017788 0
11.915000 -0.008623 0
11.920000 0.001563 0
11.925000 0.012823 0
11.930000 0.025198 0
11.935000 0.038718 0
11.940000 0.053394 0
11.945000 0.069219 0
11.950000 0.086165 0
11.955000 0.104179 0
11.960000 0.123185 0
11.965000 0.143076 0
11.970000 0.163723 0
11.975000 0.184965 0
11.980000 0.206619 0
11.985000 0.228475 0
11.990000 0.250302 0
11.995000 0.271850 0
12.000000 0.292856 0
12.005000 0.313047 0
12.010000 0.332148 0
12.015000 0.349884 0
12.020000 0.365992 0
12.025000 0.380222 0
12.030000 0.392345 0
12.035000 0.402162 0
12.040000 0.409504 0
12.045000 0.414241 0
12.050000 0.416283 5
12.055000 0.415585 0
12.060000 0.412143 0
12.065000 0.406004 0
12.070000 0.397253 0
12.075000 0.386021 0
12.080000 0.372475 0
12.085000 0.356818 0
12.090000 0.339280 0
12.095000 0.320116 0
12.100000 0.299596 0
12.105000 0.278002 0
12.110000 0.255619 0
12.115000 0.232731 0
12.120000 0.209612 0
12.125000 0.186523 0
12.130000 0.163709 0
12.135000 0.141390 0
12.140000 0.119764 0
12.145000 0.098999 0
12.150000 0.079237 0
12.155000 0.060591 0
12.160000 0.043146 0
12.165000 0.026959 0
12.170000 0.012063 0
12.175000 -0.001534 0
12.180000 -0.013843 0
12.185000 -0.024895 0
12.190000 -0.034733 0
12.195000 -0.043417 0
12.200000 -0.051011 0
12.205000 -0.057591 0
12.210000 -0.063234 0
12.215000 -0.068019 0
12.220000 -0.072029 0
12.225000 -0.075341 0
12.230000 -0.078032 0
12.235000 -0.080174 0
12.240000 -0.081836 0
12.245000 -0.083081 0
12.250000 -0.083965 0
12.255000 -0.084541 0
12.260000 -0.084856 0
12.265000 -0.084951 0
12.270000 -0.084861 0
12.275000 -0.084619 0
12.280000 -0.084251 0
12.285000 -0.083781 0
12.290000 -0.083228 0
12.295000 -0.082609 0
12.300000 -0.081937 0
12.305000 -0.081224 0
12.310000 -0.080479 0
12.315000 -0.079710 0
12.320000 -0.078923 0
12.325000 -0.078122 0
12.330000 -0.077306 0
12.335000 -0.076459 0
12.340000 -0.075616 0
12.345000 -0.074777 0
12.350000 -0.073942 0
12.355000 -0.073111 0
12.360000 -0.072285 0
12.365000 -0.071463 0
12.370000 -0.070644 0
12.375000 -0.069830 0
12.380000 -0.069020 0
12.385000 -0.068214 0
12.390000 -0.067412 0
12.395000 -0.066614 0
12.400000 -0.065820 0
12.405000 -0.065030 0
12.410000 -0.064244 0
12.415000 -0.063462 0
12.420000 -0.062684 0
12.425000 -0.061909 0
12.430000 -0.061139 0
12.435000 -0.060372 0
12.440000 -0.059609 0
12.445000 -0.058850 0
12.450000 -0.058095 0
12.455000 -0.057343 0
12.460000 -0.056595 0
12.465000 -0.055851 0
12.470000 -0.055111 0
12.475000 -0.054374 0
12.480000 -0.053641 0
12.485000 -0.052911 0
12.490000 -0.052185 0
12.495000 -0.051461 0
12.500000 -0.050740 0
12.505000 -0.050022 0
12.510000 -0.049304 0
12.515000 -0.048585 0
12.520000 -0.047863 0
12.525000 -0.047134 0
12.530000 -0.046392 0
12.535000 -0.045629 0
12.540000 -0.044833 0
12.545000 -0.043986 0
12.550000 -0.043066 0
12.555000 -0.042040 0
12.560000 -0.040865 0
12.565000 -0.039485 0
12.570000 -0.037829 0
12.575000 -0.035807 0
12.580000 -0.033310 0
12.585000 -0.030209 0
12.590000 -0.026352 0
12.595000 -0.021571 0
12.600000 -0.015686 0
12.605000 -0.008507 0
12.610000 0.000150 0
12.615000 0.010454 0
12.620000 0.022539 0
12.625000 0.036491 0
12.630000 0.052331 0
12.635000 0.069990 0
12.640000 0.089307 0
12.645000 0.110006 0
12.650000 0.131703 0
12.655000 0.153906 0
12.660000 0.176028 0
12.665000 0.197410 0
12.670000 0.217350 0
12.675000 0.235143 0
12.680000 0.250118 0
12.685000 0.261682 0
12.690000 0.269356 0
12.695000 0.272809 1
12.700000 0.271883 0
12.705000 0.266600 0
12.710000 0.257165 0
12.715000 0.243950 0
12.720000 0.227471 0
12.725000 0.208354 0
12.730000 0.187292 0
12.735000 0.165010 0
12.740000 0.142218 0
12.745000 0.119576 0
12.750000 0.097667 0
12.755000 0.076972 0
12.760000 0.057853 0
12.765000 0.040547 0
12.770000 0.025139 0
12.775000 0.011530 0
12.780000 -0.000643 0
12.785000 -0.012122 0
12.790000 -0.024157 0
12.795000 -0.038536 0
12.800000 -0.057369 0
12.805000 -0.082440 0
12.810000 -0.114151 0
12.815000 -0.150321 0
12.820000 -0.185390 0
12.825000 -0.210517 0
12.830000 -0.214663 2
12.835000 -0.186232 0
12.840000 -0.114754 0
12.845000 0.007368 0
12.850000 0.182352 0
12.855000 0.403318 0
12.860000 0.650465 0
12.865000 0.890138 0
12.870000 1.079872 0
12.875000 1.179716 3
12.880000 1.163291 0
12.885000 1.031223 0
12.890000 0.811652 0
12.895000 0.548131 0
12.900000 0.284828 0
12.905000 0.055541 0
12.910000 -0.120105 0
12.915000 -0.234995 0
12.920000 -0.291229 0
12.925000 -0.297571 4
12.930000 -0.267515 0
12.935000 -0.216841 0
12.940000 -0.160423 0
12.945000 -0.109287 0
12.950000 -0.069196 0
12.955000 -0.041137 0
12.960000 -0.023066 0
12.965000 -0.011832 0
12.970000 -0.004522 0
12.975000 0.000975 0
12.980000 0.005952 0
12.985000 0.011111 0
12.990000 0.016814 0
12.995000 0.023252 0
13.000000 0.030540 0
13.005000 0.038767 0
13.010000 0.048007 0
13.015000 0.058323 0
13.020000 0.069767 0
13.025000 0.082379 0
13.030000 0.096181 0
13.035000 0.111179 0
13.040000 0.127353 0
13.045000 0.144660 0
13.050000 0.163030 0
13.055000 0.182364 0
13.060000 0.202533 0
13.065000 0.223379 0
13.070000 0.244713 0
13.075000 0.266320 0
13.080000 0.287961 0
13.085000 0.309373 0
13.090000 0.330280 0
13.095000 0.350392 0
13.100000 0.369417 0
13.105000 0.387062 0
13.110000 0.403045 0
13.115000 0.417101 0
13.120000 0.428986 0
13.125000 0.438487 0
13.130000 0.445429 0
13.135000 0.449675 0
13.140000 0.451134 5
13.145000 0.449766 0
13.150000 0.445575 0
13.155000 0.438619 0
13.160000 0.429001 0
13.165000 0.416870 0
13.170000 0.402416 0
13.175000 0.385863 0
13.180000 0.367468 0
13.185000 0.347508 0
13.190000 0.326276 0
13.195000 0.304073 0
13.200000 0.281204 0
13.205000 0.257965 0
13.210000 0.234641 0
13.215000 0.211498 0
13.220000 0.188783 0
13.225000 0.166714 0
13.230000 0.145480 0
13.235000 0.125240 0
13.240000 0.106124 0
13.245000 0.088228 0
13.250000 0.071618 0
13.255000 0.056334 0
13.260000 0.042389 0
13.265000 0.029772 0
13.270000 0.018453 0
13.275000 0.008386 0
13.280000 -0.000491 0
13.285000 -0.008247 0
13.290000 -0.014963 0
13.295000 -0.020720 0
13.300000 -0.025605 0
13.305000 -0.029701 0
13.310000 -0.033094 0
13.315000 -0.035862 0
13.320000 -0.038082 0
13.325000 -0.039825 0
13.330000 -0.041156 0
13.335000 -0.042134 0
13.340000 -0.042812 0
13.345000 -0.043238 0
13.350000 -0.043453 0
13.355000 -0.043492 0
13.360000 -0.043388 0
13.365000 -0.043166 0
13.370000 -0.042849 0
13.375000 -0.042456 0
13.380000 -0.042003 0
13.385000 -0.041503 0
13.390000 -0.040966 0
13.395000 -0.040401 0
13.400000 -0.039814 0
13.405000 -0.039211 0
13.410000 -0.038591 0
13.415000 -0.037937 0
13.420000 -0.037286 0
13.425000 -0.036638 0
13.430000 -0.035994 0
13.435000 -0.035352 0
13.440000 -0.034714 0
13.445000 -0.034079 0
13.450000 -0.033448 0
13.455000 -0.032819 0
13.460000 -0.032194 0
13.465000 -0.031571 0
13.470000 -0.030952 0
13.475000 -0.030336 0
13.480000 -0.029723 0
13.485000 -0.029113 0
13.490000 -0.028506 0
13.495000 -0.027902 0
13.500000 -0.027301 0
13.505000 -0.026703 0
13.510000 -0.026108 0
13.515000 -0.025516 0
13.520000 -0.024927 0
13.525000 -0.024341 0
13.530000 -0.023758 0
13.535000 -0.023177 0
13.540000 -0.022600 0
13.545000 -0.022025 0
13.550000 -0.021454 0
13.555000 -0.020885 0
13.560000 -0.020318 0
13.565000 -0.019755 0
13.570000 -0.019193 0
13.575000 -0.018633 0
13.580000 -0.018075 0
13.585000 -0.017517 0
13.590000 -0.016957 0
13.595000 -0.016393 0
13.600000 -0.015820 0
13.605000 -0.015234 0
13.610000 -0.014624 0
13.615000 -0.013978 0
13.620000 -0.013276 0
13.625000 -0.012493 0
13.630000 -0.011592 0
13.635000 -0.010527 0
13.640000 -0.009232 0
13.645000 -0.007628 0
13.650000 -0.005614 0
13.655000 -0.003065 0
13.660000 0.000163 0
13.665000 0.004238 0
13.670000 0.009346 0
13.675000 0.015686 0
13.680000 0.023455 0
13.685000 0.032845 0
13.690000 0.044016 0
13.695000 0.057087 0
13.700000 0.072107 0
13.705000 0.089041 0
13.710000 0.107753 0
13.715000 0.127987 0
13.720000 0.149367 0
13.725000 0.171396 0
13.730000 0.193471 0
13.735000 0.214902 0
13.740000 0.234948 0
13.745000 0.252858 0
13.750000 0.267913 0
13.755000 0.279477 0
13.760000 0.287037 0
13.765000 0.290242 1
13.770000 0.288929 0
13.775000 0.283135 0
13.780000 0.273096 0
13.785000 0.259228 0
13.790000 0.242100 0
13.795000 0.222394 0
13.800000 0.200859 0
13.805000 0.178263 0
13.810000 0.155349 0
13.815000 0.132798 0
13.820000 0.111192 0
13.825000 0.090997 0
13.830000 0.072545 0
13.835000 0.056020 0
13.840000 0.041427 0
13.845000 0.028532 0
13.850000 0.016750 0
13.855000 0.005001 0
13.860000 -0.008396 0
13.865000 -0.025605 0
13.870000 -0.048742 0
13.875000 -0.078817 0
13.880000 -0.114386 0
13.885000 -0.150459 0
13.890000 -0.178332 0
13.895000 -0.186591 2
13.900000 -0.162890 0
13.905000 -0.095864 0
13.910000 0.022926 0
13.915000 0.196263 0
13.920000 0.417159 0
13.925000 0.664540 0
13.930000 0.902240 0
13.935000 1.084964 0
13.940000 1.171360 3
13.945000 1.139221 0
13.950000 0.994011 0
13.955000 0.766465 0
13.960000 0.500790 0
13.965000 0.240124 0
13.970000 0.016461 0
13.975000 -0.152291 0
13.980000 -0.260269 0
13.985000 -0.310418 0
13.990000 -0.312068 4
13.995000 -0.279021 0
14.000000 -0.227043 0
14.005000 -0.170657 0
14.010000 -0.120346 0
14.015000 -0.081332 0
14.020000 -0.054228 0
14.025000 -0.036823 0
14.030000 -0.025961 0
14.035000 -0.018798 0
14.040000 -0.013309 0
14.045000 -0.008264 0
14.050000 -0.003000 0
14.055000 0.002824 0
14.060000 0.009390 0
14.065000 0.016812 0
14.070000 0.025175 0
14.075000 0.034552 0
14.080000 0.045005 0
14.085000 0.056585 0
14.090000 0.069332 0
14.095000 0.083267 0
14.100000 0.098393 0
14.105000 0.114690 0
14.110000 0.132115 0
14.115000 0.150595 0
14.120000 0.170031 0
14.125000 0.190294 0
14.130000 0.211224 0
14.135000 0.232635 0
14.140000 0.254310 0
14.145000 0.276011 0
14.150000 0.297477 0
14.155000 0.318431 0
14.160000 0.338586 0
14.165000 0.357649 0
14.170000 0.375332 0
14.175000 0.391354 0
14.180000 0.405449 0
14.185000 0.417377 0
14.190000 0.426926 0
14.195000 0.433921 0
14.200000 0.438226 0
14.205000 0.439753 5
14.210000 0.438458 0
14.215000 0.434348 0
14.220000 0.427478 0
14.225000 0.417952 0
14.230000 0.405916 0
14.235000 0.391559 0
14.240000 0.375105 0
14.245000 0.356806 0
14.250000 0.336940 0
14.255000 0.315796 0
14.260000 0.293675 0
14.265000 0.270880 0
14.270000 0.247705 0
14.275000 0.224434 0
14.280000 0.201335 0
14.285000 0.178651 0
14.290000 0.156603 0
14.295000 0.135379 0
14.300000 0.115140 0
14.305000 0.096015 0
14.310000 0.078102 0
14.315000 0.061470 0
14.320000 0.046158 0
14.325000 0.032181 0
14.330000 0.019531 0
14.335000 0.008178 0
14.340000 -0.001924 0
14.345000 -0.010833 0
14.350000 -0.018619 0
14.355000 -0.025361 0
14.360000 -0.031140 0
14.365000 -0.036042 0
14.370000 -0.040150 0
14.375000 -0.043550 0
14.380000 -0.046319 0
14.385000 -0.048536 0
14.390000 -0.050269 0
14.395000 -0.051586 0
14.400000 -0.052546 0
14.405000 -0.053201 0
14.410000 -0.053600 0
14.415000 -0.053784 0
14.420000 -0.053790 0
14.425000 -0.053650 0
14.430000 -0.053390 0
14.435000 -0.053033 0
14.440000 -0.052598 0
14.445000 -0.052101 0
14.450000 -0.051557 0
14.455000 -0.050974 0
14.460000 -0.050362 0
14.465000 -0.049729 0
14.470000 -0.049079 0
14.475000 -0.048418 0
14.480000 -0.047721 0
14.485000 -0.047022 0
14.490000 -0.046325 0
14.495000 -0.045632 0
14.500000 -0.044943 0
14.505000 -0.044257 0
14.510000 -0.043575 0
14.515000 -0.042895 0
14.520000 -0.042220 0
14.525000 -0.041547 0
14.530000 -0.040878 0
14.535000 -0.040213 0
14.540000 -0.039550 0
14.545000 -0.038891 0
14.550000 -0.038236 0
14.555000 -0.037583 0
14.560000 -0.036934 0
14.565000 -0.036288 0
14.570000 -0.035645 0
14.575000 -0.035006 0
14.580000 -0.034369 0
14.585000 -0.033736 0
14.590000 -0.033106 0
14.595000 -0.032479 0
14.600000 -0.031855 0
14.605000 -0.031235 0
14.610000 -0.030617 0
14.615000 -0.030002 0
14.620000 -0.029391 0
14.625000 -0.028782 0
14.630000 -0.028176 0
14.635000 -0.027573 0
14.640000 -0.026972 0
14.645000 -0.026372 0
14.650000 -0.025773 0
14.655000 -0.025173 0
14.660000 -0.024570 0
14.665000 -0.023960 0
14.670000 -0.023338 0
14.675000 -0.022695 0
14.680000 -0.022020 0
14.685000 -0.021295 0
14.690000 -0.020496 0
14.695000 -0.019591 0
14.700000 -0.018534 0
14.705000 -0.017268 0
14.710000 -0.015716 0
14.715000 -0.013784 0
14.720000 -0.011354 0
14.725000 -0.008288 0
14.730000 -0.004425 0
14.735000 0.000416 0
14.740000 0.006429 0
14.745000 0.013814 0
14.750000 0.022762 0
14.755000 0.033446 0
14.760000 0.045995 0
14.765000 0.060482 0
14.770000 0.076898 0
14.775000 0.095139 0
14.780000 0.114986 0
14.785000 0.136101 0
14.790000 0.158026 0
14.795000 0.180189 0
14.800000 0.201929 0
14.805000 0.222520 0
14.810000 0.241213 0
14.815000 0.257278 0
14.820000 0.270051 0
14.825000 0.278978 0
14.830000 0.283655 0
14.835000 0.283856 1
14.840000 0.279554 0
14.845000 0.270918 0
14.850000 0.258306 0
14.855000 0.242236 0
14.860000 0.223355 0
14.865000 0.202390 0
14.870000 0.180104 0
14.875000 0.157250 0
14.880000 0.134531 0
14.885000 0.112562 0
14.890000 0.091851 0
14.895000 0.072776 0
14.900000 0.055576 0
14.905000 0.040325 0
14.910000 0.026887 0
14.915000 0.014822 0
14.920000 0.003256 0
14.925000 -0.009261 0
14.930000 -0.024736 0
14.935000 -0.045390 0
14.940000 -0.072796 0
14.945000 -0.106606 0
14.950000 -0.143293 0
14.955000 -0.175567 0
14.960000 -0.192938 2
14.965000 -0.183254 0
14.970000 -0.134603 0
14.975000 -0.037177 0
14.980000 0.114458 0
14.985000 0.317818 0
14.990000 0.558007 0
14.995000 0.804889 0
15.000000 1.015883 0
15.005000 1.146352 0
15.010000 1.164580 3
15.015000 1.063501 0
15.020000 0.864417 0
15.025000 0.608412 0
15.030000 0.341237 0
15.035000 0.100490 0
15.040000 -0.090236 0
15.045000 -0.220780 0
15.050000 -0.291161 0
15.055000 -0.308713 4
15.060000 -0.286058 0
15.065000 -0.238828 0
15.070000 -0.182547 0
15.075000 -0.129446 0
15.080000 -0.086584 0
15.085000 -0.055918 0
15.090000 -0.035889 0
15.095000 -0.023420 0
15.100000 -0.015449 0
15.105000 -0.009663 0
15.110000 -0.004606 0
15.115000 0.000530 0
15.120000 0.006160 0
15.125000 0.012498 0
15.130000 0.019673 0
15.135000 0.027776 0
15.140000 0.036884 0
15.145000 0.047063 0
15.150000 0.058367 0
15.155000 0.070838 0
15.160000 0.084504 0
15.165000 0.099370 0
15.170000 0.115423 0
15.175000 0.132621 0
15.180000 0.150899 0
15.185000 0.170160 0
15.190000 0.190278 0
15.195000 0.211098 0
15.200000 0.232434 0
15.205000 0.254070 0
15.210000 0.275769 0
15.215000 0.297267 0
15.220000 0.318288 0
15.225000 0.338540 0
15.230000 0.357727 0
15.235000 0.375555 0
15.240000 0.391738 0
15.245000 0.406006 0
15.250000 0.418111 0
15.255000 0.427837 0
15.260000 0.435002 0
15.265000 0.439467 0
15.270000 0.441137 5
15.275000 0.439967 0
15.280000 0.435961 0
15.285000 0.429173 0
15.290000 0.419706 0
15.295000 0.407708 0
15.300000 0.393368 0
15.305000 0.376915 0
15.310000 0.358603 0
15.315000 0.338713 0
15.320000 0.317540 0
15.325000 0.295389 0
15.330000 0.272566 0
15.335000 0.249370 0
15.340000 0.226088 0
15.345000 0.202990 0
15.350000 0.180323 0
15.355000 0.158308 0
15.360000 0.137134 0
15.365000 0.116963 0
15.370000 0.097922 0
15.375000 0.080109 0
15.380000 0.063590 0
15.385000 0.048402 0
15.390000 0.034559 0
15.395000 0.022049 0
15.400000 0.010839 0
15.405000 0.000883 0
15.410000 -0.007881 0
15.415000 -0.015527 0
15.420000 -0.022133 0
15.425000 -0.027784 0
15.430000 -0.032565 0
15.435000 -0.036563 0
15.440000 -0.039861 0
15.445000 -0.042540 0
15.450000 -0.044676 0
15.455000 -0.046340 0
15.460000 -0.047597 0
15.465000 -0.048506 0
15.470000 -0.049120 0
15.475000 -0.049486 0
15.480000 -0.049645 0
15.485000 -0.049633 0
15.490000 -0.049480 0
15.495000 -0.049213 0
15.500000 -0.048854 0
15.505000 -0.048421 0
15.510000 -0.047930 0
15.515000 -0.047393 0
15.520000 -0.046821 0
15.525000 -0.046222 0
15.530000 -0.045602 0
15.535000 -0.044968 0
15.540000 -0.044317 0
15.545000 -0.043635 0
15.550000 -0.042955 0
15.555000 -0.042279 0
15.560000 -0.041606 0
15.565000 -0.040937 0
15.570000 -0.040271 0
15.575000 -0.039609 0
15.580000 -0.038949 0
15.585000 -0.038293 0
15.590000 -0.037640 0
15.595000 -0.036991 0
15.600000 -0.036345 0
15.605000 -0.035702 0
15.610000 -0.035062 0
15.615000 -0.034425 0
15.620000 -0.033792 0
15.625000 -0.033161 0
15.630000 -0.032534 0
15.635000 -0.031910 0
15.640000 -0.031289 0
15.645000 -0.030671 0
15.650000 -0.030057 0
15.655000 -0.029445 0
15.660000 -0.028836 0
15.665000 -0.028231 0
15.670000 -0.027628 0
15.675000 -0.027028 0
15.680000 -0.026432 0
15.685000 -0.025838 0
15.690000 -0.025247 0
15.695000 -0.024658 0
15.700000 -0.024072 0
15.705000 -0.023487 0
15.710000 -0.022904 0
15.715000 -0.022320 0
15.720000 -0.021735 0
15.725000 -0.021143 0
15.730000 -0.020542 0
15.735000 -0.019924 0
15.740000 -0.019278 0
15.745000 -0.018590 0
15.750000 -0.017838 0
15.755000 -0.016991 0
15.760000 -0.016011 0
15.765000 -0.014842 0
15.770000 -0.013415 0
15.775000 -0.011640 0
15.780000 -0.009406 0
15.785000 -0.006581 0
15.790000 -0.003008 0
15.795000 0.001489 0
15.800000 0.007106 0
15.805000 0.014042 0
15.810000 0.022496 0
15.815000 0.032652 0
15.820000 0.044655 0
15.825000 0.058596 0
15.830000 0.074492 0
15.835000 0.092264 0
15.840000 0.111722 0
15.845000 0.132554 0
15.850000 0.154325 0
15.855000 0.176481 0
15.860000 0.198371 0
15.865000 0.219270 0
15.870000 0.238421 0
15.875000 0.255074 0
15.880000 0.268539 0
15.885000 0.278229 0
15.890000 0.283703 0
15.895000 0.284696 1
15.900000 0.281145 0
15.905000 0.273188 0
15.910000 0.261158 0
15.915000 0.245558 0
15.920000 0.227026 0
15.925000 0.206291 0
15.930000 0.184125 0
15.935000 0.161294 0
15.940000 0.138520 0
15.945000 0.116438 0
15.950000 0.095575 0
15.955000 0.076330 0
15.960000 0.058956 0
15.965000 0.043545 0
15.970000 0.029977 0
15.975000 0.017835 0
15.980000 0.006260 0
15.985000 -0.006180 0
15.990000 -0.021497 0
15.995000 -0.041948 0
16.000000 -0.069168 0
16.005000 -0.102879 0
16.010000 -0.139578 0
16.015000 -0.171930 0
16.020000 -0.189318 2
16.025000 -0.179422 0
16.030000 -0.130171 0
16.035000 -0.031664 0
16.040000 0.121477 0
16.045000 0.326442 0
16.050000 0.567609 0
16.055000 0.813784 0
16.060000 1.021399 0
16.065000 1.145534 0
16.070000 1.155359 3
16.075000 1.048653 0
16.080000 0.848191 0
16.085000 0.592712 0
16.090000 0.325142 0
16.095000 0.081250 0
16.100000 -0.115798 0
16.105000 -0.255227 0
16.110000 -0.335874 0
16.115000 -0.363531 4
16.120000 -0.349120 0
16.125000 -0.306835 0
16.130000 -0.251570 0
16.135000 -0.196018 0
16.140000 -0.148542 0
16.145000 -0.112654 0
16.150000 -0.088006 0
16.155000 -0.072121 0
16.160000 -0.061986 0
16.165000 -0.055036 0
16.170000 -0.049485 0
16.175000 -0.044259 0
16.180000 -0.038775 0
16.185000 -0.032730 0
16.190000 -0.025957 0
16.195000 -0.018350 0
16.200000 -0.009830 0
16.205000 -0.000326 0
16.210000 0.010220 0
16.215000 0.021859 0
16.220000 0.034628 0
16.225000 0.048549 0
16.230000 0.063629 0
16.235000 0.079851 0
16.240000 0.097180 0
16.245000 0.115553 0
16.250000 0.134882 0
16.255000 0.155053 0
16.260000 0.175924 0
16.265000 0.197325 0
16.270000 0.219061 0
16.275000 0.240913 0
16.280000 0.262643 0
16.285000 0.283994 0
16.290000 0.304698 0
16.295000 0.324480 0
16.300000 0.343061 0
16.305000 0.360172 0
16.310000 0.375552 0
16.315000 0.388958 0
16.320000 0.400173 0
16.325000 0.409006 0
16.330000 0.415305 0
16.335000 0.418954 0
16.340000 0.419881 5
16.345000 0.418056 0
16.350000 0.413497 0
16.355000 0.406267 0
16.360000 0.396469 0
16.365000 0.384250 0
16.370000 0.369794 0
16.375000 0.353314 0
16.380000 0.335054 0
16.385000 0.315276 0
16.390000 0.294256 0
16.395000 0.272280 0
16.400000 0.249633 0
16.405000 0.226597 0
16.410000 0.203442 0
16.415000 0.180423 0
16.420000 0.157776 0
16.425000 0.135712 0
16.430000 0.114417 0
16.435000 0.094049 0
16.440000 0.074738 0
16.445000 0.056585 0
16.450000 0.039663 0
16.455000 0.024017 0
16.460000 0.009671 0
16.465000 -0.003377 0
16.470000 -0.015147 0
16.475000 -0.025674 0
16.480000 -0.035012 0
16.485000 -0.043221 0
16.490000 -0.050371 0
16.495000 -0.056540 0
16.500000 -0.061806 0
16.505000 -0.066251 0
16.510000 -0.069953 0
16.515000 -0.072992 0
16.520000 -0.075443 0
16.525000 -0.077376 0
16.530000 -0.078857 0
16.535000 -0.079947 0
16.540000 -0.080701 0
16.545000 -0.081169 0
16.550000 -0.081395 0
16.555000 -0.081417 0
16.560000 -0.081270 0
16.565000 -0.080983 0
16.570000 -0.080582 0
16.575000 -0.080088 0
16.580000 -0.079519 0
16.585000 -0.078890 0
16.590000 -0.078215 0
16.595000 -0.077502 0
16.600000 -0.076762 0
16.605000 -0.076000 0
16.610000 -0.075222 0
16.615000 -0.074433 0
16.620000 -0.073607 0
16.625000 -0.072778 0
16.630000 -0.071953 0
16.635000 -0.071132 0
16.640000 -0.070316 0
16.645000 -0.069503 0
16.650000 -0.068695 0
16.655000 -0.067891 0
16.660000 -0.067090 0
16.665000 -0.066294 0
16.670000 -0.065501 0
16.675000 -0.064713 0
16.680000 -0.063928 0
16.685000 -0.063148 0
16.690000 -0.062371 0
16.695000 -0.061598 0
16.700000 -0.060829 0
16.705000 -0.060064 0
16.710000 -0.059303 0
16.715000 -0.058545 0
16.720000 -0.057791 0
16.725000 -0.057041 0
16.730000 -0.056295 0
16.735000 -0.055552 0
16.740000 -0.054814 0
16.745000 -0.054078 0
16.750000 -0.053347 0
16.755000 -0.052619 0
16.760000 -0.051895 0
16.765000 -0.051174 0
16.770000 -0.050457 0
16.775000 -0.049743 0
16.780000 -0.049032 0
16.785000 -0.048323 0
16.790000 -0.047618 0
16.795000 -0.046913 0
16.800000 -0.046208 0
16.805000 -0.045502 0
16.810000 -0.044790 0
16.815000 -0.044068 0
16.820000 -0.043330 0
16.825000 -0.042563 0
16.830000 -0.041755 0
16.835000 -0.040885 0
16.840000 -0.039924 0
16.845000 -0.038834 0
16.850000 -0.037567 0
16.855000 -0.036056 0
16.860000 -0.034222 0
16.865000 -0.031962 0
16.870000 -0.029157 0
16.875000 -0.025664 0
16.880000 -0.021322 0
16.885000 -0.015954 0
16.890000 -0.009373 0
16.895000 -0.001390 0
16.900000 0.008172 0
16.905000 0.019465 0
16.910000 0.032598 0
16.915000 0.047623 0
16.920000 0.064510 0
16.925000 0.083139 0
16.930000 0.103283 0
16.935000 0.124603 0
16.940000 0.146650 0
16.945000 0.168872 0
16.950000 0.190635 0
16.955000 0.211251 0
16.960000 0.230007 0
16.965000 0.246212 0
16.970000 0.259234 0
16.975000 0.268540 0
16.980000 0.273736 0
16.985000 0.274589 1
16.990000 0.271047 0
16.995000 0.263243 0
17.000000 0.251484 0
17.005000 0.236234 0
17.010000 0.218080 0
17.015000 0.197696 0
17.020000 0.175802 0
17.025000 0.153119 0
17.030000 0.130334 0
17.035000 0.108065 0
17.040000 0.086837 0
17.045000 0.067060 0
17.050000 0.049023 0
17.055000 0.032873 0
17.060000 0.018589 0
17.065000 0.005920 0
17.070000 -0.005716 0
17.075000 -0.017367 0
17.080000 -0.030631 0
17.085000 -0.047550 0
17.090000 -0.070142 0
17.095000 -0.099474 0
17.100000 -0.134454 0
17.105000 -0.170813 0
17.110000 -0.200823 0
17.115000 -0.214053 2
17.120000 -0.198877 0
17.125000 -0.144190 0
17.130000 -0.041090 0
17.135000 0.114980 0
17.140000 0.320904 0
17.145000 0.561831 0
17.150000 0.808773 0
17.155000 1.021278 0
17.160000 1.156813 0
17.165000 1.184270 3
17.170000 1.092683 0
17.175000 0.900152 0
17.180000 0.646875 0
17.185000 0.378983 0
17.190000 0.135189 0
17.195000 -0.059714 0
17.200000 -0.194643 0
17.205000 -0.269008 0
17.210000 -0.289751 4
17.215000 -0.269266 0
17.220000 -0.223155 0
17.225000 -0.167116 0
17.230000 -0.113698 0
17.235000 -0.070296 0
17.240000 -0.039120 0
17.245000 -0.018733 0
17.250000 -0.006078 0
17.255000 0.001946 0
17.260000 0.007700 0
17.265000 0.012680 0
17.270000 0.017717 0
17.275000 0.023239 0
17.280000 0.029467 0
17.285000 0.036530 0
17.290000 0.044522 0
17.295000 0.053520 0
17.300000 0.063591 0
17.305000 0.074788 0
17.310000 0.087157 0
17.315000 0.100722 0
17.320000 0.115492 0
17.325000 0.131451 0
17.330000 0.148561 0
17.335000 0.166753 0
17.340000 0.185932 0
17.345000 0.205971 0
17.350000 0.226714 0
17.355000 0.247974 0
17.360000 0.269535 0
17.365000 0.291156 0
17.370000 0.312576 0
17.375000 0.333513 0
17.380000 0.353676 0
17.385000 0.372767 0
17.390000 0.390490 0
17.395000 0.406559 0
17.400000 0.420702 0
17.405000 0.432672 0
17.410000 0.442251 0
17.415000 0.449259 0
17.420000 0.453556 0
17.425000 0.455051 5
17.430000 0.453697 0
17.435000 0.449503 0
17.440000 0.442524 0
17.445000 0.432865 0
17.450000 0.420678 0
17.455000 0.406155 0
17.460000 0.389526 0
17.465000 0.371049 0
17.470000 0.351007 0
17.475000 0.329698 0
17.480000 0.307428 0
17.485000 0.284503 0
17.490000 0.261224 0
17.495000 0.237880 0
17.500000 0.214738 0
17.505000 0.192046 0
17.510000 0.170023 0
17.515000 0.148858 0
17.520000 0.128709 0
17.525000 0.109702 0
17.530000 0.091933 0
17.535000 0.075466 0
17.540000 0.060336 0
17.545000 0.046554 0
17.550000 0.034105 0
17.555000 0.022957 0
17.560000 0.013060 0
17.565000 0.004350 0
17.570000 -0.003246 0
17.575000 -0.009809 0
17.580000 -0.015424 0
17.585000 -0.020176 0
17.590000 -0.024152 0
17.595000 -0.027437 0
17.600000 -0.030110 0
17.605000 -0.032247 0
17.610000 -0.033920 0
17.615000 -0.035192 0
17.620000 -0.036122 0
17.625000 -0.036763 0
17.630000 -0.037161 0
17.635000 -0.037356 0
17.640000 -0.037383 0
17.645000 -0.037274 0
17.650000 -0.037053 0
17.655000 -0.036742 0
17.660000 -0.036360 0
17.665000 -0.035920 0
17.670000 -0.035437 0
17.675000 -0.034919 0
17.680000 -0.034376 0
17.685000 -0.033812 0
17.690000 -0.033234 0
17.695000 -0.032640 0
17.700000 -0.032016 0
17.705000 -0.031394 0
17.710000 -0.030776 0
17.715000 -0.030161 0
17.720000 -0.029548 0
17.725000 -0.028939 0
17.730000 -0.028333 0
17.735000 -0.027730 0
17.740000 -0.027130 0
17.745000 -0.026533 0
17.750000 -0.025939 0
17.755000 -0.025348 0
17.760000 -0.024759 0
17.765000 -0.024174 0
17.770000 -0.023592 0
17.775000 -0.023012 0
17.780000 -0.022436 0
17.785000 -0.021862 0
17.790000 -0.021291 0
17.795000 -0.020723 0
17.800000 -0.020158 0
17.805000 -0.019596 0
17.810000 -0.019036 0
17.815000 -0.018480 0
17.820000 -0.017926 0
17.825000 -0.017374 0
17.830000 -0.016826 0
17.835000 -0.016280 0
17.840000 -0.015737 0
17.845000 -0.015196 0
17.850000 -0.014658 0
17.855000 -0.014121 0
17.860000 -0.013586 0
17.865000 -0.013051 0
17.870000 -0.012516 0
17.875000 -0.011977 0
17.880000 -0.011432 0
17.885000 -0.010875 0
17.890000 -0.010298 0
17.895000 -0.009690 0
17.900000 -0.009034 0
17.905000 -0.008306 0
17.910000 -0.007475 0
17.915000 -0.006496 0
17.920000 -0.005310 0
17.925000 -0.003842 0
17.930000 -0.001997 0
17.935000 0.000343 0
17.940000 0.003318 0
17.945000 0.007091 0
17.950000 0.011846 0
17.955000 0.017780 0
17.960000 0.025097 0
17.965000 0.033992 0
17.970000 0.044641 0
17.975000 0.057175 0
17.980000 0.071667 0
17.985000 0.088106 0
17.990000 0.106379 0
17.995000 0.126260 0
18.000000 0.147396 0
18.005000 0.169312 0
18.010000 0.191419 0
18.015000 0.213034 0
18.020000 0.233416 0
18.025000 0.251800 0
18.030000 0.267448 0
18.035000 0.279694 0
18.040000 0.287992 0
18.045000 0.291955 1
18.050000 0.291384 0
18.055000 0.286282 0
18.060000 0.276855 0
18.065000 0.263501 0
18.070000 0.246775 0
18.075000 0.227356 0
18.080000 0.205995 0
18.085000 0.183472 0
18.090000 0.160546 0
18.095000 0.137914 0
18.100000 0.116179 0
18.105000 0.095825 0
18.110000 0.077203 0
18.115000 0.060510 0
18.120000 0.045769 0
18.125000 0.032762 0
18.130000 0.020923 0
18.135000 0.009188 0
18.140000 -0.004117 0
18.145000 -0.021170 0
18.150000 -0.044131 0
18.155000 -0.074075 0
18.160000 -0.109606 0
18.165000 -0.145724 0
18.170000 -0.173638 0
18.175000 -0.181782 2
18.180000 -0.157645 0
18.185000 -0.089732 0
18.190000 0.030431 0
18.195000 0.205466 0
18.200000 0.427882 0
18.205000 0.675696 0
18.210000 0.911638 0
18.215000 1.089646 0
18.220000 1.168567 3
18.225000 1.128820 0
18.230000 0.978110 0
18.235000 0.747775 0
18.240000 0.481565 0
18.245000 0.221635 0
18.250000 -0.000956 0
18.255000 -0.168887 0
18.260000 -0.276535 0
18.265000 -0.326829 0
18.270000 -0.328927 4
18.275000 -0.296363 0
18.280000 -0.244633 0
18.285000 -0.188107 0
18.290000 -0.137277 0
18.295000 -0.097517 0
18.300000 -0.069634 0
18.305000 -0.051567 0
18.310000 -0.040226 0
18.315000 -0.032764 0
18.320000 -0.027111 0
18.325000 -0.021993 0
18.330000 -0.016710 0
18.335000 -0.010902 0
18.340000 -0.004376 0
18.345000 0.002985 0
18.350000 0.011267 0
18.355000 0.020543 0
18.360000 0.030876 0
18.365000 0.042319 0
18.370000 0.054911 0
18.375000 0.068679 0
18.380000 0.083627 0
18.385000 0.099741 0
18.390000 0.116984 0
18.395000 0.135290 0
18.400000 0.154569 0
18.405000 0.174699 0
18.410000 0.195532 0
18.415000 0.216889 0
18.420000 0.238567 0
18.425000 0.260334 0
18.430000 0.281942 0
18.435000 0.303121 0
18.440000 0.323593 0
18.445000 0.343069 0
18.450000 0.361265 0
18.455000 0.377900 0
18.460000 0.392709 0
18.465000 0.405445 0
18.470000 0.415892 0
18.475000 0.423862 0
18.480000 0.429210 0
18.485000 0.431829 5
18.490000 0.431660 0
18.495000 0.428692 0
18.500000 0.422960 0
18.505000 0.414547 0
18.510000 0.403580 0
18.515000 0.390228 0
18.520000 0.374698 0
18.525000 0.357225 0
18.530000 0.338073 0
18.535000 0.317522 0
18.540000 0.295864 0
18.545000 0.273396 0
18.550000 0.250412 0
18.555000 0.227198 0
18.560000 0.204025 0
18.565000 0.181144 0
18.570000 0.158786 0
18.575000 0.137151 0
18.580000 0.116412 0
18.585000 0.096713 0
18.590000 0.078167 0
18.595000 0.060856 0
18.600000 0.044836 0
18.605000 0.030135 0
18.610000 0.016758 0
18.615000 0.004686 0
18.620000 -0.006116 0
18.625000 -0.015697 0
18.630000 -0.024122 0
18.635000 -0.031461 0
18.640000 -0.037795 0
18.645000 -0.043203 0
18.650000 -0.047771 0
18.655000 -0.051581 0
18.660000 -0.054714 0
18.665000 -0.057248 0
18.670000 -0.059257 0
18.675000 -0.060807 0
18.680000 -0.061963 0
18.685000 -0.062780 0
18.690000 -0.063310 0
18.695000 -0.063598 0
18.700000 -0.063683 0
18.705000 -0.063600 0
18.710000 -0.063379 0
18.715000 -0.063046 0
18.720000 -0.062621 0
18.725000 -0.062123 0
18.730000 -0.061568 0
18.735000 -0.060967 0
18.740000 -0.060330 0
18.745000 -0.059667 0
18.750000 -0.058983 0
18.755000 -0.058285 0
18.760000 -0.057569 0
18.765000 -0.056821 0
18.770000 -0.056075 0
18.775000 -0.055334 0
18.780000 -0.054596 0
18.785000 -0.053862 0
18.790000 -0.053132 0
18.795000 -0.052405 0
18.800000 -0.051682 0
18.805000 -0.050962 0
18.810000 -0.050246 0
18.815000 -0.049534 0
18.820000 -0.048825 0
18.825000 -0.048120 0
18.830000 -0.047418 0
18.835000 -0.046720 0
18.840000 -0.046025 0
18.845000 -0.045334 0
18.850000 -0.044646 0
18.855000 -0.043961 0
18.860000 -0.043280 0
18.865000 -0.042603 0
18.870000 -0.041928 0
18.875000 -0.041257 0
18.880000 -0.040590 0
18.885000 -0.039926 0
18.890000 -0.039265 0
18.895000 -0.038607 0
18.900000 -0.037953 0
18.905000 -0.037301 0
18.910000 -0.036653 0
18.915000 -0.036008 0
18.920000 -0.035366 0
18.925000 -0.034726 0
18.930000 -0.034088 0
18.935000 -0.033451 0
18.940000 -0.032813 0
18.945000 -0.032173 0
18.950000 -0.031527 0
18.955000 -0.030870 0
18.960000 -0.030195 0
18.965000 -0.029490 0
18.970000 -0.028740 0
18.975000 -0.027923 0
18.980000 -0.027007 0
18.985000 -0.025953 0
18.990000 -0.024706 0
18.995000 -0.023195 0
19.000000 -0.021332 0
19.005000 -0.019007 0
19.010000 -0.016090 0
19.015000 -0.012427 0
19.020000 -0.007847 0
19.025000 -0.002161 0
19.030000 0.004826 0
19.035000 0.013308 0
19.040000 0.023459 0
19.045000 0.035424 0
19.050000 0.049294 0
19.055000 0.065090 0
19.060000 0.082741 0
19.065000 0.102074 0
19.070000 0.122799 0
19.075000 0.144508 0
19.080000 0.166679 0
19.085000 0.188693 0
19.090000 0.209857 0
19.095000 0.229439 0
19.100000 0.246708 0
19.105000 0.260978 0
19.110000 0.271653 0
19.115000 0.278269 0
19.120000 0.280523 1
19.125000 0.278299 0
19.130000 0.271676 0
19.135000 0.260921 0
19.140000 0.246473 0
19.145000 0.228912 0
19.150000 0.208919 0
19.155000 0.187232 0
19.160000 0.164603 0
19.165000 0.141753 0
19.170000 0.119336 0
19.175000 0.097910 0
19.180000 0.077918 0
19.185000 0.059673 0
19.190000 0.043341 0
19.195000 0.028915 0
19.200000 0.016148 0
19.205000 0.004450 0
19.210000 -0.007256 0
19.215000 -0.020628 0
19.220000 -0.037788 0
19.225000 -0.060807 0
19.230000 -0.090691 0
19.235000 -0.126088 0
19.240000 -0.162231 0
19.245000 -0.190741 0
19.250000 -0.200548 2
19.255000 -0.179576 0
19.260000 -0.116571 0
19.265000 -0.002946 0
19.270000 0.164720 0
19.275000 0.380845 0
19.280000 0.626602 0
19.285000 0.868351 0
19.290000 1.062367 0
19.295000 1.166597 3
19.300000 1.153879 0
19.305000 1.024429 0
19.310000 0.806157 0
19.315000 0.542959 0
19.320000 0.279586 0
19.325000 0.050318 0
19.330000 -0.124976 0
19.335000 -0.239149 0
19.340000 -0.294412 0
19.345000 -0.299728 4
19.350000 -0.268834 0
19.355000 -0.217714 0
19.360000 -0.161319 0
19.365000 -0.110602 0
19.370000 -0.071141 0
19.375000 -0.043727 0
19.380000 -0.026177 0
19.385000 -0.015287 0
19.390000 -0.008158 0
19.395000 -0.002722 0
19.400000 0.002270 0
19.405000 0.007490 0
19.410000 0.013281 0
19.415000 0.019825 0
19.420000 0.027236 0
19.425000 0.035600 0
19.430000 0.044992 0
19.435000 0.055473 0
19.440000 0.067096 0
19.445000 0.079898 0
19.450000 0.093900 0
19.455000 0.109103 0
19.460000 0.125485 0
19.465000 0.142997 0
19.470000 0.161565 0
19.475000 0.181081 0
19.480000 0.201412 0
19.485000 0.222390 0
19.490000 0.243821 0
19.495000 0.265481 0
19.500000 0.287123 0
19.505000 0.308478 0
19.510000 0.329263 0
19.515000 0.349184 0
19.520000 0.367943 0
19.525000 0.385248 0
19.530000 0.400816 0
19.535000 0.414382 0
19.540000 0.425708 0
19.545000 0.434587 0
19.550000 0.440850 0
19.555000 0.444373 0
19.560000 0.445077 5
19.565000 0.442932 0
19.570000 0.437959 0
19.575000 0.430230 0
19.580000 0.419863 0
19.585000 0.407022 0
19.590000 0.391910 0
19.595000 0.374766 0
19.600000 0.355855 0
19.605000 0.335465 0
19.610000 0.313896 0
19.615000 0.291455 0
19.620000 0.268446 0
19.625000 0.245167 0
19.630000 0.221901 0
19.635000 0.198910 0
19.640000 0.176432 0
19.645000 0.154678 0
19.650000 0.133829 0
19.655000 0.114034 0
19.660000 0.095410 0
19.665000 0.078043 0
19.670000 0.061989 0
19.675000 0.047276 0
19.680000 0.033908 0
19.685000 0.021865 0
19.690000 0.011109 0
19.695000 0.001587 0
19.700000 -0.006769 0
19.705000 -0.014033 0
19.710000 -0.020288 0
19.715000 -0.025618 0
19.720000 -0.030110 0
19.725000 -0.033850 0
19.730000 -0.036920 0
19.735000 -0.039401 0
19.740000 -0.041366 0
19.745000 -0.042884 0
19.750000 -0.044018 0
19.755000 -0.044825 0
19.760000 -0.045356 0
19.765000 -0.045655 0
19.770000 -0.045762 0
19.775000 -0.045710 0
19.780000 -0.045528 0
19.785000 -0.045240 0
19.790000 -0.044868 0
19.795000 -0.044429 0
19.800000 -0.043937 0
19.805000 -0.043403 0
19.810000 -0.042838 0
19.815000 -0.042249 0
19.820000 -0.041641 0
19.825000 -0.041021 0
19.830000 -0.040361 0
19.835000 -0.039698 0
19.840000 -0.039038 0
19.845000 -0.038382 0
19.850000 -0.037729 0
19.855000 -0.037079 0
19.860000 -0.036432 0
19.865000 -0.035789 0
19.870000 -0.035148 0
19.875000 -0.034511 0
19.880000 -0.033877 0
19.885000 -0.033247 0
19.890000 -0.032619 0
19.895000 -0.031994 0
19.900000 -0.031373 0
19.905000 -0.030755 0
19.910000 -0.030140 0
19.915000 -0.029528 0
19.920000 -0.028919 0
19.925000 -0.028313 0
19.930000 -0.027710 0
19.935000 -0.027110 0
19.940000 -0.026513 0
19.945000 -0.025919 0
19.950000 -0.025327 0
19.955000 -0.024739 0
19.960000 -0.024154 0
19.965000 -0.023572 0
19.970000 -0.022992 0
19.975000 -0.022416 0
19.980000 -0.021841 0
19.985000 -0.021270 0
19.990000 -0.020700 0
19.995000 -0.020131 0
20.000000 -0.019563 0
20.005000 -0.018994 0
20.010000 -0.018422 0
20.015000 -0.017842 0
20.020000 -0.017249 0
20.025000 -0.016634 0
20.030000 -0.015985 0
20.035000 -0.015284 0
20.040000 -0.014506 0
20.045000 -0.013616 0
20.050000 -0.012567 0
20.055000 -0.011298 0
20.060000 -0.009729 0
20.065000 -0.007761 0
20.070000 -0.005272 0
20.075000 -0.002117 0
20.080000 0.001872 0
20.085000 0.006880 0
20.090000 0.013107 0
20.095000 0.020756 0
20.100000 0.030020 0
20.105000 0.041065 0
20.110000 0.054014 0
20.115000 0.068924 0
20.120000 0.085765 0
20.125000 0.104404 0
20.130000 0.124589 0
20.135000 0.145946 0
20.140000 0.167977 0
20.145000 0.190072 0
20.150000 0.211538 0
20.155000 0.231625 0
20.160000 0.249573 0
20.165000 0.264653 0
20.170000 0.276221 0
20.175000 0.283760 0
20.180000 0.286915 1
20.185000 0.285524 0
20.190000 0.279629 0
20.195000 0.269473 0
20.200000 0.255484 0
20.205000 0.238241 0
20.210000 0.218439 0
20.215000 0.196838 0
20.220000 0.174214 0
20.225000 0.151318 0
20.230000 0.128830 0
20.235000 0.107332 0
20.240000 0.087287 0
20.245000 0.069017 0
20.250000 0.052693 0
20.255000 0.038302 0
20.260000 0.025573 0
20.265000 0.013869 0
20.270000 0.002027 0
20.275000 -0.011724 0
20.280000 -0.029609 0
20.285000 -0.053690 0
20.290000 -0.084724 0
20.295000 -0.120779 0
20.300000 -0.156217 0
20.305000 -0.181707 0
20.310000 -0.185412 2
20.315000 -0.154876 0
20.320000 -0.078969 0
20.325000 0.050053 0
20.330000 0.233506 0
20.335000 0.461859 0
20.340000 0.710646 0
20.345000 0.940630 0
20.350000 1.105560 0
20.355000 1.166566 3
20.360000 1.109220 0
20.365000 0.945505 0
20.370000 0.708387 0
20.375000 0.440982 0
20.380000 0.183494 0
20.385000 -0.035098 0
20.390000 -0.198976 0
20.395000 -0.303330 0
20.400000 -0.351391 0
20.405000 -0.352280 4
20.410000 -0.319257 0
20.415000 -0.267416 0
20.420000 -0.210750 0
20.425000 -0.159544 0
20.430000 -0.119166 0
20.435000 -0.090556 0
20.440000 -0.071808 0
20.445000 -0.059932 0
20.450000 -0.052106 0
20.455000 -0.046237 0
20.460000 -0.041008 0
20.465000 -0.035684 0
20.470000 -0.029880 0
20.475000 -0.023393 0
20.480000 -0.016100 0
20.485000 -0.007914 0
20.490000 0.001238 0
20.495000 0.011419 0
20.500000 0.022683 0
20.505000 0.035071 0
20.510000 0.048613 0
20.515000 0.063318 0
20.520000 0.079178 0
20.525000 0.096164 0
20.530000 0.114219 0
20.535000 0.133264 0
20.540000 0.153190 0
20.545000 0.173863 0
20.550000 0.195118 0
20.555000 0.216766 0
20.560000 0.238593 0
20.565000 0.260362 0
20.570000 0.281819 0
20.575000 0.302696 0
20.580000 0.322717 0
20.585000 0.341602 0
20.590000 0.359075 0
20.595000 0.374871 0
20.600000 0.388740 0
20.605000 0.400455 0
20.610000 0.409820 0
20.615000 0.416669 0
20.620000 0.420879 0
20.625000 0.422367 5
20.630000 0.421094 0
20.635000 0.417068 0
20.640000 0.410342 0
20.645000 0.401015 0
20.650000 0.389224 0
20.655000 0.375150 0
20.660000 0.359002 0
20.665000 0.341022 0
20.670000 0.321469 0
20.675000 0.300622 0
20.680000 0.278766 0
20.685000 0.256191 0
20.690000 0.233181 0
20.695000 0.210012 0
20.700000 0.186942 0
20.705000 0.164213 0
20.710000 0.142042 0
20.715000 0.120619 0
20.720000 0.100108 0
20.725000 0.080644 0
20.730000 0.062331 0
20.735000 0.045247 0
20.740000 0.029442 0
20.745000 0.014939 0
20.750000 0.001742 0
20.755000 -0.010169 0
20.760000 -0.020829 0
20.765000 -0.030289 0
20.770000 -0.038609 0
20.775000 -0.045861 0
20.780000 -0.052120 0
20.785000 -0.057467 0
20.790000 -0.061983 0
20.795000 -0.065750 0
20.800000 -0.068845 0
20.805000 -0.071345 0
20.810000 -0.073322 0
20.815000 -0.074841 0
20.820000 -0.075966 0
20.825000 -0.076751 0
20.830000 -0.077246 0
20.835000 -0.077497 0
20.840000 -0.077543 0
20.845000 -0.077419 0
20.850000 -0.077153 0
20.855000 -0.076772 0
20.860000 -0.076297 0
20.865000 -0.075747 0
20.870000 -0.075137 0
20.875000 -0.074480 0
20.880000 -0.073786 0
20.885000 -0.073063 0
20.890000 -0.072319 0
20.895000 -0.071559 0
20.900000 -0.070788 0
20.905000 -0.069980 0
20.910000 -0.069169 0
20.915000 -0.068363 0
20.920000 -0.067560 0
20.925000 -0.066761 0
20.930000 -0.065966 0
20.935000 -0.065176 0
20.940000 -0.064389 0
20.945000 -0.063606 0
20.950000 -0.062827 0
20.955000 -0.062052 0
20.960000 -0.061280 0
20.965000 -0.060513 0
20.970000 -0.059749 0
20.975000 -0.058990 0
20.980000 -0.058234 0
20.985000 -0.057481 0
20.990000 -0.056733 0
20.995000 -0.055988 0
21.000000 -0.055247 0
21.005000 -0.054510 0
21.010000 -0.053776 0
21.015000 -0.053046 0
21.020000 -0.052320 0
21.025000 -0.051597 0
21.030000 -0.050878 0
21.035000 -0.050162 0
21.040000 -0.049450 0
21.045000 -0.048742 0
21.050000 -0.048037 0
21.055000 -0.047335 0
21.060000 -0.046637 0
21.065000 -0.045941 0
21.070000 -0.045248 0
21.075000 -0.044557 0
21.080000 -0.043867 0
21.085000 -0.043177 0
21.090000 -0.042484 0
21.095000 -0.041785 0
21.100000 -0.041075 0
21.105000 -0.040346 0
21.110000 -0.039586 0
21.115000 -0.038781 0
21.120000 -0.037907 0
21.125000 -0.036934 0
21.130000 -0.035823 0
21.135000 -0.034519 0
21.140000 -0.032953 0
21.145000 -0.031039 0
21.150000 -0.028670 0
21.155000 -0.025720 0
21.160000 -0.022040 0
21.165000 -0.017462 0
21.170000 -0.011805 0
21.175000 -0.004879 0
21.180000 0.003505 0
21.185000 0.013519 0
21.190000 0.025308 0
21.195000 0.038968 0
21.200000 0.054527 0
21.205000 0.071933 0
21.210000 0.091032 0
21.215000 0.111563 0
21.220000 0.133150 0
21.225000 0.155306 0
21.230000 0.177446 0
21.235000 0.198911 0
21.240000 0.218994 0
21.245000 0.236980 0
21.250000 0.252184 0
21.255000 0.264000 0
21.260000 0.271933 0
21.265000 0.275638 1
21.270000 0.274943 0
21.275000 0.269859 0
21.280000 0.260586 0
21.285000 0.247492 0
21.290000 0.231095 0
21.295000 0.212023 0
21.300000 0.190979 0
21.305000 0.168693 0
21.310000 0.145886 0
21.315000 0.123225 0
21.320000 0.101300 0
21.325000 0.080598 0
21.330000 0.061484 0
21.335000 0.044196 0
21.340000 0.028816 0
21.345000 0.015239 0
21.350000 0.003087 0
21.355000 -0.008408 0
21.360000 -0.020534 0
21.365000 -0.035126 0
21.370000 -0.054318 0
21.375000 -0.079865 0
21.380000 -0.112033 0
21.385000 -0.148385 0
21.390000 -0.183019 0
21.395000 -0.206749 0
21.400000 -0.208289 2
21.405000 -0.175945 0
21.410000 -0.099336 0
21.415000 0.028781 0
21.420000 0.209809 0
21.425000 0.435405 0
21.430000 0.683738 0
21.435000 0.919157 0
21.440000 1.098278 0
21.445000 1.182209 3
21.450000 1.147768 0
21.455000 0.999907 0
21.460000 0.770317 0
21.465000 0.504014 0
21.470000 0.244438 0
21.475000 0.023378 0
21.480000 -0.141742 0
21.485000 -0.245618 0
21.490000 -0.291746 4
21.495000 -0.290009 0
21.500000 -0.254683 0
21.505000 -0.201779 0
21.510000 -0.145731 0
21.515000 -0.096631 0
21.520000 -0.059186 0
21.525000 -0.033570 0
21.530000 -0.017322 0
21.535000 -0.007229 0
21.540000 -0.000510 0
21.545000 0.004759 0
21.550000 0.009720 0
21.555000 0.014977 0
21.560000 0.020838 0
21.565000 0.027472 0
21.570000 0.034987 0
21.575000 0.043465 0
21.580000 0.052978 0
21.585000 0.063589 0
21.590000 0.075345 0
21.595000 0.088284 0
21.600000 0.102423 0
21.605000 0.117760 0
21.610000 0.134269 0
21.615000 0.151899 0
21.620000 0.170569 0
21.625000 0.190171 0
21.630000 0.210566 0
21.635000 0.231584 0
21.640000 0.253026 0
21.645000 0.274666 0
21.650000 0.296254 0
21.655000 0.317522 0
21.660000 0.338183 0
21.665000 0.357944 0
21.670000 0.376508 0
21.675000 0.393585 0
21.680000 0.408893 0
21.685000 0.422172 0
21.690000 0.433187 0
21.695000 0.441737 0
21.700000 0.447659 0
21.705000 0.450831 0
21.710000 0.451182 5
21.715000 0.448688 0
21.720000 0.443376 0
21.725000 0.435321 0
21.730000 0.424648 0
21.735000 0.411524 0
21.740000 0.396156 0
21.745000 0.378784 0
21.750000 0.359678 0
21.755000 0.339125 0
21.760000 0.317426 0
21.765000 0.294886 0
21.770000 0.271810 0
21.775000 0.248492 0
21.780000 0.225213 0
21.785000 0.202233 0
21.790000 0.179787 0
21.795000 0.158083 0
21.800000 0.137297 0
21.805000 0.117576 0
21.810000 0.099033 0
21.815000 0.081753 0
21.820000 0.065787 0
21.825000 0.051163 0
21.830000 0.037880 0
21.835000 0.025919 0
21.840000 0.015240 0
21.845000 0.005788 0
21.850000 -0.002504 0
21.855000 -0.009712 0
21.860000 -0.015917 0
21.865000 -0.021206 0
21.870000 -0.025664 0
21.875000 -0.029377 0
21.880000 -0.032426 0
21.885000 -0.034892 0
21.890000 -0.036848 0
21.895000 -0.038361 0
21.900000 -0.039496 0
21.905000 -0.040306 0
21.910000 -0.040844 0
21.915000 -0.041153 0
21.920000 -0.041271 0
21.925000 -0.041233 0
21.930000 -0.041066 0
21.935000 -0.040796 0
21.940000 -0.040442 0
21.945000 -0.040021 0
21.950000 -0.039549 0
21.955000 -0.039035 0
21.960000 -0.038490 0
21.965000 -0.037921 0
21.970000 -0.037334 0
21.975000 -0.036734 0
21.980000 -0.036096 0
21.985000 -0.035455 0
21.990000 -0.034816 0
21.995000 -0.034181 0
22.000000 -0.033548 0
22.005000 -0.032919 0
22.010000 -0.032293 0
22.015000 -0.031670 0
22.020000 -0.031051 0
22.025000 -0.030434 0
22.030000 -0.029820 0
22.035000 -0.029210 0
22.040000 -0.028603 0
22.045000 -0.027998 0
22.050000 -0.027397 0
22.055000 -0.026798 0
22.060000 -0.026203 0
22.065000 -0.025610 0
22.070000 -0.025021 0
22.075000 -0.024434 0
22.080000 -0.023851 0
22.085000 -0.023270 0
22.090000 -0.022692 0
22.095000 -0.022117 0
22.100000 -0.021545 0
22.105000 -0.020976 0
22.110000 -0.020409 0
22.115000 -0.019846 0
22.120000 -0.019285 0
22.125000 -0.018726 0
22.130000 -0.018171 0
22.135000 -0.017617 0
22.140000 -0.017065 0
22.145000 -0.016515 0
22.150000 -0.015965 0
22.155000 -0.015414 0
22.160000 -0.014859 0
22.165000 -0.014297 0
22.170000 -0.013722 0
22.175000 -0.013125 0
22.180000 -0.012494 0
22.185000 -0.011810 0
22.190000 -0.011050 0
22.195000 -0.010178 0
22.200000 -0.009148 0
22.205000 -0.007899 0
22.210000 -0.006351 0
22.215000 -0.004406 0
22.220000 -0.001943 0
22.225000 0.001184 0
22.230000 0.005141 0
22.235000 0.010112 0
22.240000 0.016298 0
22.245000 0.023899 0
22.250000 0.033109 0
22.255000 0.044095 0
22.260000 0.056981 0
22.265000 0.071824 0
22.270000 0.088598 0
22.275000 0.107173 0
22.280000 0.127302 0
22.285000 0.148613 0
22.290000 0.170614 0
22.295000 0.192702 0
22.300000 0.214184 0
22.305000 0.234317 0
22.310000 0.252339 0
22.315000 0.267523 0
22.320000 0.279223 0
22.325000 0.286915 0
22.330000 0.290240 1
22.335000 0.289028 0
22.340000 0.283312 0
22.345000 0.273325 0
22.350000 0.259485 0
22.355000 0.242367 0
22.360000 0.222657 0
22.365000 0.201112 0
22.370000 0.178507 0
22.375000 0.155591 0
22.380000 0.133050 0
22.385000 0.111470 0
22.390000 0.091317 0
22.395000 0.072924 0
22.400000 0.056470 0
22.405000 0.041952 0
22.410000 0.029121 0
22.415000 0.017366 0
22.420000 0.005566 0
22.425000 -0.008009 0
22.430000 -0.025561 0
22.435000 -0.049188 0
22.440000 -0.079779 0
22.445000 -0.115633 0
22.450000 -0.151399 0
22.455000 -0.178006 0
22.460000 -0.183768 2
22.465000 -0.156239 0
22.470000 -0.084150 0
22.475000 0.040572 0
22.480000 0.219885 0
22.485000 0.445309 0
22.490000 0.693715 0
22.495000 0.926985 0
22.500000 1.099073 0
22.505000 1.169968 3
22.510000 1.121423 0
22.515000 0.964031 0
22.520000 0.730085 0
22.525000 0.463166 0
22.530000 0.204536 0
22.535000 -0.015778 0
22.540000 -0.181255 0
22.545000 -0.286742 0
22.550000 -0.335394 0
22.555000 -0.336427 4
22.560000 -0.303310 0
22.565000 -0.251384 0
22.570000 -0.194827 0
22.575000 -0.143982 0
22.580000 -0.104150 0
22.585000 -0.076139 0
22.590000 -0.057925 0
22.595000 -0.046452 0
22.600000 -0.038892 0
22.605000 -0.033177 0
22.610000 -0.028026 0
22.615000 -0.022730 0
22.620000 -0.016923 0
22.625000 -0.010410 0
22.630000 -0.003072 0
22.635000 0.005176 0
22.640000 0.014409 0
22.645000 0.024688 0
22.650000 0.036066 0
22.655000 0.048585 0
22.660000 0.062270 0
22.665000 0.077129 0
22.670000 0.093150 0
22.675000 0.110298 0
22.680000 0.128511 0
22.685000 0.147702 0
22.690000 0.167756 0
22.695000 0.188529 0
22.700000 0.209847 0
22.705000 0.231513 0
22.710000 0.253302 0
22.715000 0.274970 0
22.720000 0.296253 0
22.725000 0.316876 0
22.730000 0.336557 0
22.735000 0.355012 0
22.740000 0.371963 0
22.745000 0.387144 0
22.750000 0.400308 0
22.755000 0.411233 0
22.760000 0.419729 0
22.765000 0.425643 0
22.770000 0.428862 0
22.775000 0.429317 5
22.780000 0.426987 0
22.785000 0.421895 0
22.790000 0.414114 0
22.795000 0.403760 0
22.800000 0.390990 0
22.805000 0.375999 0
22.810000 0.359015 0
22.815000 0.340291 0
22.820000 0.320101 0
22.825000 0.298732 0
22.830000 0.276476 0
22.835000 0.253625 0
22.840000 0.230466 0
22.845000 0.207272 0
22.850000 0.184297 0
22.855000 0.161775 0
22.860000 0.139914 0
22.865000 0.118893 0
22.870000 0.098866 0
22.875000 0.079951 0
22.880000 0.062242 0
22.885000 0.045802 0
22.890000 0.030666 0
22.895000 0.016848 0
22.900000 0.004337 0
22.905000 -0.006895 0
22.910000 -0.016894 0
22.915000 -0.025719 0
22.920000 -0.033436 0
22.925000 -0.040122 0
22.930000 -0.045857 0
22.935000 -0.050723 0
22.940000 -0.054802 0
22.945000 -0.058177 0
22.950000 -0.060925 0
22.955000 -0.063120 0
22.960000 -0.064833 0
22.965000 -0.066127 0
22.970000 -0.067061 0
22.975000 -0.067688 0
22.980000 -0.068055 0
22.985000 -0.068204 0
22.990000 -0.068171 0
22.995000 -0.067988 0
23.000000 -0.067681 0
23.005000 -0.067275 0
23.010000 -0.066788 0
23.015000 -0.066236 0
23.020000 -0.065634 0
23.025000 -0.064992 0
23.030000 -0.064320 0
23.035000 -0.063624 0
23.040000 -0.062912 0
23.045000 -0.062186 0
23.050000 -0.061421 0
23.055000 -0.060653 0
23.060000 -0.059889 0
23.065000 -0.059129 0
23.070000 -0.058372 0
23.075000 -0.057619 0
23.080000 -0.056870 0
23.085000 -0.056124 0
23.090000 -0.055383 0
23.095000 -0.054645 0
23.100000 -0.053910 0
23.105000 -0.053180 0
23.110000 -0.052453 0
23.115000 -0.051729 0
23.120000 -0.051010 0
23.125000 -0.050293 0
23.130000 -0.049581 0
23.135000 -0.048872 0
23.140000 -0.048166 0
23.145000 -0.047464 0
23.150000 -0.046766 0
23.155000 -0.046071 0
23.160000 -0.045379 0
23.165000 -0.044691 0
23.170000 -0.044006 0
23.175000 -0.043325 0
23.180000 -0.042647 0
23.185000 -0.041973 0
23.190000 -0.041301 0
23.195000 -0.040633 0
23.200000 -0.039968 0
23.205000 -0.039307 0
23.210000 -0.038648 0
23.215000 -0.037991 0
23.220000 -0.037336 0
23.225000 -0.036682 0
23.230000 -0.036027 0
23.235000 -0.035369 0
23.240000 -0.034704 0
23.245000 -0.034026 0
23.250000 -0.033328 0
23.255000 -0.032597 0
23.260000 -0.031816 0
23.265000 -0.030962 0
23.270000 -0.030002 0
23.275000 -0.028892 0
23.280000 -0.027576 0
23.285000 -0.025980 0
23.290000 -0.024012 0
23.295000 -0.021560 0
23.300000 -0.018489 0
23.305000 -0.014643 0
23.310000 -0.009850 0
23.315000 -0.003921 0
23.320000 0.003337 0
23.325000 0.012115 0
23.330000 0.022580 0
23.335000 0.034869 0
23.340000 0.049059 0
23.345000 0.065160 0
23.350000 0.083087 0
23.355000 0.102651 0
23.360000 0.123549 0
23.365000 0.145362 0
23.370000 0.167559 0
23.375000 0.189518 0
23.380000 0.210546 0
23.385000 0.229917 0
23.390000 0.246911 0
23.395000 0.260857 0
23.400000 0.271178 0
23.405000 0.277427 0
23.410000 0.279320 1
23.415000 0.276759 0
23.420000 0.269837 0
23.425000 0.258830 0
23.430000 0.244183 0
23.435000 0.226477 0
23.440000 0.206390 0
23.445000 0.184654 0
23.450000 0.162012 0
23.455000 0.139175 0
23.460000 0.116788 0
23.465000 0.095398 0
23.470000 0.075443 0
23.475000 0.057229 0
23.480000 0.040919 0
23.485000 0.026504 0
23.490000 0.013742 0
23.495000 0.002050 0
23.500000 -0.009630 0
23.505000 -0.022928 0
23.510000 -0.039938 0
23.515000 -0.062721 0
23.520000 -0.092330 0
23.525000 -0.127542 0
23.530000 -0.163805 0
23.535000 -0.192998 0
23.540000 -0.204278 2
23.545000 -0.185707 0
23.550000 -0.126046 0
23.555000 -0.016539 0
23.560000 0.146712 0
23.565000 0.359102 0
23.570000 0.603300 0
23.575000 0.847326 0
23.580000 1.048488 0
23.585000 1.164318 0
23.590000 1.166883 3
23.595000 1.052448 0
23.600000 0.843631 0
23.605000 0.583534 0
23.610000 0.318053 0
23.615000 0.083495 0
23.620000 -0.098370 0
23.625000 -0.219052 0
23.630000 -0.279932 0
23.635000 -0.289479 4
23.640000 -0.261219 0
23.645000 -0.211233 0
23.650000 -0.154850 0
23.655000 -0.103529 0
23.660000 -0.063305 0
23.665000 -0.035250 0
23.670000 -0.017284 0
23.675000 -0.006185 0
23.680000 0.001014 0
23.685000 0.006441 0
23.690000 0.011388 0
23.695000 0.016550 0
23.700000 0.022281 0
23.705000 0.028766 0
23.710000 0.036122 0
23.715000 0.044437 0
23.720000 0.053785 0
23.725000 0.064229 0
23.730000 0.075822 0
23.735000 0.088602 0
23.740000 0.102589 0
23.745000 0.117785 0
23.750000 0.134165 0
23.755000 0.151680 0
23.760000 0.170252 0
23.765000 0.189775 0
23.770000 0.210108 0
23.775000 0.231083 0
23.780000 0.252500 0
23.785000 0.274131 0
23.790000 0.295726 0
23.795000 0.317011 0
23.800000 0.337698 0
23.805000 0.357489 0
23.810000 0.376084 0
23.815000 0.393187 0
23.820000 0.408514 0
23.825000 0.421801 0
23.830000 0.432808 0
23.835000 0.441332 0
23.840000 0.447208 0
23.845000 0.450314 0
23.850000 0.450579 5
23.855000 0.447979 0
23.860000 0.442544 0
23.865000 0.434352 0
23.870000 0.423532 0
23.875000 0.410256 0
23.880000 0.394736 0
23.885000 0.377219 0
23.890000 0.357977 0
23.895000 0.337304 0
23.900000 0.315506 0
23.905000 0.292893 0
23.910000 0.269772 0
23.915000 0.246441 0
23.920000 0.223182 0
23.925000 0.200255 0
23.930000 0.177895 0
23.935000 0.156309 0
23.940000 0.135671 0
23.945000 0.116124 0
23.950000 0.097779 0
23.955000 0.080716 0
23.960000 0.064982 0
23.965000 0.050600 0
23.970000 0.037567 0
23.975000 0.025857 0
23.980000 0.015427 0
23.985000 0.006219 0
23.990000 -0.001838 0
23.995000 -0.008821 0
24.000000 -0.014816 0
24.005000 -0.019908 0
24.010000 -0.024184 0
24.015000 -0.027732 0
24.020000 -0.030634 0
24.025000 -0.032968 0
24.030000 -0.034807 0
24.035000 -0.036220 0
24.040000 -0.037267 0
24.045000 -0.038005 0
24.050000 -0.038481 0
24.055000 -0.038739 0
24.060000 -0.038817 0
24.065000 -0.038746 0
24.070000 -0.038555 0
24.075000 -0.038266 0
24.080000 -0.037900 0
24.085000 -0.037472 0
24.090000 -0.036995 0
24.095000 -0.036481 0
24.100000 -0.035938 0
24.105000 -0.035373 0
24.110000 -0.034792 0
24.115000 -0.034194 0
24.120000 -0.033562 0
24.125000 -0.032932 0
24.130000 -0.032306 0
24.135000 -0.031683 0
24.140000 -0.031064 0
24.145000 -0.030447 0
24.150000 -0.029833 0
24.155000 -0.029223 0
24.160000 -0.028615 0
24.165000 -0.028011 0
24.170000 -0.027409 0
24.175000 -0.026811 0
24.180000 -0.026215 0
24.185000 -0.025623 0
24.190000 -0.025033 0
24.195000 -0.024446 0
24.200000 -0.023863 0
24.205000 -0.023282 0
24.210000 -0.022704 0
24.215000 -0.022129 0
24.220000 -0.021557 0
24.225000 -0.020988 0
24.230000 -0.020421 0
24.235000 -0.019858 0
24.240000 -0.019297 0
24.245000 -0.018739 0
24.250000 -0.018183 0
24.255000 -0.017631 0
24.260000 -0.017081 0
24.265000 -0.016533 0
24.270000 -0.015988 0
24.275000 -0.015445 0
24.280000 -0.014904 0
24.285000 -0.014363 0
24.290000 -0.013821 0
24.295000 -0.013277 0
24.300000 -0.012727 0
24.305000 -0.012166 0
24.310000 -0.011586 0
24.315000 -0.010977 0
24.320000 -0.010322 0
24.325000 -0.009598 0
24.330000 -0.008775 0
24.335000 -0.007808 0
24.340000 -0.006640 0
24.345000 -0.005198 0
24.350000 -0.003388 0
24.355000 -0.001091 0
24.360000 0.001830 0
24.365000 0.005538 0
24.370000 0.010218 0
24.375000 0.016068 0
24.380000 0.023293 0
24.385000 0.032092 0
24.390000 0.042643 0
24.395000 0.055083 0
24.400000 0.069488 0
24.405000 0.085852 0
24.410000 0.104066 0
24.415000 0.123905 0
24.420000 0.145019 0
24.425000 0.166932 0
24.430000 0.189051 0
24.435000 0.210689 0
24.440000 0.231098 0
24.445000 0.249507 0
24.450000 0.265170 0
24.455000 0.277415 0
24.460000 0.285691 0
24.465000 0.289610 1
24.470000 0.288971 0
24.475000 0.283782 0
24.480000 0.274257 0
24.485000 0.260800 0
24.490000 0.243976 0
24.495000 0.224473 0
24.500000 0.203053 0
24.505000 0.180502 0
24.510000 0.157583 0
24.515000 0.134997 0
24.520000 0.113345 0
24.525000 0.093107 0
24.530000 0.074627 0
24.535000 0.058095 0
24.540000 0.043514 0
24.545000 0.030643 0
24.550000 0.018871 0
24.555000 0.007071 0
24.560000 -0.006504 0
24.565000 -0.024085 0
24.570000 -0.047794 0
24.575000 -0.078510 0
24.580000 -0.114448 0
24.585000 -0.150090 0
24.590000 -0.176137 0
24.595000 -0.180683 2
24.600000 -0.151126 0
24.605000 -0.076156 0
24.610000 0.052138 0
24.615000 0.235193 0
24.620000 0.463462 0
24.625000 0.712238 0
24.630000 0.941811 0
24.635000 1.105431 0
24.640000 1.164048 3
24.645000 1.102477 0
24.650000 0.935077 0
24.655000 0.695718 0
24.660000 0.427954 0
24.665000 0.171880 0
24.670000 -0.043992 0
24.675000 -0.204414 0
24.680000 -0.305089 0
24.685000 -0.349697 4
24.690000 -0.347758 0
24.695000 -0.312843 0
24.700000 -0.260179 0
24.705000 -0.203653 0
24.710000 -0.153243 0
24.715000 -0.113939 0
24.720000 -0.086360 0
24.725000 -0.068418 0
24.730000 -0.057073 0
24.735000 -0.049542 0
24.740000 -0.043802 0
24.745000 -0.038600 0
24.750000 -0.033244 0
24.755000 -0.027377 0
24.760000 -0.020805 0
24.765000 -0.013412 0
24.770000 -0.005113 0
24.775000 0.004165 0
24.780000 0.014484 0
24.785000 0.025897 0
24.790000 0.038444 0
24.795000 0.052151 0
24.800000 0.067026 0
24.805000 0.083058 0
24.810000 0.100213 0
24.815000 0.118430 0
24.820000 0.137626 0
24.825000 0.157685 0
24.830000 0.178467 0
24.835000 0.199803 0
24.840000 0.221496 0
24.845000 0.243327 0
24.850000 0.265054 0
24.855000 0.286418 0
24.860000 0.307146 0
24.865000 0.326959 0
24.870000 0.345576 0
24.875000 0.362720 0
24.880000 0.378126 0
24.885000 0.391548 0
24.890000 0.402762 0
24.895000 0.411578 0
24.900000 0.417837 0
24.905000 0.421425 0
24.910000 0.422267 5
24.915000 0.420336 0
24.920000 0.415650 0
24.925000 0.408274 0
24.930000 0.398317 0
24.935000 0.385930 0
24.940000 0.371300 0
24.945000 0.354650 0
24.950000 0.336226 0
24.955000 0.316297 0
24.960000 0.295145 0
24.965000 0.273060 0
24.970000 0.250333 0
24.975000 0.227247 0
24.980000 0.204077 0
24.985000 0.181079 0
24.990000 0.158488 0
24.995000 0.136517 0
25.000000 0.115348 0
25.005000 0.095139 0
25.010000 0.076015 0
25.015000 0.058074 0
25.020000 0.041385 0
25.025000 0.025988 0
25.030000 0.011903 0
25.035000 -0.000877 0
25.040000 -0.012375 0
25.045000 -0.022634 0
25.050000 -0.031707 0
25.055000 -0.039660 0
25.060000 -0.046567 0
25.065000 -0.052506 0
25.070000 -0.057557 0
25.075000 -0.061804 0
25.080000 -0.065326 0
25.085000 -0.068204 0
25.090000 -0.070511 0
25.095000 -0.072318 0
25.100000 -0.073690 0
25.105000 -0.074687 0
25.110000 -0.075363 0
25.115000 -0.075767 0
25.120000 -0.075941 0
25.125000 -0.075924 0
25.130000 -0.075747 0
25.135000 -0.075440 0
25.140000 -0.075027 0
25.145000 -0.074527 0
25.150000 -0.073958 0
25.155000 -0.073334 0
25.160000 -0.072668 0
25.165000 -0.071968 0
25.170000 -0.071243 0
25.175000 -0.070500 0
25.180000 -0.069742 0
25.185000 -0.068968 0
25.190000 -0.068162 0
25.195000 -0.067360 0
25.200000 -0.066563 0
25.205000 -0.065769 0
25.210000 -0.064979 0
25.215000 -0.064193 0
25.220000 -0.063411 0
25.225000 -0.062633 0
25.230000 -0.061859 0
25.235000 -0.061089 0
25.240000 -0.060322 0
25.245000 -0.059560 0
25.250000 -0.058801 0
25.255000 -0.058046 0
25.260000 -0.057295 0
25.265000 -0.056547 0
25.270000 -0.055803 0
25.275000 -0.055063 0
25.280000 -0.054327 0
25.285000 -0.053594 0
25.290000 -0.052865 0
25.295000 -0.052140 0
25.300000 -0.051418 0
25.305000 -0.050699 0
25.310000 -0.049985 0
25.315000 -0.049274 0
25.320000 -0.048566 0
25.325000 -0.047862 0
25.330000 -0.047161 0
25.335000 -0.046464 0
25.340000 -0.045770 0
25.345000 -0.045079 0
25.350000 -0.044391 0
25.355000 -0.043705 0
25.360000 -0.043021 0
25.365000 -0.042337 0
25.370000 -0.041651 0
25.375000 -0.040960 0
25.380000 -0.040261 0
25.385000 -0.039546 0
25.390000 -0.038806 0
25.395000 -0.038027 0
25.400000 -0.037189 0
25.405000 -0.036265 0
25.410000 -0.035219 0
25.415000 -0.034002 0
25.420000 -0.032551 0
25.425000 -0.030786 0
25.430000 -0.028608 0
25.435000 -0.025895 0
25.440000 -0.022508 0
25.445000 -0.018284 0
25.450000 -0.013044 0
25.455000 -0.006598 0
25.460000 0.001244 0
25.465000 0.010664 0
25.470000 0.021820 0
25.475000 0.034827 0
25.480000 0.049740 0
25.485000 0.066534 0
25.490000 0.085092 0
25.495000 0.105186 0
25.500000 0.126476 0
25.505000 0.148507 0
25.510000 0.170719 0
25.515000 0.192470 0
25.520000 0.213056 0
25.525000 0.231758 0
25.530000 0.247870 0
25.535000 0.260755 0
25.540000 0.269875 0
25.545000 0.274836 0
25.550000 0.275412 1
25.555000 0.271560 0
25.560000 0.263429 0
25.565000 0.251344 0
25.570000 0.235787 0
25.575000 0.217367 0
25.580000 0.196774 0
25.585000 0.174741 0
25.590000 0.152000 0
25.595000 0.129241 0
25.600000 0.107081 0
25.605000 0.086037 0
25.610000 0.066509 0
25.615000 0.048769 0
25.620000 0.032939 0
25.625000 0.018964 0
25.630000 0.006535 0
25.635000 -0.005019 0
25.640000 -0.016872 0
25.645000 -0.030759 0
25.650000 -0.048806 0
25.655000 -0.072943 0
25.660000 -0.103853 0
25.665000 -0.139727 0
25.670000 -0.175339 0
25.675000 -0.202023 0
25.680000 -0.208692 2
25.685000 -0.183507 0
25.690000 -0.115637 0
25.695000 0.002956 0
25.700000 0.174996 0
25.705000 0.394101 0
25.710000 0.640768 0
25.715000 0.881186 0
25.720000 1.072217 0
25.725000 1.173000 3
25.730000 1.158398 0
25.735000 1.028652 0
25.740000 0.811051 0
25.745000 0.548330 0
25.750000 0.284260 0
25.755000 0.052736 0
25.760000 -0.126207 0
25.765000 -0.244945 0
25.770000 -0.305058 0
25.775000 -0.314787 4
25.780000 -0.287150 0
25.785000 -0.237636 0
25.790000 -0.181132 0
25.795000 -0.128985 0
25.800000 -0.087437 0
25.805000 -0.057921 0
25.810000 -0.038673 0
25.815000 -0.026634 0
25.820000 -0.018849 0
25.825000 -0.013115 0
25.830000 -0.008050 0
25.835000 -0.002886 0
25.840000 0.002773 0
25.845000 0.009135 0
25.850000 0.016323 0
25.855000 0.024428 0
25.860000 0.033524 0
25.865000 0.043675 0
25.870000 0.054937 0
25.875000 0.067350 0
25.880000 0.080941 0
25.885000 0.095719 0
25.890000 0.111671 0
25.895000 0.128760 0
25.900000 0.146924 0
25.905000 0.166072 0
25.910000 0.186085 0
25.915000 0.206814 0
25.920000 0.228083 0
25.925000 0.249687 0
25.930000 0.271395 0
25.935000 0.292956 0
25.940000 0.314100 0
25.945000 0.334545 0
25.950000 0.354004 0
25.955000 0.372187 0
25.960000 0.388812 0
25.965000 0.403611 0
25.970000 0.416336 0
25.975000 0.426765 0
25.980000 0.434711 0
25.985000 0.440025 0
25.990000 0.442601 5
25.995000 0.442379 0
26.000000 0.439346 0
26.005000 0.433539 0
26.010000 0.425041 0
26.015000 0.413982 0
26.020000 0.400531 0
26.025000 0.384899 0
26.030000 0.367323 0
26.035000 0.348068 0
26.040000 0.327419 0
26.045000 0.305670 0
26.050000 0.283120 0
26.055000 0.260064 0
26.060000 0.236792 0
26.065000 0.213574 0
26.070000 0.190665 0
26.075000 0.168292 0
26.080000 0.146657 0
26.085000 0.125934 0
26.090000 0.106263 0
26.095000 0.087757 0
26.100000 0.070497 0
26.105000 0.054537 0
26.110000 0.039902 0
26.115000 0.026594 0
26.120000 0.014595 0
26.125000 0.003867 0
26.130000 -0.005643 0
26.135000 -0.013998 0
26.140000 -0.021273 0
26.145000 -0.027546 0
26.150000 -0.032901 0
26.155000 -0.037423 0
26.160000 -0.041194 0
26.165000 -0.044296 0
26.170000 -0.046807 0
26.175000 -0.048799 0
26.180000 -0.050341 0
26.185000 -0.051496 0
26.190000 -0.052318 0
26.195000 -0.052859 0
26.200000 -0.053164 0
26.205000 -0.053271 0
26.210000 -0.053214 0
26.215000 -0.053024 0
26.220000 -0.052724 0
26.225000 -0.052336 0
26.230000 -0.051877 0
26.235000 -0.051363 0
26.240000 -0.050804 0
26.245000 -0.050212 0
26.250000 -0.049594 0
26.255000 -0.048956 0
26.260000 -0.048305 0
26.265000 -0.047637 0
26.270000 -0.046937 0
26.275000 -0.046242 0
26.280000 -0.045549 0
26.285000 -0.044860 0
26.290000 -0.044175 0
26.295000 -0.043493 0
26.300000 -0.042814 0
26.305000 -0.042139 0
26.310000 -0.041467 0
26.315000 -0.040798 0
26.320000 -0.040133 0
26.325000 -0.039471 0
26.330000 -0.038812 0
26.335000 -0.038157 0
26.340000 -0.037505 0
26.345000 -0.036856 0
26.350000 -0.036210 0
26.355000 -0.035568 0
26.360000 -0.034929 0
26.365000 -0.034293 0
26.370000 -0.033660 0
26.375000 -0.033030 0
26.380000 -0.032404 0
26.385000 -0.031780 0
26.390000 -0.031160 0
26.395000 -0.030543 0
26.400000 -0.029929 0
26.405000 -0.029318 0
26.410000 -0.028709 0
26.415000 -0.028104 0
26.420000 -0.027501 0
26.425000 -0.026901 0
26.430000 -0.026303 0
26.435000 -0.025706 0
26.440000 -0.025110 0
26.445000 -0.024512 0
26.450000 -0.023911 0
26.455000 -0.023302 0
26.460000 -0.022679 0
26.465000 -0.022034 0
26.470000 -0.021353 0
26.475000 -0.020620 0
26.480000 -0.019808 0
26.485000 -0.018883 0
26.490000 -0.017798 0
26.495000 -0.016494 0
26.500000 -0.014891 0
26.505000 -0.012894 0
26.510000 -0.010381 0
26.515000 -0.007213 0
26.520000 -0.003227 0
26.525000 0.001759 0
26.530000 0.007937 0
26.535000 0.015506 0
26.540000 0.024654 0
26.545000 0.035548 0
26.550000 0.048310 0
26.555000 0.063004 0
26.560000 0.079613 0
26.565000 0.098020 0
26.570000 0.117999 0
26.575000 0.139202 0
26.580000 0.161165 0
26.585000 0.183314 0
26.590000 0.204985 0
26.595000 0.225456 0
26.600000 0.243986 0
26.605000 0.259853 0
26.610000 0.272405 0
26.615000 0.281102 0
26.620000 0.285550 1
26.625000 0.285538 0
26.630000 0.281045 0
26.635000 0.272249 0
26.640000 0.259510 0
26.645000 0.243347 0
26.650000 0.224403 0
26.655000 0.203399 0
26.660000 0.181094 0
26.665000 0.158232 0
26.670000 0.135509 0
26.675000 0.113535 0
26.680000 0.092813 0
26.685000 0.073718 0
26.690000 0.056488 0
26.695000 0.041200 0
26.700000 0.027721 0
26.705000 0.015627 0
26.710000 0.004062 0
26.715000 -0.008390 0
26.720000 -0.023702 0
26.725000 -0.044079 0
26.730000 -0.071137 0
26.735000 -0.104659 0
26.740000 -0.141344 0
26.745000 -0.174182 0
26.750000 -0.192940 2
26.755000 -0.185627 0
26.760000 -0.140357 0
26.765000 -0.047179 0
26.770000 0.099756 0
26.775000 0.298837 0
26.780000 0.536585 0
26.785000 0.784559 0
26.790000 1.001437 0
26.795000 1.142516 0
26.800000 1.174262 3
26.805000 1.087087 0
26.810000 0.899087 0
26.815000 0.648538 0
26.820000 0.380266 0
26.825000 0.132766 0
26.830000 -0.068509 0
26.835000 -0.211434 0
26.840000 -0.294299 0
26.845000 -0.322901 4
26.850000 -0.308527 0
26.855000 -0.265950 0
26.860000 -0.210635 0
26.865000 -0.155612 0
26.870000 -0.109252 0
26.875000 -0.074808 0
26.880000 -0.051604 0
26.885000 -0.036917 0
26.890000 -0.027638 0
26.895000 -0.021224 0
26.900000 -0.015971 0
26.905000 -0.010885 0
26.910000 -0.005441 0
26.915000 0.000629 0
26.920000 0.007477 0
26.925000 0.015204 0
26.930000 0.023889 0
26.935000 0.033600 0
26.940000 0.044397 0
26.945000 0.056326 0
26.950000 0.069421 0
26.955000 0.083700 0
26.960000 0.099157 0
26.965000 0.115769 0
26.970000 0.133485 0
26.975000 0.152227 0
26.980000 0.171889 0
26.985000 0.192338 0
26.990000 0.213409 0
26.995000 0.234910 0
27.000000 0.256624 0
27.005000 0.278309 0
27.010000 0.299704 0
27.015000 0.320535 0
27.020000 0.340515 0
27.025000 0.359356 0
27.030000 0.376774 0
27.035000 0.392494 0
27.040000 0.406258 0
27.045000 0.417831 0
27.050000 0.427012 0
27.055000 0.433632 0
27.060000 0.437565 0
27.065000 0.438728 5
27.070000 0.437085 0
27.075000 0.432650 0
27.080000 0.425483 0
27.085000 0.415689 0
27.090000 0.403420 0
27.095000 0.388866 0
27.100000 0.372249 0
27.105000 0.353822 0
27.110000 0.333859 0
27.115000 0.312649 0
27.120000 0.290488 0
27.125000 0.267674 0
27.130000 0.244498 0
27.135000 0.221241 0
27.140000 0.198164 0
27.145000 0.175508 0
27.150000 0.153489 0
27.155000 0.132293 0
27.160000 0.112078 0
27.165000 0.092971 0
27.170000 0.075069 0
27.175000 0.058439 0
27.180000 0.043122 0
27.185000 0.029131 0
27.190000 0.016459 0
27.195000 0.005077 0
27.200000 -0.005058 0
27.205000 -0.014006 0
27.210000 -0.021834 0
27.215000 -0.028619 0
27.220000 -0.034443 0
27.225000 -0.039388 0
27.230000 -0.043539 0
27.235000 -0.046979 0
27.240000 -0.049785 0
27.245000 -0.052035 0
27.250000 -0.053799 0
27.255000 -0.055141 0
27.260000 -0.056122 0
27.265000 -0.056794 0
27.270000 -0.057206 0
27.275000 -0.057400 0
27.280000 -0.057412 0
27.285000 -0.057274 0
27.290000 -0.057013 0
27.295000 -0.056652 0
27.300000 -0.056212 0
27.305000 -0.055708 0
27.310000 -0.055153 0
27.315000 -0.054560 0
27.320000 -0.053936 0
27.325000 -0.053289 0
27.330000 -0.052626 0
27.335000 -0.051950 0
27.340000 -0.051236 0
27.345000 -0.050518 0
27.350000 -0.049805 0
27.355000 -0.049094 0
27.360000 -0.048388 0
27.365000 -0.047685 0
27.370000 -0.046985 0
27.375000 -0.046289 0
27.380000 -0.045596 0
27.385000 -0.044907 0
27.390000 -0.044221 0
27.395000 -0.043539 0
27.400000 -0.042860 0
27.405000 -0.042185 0
27.410000 -0.041512 0
27.415000 -0.040844 0
27.420000 -0.040178 0
27.425000 -0.039516 0
27.430000 -0.038857 0
27.435000 -0.038201 0
27.440000 -0.037549 0
27.445000 -0.036900 0
27.450000 -0.036254 0
27.455000 -0.035612 0
27.460000 -0.034972 0
27.465000 -0.034336 0
27.470000 -0.033703 0
27.475000 -0.033073 0
27.480000 -0.032446 0
27.485000 -0.031822 0
27.490000 -0.031201 0
27.495000 -0.030583 0
27.500000 -0.029967 0
27.505000 -0.029353 0
27.510000 -0.028741 0
27.515000 -0.028128 0
27.520000 -0.027513 0
27.525000 -0.026894 0
27.530000 -0.026265 0
27.535000 -0.025620 0
27.540000 -0.024949 0
27.545000 -0.024238 0
27.550000 -0.023466 0
27.555000 -0.022606 0
27.560000 -0.021620 0
27.565000 -0.020456 0
27.570000 -0.019050 0
27.575000 -0.017318 0
27.580000 -0.015156 0
27.585000 -0.012439 0
27.590000 -0.009018 0
27.595000 -0.004726 0
27.600000 0.000622 0
27.605000 0.007221 0
27.610000 0.015267 0
27.615000 0.024944 0
27.620000 0.036404 0
27.625000 0.049756 0
27.630000 0.065040 0
27.635000 0.082211 0
27.640000 0.101123 0
27.645000 0.121513 0
27.650000 0.143003 0
27.655000 0.165095 0
27.660000 0.187190 0
27.665000 0.208607 0
27.670000 0.228617 0
27.675000 0.246481 0
27.680000 0.261497 0
27.685000 0.273041 0
27.690000 0.280613 0
27.695000 0.283867 1
27.700000 0.282645 0
27.705000 0.276979 0
27.710000 0.267097 0
27.715000 0.253404 0
27.720000 0.236452 0
27.725000 0.216908 0
27.730000 0.195505 0
27.735000 0.172997 0
27.740000 0.150119 0
27.745000 0.127543 0
27.750000 0.105854 0
27.755000 0.085520 0
27.760000 0.066884 0
27.765000 0.050144 0
27.770000 0.035331 0
27.775000 0.022253 0
27.780000 0.010396 0
27.785000 -0.001217 0
27.790000 -0.014137 0
27.795000 -0.030431 0
27.800000 -0.052252 0
27.805000 -0.080904 0
27.810000 -0.115561 0
27.815000 -0.152107 0
27.820000 -0.182747 0
27.825000 -0.196738 2
27.830000 -0.181996 0
27.835000 -0.126951 0
27.840000 -0.022370 0
27.845000 0.136293 0
27.850000 0.345265 0
27.855000 0.588077 0
27.860000 0.833267 0
27.865000 1.037932 0
27.870000 1.158595 0
27.875000 1.165915 3
27.880000 1.055214 0
27.885000 0.848842 0
27.890000 0.589640 0
27.895000 0.323738 0
27.900000 0.087922 0
27.905000 -0.095563 0
27.910000 -0.217885 0
27.915000 -0.280203 0
27.920000 -0.290852 4
27.925000 -0.263286 0
27.930000 -0.213601 0
27.935000 -0.157211 0
27.940000 -0.105707 0
27.945000 -0.065247 0
27.950000 -0.036983 0
27.955000 -0.018869 0
27.960000 -0.007682 0
27.965000 -0.000439 0
27.970000 0.005009 0
27.975000 0.009964 0
27.980000 0.015128 0
27.985000 0.020859 0
27.990000 0.027344 0
27.995000 0.034700 0
28.000000 0.043016 0
28.005000 0.052365 0
28.010000 0.062812 0
28.015000 0.074408 0
28.020000 0.087193 0
28.025000 0.101186 0
28.030000 0.116389 0
28.035000 0.132778 0
28.040000 0.150304 0
28.045000 0.168887 0
28.050000 0.188421 0
28.055000 0.208767 0
28.060000 0.229753 0
28.065000 0.251180 0
28.070000 0.272820 0
28.075000 0.294420 0
28.080000 0.315708 0
28.085000 0.336393 0
28.090000 0.356177 0
28.095000 0.374760 0
28.100000 0.391844 0
28.105000 0.407146 0
28.110000 0.420400 0
28.115000 0.431369 0
28.120000 0.439847 0
28.125000 0.445671 0
28.130000 0.448721 0
28.135000 0.448924 5
28.140000 0.446260 0
28.145000 0.440759 0
28.150000 0.432501 0
28.155000 0.421616 0
28.160000 0.408277 0
28.165000 0.392699 0
28.170000 0.375130 0
28.175000 0.355843 0
28.180000 0.335134 0
28.185000 0.313308 0
28.190000 0.290678 0
28.195000 0.267551 0
28.200000 0.244224 0
28.205000 0.220979 0
28.210000 0.198078 0
28.215000 0.175753 0
28.220000 0.154210 0
28.225000 0.133624 0
28.230000 0.114135 0
28.235000 0.095855 0
28.240000 0.078859 0
28.245000 0.063197 0
28.250000 0.048888 0
28.255000 0.035928 0
28.260000 0.024291 0
28.265000 0.013933 0
28.270000 0.004795 0
28.275000 -0.003195 0
28.280000 -0.010115 0
28.285000 -0.016050 0
28.290000 -0.021087 0
28.295000 -0.025313 0
28.300000 -0.028814 0
28.305000 -0.031673 0
28.310000 -0.033969 0
28.315000 -0.035775 0
28.320000 -0.037157 0
28.325000 -0.038178 0
28.330000 -0.038892 0
28.335000 -0.039347 0
28.340000 -0.039587 0
28.345000 -0.039649 0
28.350000 -0.039565 0
28.355000 -0.039362 0
28.360000 -0.039062 0
