0.000000 1.110823 3
0.005000 1.052039 0
0.010000 0.900761 0
0.015000 0.683892 0
0.020000 0.436584 0
0.025000 0.192640 0
0.030000 -0.022108 0
0.035000 -0.192015 0
0.040000 -0.310535 0
0.045000 -0.378038 0
0.050000 -0.400000 4
0.055000 -0.385729 0
0.060000 -0.346997 0
0.065000 -0.296142 0
0.070000 -0.243925 0
0.075000 -0.197877 0
0.080000 -0.161718 0
0.085000 -0.135890 0
0.090000 -0.118765 0
0.095000 -0.107902 0
0.100000 -0.100963 0
0.105000 -0.096153 0
0.110000 -0.092287 0
0.115000 -0.088667 0
0.120000 -0.084914 0
0.125000 -0.080825 0
0.130000 -0.076282 0
0.135000 -0.071207 0
0.140000 -0.065530 0
0.145000 -0.059192 0
0.150000 -0.052130 0
0.155000 -0.044288 0
0.160000 -0.035609 0
0.165000 -0.026043 0
0.170000 -0.015546 0
0.175000 -0.004080 0
0.180000 0.008379 0
0.185000 0.021845 0
0.190000 0.036318 0
0.195000 0.051781 0
0.200000 0.068201 0
0.205000 0.085523 0
0.210000 0.103674 0
0.215000 0.122559 0
0.220000 0.142063 0
0.225000 0.162048 0
0.230000 0.182357 0
0.235000 0.202815 0
0.240000 0.223230 0
0.245000 0.243395 0
0.250000 0.263093 0
0.255000 0.282100 0
0.260000 0.300187 0
0.265000 0.317128 0
0.270000 0.332703 0
0.275000 0.346701 0
0.280000 0.358928 0
0.285000 0.369207 0
0.290000 0.377387 0
0.295000 0.383343 0
0.300000 0.386982 0
0.305000 0.388240 5
0.310000 0.387092 0
0.315000 0.383544 0
0.320000 0.377640 0
0.325000 0.369457 0
0.330000 0.359103 0
0.335000 0.346717 0
0.340000 0.332466 0
0.345000 0.316538 0
0.350000 0.299139 0
0.355000 0.280492 0
0.360000 0.260827 0
0.365000 0.240380 0
0.370000 0.219386 0
0.375000 0.198076 0
0.380000 0.176672 0
0.385000 0.155385 0
0.390000 0.134410 0
0.395000 0.113923 0
0.400000 0.094081 0
0.405000 0.075021 0
0.410000 0.056855 0
0.415000 0.039675 0
0.420000 0.023551 0
0.425000 0.008530 0
0.430000 -0.005358 0
0.435000 -0.018105 0
0.440000 -0.029716 0
0.445000 -0.040212 0
0.450000 -0.049628 0
0.455000 -0.058007 0
0.460000 -0.065401 0
0.465000 -0.071869 0
0.470000 -0.077474 0
0.475000 -0.082281 0
0.480000 -0.086357 0
0.485000 -0.089769 0
0.490000 -0.092582 0
0.495000 -0.094858 0
0.500000 -0.096657 0
0.505000 -0.098036 0
0.510000 -0.099046 0
0.515000 -0.099736 0
0.520000 -0.100149 0
0.525000 -0.100324 0
0.530000 -0.100298 0
0.535000 -0.100101 0
0.540000 -0.099760 0
0.545000 -0.099300 0
0.550000 -0.098741 0
0.555000 -0.098101 0
0.560000 -0.097395 0
0.565000 -0.096636 0
0.570000 -0.095835 0
0.575000 -0.095000 0
0.580000 -0.094139 0
0.585000 -0.093259 0
0.590000 -0.092364 0
0.595000 -0.091458 0
0.600000 -0.090544 0
0.605000 -0.089626 0
0.610000 -0.088705 0
0.615000 -0.087783 0
0.620000 -0.086851 0
0.625000 -0.085920 0
0.630000 -0.084995 0
0.635000 -0.084073 0
0.640000 -0.083157 0
0.645000 -0.082245 0
0.650000 -0.081338 0
0.655000 -0.080435 0
0.660000 -0.079537 0
0.665000 -0.078643 0
0.670000 -0.077753 0
0.675000 -0.076868 0
0.680000 -0.075988 0
0.685000 -0.075112 0
0.690000 -0.074240 0
0.695000 -0.073372 0
0.700000 -0.072509 0
0.705000 -0.071651 0
0.710000 -0.070796 0
0.715000 -0.069946 0
0.720000 -0.069100 0
0.725000 -0.068258 0
0.730000 -0.067420 0
0.735000 -0.066587 0
0.740000 -0.065758 0
0.745000 -0.064933 0
0.750000 -0.064112 0
0.755000 -0.063295 0
0.760000 -0.062482 0
0.765000 -0.061673 0
0.770000 -0.060868 0
0.775000 -0.060068 0
0.780000 -0.059271 0
0.785000 -0.058478 0
0.790000 -0.057689 0
0.795000 -0.056904 0
0.800000 -0.056123 0
0.805000 -0.055346 0
0.810000 -0.054572 0
0.815000 -0.053802 0
0.820000 -0.053036 0
0.825000 -0.052272 0
0.830000 -0.051511 0
0.835000 -0.050752 0
0.840000 -0.049993 0
0.845000 -0.049234 0
0.850000 -0.048471 0
0.855000 -0.047701 0
0.860000 -0.046917 0
0.865000 -0.046113 0
0.870000 -0.045278 0
0.875000 -0.044397 0
0.880000 -0.043448 0
0.885000 -0.042405 0
0.890000 -0.041233 0
0.895000 -0.039886 0
0.900000 -0.038305 0
0.905000 -0.036419 0
0.910000 -0.034141 0
0.915000 -0.031369 0
0.920000 -0.027984 0
0.925000 -0.023852 0
0.930000 -0.018827 0
0.935000 -0.012756 0
0.940000 -0.005484 0
0.945000 0.003138 0
0.950000 0.013240 0
0.955000 0.024925 0
0.960000 0.038252 0
0.965000 0.053225 0
0.970000 0.069781 0
0.975000 0.087781 0
0.980000 0.106998 0
0.985000 0.127121 0
0.990000 0.147752 0
0.995000 0.168420 0
1.000000 0.188591 0
1.005000 0.207695 0
1.010000 0.225145 0
1.015000 0.240371 0
1.020000 0.252851 0
1.025000 0.262135 0
1.030000 0.267878 0
1.035000 0.269855 1
1.040000 0.267982 0
1.045000 0.262316 0
1.050000 0.253054 0
1.055000 0.240521 0
1.060000 0.225153 0
1.065000 0.207467 0
1.070000 0.188038 0
1.075000 0.167463 0
1.080000 0.146332 0
1.085000 0.125203 0
1.090000 0.104578 0
1.095000 0.084883 0
1.100000 0.066461 0
1.105000 0.049560 0
1.110000 0.034337 0
1.115000 0.020845 0
1.120000 0.009029 0
1.125000 -0.001316 0
1.130000 -0.010605 0
1.135000 -0.019554 0
1.140000 -0.029272 0
1.145000 -0.041273 0
1.150000 -0.057307 0
1.155000 -0.078888 0
1.160000 -0.106529 0
1.165000 -0.138849 0
1.170000 -0.171903 0
1.175000 -0.199075 0
1.180000 -0.211700 2
1.185000 -0.200184 0
1.190000 -0.155258 0
1.195000 -0.069195 0
1.200000 0.062735 0
1.205000 0.240042 0
1.210000 0.454056 0
1.215000 0.685442 0
1.220000 0.904406 0
1.225000 1.075380 0
1.230000 1.165885 3
1.235000 1.154801 0
1.240000 1.039658 0
1.245000 0.843035 0
1.250000 0.601347 0
1.255000 0.353137 0
1.260000 0.129610 0
1.265000 -0.049497 0
1.270000 -0.175343 0
1.275000 -0.247444 0
1.280000 -0.271396 4
1.285000 -0.257295 0
1.290000 -0.218077 0
1.295000 -0.167232 0
1.300000 -0.116235 0
1.305000 -0.072687 0
1.310000 -0.039848 0
1.315000 -0.017493 0
1.320000 -0.003437 0
1.325000 0.005038 0
1.330000 0.010286 0
1.335000 0.013970 0
1.340000 0.017102 0
1.345000 0.020236 0
1.350000 0.023660 0
1.355000 0.027528 0
1.360000 0.031938 0
1.365000 0.036966 0
1.370000 0.042680 0
1.375000 0.049148 0
1.380000 0.056435 0
1.385000 0.064601 0
1.390000 0.073702 0
1.395000 0.083788 0
1.400000 0.094897 0
1.405000 0.107056 0
1.410000 0.120278 0
1.415000 0.134559 0
1.420000 0.149875 0
1.425000 0.166182 0
1.430000 0.183414 0
1.435000 0.201480 0
1.440000 0.220264 0
1.445000 0.239628 0
1.450000 0.259407 0
1.455000 0.279418 0
1.460000 0.299454 0
1.465000 0.319292 0
1.470000 0.338696 0
1.475000 0.357420 0
1.480000 0.375213 0
1.485000 0.391827 0
1.490000 0.407018 0
1.495000 0.420554 0
1.500000 0.432223 0
1.505000 0.441832 0
1.510000 0.449219 0
1.515000 0.454252 0
1.520000 0.456837 0
1.525000 0.456916 5
1.530000 0.454471 0
1.535000 0.449526 0
1.540000 0.442145 0
1.545000 0.432428 0
1.550000 0.420514 0
1.555000 0.406572 0
1.560000 0.390801 0
1.565000 0.373422 0
1.570000 0.354675 0
1.575000 0.334811 0
1.580000 0.314088 0
1.585000 0.292765 0
1.590000 0.271096 0
1.595000 0.249327 0
1.600000 0.227687 0
1.605000 0.206390 0
1.610000 0.185628 0
1.615000 0.165569 0
1.620000 0.146358 0
1.625000 0.128112 0
1.630000 0.110926 0
1.635000 0.094866 0
1.640000 0.079978 0
1.645000 0.066282 0
1.650000 0.053781 0
1.655000 0.042458 0
1.660000 0.032282 0
1.665000 0.023209 0
1.670000 0.015184 0
1.675000 0.008143 0
1.680000 0.002020 0
1.685000 -0.003257 0
1.690000 -0.007762 0
1.695000 -0.011567 0
1.700000 -0.014744 0
1.705000 -0.017362 0
1.710000 -0.019486 0
1.715000 -0.021176 0
1.720000 -0.022490 0
1.725000 -0.023478 0
1.730000 -0.024188 0
1.735000 -0.024662 0
1.740000 -0.024935 0
1.745000 -0.025041 0
1.750000 -0.025008 0
1.755000 -0.024859 0
1.760000 -0.024617 0
1.765000 -0.024299 0
1.770000 -0.023918 0
1.775000 -0.023489 0
1.780000 -0.023021 0
1.785000 -0.022523 0
1.790000 -0.022002 0
1.795000 -0.021462 0
1.800000 -0.020910 0
1.805000 -0.020347 0
1.810000 -0.019778 0
1.815000 -0.019205 0
1.820000 -0.018628 0
1.825000 -0.018041 0
1.830000 -0.017454 0
1.835000 -0.016869 0
1.840000 -0.016288 0
1.845000 -0.015710 0
1.850000 -0.015134 0
1.855000 -0.014561 0
1.860000 -0.013992 0
1.865000 -0.013425 0
1.870000 -0.012861 0
1.875000 -0.012299 0
1.880000 -0.011741 0
1.885000 -0.011185 0
1.890000 -0.010632 0
1.895000 -0.010082 0
1.900000 -0.009535 0
1.905000 -0.008990 0
1.910000 -0.008448 0
1.915000 -0.007909 0
1.920000 -0.007372 0
1.925000 -0.006838 0
1.930000 -0.006307 0
1.935000 -0.005778 0
1.940000 -0.005252 0
1.945000 -0.004729 0
1.950000 -0.004208 0
1.955000 -0.003690 0
1.960000 -0.003174 0
1.965000 -0.002661 0
1.970000 -0.002151 0
1.975000 -0.001643 0
1.980000 -0.001138 0
1.985000 -0.000635 0
1.990000 -0.000134 0
1.995000 0.000363 0
2.000000 0.000859 0
2.005000 0.001352 0
2.010000 0.001843 0
2.015000 0.002333 0
2.020000 0.002820 0
2.025000 0.003307 0
2.030000 0.003793 0
2.035000 0.004281 0
2.040000 0.004772 0
2.045000 0.005269 0
2.050000 0.005778 0
2.055000 0.006306 0
2.060000 0.006862 0
2.065000 0.007461 0
2.070000 0.008122 0
2.075000 0.008873 0
2.080000 0.009751 0
2.085000 0.010801 0
2.090000 0.012084 0
2.095000 0.013678 0
2.100000 0.015675 0
2.105000 0.018188 0
2.110000 0.021346 0
2.115000 0.025296 0
2.120000 0.030202 0
2.125000 0.036231 0
2.130000 0.043554 0
2.135000 0.052331 0
2.140000 0.062699 0
2.145000 0.074757 0
2.150000 0.088550 0
2.155000 0.104053 0
2.160000 0.121160 0
2.165000 0.139670 0
2.170000 0.159280 0
2.175000 0.179590 0
2.180000 0.200109 0
2.185000 0.220267 0
2.190000 0.239446 0
2.195000 0.257001 0
2.200000 0.272302 0
2.205000 0.284765 0
2.210000 0.293893 0
2.215000 0.299304 0
2.220000 0.300759 1
2.225000 0.298178 0
2.230000 0.291645 0
2.235000 0.281404 0
2.240000 0.267844 0
2.245000 0.251471 0
2.250000 0.232879 0
2.255000 0.212711 0
2.260000 0.191625 0
2.265000 0.170255 0
2.270000 0.149183 0
2.275000 0.128916 0
2.280000 0.109865 0
2.285000 0.092338 0
2.290000 0.076535 0
2.295000 0.062542 0
2.300000 0.050319 0
2.305000 0.039666 0
2.310000 0.030148 0
2.315000 0.020988 0
2.320000 0.010958 0
2.325000 -0.001633 0
2.330000 -0.018704 0
2.335000 -0.041794 0
2.340000 -0.071094 0
2.345000 -0.104397 0
2.350000 -0.136432 0
2.355000 -0.159016 0
2.360000 -0.162051 2
2.365000 -0.134997 0
2.370000 -0.068356 0
2.375000 0.044776 0
2.380000 0.206485 0
2.385000 0.410742 0
2.390000 0.639991 0
2.395000 0.864161 0
2.400000 1.044885 0
2.405000 1.145302 3
2.410000 1.142101 0
2.415000 1.033837 0
2.420000 0.841531 0
2.425000 0.601467 0
2.430000 0.352816 0
2.435000 0.127690 0
2.440000 -0.053382 0
2.445000 -0.181052 0
2.450000 -0.254577 0
2.455000 -0.279468 4
2.460000 -0.265853 0
2.465000 -0.226789 0
2.470000 -0.175930 0
2.475000 -0.124900 0
2.480000 -0.081384 0
2.485000 -0.048650 0
2.490000 -0.026434 0
2.495000 -0.012507 0
2.500000 -0.004119 0
2.505000 0.001092 0
2.510000 0.004782 0
2.515000 0.007951 0
2.520000 0.011142 0
2.525000 0.014636 0
2.530000 0.018585 0
2.535000 0.023084 0
2.540000 0.028210 0
2.545000 0.034032 0
2.550000 0.040618 0
2.555000 0.048034 0
2.560000 0.056340 0
2.565000 0.065593 0
2.570000 0.075840 0
2.575000 0.087122 0
2.580000 0.099462 0
2.585000 0.112872 0
2.590000 0.127345 0
2.595000 0.142856 0
2.600000 0.159355 0
2.605000 0.176771 0
2.610000 0.195010 0
2.615000 0.213951 0
2.620000 0.233448 0
2.625000 0.253332 0
2.630000 0.273413 0
2.635000 0.293477 0
2.640000 0.313297 0
2.645000 0.332632 0
2.650000 0.351231 0
2.655000 0.368840 0
2.660000 0.385208 0
2.665000 0.400091 0
2.670000 0.413258 0
2.675000 0.424498 0
2.680000 0.433623 0
2.685000 0.440477 0
2.690000 0.444936 0
2.695000 0.446912 5
2.700000 0.446358 0
2.705000 0.443268 0
2.710000 0.437676 0
2.715000 0.429658 0
2.720000 0.419327 0
2.725000 0.406832 0
2.730000 0.392355 0
2.735000 0.376104 0
2.740000 0.358309 0
2.745000 0.339217 0
2.750000 0.319085 0
2.755000 0.298175 0
2.760000 0.276749 0
2.765000 0.255061 0
2.770000 0.233353 0
2.775000 0.211854 0
2.780000 0.190772 0
2.785000 0.170293 0
2.790000 0.150577 0
2.795000 0.131762 0
2.800000 0.113957 0
2.805000 0.097247 0
2.810000 0.081690 0
2.815000 0.067321 0
2.820000 0.054155 0
2.825000 0.042186 0
2.830000 0.031390 0
2.835000 0.021730 0
2.840000 0.013155 0
2.845000 0.005607 0
2.850000 -0.000980 0
2.855000 -0.006677 0
2.860000 -0.011558 0
2.865000 -0.015696 0
2.870000 -0.019164 0
2.875000 -0.022034 0
2.880000 -0.024374 0
2.885000 -0.026248 0
2.890000 -0.027715 0
2.895000 -0.028829 0
2.900000 -0.029642 0
2.905000 -0.030196 0
2.910000 -0.030532 0
2.915000 -0.030684 0
2.920000 -0.030684 0
2.925000 -0.030558 0
2.930000 -0.030328 0
2.935000 -0.030014 0
2.940000 -0.029632 0
2.945000 -0.029195 0
2.950000 -0.028715 0
2.955000 -0.028201 0
2.960000 -0.027661 0
2.965000 -0.027102 0
2.970000 -0.026527 0
2.975000 -0.025941 0
2.980000 -0.025348 0
2.985000 -0.024749 0
2.990000 -0.024147 0
2.995000 -0.023532 0
3.000000 -0.022918 0
3.005000 -0.022306 0
3.010000 -0.021698 0
3.015000 -0.021092 0
3.020000 -0.020490 0
3.025000 -0.019891 0
3.030000 -0.019294 0
3.035000 -0.018701 0
3.040000 -0.018110 0
3.045000 -0.017523 0
3.050000 -0.016938 0
3.055000 -0.016357 0
3.060000 -0.015778 0
3.065000 -0.015202 0
3.070000 -0.014629 0
3.075000 -0.014059 0
3.080000 -0.013492 0
3.085000 -0.012927 0
3.090000 -0.012366 0
3.095000 -0.011807 0
3.100000 -0.011251 0
3.105000 -0.010698 0
3.110000 -0.010147 0
3.115000 -0.009599 0
3.120000 -0.009054 0
3.125000 -0.008512 0
3.130000 -0.007972 0
3.135000 -0.007435 0
3.140000 -0.006901 0
3.145000 -0.006370 0
3.150000 -0.005841 0
3.155000 -0.005314 0
3.160000 -0.004791 0
3.165000 -0.004269 0
3.170000 -0.003751 0
3.175000 -0.003235 0
3.180000 -0.002721 0
3.185000 -0.002209 0
3.190000 -0.001699 0
3.195000 -0.001190 0
3.200000 -0.000682 0
3.205000 -0.000172 0
3.210000 0.000340 0
3.215000 0.000859 0
3.220000 0.001388 0
3.225000 0.001935 0
3.230000 0.002509 0
3.235000 0.003125 0
3.240000 0.003802 0
3.245000 0.004566 0
3.250000 0.005454 0
3.255000 0.006512 0
3.260000 0.007801 0
3.265000 0.009398 0
3.270000 0.011394 0
3.275000 0.013904 0
3.280000 0.017057 0
3.285000 0.021004 0
3.290000 0.025905 0
3.295000 0.031934 0
3.300000 0.039263 0
3.305000 0.048053 0
3.310000 0.058443 0
3.315000 0.070534 0
3.320000 0.084370 0
3.325000 0.099927 0
3.330000 0.117094 0
3.335000 0.135664 0
3.340000 0.155331 0
3.345000 0.175684 0
3.350000 0.196223 0
3.355000 0.216369 0
3.360000 0.235493 0
3.365000 0.252944 0
3.370000 0.268084 0
3.375000 0.280329 0
3.380000 0.289183 0
3.385000 0.294271 0
3.390000 0.295365 1
3.395000 0.292400 0
3.400000 0.285478 0
3.405000 0.274862 0
3.410000 0.260961 0
3.415000 0.244299 0
3.420000 0.225486 0
3.425000 0.205176 0
3.430000 0.184033 0
3.435000 0.162695 0
3.440000 0.141739 0
3.445000 0.121664 0
3.450000 0.102871 0
3.455000 0.085652 0
3.460000 0.070189 0
3.465000 0.056551 0
3.470000 0.044668 0
3.475000 0.034300 0
3.480000 0.024948 0
3.485000 0.015739 0
3.490000 0.005328 0
3.495000 -0.008077 0
3.500000 -0.026401 0
3.505000 -0.050983 0
3.510000 -0.081539 0
3.515000 -0.115125 0
3.520000 -0.145634 0
3.525000 -0.164174 2
3.530000 -0.160267 0
3.535000 -0.123380 0
3.540000 -0.044442 0
3.545000 0.082456 0
3.550000 0.257487 0
3.555000 0.471494 0
3.560000 0.702905 0
3.565000 0.918053 0
3.570000 1.077334 0
3.575000 1.146473 3
3.580000 1.109561 0
3.585000 0.974683 0
3.590000 0.766868 0
3.595000 0.521826 0
3.600000 0.275435 0
3.605000 0.055918 0
3.610000 -0.119203 0
3.615000 -0.242261 0
3.620000 -0.313122 0
3.625000 -0.337178 4
3.630000 -0.323948 0
3.635000 -0.285612 0
3.640000 -0.234979 0
3.645000 -0.183181 0
3.650000 -0.137905 0
3.655000 -0.102809 0
3.660000 -0.078159 0
3.665000 -0.062136 0
3.670000 -0.052185 0
3.675000 -0.045936 0
3.680000 -0.041624 0
3.685000 -0.038113 0
3.690000 -0.034755 0
3.695000 -0.031203 0
3.700000 -0.027273 0
3.705000 -0.022856 0
3.710000 -0.017874 0
3.715000 -0.012259 0
3.720000 -0.005948 0
3.725000 0.001123 0
3.730000 0.009012 0
3.735000 0.017775 0
3.740000 0.027464 0
3.745000 0.038121 0
3.750000 0.049780 0
3.755000 0.062461 0
3.760000 0.076174 0
3.765000 0.090909 0
3.770000 0.106642 0
3.775000 0.123325 0
3.780000 0.140892 0
3.785000 0.159255 0
3.790000 0.178303 0
3.795000 0.197902 0
3.800000 0.217897 0
3.805000 0.238112 0
3.810000 0.258353 0
3.815000 0.278411 0
3.820000 0.298062 0
3.825000 0.317075 0
3.830000 0.335214 0
3.835000 0.352243 0
3.840000 0.367930 0
3.845000 0.382054 0
3.850000 0.394409 0
3.855000 0.404808 0
3.860000 0.413090 0
3.865000 0.419121 0
3.870000 0.422799 0
3.875000 0.424057 5
3.880000 0.422863 0
3.885000 0.419222 0
3.890000 0.413179 0
3.895000 0.404812 0
3.900000 0.394233 0
3.905000 0.381589 0
3.910000 0.367052 0
3.915000 0.350820 0
3.920000 0.333108 0
3.925000 0.314147 0
3.930000 0.294179 0
3.935000 0.273448 0
3.940000 0.252198 0
3.945000 0.230669 0
3.950000 0.209087 0
3.955000 0.187670 0
3.960000 0.166616 0
3.965000 0.146102 0
3.970000 0.126287 0
3.975000 0.107305 0
3.980000 0.089266 0
3.985000 0.072258 0
3.990000 0.056346 0
3.995000 0.041571 0
4.000000 0.027956 0
4.005000 0.015504 0
4.010000 0.004202 0
4.015000 -0.005979 0
4.020000 -0.015078 0
4.025000 -0.023145 0
4.030000 -0.030239 0
4.035000 -0.036422 0
4.040000 -0.041762 0
4.045000 -0.046327 0
4.050000 -0.050187 0
4.055000 -0.053410 0
4.060000 -0.056062 0
4.065000 -0.058206 0
4.070000 -0.059902 0
4.075000 -0.061206 0
4.080000 -0.062169 0
4.085000 -0.062837 0
4.090000 -0.063253 0
4.095000 -0.063453 0
4.100000 -0.063473 0
4.105000 -0.063339 0
4.110000 -0.063079 0
4.115000 -0.062715 0
4.120000 -0.062264 0
4.125000 -0.061744 0
4.130000 -0.061167 0
4.135000 -0.060545 0
4.140000 -0.059888 0
4.145000 -0.059203 0
4.150000 -0.058497 0
4.155000 -0.057775 0
4.160000 -0.057041 0
4.165000 -0.056299 0
4.170000 -0.055551 0
4.175000 -0.054799 0
4.180000 -0.054046 0
4.185000 -0.053282 0
4.190000 -0.052519 0
4.195000 -0.051760 0
4.200000 -0.051005 0
4.205000 -0.050253 0
4.210000 -0.049505 0
4.215000 -0.048761 0
4.220000 -0.048021 0
4.225000 -0.047284 0
4.230000 -0.046551 0
4.235000 -0.045822 0
4.240000 -0.045096 0
4.245000 -0.044374 0
4.250000 -0.043656 0
4.255000 -0.042941 0
4.260000 -0.042229 0
4.265000 -0.041522 0
4.270000 -0.040817 0
4.275000 -0.040117 0
4.280000 -0.039419 0
4.285000 -0.038726 0
4.290000 -0.038035 0
4.295000 -0.037348 0
4.300000 -0.036665 0
4.305000 -0.035985 0
4.310000 -0.035308 0
4.315000 -0.034635 0
4.320000 -0.033965 0
4.325000 -0.033299 0
4.330000 -0.032635 0
4.335000 -0.031975 0
4.340000 -0.031319 0
4.345000 -0.030665 0
4.350000 -0.030015 0
4.355000 -0.029368 0
4.360000 -0.028725 0
4.365000 -0.028084 0
4.370000 -0.027446 0
4.375000 -0.026812 0
4.380000 -0.026180 0
4.385000 -0.025550 0
4.390000 -0.024923 0
4.395000 -0.024296 0
4.400000 -0.023670 0
4.405000 -0.023042 0
4.410000 -0.022410 0
4.415000 -0.021769 0
4.420000 -0.021114 0
4.425000 -0.020437 0
4.430000 -0.019727 0
4.435000 -0.018967 0
4.440000 -0.018136 0
4.445000 -0.017204 0
4.450000 -0.016133 0
4.455000 -0.014874 0
4.460000 -0.013364 0
4.465000 -0.011526 0
4.470000 -0.009266 0
4.475000 -0.006474 0
4.480000 -0.003022 0
4.485000 0.001232 0
4.490000 0.006444 0
4.495000 0.012773 0
4.500000 0.020380 0
4.505000 0.029414 0
4.510000 0.040001 0
4.515000 0.052233 0
4.520000 0.066150 0
4.525000 0.081728 0
4.530000 0.098868 0
4.535000 0.117384 0
4.540000 0.136998 0
4.545000 0.157341 0
4.550000 0.177958 0
4.555000 0.198323 0
4.560000 0.217857 0
4.565000 0.235955 0
4.570000 0.252012 0
4.575000 0.265464 0
4.580000 0.275812 0
4.585000 0.282656 0
4.590000 0.285721 1
4.595000 0.284873 0
4.600000 0.280128 0
4.605000 0.271652 0
4.610000 0.259752 0
4.615000 0.244856 0
4.620000 0.227487 0
4.625000 0.208230 0
4.630000 0.187705 0
4.635000 0.166528 0
4.640000 0.145285 0
4.645000 0.124504 0
4.650000 0.104636 0
4.655000 0.086044 0
4.660000 0.068993 0
4.665000 0.053646 0
4.670000 0.040065 0
4.675000 0.028188 0
4.680000 0.017799 0
4.685000 0.008455 0
4.690000 -0.000609 0
4.695000 -0.010583 0
4.700000 -0.023077 0
4.705000 -0.039909 0
4.710000 -0.062557 0
4.715000 -0.091299 0
4.720000 -0.124262 0
4.725000 -0.156785 0
4.730000 -0.181458 0
4.735000 -0.188938 2
4.740000 -0.169224 0
4.745000 -0.113001 0
4.750000 -0.012976 0
4.755000 0.134353 0
4.760000 0.325994 0
4.765000 0.549233 0
4.770000 0.779705 0
4.775000 0.983281 0
4.780000 1.123090 0
4.785000 1.170069 3
4.790000 1.113505 0
4.795000 0.964479 0
4.800000 0.749160 0
4.805000 0.502147 0
4.810000 0.257058 0
4.815000 0.039884 0
4.820000 -0.133368 0
4.825000 -0.255738 0
4.830000 -0.327189 0
4.835000 -0.352797 4
4.840000 -0.341495 0
4.845000 -0.304764 0
4.850000 -0.254827 0
4.855000 -0.202561 0
4.860000 -0.155791 0
4.865000 -0.118605 0
4.870000 -0.091773 0
4.875000 -0.073866 0
4.880000 -0.062519 0
4.885000 -0.055372 0
4.890000 -0.050564 0
4.895000 -0.046837 0
4.900000 -0.043439 0
4.905000 -0.039955 0
4.910000 -0.036163 0
4.915000 -0.031937 0
4.920000 -0.027192 0
4.925000 -0.021863 0
4.930000 -0.015887 0
4.935000 -0.009203 0
4.940000 -0.001755 0
4.945000 0.006514 0
4.950000 0.015654 0
4.955000 0.025712 0
4.960000 0.036724 0
4.965000 0.048719 0
4.970000 0.061713 0
4.975000 0.075711 0
4.980000 0.090699 0
4.985000 0.106648 0
4.990000 0.123512 0
4.995000 0.141222 0
5.000000 0.159692 0
5.005000 0.178812 0
5.010000 0.198454 0
5.015000 0.218469 0
5.020000 0.238688 0
5.025000 0.258928 0
5.030000 0.278987 0
5.035000 0.298655 0
5.040000 0.317711 0
5.045000 0.335933 0
5.050000 0.353095 0
5.055000 0.368976 0
5.060000 0.383366 0
5.065000 0.396065 0
5.070000 0.406892 0
5.075000 0.415689 0
5.080000 0.422321 0
5.085000 0.426684 0
5.090000 0.428704 5
5.095000 0.428339 0
5.100000 0.425584 0
5.105000 0.420467 0
5.110000 0.413049 0
5.115000 0.403425 0
5.120000 0.391719 0
5.125000 0.378085 0
5.130000 0.362698 0
5.135000 0.345757 0
5.140000 0.327472 0
5.145000 0.308069 0
5.150000 0.287779 0
5.155000 0.266835 0
5.160000 0.245466 0
5.165000 0.223899 0
5.170000 0.202346 0
5.175000 0.181008 0
5.180000 0.160069 0
5.185000 0.139694 0
5.190000 0.120029 0
5.195000 0.101197 0
5.200000 0.083301 0
5.205000 0.066419 0
5.210000 0.050612 0
5.215000 0.035917 0
5.220000 0.022356 0
5.225000 0.009929 0
5.230000 -0.001375 0
5.235000 -0.011583 0
5.240000 -0.020733 0
5.245000 -0.028871 0
5.250000 -0.036053 0
5.255000 -0.042337 0
5.260000 -0.047787 0
5.265000 -0.052469 0
5.270000 -0.056449 0
5.275000 -0.059791 0
5.280000 -0.062560 0
5.285000 -0.064816 0
5.290000 -0.066617 0
5.295000 -0.068018 0
5.300000 -0.069068 0
5.305000 -0.069814 0
5.310000 -0.070297 0
5.315000 -0.070556 0
5.320000 -0.070622 0
5.325000 -0.070527 0
5.330000 -0.070296 0
5.335000 -0.069952 0
5.340000 -0.069514 0
5.345000 -0.068999 0
5.350000 -0.068422 0
5.355000 -0.067795 0
5.360000 -0.067127 0
5.365000 -0.066427 0
5.370000 -0.065702 0
5.375000 -0.064959 0
5.380000 -0.064201 0
5.385000 -0.063432 0
5.390000 -0.062656 0
5.395000 -0.061875 0
5.400000 -0.061092 0
5.405000 -0.060306 0
5.410000 -0.059511 0
5.415000 -0.058717 0
5.420000 -0.057927 0
5.425000 -0.057141 0
5.430000 -0.056359 0
5.435000 -0.055580 0
5.440000 -0.054806 0
5.445000 -0.054036 0
5.450000 -0.053269 0
5.455000 -0.052506 0
5.460000 -0.051747 0
5.465000 -0.050992 0
5.470000 -0.050240 0
5.475000 -0.049493 0
5.480000 -0.048749 0
5.485000 -0.048008 0
5.490000 -0.047272 0
5.495000 -0.046539 0
5.500000 -0.045809 0
5.505000 -0.045084 0
5.510000 -0.044362 0
5.515000 -0.043643 0
5.520000 -0.042929 0
5.525000 -0.042217 0
5.530000 -0.041510 0
5.535000 -0.040805 0
5.540000 -0.040105 0
5.545000 -0.039408 0
5.550000 -0.038714 0
5.555000 -0.038024 0
5.560000 -0.037337 0
5.565000 -0.036653 0
5.570000 -0.035973 0
5.575000 -0.035297 0
5.580000 -0.034624 0
5.585000 -0.033954 0
5.590000 -0.033287 0
5.595000 -0.032624 0
5.600000 -0.031963 0
5.605000 -0.031306 0
5.610000 -0.030652 0
5.615000 -0.030000 0
5.620000 -0.029350 0
5.625000 -0.028702 0
5.630000 -0.028054 0
5.635000 -0.027404 0
5.640000 -0.026751 0
5.645000 -0.026090 0
5.650000 -0.025417 0
5.655000 -0.024723 0
5.660000 -0.024000 0
5.665000 -0.023232 0
5.670000 -0.022400 0
5.675000 -0.021478 0
5.680000 -0.020433 0
5.685000 -0.019220 0
5.690000 -0.017785 0
5.695000 -0.016059 0
5.700000 -0.013959 0
5.705000 -0.011387 0
5.710000 -0.008227 0
5.715000 -0.004351 0
5.720000 0.000383 0
5.725000 0.006127 0
5.730000 0.013033 0
5.735000 0.021250 0
5.740000 0.030912 0
5.745000 0.042126 0
5.750000 0.054964 0
5.755000 0.069442 0
5.760000 0.085515 0
5.765000 0.103066 0
5.770000 0.121892 0
5.775000 0.141709 0
5.780000 0.162145 0
5.785000 0.182753 0
5.790000 0.203023 0
5.795000 0.222398 0
5.800000 0.240302 0
5.805000 0.256163 0
5.810000 0.269449 0
5.815000 0.279689 0
5.820000 0.286508 0
5.825000 0.289644 1
5.830000 0.288967 0
5.835000 0.284486 0
5.840000 0.276348 0
5.845000 0.264835 0
5.850000 0.250338 0
5.855000 0.233344 0
5.860000 0.214403 0
5.865000 0.194099 0
5.870000 0.173021 0
5.875000 0.151737 0
5.880000 0.130764 0
5.885000 0.110556 0
5.890000 0.091486 0
5.895000 0.073837 0
5.900000 0.057802 0
5.905000 0.043479 0
5.910000 0.030862 0
5.915000 0.019817 0
5.920000 0.010038 0
5.925000 0.000965 0
5.930000 -0.008313 0
5.935000 -0.019113 0
5.940000 -0.033094 0
5.945000 -0.051937 0
5.950000 -0.076737 0
5.955000 -0.107147 0
5.960000 -0.140578 0
5.965000 -0.171783 0
5.970000 -0.193116 0
5.975000 -0.195414 2
5.980000 -0.169208 0
5.985000 -0.105914 0
5.990000 0.000927 0
5.995000 0.153938 0
6.000000 0.349335 0
6.005000 0.574025 0
6.010000 0.804074 0
6.015000 1.006710 0
6.020000 1.146880 0
6.025000 1.196851 3
6.030000 1.143742 0
6.035000 0.994325 0
6.040000 0.776822 0
6.045000 0.528643 0
6.050000 0.285557 0
6.055000 0.074356 0
6.060000 -0.089349 0
6.065000 -0.199695 0
6.070000 -0.258086 0
6.075000 -0.271269 4
6.080000 -0.249920 0
6.085000 -0.206950 0
6.090000 -0.155227 0
6.095000 -0.105216 0
6.100000 -0.063466 0
6.105000 -0.032440 0
6.110000 -0.011498 0
6.115000 0.001639 0
6.120000 0.009601 0
6.125000 0.014603 0
6.130000 0.018185 0
6.135000 0.021282 0
6.140000 0.024407 0
6.145000 0.027827 0
6.150000 0.031688 0
6.155000 0.036085 0
6.160000 0.041089 0
6.165000 0.046770 0
6.170000 0.053191 0
6.175000 0.060415 0
6.180000 0.068501 0
6.185000 0.077504 0
6.190000 0.087473 0
6.195000 0.098445 0
6.200000 0.110448 0
6.205000 0.123497 0
6.210000 0.137590 0
6.215000 0.152706 0
6.220000 0.168807 0
6.225000 0.185832 0
6.230000 0.203697 0
6.235000 0.222296 0
6.240000 0.241499 0
6.245000 0.261154 0
6.250000 0.281085 0
6.255000 0.301098 0
6.260000 0.320983 0
6.265000 0.340512 0
6.270000 0.359451 0
6.275000 0.377557 0
6.280000 0.394587 0
6.285000 0.410302 0
6.290000 0.424474 0
6.295000 0.436887 0
6.300000 0.447348 0
6.305000 0.455684 0
6.310000 0.461756 0
6.315000 0.465456 0
6.320000 0.466709 5
6.325000 0.465480 0
6.330000 0.461773 0
6.335000 0.455628 0
6.340000 0.447126 0
6.345000 0.436381 0
6.350000 0.423542 0
6.355000 0.408785 0
6.360000 0.392312 0
6.365000 0.374347 0
6.370000 0.355126 0
6.375000 0.334896 0
6.380000 0.313910 0
6.385000 0.292417 0
6.390000 0.270661 0
6.395000 0.248877 0
6.400000 0.227283 0
6.405000 0.206081 0
6.410000 0.185450 0
6.415000 0.165550 0
6.420000 0.146514 0
6.425000 0.128452 0
6.430000 0.111449 0
6.435000 0.095566 0
6.440000 0.080843 0
6.445000 0.067297 0
6.450000 0.054928 0
6.455000 0.043717 0
6.460000 0.033634 0
6.465000 0.024632 0
6.470000 0.016660 0
6.475000 0.009655 0
6.480000 0.003551 0
6.485000 -0.001721 0
6.490000 -0.006233 0
6.495000 -0.010055 0
6.500000 -0.013256 0
6.505000 -0.015904 0
6.510000 -0.018061 0
6.515000 -0.019788 0
6.520000 -0.021140 0
6.525000 -0.022166 0
6.530000 -0.022913 0
6.535000 -0.023422 0
6.540000 -0.023729 0
6.545000 -0.023866 0
6.550000 -0.023861 0
6.555000 -0.023740 0
6.560000 -0.023521 0
6.565000 -0.023224 0
6.570000 -0.022864 0
6.575000 -0.022452 0
6.580000 -0.021999 0
6.585000 -0.021515 0
6.590000 -0.021005 0
6.595000 -0.020477 0
6.600000 -0.019934 0
6.605000 -0.019380 0
6.610000 -0.018819 0
6.615000 -0.018253 0
6.620000 -0.017683 0
6.625000 -0.017101 0
6.630000 -0.016518 0
6.635000 -0.015939 0
6.640000 -0.015362 0
6.645000 -0.014788 0
6.650000 -0.014217 0
6.655000 -0.013649 0
6.660000 -0.013084 0
6.665000 -0.012522 0
6.670000 -0.011962 0
6.675000 -0.011405 0
6.680000 -0.010851 0
6.685000 -0.010300 0
6.690000 -0.009751 0
6.695000 -0.009206 0
6.700000 -0.008663 0
6.705000 -0.008122 0
6.710000 -0.007585 0
6.715000 -0.007050 0
6.720000 -0.006517 0
6.725000 -0.005988 0
6.730000 -0.005461 0
6.735000 -0.004936 0
6.740000 -0.004414 0
6.745000 -0.003895 0
6.750000 -0.003379 0
6.755000 -0.002865 0
6.760000 -0.002353 0
6.765000 -0.001844 0
6.770000 -0.001338 0
6.775000 -0.000834 0
6.780000 -0.000333 0
6.785000 0.000166 0
6.790000 0.000662 0
6.795000 0.001156 0
6.800000 0.001648 0
6.805000 0.002137 0
6.810000 0.002624 0
6.815000 0.003109 0
6.820000 0.003592 0
6.825000 0.004073 0
6.830000 0.004553 0
6.835000 0.005033 0
6.840000 0.005514 0
6.845000 0.005999 0
6.850000 0.006489 0
6.855000 0.006991 0
6.860000 0.007509 0
6.865000 0.008054 0
6.870000 0.008639 0
6.875000 0.009283 0
6.880000 0.010010 0
6.885000 0.010853 0
6.890000 0.011856 0
6.895000 0.013076 0
6.900000 0.014582 0
6.905000 0.016461 0
6.910000 0.018817 0
6.915000 0.021772 0
6.920000 0.025464 0
6.925000 0.030046 0
6.930000 0.035681 0
6.935000 0.042535 0
6.940000 0.050767 0
6.945000 0.060520 0
6.950000 0.071905 0
6.955000 0.084987 0
6.960000 0.099773 0
6.965000 0.116193 0
6.970000 0.134092 0
6.975000 0.153222 0
6.980000 0.173237 0
6.985000 0.193702 0
6.990000 0.214099 0
6.995000 0.233849 0
7.000000 0.252336 0
7.005000 0.268936 0
7.010000 0.283055 0
7.015000 0.294157 0
7.020000 0.301804 0
7.025000 0.305680 1
7.030000 0.305609 0
7.035000 0.301574 0
7.040000 0.293715 0
7.045000 0.282317 0
7.050000 0.267798 0
7.055000 0.250680 0
7.060000 0.231557 0
7.065000 0.211061 0
7.070000 0.189826 0
7.075000 0.168460 0
7.080000 0.147511 0
7.085000 0.127450 0
7.090000 0.108657 0
7.095000 0.091411 0
7.100000 0.075886 0
7.105000 0.062148 0
7.110000 0.050139 0
7.115000 0.039639 0
7.120000 0.030194 0
7.125000 0.021012 0
7.130000 0.010862 0
7.135000 -0.001924 0
7.140000 -0.019208 0
7.145000 -0.042455 0
7.150000 -0.071808 0
7.155000 -0.105102 0
7.160000 -0.137241 0
7.165000 -0.160335 0
7.170000 -0.164629 2
7.175000 -0.139880 0
7.180000 -0.076760 0
7.185000 0.031702 0
7.190000 0.188113 0
7.195000 0.387690 0
7.200000 0.614951 0
7.205000 0.842322 0
7.210000 1.033302 0
7.215000 1.151004 0
7.220000 1.169523 3
7.225000 1.082195 0
7.230000 0.904465 0
7.235000 0.670740 0
7.240000 0.420823 0
7.245000 0.189021 0
7.250000 -0.001623 0
7.255000 -0.139710 0
7.260000 -0.223068 0
7.265000 -0.256222 4
7.270000 -0.248642 0
7.275000 -0.213107 0
7.280000 -0.163456 0
7.285000 -0.111910 0
7.290000 -0.066944 0
7.295000 -0.032543 0
7.300000 -0.008911 0
7.305000 0.005996 0
7.310000 0.014940 0
7.315000 0.020392 0
7.320000 0.024123 0
7.325000 0.027225 0
7.330000 0.030295 0
7.335000 0.033641 0
7.340000 0.037429 0
7.345000 0.041760 0
7.350000 0.046711 0
7.355000 0.052354 0
7.360000 0.058757 0
7.365000 0.065985 0
7.370000 0.074102 0
7.375000 0.083163 0
7.380000 0.093220 0
7.385000 0.104311 0
7.390000 0.116464 0
7.395000 0.129691 0
7.400000 0.143987 0
7.405000 0.159328 0
7.410000 0.175666 0
7.415000 0.192932 0
7.420000 0.211031 0
7.425000 0.229844 0
7.430000 0.249226 0
7.435000 0.269009 0
7.440000 0.289000 0
7.445000 0.308988 0
7.450000 0.328743 0
7.455000 0.348022 0
7.460000 0.366575 0
7.465000 0.384144 0
7.470000 0.400477 0
7.475000 0.415328 0
7.480000 0.428463 0
7.485000 0.439669 0
7.490000 0.448758 0
7.495000 0.455570 0
7.500000 0.459979 0
7.505000 0.461898 5
7.510000 0.461278 0
7.515000 0.458114 0
7.520000 0.452439 0
7.525000 0.444330 0
7.530000 0.433901 0
7.535000 0.421303 0
7.540000 0.406718 0
7.545000 0.390358 0
7.550000 0.372454 0
7.555000 0.353255 0
7.560000 0.333020 0
7.565000 0.312014 0
7.570000 0.290500 0
7.575000 0.268732 0
7.580000 0.246956 0
7.585000 0.225401 0
7.590000 0.204273 0
7.595000 0.183760 0
7.600000 0.164023 0
7.605000 0.145198 0
7.610000 0.127392 0
7.615000 0.110690 0
7.620000 0.095149 0
7.625000 0.080803 0
7.630000 0.067664 0
7.635000 0.055725 0
7.640000 0.044961 0
7.645000 0.035332 0
7.650000 0.026788 0
7.655000 0.019269 0
7.660000 0.012706 0
7.665000 0.007030 0
7.670000 0.002165 0
7.675000 -0.001963 0
7.680000 -0.005427 0
7.685000 -0.008299 0
7.690000 -0.010647 0
7.695000 -0.012534 0
7.700000 -0.014020 0
7.705000 -0.015160 0
7.710000 -0.016002 0
7.715000 -0.016591 0
7.720000 -0.016966 0
7.725000 -0.017161 0
7.730000 -0.017207 0
7.735000 -0.017130 0
7.740000 -0.016952 0
7.745000 -0.016692 0
7.750000 -0.016366 0
7.755000 -0.015987 0
7.760000 -0.015566 0
7.765000 -0.015112 0
7.770000 -0.014633 0
7.775000 -0.014134 0
7.780000 -0.013621 0
7.785000 -0.013098 0
7.790000 -0.012566 0
7.795000 -0.012030 0
7.800000 -0.011490 0
7.805000 -0.010938 0
7.810000 -0.010387 0
7.815000 -0.009838 0
7.820000 -0.009292 0
7.825000 -0.008748 0
7.830000 -0.008207 0
7.835000 -0.007669 0
7.840000 -0.007134 0
7.845000 -0.006601 0
7.850000 -0.006071 0
7.855000 -0.005543 0
7.860000 -0.005019 0
7.865000 -0.004496 0
7.870000 -0.003977 0
7.875000 -0.003460 0
7.880000 -0.002946 0
7.885000 -0.002434 0
7.890000 -0.001924 0
7.895000 -0.001418 0
7.900000 -0.000913 0
7.905000 -0.000412 0
7.910000 0.000088 0
7.915000 0.000584 0
7.920000 0.001079 0
7.925000 0.001570 0
7.930000 0.002060 0
7.935000 0.002546 0
7.940000 0.003031 0
7.945000 0.003513 0
7.950000 0.003993 0
7.955000 0.004470 0
7.960000 0.004945 0
7.965000 0.005417 0
7.970000 0.005888 0
7.975000 0.006355 0
7.980000 0.006821 0
7.985000 0.007285 0
7.990000 0.007746 0
7.995000 0.008206 0
8.000000 0.008665 0
8.005000 0.009122 0
8.010000 0.009581 0
8.015000 0.010040 0
8.020000 0.010505 0
8.025000 0.010977 0
8.030000 0.011462 0
8.035000 0.011969 0
8.040000 0.012508 0
8.045000 0.013096 0
8.050000 0.013754 0
8.055000 0.014514 0
8.060000 0.015415 0
8.065000 0.016509 0
8.070000 0.017864 0
8.075000 0.019562 0
8.080000 0.021707 0
8.085000 0.024418 0
8.090000 0.027836 0
8.095000 0.032116 0
8.100000 0.037427 0
8.105000 0.043944 0
8.110000 0.051838 0
8.115000 0.061262 0
8.120000 0.072342 0
8.125000 0.085156 0
8.130000 0.099722 0
8.135000 0.115976 0
8.140000 0.133766 0
8.145000 0.152838 0
8.150000 0.172835 0
8.155000 0.193300 0
8.160000 0.213692 0
8.165000 0.233399 0
8.170000 0.251772 0
8.175000 0.268160 0
8.180000 0.281939 0
8.185000 0.292560 0
8.190000 0.299578 0
8.195000 0.302685 1
8.200000 0.301731 0
8.205000 0.296733 0
8.210000 0.287877 0
8.215000 0.275504 0
8.220000 0.260089 0
8.225000 0.242207 0
8.230000 0.222500 0
8.235000 0.201638 0
8.240000 0.180279 0
8.245000 0.159038 0
8.250000 0.138457 0
8.255000 0.118986 0
8.260000 0.100973 0
8.265000 0.084652 0
8.270000 0.070146 0
8.275000 0.057452 0
8.280000 0.046412 0
8.285000 0.036653 0
8.290000 0.027479 0
8.295000 0.017751 0
8.300000 0.005843 0
8.305000 -0.010189 0
8.310000 -0.032061 0
8.315000 -0.060320 0
8.320000 -0.093235 0
8.325000 -0.125997 0
8.330000 -0.150706 0
8.335000 -0.157286 2
8.340000 -0.134963 0
8.345000 -0.073825 0
8.350000 0.033602 0
8.355000 0.190168 0
8.360000 0.390798 0
8.365000 0.618855 0
8.370000 0.844744 0
8.375000 1.029746 0
8.380000 1.135810 0
8.385000 1.138062 3
8.390000 1.034683 0
8.395000 0.847025 0
8.400000 0.609499 0
8.405000 0.360104 0
8.410000 0.130823 0
8.415000 -0.057142 0
8.420000 -0.193410 0
8.425000 -0.276136 0
8.430000 -0.309701 4
8.435000 -0.303120 0
8.440000 -0.268552 0
8.445000 -0.219266 0
8.450000 -0.167182 0
8.455000 -0.120840 0
8.460000 -0.084569 0
8.465000 -0.059001 0
8.470000 -0.042422 0
8.475000 -0.032219 0
8.480000 -0.025915 0
8.485000 -0.021650 0
8.490000 -0.018229 0
8.495000 -0.014970 0
8.500000 -0.011514 0
8.505000 -0.007671 0
8.510000 -0.003331 0
8.515000 0.001589 0
8.520000 0.007156 0
8.525000 0.013437 0
8.530000 0.020495 0
8.535000 0.028393 0
8.540000 0.037188 0
8.545000 0.046930 0
8.550000 0.057663 0
8.555000 0.069419 0
8.560000 0.082219 0
8.565000 0.096067 0
8.570000 0.110952 0
8.575000 0.126841 0
8.580000 0.143684 0
8.585000 0.161404 0
8.590000 0.179904 0
8.595000 0.199063 0
8.600000 0.218737 0
8.605000 0.238757 0
8.610000 0.258936 0
8.615000 0.279068 0
8.620000 0.298930 0
8.625000 0.318289 0
8.630000 0.336903 0
8.635000 0.354527 0
8.640000 0.370920 0
8.645000 0.385846 0
8.650000 0.399085 0
8.655000 0.410432 0
8.660000 0.419706 0
8.665000 0.426756 0
8.670000 0.431459 0
8.675000 0.433730 5
8.680000 0.433520 0
8.685000 0.430819 0
8.690000 0.425654 0
8.695000 0.418094 0
8.700000 0.408241 0
8.705000 0.396234 0
8.710000 0.382242 0
8.715000 0.366461 0
8.720000 0.349107 0
8.725000 0.330416 0
8.730000 0.310633 0
8.735000 0.290011 0
8.740000 0.268801 0
8.745000 0.247252 0
8.750000 0.225602 0
8.755000 0.204078 0
8.760000 0.182886 0
8.765000 0.162214 0
8.770000 0.142230 0
8.775000 0.123074 0
8.780000 0.104864 0
8.785000 0.087693 0
8.790000 0.071629 0
8.795000 0.056718 0
8.800000 0.042984 0
8.805000 0.030430 0
8.810000 0.019045 0
8.815000 0.008798 0
8.820000 -0.000351 0
8.825000 -0.008455 0
8.830000 -0.015572 0
8.835000 -0.021768 0
8.840000 -0.027114 0
8.845000 -0.031679 0
8.850000 -0.035535 0
8.855000 -0.038753 0
8.860000 -0.041400 0
8.865000 -0.043541 0
8.870000 -0.045236 0
8.875000 -0.046544 0
8.880000 -0.047514 0
8.885000 -0.048194 0
8.890000 -0.048628 0
8.895000 -0.048851 0
8.900000 -0.048898 0
8.905000 -0.048798 0
8.910000 -0.048576 0
8.915000 -0.048253 0
8.920000 -0.047848 0
8.925000 -0.047377 0
8.930000 -0.046853 0
8.935000 -0.046287 0
8.940000 -0.045688 0
8.945000 -0.045063 0
8.950000 -0.044418 0
8.955000 -0.043759 0
8.960000 -0.043089 0
8.965000 -0.042411 0
8.970000 -0.041729 0
8.975000 -0.041043 0
8.980000 -0.040354 0
8.985000 -0.039655 0
8.990000 -0.038960 0
8.995000 -0.038269 0
9.000000 -0.037581 0
9.005000 -0.036896 0
9.010000 -0.036215 0
9.015000 -0.035537 0
9.020000 -0.034863 0
9.025000 -0.034192 0
9.030000 -0.033524 0
9.035000 -0.032860 0
9.040000 -0.032199 0
9.045000 -0.031541 0
9.050000 -0.030887 0
9.055000 -0.030235 0
9.060000 -0.029587 0
9.065000 -0.028943 0
9.070000 -0.028301 0
9.075000 -0.027663 0
9.080000 -0.027028 0
9.085000 -0.026396 0
9.090000 -0.025767 0
9.095000 -0.025141 0
9.100000 -0.024519 0
9.105000 -0.023899 0
9.110000 -0.023283 0
9.115000 -0.022670 0
9.120000 -0.022059 0
9.125000 -0.021452 0
9.130000 -0.020848 0
9.135000 -0.020247 0
9.140000 -0.019649 0
9.145000 -0.019054 0
9.150000 -0.018461 0
9.155000 -0.017872 0
9.160000 -0.017285 0
9.165000 -0.016702 0
9.170000 -0.016121 0
9.175000 -0.015542 0
9.180000 -0.014965 0
9.185000 -0.014390 0
9.190000 -0.013816 0
9.195000 -0.013241 0
9.200000 -0.012663 0
9.205000 -0.012080 0
9.210000 -0.011487 0
9.215000 -0.010878 0
9.220000 -0.010243 0
9.225000 -0.009569 0
9.230000 -0.008838 0
9.235000 -0.008025 0
9.240000 -0.007097 0
9.245000 -0.006011 0
9.250000 -0.004711 0
9.255000 -0.003126 0
9.260000 -0.001170 0
9.265000 0.001260 0
9.270000 0.004287 0
9.275000 0.008050 0
9.280000 0.012703 0
9.285000 0.018408 0
9.290000 0.025332 0
9.295000 0.033637 0
9.300000 0.043465 0
9.305000 0.054929 0
9.310000 0.068095 0
9.315000 0.082969 0
9.320000 0.099481 0
9.325000 0.117474 0
9.330000 0.136699 0
9.335000 0.156806 0
9.340000 0.177358 0
9.345000 0.197831 0
9.350000 0.217644 0
9.355000 0.236176 0
9.360000 0.252801 0
9.365000 0.266921 0
9.370000 0.278001 0
9.375000 0.285604 0
9.380000 0.289415 1
9.385000 0.289266 0
9.390000 0.285144 0
9.395000 0.277196 0
9.400000 0.265717 0
9.405000 0.251132 0
9.410000 0.233969 0
9.415000 0.214830 0
9.420000 0.194350 0
9.425000 0.173167 0
9.430000 0.151888 0
9.435000 0.131060 0
9.440000 0.111152 0
9.445000 0.092538 0
9.450000 0.075491 0
9.455000 0.060178 0
9.460000 0.046657 0
9.465000 0.034857 0
9.470000 0.024542 0
9.475000 0.015230 0
9.480000 0.006087 0
9.485000 -0.004166 0
9.490000 -0.017239 0
9.495000 -0.035000 0
9.500000 -0.058831 0
9.505000 -0.088683 0
9.510000 -0.122084 0
9.515000 -0.153585 0
9.520000 -0.174987 0
9.525000 -0.176352 2
9.530000 -0.147420 0
9.535000 -0.079014 0
9.540000 0.035467 0
9.545000 0.197900 0
9.550000 0.402279 0
9.555000 0.631459 0
9.560000 0.856220 0
9.565000 1.039208 0
9.570000 1.144181 0
9.575000 1.147508 3
9.580000 1.049082 0
9.585000 0.867687 0
9.590000 0.634377 0
9.595000 0.384465 0
9.600000 0.148907 0
9.605000 -0.050528 0
9.610000 -0.201970 0
9.615000 -0.301729 0
9.620000 -0.352186 0
9.625000 -0.360264 4
9.630000 -0.336221 0
9.635000 -0.292147 0
9.640000 -0.239948 0
9.645000 -0.189330 0
9.650000 -0.146493 0
9.655000 -0.113946 0
9.660000 -0.091320 0
9.665000 -0.076620 0
9.670000 -0.067385 0
9.675000 -0.061442 0
9.680000 -0.057202 0
9.685000 -0.053651 0
9.690000 -0.050209 0
9.695000 -0.046564 0
9.700000 -0.042544 0
9.705000 -0.038049 0
9.710000 -0.033004 0
9.715000 -0.027344 0
9.720000 -0.021008 0
9.725000 -0.013938 0
9.730000 -0.006076 0
9.735000 0.002631 0
9.740000 0.012233 0
9.745000 0.022771 0
9.750000 0.034280 0
9.755000 0.046781 0
9.760000 0.060287 0
9.765000 0.074793 0
9.770000 0.090279 0
9.775000 0.106707 0
9.780000 0.124021 0
9.785000 0.142143 0
9.790000 0.160977 0
9.795000 0.180403 0
9.800000 0.200282 0
9.805000 0.220455 0
9.810000 0.240747 0
9.815000 0.260963 0
9.820000 0.280898 0
9.825000 0.300336 0
9.830000 0.319054 0
9.835000 0.336825 0
9.840000 0.353427 0
9.845000 0.368643 0
9.850000 0.382265 0
9.855000 0.394103 0
9.860000 0.403987 0
9.865000 0.411767 0
9.870000 0.417325 0
9.875000 0.420570 0
9.880000 0.421445 5
9.885000 0.419924 0
9.890000 0.416021 0
9.895000 0.409778 0
9.900000 0.401276 0
9.905000 0.390624 0
9.910000 0.377961 0
9.915000 0.363454 0
9.920000 0.347290 0
9.925000 0.329674 0
9.930000 0.310827 0
9.935000 0.290977 0
9.940000 0.270358 0
9.945000 0.249201 0
9.950000 0.227737 0
9.955000 0.206184 0
9.960000 0.184750 0
9.965000 0.163629 0
9.970000 0.142996 0
9.975000 0.123004 0
9.980000 0.103790 0
9.985000 0.085466 0
9.990000 0.068122 0
9.995000 0.051827 0
10.000000 0.036631 0
10.005000 0.022561 0
10.010000 0.009628 0
10.015000 -0.002173 0
10.020000 -0.012863 0
10.025000 -0.022475 0
10.030000 -0.031052 0
10.035000 -0.038645 0
10.040000 -0.045311 0
10.045000 -0.051112 0
10.050000 -0.056114 0
10.055000 -0.060382 0
10.060000 -0.063982 0
10.065000 -0.066979 0
10.070000 -0.069435 0
10.075000 -0.071410 0
10.080000 -0.072960 0
10.085000 -0.074136 0
10.090000 -0.074988 0
10.095000 -0.075558 0
10.100000 -0.075887 0
10.105000 -0.076009 0
10.110000 -0.075956 0
10.115000 -0.075757 0
10.120000 -0.075434 0
10.125000 -0.075009 0
10.130000 -0.074501 0
10.135000 -0.073923 0
10.140000 -0.073291 0
10.145000 -0.072613 0
10.150000 -0.071901 0
10.155000 -0.071161 0
10.160000 -0.070399 0
10.165000 -0.069621 0
10.170000 -0.068832 0
10.175000 -0.068033 0
10.180000 -0.067229 0
10.185000 -0.066421 0
10.190000 -0.065612 0
10.195000 -0.064790 0
10.200000 -0.063970 0
10.205000 -0.063154 0
10.210000 -0.062341 0
10.215000 -0.061533 0
10.220000 -0.060729 0
10.225000 -0.059929 0
10.230000 -0.059133 0
10.235000 -0.058341 0
10.240000 -0.057553 0
10.245000 -0.056769 0
10.250000 -0.055989 0
10.255000 -0.055212 0
10.260000 -0.054440 0
10.265000 -0.053671 0
10.270000 -0.052906 0
10.275000 -0.052145 0
10.280000 -0.051388 0
10.285000 -0.050634 0
10.290000 -0.049885 0
10.295000 -0.049139 0
10.300000 -0.048396 0
10.305000 -0.047658 0
10.310000 -0.046923 0
10.315000 -0.046192 0
10.320000 -0.045464 0
10.325000 -0.044740 0
10.330000 -0.044020 0
10.335000 -0.043303 0
10.340000 -0.042590 0
10.345000 -0.041881 0
10.350000 -0.041175 0
10.355000 -0.040472 0
10.360000 -0.039773 0
10.365000 -0.039078 0
10.370000 -0.038385 0
10.375000 -0.037697 0
10.380000 -0.037011 0
10.385000 -0.036329 0
10.390000 -0.035650 0
10.395000 -0.034975 0
10.400000 -0.034302 0
10.405000 -0.033631 0
10.410000 -0.032962 0
10.415000 -0.032294 0
10.420000 -0.031625 0
10.425000 -0.030954 0
10.430000 -0.030277 0
10.435000 -0.029589 0
10.440000 -0.028885 0
10.445000 -0.028155 0
10.450000 -0.027386 0
10.455000 -0.026561 0
10.460000 -0.025657 0
10.465000 -0.024643 0
10.470000 -0.023478 0
10.475000 -0.022113 0
10.480000 -0.020484 0
10.485000 -0.018512 0
10.490000 -0.016106 0
10.495000 -0.013155 0
10.500000 -0.009535 0
10.505000 -0.005108 0
10.510000 0.000273 0
10.515000 0.006764 0
10.520000 0.014515 0
10.525000 0.023667 0
10.530000 0.034338 0
10.535000 0.046615 0
10.540000 0.060534 0
10.545000 0.076075 0
10.550000 0.093145 0
10.555000 0.111573 0
10.560000 0.131101 0
10.565000 0.151387 0
10.570000 0.172009 0
10.575000 0.192474 0
10.580000 0.212239 0
10.585000 0.230730 0
10.590000 0.247369 0
10.595000 0.261605 0
10.600000 0.272942 0
10.605000 0.280970 0
10.610000 0.285385 0
10.615000 0.286011 1
10.620000 0.282809 0
10.625000 0.275882 0
10.630000 0.265469 0
10.635000 0.251927 0
10.640000 0.235716 0
10.645000 0.217368 0
10.650000 0.197462 0
10.655000 0.176590 0
10.660000 0.155329 0
10.665000 0.134219 0
10.670000 0.113736 0
10.675000 0.094280 0
10.680000 0.076166 0
10.685000 0.059616 0
10.690000 0.044759 0
10.695000 0.031624 0
10.700000 0.020121 0
10.705000 0.010006 0
10.710000 0.000805 0
10.715000 -0.008272 0
10.720000 -0.018418 0
10.725000 -0.031209 0
10.730000 -0.048375 0
10.735000 -0.071278 0
10.740000 -0.100111 0
10.745000 -0.133037 0
10.750000 -0.165618 0
10.755000 -0.190854 0
10.760000 -0.199901 2
10.765000 -0.183232 0
10.770000 -0.131854 0
10.775000 -0.038506 0
10.780000 0.100820 0
10.785000 0.284554 0
10.790000 0.502606 0
10.795000 0.734185 0
10.800000 0.948572 0
10.805000 1.110388 0
10.810000 1.188661 3
10.815000 1.164858 0
10.820000 1.041360 0
10.825000 0.841001 0
10.830000 0.598545 0
10.835000 0.350237 0
10.840000 0.125496 0
10.845000 -0.056745 0
10.850000 -0.187608 0
10.855000 -0.266029 0
10.860000 -0.296672 4
10.865000 -0.288492 0
10.870000 -0.253330 0
10.875000 -0.203995 0
10.880000 -0.151965 0
10.885000 -0.105501 0
10.890000 -0.068867 0
10.895000 -0.042791 0
10.900000 -0.025704 0
10.905000 -0.015105 0
10.910000 -0.008562 0
10.915000 -0.004204 0
10.920000 -0.000801 0
10.925000 0.002363 0
10.930000 0.005675 0
10.935000 0.009340 0
10.940000 0.013474 0
10.945000 0.018160 0
10.950000 0.023466 0
10.955000 0.029457 0
10.960000 0.036193 0
10.965000 0.043736 0
10.970000 0.052141 0
10.975000 0.061461 0
10.980000 0.071740 0
10.985000 0.083013 0
10.990000 0.095304 0
10.995000 0.108624 0
11.000000 0.122969 0
11.005000 0.138315 0
11.010000 0.154623 0
11.015000 0.171830 0
11.020000 0.189853 0
11.025000 0.208586 0
11.030000 0.227901 0
11.035000 0.247649 0
11.040000 0.267659 0
11.045000 0.287742 0
11.050000 0.307692 0
11.055000 0.327290 0
11.060000 0.346307 0
11.065000 0.364510 0
11.070000 0.381662 0
11.075000 0.397532 0
11.080000 0.411896 0
11.085000 0.424545 0
11.090000 0.435288 0
11.095000 0.443958 0
11.100000 0.450414 0
11.105000 0.454545 0
11.110000 0.456277 5
11.115000 0.455568 0
11.120000 0.452413 0
11.125000 0.446847 0
11.130000 0.438939 0
11.135000 0.428792 0
11.140000 0.416542 0
11.145000 0.402354 0
11.150000 0.386418 0
11.155000 0.368945 0
11.160000 0.350162 0
11.165000 0.330305 0
11.170000 0.309617 0
11.175000 0.288343 0
11.180000 0.266722 0
11.185000 0.244985 0
11.190000 0.223350 0
11.195000 0.202021 0
11.200000 0.181182 0
11.205000 0.160995 0
11.210000 0.141602 0
11.215000 0.123119 0
11.220000 0.105641 0
11.225000 0.089240 0
11.230000 0.073964 0
11.235000 0.059840 0
11.240000 0.046879 0
11.245000 0.035072 0
11.250000 0.024395 0
11.255000 0.014812 0
11.260000 0.006277 0
11.265000 -0.001266 0
11.270000 -0.007879 0
11.275000 -0.013627 0
11.280000 -0.018578 0
11.285000 -0.022801 0
11.290000 -0.026365 0
11.295000 -0.029336 0
11.300000 -0.031778 0
11.305000 -0.033753 0
11.310000 -0.035316 0
11.315000 -0.036521 0
11.320000 -0.037416 0
11.325000 -0.038043 0
11.330000 -0.038442 0
11.335000 -0.038648 0
11.340000 -0.038691 0
11.345000 -0.038598 0
11.350000 -0.038393 0
11.355000 -0.038094 0
11.360000 -0.037719 0
11.365000 -0.037283 0
11.370000 -0.036798 0
11.375000 -0.036273 0
11.380000 -0.035717 0
11.385000 -0.035137 0
11.390000 -0.034538 0
11.395000 -0.033926 0
11.400000 -0.033303 0
11.405000 -0.032673 0
11.410000 -0.032038 0
11.415000 -0.031401 0
11.420000 -0.030759 0
11.425000 -0.030109 0
11.430000 -0.029461 0
11.435000 -0.028817 0
11.440000 -0.028176 0
11.445000 -0.027539 0
11.450000 -0.026904 0
11.455000 -0.026273 0
11.460000 -0.025645 0
11.465000 -0.025019 0
11.470000 -0.024398 0
11.475000 -0.023779 0
11.480000 -0.023163 0
11.485000 -0.022550 0
11.490000 -0.021941 0
11.495000 -0.021334 0
11.500000 -0.020730 0
11.505000 -0.020130 0
11.510000 -0.019532 0
11.515000 -0.018938 0
11.520000 -0.018346 0
11.525000 -0.017758 0
11.530000 -0.017172 0
11.535000 -0.016589 0
11.540000 -0.016009 0
11.545000 -0.015432 0
11.550000 -0.014858 0
11.555000 -0.014287 0
11.560000 -0.013718 0
11.565000 -0.013153 0
11.570000 -0.012590 0
11.575000 -0.012030 0
11.580000 -0.011473 0
11.585000 -0.010918 0
11.590000 -0.010367 0
11.595000 -0.009818 0
11.600000 -0.009272 0
11.605000 -0.008728 0
11.610000 -0.008187 0
11.615000 -0.007648 0
11.620000 -0.007111 0
11.625000 -0.006576 0
11.630000 -0.006043 0
11.635000 -0.005509 0
11.640000 -0.004974 0
11.645000 -0.004436 0
11.650000 -0.003891 0
11.655000 -0.003335 0
11.660000 -0.002761 0
11.665000 -0.002160 0
11.670000 -0.001517 0
11.675000 -0.000815 0
11.680000 -0.000028 0
11.685000 0.000877 0
11.690000 0.001943 0
11.695000 0.003225 0
11.700000 0.004792 0
11.705000 0.006729 0
11.710000 0.009136 0
11.715000 0.012132 0
11.720000 0.015852 0
11.725000 0.020442 0
11.730000 0.026060 0
11.735000 0.032868 0
11.740000 0.041021 0
11.745000 0.050659 0
11.750000 0.061893 0
11.755000 0.074793 0
11.760000 0.089373 0
11.765000 0.105576 0
11.770000 0.123267 0
11.775000 0.142221 0
11.780000 0.162121 0
11.785000 0.182562 0
11.790000 0.203057 0
11.795000 0.223058 0
11.800000 0.241973 0
11.805000 0.259197 0
11.810000 0.274141 0
11.815000 0.286266 0
11.820000 0.295114 0
11.825000 0.300335 0
11.830000 0.301714 1
11.835000 0.299176 0
11.840000 0.292801 0
11.845000 0.282814 0
11.850000 0.269569 0
11.855000 0.253536 0
11.860000 0.235264 0
11.865000 0.215353 0
11.870000 0.194423 0
11.875000 0.173078 0
11.880000 0.151882 0
11.885000 0.131333 0
11.890000 0.111846 0
11.895000 0.093746 0
11.900000 0.077258 0
11.905000 0.062508 0
11.910000 0.049512 0
11.915000 0.038157 0
11.920000 0.028154 0
11.925000 0.018954 0
11.930000 0.009649 0
11.935000 -0.001108 0
11.940000 -0.015035 0
11.945000 -0.033903 0
11.950000 -0.058862 0
11.955000 -0.089525 0
11.960000 -0.123082 0
11.965000 -0.153880 0
11.970000 -0.173740 2
11.975000 -0.172975 0
11.980000 -0.141721 0
11.985000 -0.071240 0
11.990000 0.044677 0
11.995000 0.207668 0
12.000000 0.411832 0
12.005000 0.640695 0
12.010000 0.866303 0
12.015000 1.052761 0
12.020000 1.164691 0
12.025000 1.177978 3
12.030000 1.085943 0
12.035000 0.905390 0
12.040000 0.670589 0
12.045000 0.420684 0
12.050000 0.189229 0
12.055000 -0.001259 0
12.060000 -0.139614 0
12.065000 -0.223671 0
12.070000 -0.257811 4
12.075000 -0.251261 0
12.080000 -0.216524 0
12.085000 -0.167223 0
12.090000 -0.115510 0
12.095000 -0.069956 0
12.100000 -0.034750 0
12.105000 -0.010312 0
12.110000 0.005255 0
12.115000 0.014656 0
12.120000 0.020375 0
12.125000 0.024233 0
12.130000 0.027369 0
12.135000 0.030418 0
12.140000 0.033711 0
12.145000 0.037424 0
12.150000 0.041661 0
12.155000 0.046503 0
12.160000 0.052018 0
12.165000 0.058275 0
12.170000 0.065338 0
12.175000 0.073270 0
12.180000 0.082128 0
12.185000 0.091963 0
12.190000 0.102815 0
12.195000 0.114716 0
12.200000 0.127679 0
12.205000 0.141705 0
12.210000 0.156774 0
12.215000 0.172846 0
12.220000 0.189858 0
12.225000 0.207725 0
12.230000 0.226335 0
12.235000 0.245554 0
12.240000 0.265221 0
12.245000 0.285157 0
12.250000 0.305157 0
12.255000 0.325002 0
12.260000 0.344456 0
12.265000 0.363276 0
12.270000 0.381209 0
12.275000 0.398006 0
12.280000 0.413421 0
12.285000 0.427220 0
12.290000 0.439185 0
12.295000 0.449120 0
12.300000 0.456856 0
12.305000 0.462257 0
12.310000 0.465220 0
12.315000 0.465681 5
12.320000 0.463617 0
12.325000 0.459043 0
12.330000 0.452016 0
12.335000 0.442632 0
12.340000 0.431024 0
12.345000 0.417356 0
12.350000 0.401823 0
12.355000 0.384643 0
12.360000 0.366054 0
12.365000 0.346307 0
12.370000 0.325660 0
12.375000 0.304372 0
12.380000 0.282699 0
12.385000 0.260888 0
12.390000 0.239173 0
12.395000 0.217771 0
12.400000 0.196876 0
12.405000 0.176663 0
12.410000 0.157278 0
12.415000 0.138845 0
12.420000 0.121460 0
12.425000 0.105194 0
12.430000 0.090097 0
12.435000 0.076192 0
12.440000 0.063484 0
12.445000 0.051959 0
12.450000 0.041588 0
12.455000 0.032327 0
12.460000 0.024124 0
12.465000 0.016916 0
12.470000 0.010635 0
12.475000 0.005211 0
12.480000 0.000571 0
12.485000 -0.003360 0
12.490000 -0.006653 0
12.495000 -0.009376 0
12.500000 -0.011597 0
12.505000 -0.013377 0
12.510000 -0.014772 0
12.515000 -0.015836 0
12.520000 -0.016615 0
12.525000 -0.017152 0
12.530000 -0.017484 0
12.535000 -0.017646 0
12.540000 -0.017664 0
12.545000 -0.017565 0
12.550000 -0.017369 0
12.555000 -0.017094 0
12.560000 -0.016757 0
12.565000 -0.016368 0
12.570000 -0.015940 0
12.575000 -0.015480 0
12.580000 -0.014996 0
12.585000 -0.014494 0
12.590000 -0.013977 0
12.595000 -0.013451 0
12.600000 -0.012917 0
12.605000 -0.012378 0
12.610000 -0.011837 0
12.615000 -0.011283 0
12.620000 -0.010729 0
12.625000 -0.010179 0
12.630000 -0.009631 0
12.635000 -0.009086 0
12.640000 -0.008543 0
12.645000 -0.008003 0
12.650000 -0.007466 0
12.655000 -0.006932 0
12.660000 -0.006400 0
12.665000 -0.005871 0
12.670000 -0.005345 0
12.675000 -0.004821 0
12.680000 -0.004300 0
12.685000 -0.003781 0
12.690000 -0.003265 0
12.695000 -0.002752 0
12.700000 -0.002241 0
12.705000 -0.001732 0
12.710000 -0.001227 0
12.715000 -0.000723 0
12.720000 -0.000223 0
12.725000 0.000276 0
12.730000 0.000771 0
12.735000 0.001265 0
12.740000 0.001756 0
12.745000 0.002244 0
12.750000 0.002730 0
12.755000 0.003213 0
12.760000 0.003695 0
12.765000 0.004173 0
12.770000 0.004650 0
12.775000 0.005124 0
12.780000 0.005595 0
12.785000 0.006065 0
12.790000 0.006532 0
12.795000 0.006997 0
12.800000 0.007460 0
12.805000 0.007921 0
12.810000 0.008380 0
12.815000 0.008839 0
12.820000 0.009298 0
12.825000 0.009758 0
12.830000 0.010221 0
12.835000 0.010691 0
12.840000 0.011172 0
12.845000 0.011672 0
12.850000 0.012199 0
12.855000 0.012769 0
12.860000 0.013401 0
12.865000 0.014121 0
12.870000 0.014966 0
12.875000 0.015982 0
12.880000 0.017230 0
12.885000 0.018785 0
12.890000 0.020740 0
12.895000 0.023207 0
12.900000 0.026315 0
12.905000 0.030213 0
12.910000 0.035061 0
12.915000 0.041029 0
12.920000 0.048288 0
12.925000 0.056998 0
12.930000 0.067298 0
12.935000 0.079288 0
12.940000 0.093015 0
12.945000 0.108457 0
12.950000 0.125507 0
12.955000 0.143967 0
12.960000 0.163535 0
12.965000 0.183814 0
12.970000 0.204311 0
12.975000 0.224457 0
12.980000 0.243632 0
12.985000 0.261192 0
12.990000 0.276502 0
12.995000 0.288979 0
13.000000 0.298121 0
13.005000 0.303545 0
13.010000 0.305011 1
13.015000 0.302435 0
13.020000 0.295902 0
13.025000 0.285656 0
13.030000 0.272085 0
13.035000 0.255696 0
13.040000 0.237085 0
13.045000 0.216895 0
13.050000 0.195787 0
13.055000 0.174396 0
13.060000 0.153306 0
13.065000 0.133023 0
13.070000 0.113959 0
13.075000 0.096423 0
13.080000 0.080614 0
13.085000 0.066617 0
13.090000 0.054392 0
13.095000 0.043734 0
13.100000 0.034206 0
13.105000 0.025022 0
13.110000 0.014945 0
13.115000 0.002275 0
13.120000 -0.014912 0
13.125000 -0.038144 0
13.130000 -0.067577 0
13.135000 -0.100939 0
13.140000 -0.132882 0
13.145000 -0.155147 0
13.150000 -0.157586 2
13.155000 -0.129643 0
13.160000 -0.061842 0
13.165000 0.052637 0
13.170000 0.215706 0
13.175000 0.421030 0
13.180000 0.650619 0
13.185000 0.873979 0
13.190000 1.052522 0
13.195000 1.149571 3
13.200000 1.142434 0
13.205000 1.030652 0
13.210000 0.836197 0
13.215000 0.595358 0
13.220000 0.346928 0
13.225000 0.122525 0
13.230000 -0.057725 0
13.235000 -0.184708 0
13.240000 -0.257782 0
13.245000 -0.282459 4
13.250000 -0.268808 0
13.255000 -0.229789 0
13.260000 -0.178953 0
13.265000 -0.127860 0
13.270000 -0.084183 0
13.275000 -0.051226 0
13.280000 -0.028780 0
13.285000 -0.014657 0
13.290000 -0.006129 0
13.295000 -0.000830 0
13.300000 0.002905 0
13.305000 0.006091 0
13.310000 0.009281 0
13.315000 0.012764 0
13.320000 0.016694 0
13.325000 0.021167 0
13.330000 0.026259 0
13.335000 0.032042 0
13.340000 0.038580 0
13.345000 0.045939 0
13.350000 0.054181 0
13.355000 0.063362 0
13.360000 0.073530 0
13.365000 0.084724 0
13.370000 0.096971 0
13.375000 0.110283 0
13.380000 0.124655 0
13.385000 0.140064 0
13.390000 0.156463 0
13.395000 0.173785 0
13.400000 0.191938 0
13.405000 0.210805 0
13.410000 0.230245 0
13.415000 0.250093 0
13.420000 0.270163 0
13.425000 0.290245 0
13.430000 0.310116 0
13.435000 0.329538 0
13.440000 0.348263 0
13.445000 0.366041 0
13.450000 0.382620 0
13.455000 0.397757 0
13.460000 0.411220 0
13.465000 0.422798 0
13.470000 0.432298 0
13.475000 0.439561 0
13.480000 0.444457 0
13.485000 0.446893 5
13.490000 0.446815 0
13.495000 0.444208 0
13.500000 0.439100 0
13.505000 0.431557 0
13.510000 0.421685 0
13.515000 0.409625 0
13.520000 0.395550 0
13.525000 0.379661 0
13.530000 0.362184 0
13.535000 0.343360 0
13.540000 0.323443 0
13.545000 0.302691 0
13.550000 0.281365 0
13.555000 0.259719 0
13.560000 0.237998 0
13.565000 0.216431 0
13.570000 0.195230 0
13.575000 0.174585 0
13.580000 0.154663 0
13.585000 0.135605 0
13.590000 0.117527 0
13.595000 0.100520 0
13.600000 0.084649 0
13.605000 0.069954 0
13.610000 0.056456 0
13.615000 0.044153 0
13.620000 0.033027 0
13.625000 0.023046 0
13.630000 0.014161 0
13.635000 0.006318 0
13.640000 -0.000548 0
13.645000 -0.006505 0
13.650000 -0.011625 0
13.655000 -0.015983 0
13.660000 -0.019651 0
13.665000 -0.022700 0
13.670000 -0.025199 0
13.675000 -0.027213 0
13.680000 -0.028803 0
13.685000 -0.030024 0
13.690000 -0.030927 0
13.695000 -0.031559 0
13.700000 -0.031960 0
13.705000 -0.032166 0
13.710000 -0.032210 0
13.715000 -0.032120 0
13.720000 -0.031918 0
13.725000 -0.031626 0
13.730000 -0.031260 0
13.735000 -0.030835 0
13.740000 -0.030363 0
13.745000 -0.029854 0
13.750000 -0.029316 0
13.755000 -0.028757 0
13.760000 -0.028180 0
13.765000 -0.027591 0
13.770000 -0.026994 0
13.775000 -0.026390 0
13.780000 -0.025782 0
13.785000 -0.025170 0
13.790000 -0.024547 0
13.795000 -0.023928 0
13.800000 -0.023311 0
13.805000 -0.022698 0
13.810000 -0.022087 0
13.815000 -0.021480 0
13.820000 -0.020876 0
13.825000 -0.020274 0
13.830000 -0.019676 0
13.835000 -0.019081 0
13.840000 -0.018488 0
13.845000 -0.017899 0
13.850000 -0.017313 0
13.855000 -0.016729 0
13.860000 -0.016149 0
13.865000 -0.015571 0
13.870000 -0.014996 0
13.875000 -0.014424 0
13.880000 -0.013855 0
13.885000 -0.013289 0
13.890000 -0.012725 0
13.895000 -0.012165 0
13.900000 -0.011607 0
13.905000 -0.011052 0
13.910000 -0.010500 0
13.915000 -0.009950 0
13.920000 -0.009403 0
13.925000 -0.008859 0
13.930000 -0.008318 0
13.935000 -0.007779 0
13.940000 -0.007243 0
13.945000 -0.006710 0
13.950000 -0.006179 0
13.955000 -0.005651 0
13.960000 -0.005126 0
13.965000 -0.004603 0
13.970000 -0.004082 0
13.975000 -0.003564 0
13.980000 -0.003048 0
13.985000 -0.002533 0
13.990000 -0.002019 0
13.995000 -0.001505 0
14.000000 -0.000990 0
14.005000 -0.000470 0
14.010000 0.000057 0
14.015000 0.000598 0
14.020000 0.001159 0
14.025000 0.001753 0
14.030000 0.002394 0
14.035000 0.003106 0
14.040000 0.003918 0
14.045000 0.004869 0
14.050000 0.006010 0
14.055000 0.007407 0
14.060000 0.009143 0
14.065000 0.011316 0
14.070000 0.014044 0
14.075000 0.017465 0
14.080000 0.021731 0
14.085000 0.027007 0
14.090000 0.033466 0
14.095000 0.041275 0
14.100000 0.050590 0
14.105000 0.061537 0
14.110000 0.074199 0
14.115000 0.088600 0
14.120000 0.104689 0
14.125000 0.122327 0
14.130000 0.141278 0
14.135000 0.161205 0
14.140000 0.181672 0
14.145000 0.202158 0
14.150000 0.222071 0
14.155000 0.240775 0
14.160000 0.257625 0
14.165000 0.272000 0
14.170000 0.283343 0
14.175000 0.291190 0
14.180000 0.295208 0
14.185000 0.295214 1
14.190000 0.291187 0
14.195000 0.283272 0
14.200000 0.271770 0
14.205000 0.257119 0
14.210000 0.239864 0
14.215000 0.220624 0
14.220000 0.200054 0
14.225000 0.178810 0
14.230000 0.157512 0
14.235000 0.136719 0
14.240000 0.116903 0
14.245000 0.098438 0
14.250000 0.081590 0
14.255000 0.066518 0
14.260000 0.053260 0
14.265000 0.041718 0
14.270000 0.031609 0
14.275000 0.022372 0
14.280000 0.013055 0
14.285000 0.002231 0
14.290000 -0.011941 0
14.295000 -0.031328 0
14.300000 -0.057051 0
14.305000 -0.088427 0
14.310000 -0.122003 0
14.315000 -0.151199 0
14.320000 -0.166833 2
14.325000 -0.158392 0
14.330000 -0.115558 0
14.335000 -0.029689 0
14.340000 0.104420 0
14.345000 0.285822 0
14.350000 0.503827 0
14.355000 0.735235 0
14.360000 0.945353 0
14.365000 1.094859 0
14.370000 1.151301 3
14.375000 1.103334 0
14.380000 0.960270 0
14.385000 0.747971 0
14.390000 0.501706 0
14.395000 0.256192 0
14.400000 0.038412 0
14.405000 -0.135012 0
14.410000 -0.256891 0
14.415000 -0.327233 0
14.420000 -0.351348 4
14.425000 -0.338522 0
14.430000 -0.300622 0
14.435000 -0.250170 0
14.440000 -0.198139 0
14.445000 -0.152231 0
14.450000 -0.116260 0
14.455000 -0.090689 0
14.460000 -0.073863 0
14.465000 -0.063307 0
14.470000 -0.056659 0
14.475000 -0.052112 0
14.480000 -0.048484 0
14.485000 -0.045082 0
14.490000 -0.041532 0
14.495000 -0.037634 0
14.500000 -0.033272 0
14.505000 -0.028368 0
14.510000 -0.022852 0
14.515000 -0.016663 0
14.520000 -0.009740 0
14.525000 -0.002023 0
14.530000 0.006543 0
14.535000 0.016009 0
14.540000 0.026420 0
14.545000 0.037810 0
14.550000 0.050204 0
14.555000 0.063616 0
14.560000 0.078041 0
14.565000 0.093461 0
14.570000 0.109838 0
14.575000 0.127114 0
14.580000 0.145212 0
14.585000 0.164030 0
14.590000 0.183449 0
14.595000 0.203325 0
14.600000 0.223495 0
14.605000 0.243777 0
14.610000 0.263973 0
14.615000 0.283871 0
14.620000 0.303249 0
14.625000 0.321877 0
14.630000 0.339526 0
14.635000 0.355965 0
14.640000 0.370974 0
14.645000 0.384343 0
14.650000 0.395879 0
14.655000 0.405410 0
14.660000 0.412789 0
14.665000 0.417900 0
14.670000 0.420654 0
14.675000 0.421001 5
14.680000 0.418924 0
14.685000 0.414442 0
14.690000 0.407609 0
14.695000 0.398514 0
14.700000 0.387279 0
14.705000 0.374054 0
14.710000 0.359016 0
14.715000 0.342363 0
14.720000 0.324311 0
14.725000 0.305089 0
14.730000 0.284933 0
14.735000 0.264082 0
14.740000 0.242774 0
14.745000 0.221239 0
14.750000 0.199699 0
14.755000 0.178362 0
14.760000 0.157416 0
14.765000 0.137033 0
14.770000 0.117363 0
14.775000 0.098534 0
14.780000 0.080650 0
14.785000 0.063794 0
14.790000 0.048027 0
14.795000 0.033387 0
14.800000 0.019894 0
14.805000 0.007551 0
14.810000 -0.003657 0
14.815000 -0.013759 0
14.820000 -0.022793 0
14.825000 -0.030808 0
14.830000 -0.037862 0
14.835000 -0.044016 0
14.840000 -0.049335 0
14.845000 -0.053887 0
14.850000 -0.057740 0
14.855000 -0.060959 0
14.860000 -0.063611 0
14.865000 -0.065756 0
14.870000 -0.067454 0
14.875000 -0.068759 0
14.880000 -0.069722 0
14.885000 -0.070388 0
14.890000 -0.070799 0
14.895000 -0.070993 0
14.900000 -0.071003 0
14.905000 -0.070858 0
14.910000 -0.070583 0
14.915000 -0.070201 0
14.920000 -0.069731 0
14.925000 -0.069188 0
14.930000 -0.068588 0
14.935000 -0.067940 0
14.940000 -0.067255 0
14.945000 -0.066542 0
14.950000 -0.065806 0
14.955000 -0.065053 0
14.960000 -0.064287 0
14.965000 -0.063512 0
14.970000 -0.062731 0
14.975000 -0.061946 0
14.980000 -0.061159 0
14.985000 -0.060359 0
14.990000 -0.059561 0
14.995000 -0.058767 0
15.000000 -0.057977 0
15.005000 -0.057190 0
15.010000 -0.056408 0
15.015000 -0.055629 0
15.020000 -0.054855 0
15.025000 -0.054084 0
15.030000 -0.053317 0
15.035000 -0.052554 0
15.040000 -0.051795 0
15.045000 -0.051039 0
15.050000 -0.050288 0
15.055000 -0.049540 0
15.060000 -0.048795 0
15.065000 -0.048055 0
15.070000 -0.047318 0
15.075000 -0.046585 0
15.080000 -0.045855 0
15.085000 -0.045130 0
15.090000 -0.044407 0
15.095000 -0.043689 0
15.100000 -0.042974 0
15.105000 -0.042262 0
15.110000 -0.041554 0
15.115000 -0.040850 0
15.120000 -0.040149 0
15.125000 -0.039451 0
15.130000 -0.038758 0
15.135000 -0.038067 0
15.140000 -0.037380 0
15.145000 -0.036696 0
15.150000 -0.036016 0
15.155000 -0.035339 0
15.160000 -0.034666 0
15.165000 -0.033996 0
15.170000 -0.033329 0
15.175000 -0.032665 0
15.180000 -0.032004 0
15.185000 -0.031346 0
15.190000 -0.030691 0
15.195000 -0.030038 0
15.200000 -0.029385 0
15.205000 -0.028733 0
15.210000 -0.028080 0
15.215000 -0.027421 0
15.220000 -0.026755 0
15.225000 -0.026075 0
15.230000 -0.025372 0
15.235000 -0.024636 0
15.240000 -0.023851 0
15.245000 -0.022996 0
15.250000 -0.022042 0
15.255000 -0.020952 0
15.260000 -0.019678 0
15.265000 -0.018160 0
15.270000 -0.016323 0
15.275000 -0.014077 0
15.280000 -0.011315 0
15.285000 -0.007914 0
15.290000 -0.003738 0
15.295000 0.001366 0
15.300000 0.007551 0
15.305000 0.014976 0
15.310000 0.023789 0
15.315000 0.034116 0
15.320000 0.046054 0
15.325000 0.059652 0
15.330000 0.074902 0
15.335000 0.091722 0
15.340000 0.109950 0
15.345000 0.129336 0
15.350000 0.149543 0
15.355000 0.170146 0
15.360000 0.190651 0
15.365000 0.210503 0
15.370000 0.229116 0
15.375000 0.245899 0
15.380000 0.260283 0
15.385000 0.271757 0
15.390000 0.279895 0
15.395000 0.284382 0
15.400000 0.285036 1
15.405000 0.281815 0
15.410000 0.274827 0
15.415000 0.264316 0
15.420000 0.250653 0
15.425000 0.234312 0
15.430000 0.215843 0
15.435000 0.195839 0
15.440000 0.174907 0
15.445000 0.153636 0
15.450000 0.132572 0
15.455000 0.112195 0
15.460000 0.092905 0
15.465000 0.075011 0
15.470000 0.058726 0
15.475000 0.044166 0
15.480000 0.031341 0
15.485000 0.020133 0
15.490000 0.010250 0
15.495000 0.001148 0
15.500000 -0.008074 0
15.505000 -0.018738 0
15.510000 -0.032530 0
15.515000 -0.051188 0
15.520000 -0.075865 0
15.525000 -0.106243 0
15.530000 -0.139679 0
15.535000 -0.170769 0
15.540000 -0.191620 0
15.545000 -0.192798 2
15.550000 -0.164594 0
15.555000 -0.098289 0
15.560000 0.012527 0
15.565000 0.170088 0
15.570000 0.369671 0
15.575000 0.596595 0
15.580000 0.824929 0
15.585000 1.020206 0
15.590000 1.146941 0
15.595000 1.178908 3
15.600000 1.107647 0
15.605000 0.945657 0
15.610000 0.722001 0
15.615000 0.472842 0
15.620000 0.231721 0
15.625000 0.023349 0
15.630000 -0.138024 0
15.635000 -0.247145 0
15.640000 -0.305479 0
15.645000 -0.319471 4
15.650000 -0.299254 0
15.655000 -0.257126 0
15.660000 -0.205479 0
15.665000 -0.154618 0
15.670000 -0.111271 0
15.675000 -0.078290 0
15.680000 -0.055441 0
15.685000 -0.040720 0
15.690000 -0.031599 0
15.695000 -0.025833 0
15.700000 -0.021785 0
15.705000 -0.018420 0
15.710000 -0.015149 0
15.715000 -0.011658 0
15.720000 -0.007779 0
15.725000 -0.003409 0
15.730000 0.001527 0
15.735000 0.007095 0
15.740000 0.013357 0
15.745000 0.020375 0
15.750000 0.028206 0
15.755000 0.036906 0
15.760000 0.046523 0
15.765000 0.057099 0
15.770000 0.068668 0
15.775000 0.081250 0
15.780000 0.094853 0
15.785000 0.109469 0
15.790000 0.125074 0
15.795000 0.141621 0
15.800000 0.159048 0
15.805000 0.177268 0
15.810000 0.196174 0
15.815000 0.215637 0
15.820000 0.235505 0
15.825000 0.255609 0
15.830000 0.275759 0
15.835000 0.295751 0
15.840000 0.315369 0
15.845000 0.334386 0
15.850000 0.352570 0
15.855000 0.369690 0
15.860000 0.385518 0
15.865000 0.399835 0
15.870000 0.412435 0
15.875000 0.423133 0
15.880000 0.431763 0
15.885000 0.438190 0
15.890000 0.442306 0
15.895000 0.444038 5
15.900000 0.443345 0
15.905000 0.440226 0
15.910000 0.434713 0
15.915000 0.426875 0
15.920000 0.416813 0
15.925000 0.404662 0
15.930000 0.390583 0
15.935000 0.374764 0
15.940000 0.357411 0
15.945000 0.338747 0
15.950000 0.319005 0
15.955000 0.298425 0
15.960000 0.277248 0
15.965000 0.255709 0
15.970000 0.234037 0
15.975000 0.212448 0
15.980000 0.191145 0
15.985000 0.170311 0
15.990000 0.150107 0
15.995000 0.130677 0
16.000000 0.112137 0
16.005000 0.094585 0
16.010000 0.078092 0
16.015000 0.062711 0
16.020000 0.048472 0
16.025000 0.035386 0
16.030000 0.023448 0
16.035000 0.012637 0
16.040000 0.002920 0
16.045000 -0.005747 0
16.050000 -0.013419 0
16.055000 -0.020154 0
16.060000 -0.026016 0
16.065000 -0.031072 0
16.070000 -0.035390 0
16.075000 -0.039038 0
16.080000 -0.042082 0
16.085000 -0.044586 0
16.090000 -0.046611 0
16.095000 -0.048213 0
16.100000 -0.049445 0
16.105000 -0.050357 0
16.110000 -0.050992 0
16.115000 -0.051390 0
16.120000 -0.051587 0
16.125000 -0.051613 0
16.130000 -0.051497 0
16.135000 -0.051262 0
16.140000 -0.050929 0
16.145000 -0.050515 0
16.150000 -0.050035 0
16.155000 -0.049503 0
16.160000 -0.048929 0
16.165000 -0.048322 0
16.170000 -0.047688 0
16.175000 -0.047035 0
16.180000 -0.046366 0
16.185000 -0.045687 0
16.190000 -0.044999 0
16.195000 -0.044306 0
16.200000 -0.043609 0
16.205000 -0.042908 0
16.210000 -0.042197 0
16.215000 -0.041490 0
16.220000 -0.040786 0
16.225000 -0.040085 0
16.230000 -0.039388 0
16.235000 -0.038694 0
16.240000 -0.038004 0
16.245000 -0.037317 0
16.250000 -0.036634 0
16.255000 -0.035954 0
16.260000 -0.035278 0
16.265000 -0.034605 0
16.270000 -0.033935 0
16.275000 -0.033269 0
16.280000 -0.032606 0
16.285000 -0.031946 0
16.290000 -0.031289 0
16.295000 -0.030636 0
16.300000 -0.029986 0
16.305000 -0.029339 0
16.310000 -0.028696 0
16.315000 -0.028056 0
16.320000 -0.027419 0
16.325000 -0.026785 0
16.330000 -0.026154 0
16.335000 -0.025526 0
16.340000 -0.024902 0
16.345000 -0.024280 0
16.350000 -0.023662 0
16.355000 -0.023047 0
16.360000 -0.022435 0
16.365000 -0.021826 0
16.370000 -0.021220 0
16.375000 -0.020617 0
16.380000 -0.020017 0
16.385000 -0.019420 0
16.390000 -0.018825 0
16.395000 -0.018234 0
16.400000 -0.017645 0
16.405000 -0.017059 0
16.410000 -0.016476 0
16.415000 -0.015894 0
16.420000 -0.015313 0
16.425000 -0.014732 0
16.430000 -0.014150 0
16.435000 -0.013564 0
16.440000 -0.012972 0
16.445000 -0.012367 0
16.450000 -0.011742 0
16.455000 -0.011088 0
16.460000 -0.010390 0
16.465000 -0.009630 0
16.470000 -0.008780 0
16.475000 -0.007806 0
16.480000 -0.006665 0
16.485000 -0.005299 0
16.490000 -0.003639 0
16.495000 -0.001599 0
16.500000 0.000924 0
16.505000 0.004047 0
16.510000 0.007905 0
16.515000 0.012645 0
16.520000 0.018423 0
16.525000 0.025397 0
16.530000 0.033720 0
16.535000 0.043527 0
16.540000 0.054925 0
16.545000 0.067979 0
16.550000 0.082699 0
16.555000 0.099024 0
16.560000 0.116817 0
16.565000 0.135850 0
16.570000 0.155809 0
16.575000 0.176291 0
16.580000 0.196817 0
16.585000 0.216842 0
16.590000 0.235786 0
16.595000 0.253051 0
16.600000 0.268056 0
16.605000 0.280270 0
16.610000 0.289241 0
16.615000 0.294620 0
16.620000 0.296189 1
16.625000 0.293871 0
16.630000 0.287736 0
16.635000 0.277998 0
16.640000 0.264999 0
16.645000 0.249194 0
16.650000 0.231120 0
16.655000 0.211365 0
16.660000 0.190539 0
16.665000 0.169242 0
16.670000 0.148033 0
16.675000 0.127412 0
16.680000 0.107799 0
16.685000 0.089526 0
16.690000 0.072828 0
16.695000 0.057843 0
16.700000 0.044605 0
16.705000 0.033026 0
16.710000 0.022853 0
16.715000 0.013599 0
16.720000 0.004439 0
16.725000 -0.005869 0
16.730000 -0.018965 0
16.735000 -0.036623 0
16.740000 -0.060179 0
16.745000 -0.089666 0
16.750000 -0.122914 0
16.755000 -0.155005 0
16.760000 -0.178408 0
16.765000 -0.183827 2
16.770000 -0.161459 0
16.775000 -0.102279 0
16.780000 0.000665 0
16.785000 0.150498 0
16.790000 0.343856 0
16.795000 0.567787 0
16.800000 0.797997 0
16.805000 1.000820 0
16.810000 1.140102 0
16.815000 1.187393 3
16.820000 1.130039 0
16.825000 0.977587 0
16.830000 0.758540 0
16.835000 0.510096 0
16.840000 0.267542 0
16.845000 0.057182 0
16.850000 -0.105716 0
16.855000 -0.215463 0
16.860000 -0.273513 0
16.865000 -0.286582 4
16.870000 -0.265254 0
16.875000 -0.222326 0
16.880000 -0.170563 0
16.885000 -0.120382 0
16.890000 -0.078343 0
16.895000 -0.046967 0
16.900000 -0.025680 0
16.905000 -0.012250 0
16.910000 -0.004064 0
16.915000 0.001096 0
16.920000 0.004788 0
16.925000 0.007960 0
16.930000 0.011140 0
16.935000 0.014602 0
16.940000 0.018496 0
16.945000 0.022916 0
16.950000 0.027937 0
16.955000 0.033625 0
16.960000 0.040044 0
16.965000 0.047257 0
16.970000 0.055323 0
16.975000 0.064297 0
16.980000 0.074226 0
16.985000 0.085150 0
16.990000 0.097099 0
16.995000 0.110087 0
17.000000 0.124114 0
17.005000 0.139163 0
17.010000 0.155198 0
17.015000 0.172161 0
17.020000 0.189973 0
17.025000 0.208531 0
17.030000 0.227709 0
17.035000 0.247360 0
17.040000 0.267314 0
17.045000 0.287382 0
17.050000 0.307355 0
17.055000 0.327012 0
17.060000 0.346120 0
17.065000 0.364442 0
17.070000 0.381735 0
17.075000 0.397763 0
17.080000 0.412295 0
17.085000 0.425115 0
17.090000 0.436028 0
17.095000 0.444857 0
17.100000 0.451459 0
17.105000 0.455717 0
17.110000 0.457553 5
17.115000 0.456922 0
17.120000 0.453820 0
17.125000 0.448278 0
17.130000 0.440367 0
17.135000 0.430194 0
17.140000 0.417896 0
17.145000 0.403643 0
17.150000 0.387630 0
17.155000 0.370073 0
17.160000 0.351203 0
17.165000 0.331264 0
17.170000 0.310504 0
17.175000 0.289172 0
17.180000 0.267512 0
17.185000 0.245759 0
17.190000 0.224136 0
17.195000 0.202846 0
17.200000 0.182075 0
17.205000 0.161986 0
17.210000 0.142720 0
17.215000 0.124392 0
17.220000 0.107094 0
17.225000 0.090896 0
17.230000 0.075841 0
17.235000 0.061955 0
17.240000 0.049243 0
17.245000 0.037692 0
17.250000 0.027275 0
17.255000 0.017953 0
17.260000 0.009673 0
17.265000 0.002380 0
17.270000 -0.003993 0
17.275000 -0.009512 0
17.280000 -0.014248 0
17.285000 -0.018272 0
17.290000 -0.021652 0
17.295000 -0.024456 0
17.300000 -0.026749 0
17.305000 -0.028590 0
17.310000 -0.030037 0
17.315000 -0.031141 0
17.320000 -0.031949 0
17.325000 -0.032504 0
17.330000 -0.032845 0
17.335000 -0.033003 0
17.340000 -0.033010 0
17.345000 -0.032890 0
17.350000 -0.032666 0
17.355000 -0.032356 0
17.360000 -0.031977 0
17.365000 -0.031541 0
17.370000 -0.031062 0
17.375000 -0.030546 0
17.380000 -0.030004 0
17.385000 -0.029440 0
17.390000 -0.028860 0
17.395000 -0.028268 0
17.400000 -0.027667 0
17.405000 -0.027060 0
17.410000 -0.026449 0
17.415000 -0.025834 0
17.420000 -0.025208 0
17.425000 -0.024585 0
17.430000 -0.023965 0
17.435000 -0.023349 0
17.440000 -0.022735 0
17.445000 -0.022124 0
17.450000 -0.021517 0
17.455000 -0.020912 0
17.460000 -0.020311 0
17.465000 -0.019712 0
17.470000 -0.019117 0
17.475000 -0.018525 0
17.480000 -0.017935 0
17.485000 -0.017348 0
17.490000 -0.016765 0
17.495000 -0.016184 0
17.500000 -0.015606 0
17.505000 -0.015031 0
17.510000 -0.014459 0
17.515000 -0.013890 0
17.520000 -0.013323 0
17.525000 -0.012760 0
17.530000 -0.012199 0
17.535000 -0.011641 0
17.540000 -0.011086 0
17.545000 -0.010533 0
17.550000 -0.009983 0
17.555000 -0.009437 0
17.560000 -0.008892 0
17.565000 -0.008351 0
17.570000 -0.007812 0
17.575000 -0.007276 0
17.580000 -0.006742 0
17.585000 -0.006212 0
17.590000 -0.005683 0
17.595000 -0.005158 0
17.600000 -0.004635 0
17.605000 -0.004114 0
17.610000 -0.003595 0
17.615000 -0.003079 0
17.620000 -0.002564 0
17.625000 -0.002050 0
17.630000 -0.001536 0
17.635000 -0.001020 0
17.640000 -0.000501 0
17.645000 0.000025 0
17.650000 0.000564 0
17.655000 0.001122 0
17.660000 0.001710 0
17.665000 0.002342 0
17.670000 0.003038 0
17.675000 0.003826 0
17.680000 0.004740 0
17.685000 0.005827 0
17.690000 0.007147 0
17.695000 0.008772 0
17.700000 0.010794 0
17.705000 0.013320 0
17.710000 0.016474 0
17.715000 0.020397 0
17.720000 0.025245 0
17.725000 0.031180 0
17.730000 0.038365 0
17.735000 0.046957 0
17.740000 0.057090 0
17.745000 0.068866 0
17.750000 0.082338 0
17.755000 0.097498 0
17.760000 0.114260 0
17.765000 0.132452 0
17.770000 0.151809 0
17.775000 0.171971 0
17.780000 0.192490 0
17.785000 0.212839 0
17.790000 0.232437 0
17.795000 0.250668 0
17.800000 0.266918 0
17.805000 0.280605 0
17.810000 0.291211 0
17.815000 0.298319 0
17.820000 0.301636 1
17.825000 0.301012 0
17.830000 0.296452 0
17.835000 0.288115 0
17.840000 0.276303 0
17.845000 0.261447 0
17.850000 0.244073 0
17.855000 0.224778 0
17.860000 0.204189 0
17.865000 0.182934 0
17.870000 0.161610 0
17.875000 0.140753 0
17.880000 0.120822 0
17.885000 0.102183 0
17.890000 0.085105 0
17.895000 0.069750 0
17.900000 0.056175 0
17.905000 0.044310 0
17.910000 0.033926 0
17.915000 0.024552 0
17.920000 0.015377 0
17.925000 0.005154 0
17.930000 -0.007788 0
17.935000 -0.025295 0
17.940000 -0.048780 0
17.945000 -0.078310 0
17.950000 -0.111638 0
17.955000 -0.143617 0
17.960000 -0.166356 0
17.965000 -0.170159 2
17.970000 -0.144877 0
17.975000 -0.081289 0
17.980000 0.027483 0
17.985000 0.183989 0
17.990000 0.383480 0
17.995000 0.610646 0
18.000000 0.838240 0
18.005000 1.030140 0
18.010000 1.149694 0
18.015000 1.170884 3
18.020000 1.085713 0
18.025000 0.909929 0
18.030000 0.677316 0
18.035000 0.427328 0
18.040000 0.194275 0
18.045000 0.001464 0
18.050000 -0.139339 0
18.055000 -0.225596 0
18.060000 -0.261482 4
18.065000 -0.256129 0
18.070000 -0.222044 0
18.075000 -0.172950 0
18.080000 -0.121158 0
18.085000 -0.075402 0
18.090000 -0.039989 0
18.095000 -0.015394 0
18.100000 0.000269 0
18.105000 0.009723 0
18.110000 0.015473 0
18.115000 0.019354 0
18.120000 0.022513 0
18.125000 0.025587 0
18.130000 0.028909 0
18.135000 0.032654 0
18.140000 0.036927 0
18.145000 0.041807 0
18.150000 0.047365 0
18.155000 0.053669 0
18.160000 0.060785 0
18.165000 0.068775 0
18.170000 0.077696 0
18.175000 0.087600 0
18.180000 0.098527 0
18.185000 0.110506 0
18.190000 0.123553 0
18.195000 0.137666 0
18.200000 0.152824 0
18.205000 0.168985 0
18.210000 0.186085 0
18.215000 0.204036 0
18.220000 0.222723 0
18.225000 0.242010 0
18.230000 0.261733 0
18.235000 0.281709 0
18.240000 0.301731 0
18.245000 0.321575 0
18.250000 0.341005 0
18.255000 0.359772 0
18.260000 0.377624 0
18.265000 0.394308 0
18.270000 0.409580 0
18.275000 0.423203 0
18.280000 0.434961 0
18.285000 0.444660 0
18.290000 0.452133 0
18.295000 0.457247 0
18.300000 0.459904 0
18.305000 0.460044 5
18.310000 0.457649 0
18.315000 0.452741 0
18.320000 0.445383 0
18.325000 0.435677 0
18.330000 0.423761 0
18.335000 0.409807 0
18.340000 0.394015 0
18.345000 0.376608 0
18.350000 0.357828 0
18.355000 0.337930 0
18.360000 0.317173 0
18.365000 0.295820 0
18.370000 0.274126 0
18.375000 0.252338 0
18.380000 0.230689 0
18.385000 0.209393 0
18.390000 0.188642 0
18.395000 0.168606 0
18.400000 0.149429 0
18.405000 0.131228 0
18.410000 0.114096 0
18.415000 0.098101 0
18.420000 0.083284 0
18.425000 0.069666 0
18.430000 0.057247 0
18.435000 0.046010 0
18.440000 0.035922 0
18.445000 0.026936 0
18.450000 0.018997 0
18.455000 0.012040 0
18.460000 0.005996 0
18.465000 0.000794 0
18.470000 -0.003642 0
18.475000 -0.007383 0
18.480000 -0.010504 0
18.485000 -0.013071 0
18.490000 -0.015151 0
18.495000 -0.016804 0
18.500000 -0.018087 0
18.505000 -0.019051 0
18.510000 -0.019742 0
18.515000 -0.020201 0
18.520000 -0.020466 0
18.525000 -0.020567 0
18.530000 -0.020533 0
18.535000 -0.020388 0
18.540000 -0.020152 0
18.545000 -0.019842 0
18.550000 -0.019473 0
18.555000 -0.019057 0
18.560000 -0.018603 0
18.565000 -0.018121 0
18.570000 -0.017617 0
18.575000 -0.017095 0
18.580000 -0.016561 0
18.585000 -0.016018 0
18.590000 -0.015469 0
18.595000 -0.014915 0
18.600000 -0.014357 0
18.605000 -0.013788 0
18.610000 -0.013222 0
18.615000 -0.012659 0
18.620000 -0.012099 0
18.625000 -0.011541 0
18.630000 -0.010986 0
18.635000 -0.010434 0
18.640000 -0.009885 0
18.645000 -0.009339 0
18.650000 -0.008795 0
18.655000 -0.008254 0
18.660000 -0.007716 0
18.665000 -0.007180 0
18.670000 -0.006647 0
18.675000 -0.006117 0
18.680000 -0.005589 0
18.685000 -0.005064 0
18.690000 -0.004542 0
18.695000 -0.004022 0
18.700000 -0.003505 0
18.705000 -0.002990 0
18.710000 -0.002478 0
18.715000 -0.001968 0
18.720000 -0.001461 0
18.725000 -0.000957 0
18.730000 -0.000455 0
18.735000 0.000044 0
18.740000 0.000541 0
18.745000 0.001036 0
18.750000 0.001528 0
18.755000 0.002017 0
18.760000 0.002504 0
18.765000 0.002989 0
18.770000 0.003471 0
18.775000 0.003951 0
18.780000 0.004429 0
18.785000 0.004905 0
18.790000 0.005378 0
18.795000 0.005850 0
18.800000 0.006321 0
18.805000 0.006791 0
18.810000 0.007261 0
18.815000 0.007734 0
18.820000 0.008211 0
18.825000 0.008697 0
18.830000 0.009198 0
18.835000 0.009722 0
18.840000 0.010281 0
18.845000 0.010891 0
18.850000 0.011577 0
18.855000 0.012370 0
18.860000 0.013311 0
18.865000 0.014455 0
18.870000 0.015871 0
18.875000 0.017644 0
18.880000 0.019878 0
18.885000 0.022695 0
18.890000 0.026237 0
18.895000 0.030660 0
18.900000 0.036133 0
18.905000 0.042827 0
18.910000 0.050912 0
18.915000 0.060537 0
18.920000 0.071822 0
18.925000 0.084838 0
18.930000 0.099593 0
18.935000 0.116018 0
18.940000 0.133950 0
18.945000 0.153129 0
18.950000 0.173192 0
18.955000 0.193680 0
18.960000 0.214047 0
18.965000 0.233687 0
18.970000 0.251954 0
18.975000 0.268203 0
18.980000 0.281822 0
18.985000 0.292270 0
18.990000 0.299114 0
18.995000 0.302055 1
19.000000 0.300952 0
19.005000 0.295828 0
19.010000 0.286872 0
19.015000 0.274427 0
19.020000 0.258966 0
19.025000 0.241059 0
19.030000 0.221344 0
19.035000 0.200484 0
19.040000 0.179131 0
19.045000 0.157894 0
19.050000 0.137310 0
19.055000 0.117826 0
19.060000 0.099788 0
19.065000 0.083431 0
19.070000 0.068879 0
19.075000 0.056132 0
19.080000 0.045041 0
19.085000 0.035247 0
19.090000 0.026076 0
19.095000 0.016425 0
19.100000 0.004708 0
19.105000 -0.010994 0
19.110000 -0.032420 0
19.115000 -0.060227 0
19.120000 -0.092900 0
19.125000 -0.125926 0
19.130000 -0.151711 0
19.135000 -0.160408 2
19.140000 -0.141343 0
19.145000 -0.084549 0
19.150000 0.017706 0
19.155000 0.168873 0
19.160000 0.364992 0
19.165000 0.591063 0
19.170000 0.819249 0
19.175000 1.011902 0
19.180000 1.130534 0
19.185000 1.148058 3
19.190000 1.060323 0
19.195000 0.884582 0
19.200000 0.652994 0
19.205000 0.403094 0
19.210000 0.167926 0
19.215000 -0.029508 0
19.220000 -0.177017 0
19.225000 -0.271239 0
19.230000 -0.315301 0
19.235000 -0.317147 4
19.240000 -0.288157 0
19.245000 -0.241328 0
19.250000 -0.188939 0
19.255000 -0.140392 0
19.260000 -0.101063 0
19.265000 -0.072474 0
19.270000 -0.053448 0
19.275000 -0.041547 0
19.280000 -0.034219 0
19.285000 -0.029424 0
19.290000 -0.025787 0
19.295000 -0.022494 0
19.300000 -0.019103 0
19.305000 -0.015383 0
19.310000 -0.011205 0
19.315000 -0.006480 0
19.320000 -0.001139 0
19.325000 0.004884 0
19.330000 0.011653 0
19.335000 0.019228 0
19.340000 0.027670 0
19.345000 0.037029 0
19.350000 0.047353 0
19.355000 0.058678 0
19.360000 0.071029 0
19.365000 0.084419 0
19.370000 0.098844 0
19.375000 0.114281 0
19.380000 0.130690 0
19.385000 0.148007 0
19.390000 0.166149 0
19.395000 0.185006 0
19.400000 0.204450 0
19.405000 0.224327 0
19.410000 0.244463 0
19.415000 0.264665 0
19.420000 0.284722 0
19.425000 0.304410 0
19.430000 0.323496 0
19.435000 0.341741 0
19.440000 0.358904 0
19.445000 0.374751 0
19.450000 0.389055 0
19.455000 0.401604 0
19.460000 0.412207 0
19.465000 0.420696 0
19.470000 0.426932 0
19.475000 0.430808 0
19.480000 0.432252 5
19.485000 0.431228 0
19.490000 0.427739 0
19.495000 0.421825 0
19.500000 0.413565 0
19.505000 0.403070 0
19.510000 0.390485 0
19.515000 0.375986 0
19.520000 0.359770 0
19.525000 0.342056 0
19.530000 0.323079 0
19.535000 0.303082 0
19.540000 0.282313 0
19.545000 0.261019 0
19.550000 0.239444 0
19.555000 0.217819 0
19.560000 0.196362 0
19.565000 0.175273 0
19.570000 0.154734 0
19.575000 0.134904 0
19.580000 0.115917 0
19.585000 0.097885 0
19.590000 0.080895 0
19.595000 0.065012 0
19.600000 0.050276 0
19.605000 0.036709 0
19.610000 0.024312 0
19.615000 0.013071 0
19.620000 0.002956 0
19.625000 -0.006075 0
19.630000 -0.014074 0
19.635000 -0.021100 0
19.640000 -0.027217 0
19.645000 -0.032494 0
19.650000 -0.037001 0
19.655000 -0.040808 0
19.660000 -0.043984 0
19.665000 -0.046596 0
19.670000 -0.048707 0
19.675000 -0.050377 0
19.680000 -0.051661 0
19.685000 -0.052611 0
19.690000 -0.053273 0
19.695000 -0.053689 0
19.700000 -0.053895 0
19.705000 -0.053926 0
19.710000 -0.053808 0
19.715000 -0.053569 0
19.720000 -0.053229 0
19.725000 -0.052806 0
19.730000 -0.052316 0
19.735000 -0.051772 0
19.740000 -0.051186 0
19.745000 -0.050566 0
19.750000 -0.049920 0
19.755000 -0.049254 0
19.760000 -0.048573 0
19.765000 -0.047881 0
19.770000 -0.047181 0
19.775000 -0.046476 0
19.780000 -0.045768 0
19.785000 -0.045056 0
19.790000 -0.044334 0
19.795000 -0.043616 0
19.800000 -0.042901 0
19.805000 -0.042190 0
19.810000 -0.041482 0
19.815000 -0.040778 0
19.820000 -0.040078 0
19.825000 -0.039381 0
19.830000 -0.038687 0
19.835000 -0.037997 0
19.840000 -0.037310 0
19.845000 -0.036627 0
19.850000 -0.035947 0
19.855000 -0.035271 0
19.860000 -0.034598 0
19.865000 -0.033928 0
19.870000 -0.033262 0
19.875000 -0.032599 0
19.880000 -0.031939 0
19.885000 -0.031282 0
19.890000 -0.030629 0
19.895000 -0.029979 0
19.900000 -0.029333 0
19.905000 -0.028689 0
19.910000 -0.028049 0
19.915000 -0.027412 0
19.920000 -0.026778 0
19.925000 -0.026147 0
19.930000 -0.025520 0
19.935000 -0.024895 0
19.940000 -0.024274 0
19.945000 -0.023656 0
19.950000 -0.023041 0
19.955000 -0.022428 0
19.960000 -0.021819 0
19.965000 -0.021213 0
19.970000 -0.020610 0
19.975000 -0.020009 0
19.980000 -0.019412 0
19.985000 -0.018816 0
19.990000 -0.018223 0
19.995000 -0.017631 0
20.000000 -0.017039 0
20.005000 -0.016446 0
20.010000 -0.015849 0
20.015000 -0.015246 0
20.020000 -0.014630 0
20.025000 -0.013995 0
20.030000 -0.013330 0
20.035000 -0.012620 0
20.040000 -0.011846 0
20.045000 -0.010980 0
20.050000 -0.009986 0
20.055000 -0.008818 0
20.060000 -0.007416 0
20.065000 -0.005705 0
20.070000 -0.003597 0
20.075000 -0.000982 0
20.080000 0.002264 0
20.085000 0.006282 0
20.090000 0.011227 0
20.095000 0.017261 0
20.100000 0.024547 0
20.105000 0.033240 0
20.110000 0.043474 0
20.115000 0.055349 0
20.120000 0.068919 0
20.125000 0.084172 0
20.130000 0.101022 0
20.135000 0.119298 0
20.140000 0.138732 0
20.145000 0.158966 0
20.150000 0.179551 0
20.155000 0.199963 0
20.160000 0.219620 0
20.165000 0.237911 0
20.170000 0.254221 0
20.175000 0.267971 0
20.180000 0.278645 0
20.185000 0.285827 0
20.190000 0.289224 1
20.195000 0.288686 0
20.200000 0.284217 0
20.205000 0.275974 0
20.210000 0.264258 0
20.215000 0.249496 0
20.220000 0.232214 0
20.225000 0.213003 0
20.230000 0.192491 0
20.235000 0.171303 0
20.240000 0.150035 0
20.245000 0.129223 0
20.250000 0.109326 0
20.255000 0.090712 0
20.260000 0.073650 0
20.265000 0.058306 0
20.270000 0.044739 0
20.275000 0.032884 0
20.280000 0.022517 0
20.285000 0.013179 0
20.290000 0.004074 0
20.295000 -0.006025 0
20.300000 -0.018772 0
20.305000 -0.036008 0
20.310000 -0.059176 0
20.315000 -0.088418 0
20.320000 -0.121608 0
20.325000 -0.153746 0
20.330000 -0.177073 0
20.335000 -0.181978 2
20.340000 -0.158333 0
20.345000 -0.096865 0
20.350000 0.009443 0
20.355000 0.163432 0
20.360000 0.360855 0
20.365000 0.587107 0
20.370000 0.815679 0
20.375000 1.010896 0
20.380000 1.135935 0
20.385000 1.163881 3
20.390000 1.087508 0
20.395000 0.920920 0
20.400000 0.694396 0
20.405000 0.444813 0
20.410000 0.205749 0
20.415000 0.001427 0
20.420000 -0.154615 0
20.425000 -0.257837 0
20.430000 -0.310371 0
20.435000 -0.319289 4
20.440000 -0.295283 0
20.445000 -0.251008 0
20.450000 -0.198883 0
20.455000 -0.148896 0
20.460000 -0.107230 0
20.465000 -0.076164 0
20.470000 -0.055032 0
20.475000 -0.041610 0
20.480000 -0.033335 0
20.485000 -0.028040 0
20.490000 -0.024200 0
20.495000 -0.020881 0
20.500000 -0.017562 0
20.505000 -0.013970 0
20.510000 -0.009955 0
20.515000 -0.005424 0
20.520000 -0.000302 0
20.525000 0.005475 0
20.530000 0.011970 0
20.535000 0.019245 0
20.540000 0.027359 0
20.545000 0.036365 0
20.550000 0.046311 0
20.555000 0.057238 0
20.560000 0.069175 0
20.565000 0.082138 0
20.570000 0.096131 0
20.575000 0.111139 0
20.580000 0.127130 0
20.585000 0.144050 0
20.590000 0.161826 0
20.595000 0.180362 0
20.600000 0.199540 0
20.605000 0.219218 0
20.610000 0.239235 0
20.615000 0.259409 0
20.620000 0.279540 0
20.625000 0.299415 0
20.630000 0.318808 0
20.635000 0.337486 0
20.640000 0.355212 0
20.645000 0.371752 0
20.650000 0.386878 0
20.655000 0.400373 0
20.660000 0.412038 0
20.665000 0.421694 0
20.670000 0.429188 0
20.675000 0.434398 0
20.680000 0.437231 0
20.685000 0.437633 5
20.690000 0.435584 0
20.695000 0.431101 0
20.700000 0.424239 0
20.705000 0.415088 0
20.710000 0.403772 0
20.715000 0.390445 0
20.720000 0.375286 0
20.725000 0.358500 0
20.730000 0.340307 0
20.735000 0.320942 0
20.740000 0.300647 0
20.745000 0.279666 0
20.750000 0.258241 0
20.755000 0.236608 0
20.760000 0.214993 0
20.765000 0.193604 0
20.770000 0.172634 0
20.775000 0.152256 0
20.780000 0.132618 0
20.785000 0.113849 0
20.790000 0.096051 0
20.795000 0.079305 0
20.800000 0.063669 0
20.805000 0.049178 0
20.810000 0.035849 0
20.815000 0.023680 0
20.820000 0.012652 0
20.825000 0.002735 0
20.830000 -0.006114 0
20.835000 -0.013950 0
20.840000 -0.020829 0
20.845000 -0.026818 0
20.850000 -0.031984 0
20.855000 -0.036396 0
20.860000 -0.040122 0
20.865000 -0.043231 0
20.870000 -0.045788 0
20.875000 -0.047854 0
20.880000 -0.049489 0
20.885000 -0.050746 0
20.890000 -0.051676 0
20.895000 -0.052323 0
20.900000 -0.052729 0
20.905000 -0.052929 0
20.910000 -0.052956 0
20.915000 -0.052838 0
20.920000 -0.052599 0
20.925000 -0.052261 0
20.930000 -0.051842 0
20.935000 -0.051356 0
20.940000 -0.050818 0
20.945000 -0.050236 0
20.950000 -0.049622 0
20.955000 -0.048981 0
20.960000 -0.048320 0
20.965000 -0.047645 0
20.970000 -0.046958 0
20.975000 -0.046263 0
20.980000 -0.045563 0
20.985000 -0.044860 0
20.990000 -0.044152 0
20.995000 -0.043435 0
21.000000 -0.042721 0
21.005000 -0.042011 0
21.010000 -0.041304 0
21.015000 -0.040601 0
21.020000 -0.039901 0
21.025000 -0.039205 0
21.030000 -0.038513 0
21.035000 -0.037823 0
21.040000 -0.037138 0
21.045000 -0.036455 0
21.050000 -0.035776 0
21.055000 -0.035101 0
21.060000 -0.034428 0
21.065000 -0.033760 0
21.070000 -0.033094 0
21.075000 -0.032432 0
21.080000 -0.031773 0
21.085000 -0.031117 0
21.090000 -0.030465 0
21.095000 -0.029816 0
21.100000 -0.029170 0
21.105000 -0.028527 0
21.110000 -0.027888 0
21.115000 -0.027252 0
21.120000 -0.026619 0
21.125000 -0.025989 0
21.130000 -0.025362 0
21.135000 -0.024738 0
21.140000 -0.024118 0
21.145000 -0.023500 0
21.150000 -0.022886 0
21.155000 -0.022275 0
21.160000 -0.021666 0
21.165000 -0.021061 0
21.170000 -0.020459 0
21.175000 -0.019859 0
21.180000 -0.019263 0
21.185000 -0.018669 0
21.190000 -0.018077 0
21.195000 -0.017488 0
21.200000 -0.016900 0
21.205000 -0.016313 0
21.210000 -0.015726 0
21.215000 -0.015136 0
21.220000 -0.014541 0
21.225000 -0.013937 0
21.230000 -0.013316 0
21.235000 -0.012672 0
21.240000 -0.011991 0
21.245000 -0.011256 0
21.250000 -0.010444 0
21.255000 -0.009525 0
21.260000 -0.008458 0
21.265000 -0.007190 0
21.270000 -0.005658 0
21.275000 -0.003781 0
21.280000 -0.001461 0
21.285000 0.001414 0
21.290000 0.004976 0
21.295000 0.009368 0
21.300000 0.014748 0
21.305000 0.021277 0
21.310000 0.029111 0
21.315000 0.038398 0
21.320000 0.049258 0
21.325000 0.061772 0
21.330000 0.075970 0
21.335000 0.091816 0
21.340000 0.109193 0
21.345000 0.127901 0
21.350000 0.147645 0
21.355000 0.168039 0
21.360000 0.188617 0
21.365000 0.208842 0
21.370000 0.228128 0
21.375000 0.245870 0
21.380000 0.261469 0
21.385000 0.274372 0
21.390000 0.284095 0
21.395000 0.290261 0
21.400000 0.292618 1
21.405000 0.291058 0
21.410000 0.285623 0
21.415000 0.276504 0
21.420000 0.264031 0
21.425000 0.248646 0
21.430000 0.230885 0
21.435000 0.211342 0
21.440000 0.190634 0
21.445000 0.169376 0
21.450000 0.148143 0
21.455000 0.127450 0
21.460000 0.107735 0
21.465000 0.089344 0
21.470000 0.072525 0
21.475000 0.057426 0
21.480000 0.044090 0
21.485000 0.032434 0
21.490000 0.022213 0
21.495000 0.012943 0
21.500000 0.003798 0
21.505000 -0.006474 0
21.510000 -0.019536 0
21.515000 -0.037192 0
21.520000 -0.060799 0
21.525000 -0.090374 0
21.530000 -0.123664 0
21.535000 -0.155590 0
21.540000 -0.178412 0
21.545000 -0.182626 2
21.550000 -0.158269 0
21.555000 -0.096249 0
21.560000 0.010302 0
21.565000 0.164154 0
21.570000 0.361158 0
21.575000 0.587071 0
21.580000 0.816013 0
21.585000 1.013028 0
21.590000 1.141723 0
21.595000 1.174958 3
21.600000 1.104375 0
21.605000 0.943140 0
21.610000 0.720042 0
21.615000 0.471022 0
21.620000 0.229533 0
21.625000 0.020328 0
21.630000 -0.142216 0
21.635000 -0.252693 0
21.640000 -0.312409 0
21.645000 -0.327649 4
21.650000 -0.308389 0
21.655000 -0.266819 0
21.660000 -0.215297 0
21.665000 -0.164193 0
21.670000 -0.120367 0
21.675000 -0.086823 0
21.680000 -0.063450 0
21.685000 -0.048312 0
21.690000 -0.038899 0
21.695000 -0.032948 0
21.700000 -0.028793 0
21.705000 -0.025371 0
21.710000 -0.022073 0
21.715000 -0.018572 0
21.720000 -0.014693 0
21.725000 -0.010331 0
21.730000 -0.005411 0
21.735000 0.000134 0
21.740000 0.006366 0
21.745000 0.013346 0
21.750000 0.021131 0
21.755000 0.029777 0
21.760000 0.039334 0
21.765000 0.049843 0
21.770000 0.061338 0
21.775000 0.073842 0
21.780000 0.087363 0
21.785000 0.101896 0
21.790000 0.117417 0
21.795000 0.133886 0
21.800000 0.151239 0
21.805000 0.169394 0
21.810000 0.188248 0
21.815000 0.207673 0
21.820000 0.227524 0
21.825000 0.247633 0
21.830000 0.267815 0
21.835000 0.287868 0
21.840000 0.307578 0
21.845000 0.326722 0
21.850000 0.345070 0
21.855000 0.362391 0
21.860000 0.378457 0
21.865000 0.393050 0
21.870000 0.405962 0
21.875000 0.417006 0
21.880000 0.426013 0
21.885000 0.432844 0
21.890000 0.437386 0
21.895000 0.439561 5
21.900000 0.439322 0
21.905000 0.436662 0
21.910000 0.431606 0
21.915000 0.424216 0
21.920000 0.414587 0
21.925000 0.402848 0
21.930000 0.389153 0
21.935000 0.373684 0
21.940000 0.356643 0
21.945000 0.338249 0
21.950000 0.318733 0
21.955000 0.298331 0
21.960000 0.277282 0
21.965000 0.255824 0
21.970000 0.234185 0
21.975000 0.212583 0
21.980000 0.191223 0
21.985000 0.170291 0
21.990000 0.149953 0
21.995000 0.130356 0
22.000000 0.111621 0
22.005000 0.093851 0
22.010000 0.077122 0
22.015000 0.061491 0
22.020000 0.046993 0
22.025000 0.033644 0
22.030000 0.021442 0
22.035000 0.010371 0
22.040000 0.000401 0
22.045000 -0.008511 0
22.050000 -0.016415 0
22.055000 -0.023368 0
22.060000 -0.029434 0
22.065000 -0.034678 0
22.070000 -0.039168 0
22.075000 -0.042971 0
22.080000 -0.046154 0
22.085000 -0.048780 0
22.090000 -0.050912 0
22.095000 -0.052606 0
22.100000 -0.053918 0
22.105000 -0.054895 0
22.110000 -0.055585 0
22.115000 -0.056027 0
22.120000 -0.056257 0
22.125000 -0.056309 0
22.130000 -0.056211 0
22.135000 -0.055987 0
22.140000 -0.055659 0
22.145000 -0.055246 0
22.150000 -0.054764 0
22.155000 -0.054225 0
22.160000 -0.053641 0
22.165000 -0.053021 0
22.170000 -0.052373 0
22.175000 -0.051703 0
22.180000 -0.051017 0
22.185000 -0.050319 0
22.190000 -0.049611 0
22.195000 -0.048898 0
22.200000 -0.048181 0
22.205000 -0.047461 0
22.210000 -0.046730 0
22.215000 -0.046000 0
22.220000 -0.045273 0
22.225000 -0.044550 0
22.230000 -0.043831 0
22.235000 -0.043115 0
22.240000 -0.042403 0
22.245000 -0.041694 0
22.250000 -0.040989 0
22.255000 -0.040288 0
22.260000 -0.039590 0
22.265000 -0.038895 0
22.270000 -0.038204 0
22.275000 -0.037516 0
22.280000 -0.036832 0
22.285000 -0.036151 0
22.290000 -0.035474 0
22.295000 -0.034799 0
22.300000 -0.034129 0
22.305000 -0.033461 0
22.310000 -0.032797 0
22.315000 -0.032137 0
22.320000 -0.031479 0
22.325000 -0.030825 0
22.330000 -0.030174 0
22.335000 -0.029526 0
22.340000 -0.028882 0
22.345000 -0.028241 0
22.350000 -0.027603 0
22.355000 -0.026968 0
22.360000 -0.026336 0
22.365000 -0.025708 0
22.370000 -0.025082 0
22.375000 -0.024460 0
22.380000 -0.023841 0
22.385000 -0.023225 0
22.390000 -0.022612 0
22.395000 -0.022001 0
22.400000 -0.021394 0
22.405000 -0.020790 0
22.410000 -0.020187 0
22.415000 -0.019588 0
22.420000 -0.018989 0
22.425000 -0.018392 0
22.430000 -0.017794 0
22.435000 -0.017193 0
22.440000 -0.016588 0
22.445000 -0.015973 0
22.450000 -0.015343 0
22.455000 -0.014689 0
22.460000 -0.013998 0
22.465000 -0.013256 0
22.470000 -0.012438 0
22.475000 -0.011516 0
22.480000 -0.010451 0
22.485000 -0.009192 0
22.490000 -0.007677 0
22.495000 -0.005830 0
22.500000 -0.003557 0
22.505000 -0.000748 0
22.510000 0.002721 0
22.515000 0.006990 0
22.520000 0.012211 0
22.525000 0.018541 0
22.530000 0.026135 0
22.535000 0.035138 0
22.540000 0.045675 0
22.545000 0.057834 0
22.550000 0.071656 0
22.555000 0.087120 0
22.560000 0.104134 0
22.565000 0.122521 0
22.570000 0.142018 0
22.575000 0.162272 0
22.580000 0.182848 0
22.585000 0.203240 0
22.590000 0.222886 0
22.595000 0.241200 0
22.600000 0.257590 0
22.605000 0.271496 0
22.610000 0.282418 0
22.615000 0.289948 0
22.620000 0.293790 1
22.625000 0.293784 0
22.630000 0.289913 0
22.635000 0.282304 0
22.640000 0.271225 0
22.645000 0.257063 0
22.650000 0.240307 0
22.655000 0.221514 0
22.660000 0.201282 0
22.665000 0.180215 0
22.670000 0.158899 0
22.675000 0.137870 0
22.680000 0.117595 0
22.685000 0.098461 0
22.690000 0.080762 0
22.695000 0.064696 0
22.700000 0.050363 0
22.705000 0.037756 0
22.710000 0.026734 0
22.715000 0.016973 0
22.720000 0.007880 0
22.725000 -0.001506 0
22.730000 -0.012570 0
22.735000 -0.027033 0
22.740000 -0.046593 0
22.745000 -0.072239 0
22.750000 -0.103352 0
22.755000 -0.136887 0
22.760000 -0.167034 0
22.765000 -0.185601 2
22.770000 -0.183034 0
22.775000 -0.149701 0
22.780000 -0.077142 0
22.785000 0.040569 0
22.790000 0.204826 0
22.795000 0.409611 0
22.800000 0.638595 0
22.805000 0.864317 0
22.810000 1.051605 0
22.815000 1.165695 0
22.820000 1.182562 3
22.825000 1.095970 0
22.830000 0.920183 0
22.835000 0.688065 0
22.840000 0.437995 0
22.845000 0.203588 0
22.850000 0.008003 0
22.855000 -0.136735 0
22.860000 -0.227612 0
22.865000 -0.268203 4
22.870000 -0.266967 0
22.875000 -0.235782 0
22.880000 -0.187978 0
22.885000 -0.135876 0
22.890000 -0.088610 0
22.895000 -0.051099 0
22.900000 -0.024403 0
22.905000 -0.007016 0
22.910000 0.003644 0
22.915000 0.010120 0
22.920000 0.014368 0
22.925000 0.017662 0
22.930000 0.020736 0
22.935000 0.023979 0
22.940000 0.027596 0
22.945000 0.031703 0
22.950000 0.036384 0
22.955000 0.041709 0
22.960000 0.047745 0
22.965000 0.054555 0
22.970000 0.062203 0
22.975000 0.070746 0
22.980000 0.080236 0
22.985000 0.090718 0
22.990000 0.102225 0
22.995000 0.114778 0
23.000000 0.128384 0
23.005000 0.143032 0
23.010000 0.158691 0
23.015000 0.175311 0
23.020000 0.192818 0
23.025000 0.211114 0
23.030000 0.230080 0
23.035000 0.249571 0
23.040000 0.269420 0
23.045000 0.289438 0
23.050000 0.309420 0
23.055000 0.329142 0
23.060000 0.348370 0
23.065000 0.366860 0
23.070000 0.384368 0
23.075000 0.400649 0
23.080000 0.415467 0
23.085000 0.428598 0
23.090000 0.439838 0
23.095000 0.449003 0
23.100000 0.455940 0
23.105000 0.460527 0
23.110000 0.462677 5
23.115000 0.462339 0
23.120000 0.459503 0
23.125000 0.454198 0
23.130000 0.446490 0
23.135000 0.436485 0
23.140000 0.424321 0
23.145000 0.410169 0
23.150000 0.394225 0
23.155000 0.376708 0
23.160000 0.357854 0
23.165000 0.337912 0
23.170000 0.317133 0
23.175000 0.295773 0
23.180000 0.274080 0
23.185000 0.252293 0
23.190000 0.230640 0
23.195000 0.209328 0
23.200000 0.188546 0
23.205000 0.168460 0
23.210000 0.149211 0
23.215000 0.130916 0
23.220000 0.113668 0
23.225000 0.097533 0
23.230000 0.082557 0
23.235000 0.068762 0
23.240000 0.056152 0
23.245000 0.044711 0
23.250000 0.034411 0
23.255000 0.025209 0
23.260000 0.017051 0
23.265000 0.009879 0
23.270000 0.003624 0
23.275000 -0.001781 0
23.280000 -0.006411 0
23.285000 -0.010334 0
23.290000 -0.013624 0
23.295000 -0.016346 0
23.300000 -0.018567 0
23.305000 -0.020346 0
23.310000 -0.021741 0
23.315000 -0.022802 0
23.320000 -0.023578 0
23.325000 -0.024109 0
23.330000 -0.024433 0
23.335000 -0.024583 0
23.340000 -0.024588 0
23.345000 -0.024472 0
23.350000 -0.024258 0
23.355000 -0.023964 0
23.360000 -0.023604 0
23.365000 -0.023192 0
23.370000 -0.022738 0
23.375000 -0.022252 0
23.380000 -0.021740 0
23.385000 -0.021209 0
23.390000 -0.020663 0
23.395000 -0.020106 0
23.400000 -0.019542 0
23.405000 -0.018972 0
23.410000 -0.018399 0
23.415000 -0.017813 0
23.420000 -0.017227 0
23.425000 -0.016644 0
23.430000 -0.016064 0
23.435000 -0.015486 0
23.440000 -0.014912 0
23.445000 -0.014340 0
23.450000 -0.013772 0
23.455000 -0.013206 0
23.460000 -0.012643 0
23.465000 -0.012083 0
23.470000 -0.011525 0
23.475000 -0.010971 0
23.480000 -0.010419 0
23.485000 -0.009870 0
23.490000 -0.009323 0
23.495000 -0.008780 0
23.500000 -0.008239 0
23.505000 -0.007700 0
23.510000 -0.007165 0
23.515000 -0.006632 0
23.520000 -0.006102 0
23.525000 -0.005574 0
23.530000 -0.005049 0
23.535000 -0.004527 0
23.540000 -0.004007 0
23.545000 -0.003490 0
23.550000 -0.002975 0
23.555000 -0.002463 0
23.560000 -0.001954 0
23.565000 -0.001447 0
23.570000 -0.000943 0
23.575000 -0.000441 0
23.580000 0.000059 0
23.585000 0.000556 0
23.590000 0.001050 0
23.595000 0.001542 0
23.600000 0.002032 0
23.605000 0.002520 0
23.610000 0.003006 0
23.615000 0.003490 0
23.620000 0.003974 0
23.625000 0.004457 0
23.630000 0.004942 0
23.635000 0.005431 0
23.640000 0.005927 0
23.645000 0.006436 0
23.650000 0.006963 0
23.655000 0.007520 0
23.660000 0.008122 0
23.665000 0.008788 0
23.670000 0.009545 0
23.675000 0.010431 0
23.680000 0.011492 0
23.685000 0.012789 0
23.690000 0.014397 0
23.695000 0.016409 0
23.700000 0.018935 0
23.705000 0.022104 0
23.710000 0.026061 0
23.715000 0.030964 0
23.720000 0.036979 0
23.725000 0.044273 0
23.730000 0.053004 0
23.735000 0.063306 0
23.740000 0.075278 0
23.745000 0.088967 0
23.750000 0.104353 0
23.755000 0.121338 0
23.760000 0.139730 0
23.765000 0.159243 0
23.770000 0.179492 0
23.775000 0.200003 0
23.780000 0.220227 0
23.785000 0.239561 0
23.790000 0.257373 0
23.795000 0.273043 0
23.800000 0.285987 0
23.805000 0.295702 0
23.810000 0.301793 0
23.815000 0.303997 1
23.820000 0.302206 0
23.825000 0.296472 0
23.830000 0.287001 0
23.835000 0.274145 0
23.840000 0.258378 0
23.845000 0.240265 0
23.850000 0.220428 0
23.855000 0.199512 0
23.860000 0.178149 0
23.865000 0.156927 0
23.870000 0.136366 0
23.875000 0.116899 0
23.880000 0.098858 0
23.885000 0.082474 0
23.890000 0.067868 0
23.895000 0.055046 0
23.900000 0.043871 0
23.905000 0.034007 0
23.910000 0.024830 0
23.915000 0.015308 0
23.920000 0.003948 0
23.925000 -0.011096 0
23.930000 -0.031583 0
23.935000 -0.058375 0
23.940000 -0.090414 0
23.945000 -0.123859 0
23.950000 -0.151864 0
23.955000 -0.165203 2
23.960000 -0.153547 0
23.965000 -0.106922 0
23.970000 -0.017121 0
23.975000 0.120554 0
23.980000 0.304615 0
23.985000 0.523928 0
23.990000 0.755196 0
23.995000 0.964174 0
24.000000 1.112439 0
24.005000 1.168452 3
24.010000 1.118264 0
24.015000 0.970614 0
24.020000 0.753837 0
24.025000 0.505846 0
24.030000 0.262962 0
24.035000 0.052337 0
24.040000 -0.110299 0
24.045000 -0.219147 0
24.050000 -0.275792 0
24.055000 -0.287237 4
24.060000 -0.264445 0
24.065000 -0.220577 0
24.070000 -0.168608 0
24.075000 -0.118940 0
24.080000 -0.077913 0
24.085000 -0.047732 0
24.090000 -0.027547 0
24.095000 -0.014965 0
24.100000 -0.007334 0
24.105000 -0.002476 0
24.110000 0.001094 0
24.115000 0.004260 0
24.120000 0.007501 0
24.125000 0.011065 0
24.130000 0.015090 0
24.135000 0.019667 0
24.140000 0.024868 0
24.145000 0.030761 0
24.150000 0.037411 0
24.155000 0.044881 0
24.160000 0.053232 0
24.165000 0.062517 0
24.170000 0.072784 0
24.175000 0.084068 0
24.180000 0.096397 0
24.185000 0.109780 0
24.190000 0.124211 0
24.195000 0.139666 0
24.200000 0.156100 0
24.205000 0.173444 0
24.210000 0.191609 0
24.215000 0.210479 0
24.220000 0.229917 0
24.225000 0.249760 0
24.230000 0.269824 0
24.235000 0.289908 0
24.240000 0.309792 0
24.245000 0.329242 0
24.250000 0.348016 0
24.255000 0.365868 0
24.260000 0.382552 0
24.265000 0.397829 0
24.270000 0.411470 0
24.275000 0.423264 0
24.280000 0.433022 0
24.285000 0.440583 0
24.290000 0.445814 0
24.295000 0.448621 0
24.300000 0.448943 5
24.305000 0.446761 0
24.310000 0.442094 0
24.315000 0.435001 0
24.320000 0.425578 0
24.325000 0.413958 0
24.330000 0.400303 0
24.335000 0.384806 0
24.340000 0.367682 0
24.345000 0.349166 0
24.350000 0.329502 0
24.355000 0.308946 0
24.360000 0.287752 0
24.365000 0.266171 0
24.370000 0.244447 0
24.375000 0.222810 0
24.380000 0.201474 0
24.385000 0.180631 0
24.390000 0.160452 0
24.395000 0.141086 0
24.400000 0.122653 0
24.405000 0.105253 0
24.410000 0.088957 0
24.415000 0.073814 0
24.420000 0.059852 0
24.425000 0.047076 0
24.430000 0.035477 0
24.435000 0.025026 0
24.440000 0.015684 0
24.445000 0.007398 0
24.450000 0.000110 0
24.455000 -0.006246 0
24.460000 -0.011740 0
24.465000 -0.016443 0
24.470000 -0.020428 0
24.475000 -0.023766 0
24.480000 -0.026525 0
24.485000 -0.028771 0
24.490000 -0.030565 0
24.495000 -0.031966 0
24.500000 -0.033025 0
24.505000 -0.033790 0
24.510000 -0.034305 0
24.515000 -0.034607 0
24.520000 -0.034730 0
24.525000 -0.034704 0
24.530000 -0.034555 0
24.535000 -0.034304 0
24.540000 -0.033970 0
24.545000 -0.033568 0
24.550000 -0.033113 0
24.555000 -0.032615 0
24.560000 -0.032084 0
24.565000 -0.031527 0
24.570000 -0.030949 0
24.575000 -0.030357 0
24.580000 -0.029753 0
24.585000 -0.029142 0
24.590000 -0.028525 0
24.595000 -0.027905 0
24.600000 -0.027281 0
24.605000 -0.026648 0
24.610000 -0.026018 0
24.615000 -0.025391 0
24.620000 -0.024767 0
24.625000 -0.024147 0
24.630000 -0.023529 0
24.635000 -0.022915 0
24.640000 -0.022303 0
24.645000 -0.021695 0
24.650000 -0.021089 0
24.655000 -0.020487 0
24.660000 -0.019888 0
24.665000 -0.019291 0
24.670000 -0.018698 0
24.675000 -0.018108 0
24.680000 -0.017520 0
24.685000 -0.016936 0
24.690000 -0.016354 0
24.695000 -0.015775 0
24.700000 -0.015199 0
24.705000 -0.014626 0
24.710000 -0.014056 0
24.715000 -0.013489 0
24.720000 -0.012925 0
24.725000 -0.012363 0
24.730000 -0.011804 0
24.735000 -0.011248 0
24.740000 -0.010695 0
24.745000 -0.010144 0
24.750000 -0.009597 0
24.755000 -0.009052 0
24.760000 -0.008509 0
24.765000 -0.007970 0
24.770000 -0.007433 0
24.775000 -0.006898 0
24.780000 -0.006366 0
24.785000 -0.005837 0
24.790000 -0.005310 0
24.795000 -0.004785 0
24.800000 -0.004262 0
24.805000 -0.003740 0
24.810000 -0.003218 0
24.815000 -0.002695 0
24.820000 -0.002168 0
24.825000 -0.001634 0
24.830000 -0.001089 0
24.835000 -0.000525 0
24.840000 0.000069 0
24.845000 0.000706 0
24.850000 0.001408 0
24.855000 0.002200 0
24.860000 0.003120 0
24.865000 0.004214 0
24.870000 0.005544 0
24.875000 0.007184 0
24.880000 0.009229 0
24.885000 0.011787 0
24.890000 0.014989 0
24.895000 0.018979 0
24.900000 0.023916 0
24.905000 0.029968 0
24.910000 0.037302 0
24.915000 0.046075 0
24.920000 0.056424 0
24.925000 0.068447 0
24.930000 0.082190 0
24.935000 0.097633 0
24.940000 0.114675 0
24.945000 0.133124 0
24.950000 0.152689 0
24.955000 0.172984 0
24.960000 0.193530 0
24.965000 0.213774 0
24.970000 0.233109 0
24.975000 0.250903 0
24.980000 0.266531 0
24.985000 0.279412 0
24.990000 0.289041 0
24.995000 0.295027 0
25.000000 0.297112 1
25.005000 0.295193 0
25.010000 0.289328 0
25.015000 0.279731 0
25.020000 0.266762 0
25.025000 0.250901 0
25.030000 0.232718 0
25.035000 0.212841 0
25.040000 0.191917 0
25.045000 0.170579 0
25.050000 0.149414 0
25.055000 0.128939 0
25.060000 0.109582 0
25.065000 0.091673 0
25.070000 0.075435 0
25.075000 0.060982 0
25.080000 0.048311 0
25.085000 0.037274 0
25.090000 0.027516 0
25.095000 0.018383 0
25.100000 0.008806 0
25.105000 -0.002750 0
25.110000 -0.018153 0
25.115000 -0.039129 0
25.120000 -0.066422 0
25.125000 -0.098756 0
25.130000 -0.132006 0
25.135000 -0.159047 0
25.140000 -0.170456 2
25.145000 -0.155836 0
25.150000 -0.105280 0
25.155000 -0.010807 0
25.160000 0.131817 0
25.165000 0.320276 0
25.170000 0.542199 0
25.175000 0.772891 0
25.180000 0.977094 0
25.185000 1.116413 0
25.190000 1.160695 3
25.195000 1.098489 0
25.200000 0.941231 0
25.205000 0.718929 0
25.210000 0.469843 0
25.215000 0.229525 0
25.220000 0.023840 0
25.225000 -0.132741 0
25.230000 -0.235388 0
25.235000 -0.286390 0
25.240000 -0.293274 4
25.245000 -0.267355 0
25.250000 -0.221899 0
25.255000 -0.169701 0
25.260000 -0.120745 0
25.265000 -0.080878 0
25.270000 -0.051887 0
25.275000 -0.032668 0
25.280000 -0.020744 0
25.285000 -0.013492 0
25.290000 -0.008808 0
25.295000 -0.005286 0
25.300000 -0.002096 0
25.305000 0.001205 0
25.310000 0.004850 0
25.315000 0.008967 0
25.320000 0.013644 0
25.325000 0.018952 0
25.330000 0.024960 0
25.335000 0.031733 0
25.340000 0.039333 0
25.345000 0.047819 0
25.350000 0.057245 0
25.355000 0.067656 0
25.360000 0.079090 0
25.365000 0.091569 0
25.370000 0.105102 0
25.375000 0.119682 0
25.380000 0.135281 0
25.385000 0.151852 0
25.390000 0.169325 0
25.395000 0.187606 0
25.400000 0.206578 0
25.405000 0.226100 0
25.410000 0.246007 0
25.415000 0.266115 0
25.420000 0.286217 0
25.425000 0.306093 0
25.430000 0.325509 0
25.435000 0.344221 0
25.440000 0.361983 0
25.445000 0.378550 0
25.450000 0.393683 0
25.455000 0.407156 0
25.460000 0.418759 0
25.465000 0.428307 0
25.470000 0.435641 0
25.475000 0.440634 0
25.480000 0.443192 0
25.485000 0.443263 5
25.490000 0.440829 0
25.495000 0.435915 0
25.500000 0.428583 0
25.505000 0.418935 0
25.510000 0.407106 0
25.515000 0.393263 0
25.520000 0.377600 0
25.525000 0.360336 0
25.530000 0.341706 0
25.535000 0.321957 0
25.540000 0.301344 0
25.545000 0.280120 0
25.550000 0.258538 0
25.555000 0.236839 0
25.560000 0.215251 0
25.565000 0.193986 0
25.570000 0.173234 0
25.575000 0.153164 0
25.580000 0.133922 0
25.585000 0.115625 0
25.590000 0.098369 0
25.595000 0.082223 0
25.600000 0.067235 0
25.605000 0.053429 0
25.610000 0.040810 0
25.615000 0.029364 0
25.620000 0.019062 0
25.625000 0.009863 0
25.630000 0.001715 0
25.635000 -0.005442 0
25.640000 -0.011676 0
25.645000 -0.017055 0
25.650000 -0.021652 0
25.655000 -0.025539 0
25.660000 -0.028786 0
25.665000 -0.031462 0
25.670000 -0.033632 0
25.675000 -0.035357 0
25.680000 -0.036694 0
25.685000 -0.037696 0
25.690000 -0.038409 0
25.695000 -0.038875 0
25.700000 -0.039134 0
25.705000 -0.039217 0
25.710000 -0.039154 0
25.715000 -0.038970 0
25.720000 -0.038687 0
25.725000 -0.038323 0
25.730000 -0.037893 0
25.735000 -0.037411 0
25.740000 -0.036887 0
25.745000 -0.036331 0
25.750000 -0.035750 0
25.755000 -0.035149 0
25.760000 -0.034534 0
25.765000 -0.033909 0
25.770000 -0.033275 0
25.775000 -0.032637 0
25.780000 -0.031996 0
25.785000 -0.031342 0
25.790000 -0.030689 0
25.795000 -0.030039 0
25.800000 -0.029392 0
25.805000 -0.028748 0
25.810000 -0.028107 0
25.815000 -0.027470 0
25.820000 -0.026836 0
25.825000 -0.026205 0
25.830000 -0.025577 0
25.835000 -0.024952 0
25.840000 -0.024331 0
25.845000 -0.023712 0
25.850000 -0.023097 0
25.855000 -0.022484 0
25.860000 -0.021875 0
25.865000 -0.021269 0
25.870000 -0.020666 0
25.875000 -0.020065 0
25.880000 -0.019468 0
25.885000 -0.018874 0
25.890000 -0.018283 0
25.895000 -0.017694 0
25.900000 -0.017109 0
25.905000 -0.016526 0
25.910000 -0.015947 0
25.915000 -0.015370 0
25.920000 -0.014796 0
25.925000 -0.014225 0
25.930000 -0.013657 0
25.935000 -0.013092 0
25.940000 -0.012529 0
25.945000 -0.011970 0
25.950000 -0.011413 0
25.955000 -0.010859 0
25.960000 -0.010307 0
25.965000 -0.009758 0
25.970000 -0.009212 0
25.975000 -0.008668 0
25.980000 -0.008126 0
25.985000 -0.007586 0
25.990000 -0.007048 0
25.995000 -0.006509 0
26.000000 -0.005969 0
26.005000 -0.005425 0
26.010000 -0.004874 0
26.015000 -0.004310 0
26.020000 -0.003727 0
26.025000 -0.003113 0
26.030000 -0.002454 0
26.035000 -0.001728 0
26.040000 -0.000908 0
26.045000 0.000044 0
26.050000 0.001176 0
26.055000 0.002551 0
26.060000 0.004245 0
26.065000 0.006354 0
26.070000 0.008990 0
26.075000 0.012284 0
26.080000 0.016382 0
26.085000 0.021445 0
26.090000 0.027640 0
26.095000 0.035134 0
26.100000 0.044084 0
26.105000 0.054621 0
26.110000 0.066840 0
26.115000 0.080780 0
26.120000 0.096413 0
26.125000 0.113630 0
26.130000 0.132227 0
26.135000 0.151903 0
26.140000 0.172263 0
26.145000 0.192819 0
26.150000 0.213011 0
26.155000 0.232228 0
26.160000 0.249837 0
26.165000 0.265216 0
26.170000 0.277790 0
26.175000 0.287066 0
26.180000 0.292665 0
26.185000 0.294345 1
26.190000 0.292020 0
26.195000 0.285763 0
26.200000 0.275807 0
26.205000 0.262524 0
26.210000 0.246404 0
26.215000 0.228027 0
26.220000 0.208023 0
26.225000 0.187040 0
26.230000 0.165707 0
26.235000 0.144604 0
26.240000 0.124241 0
26.245000 0.105035 0
26.250000 0.087305 0
26.255000 0.071263 0
26.260000 0.057011 0
26.265000 0.044534 0
26.270000 0.033663 0
26.275000 0.024020 0
26.280000 0.014911 0
26.285000 0.005220 0
26.290000 -0.006635 0
26.295000 -0.022533 0
26.300000 -0.044145 0
26.305000 -0.072054 0
26.310000 -0.104715 0
26.315000 -0.137688 0
26.320000 -0.163561 0
26.325000 -0.172743 2
26.330000 -0.154822 0
26.335000 -0.100025 0
26.340000 -0.000661 0
26.345000 0.146974 0
26.350000 0.339685 0
26.355000 0.563886 0
26.360000 0.793617 0
26.365000 0.992861 0
26.370000 1.123518 0
26.375000 1.156955 3
26.380000 1.085311 0
26.385000 0.923737 0
26.390000 0.700751 0
26.395000 0.451874 0
26.400000 0.210207 0
26.405000 0.000338 0
26.410000 -0.163350 0
26.415000 -0.275325 0
26.420000 -0.336707 0
26.425000 -0.353547 4
26.430000 -0.335577 0
26.435000 -0.294775 0
26.440000 -0.243405 0
26.445000 -0.191888 0
26.450000 -0.147258 0
26.455000 -0.112749 0
26.460000 -0.088448 0
26.465000 -0.072544 0
26.470000 -0.062566 0
26.475000 -0.056232 0
26.480000 -0.051829 0
26.485000 -0.048247 0
26.490000 -0.044844 0
26.495000 -0.041269 0
26.500000 -0.037337 0
26.505000 -0.032938 0
26.510000 -0.027994 0
26.515000 -0.022440 0
26.520000 -0.016212 0
26.525000 -0.009253 0
26.530000 -0.001502 0
26.535000 0.007094 0
26.540000 0.016586 0
26.545000 0.027017 0
26.550000 0.038421 0
26.555000 0.050823 0
26.560000 0.064236 0
26.565000 0.078655 0
26.570000 0.094063 0
26.575000 0.110421 0
26.580000 0.127674 0
26.585000 0.145745 0
26.590000 0.164535 0
26.595000 0.183926 0
26.600000 0.203777 0
26.605000 0.223928 0
26.610000 0.244201 0
26.615000 0.264400 0
26.620000 0.284318 0
26.625000 0.303735 0
26.630000 0.322426 0
26.635000 0.340163 0
26.640000 0.356719 0
26.645000 0.371876 0
26.650000 0.385424 0
26.655000 0.397171 0
26.660000 0.406945 0
26.665000 0.414598 0
26.670000 0.420010 0
26.675000 0.423091 0
26.680000 0.423785 5
26.685000 0.422071 0
26.690000 0.417961 0
26.695000 0.411505 0
26.700000 0.402784 0
26.705000 0.391913 0
26.710000 0.379036 0
26.715000 0.364322 0
26.720000 0.347965 0
26.725000 0.330173 0
26.730000 0.311170 0
26.735000 0.291189 0
26.740000 0.270465 0
26.745000 0.249234 0
26.750000 0.227726 0
26.755000 0.206162 0
26.760000 0.184749 0
26.765000 0.163681 0
26.770000 0.143130 0
26.775000 0.123251 0
26.780000 0.104175 0
26.785000 0.086013 0
26.790000 0.068851 0
26.795000 0.052757 0
26.800000 0.037773 0
26.805000 0.023926 0
26.810000 0.011223 0
26.815000 -0.000347 0
26.820000 -0.010805 0
26.825000 -0.020189 0
26.830000 -0.028543 0
26.835000 -0.035921 0
26.840000 -0.042382 0
26.845000 -0.047991 0
26.850000 -0.052813 0
26.855000 -0.056915 0
26.860000 -0.060364 0
26.865000 -0.063223 0
26.870000 -0.065556 0
26.875000 -0.067422 0
26.880000 -0.068877 0
26.885000 -0.069971 0
26.890000 -0.070752 0
26.895000 -0.071263 0
26.900000 -0.071543 0
26.905000 -0.071626 0
26.910000 -0.071543 0
26.915000 -0.071320 0
26.920000 -0.070982 0
26.925000 -0.070547 0
26.930000 -0.070033 0
26.935000 -0.069456 0
26.940000 -0.068826 0
26.945000 -0.068156 0
26.950000 -0.067453 0
26.955000 -0.066724 0
26.960000 -0.065976 0
26.965000 -0.065214 0
26.970000 -0.064441 0
26.975000 -0.063660 0
26.980000 -0.062874 0
26.985000 -0.062086 0
26.990000 -0.061295 0
26.995000 -0.060495 0
27.000000 -0.059696 0
27.005000 -0.058901 0
27.010000 -0.058110 0
27.015000 -0.057323 0
27.020000 -0.056540 0
27.025000 -0.055761 0
27.030000 -0.054986 0
27.035000 -0.054214 0
27.040000 -0.053447 0
27.045000 -0.052683 0
27.050000 -0.051923 0
27.055000 -0.051167 0
27.060000 -0.050415 0
27.065000 -0.049666 0
27.070000 -0.048921 0
27.075000 -0.048180 0
27.080000 -0.047443 0
27.085000 -0.046709 0
27.090000 -0.045979 0
27.095000 -0.045252 0
27.100000 -0.044529 0
27.105000 -0.043810 0
27.110000 -0.043095 0
27.115000 -0.042382 0
27.120000 -0.041674 0
27.125000 -0.040969 0
27.130000 -0.040267 0
27.135000 -0.039569 0
27.140000 -0.038875 0
27.145000 -0.038184 0
27.150000 -0.037496 0
27.155000 -0.036812 0
27.160000 -0.036131 0
27.165000 -0.035454 0
27.170000 -0.034780 0
27.175000 -0.034109 0
27.180000 -0.033442 0
27.185000 -0.032777 0
27.190000 -0.032116 0
27.195000 -0.031457 0
27.200000 -0.030801 0
27.205000 -0.030147 0
27.210000 -0.029494 0
27.215000 -0.028840 0
27.220000 -0.028185 0
27.225000 -0.027525 0
27.230000 -0.026856 0
27.235000 -0.026172 0
27.240000 -0.025464 0
27.245000 -0.024722 0
27.250000 -0.023929 0
27.255000 -0.023063 0
27.260000 -0.022094 0
27.265000 -0.020987 0
27.270000 -0.019691 0
27.275000 -0.018145 0
27.280000 -0.016276 0
27.285000 -0.013992 0
27.290000 -0.011187 0
27.295000 -0.007737 0
27.300000 -0.003508 0
27.305000 0.001651 0
27.310000 0.007894 0
27.315000 0.015375 0
27.320000 0.024239 0
27.325000 0.034612 0
27.330000 0.046588 0
27.335000 0.060213 0
27.340000 0.075478 0
27.345000 0.092302 0
27.350000 0.110524 0
27.355000 0.129898 0
27.360000 0.150092 0
27.365000 0.170687 0
27.370000 0.191196 0
27.375000 0.211074 0
27.380000 0.229743 0
27.385000 0.246616 0
27.390000 0.261134 0
27.395000 0.272785 0
27.400000 0.281145 0
27.405000 0.285895 0
27.410000 0.286844 1
27.415000 0.283941 0
27.420000 0.277280 0
27.425000 0.267090 0
27.430000 0.253726 0
27.435000 0.237648 0
27.440000 0.219390 0
27.445000 0.199535 0
27.450000 0.178684 0
27.455000 0.157421 0
27.460000 0.136293 0
27.465000 0.115783 0
27.470000 0.096300 0
27.475000 0.078161 0
27.480000 0.061595 0
27.485000 0.046730 0
27.490000 0.033597 0
27.495000 0.022103 0
27.500000 0.011998 0
27.505000 0.002800 0
27.510000 -0.006301 0
27.515000 -0.016526 0
27.520000 -0.029478 0
27.525000 -0.046905 0
27.530000 -0.070146 0
27.535000 -0.099308 0
27.540000 -0.132387 0
27.545000 -0.164718 0
27.550000 -0.189056 0
27.555000 -0.196361 2
27.560000 -0.176992 0
27.565000 -0.121961 0
27.570000 -0.024154 0
27.575000 0.120037 0
27.580000 0.308257 0
27.585000 0.529169 0
27.590000 0.760447 0
27.595000 0.970065 0
27.600000 1.122252 0
27.605000 1.187068 3
27.610000 1.149397 0
27.615000 1.014218 0
27.620000 0.806379 0
27.625000 0.561277 0
27.630000 0.314524 0
27.635000 0.094219 0
27.640000 -0.082095 0
27.645000 -0.206643 0
27.650000 -0.279137 0
27.655000 -0.304785 4
27.660000 -0.292912 0
27.665000 -0.255529 0
27.670000 -0.205357 0
27.675000 -0.153557 0
27.680000 -0.107949 0
27.685000 -0.072375 0
27.690000 -0.047259 0
27.695000 -0.030890 0
27.700000 -0.020746 0
27.705000 -0.014445 0
27.710000 -0.010185 0
27.715000 -0.006795 0
27.720000 -0.003599 0
27.725000 -0.000232 0
27.730000 0.003499 0
27.735000 0.007706 0
27.740000 0.012469 0
27.745000 0.017856 0
27.750000 0.023931 0
27.755000 0.030754 0
27.760000 0.038386 0
27.765000 0.046882 0
27.770000 0.056294 0
27.775000 0.066665 0
27.780000 0.078030 0
27.785000 0.090412 0
27.790000 0.103820 0
27.795000 0.118250 0
27.800000 0.133678 0
27.805000 0.150062 0
27.810000 0.167340 0
27.815000 0.185426 0
27.820000 0.204215 0
27.825000 0.223579 0
27.830000 0.243367 0
27.835000 0.263409 0
27.840000 0.283515 0
27.845000 0.303481 0
27.850000 0.323088 0
27.855000 0.342107 0
27.860000 0.360306 0
27.865000 0.377449 0
27.870000 0.393306 0
27.875000 0.407655 0
27.880000 0.420287 0
27.885000 0.431014 0
27.890000 0.439669 0
27.895000 0.446111 0
27.900000 0.450233 0
27.905000 0.451959 5
27.910000 0.451249 0
27.915000 0.448099 0
27.920000 0.442542 0
27.925000 0.434648 0
27.930000 0.424520 0
27.935000 0.412294 0
27.940000 0.398133 0
27.945000 0.382227 0
27.950000 0.364786 0
27.955000 0.346035 0
27.960000 0.326211 0
27.965000 0.305555 0
27.970000 0.284310 0
27.975000 0.262715 0
27.980000 0.241000 0
27.985000 0.219383 0
27.990000 0.198067 0
27.995000 0.177235 0
28.000000 0.157050 0
28.005000 0.137654 0
28.010000 0.119163 0
28.015000 0.101673 0
28.020000 0.085255 0
28.025000 0.069957 0
28.030000 0.055811 0
28.035000 0.042823 0
28.040000 0.030988 0
28.045000 0.020282 0
28.050000 0.010671 0
28.055000 0.002106 0
28.060000 -0.005465 0
28.065000 -0.012104 0
28.070000 -0.017876 0
28.075000 -0.022849 0
28.080000 -0.027092 0
28.085000 -0.030672 0
28.090000 -0.033657 0
28.095000 -0.036111 0
28.100000 -0.038093 0
28.105000 -0.039662 0
28.110000 -0.040869 0
28.115000 -0.041763 0
28.120000 -0.042388 0
28.125000 -0.042782 0
28.130000 -0.042981 0
28.135000 -0.043015 0
28.140000 -0.042911 0
28.145000 -0.042693 0
28.150000 -0.042381 0
28.155000 -0.041991 0
28.160000 -0.041539 0
28.165000 -0.041037 0
28.170000 -0.040494 0
28.175000 -0.039920 0
28.180000 -0.039322 0
28.185000 -0.038704 0
28.190000 -0.038073 0
28.195000 -0.037431 0
28.200000 -0.036781 0
28.205000 -0.036127 0
28.210000 -0.035469 0
28.215000 -0.034808 0
28.220000 -0.034137 0
28.225000 -0.033470 0
28.230000 -0.032806 0
28.235000 -0.032145 0
28.240000 -0.031487 0
28.245000 -0.030833 0
28.250000 -0.030182 0
28.255000 -0.029534 0
28.260000 -0.028890 0
28.265000 -0.028249 0
28.270000 -0.027611 0
28.275000 -0.026976 0
28.280000 -0.026344 0
28.285000 -0.025716 0
28.290000 -0.025090 0
28.295000 -0.024468 0
28.300000 -0.023849 0
28.305000 -0.023233 0
28.310000 -0.022620 0
28.315000 -0.022010 0
28.320000 -0.021403 0
28.325000 -0.020799 0
28.330000 -0.020198 0
28.335000 -0.019600 0
28.340000 -0.019005 0
28.345000 -0.018413 0
28.350000 -0.017824 0
28.355000 -0.017238 0
28.360000 -0.016655 0
28.365000 -0.016075 0
28.370000 -0.015497 0
28.375000 -0.014923 0
28.380000 -0.014351 0
28.385000 -0.013783 0
28.390000 -0.013217 0
28.395000 -0.012653 0
28.400000 -0.012093 0
28.405000 -0.011535 0
28.410000 -0.010980 0
28.415000 -0.010426 0
28.420000 -0.009875 0
