0.000000 1.164785 3
0.005000 1.046864 0
0.010000 0.751646 0
0.015000 0.380560 0
0.020000 0.035907 0
0.025000 -0.218097 0
0.030000 -0.359253 0
0.035000 -0.395278 4
0.040000 -0.353404 0
0.045000 -0.270972 0
0.050000 -0.182752 0
0.055000 -0.109839 0
0.060000 -0.057326 0
0.065000 -0.020250 0
0.070000 0.008804 0
0.075000 0.035342 0
0.080000 0.062193 0
0.085000 0.090351 0
0.090000 0.119898 0
0.095000 0.150525 0
0.100000 0.181749 0
0.105000 0.212981 0
0.110000 0.243567 0
0.115000 0.272803 0
0.120000 0.299969 0
0.125000 0.324351 0
0.130000 0.345276 0
0.135000 0.362140 0
0.140000 0.374438 0
0.145000 0.381787 0
0.150000 0.383949 5
0.155000 0.380837 0
0.160000 0.372526 0
0.165000 0.359247 0
0.170000 0.341377 0
0.175000 0.319419 0
0.180000 0.293980 0
0.185000 0.265742 0
0.190000 0.235432 0
0.195000 0.203790 0
0.200000 0.171540 0
0.205000 0.139365 0
0.210000 0.107882 0
0.215000 0.077624 0
0.220000 0.049033 0
0.225000 0.022450 0
0.230000 -0.001884 0
0.235000 -0.023823 0
0.240000 -0.043309 0
0.245000 -0.060359 0
0.250000 -0.075057 0
0.255000 -0.087534 0
0.260000 -0.097958 0
0.265000 -0.106521 0
0.270000 -0.113428 0
0.275000 -0.118884 0
0.280000 -0.123092 0
0.285000 -0.126240 0
0.290000 -0.128504 0
0.295000 -0.130039 0
0.300000 -0.130983 0
0.305000 -0.130222 0
0.310000 -0.129175 0
0.315000 -0.128134 0
0.320000 -0.127098 0
0.325000 -0.126068 0
0.330000 -0.125042 0
0.335000 -0.124021 0
0.340000 -0.123004 0
0.345000 -0.121990 0
0.350000 -0.120978 0
0.355000 -0.119964 0
0.360000 -0.118943 0
0.365000 -0.117903 0
0.370000 -0.116828 0
0.375000 -0.115687 0
0.380000 -0.114433 0
0.385000 -0.112993 0
0.390000 -0.111258 0
0.395000 -0.109072 0
0.400000 -0.106219 0
0.405000 -0.102416 0
0.410000 -0.097305 0
0.415000 -0.090459 0
0.420000 -0.081402 0
0.425000 -0.069641 0
0.430000 -0.054722 0
0.435000 -0.036303 0
0.440000 -0.014234 0
0.445000 0.011356 0
0.450000 0.039989 0
0.455000 0.070797 0
0.460000 0.102524 0
0.465000 0.133589 0
0.470000 0.162199 0
0.475000 0.186515 0
0.480000 0.204847 0
0.485000 0.215846 0
0.490000 0.218670 1
0.495000 0.213091 0
0.500000 0.199524 0
0.505000 0.178982 0
0.510000 0.152944 0
0.515000 0.123184 0
0.520000 0.091553 0
0.525000 0.059735 0
0.530000 0.028919 0
0.535000 -0.000707 0
0.540000 -0.030643 0
0.545000 -0.064511 0
0.550000 -0.107056 0
0.555000 -0.160564 0
0.560000 -0.219419 0
0.565000 -0.266463 0
0.570000 -0.274896 2
0.575000 -0.215089 0
0.580000 -0.062683 0
0.585000 0.191353 0
0.590000 0.524605 0
0.595000 0.868137 0
0.600000 1.116058 0
0.605000 1.173006 3
0.610000 1.009587 0
0.615000 0.686229 0
0.620000 0.313315 0
0.625000 -0.011124 0
0.630000 -0.233217 0
0.635000 -0.340289 0
0.640000 -0.347473 4
0.645000 -0.287550 0
0.650000 -0.199802 0
0.655000 -0.116030 0
0.660000 -0.051519 0
0.665000 -0.006453 0
0.670000 0.026152 0
0.675000 0.053407 0
0.680000 0.079718 0
0.685000 0.106996 0
0.690000 0.135720 0
0.695000 0.165730 0
0.700000 0.196598 0
0.705000 0.227759 0
0.710000 0.258564 0
0.715000 0.288301 0
0.720000 0.316229 0
0.725000 0.341602 0
0.730000 0.363703 0
0.735000 0.381877 0
0.740000 0.395563 0
0.745000 0.404322 0
0.750000 0.407859 5
0.755000 0.406038 0
0.760000 0.398893 0
0.765000 0.386621 0
0.770000 0.369578 0
0.775000 0.348260 0
0.780000 0.323275 0
0.785000 0.295318 0
0.790000 0.265135 0
0.795000 0.233493 0
0.800000 0.201146 0
0.805000 0.168805 0
0.810000 0.137117 0
0.815000 0.106642 0
0.820000 0.077842 0
0.825000 0.051075 0
0.830000 0.026593 0
0.835000 0.004547 0
0.840000 -0.015004 0
0.845000 -0.032079 0
0.850000 -0.046768 0
0.855000 -0.059209 0
0.860000 -0.069579 0
0.865000 -0.078078 0
0.870000 -0.084919 0
0.875000 -0.090314 0
0.880000 -0.094471 0
0.885000 -0.097583 0
0.890000 -0.099828 0
0.895000 -0.101363 0
0.900000 -0.102325 0
0.905000 -0.101688 0
0.910000 -0.100784 0
0.915000 -0.099885 0
0.920000 -0.098990 0
0.925000 -0.098099 0
0.930000 -0.097212 0
0.935000 -0.096330 0
0.940000 -0.095450 0
0.945000 -0.094573 0
0.950000 -0.093695 0
0.955000 -0.092813 0
0.960000 -0.091918 0
0.965000 -0.090997 0
0.970000 -0.090025 0
0.975000 -0.088965 0
0.980000 -0.087754 0
0.985000 -0.086298 0
0.990000 -0.084460 0
0.995000 -0.082045 0
1.000000 -0.078789 0
1.005000 -0.074353 0
1.010000 -0.068320 0
1.015000 -0.060214 0
1.020000 -0.049523 0
1.025000 -0.035759 0
1.030000 -0.018520 0
1.035000 0.002417 0
1.040000 0.027006 0
1.045000 0.054853 0
1.050000 0.085158 0
1.055000 0.116708 0
1.060000 0.147929 0
1.065000 0.176994 0
1.070000 0.201993 0
1.075000 0.221140 0
1.080000 0.232978 0
1.085000 0.236564 1
1.090000 0.231595 0
1.095000 0.218445 0
1.100000 0.198123 0
1.105000 0.172141 0
1.110000 0.142327 0
1.115000 0.110598 0
1.120000 0.078695 0
1.125000 0.047831 0
1.130000 0.018143 0
1.135000 -0.012049 0
1.140000 -0.046639 0
1.145000 -0.090490 0
1.150000 -0.145324 0
1.155000 -0.203898 0
1.160000 -0.246719 2
1.165000 -0.245029 0
1.170000 -0.168534 0
1.175000 0.005782 0
1.180000 0.281786 0
1.185000 0.625852 0
1.190000 0.954536 0
1.195000 1.155197 3
1.200000 1.144854 0
1.205000 0.924027 0
1.210000 0.574327 0
1.215000 0.206924 0
1.220000 -0.092354 0
1.225000 -0.282877 0
1.230000 -0.360864 4
1.235000 -0.346822 0
1.240000 -0.276071 0
1.245000 -0.186844 0
1.250000 -0.106967 0
1.255000 -0.047413 0
1.260000 -0.005894 0
1.265000 0.025006 0
1.270000 0.051815 0
1.275000 0.078271 0
1.280000 0.105872 0
1.285000 0.134912 0
1.290000 0.165161 0
1.295000 0.196162 0
1.300000 0.227339 0
1.305000 0.258039 0
1.310000 0.287550 0
1.315000 0.315138 0
1.320000 0.340067 0
1.325000 0.361637 0
1.330000 0.379215 0
1.335000 0.392261 0
1.340000 0.400359 0
1.345000 0.403240 5
1.350000 0.400790 0
1.355000 0.393062 0
1.360000 0.380272 0
1.365000 0.362786 0
1.370000 0.341106 0
1.375000 0.315845 0
1.380000 0.287693 0
1.385000 0.257393 0
1.390000 0.225701 0
1.395000 0.193361 0
1.400000 0.161071 0
1.405000 0.129466 0
1.410000 0.099093 0
1.415000 0.070405 0
1.420000 0.043749 0
1.425000 0.019373 0
1.430000 -0.002579 0
1.435000 -0.022049 0
1.440000 -0.039060 0
1.445000 -0.053699 0
1.450000 -0.066104 0
1.455000 -0.076450 0
1.460000 -0.084935 0
1.465000 -0.091768 0
1.470000 -0.097161 0
1.475000 -0.101316 0
1.480000 -0.104428 0
1.485000 -0.106671 0
1.490000 -0.108202 0
1.495000 -0.109158 0
1.500000 -0.108491 0
1.505000 -0.107553 0
1.510000 -0.106620 0
1.515000 -0.105691 0
1.520000 -0.104767 0
1.525000 -0.103847 0
1.530000 -0.102931 0
1.535000 -0.102019 0
1.540000 -0.101110 0
1.545000 -0.100200 0
1.550000 -0.099287 0
1.555000 -0.098362 0
1.560000 -0.097414 0
1.565000 -0.096420 0
1.570000 -0.095344 0
1.575000 -0.094130 0
1.580000 -0.092690 0
1.585000 -0.090896 0
1.590000 -0.088564 0
1.595000 -0.085448 0
1.600000 -0.081224 0
1.605000 -0.075496 0
1.610000 -0.067800 0
1.615000 -0.057637 0
1.620000 -0.044512 0
1.625000 -0.028006 0
1.630000 -0.007854 0
1.635000 0.015966 0
1.640000 0.043147 0
1.645000 0.072992 0
1.650000 0.104397 0
1.655000 0.135886 0
1.660000 0.165701 0
1.665000 0.191958 0
1.670000 0.212841 0
1.675000 0.226803 0
1.680000 0.232761 1
1.685000 0.230231 0
1.690000 0.219395 0
1.695000 0.201076 0
1.700000 0.176641 0
1.705000 0.147822 0
1.710000 0.116513 0
1.715000 0.084521 0
1.720000 0.053259 0
1.725000 0.023284 0
1.730000 -0.006383 0
1.735000 -0.038874 0
1.740000 -0.078974 0
1.745000 -0.130112 0
1.750000 -0.188911 0
1.755000 -0.240519 0
1.760000 -0.259155 2
1.765000 -0.214445 0
1.770000 -0.079810 0
1.775000 0.157742 0
1.780000 0.481900 0
1.785000 0.829797 0
1.790000 1.096470 0
1.795000 1.179443 3
1.800000 1.041305 0
1.805000 0.733986 0
1.810000 0.361361 0
1.815000 0.023086 0
1.820000 -0.220915 0
1.825000 -0.351801 0
1.830000 -0.379441 4
1.835000 -0.332376 0
1.840000 -0.248220 0
1.845000 -0.160829 0
1.850000 -0.089785 0
1.855000 -0.038975 0
1.860000 -0.002951 0
1.865000 0.025638 0
1.870000 0.052054 0
1.875000 0.078922 0
1.880000 0.107128 0
1.885000 0.136708 0
1.890000 0.167333 0
1.895000 0.198508 0
1.900000 0.229643 0
1.905000 0.260076 0
1.910000 0.289105 0
1.915000 0.316008 0
1.920000 0.340076 0
1.925000 0.360640 0
1.930000 0.377104 0
1.935000 0.388971 0
1.940000 0.395872 0
1.945000 0.397577 5
1.950000 0.394012 0
1.955000 0.385265 0
1.960000 0.371577 0
1.965000 0.353333 0
1.970000 0.331044 0
1.975000 0.305322 0
1.980000 0.276853 0
1.985000 0.246364 0
1.990000 0.214594 0
1.995000 0.182265 0
2.000000 0.150053 0
2.005000 0.118570 0
2.010000 0.088343 0
2.015000 0.059807 0
2.020000 0.033296 0
2.025000 0.009044 0
2.030000 -0.012808 0
2.035000 -0.032207 0
2.040000 -0.049176 0
2.045000 -0.063800 0
2.050000 -0.076213 0
2.055000 -0.086585 0
2.060000 -0.095109 0
2.065000 -0.101989 0
2.070000 -0.107430 0
2.075000 -0.111634 0
2.080000 -0.114789 0
2.085000 -0.117069 0
2.090000 -0.118628 0
2.095000 -0.119602 0
2.100000 -0.118894 0
2.105000 -0.117904 0
2.110000 -0.116919 0
2.115000 -0.115939 0
2.120000 -0.114964 0
2.125000 -0.113993 0
2.130000 -0.113027 0
2.135000 -0.112065 0
2.140000 -0.111106 0
2.145000 -0.110148 0
2.150000 -0.109188 0
2.155000 -0.108220 0
2.160000 -0.107232 0
2.165000 -0.106208 0
2.170000 -0.105116 0
2.175000 -0.103909 0
2.180000 -0.102512 0
2.185000 -0.100815 0
2.190000 -0.098661 0
2.195000 -0.095831 0
2.200000 -0.092040 0
2.205000 -0.086927 0
2.210000 -0.080066 0
2.215000 -0.070978 0
2.220000 -0.059173 0
2.225000 -0.044200 0
2.230000 -0.025720 0
2.235000 -0.003592 0
2.240000 0.022045 0
2.245000 0.050704 0
2.250000 0.081506 0
2.255000 0.113189 0
2.260000 0.144164 0
2.265000 0.172639 0
2.270000 0.196779 0
2.275000 0.214903 0
2.280000 0.225673 0
2.285000 0.228262 1
2.290000 0.222456 0
2.295000 0.208685 0
2.300000 0.187970 0
2.305000 0.161797 0
2.310000 0.131939 0
2.315000 0.100244 0
2.320000 0.068389 0
2.325000 0.037548 0
2.330000 0.007889 0
2.335000 -0.022119 0
2.340000 -0.056119 0
2.345000 -0.098849 0
2.350000 -0.152523 0
2.355000 -0.211407 0
2.360000 -0.258233 0
2.365000 -0.266167 2
2.370000 -0.205636 0
2.375000 -0.052408 0
2.380000 0.202347 0
2.385000 0.535933 0
2.390000 0.879175 0
2.395000 1.126219 0
2.400000 1.182068 3
2.405000 1.019135 0
2.410000 0.696338 0
2.415000 0.323316 0
2.420000 -0.002186 0
2.425000 -0.226080 0
2.430000 -0.335256 0
2.435000 -0.344341 4
2.440000 -0.285634 0
2.445000 -0.198183 0
2.450000 -0.113975 0
2.455000 -0.048745 0
2.460000 -0.003074 0
2.465000 0.029864 0
2.470000 0.057215 0
2.475000 0.083487 0
2.480000 0.110670 0
2.485000 0.139290 0
2.490000 0.169210 0
2.495000 0.200015 0
2.500000 0.231149 0
2.505000 0.261972 0
2.510000 0.291781 0
2.515000 0.319840 0
2.520000 0.345407 0
2.525000 0.367766 0
2.530000 0.386261 0
2.535000 0.400326 0
2.540000 0.409512 0
2.545000 0.413514 5
2.550000 0.412180 0
2.555000 0.405528 0
2.560000 0.393740 0
2.565000 0.377153 0
2.570000 0.356245 0
2.575000 0.331611 0
2.580000 0.303933 0
2.585000 0.273948 0
2.590000 0.242418 0
2.595000 0.210094 0
2.600000 0.177691 0
2.605000 0.145860 0
2.610000 0.115170 0
2.615000 0.086093 0
2.620000 0.058999 0
2.625000 0.034154 0
2.630000 0.011722 0
2.635000 -0.008225 0
2.640000 -0.025697 0
2.645000 -0.040773 0
2.650000 -0.053582 0
2.655000 -0.064297 0
2.660000 -0.073112 0
2.665000 -0.080238 0
2.670000 -0.085887 0
2.675000 -0.090266 0
2.680000 -0.093570 0
2.685000 -0.095979 0
2.690000 -0.097652 0
2.695000 -0.098731 0
2.700000 -0.098126 0
2.705000 -0.097240 0
2.710000 -0.096358 0
2.715000 -0.095481 0
2.720000 -0.094607 0
2.725000 -0.093738 0
2.730000 -0.092873 0
2.735000 -0.092011 0
2.740000 -0.091152 0
2.745000 -0.090293 0
2.750000 -0.089430 0
2.755000 -0.088557 0
2.760000 -0.087661 0
2.765000 -0.086722 0
2.770000 -0.085705 0
2.775000 -0.084555 0
2.780000 -0.083187 0
2.785000 -0.081477 0
2.790000 -0.079246 0
2.795000 -0.076250 0
2.800000 -0.072172 0
2.805000 -0.066616 0
2.810000 -0.059123 0
2.815000 -0.049190 0
2.820000 -0.036318 0
2.825000 -0.020077 0
2.830000 -0.000190 0
2.835000 0.023383 0
2.840000 0.050352 0
2.845000 0.080041 0
2.850000 0.111360 0
2.855000 0.142839 0
2.860000 0.172721 0
2.865000 0.199114 0
2.870000 0.220183 0
2.875000 0.234360 0
2.880000 0.240537 1
2.885000 0.238208 0
2.890000 0.227535 0
2.895000 0.209333 0
2.900000 0.184963 0
2.905000 0.156163 0
2.910000 0.124837 0
2.915000 0.092804 0
2.920000 0.061492 0
2.925000 0.031471 0
2.930000 0.001765 0
2.935000 -0.030770 0
2.940000 -0.070943 0
2.945000 -0.122188 0
2.950000 -0.181046 0
2.955000 -0.232470 0
2.960000 -0.250437 2
2.965000 -0.204400 0
2.970000 -0.067777 0
2.975000 0.172072 0
2.980000 0.497817 0
2.985000 0.844918 0
2.990000 1.107107 0
2.995000 1.182511 3
3.000000 1.035508 0
3.005000 0.720948 0
3.010000 0.347882 0
3.015000 0.017147 0
3.020000 -0.213676 0
3.025000 -0.329225 0
3.030000 -0.342941 4
3.035000 -0.286670 0
3.040000 -0.199747 0
3.045000 -0.114994 0
3.050000 -0.048992 0
3.055000 -0.002776 0
3.060000 0.030413 0
3.065000 0.057831 0
3.070000 0.084093 0
3.075000 0.111249 0
3.080000 0.139847 0
3.085000 0.169753 0
3.090000 0.200551 0
3.095000 0.231683 0
3.100000 0.262501 0
3.105000 0.292298 0
3.110000 0.320330 0
3.115000 0.345851 0
3.120000 0.368140 0
3.125000 0.386536 0
3.130000 0.400471 0
3.135000 0.409497 0
3.140000 0.413309 5
3.145000 0.411762 0
3.150000 0.404880 0
3.155000 0.392853 0
3.160000 0.376029 0
3.165000 0.354895 0
3.170000 0.330058 0
3.175000 0.302208 0
3.180000 0.272093 0
3.185000 0.240478 0
3.190000 0.208122 0
3.195000 0.175739 0
3.200000 0.143979 0
3.205000 0.113410 0
3.210000 0.084498 0
3.215000 0.057606 0
3.220000 0.032992 0
3.225000 0.010812 0
3.230000 -0.008871 0
3.235000 -0.026075 0
3.240000 -0.040886 0
3.245000 -0.053440 0
3.250000 -0.063914 0
3.255000 -0.072508 0
3.260000 -0.079433 0
3.265000 -0.084905 0
3.270000 -0.089129 0
3.275000 -0.092301 0
3.280000 -0.094599 0
3.285000 -0.096181 0
3.290000 -0.097186 0
3.295000 -0.096576 0
3.300000 -0.095698 0
3.305000 -0.094824 0
3.310000 -0.093954 0
3.315000 -0.093088 0
3.320000 -0.092227 0
3.325000 -0.091369 0
3.330000 -0.090515 0
3.335000 -0.089662 0
3.340000 -0.088809 0
3.345000 -0.087951 0
3.350000 -0.087081 0
3.355000 -0.086185 0
3.360000 -0.085239 0
3.365000 -0.084205 0
3.370000 -0.083021 0
3.375000 -0.081595 0
3.380000 -0.079789 0
3.385000 -0.077410 0
3.390000 -0.074194 0
3.395000 -0.069802 0
3.400000 -0.063820 0
3.405000 -0.055770 0
3.410000 -0.045140 0
3.415000 -0.031440 0
3.420000 -0.014266 0
3.425000 0.006607 0
3.430000 0.031138 0
3.435000 0.058936 0
3.440000 0.089202 0
3.445000 0.120728 0
3.450000 0.151936 0
3.455000 0.180998 0
3.460000 0.206004 0
3.465000 0.225160 0
3.470000 0.237007 0
3.475000 0.240598 1
3.480000 0.235627 0
3.485000 0.222467 0
3.490000 0.202129 0
3.495000 0.176125 0
3.500000 0.146289 0
3.505000 0.114538 0
3.510000 0.082616 0
3.515000 0.051737 0
3.520000 0.022031 0
3.525000 -0.008192 0
3.530000 -0.042843 0
3.535000 -0.086790 0
3.540000 -0.141714 0
3.545000 -0.200272 0
3.550000 -0.242844 2
3.555000 -0.240571 0
3.560000 -0.163142 0
3.565000 0.012363 0
3.570000 0.289493 0
3.575000 0.633983 0
3.580000 0.961639 0
3.585000 1.159600 3
3.590000 1.146606 0
3.595000 0.925666 0
3.600000 0.576699 0
3.605000 0.208526 0
3.610000 -0.094005 0
3.615000 -0.289758 0
3.620000 -0.373732 4
3.625000 -0.364894 0
3.630000 -0.297122 0
3.635000 -0.208100 0
3.640000 -0.126391 0
3.645000 -0.064387 0
3.650000 -0.020925 0
3.655000 0.011036 0
3.660000 0.038196 0
3.665000 0.064608 0
3.670000 0.092013 0
3.675000 0.120840 0
3.680000 0.150925 0
3.685000 0.181855 0
3.690000 0.213086 0
3.695000 0.243992 0
3.700000 0.273891 0
3.705000 0.302066 0
3.710000 0.327798 0
3.715000 0.350390 0
3.720000 0.369200 0
3.725000 0.383675 0
3.730000 0.393368 0
3.735000 0.397971 5
3.740000 0.397322 0
3.745000 0.391420 0
3.750000 0.380421 0
3.755000 0.364633 0
3.760000 0.344502 0
3.765000 0.320587 0
3.770000 0.293538 0
3.775000 0.264063 0
3.780000 0.232902 0
3.785000 0.200788 0
3.790000 0.168427 0
3.795000 0.136471 0
3.800000 0.105493 0
3.805000 0.075983 0
3.810000 0.048328 0
3.815000 0.022819 0
3.820000 -0.000354 0
3.825000 -0.021091 0
3.830000 -0.039376 0
3.835000 -0.055261 0
3.840000 -0.068856 0
3.845000 -0.080313 0
3.850000 -0.089814 0
3.855000 -0.097559 0
3.860000 -0.103754 0
3.865000 -0.108604 0
3.870000 -0.112305 0
3.875000 -0.115038 0
3.880000 -0.116969 0
3.885000 -0.118245 0
3.890000 -0.118741 0
3.895000 -0.117752 0
3.900000 -0.116768 0
3.905000 -0.115788 0
3.910000 -0.114814 0
3.915000 -0.113844 0
3.920000 -0.112879 0
3.925000 -0.111918 0
3.930000 -0.110961 0
3.935000 -0.110006 0
3.940000 -0.109051 0
3.945000 -0.108091 0
3.950000 -0.107119 0
3.955000 -0.106120 0
3.960000 -0.105071 0
3.965000 -0.103935 0
3.970000 -0.102652 0
3.975000 -0.101132 0
3.980000 -0.099243 0
3.985000 -0.096800 0
3.990000 -0.093553 0
3.995000 -0.089181 0
4.000000 -0.083290 0
4.005000 -0.075424 0
4.010000 -0.065092 0
4.015000 -0.051815 0
4.020000 -0.035186 0
4.025000 -0.014949 0
4.030000 0.008910 0
4.035000 0.036093 0
4.040000 0.065923 0
4.045000 0.097330 0
4.050000 0.128881 0
4.055000 0.158868 0
4.060000 0.185452 0
4.065000 0.206846 0
4.070000 0.221513 0
4.075000 0.228344 1
4.080000 0.226803 0
4.085000 0.216994 0
4.090000 0.199649 0
4.095000 0.176038 0
4.100000 0.147816 0
4.105000 0.116824 0
4.110000 0.084860 0
4.115000 0.053406 0
4.120000 0.023217 0
4.125000 -0.006295 0
4.130000 -0.037714 0
4.135000 -0.075506 0
4.140000 -0.123777 0
4.145000 -0.181458 0
4.150000 -0.237201 0
4.155000 -0.268304 2
4.160000 -0.245528 0
4.165000 -0.140907 0
4.170000 0.063681 0
4.175000 0.363590 0
4.180000 0.713665 0
4.185000 1.022471 0
4.190000 1.181767 3
4.195000 1.124969 0
4.200000 0.870204 0
4.205000 0.508666 0
4.210000 0.148500 0
4.215000 -0.133566 0
4.220000 -0.304852 0
4.225000 -0.366383 4
4.230000 -0.341286 0
4.235000 -0.265641 0
4.240000 -0.176381 0
4.245000 -0.098811 0
4.250000 -0.041699 0
4.255000 -0.001752 0
4.260000 0.028462 0
4.265000 0.055113 0
4.270000 0.081628 0
4.275000 0.109336 0
4.280000 0.138467 0
4.285000 0.168771 0
4.290000 0.199789 0
4.295000 0.230949 0
4.300000 0.261603 0
4.305000 0.291051 0
4.310000 0.318570 0
4.315000 0.343435 0
4.320000 0.364959 0
4.325000 0.382517 0
4.330000 0.395581 0
4.335000 0.403740 0
4.340000 0.406726 5
4.345000 0.404423 0
4.350000 0.396880 0
4.355000 0.384302 0
4.360000 0.367044 0
4.365000 0.345595 0
4.370000 0.320549 0
4.375000 0.292584 0
4.380000 0.262426 0
4.385000 0.230822 0
4.390000 0.198505 0
4.395000 0.166169 0
4.400000 0.134446 0
4.405000 0.103886 0
4.410000 0.074946 0
4.415000 0.047983 0
4.420000 0.023253 0
4.425000 0.000913 0
4.430000 -0.018967 0
4.435000 -0.036398 0
4.440000 -0.051456 0
4.445000 -0.064268 0
4.450000 -0.075002 0
4.455000 -0.083848 0
4.460000 -0.091011 0
4.465000 -0.096699 0
4.470000 -0.101116 0
4.475000 -0.104454 0
4.480000 -0.106891 0
4.485000 -0.108583 0
4.490000 -0.109673 0
4.495000 -0.109023 0
4.500000 -0.108083 0
4.505000 -0.107147 0
4.510000 -0.106216 0
4.515000 -0.105289 0
4.520000 -0.104367 0
4.525000 -0.103449 0
4.530000 -0.102535 0
4.535000 -0.101623 0
4.540000 -0.100713 0
4.545000 -0.099801 0
4.550000 -0.098880 0
4.555000 -0.097942 0
4.560000 -0.096967 0
4.565000 -0.095927 0
4.570000 -0.094774 0
4.575000 -0.093435 0
4.580000 -0.091801 0
4.585000 -0.089715 0
4.590000 -0.086961 0
4.595000 -0.083252 0
4.600000 -0.078229 0
4.605000 -0.071462 0
4.610000 -0.062470 0
4.615000 -0.050757 0
4.620000 -0.035868 0
4.625000 -0.017460 0
4.630000 0.004611 0
4.635000 0.030209 0
4.640000 0.058840 0
4.645000 0.089617 0
4.650000 0.121262 0
4.655000 0.152171 0
4.660000 0.180534 0
4.665000 0.204500 0
4.670000 0.222382 0
4.675000 0.232843 0
4.680000 0.235070 1
4.685000 0.228872 0
4.690000 0.214709 0
4.695000 0.193636 0
4.700000 0.167173 0
4.705000 0.137117 0
4.710000 0.105330 0
4.715000 0.073479 0
4.720000 0.042699 0
4.725000 0.013056 0
4.730000 -0.017154 0
4.735000 -0.051763 0
4.740000 -0.095510 0
4.745000 -0.150130 0
4.750000 -0.208817 0
4.755000 -0.253009 0
4.760000 -0.254997 2
4.765000 -0.185147 0
4.770000 -0.020176 0
4.775000 0.246067 0
4.780000 0.585583 0
4.785000 0.922677 0
4.790000 1.148678 0
4.795000 1.174075 3
4.800000 0.983479 0
4.805000 0.646615 0
4.810000 0.275283 0
4.815000 -0.037668 0
4.820000 -0.244618 0
4.825000 -0.337315 4
4.830000 -0.333693 0
4.835000 -0.268035 0
4.840000 -0.179362 0
4.845000 -0.097604 0
4.850000 -0.035812 0
4.855000 0.007214 0
4.860000 0.038769 0
4.865000 0.065684 0
4.870000 0.092004 0
4.875000 0.119404 0
4.880000 0.148253 0
4.885000 0.178346 0
4.890000 0.209235 0
4.895000 0.240345 0
4.900000 0.271018 0
4.905000 0.300541 0
4.910000 0.328171 0
4.915000 0.353165 0
4.920000 0.374814 0
4.925000 0.392472 0
4.930000 0.405593 0
4.935000 0.413751 0
4.940000 0.416671 5
4.945000 0.414233 0
4.950000 0.406490 0
4.955000 0.393656 0
4.960000 0.376103 0
4.965000 0.354336 0
4.970000 0.328973 0
4.975000 0.300716 0
4.980000 0.270311 0
4.985000 0.238526 0
4.990000 0.206108 0
4.995000 0.173763 0
5.000000 0.142129 0
5.005000 0.111754 0
5.010000 0.083091 0
5.015000 0.056487 0
5.020000 0.032185 0
5.025000 0.010325 0
5.030000 -0.009040 0
5.035000 -0.025938 0
5.040000 -0.040461 0
5.045000 -0.052753 0
5.050000 -0.062992 0
5.055000 -0.071380 0
5.060000 -0.078128 0
5.065000 -0.083450 0
5.070000 -0.087551 0
5.075000 -0.090623 0
5.080000 -0.092842 0
5.085000 -0.094363 0
5.090000 -0.095322 0
5.095000 -0.094713 0
5.100000 -0.093844 0
5.105000 -0.092979 0
5.110000 -0.092119 0
5.115000 -0.091262 0
5.120000 -0.090410 0
5.125000 -0.089561 0
5.130000 -0.088715 0
5.135000 -0.087872 0
5.140000 -0.087027 0
5.145000 -0.086177 0
5.150000 -0.085314 0
5.155000 -0.084423 0
5.160000 -0.083479 0
5.165000 -0.082444 0
5.170000 -0.081253 0
5.175000 -0.079811 0
5.180000 -0.077977 0
5.185000 -0.075553 0
5.190000 -0.072271 0
5.195000 -0.067788 0
5.200000 -0.061685 0
5.205000 -0.053484 0
5.210000 -0.042673 0
5.215000 -0.028768 0
5.220000 -0.011375 0
5.225000 0.009717 0
5.230000 0.034447 0
5.235000 0.062403 0
5.240000 0.092766 0
5.245000 0.124308 0
5.250000 0.155441 0
5.255000 0.184337 0
5.260000 0.209090 0
5.265000 0.227926 0
5.270000 0.239411 0
5.275000 0.242627 1
5.280000 0.237298 0
5.285000 0.223825 0
5.290000 0.203235 0
5.295000 0.177053 0
5.300000 0.147111 0
5.305000 0.115320 0
5.310000 0.083407 0
5.315000 0.052558 0
5.320000 0.022862 0
5.325000 -0.007422 0
5.330000 -0.042239 0
5.335000 -0.086426 0
5.340000 -0.141534 0
5.345000 -0.200026 0
5.350000 -0.242149 2
5.355000 -0.239057 0
5.360000 -0.160586 0
5.365000 0.015958 0
5.370000 0.293842 0
5.375000 0.638545 0
5.380000 0.965871 0
5.385000 1.163329 3
5.390000 1.149864 0
5.395000 0.928303 0
5.400000 0.578976 0
5.405000 0.210980 0
5.410000 -0.090854 0
5.415000 -0.285597 0
5.420000 -0.368496 4
5.425000 -0.358769 0
5.430000 -0.290505 0
5.435000 -0.201450 0
5.440000 -0.120032 0
5.445000 -0.058418 0
5.450000 -0.015269 0
5.455000 0.016511 0
5.460000 0.043597 0
5.465000 0.069996 0
5.470000 0.097411 0
5.475000 0.126251 0
5.480000 0.156343 0
5.485000 0.187267 0
5.490000 0.218475 0
5.495000 0.249338 0
5.500000 0.279169 0
5.505000 0.307251 0
5.510000 0.332861 0
5.515000 0.355302 0
5.520000 0.373934 0
5.525000 0.388204 0
5.530000 0.397671 0
5.535000 0.402031 5
5.540000 0.401128 0
5.545000 0.394969 0
5.550000 0.383716 0
5.555000 0.367687 0
5.560000 0.347332 0
5.565000 0.323220 0
5.570000 0.296005 0
5.575000 0.266400 0
5.580000 0.235146 0
5.585000 0.202980 0
5.590000 0.170605 0
5.595000 0.138671 0
5.600000 0.107750 0
5.605000 0.078325 0
5.610000 0.050780 0
5.615000 0.025398 0
5.620000 0.002365 0
5.625000 -0.018226 0
5.630000 -0.036362 0
5.635000 -0.052101 0
5.640000 -0.065556 0
5.645000 -0.076883 0
5.650000 -0.086266 0
5.655000 -0.093906 0
5.660000 -0.100009 0
5.665000 -0.104782 0
5.670000 -0.108418 0
5.675000 -0.111100 0
5.680000 -0.112992 0
5.685000 -0.114239 0
5.690000 -0.114720 0
5.695000 -0.113751 0
5.700000 -0.112787 0
5.705000 -0.111828 0
5.710000 -0.110873 0
5.715000 -0.109923 0
5.720000 -0.108977 0
5.725000 -0.108036 0
5.730000 -0.107098 0
5.735000 -0.106162 0
5.740000 -0.105225 0
5.745000 -0.104283 0
5.750000 -0.103327 0
5.755000 -0.102343 0
5.760000 -0.101305 0
5.765000 -0.100175 0
5.770000 -0.098889 0
5.775000 -0.097353 0
5.780000 -0.095430 0
5.785000 -0.092928 0
5.790000 -0.089587 0
5.795000 -0.085078 0
5.800000 -0.078996 0
5.805000 -0.070880 0
5.810000 -0.060235 0
5.815000 -0.046586 0
5.820000 -0.029538 0
5.825000 -0.008862 0
5.830000 0.015424 0
5.835000 0.042974 0
5.840000 0.073060 0
5.845000 0.104558 0
5.850000 0.135990 0
5.855000 0.165615 0
5.860000 0.191587 0
5.865000 0.212135 0
5.870000 0.225764 0
5.875000 0.231437 1
5.880000 0.228702 0
5.885000 0.217754 0
5.890000 0.199411 0
5.895000 0.175011 0
5.900000 0.146255 0
5.905000 0.114996 0
5.910000 0.083013 0
5.915000 0.051710 0
5.920000 0.021689 0
5.925000 -0.007907 0
5.930000 -0.040002 0
5.935000 -0.079235 0
5.940000 -0.129284 0
5.945000 -0.187740 0
5.950000 -0.241334 0
5.955000 -0.265799 2
5.960000 -0.231474 0
5.965000 -0.111290 0
5.970000 0.110253 0
5.975000 0.422984 0
5.980000 0.773544 0
5.985000 1.064219 0
5.990000 1.189202 3
5.995000 1.095345 0
6.000000 0.816496 0
6.005000 0.448696 0
6.010000 0.095610 0
6.015000 -0.173546 0
6.020000 -0.331682 0
6.025000 -0.382792 4
6.030000 -0.351276 0
6.035000 -0.273110 0
6.040000 -0.183948 0
6.045000 -0.107449 0
6.050000 -0.051274 0
6.055000 -0.011795 0
6.060000 0.018296 0
6.065000 0.044974 0
6.070000 0.071544 0
6.075000 0.099296 0
6.080000 0.128455 0
6.085000 0.158780 0
6.090000 0.189826 0
6.095000 0.221036 0
6.100000 0.251779 0
6.105000 0.281374 0
6.110000 0.309110 0
6.115000 0.334280 0
6.120000 0.356206 0
6.125000 0.374270 0
6.130000 0.387942 0
6.135000 0.396806 0
6.140000 0.400580 5
6.145000 0.399128 0
6.150000 0.392474 0
6.155000 0.380794 0
6.160000 0.364410 0
6.165000 0.343778 0
6.170000 0.319462 0
6.175000 0.292111 0
6.180000 0.262427 0
6.185000 0.231141 0
6.190000 0.198974 0
6.195000 0.166618 0
6.200000 0.134710 0
6.205000 0.103812 0
6.210000 0.074396 0
6.215000 0.046843 0
6.220000 0.021431 0
6.225000 -0.001655 0
6.230000 -0.022320 0
6.235000 -0.040550 0
6.240000 -0.056398 0
6.245000 -0.069973 0
6.250000 -0.081426 0
6.255000 -0.090936 0
6.260000 -0.098699 0
6.265000 -0.104920 0
6.270000 -0.109800 0
6.275000 -0.113532 0
6.280000 -0.116297 0
6.285000 -0.118259 0
6.290000 -0.119562 0
6.295000 -0.120077 0
6.300000 -0.119081 0
6.305000 -0.118090 0
6.310000 -0.117105 0
6.315000 -0.116124 0
6.320000 -0.115147 0
6.325000 -0.114176 0
6.330000 -0.113209 0
6.335000 -0.112245 0
6.340000 -0.111284 0
6.345000 -0.110323 0
6.350000 -0.109359 0
6.355000 -0.108384 0
6.360000 -0.107385 0
6.365000 -0.106341 0
6.370000 -0.105218 0
6.375000 -0.103962 0
6.380000 -0.102490 0
6.385000 -0.100680 0
6.390000 -0.098361 0
6.395000 -0.095301 0
6.400000 -0.091199 0
6.405000 -0.085679 0
6.410000 -0.078306 0
6.415000 -0.068600 0
6.420000 -0.056081 0
6.425000 -0.040323 0
6.430000 -0.021030 0
6.435000 0.001883 0
6.440000 0.028210 0
6.445000 0.057390 0
6.450000 0.088476 0
6.455000 0.120150 0
6.460000 0.150797 0
6.465000 0.178626 0
6.470000 0.201838 0
6.475000 0.218818 0
6.480000 0.228321 0
6.485000 0.229621 1
6.490000 0.222603 0
6.495000 0.207783 0
6.500000 0.186241 0
6.505000 0.159493 0
6.510000 0.129312 0
6.515000 0.097516 0
6.520000 0.065722 0
6.525000 0.035012 0
6.530000 0.005416 0
6.535000 -0.024764 0
6.540000 -0.059292 0
6.545000 -0.102817 0
6.550000 -0.157144 0
6.555000 -0.215911 0
6.560000 -0.261376 0
6.565000 -0.266698 2
6.570000 -0.202745 0
6.575000 -0.045990 0
6.580000 0.211524 0
6.585000 0.546266 0
6.590000 0.888916 0
6.595000 1.134640 0
6.600000 1.189953 3
6.605000 1.027677 0
6.610000 0.705686 0
6.615000 0.332551 0
6.620000 0.005586 0
6.625000 -0.220828 0
6.630000 -0.332971 0
6.635000 -0.344758 4
6.640000 -0.287799 0
6.645000 -0.200794 0
6.650000 -0.115967 0
6.655000 -0.049688 0
6.660000 -0.003111 0
6.665000 0.030347 0
6.670000 0.057875 0
6.675000 0.084121 0
6.680000 0.111195 0
6.685000 0.139690 0
6.690000 0.169503 0
6.695000 0.200237 0
6.700000 0.231351 0
6.705000 0.262218 0
6.710000 0.292146 0
6.715000 0.320408 0
6.720000 0.346267 0
6.725000 0.369011 0
6.730000 0.387980 0
6.735000 0.402602 0
6.740000 0.412417 0
6.745000 0.417102 5
6.750000 0.416487 0
6.755000 0.410567 0
6.760000 0.399497 0
6.765000 0.383592 0
6.770000 0.363305 0
6.775000 0.339209 0
6.780000 0.311969 0
6.785000 0.282307 0
6.790000 0.250977 0
6.795000 0.218727 0
6.800000 0.186274 0
6.805000 0.154276 0
6.810000 0.123313 0
6.815000 0.093873 0
6.820000 0.066343 0
6.825000 0.041005 0
6.830000 0.018044 0
6.835000 -0.002451 0
6.840000 -0.020474 0
6.845000 -0.036088 0
6.850000 -0.049413 0
6.855000 -0.060609 0
6.860000 -0.069867 0
6.865000 -0.077392 0
6.870000 -0.083395 0
6.875000 -0.088083 0
6.880000 -0.091652 0
6.885000 -0.094286 0
6.890000 -0.096147 0
6.895000 -0.097380 0
6.900000 -0.097876 0
6.905000 -0.096991 0
6.910000 -0.096111 0
6.915000 -0.095234 0
6.920000 -0.094362 0
6.925000 -0.093495 0
6.930000 -0.092631 0
6.935000 -0.091771 0
6.940000 -0.090913 0
6.945000 -0.090057 0
6.950000 -0.089198 0
6.955000 -0.088332 0
6.960000 -0.087448 0
6.965000 -0.086529 0
6.970000 -0.085546 0
6.975000 -0.084453 0
6.980000 -0.083176 0
6.985000 -0.081608 0
6.990000 -0.079592 0
6.995000 -0.076911 0
7.000000 -0.073277 0
7.005000 -0.068327 0
7.010000 -0.061628 0
7.015000 -0.052693 0
7.020000 -0.041021 0
7.025000 -0.026150 0
7.030000 -0.007734 0
7.035000 0.014369 0
7.040000 0.040012 0
7.045000 0.068687 0
7.050000 0.099481 0
7.055000 0.131086 0
7.060000 0.161867 0
7.065000 0.189984 0
7.070000 0.213568 0
7.075000 0.230928 0
7.080000 0.240743 0
7.085000 0.242235 1
7.090000 0.235265 0
7.095000 0.220357 0
7.100000 0.198628 0
7.105000 0.171654 0
7.110000 0.141272 0
7.115000 0.109357 0
7.120000 0.077555 0
7.125000 0.046911 0
7.130000 0.017297 0
7.135000 -0.013309 0
7.140000 -0.049050 0
7.145000 -0.094579 0
7.150000 -0.150659 0
7.155000 -0.208557 0
7.160000 -0.247568 2
7.165000 -0.238718 0
7.170000 -0.152552 0
7.175000 0.032243 0
7.180000 0.316692 0
7.185000 0.663385 0
7.190000 0.986296 0
7.195000 1.174289 3
7.200000 1.149680 0
7.205000 0.918399 0
7.210000 0.564843 0
7.215000 0.199078 0
7.220000 -0.095885 0
7.225000 -0.281725 0
7.230000 -0.355908 4
7.235000 -0.339469 0
7.240000 -0.267731 0
7.245000 -0.178489 0
7.250000 -0.098975 0
7.255000 -0.039755 0
7.260000 0.001581 0
7.265000 0.032403 0
7.270000 0.059172 0
7.275000 0.085589 0
7.280000 0.113141 0
7.285000 0.142127 0
7.290000 0.172321 0
7.295000 0.203273 0
7.300000 0.234415 0
7.305000 0.265098 0
7.310000 0.294622 0
7.315000 0.322257 0
7.320000 0.347273 0
7.325000 0.368976 0
7.330000 0.386732 0
7.335000 0.400002 0
7.340000 0.408367 0
7.345000 0.411549 5
7.350000 0.409426 0
7.355000 0.402039 0
7.360000 0.389591 0
7.365000 0.372434 0
7.370000 0.351056 0
7.375000 0.326054 0
7.380000 0.298108 0
7.385000 0.267951 0
7.390000 0.236332 0
7.395000 0.203992 0
7.400000 0.171628 0
7.405000 0.139878 0
7.410000 0.109295 0
7.415000 0.080341 0
7.420000 0.053372 0
7.425000 0.028646 0
7.430000 0.006321 0
7.435000 -0.013536 0
7.440000 -0.030936 0
7.445000 -0.045958 0
7.450000 -0.058731 0
7.455000 -0.069424 0
7.460000 -0.078230 0
7.465000 -0.085357 0
7.470000 -0.091012 0
7.475000 -0.095401 0
7.480000 -0.098717 0
7.485000 -0.101136 0
7.490000 -0.102819 0
7.495000 -0.103903 0
7.500000 -0.103277 0
7.505000 -0.102366 0
7.510000 -0.101458 0
7.515000 -0.100555 0
7.520000 -0.099657 0
7.525000 -0.098763 0
7.530000 -0.097873 0
7.535000 -0.096986 0
7.540000 -0.096102 0
7.545000 -0.095219 0
7.550000 -0.094333 0
7.555000 -0.093438 0
7.560000 -0.092523 0
7.565000 -0.091569 0
7.570000 -0.090545 0
7.575000 -0.089400 0
7.580000 -0.088058 0
7.585000 -0.086402 0
7.590000 -0.084269 0
7.595000 -0.081430 0
7.600000 -0.077589 0
7.605000 -0.072373 0
7.610000 -0.065340 0
7.615000 -0.056001 0
7.620000 -0.043859 0
7.625000 -0.028467 0
7.630000 -0.009506 0
7.635000 0.013132 0
7.640000 0.039253 0
7.645000 0.068298 0
7.650000 0.099305 0
7.655000 0.130923 0
7.660000 0.161491 0
7.665000 0.189165 0
7.670000 0.212097 0
7.675000 0.228638 0
7.680000 0.237532 0
7.685000 0.238074 1
7.690000 0.230203 0
7.695000 0.214508 0
7.700000 0.192161 0
7.705000 0.164766 0
7.710000 0.134165 0
7.715000 0.102215 0
7.720000 0.070512 0
7.725000 0.040013 0
7.730000 0.010447 0
7.735000 -0.020395 0
7.740000 -0.056783 0
7.745000 -0.103227 0
7.750000 -0.159911 0
7.755000 -0.217213 0
7.760000 -0.253688 2
7.765000 -0.240184 0
7.770000 -0.147681 0
7.775000 0.044091 0
7.780000 0.334207 0
7.785000 0.682421 0
7.790000 1.000476 0
7.795000 1.177919 3
7.800000 1.142044 0
7.805000 0.904564 0
7.810000 0.549558 0
7.815000 0.183981 0
7.820000 -0.111764 0
7.825000 -0.300165 0
7.830000 -0.378161 4
7.835000 -0.365515 0
7.840000 -0.296093 0
7.845000 -0.206906 0
7.850000 -0.125619 0
7.855000 -0.064005 0
7.860000 -0.020720 0
7.865000 0.011207 0
7.870000 0.038371 0
7.875000 0.064775 0
7.880000 0.092151 0
7.885000 0.120937 0
7.890000 0.150980 0
7.895000 0.181878 0
7.900000 0.213101 0
7.905000 0.244035 0
7.910000 0.274010 0
7.915000 0.302323 0
7.920000 0.328264 0
7.925000 0.351143 0
7.930000 0.370323 0
7.935000 0.385249 0
7.940000 0.395470 0
7.945000 0.400667 5
7.950000 0.400662 0
7.955000 0.395436 0
7.960000 0.385121 0
7.965000 0.370001 0
7.970000 0.350495 0
7.975000 0.327141 0
7.980000 0.300565 0
7.985000 0.271458 0
7.990000 0.240544 0
7.995000 0.208549 0
8.000000 0.176177 0
8.005000 0.144081 0
8.010000 0.112844 0
8.015000 0.082966 0
8.020000 0.054852 0
8.025000 0.028809 0
8.030000 0.005050 0
8.035000 -0.016308 0
8.040000 -0.035229 0
8.045000 -0.051747 0
8.050000 -0.065958 0
8.055000 -0.078000 0
8.060000 -0.088047 0
8.065000 -0.096291 0
8.070000 -0.102934 0
8.075000 -0.108180 0
8.080000 -0.112225 0
8.085000 -0.115252 0
8.090000 -0.117431 0
8.095000 -0.118912 0
8.100000 -0.119827 0
8.105000 -0.119109 0
8.110000 -0.118118 0
8.115000 -0.117132 0
8.120000 -0.116151 0
8.125000 -0.115175 0
8.130000 -0.114203 0
8.135000 -0.113236 0
8.140000 -0.112273 0
8.145000 -0.111313 0
8.150000 -0.110353 0
8.155000 -0.109392 0
8.160000 -0.108422 0
8.165000 -0.107433 0
8.170000 -0.106407 0
8.175000 -0.105313 0
8.180000 -0.104105 0
8.185000 -0.102708 0
8.190000 -0.101015 0
8.195000 -0.098869 0
8.200000 -0.096059 0
8.205000 -0.092303 0
8.210000 -0.087250 0
8.215000 -0.080479 0
8.220000 -0.071522 0
8.225000 -0.059893 0
8.230000 -0.045144 0
8.235000 -0.026931 0
8.240000 -0.005098 0
8.245000 0.020244 0
8.250000 0.048646 0
8.255000 0.079278 0
8.260000 0.110932 0
8.265000 0.142072 0
8.270000 0.170944 0
8.275000 0.195735 0
8.280000 0.214755 0
8.285000 0.226630 0
8.290000 0.230463 1
8.295000 0.225949 0
8.300000 0.213415 0
8.305000 0.193780 0
8.310000 0.168441 0
8.315000 0.139114 0
8.320000 0.107625 0
8.325000 0.075680 0
8.330000 0.044571 0
8.335000 0.014719 0
8.340000 -0.014973 0
8.345000 -0.047658 0
8.350000 -0.087979 0
8.355000 -0.139164 0
8.360000 -0.197911 0
8.365000 -0.250057 0
8.370000 -0.271010 2
8.375000 -0.231534 0
8.380000 -0.105504 0
8.385000 0.121279 0
8.390000 0.437084 0
8.395000 0.787475 0
8.400000 1.075339 0
8.405000 1.197154 3
8.410000 1.100348 0
8.415000 0.817793 0
8.420000 0.448789 0
8.425000 0.098726 0
8.430000 -0.163737 0
8.435000 -0.313240 0
8.440000 -0.355796 4
8.445000 -0.317872 0
8.450000 -0.236912 0
8.455000 -0.148541 0
8.460000 -0.074917 0
8.465000 -0.021839 0
8.470000 0.015457 0
8.475000 0.044471 0
8.480000 0.070846 0
8.485000 0.097500 0
8.490000 0.125462 0
8.495000 0.154824 0
8.500000 0.185275 0
8.505000 0.216327 0
8.510000 0.247385 0
8.515000 0.277786 0
8.520000 0.306820 0
8.525000 0.333758 0
8.530000 0.357878 0
8.535000 0.378502 0
8.540000 0.395022 0
8.545000 0.406934 0
8.550000 0.413855 0
8.555000 0.415553 5
8.560000 0.411949 0
8.565000 0.403131 0
8.570000 0.389340 0
8.575000 0.370968 0
8.580000 0.348533 0
8.585000 0.322656 0
8.590000 0.294032 0
8.595000 0.263397 0
8.600000 0.231501 0
8.605000 0.199071 0
8.610000 0.166791 0
8.615000 0.135275 0
8.620000 0.105052 0
8.625000 0.076556 0
8.630000 0.050117 0
8.635000 0.025967 0
8.640000 0.004238 0
8.645000 -0.015022 0
8.650000 -0.031843 0
8.655000 -0.046316 0
8.660000 -0.058583 0
8.665000 -0.068817 0
8.670000 -0.077216 0
8.675000 -0.083988 0
8.680000 -0.089340 0
8.685000 -0.093475 0
8.690000 -0.096581 0
8.695000 -0.098830 0
8.700000 -0.100377 0
8.705000 -0.101356 0
8.710000 -0.100726 0
8.715000 -0.099827 0
8.720000 -0.098932 0
8.725000 -0.098042 0
8.730000 -0.097156 0
8.735000 -0.096274 0
8.740000 -0.095396 0
8.745000 -0.094522 0
8.750000 -0.093650 0
8.755000 -0.092777 0
8.760000 -0.091902 0
8.765000 -0.091015 0
8.770000 -0.090105 0
8.775000 -0.089151 0
8.780000 -0.088118 0
8.785000 -0.086952 0
8.790000 -0.085568 0
8.795000 -0.083843 0
8.800000 -0.081602 0
8.805000 -0.078604 0
8.810000 -0.074539 0
8.815000 -0.069021 0
8.820000 -0.061598 0
8.825000 -0.051779 0
8.830000 -0.039071 0
8.835000 -0.023047 0
8.840000 -0.003421 0
8.845000 0.019865 0
8.850000 0.046556 0
8.855000 0.076023 0
8.860000 0.107235 0
8.865000 0.138785 0
8.870000 0.168973 0
8.875000 0.195946 0
8.880000 0.217883 0
8.885000 0.233193 0
8.890000 0.240708 1
8.895000 0.239828 0
8.900000 0.230602 0
8.905000 0.213720 0
8.910000 0.190431 0
8.915000 0.162386 0
8.920000 0.131441 0
8.925000 0.099423 0
8.930000 0.067856 0
8.935000 0.037547 0
8.940000 0.007975 0
8.945000 -0.023394 0
8.950000 -0.061035 0
8.955000 -0.109153 0
8.960000 -0.166817 0
8.965000 -0.222718 0
8.970000 -0.253995 2
8.975000 -0.231103 0
8.980000 -0.125791 0
8.985000 0.080127 0
8.990000 0.381493 0
8.995000 0.731722 0
9.000000 1.037460 0
9.005000 1.189707 3
9.010000 1.122317 0
9.015000 0.857961 0
9.020000 0.493018 0
9.025000 0.137336 0
9.030000 -0.134286 0
9.035000 -0.292404 0
9.040000 -0.341181 4
9.045000 -0.306623 0
9.050000 -0.226732 0
9.055000 -0.138275 0
9.060000 -0.064397 0
9.065000 -0.011289 0
9.070000 0.025872 0
9.075000 0.054746 0
9.080000 0.081055 0
9.085000 0.107708 0
9.090000 0.135707 0
9.095000 0.165112 0
9.100000 0.195589 0
9.105000 0.226629 0
9.110000 0.257615 0
9.115000 0.287863 0
9.120000 0.316642 0
9.125000 0.343204 0
9.130000 0.366816 0
9.135000 0.386792 0
9.140000 0.402524 0
9.145000 0.413515 0
9.150000 0.419402 0
9.155000 0.419974 5
9.160000 0.415189 0
9.165000 0.405168 0
9.170000 0.390198 0
9.175000 0.370712 0
9.180000 0.347268 0
9.185000 0.320527 0
9.190000 0.291213 0
9.195000 0.260088 0
9.200000 0.227915 0
9.205000 0.195428 0
9.210000 0.163305 0
9.215000 0.132148 0
9.220000 0.102464 0
9.225000 0.074661 0
9.230000 0.049038 0
9.235000 0.025792 0
9.240000 0.005025 0
9.245000 -0.013249 0
9.250000 -0.029089 0
9.255000 -0.042612 0
9.260000 -0.053978 0
9.265000 -0.063378 0
9.270000 -0.071021 0
9.275000 -0.077119 0
9.280000 -0.081884 0
9.285000 -0.085516 0
9.290000 -0.088200 0
9.295000 -0.090102 0
9.300000 -0.091370 0
9.305000 -0.091897 0
9.310000 -0.091042 0
9.315000 -0.090191 0
9.320000 -0.089344 0
9.325000 -0.088502 0
9.330000 -0.087663 0
9.335000 -0.086829 0
9.340000 -0.085997 0
9.345000 -0.085168 0
9.350000 -0.084340 0
9.355000 -0.083510 0
9.360000 -0.082671 0
9.365000 -0.081812 0
9.370000 -0.080916 0
9.375000 -0.079952 0
9.380000 -0.078869 0
9.385000 -0.077592 0
9.390000 -0.076004 0
9.395000 -0.073939 0
9.400000 -0.071169 0
9.405000 -0.067390 0
9.410000 -0.062223 0
9.415000 -0.055217 0
9.420000 -0.045874 0
9.425000 -0.033686 0
9.430000 -0.018200 0
9.435000 0.000903 0
9.440000 0.023718 0
9.445000 0.050027 0
9.450000 0.079231 0
9.455000 0.110313 0
9.460000 0.141864 0
9.465000 0.172163 0
9.470000 0.199318 0
9.475000 0.221458 0
9.480000 0.236941 0
9.485000 0.244559 1
9.490000 0.243688 0
9.495000 0.234374 0
9.500000 0.217330 0
9.505000 0.193841 0
9.510000 0.165609 0
9.515000 0.134535 0
9.520000 0.102481 0
9.525000 0.070969 0
9.530000 0.040745 0
9.535000 0.011110 0
9.540000 -0.020763 0
9.545000 -0.059584 0
9.550000 -0.109297 0
9.555000 -0.167743 0
9.560000 -0.221495 0
9.565000 -0.245585 2
9.570000 -0.209414 0
9.575000 -0.085258 0
9.580000 0.142070 0
9.585000 0.459885 0
9.590000 0.809395 0
9.595000 1.087030 0
9.600000 1.186564 3
9.605000 1.064644 0
9.610000 0.766523 0
9.615000 0.394875 0
9.620000 0.051995 0
9.625000 -0.198755 0
9.630000 -0.336160 0
9.635000 -0.368803 4
9.640000 -0.324652 0
9.645000 -0.241441 0
9.650000 -0.153735 0
9.655000 -0.081971 0
9.660000 -0.030585 0
9.665000 0.005723 0
9.670000 0.034380 0
9.675000 0.060761 0
9.680000 0.087564 0
9.685000 0.115705 0
9.690000 0.145228 0
9.695000 0.175805 0
9.700000 0.206937 0
9.705000 0.238029 0
9.710000 0.268415 0
9.715000 0.297386 0
9.720000 0.324215 0
9.725000 0.348187 0
9.730000 0.368629 0
9.735000 0.384942 0
9.740000 0.396630 0
9.745000 0.403321 0
9.750000 0.404791 5
9.755000 0.400972 0
9.760000 0.391957 0
9.765000 0.377997 0
9.770000 0.359486 0
9.775000 0.336946 0
9.780000 0.310998 0
9.785000 0.282337 0
9.790000 0.251698 0
9.795000 0.219825 0
9.800000 0.187443 0
9.805000 0.155230 0
9.810000 0.123795 0
9.815000 0.093663 0
9.820000 0.065263 0
9.825000 0.038923 0
9.830000 0.014868 0
9.835000 -0.006768 0
9.840000 -0.025941 0
9.845000 -0.042681 0
9.850000 -0.057080 0
9.855000 -0.069278 0
9.860000 -0.079450 0
9.865000 -0.087792 0
9.870000 -0.094510 0
9.875000 -0.099812 0
9.880000 -0.103899 0
9.885000 -0.106958 0
9.890000 -0.109162 0
9.895000 -0.110664 0
9.900000 -0.111598 0
9.905000 -0.110918 0
9.910000 -0.109968 0
9.915000 -0.109023 0
9.920000 -0.108082 0
9.925000 -0.107146 0
9.930000 -0.106214 0
9.935000 -0.105287 0
9.940000 -0.104363 0
9.945000 -0.103442 0
9.950000 -0.102521 0
9.955000 -0.101597 0
9.960000 -0.100663 0
9.965000 -0.099706 0
9.970000 -0.098707 0
9.975000 -0.097631 0
9.980000 -0.096426 0
9.985000 -0.095009 0
9.990000 -0.093259 0
9.995000 -0.091005 0
10.000000 -0.088012 0
10.005000 -0.083974 0
10.010000 -0.078511 0
10.015000 -0.071177 0
10.020000 -0.061485 0
10.025000 -0.048942 0
10.030000 -0.033117 0
10.035000 -0.013711 0
10.040000 0.009351 0
10.045000 0.035843 0
10.050000 0.065166 0
10.055000 0.096327 0
10.060000 0.127952 0
10.065000 0.158368 0
10.070000 0.185737 0
10.075000 0.208234 0
10.080000 0.224248 0
10.085000 0.232569 1
10.090000 0.232543 0
10.095000 0.224155 0
10.100000 0.208033 0
10.105000 0.185369 0
10.110000 0.157776 0
10.115000 0.127090 0
10.120000 0.095146 0
10.125000 0.063510 0
10.130000 0.033092 0
10.135000 0.003562 0
10.140000 -0.027351 0
10.145000 -0.063933 0
10.150000 -0.110619 0
10.155000 -0.167423 0
10.160000 -0.224561 0
10.165000 -0.260573 2
10.170000 -0.246473 0
10.175000 -0.153493 0
10.180000 0.038423 0
10.185000 0.328341 0
10.190000 0.676461 0
10.195000 0.995450 0
10.200000 1.175599 3
10.205000 1.142645 0
10.210000 0.905536 0
10.215000 0.550015 0
10.220000 0.185260 0
10.225000 -0.107407 0
10.230000 -0.290920 0
10.235000 -0.363347 4
10.240000 -0.345894 0
10.245000 -0.273771 0
10.250000 -0.184481 0
10.255000 -0.104981 0
10.260000 -0.045717 0
10.265000 -0.004294 0
10.270000 0.026607 0
10.275000 0.053422 0
10.280000 0.079855 0
10.285000 0.107408 0
10.290000 0.136390 0
10.295000 0.166584 0
10.300000 0.197546 0
10.305000 0.228715 0
10.310000 0.259450 0
10.315000 0.289055 0
10.320000 0.316805 0
10.325000 0.341978 0
10.330000 0.363879 0
10.335000 0.381876 0
10.340000 0.395429 0
10.345000 0.404113 0
10.350000 0.407645 5
10.355000 0.405893 0
10.360000 0.398887 0
10.365000 0.386818 0
10.370000 0.370024 0
10.375000 0.348982 0
10.380000 0.324277 0
10.385000 0.296579 0
10.390000 0.266611 0
10.395000 0.235118 0
10.400000 0.202837 0
10.405000 0.170468 0
10.410000 0.138649 0
10.415000 0.107940 0
10.420000 0.078808 0
10.425000 0.051622 0
10.430000 0.026645 0
10.435000 0.004048 0
10.440000 -0.016093 0
10.445000 -0.033780 0
10.450000 -0.049083 0
10.455000 -0.062126 0
10.460000 -0.073071 0
10.465000 -0.082107 0
10.470000 -0.089439 0
10.475000 -0.095275 0
10.480000 -0.099819 0
10.485000 -0.103264 0
10.490000 -0.105790 0
10.495000 -0.107557 0
10.500000 -0.108708 0
10.505000 -0.109131 0
10.510000 -0.108190 0
10.515000 -0.107254 0
10.520000 -0.106322 0
10.525000 -0.105395 0
10.530000 -0.104472 0
10.535000 -0.103554 0
10.540000 -0.102639 0
10.545000 -0.101727 0
10.550000 -0.100817 0
10.555000 -0.099905 0
10.560000 -0.098986 0
10.565000 -0.098050 0
10.570000 -0.097080 0
10.575000 -0.096048 0
10.580000 -0.094909 0
10.585000 -0.093594 0
10.590000 -0.091996 0
10.595000 -0.089965 0
10.600000 -0.087290 0
10.605000 -0.083694 0
10.610000 -0.078823 0
10.615000 -0.072254 0
10.620000 -0.063511 0
10.625000 -0.052096 0
10.630000 -0.037548 0
10.635000 -0.019507 0
10.640000 0.002194 0
10.645000 0.027451 0
10.650000 0.055809 0
10.655000 0.086420 0
10.660000 0.118046 0
10.665000 0.149110 0
10.670000 0.177814 0
10.675000 0.202305 0
10.680000 0.220868 0
10.685000 0.232124 0
10.690000 0.235200 1
10.695000 0.229839 0
10.700000 0.216439 0
10.705000 0.195999 0
10.710000 0.169999 0
10.715000 0.140219 0
10.720000 0.108524 0
10.725000 0.076617 0
10.730000 0.045704 0
10.735000 0.015989 0
10.740000 -0.014025 0
10.745000 -0.047975 0
10.750000 -0.090638 0
10.755000 -0.144296 0
10.760000 -0.203216 0
10.765000 -0.249996 0
10.770000 -0.257555 2
10.775000 -0.196078 0
10.780000 -0.041248 0
10.785000 0.215459 0
10.790000 0.550277 0
10.795000 0.892240 0
10.800000 1.134103 0
10.805000 1.181577 3
10.810000 1.008871 0
10.815000 0.680323 0
10.820000 0.307810 0
10.825000 -0.011866 0
10.830000 -0.227088 0
10.835000 -0.327137 0
10.840000 -0.328667 4
10.845000 -0.265543 0
10.850000 -0.177251 0
10.855000 -0.094762 0
10.860000 -0.032087 0
10.865000 0.011513 0
10.870000 0.043304 0
10.875000 0.070257 0
10.880000 0.096540 0
10.885000 0.123887 0
10.890000 0.152691 0
10.895000 0.182750 0
10.900000 0.213613 0
10.905000 0.244701 0
10.910000 0.275349 0
10.915000 0.304838 0
10.920000 0.332417 0
10.925000 0.357337 0
10.930000 0.378881 0
10.935000 0.396402 0
10.940000 0.409349 0
10.945000 0.417299 0
10.950000 0.419977 5
10.955000 0.417272 0
10.960000 0.409243 0
10.965000 0.396116 0
10.970000 0.378272 0
10.975000 0.356231 0
10.980000 0.330623 0
10.985000 0.302159 0
10.990000 0.271598 0
10.995000 0.239710 0
11.000000 0.207251 0
11.005000 0.174927 0
11.010000 0.143372 0
11.015000 0.113134 0
11.020000 0.084657 0
11.025000 0.058280 0
11.030000 0.034236 0
11.035000 0.012657 0
11.040000 -0.006415 0
11.045000 -0.023018 0
11.050000 -0.037251 0
11.055000 -0.049266 0
11.060000 -0.059247 0
11.065000 -0.067399 0
11.070000 -0.073937 0
11.075000 -0.079075 0
11.080000 -0.083018 0
11.085000 -0.085959 0
11.090000 -0.088071 0
11.095000 -0.089507 0
11.100000 -0.090149 0
11.105000 -0.089302 0
11.110000 -0.088460 0
11.115000 -0.087622 0
11.120000 -0.086788 0
11.125000 -0.085958 0
11.130000 -0.085132 0
11.135000 -0.084309 0
11.140000 -0.083490 0
11.145000 -0.082671 0
11.150000 -0.081850 0
11.155000 -0.081023 0
11.160000 -0.080179 0
11.165000 -0.079303 0
11.170000 -0.078365 0
11.175000 -0.077321 0
11.180000 -0.076100 0
11.185000 -0.074594 0
11.190000 -0.072647 0
11.195000 -0.070040 0
11.200000 -0.066485 0
11.205000 -0.061611 0
11.210000 -0.054977 0
11.215000 -0.046085 0
11.220000 -0.034423 0
11.225000 -0.019519 0
11.230000 -0.001021 0
11.235000 0.021207 0
11.240000 0.047003 0
11.245000 0.075822 0
11.250000 0.106705 0
11.255000 0.138284 0
11.260000 0.168860 0
11.265000 0.196539 0
11.270000 0.219421 0
11.275000 0.235808 0
11.280000 0.244417 0
11.285000 0.244543 1
11.290000 0.236152 0
11.295000 0.219888 0
11.300000 0.196995 0
11.305000 0.169150 0
11.310000 0.138262 0
11.315000 0.106223 0
11.320000 0.074615 0
11.325000 0.044279 0
11.330000 0.014663 0
11.335000 -0.016902 0
11.340000 -0.055074 0
11.345000 -0.104034 0
11.350000 -0.162199 0
11.355000 -0.216821 0
11.360000 -0.243298 2
11.365000 -0.210880 0
11.370000 -0.091263 0
11.375000 0.131712 0
11.380000 0.446820 0
11.385000 0.796736 0
11.390000 1.078146 0
11.395000 1.183160 3
11.400000 1.064914 0
11.405000 0.767651 0
11.410000 0.395991 0
11.415000 0.054276 0
11.420000 -0.193472 0
11.425000 -0.326544 0
11.430000 -0.354630 4
11.435000 -0.307056 0
11.440000 -0.222570 0
11.445000 -0.135730 0
11.450000 -0.065982 0
11.455000 -0.016585 0
11.460000 0.018419 0
11.465000 0.046504 0
11.470000 0.072794 0
11.475000 0.099731 0
11.480000 0.128070 0
11.485000 0.157768 0
11.490000 0.188453 0
11.495000 0.219593 0
11.500000 0.250564 0
11.505000 0.280673 0
11.510000 0.309189 0
11.515000 0.335368 0
11.520000 0.358486 0
11.525000 0.377873 0
11.530000 0.392940 0
11.535000 0.403211 0
11.540000 0.408349 5
11.545000 0.408169 0
11.550000 0.402654 0
11.555000 0.391949 0
11.560000 0.376362 0
11.565000 0.356343 0
11.570000 0.332463 0
11.575000 0.305389 0
11.580000 0.275850 0
11.585000 0.244605 0
11.590000 0.212410 0
11.595000 0.179990 0
11.600000 0.148010 0
11.605000 0.117059 0
11.610000 0.087631 0
11.615000 0.060117 0
11.620000 0.034805 0
11.625000 0.011879 0
11.630000 -0.008570 0
11.635000 -0.026536 0
11.640000 -0.042084 0
11.645000 -0.055335 0
11.650000 -0.066452 0
11.655000 -0.075627 0
11.660000 -0.083069 0
11.665000 -0.088989 0
11.670000 -0.093596 0
11.675000 -0.097089 0
11.680000 -0.099651 0
11.685000 -0.101446 0
11.690000 -0.102618 0
11.695000 -0.103063 0
11.700000 -0.102152 0
11.705000 -0.101246 0
11.710000 -0.100344 0
11.715000 -0.099446 0
11.720000 -0.098553 0
11.725000 -0.097664 0
11.730000 -0.096779 0
11.735000 -0.095896 0
11.740000 -0.095014 0
11.745000 -0.094130 0
11.750000 -0.093237 0
11.755000 -0.092325 0
11.760000 -0.091375 0
11.765000 -0.090355 0
11.770000 -0.089217 0
11.775000 -0.087882 0
11.780000 -0.086234 0
11.785000 -0.084107 0
11.790000 -0.081272 0
11.795000 -0.077427 0
11.800000 -0.072194 0
11.805000 -0.065122 0
11.810000 -0.055717 0
11.815000 -0.043473 0
11.820000 -0.027940 0
11.825000 -0.008801 0
11.830000 0.014039 0
11.835000 0.040367 0
11.840000 0.069588 0
11.845000 0.100699 0
11.850000 0.132302 0
11.855000 0.162689 0
11.860000 0.189980 0
11.865000 0.212313 0
11.870000 0.228046 0
11.875000 0.235962 1
11.880000 0.235422 0
11.885000 0.226448 0
11.890000 0.209727 0
11.895000 0.186519 0
11.900000 0.158500 0
11.905000 0.127560 0
11.910000 0.095556 0
11.915000 0.064031 0
11.920000 0.033780 0
11.925000 0.004209 0
11.930000 -0.027360 0
11.935000 -0.065542 0
11.940000 -0.114452 0
11.945000 -0.172536 0
11.950000 -0.227307 0
11.955000 -0.254621 2
11.960000 -0.224176 0
11.965000 -0.107861 0
11.970000 0.110896 0
11.975000 0.422549 0
11.980000 0.773003 0
11.985000 1.062103 0
11.990000 1.181746 3
11.995000 1.080973 0
12.000000 0.796580 0
12.005000 0.427384 0
12.010000 0.077562 0
12.015000 -0.185066 0
12.020000 -0.335331 0
12.025000 -0.379011 4
12.030000 -0.342101 0
12.035000 -0.261578 0
12.040000 -0.172909 0
12.045000 -0.098497 0
12.050000 -0.044559 0
12.055000 -0.006625 0
12.060000 0.022743 0
12.065000 0.049265 0
12.070000 0.075958 0
12.075000 0.103924 0
12.080000 0.133292 0
12.085000 0.163773 0
12.090000 0.194891 0
12.095000 0.226068 0
12.100000 0.256651 0
12.105000 0.285941 0
12.110000 0.313216 0
12.115000 0.337760 0
12.120000 0.358898 0
12.125000 0.376017 0
12.130000 0.388604 0
12.135000 0.396267 0
12.140000 0.398755 5
12.145000 0.395969 0
12.150000 0.387974 0
12.155000 0.374987 0
12.160000 0.357375 0
12.165000 0.335634 0
12.170000 0.310362 0
12.175000 0.282238 0
12.180000 0.251986 0
12.185000 0.220347 0
12.190000 0.188048 0
12.195000 0.155775 0
12.200000 0.124151 0
12.205000 0.093716 0
12.210000 0.064919 0
12.215000 0.038108 0
12.220000 0.013534 0
12.225000 -0.008653 0
12.230000 -0.028388 0
12.235000 -0.045683 0
12.240000 -0.060616 0
12.245000 -0.073317 0
12.250000 -0.083952 0
12.255000 -0.092710 0
12.260000 -0.099796 0
12.265000 -0.105417 0
12.270000 -0.109774 0
12.275000 -0.113058 0
12.280000 -0.115445 0
12.285000 -0.117092 0
12.290000 -0.118138 0
12.295000 -0.117447 0
12.300000 -0.116464 0
12.305000 -0.115486 0
12.310000 -0.114514 0
12.315000 -0.113546 0
12.320000 -0.112582 0
12.325000 -0.111623 0
12.330000 -0.110668 0
12.335000 -0.109716 0
12.340000 -0.108766 0
12.345000 -0.107814 0
12.350000 -0.106854 0
12.355000 -0.105877 0
12.360000 -0.104865 0
12.365000 -0.103790 0
12.370000 -0.102605 0
12.375000 -0.101241 0
12.380000 -0.099590 0
12.385000 -0.097500 0
12.390000 -0.094760 0
12.395000 -0.091091 0
12.400000 -0.086140 0
12.405000 -0.079486 0
12.410000 -0.070653 0
12.415000 -0.059149 0
12.420000 -0.044515 0
12.425000 -0.026398 0
12.430000 -0.004632 0
12.435000 0.020675 0
12.440000 0.049070 0
12.445000 0.079711 0
12.450000 0.111368 0
12.455000 0.142477 0
12.460000 0.171255 0
12.465000 0.195859 0
12.470000 0.214583 0
12.475000 0.226049 0
12.480000 0.229376 1
12.485000 0.224293 0
12.490000 0.211176 0
12.495000 0.191000 0
12.500000 0.165219 0
12.505000 0.135595 0
12.510000 0.103979 0
12.515000 0.072078 0
12.520000 0.041125 0
12.525000 0.011395 0
12.530000 -0.018485 0
12.535000 -0.052005 0
12.540000 -0.093917 0
12.545000 -0.146826 0
12.550000 -0.205776 0
12.555000 -0.254358 0
12.560000 -0.266211 2
12.565000 -0.211638 0
12.570000 -0.065682 0
12.575000 0.182080 0
12.580000 0.511785 0
12.585000 0.857537 0
12.590000 1.114704 0
12.595000 1.185367 3
12.600000 1.035498 0
12.605000 0.720129 0
12.610000 0.347009 0
12.615000 0.015627 0
12.620000 -0.216896 0
12.625000 -0.334914 0
12.630000 -0.351189 4
12.635000 -0.296733 0
12.640000 -0.210317 0
12.645000 -0.124859 0
12.650000 -0.057591 0
12.655000 -0.010231 0
12.660000 0.023654 0
12.665000 0.051342 0
12.670000 0.077613 0
12.675000 0.104665 0
12.680000 0.133135 0
12.685000 0.162935 0
12.690000 0.193673 0
12.695000 0.224813 0
12.700000 0.255725 0
12.705000 0.285718 0
12.710000 0.314064 0
12.715000 0.340023 0
12.720000 0.362880 0
12.725000 0.381972 0
12.730000 0.396722 0
12.735000 0.406665 0
12.740000 0.411476 5
12.745000 0.410981 0
12.750000 0.405171 0
12.755000 0.394201 0
12.760000 0.378382 0
12.765000 0.358169 0
12.770000 0.334134 0
12.775000 0.306943 0
12.780000 0.277321 0
12.785000 0.246024 0
12.790000 0.213802 0
12.795000 0.181373 0
12.800000 0.149400 0
12.805000 0.118462 0
12.810000 0.089049 0
12.815000 0.061550 0
12.820000 0.036248 0
12.825000 0.013326 0
12.830000 -0.007127 0
12.835000 -0.025104 0
12.840000 -0.040670 0
12.845000 -0.053945 0
12.850000 -0.065091 0
12.855000 -0.074299 0
12.860000 -0.081775 0
12.865000 -0.087731 0
12.870000 -0.092373 0
12.875000 -0.095900 0
12.880000 -0.098493 0
12.885000 -0.100316 0
12.890000 -0.101514 0
12.895000 -0.101979 0
12.900000 -0.101074 0
12.905000 -0.100173 0
12.910000 -0.099276 0
12.915000 -0.098384 0
12.920000 -0.097497 0
12.925000 -0.096613 0
12.930000 -0.095733 0
12.935000 -0.094855 0
12.940000 -0.093979 0
12.945000 -0.093101 0
12.950000 -0.092214 0
12.955000 -0.091310 0
12.960000 -0.090369 0
12.965000 -0.089363 0
12.970000 -0.088243 0
12.975000 -0.086935 0
12.980000 -0.085329 0
12.985000 -0.083263 0
12.990000 -0.080518 0
12.995000 -0.076800 0
13.000000 -0.071742 0
13.005000 -0.064903 0
13.010000 -0.055795 0
13.015000 -0.043915 0
13.020000 -0.028804 0
13.025000 -0.010128 0
13.030000 0.012241 0
13.035000 0.038134 0
13.040000 0.067012 0
13.045000 0.097932 0
13.050000 0.129555 0
13.055000 0.160220 0
13.060000 0.188074 0
13.065000 0.211249 0
13.070000 0.228070 0
13.075000 0.237251 0
13.080000 0.238061 1
13.085000 0.230414 0
13.090000 0.214891 0
13.095000 0.192657 0
13.100000 0.165324 0
13.105000 0.134747 0
13.110000 0.102799 0
13.115000 0.071091 0
13.120000 0.040592 0
13.125000 0.011022 0
13.130000 -0.019857 0
13.135000 -0.056363 0
13.140000 -0.103016 0
13.145000 -0.159865 0
13.150000 -0.216943 0
13.155000 -0.252354 2
13.160000 -0.236593 0
13.165000 -0.140562 0
13.170000 0.055620 0
13.175000 0.349702 0
13.180000 0.698854 0
13.185000 1.011991 0
13.190000 1.178151 3
13.195000 1.126389 0
13.200000 0.873359 0
13.205000 0.511807 0
13.210000 0.152371 0
13.215000 -0.126996 0
13.220000 -0.293865 0
13.225000 -0.350324 4
13.230000 -0.320962 0
13.235000 -0.243177 0
13.240000 -0.154269 0
13.245000 -0.078699 0
13.250000 -0.023899 0
13.255000 0.014358 0
13.260000 0.043723 0
13.265000 0.070146 0
13.270000 0.096751 0
13.275000 0.124659 0
13.280000 0.153987 0
13.285000 0.184426 0
13.290000 0.215479 0
13.295000 0.246540 0
13.300000 0.276931 0
13.305000 0.305928 0
13.310000 0.332784 0
13.315000 0.356765 0
13.320000 0.377180 0
13.325000 0.393415 0
13.330000 0.404961 0
13.335000 0.411440 0
13.340000 0.412627 5
13.345000 0.408458 0
13.350000 0.399040 0
13.355000 0.384640 0
13.360000 0.365674 0
13.365000 0.342687 0
13.370000 0.316327 0
13.375000 0.287312 0
13.380000 0.256398 0
13.385000 0.224348 0
13.390000 0.191898 0
13.395000 0.159734 0
13.400000 0.128466 0
13.405000 0.098612 0
13.410000 0.070590 0
13.415000 0.044714 0
13.420000 0.021193 0
13.425000 0.000139 0
13.430000 -0.018423 0
13.435000 -0.034543 0
13.440000 -0.048330 0
13.445000 -0.059940 0
13.450000 -0.069559 0
13.455000 -0.077395 0
13.460000 -0.083658 0
13.465000 -0.088562 0
13.470000 -0.092306 0
13.475000 -0.095078 0
13.480000 -0.097048 0
13.485000 -0.098364 0
13.490000 -0.098913 0
13.495000 -0.098023 0
13.500000 -0.097137 0
13.505000 -0.096256 0
13.510000 -0.095379 0
13.515000 -0.094506 0
13.520000 -0.093637 0
13.525000 -0.092772 0
13.530000 -0.091910 0
13.535000 -0.091049 0
13.540000 -0.090186 0
13.545000 -0.089316 0
13.550000 -0.088430 0
13.555000 -0.087509 0
13.560000 -0.086527 0
13.565000 -0.085437 0
13.570000 -0.084167 0
13.575000 -0.082610 0
13.580000 -0.080610 0
13.585000 -0.077949 0
13.590000 -0.074339 0
13.595000 -0.069414 0
13.600000 -0.062736 0
13.605000 -0.053814 0
13.610000 -0.042139 0
13.615000 -0.027245 0
13.620000 -0.008783 0
13.625000 0.013390 0
13.630000 0.039120 0
13.635000 0.067880 0
13.640000 0.098737 0
13.645000 0.130352 0
13.650000 0.161058 0
13.655000 0.188987 0
13.660000 0.212253 0
13.665000 0.229158 0
13.670000 0.238401 0
13.675000 0.239235 1
13.680000 0.231575 0
13.685000 0.216003 0
13.690000 0.193702 0
13.695000 0.166300 0
13.700000 0.135671 0
13.705000 0.103704 0
13.710000 0.072013 0
13.715000 0.041548 0
13.720000 0.011973 0
13.725000 -0.019060 0
13.730000 -0.055974 0
13.735000 -0.103238 0
13.740000 -0.160493 0
13.745000 -0.216987 0
13.750000 -0.249962 2
13.755000 -0.229412 0
13.760000 -0.126326 0
13.765000 0.078206 0
13.770000 0.379308 0
13.775000 0.729540 0
13.780000 1.033382 0
13.785000 1.179957 3
13.790000 1.108421 0
13.795000 0.844125 0
13.800000 0.479999 0
13.805000 0.122210 0
13.810000 -0.155523 0
13.815000 -0.322615 0
13.820000 -0.381053 4
13.825000 -0.354218 0
13.830000 -0.277942 0
13.835000 -0.188625 0
13.840000 -0.111088 0
13.845000 -0.053904 0
13.850000 -0.013809 0
13.855000 0.016540 0
13.860000 0.043274 0
13.865000 0.069825 0
13.870000 0.097543 0
13.875000 0.126677 0
13.880000 0.156991 0
13.885000 0.188038 0
13.890000 0.219257 0
13.895000 0.250011 0
13.900000 0.279612 0
13.905000 0.307345 0
13.910000 0.332494 0
13.915000 0.354377 0
13.920000 0.372369 0
13.925000 0.385939 0
13.930000 0.394668 0
13.935000 0.398276 5
13.940000 0.396634 0
13.945000 0.389768 0
13.950000 0.377864 0
13.955000 0.361254 0
13.960000 0.340404 0
13.965000 0.315889 0
13.970000 0.288369 0
13.975000 0.258555 0
13.980000 0.227184 0
13.985000 0.194983 0
13.990000 0.162649 0
13.995000 0.130816 0
14.000000 0.100044 0
14.005000 0.070803 0
14.010000 0.043465 0
14.015000 0.018303 0
14.020000 -0.004508 0
14.025000 -0.024881 0
14.030000 -0.042812 0
14.035000 -0.058361 0
14.040000 -0.071645 0
14.045000 -0.082819 0
14.050000 -0.092068 0
14.055000 -0.099593 0
14.060000 -0.105598 0
14.065000 -0.110286 0
14.070000 -0.113852 0
14.075000 -0.116474 0
14.080000 -0.118315 0
14.085000 -0.119517 0
14.090000 -0.119962 0
14.095000 -0.118967 0
14.100000 -0.117977 0
14.105000 -0.116991 0
14.110000 -0.116011 0
14.115000 -0.115035 0
14.120000 -0.114064 0
14.125000 -0.113097 0
14.130000 -0.112134 0
14.135000 -0.111173 0
14.140000 -0.110211 0
14.145000 -0.109245 0
14.150000 -0.108264 0
14.155000 -0.107256 0
14.160000 -0.106197 0
14.165000 -0.105046 0
14.170000 -0.103743 0
14.175000 -0.102195 0
14.180000 -0.100269 0
14.185000 -0.097775 0
14.190000 -0.094462 0
14.195000 -0.090003 0
14.200000 -0.084003 0
14.205000 -0.076006 0
14.210000 -0.065523 0
14.215000 -0.052078 0
14.220000 -0.035271 0
14.225000 -0.014861 0
14.230000 0.009158 0
14.235000 0.036470 0
14.240000 0.066388 0
14.245000 0.097831 0
14.250000 0.129361 0
14.255000 0.159272 0
14.260000 0.185733 0
14.265000 0.206971 0
14.270000 0.221462 0
14.275000 0.228119 1
14.280000 0.226421 0
14.285000 0.216482 0
14.290000 0.199041 0
14.295000 0.175369 0
14.300000 0.147116 0
14.305000 0.116113 0
14.310000 0.084152 0
14.315000 0.052702 0
14.320000 0.022515 0
14.325000 -0.006991 0
14.330000 -0.038382 0
14.335000 -0.076092 0
14.340000 -0.124235 0
14.345000 -0.181834 0
14.350000 -0.237758 0
14.355000 -0.269570 2
14.360000 -0.248226 0
14.365000 -0.145786 0
14.370000 0.056138 0
14.375000 0.353744 0
14.380000 0.703446 0
14.385000 1.015448 0
14.390000 1.181690 3
14.395000 1.133873 0
14.400000 0.886844 0
14.405000 0.528212 0
14.410000 0.165198 0
14.415000 -0.123910 0
14.420000 -0.304109 0
14.425000 -0.374314 4
14.430000 -0.355809 0
14.435000 -0.283411 0
14.440000 -0.194059 0
14.445000 -0.114341 0
14.450000 -0.054687 0
14.455000 -0.012874 0
14.460000 0.018285 0
14.465000 0.045207 0
14.470000 0.071645 0
14.475000 0.099155 0
14.480000 0.128083 0
14.485000 0.158236 0
14.490000 0.189188 0
14.495000 0.220392 0
14.500000 0.251223 0
14.505000 0.281000 0
14.510000 0.309012 0
14.515000 0.334543 0
14.520000 0.356905 0
14.525000 0.375468 0
14.530000 0.389685 0
14.535000 0.399122 0
14.540000 0.403477 5
14.545000 0.402599 0
14.550000 0.396490 0
14.555000 0.385312 0
14.560000 0.369376 0
14.565000 0.349126 0
14.570000 0.325120 0
14.575000 0.298004 0
14.580000 0.268483 0
14.585000 0.237289 0
14.590000 0.205150 0
14.595000 0.172768 0
14.600000 0.140787 0
14.605000 0.109779 0
14.610000 0.080228 0
14.615000 0.052521 0
14.620000 0.026948 0
14.625000 0.003700 0
14.630000 -0.017123 0
14.635000 -0.035503 0
14.640000 -0.051488 0
14.645000 -0.065187 0
14.650000 -0.076750 0
14.655000 -0.086355 0
14.660000 -0.094200 0
14.665000 -0.100491 0
14.670000 -0.105429 0
14.675000 -0.109211 0
14.680000 -0.112019 0
14.685000 -0.114016 0
14.690000 -0.115351 0
14.695000 -0.115892 0
14.700000 -0.114917 0
14.705000 -0.113947 0
14.710000 -0.112982 0
14.715000 -0.112022 0
14.720000 -0.111066 0
14.725000 -0.110115 0
14.730000 -0.109168 0
14.735000 -0.108224 0
14.740000 -0.107283 0
14.745000 -0.106343 0
14.750000 -0.105398 0
14.755000 -0.104442 0
14.760000 -0.103461 0
14.765000 -0.102435 0
14.770000 -0.101328 0
14.775000 -0.100084 0
14.780000 -0.098619 0
14.785000 -0.096810 0
14.790000 -0.094480 0
14.795000 -0.091393 0
14.800000 -0.087240 0
14.805000 -0.081643 0
14.810000 -0.074158 0
14.815000 -0.064302 0
14.820000 -0.051592 0
14.825000 -0.035607 0
14.830000 -0.016060 0
14.835000 0.007115 0
14.840000 0.033684 0
14.845000 0.063052 0
14.850000 0.094231 0
14.855000 0.125868 0
14.860000 0.156313 0
14.865000 0.183754 0
14.870000 0.206392 0
14.875000 0.222631 0
14.880000 0.231263 0
14.885000 0.231623 1
14.890000 0.223665 0
14.895000 0.207978 0
14.900000 0.185709 0
14.905000 0.158424 0
14.910000 0.127926 0
14.915000 0.096033 0
14.920000 0.064324 0
14.925000 0.033782 0
14.930000 0.004239 0
14.935000 -0.026306 0
14.940000 -0.061896 0
14.945000 -0.107084 0
14.950000 -0.162790 0
14.955000 -0.220947 0
14.960000 -0.261956 2
14.965000 -0.257912 0
14.970000 -0.179872 0
14.975000 -0.005944 0
14.980000 0.267773 0
14.985000 0.610278 0
14.990000 0.943673 0
14.995000 1.160178 0
15.000000 1.174484 3
15.005000 0.974743 0
15.010000 0.634072 0
15.015000 0.263447 0
15.020000 -0.046657 0
15.025000 -0.250551 0
15.030000 -0.340927 4
15.035000 -0.335983 0
15.040000 -0.269844 0
15.045000 -0.181116 0
15.050000 -0.099349 0
15.055000 -0.037449 0
15.060000 0.005736 0
15.065000 0.037410 0
15.070000 0.064372 0
15.075000 0.090681 0
15.080000 0.118040 0
15.085000 0.146840 0
15.090000 0.176891 0
15.095000 0.207755 0
15.100000 0.238868 0
15.105000 0.269584 0
15.110000 0.299198 0
15.115000 0.326977 0
15.120000 0.352183 0
15.125000 0.374112 0
15.130000 0.392119 0
15.135000 0.405654 0
15.140000 0.414285 0
15.145000 0.417723 5
15.150000 0.415837 0
15.155000 0.408659 0
15.160000 0.396386 0
15.165000 0.379367 0
15.170000 0.358089 0
15.175000 0.333151 0
15.180000 0.305238 0
15.185000 0.275087 0
15.190000 0.243453 0
15.195000 0.211083 0
15.200000 0.178684 0
15.205000 0.146896 0
15.210000 0.116280 0
15.215000 0.087298 0
15.220000 0.060314 0
15.225000 0.035583 0
15.230000 0.013264 0
15.235000 -0.006575 0
15.240000 -0.023949 0
15.245000 -0.038937 0
15.250000 -0.051673 0
15.255000 -0.062326 0
15.260000 -0.071093 0
15.265000 -0.078182 0
15.270000 -0.083805 0
15.275000 -0.088166 0
15.280000 -0.091460 0
15.285000 -0.093865 0
15.290000 -0.095539 0
15.295000 -0.096622 0
15.300000 -0.096026 0
15.305000 -0.095151 0
15.310000 -0.094279 0
15.315000 -0.093412 0
15.320000 -0.092549 0
15.325000 -0.091691 0
15.330000 -0.090836 0
15.335000 -0.089984 0
15.340000 -0.089135 0
15.345000 -0.088286 0
15.350000 -0.087433 0
15.355000 -0.086570 0
15.360000 -0.085685 0
15.365000 -0.084758 0
15.370000 -0.083754 0
15.375000 -0.082620 0
15.380000 -0.081273 0
15.385000 -0.079590 0
15.390000 -0.077397 0
15.395000 -0.074454 0
15.400000 -0.070449 0
15.405000 -0.064994 0
15.410000 -0.057634 0
15.415000 -0.047871 0
15.420000 -0.035207 0
15.425000 -0.019209 0
15.430000 0.000413 0
15.435000 0.023716 0
15.440000 0.050439 0
15.445000 0.079939 0
15.450000 0.111165 0
15.455000 0.142683 0
15.460000 0.172765 0
15.465000 0.199536 0
15.470000 0.221157 0
15.475000 0.236038 0
15.480000 0.243024 1
15.485000 0.241551 0
15.490000 0.231711 0
15.495000 0.214249 0
15.500000 0.190469 0
15.505000 0.162065 0
15.510000 0.130924 0
15.515000 0.098877 0
15.520000 0.067412 0
15.525000 0.037233 0
15.530000 0.007605 0
15.535000 -0.024308 0
15.540000 -0.063180 0
15.545000 -0.112894 0
15.550000 -0.171310 0
15.555000 -0.225208 0
15.560000 -0.249997 2
15.565000 -0.215445 0
15.570000 -0.093984 0
15.575000 0.129922 0
15.580000 0.444995 0
15.585000 0.795105 0
15.590000 1.079229 0
15.595000 1.190872 3
15.600000 1.081639 0
15.605000 0.791434 0
15.610000 0.421023 0
15.615000 0.074136 0
15.620000 -0.183169 0
15.625000 -0.327462 0
15.630000 -0.365858 4
15.635000 -0.325377 0
15.640000 -0.243484 0
15.645000 -0.155306 0
15.650000 -0.082300 0
15.655000 -0.029763 0
15.660000 0.007243 0
15.665000 0.036173 0
15.670000 0.062576 0
15.675000 0.089294 0
15.680000 0.117327 0
15.685000 0.146752 0
15.690000 0.177258 0
15.695000 0.208354 0
15.700000 0.239451 0
15.705000 0.269887 0
15.710000 0.298954 0
15.715000 0.325928 0
15.720000 0.350090 0
15.725000 0.370766 0
15.730000 0.387351 0
15.735000 0.399340 0
15.740000 0.406354 0
15.745000 0.408158 5
15.750000 0.404674 0
15.755000 0.395985 0
15.760000 0.382329 0
15.765000 0.364094 0
15.770000 0.341792 0
15.775000 0.316038 0
15.780000 0.287523 0
15.785000 0.256980 0
15.790000 0.225152 0
15.795000 0.192767 0
15.800000 0.160507 0
15.805000 0.128985 0
15.810000 0.098732 0
15.815000 0.070184 0
15.820000 0.043676 0
15.825000 0.019441 0
15.830000 -0.002383 0
15.835000 -0.021745 0
15.840000 -0.038670 0
15.845000 -0.053246 0
15.850000 -0.065611 0
15.855000 -0.075936 0
15.860000 -0.084417 0
15.865000 -0.091260 0
15.870000 -0.096672 0
15.875000 -0.100854 0
15.880000 -0.103996 0
15.885000 -0.106271 0
15.890000 -0.107834 0
15.895000 -0.108819 0
15.900000 -0.108158 0
15.905000 -0.107222 0
15.910000 -0.106291 0
15.915000 -0.105364 0
15.920000 -0.104441 0
15.925000 -0.103523 0
15.930000 -0.102609 0
15.935000 -0.101699 0
15.940000 -0.100791 0
15.945000 -0.099884 0
15.950000 -0.098974 0
15.955000 -0.098054 0
15.960000 -0.097113 0
15.965000 -0.096132 0
15.970000 -0.095077 0
15.975000 -0.093897 0
15.980000 -0.092513 0
15.985000 -0.090808 0
15.990000 -0.088614 0
15.995000 -0.085702 0
16.000000 -0.081772 0
16.005000 -0.076450 0
16.010000 -0.069295 0
16.015000 -0.059821 0
16.020000 -0.047535 0
16.025000 -0.031998 0
16.030000 -0.012898 0
16.035000 0.009861 0
16.040000 0.036080 0
16.045000 0.065194 0
16.050000 0.096240 0
16.055000 0.127873 0
16.060000 0.158444 0
16.065000 0.186120 0
16.070000 0.209070 0
16.075000 0.225658 0
16.080000 0.234636 0
16.085000 0.235299 1
16.090000 0.227579 0
16.095000 0.212050 0
16.100000 0.189865 0
16.105000 0.162604 0
16.110000 0.132094 0
16.115000 0.100178 0
16.120000 0.068456 0
16.125000 0.037915 0
16.130000 0.008355 0
16.135000 -0.022308 0
16.140000 -0.058221 0
16.145000 -0.103949 0
16.150000 -0.160110 0
16.155000 -0.217921 0
16.160000 -0.256858 2
16.165000 -0.248315 0
16.170000 -0.163195 0
16.175000 0.019700 0
16.180000 0.301939 0
16.185000 0.647798 0
16.190000 0.973761 0
16.195000 1.170091 3
16.200000 1.158654 0
16.205000 0.940296 0
16.210000 0.592926 0
16.215000 0.223784 0
16.220000 -0.082366 0
16.225000 -0.283435 0
16.230000 -0.373166 4
16.235000 -0.369203 0
16.240000 -0.304277 0
16.245000 -0.215677 0
16.250000 -0.132605 0
16.255000 -0.068646 0
16.260000 -0.023593 0
16.265000 0.009252 0
16.270000 0.036700 0
16.275000 0.063063 0
16.280000 0.090281 0
16.285000 0.118897 0
16.290000 0.148806 0
16.295000 0.179623 0
16.300000 0.210831 0
16.305000 0.241826 0
16.310000 0.271943 0
16.315000 0.300481 0
16.320000 0.326731 0
16.325000 0.349999 0
16.330000 0.369642 0
16.335000 0.385092 0
16.340000 0.395887 0
16.345000 0.401689 0
16.350000 0.402305 5
16.355000 0.397695 0
16.360000 0.387974 0
16.365000 0.373407 0
16.370000 0.354400 0
16.375000 0.331475 0
16.380000 0.305248 0
16.385000 0.276406 0
16.390000 0.245667 0
16.395000 0.213760 0
16.400000 0.181392 0
16.405000 0.149222 0
16.410000 0.117844 0
16.415000 0.087767 0
16.420000 0.059409 0
16.425000 0.033090 0
16.430000 0.009031 0
16.435000 -0.012638 0
16.440000 -0.031869 0
16.445000 -0.048692 0
16.450000 -0.063192 0
16.455000 -0.075505 0
16.460000 -0.085801 0
16.465000 -0.094268 0
16.470000 -0.101110 0
16.475000 -0.106528 0
16.480000 -0.110721 0
16.485000 -0.113875 0
16.490000 -0.116160 0
16.495000 -0.117728 0
16.500000 -0.118715 0
16.505000 -0.118012 0
16.510000 -0.117027 0
16.515000 -0.116046 0
16.520000 -0.115071 0
16.525000 -0.114100 0
16.530000 -0.113134 0
16.535000 -0.112172 0
16.540000 -0.111214 0
16.545000 -0.110259 0
16.550000 -0.109306 0
16.555000 -0.108351 0
16.560000 -0.107388 0
16.565000 -0.106409 0
16.570000 -0.105395 0
16.575000 -0.104318 0
16.580000 -0.103134 0
16.585000 -0.101774 0
16.590000 -0.100135 0
16.595000 -0.098067 0
16.600000 -0.095368 0
16.605000 -0.091766 0
16.610000 -0.086919 0
16.615000 -0.080415 0
16.620000 -0.071792 0
16.625000 -0.060565 0
16.630000 -0.046275 0
16.635000 -0.028561 0
16.640000 -0.007236 0
16.645000 0.017632 0
16.650000 0.045643 0
16.655000 0.076024 0
16.660000 0.107615 0
16.665000 0.138923 0
16.670000 0.168218 0
16.675000 0.193686 0
16.680000 0.213607 0
16.685000 0.226554 0
16.690000 0.231554 1
16.695000 0.228216 0
16.700000 0.216775 0
16.705000 0.198071 0
16.710000 0.173444 0
16.715000 0.144571 0
16.720000 0.113277 0
16.725000 0.081299 0
16.730000 0.050012 0
16.735000 0.019997 0
16.740000 -0.009579 0
16.745000 -0.041562 0
16.750000 -0.080492 0
16.755000 -0.130084 0
16.760000 -0.188331 0
16.765000 -0.242783 0
16.770000 -0.270131 2
16.775000 -0.241361 0
16.780000 -0.129412 0
16.785000 0.082378 0
16.790000 0.387244 0
16.795000 0.737819 0
16.800000 1.042032 0
16.805000 1.193770 3
16.810000 1.127868 0
16.815000 0.865732 0
16.820000 0.501700 0
16.825000 0.144364 0
16.830000 -0.131255 0
16.835000 -0.294664 0
16.840000 -0.348758 4
16.845000 -0.318236 0
16.850000 -0.240147 0
16.855000 -0.151254 0
16.860000 -0.075644 0
16.865000 -0.020682 0
16.870000 0.017752 0
16.875000 0.047215 0
16.880000 0.073644 0
16.885000 0.100192 0
16.890000 0.128016 0
16.895000 0.157257 0
16.900000 0.187623 0
16.905000 0.218629 0
16.910000 0.249685 0
16.915000 0.280124 0
16.920000 0.309233 0
16.925000 0.336277 0
16.930000 0.360530 0
16.935000 0.381303 0
16.940000 0.397982 0
16.945000 0.410051 0
16.950000 0.417122 0
16.955000 0.418955 5
16.960000 0.415466 0
16.965000 0.406738 0
16.970000 0.393013 0
16.975000 0.374682 0
16.980000 0.352265 0
16.985000 0.326388 0
16.990000 0.297750 0
16.995000 0.267093 0
17.000000 0.235172 0
17.005000 0.202721 0
17.010000 0.170427 0
17.015000 0.138909 0
17.020000 0.108697 0
17.025000 0.080227 0
17.030000 0.053830 0
17.035000 0.029735 0
17.040000 0.008074 0
17.045000 -0.011109 0
17.050000 -0.027846 0
17.055000 -0.042233 0
17.060000 -0.054413 0
17.065000 -0.064563 0
17.070000 -0.072883 0
17.075000 -0.079582 0
17.080000 -0.084870 0
17.085000 -0.088949 0
17.090000 -0.092008 0
17.095000 -0.094221 0
17.100000 -0.095740 0
17.105000 -0.096699 0
17.110000 -0.096085 0
17.115000 -0.095209 0
17.120000 -0.094338 0
17.125000 -0.093470 0
17.130000 -0.092607 0
17.135000 -0.091748 0
17.140000 -0.090893 0
17.145000 -0.090041 0
17.150000 -0.089190 0
17.155000 -0.088340 0
17.160000 -0.087484 0
17.165000 -0.086617 0
17.170000 -0.085724 0
17.175000 -0.084782 0
17.180000 -0.083755 0
17.185000 -0.082584 0
17.190000 -0.081178 0
17.195000 -0.079406 0
17.200000 -0.077082 0
17.205000 -0.073953 0
17.210000 -0.069693 0
17.215000 -0.063902 0
17.220000 -0.056114 0
17.225000 -0.045831 0
17.230000 -0.032564 0
17.235000 -0.015901 0
17.240000 0.004410 0
17.245000 0.028372 0
17.250000 0.055659 0
17.255000 0.085559 0
17.260000 0.116950 0
17.265000 0.148347 0
17.270000 0.177989 0
17.275000 0.204001 0
17.280000 0.224580 0
17.285000 0.238202 0
17.290000 0.243808 1
17.295000 0.240940 0
17.300000 0.229800 0
17.305000 0.211229 0
17.310000 0.186599 0
17.315000 0.157643 0
17.320000 0.126248 0
17.325000 0.094206 0
17.330000 0.062914 0
17.335000 0.032907 0
17.340000 0.003178 0
17.345000 -0.029420 0
17.350000 -0.069659 0
17.355000 -0.120922 0
17.360000 -0.179783 0
17.365000 -0.231393 0
17.370000 -0.250062 2
17.375000 -0.205543 0
17.380000 -0.071356 0
17.385000 0.165523 0
17.390000 0.489105 0
17.395000 0.837216 0
17.400000 1.105610 0
17.405000 1.191785 3
17.410000 1.055314 0
17.415000 0.746845 0
17.420000 0.374003 0
17.425000 0.039072 0
17.430000 -0.197971 0
17.435000 -0.319844 0
17.440000 -0.338663 4
17.445000 -0.285414 0
17.450000 -0.199290 0
17.455000 -0.113783 0
17.460000 -0.046501 0
17.465000 0.000761 0
17.470000 0.034513 0
17.475000 0.062102 0
17.480000 0.088324 0
17.485000 0.115362 0
17.490000 0.143830 0
17.495000 0.173628 0
17.500000 0.204350 0
17.505000 0.235448 0
17.510000 0.266283 0
17.515000 0.296150 0
17.520000 0.324311 0
17.525000 0.350019 0
17.530000 0.372551 0
17.535000 0.391244 0
17.540000 0.405521 0
17.545000 0.414926 0
17.550000 0.419141 5
17.555000 0.418010 0
17.560000 0.411542 0
17.565000 0.399911 0
17.570000 0.383453 0
17.575000 0.362645 0
17.580000 0.338079 0
17.585000 0.310441 0
17.590000 0.280471 0
17.595000 0.248935 0
17.600000 0.216589 0
17.605000 0.184152 0
17.610000 0.152281 0
17.615000 0.121549 0
17.620000 0.092432 0
17.625000 0.065302 0
17.630000 0.040427 0
17.635000 0.017972 0
17.640000 -0.001991 0
17.645000 -0.019472 0
17.650000 -0.034551 0
17.655000 -0.047359 0
17.660000 -0.058070 0
17.665000 -0.066879 0
17.670000 -0.073999 0
17.675000 -0.079644 0
17.680000 -0.084020 0
17.685000 -0.087324 0
17.690000 -0.089735 0
17.695000 -0.091415 0
17.700000 -0.092503 0
17.705000 -0.091926 0
17.710000 -0.091071 0
17.715000 -0.090220 0
17.720000 -0.089373 0
17.725000 -0.088530 0
17.730000 -0.087691 0
17.735000 -0.086856 0
17.740000 -0.086024 0
17.745000 -0.085195 0
17.750000 -0.084365 0
17.755000 -0.083531 0
17.760000 -0.082685 0
17.765000 -0.081816 0
17.770000 -0.080901 0
17.775000 -0.079903 0
17.780000 -0.078766 0
17.785000 -0.077402 0
17.790000 -0.075680 0
17.795000 -0.073414 0
17.800000 -0.070354 0
17.805000 -0.066170 0
17.810000 -0.060460 0
17.815000 -0.052754 0
17.820000 -0.042544 0
17.825000 -0.029333 0
17.830000 -0.012702 0
17.835000 0.007606 0
17.840000 0.031594 0
17.845000 0.058927 0
17.850000 0.088872 0
17.855000 0.120279 0
17.860000 0.151626 0
17.865000 0.181118 0
17.870000 0.206847 0
17.875000 0.226992 0
17.880000 0.240033 0
17.885000 0.244935 1
17.890000 0.241287 0
17.895000 0.229357 0
17.900000 0.210056 0
17.905000 0.184828 0
17.910000 0.155462 0
17.915000 0.123876 0
17.920000 0.091859 0
17.925000 0.060740 0
17.930000 0.030878 0
17.935000 0.000939 0
17.940000 -0.032631 0
17.945000 -0.074733 0
17.950000 -0.127996 0
17.955000 -0.187006 0
17.960000 -0.234272 0
17.965000 -0.242119 2
17.970000 -0.179927 0
17.975000 -0.022830 0
17.980000 0.237331 0
17.985000 0.574500 0
17.990000 0.913318 0
17.995000 1.142754 0
18.000000 1.169907 3
18.005000 0.980945 0
18.010000 0.646173 0
18.015000 0.274148 0
18.020000 -0.043469 0
18.025000 -0.258132 0
18.030000 -0.359729 0
18.035000 -0.363998 4
18.040000 -0.303141 0
18.045000 -0.215260 0
18.050000 -0.131187 0
18.055000 -0.065964 0
18.060000 -0.020082 0
18.065000 0.013113 0
18.070000 0.040635 0
18.075000 0.066972 0
18.080000 0.094152 0
18.085000 0.122743 0
18.090000 0.152638 0
18.095000 0.183449 0
18.100000 0.214643 0
18.105000 0.245605 0
18.110000 0.275654 0
18.115000 0.304076 0
18.120000 0.330146 0
18.125000 0.353161 0
18.130000 0.372468 0
18.135000 0.387498 0
18.140000 0.397789 0
18.145000 0.403011 5
18.150000 0.402984 0
18.155000 0.397687 0
18.160000 0.387257 0
18.165000 0.371986 0
18.170000 0.352305 0
18.175000 0.328765 0
18.180000 0.302007 0
18.185000 0.272739 0
18.190000 0.241699 0
18.195000 0.209626 0
18.200000 0.177233 0
18.205000 0.145178 0
18.210000 0.114050 0
18.215000 0.084345 0
18.220000 0.056466 0
18.225000 0.030711 0
18.230000 0.007282 0
18.235000 -0.013713 0
18.240000 -0.032249 0
18.245000 -0.048374 0
18.250000 -0.062194 0
18.255000 -0.073857 0
18.260000 -0.083545 0
18.265000 -0.091455 0
18.270000 -0.097797 0
18.275000 -0.102774 0
18.280000 -0.106585 0
18.285000 -0.109414 0
18.290000 -0.111427 0
18.295000 -0.112773 0
18.300000 -0.113324 0
18.305000 -0.112362 0
18.310000 -0.111405 0
18.315000 -0.110453 0
18.320000 -0.109505 0
18.325000 -0.108562 0
18.330000 -0.107623 0
18.335000 -0.106688 0
18.340000 -0.105757 0
18.345000 -0.104828 0
18.350000 -0.103899 0
18.355000 -0.102966 0
18.360000 -0.102020 0
18.365000 -0.101049 0
18.370000 -0.100029 0
18.375000 -0.098923 0
18.380000 -0.097673 0
18.385000 -0.096190 0
18.390000 -0.094344 0
18.395000 -0.091951 0
18.400000 -0.088764 0
18.405000 -0.084462 0
18.410000 -0.078652 0
18.415000 -0.070880 0
18.420000 -0.060652 0
18.425000 -0.047487 0
18.430000 -0.030973 0
18.435000 -0.010850 0
18.440000 0.012906 0
18.445000 0.040002 0
18.450000 0.069767 0
18.455000 0.101136 0
18.460000 0.132675 0
18.465000 0.162676 0
18.470000 0.189292 0
18.475000 0.210730 0
18.480000 0.225442 0
18.485000 0.232313 1
18.490000 0.230799 0
18.495000 0.221001 0
18.500000 0.203651 0
18.505000 0.180022 0
18.510000 0.151775 0
18.515000 0.120757 0
18.520000 0.088772 0
18.525000 0.057305 0
18.530000 0.027105 0
18.535000 -0.002431 0
18.540000 -0.033918 0
18.545000 -0.071850 0
18.550000 -0.120314 0
18.555000 -0.178111 0
18.560000 -0.233652 0
18.565000 -0.263977 2
18.570000 -0.239694 0
18.575000 -0.132864 0
18.580000 0.074330 0
18.585000 0.376402 0
18.590000 0.726731 0
18.595000 1.032473 0
18.600000 1.185397 3
18.605000 1.120519 0
18.610000 0.859474 0
18.615000 0.495881 0
18.620000 0.137988 0
18.625000 -0.139018 0
18.630000 -0.304240 0
18.635000 -0.360132 4
18.640000 -0.330962 0
18.645000 -0.253472 0
18.650000 -0.164423 0
18.655000 -0.088212 0
18.660000 -0.032595 0
18.665000 0.006312 0
18.670000 0.036023 0
18.675000 0.062543 0
18.680000 0.089104 0
18.685000 0.116917 0
18.690000 0.146148 0
18.695000 0.176519 0
18.700000 0.207555 0
18.705000 0.238671 0
18.710000 0.269208 0
18.715000 0.298458 0
18.720000 0.325690 0
18.725000 0.350178 0
18.730000 0.371236 0
18.735000 0.388245 0
18.740000 0.400686 0
18.745000 0.408163 0
18.750000 0.410425 5
18.755000 0.407378 0
18.760000 0.399093 0
18.765000 0.385797 0
18.770000 0.367869 0
18.775000 0.345818 0
18.780000 0.320258 0
18.785000 0.291879 0
18.790000 0.261419 0
18.795000 0.229628 0
18.800000 0.197240 0
18.805000 0.164945 0
18.810000 0.133366 0
18.815000 0.103041 0
18.820000 0.074413 0
18.825000 0.047822 0
18.830000 0.023508 0
18.835000 0.001612 0
18.840000 -0.017812 0
18.845000 -0.034790 0
18.850000 -0.049408 0
18.855000 -0.061805 0
18.860000 -0.072154 0
18.865000 -0.080651 0
18.870000 -0.087505 0
18.875000 -0.092923 0
18.880000 -0.097110 0
18.885000 -0.100255 0
18.890000 -0.102532 0
18.895000 -0.104098 0
18.900000 -0.105087 0
18.905000 -0.104443 0
18.910000 -0.103525 0
18.915000 -0.102612 0
18.920000 -0.101703 0
18.925000 -0.100799 0
18.930000 -0.099899 0
18.935000 -0.099003 0
18.940000 -0.098111 0
18.945000 -0.097221 0
18.950000 -0.096331 0
18.955000 -0.095438 0
18.960000 -0.094534 0
18.965000 -0.093608 0
18.970000 -0.092639 0
18.975000 -0.091592 0
18.980000 -0.090415 0
18.985000 -0.089023 0
18.990000 -0.087294 0
18.995000 -0.085053 0
19.000000 -0.082064 0
19.005000 -0.078014 0
19.010000 -0.072520 0
19.015000 -0.065131 0
19.020000 -0.055352 0
19.025000 -0.042690 0
19.030000 -0.026715 0
19.035000 -0.007136 0
19.040000 0.016110 0
19.045000 0.042773 0
19.050000 0.072227 0
19.055000 0.103443 0
19.060000 0.135015 0
19.065000 0.165239 0
19.070000 0.192258 0
19.075000 0.214244 0
19.080000 0.229601 0
19.085000 0.237153 1
19.090000 0.236300 0
19.095000 0.227087 0
19.100000 0.210209 0
19.105000 0.186917 0
19.110000 0.158871 0
19.115000 0.127930 0
19.120000 0.095927 0
19.125000 0.064385 0
19.130000 0.034106 0
19.135000 0.004547 0
19.140000 -0.026861 0
19.145000 -0.064623 0
19.150000 -0.112918 0
19.155000 -0.170673 0
19.160000 -0.226325 0
19.165000 -0.256751 2
19.170000 -0.232260 0
19.175000 -0.124647 0
19.180000 0.083944 0
19.185000 0.387492 0
19.190000 0.737940 0
19.195000 1.040585 0
19.200000 1.186536 3
19.205000 1.110857 0
19.210000 0.839596 0
19.215000 0.472612 0
19.220000 0.120469 0
19.225000 -0.143731 0
19.230000 -0.292884 0
19.235000 -0.333286 4
19.240000 -0.292815 0
19.245000 -0.210572 0
19.250000 -0.122955 0
19.255000 -0.051538 0
19.260000 -0.000868 0
19.265000 0.034725 0
19.270000 0.062933 0
19.275000 0.089148 0
19.280000 0.115964 0
19.285000 0.144190 0
19.290000 0.173797 0
19.295000 0.204403 0
19.300000 0.235468 0
19.305000 0.266350 0
19.310000 0.296341 0
19.315000 0.324694 0
19.320000 0.350647 0
19.325000 0.373464 0
19.330000 0.392463 0
19.335000 0.407051 0
19.340000 0.416754 0
19.345000 0.421240 5
19.350000 0.420342 0
19.355000 0.414059 0
19.360000 0.402564 0
19.365000 0.386193 0
19.370000 0.365426 0
19.375000 0.340865 0
19.380000 0.313205 0
19.385000 0.283199 0
19.390000 0.251624 0
19.395000 0.219250 0
19.400000 0.186804 0
19.405000 0.154951 0
19.410000 0.124269 0
19.415000 0.095238 0
19.420000 0.068230 0
19.425000 0.043508 0
19.430000 0.021234 0
19.435000 0.001474 0
19.440000 -0.015791 0
19.445000 -0.030646 0
19.450000 -0.043230 0
19.455000 -0.053722 0
19.460000 -0.062326 0
19.465000 -0.069255 0
19.470000 -0.074728 0
19.475000 -0.078953 0
19.480000 -0.082127 0
19.485000 -0.084431 0
19.490000 -0.086022 0
19.495000 -0.087042 0
19.500000 -0.086477 0
19.505000 -0.085649 0
19.510000 -0.084825 0
19.515000 -0.084005 0
19.520000 -0.083189 0
19.525000 -0.082377 0
19.530000 -0.081568 0
19.535000 -0.080762 0
19.540000 -0.079958 0
19.545000 -0.079153 0
19.550000 -0.078341 0
19.555000 -0.077515 0
19.560000 -0.076660 0
19.565000 -0.075749 0
19.570000 -0.074740 0
19.575000 -0.073566 0
19.580000 -0.072126 0
19.585000 -0.070271 0
19.590000 -0.067790 0
19.595000 -0.064402 0
19.600000 -0.059747 0
19.605000 -0.053388 0
19.610000 -0.044830 0
19.615000 -0.033555 0
19.620000 -0.019078 0
19.625000 -0.001027 0
19.630000 0.020769 0
19.635000 0.046182 0
19.640000 0.074710 0
19.645000 0.105429 0
19.650000 0.137001 0
19.655000 0.167740 0
19.660000 0.195750 0
19.665000 0.219104 0
19.670000 0.236069 0
19.675000 0.245309 0
19.680000 0.246062 1
19.685000 0.238244 0
19.690000 0.222459 0
19.695000 0.199923 0
19.700000 0.172306 0
19.705000 0.141525 0
19.710000 0.109494 0
19.715000 0.077831 0
19.720000 0.047432 0
19.725000 0.017811 0
19.730000 -0.013633 0
19.735000 -0.051548 0
19.740000 -0.100224 0
19.745000 -0.158286 0
19.750000 -0.213162 0
19.755000 -0.240237 2
19.760000 -0.208550 0
19.765000 -0.089514 0
19.770000 0.133257 0
19.775000 0.448495 0
19.780000 0.798308 0
19.785000 1.078398 0
19.790000 1.180370 3
19.795000 1.059039 0
19.800000 0.760120 0
19.805000 0.388279 0
19.810000 0.047217 0
19.815000 -0.199691 0
19.820000 -0.332094 0
19.825000 -0.359787 4
19.830000 -0.312059 0
19.835000 -0.227535 0
19.840000 -0.140654 0
19.845000 -0.070818 0
19.850000 -0.021312 0
19.855000 0.013782 0
19.860000 0.041920 0
19.865000 0.068234 0
19.870000 0.095178 0
19.875000 0.123517 0
19.880000 0.153218 0
19.885000 0.183910 0
19.890000 0.215067 0
19.895000 0.246068 0
19.900000 0.276223 0
19.905000 0.304804 0
19.910000 0.331071 0
19.915000 0.354301 0
19.920000 0.373824 0
19.925000 0.389050 0
19.930000 0.399501 0
19.935000 0.404837 0
19.940000 0.404869 5
19.945000 0.399571 0
19.950000 0.389085 0
19.955000 0.373709 0
19.960000 0.353887 0
19.965000 0.330185 0
19.970000 0.303261 0
19.975000 0.273842 0
19.980000 0.242681 0
19.985000 0.210535 0
19.990000 0.178127 0
19.995000 0.146126 0
20.000000 0.115120 0
20.005000 0.085609 0
20.010000 0.057988 0
20.015000 0.032551 0
20.020000 0.009487 0
20.025000 -0.011107 0
20.030000 -0.029221 0
20.035000 -0.044914 0
20.040000 -0.058303 0
20.045000 -0.069551 0
20.050000 -0.078844 0
20.055000 -0.086392 0
20.060000 -0.092404 0
20.065000 -0.097089 0
20.070000 -0.100647 0
20.075000 -0.103261 0
20.080000 -0.105096 0
20.085000 -0.106298 0
20.090000 -0.106758 0
20.095000 -0.105829 0
20.100000 -0.104904 0
20.105000 -0.103984 0
20.110000 -0.103068 0
20.115000 -0.102157 0
20.120000 -0.101250 0
20.125000 -0.100347 0
20.130000 -0.099447 0
20.135000 -0.098548 0
20.140000 -0.097647 0
20.145000 -0.096738 0
20.150000 -0.095812 0
20.155000 -0.094851 0
20.160000 -0.093824 0
20.165000 -0.092686 0
20.170000 -0.091362 0
20.175000 -0.089743 0
20.180000 -0.087668 0
20.185000 -0.084918 0
20.190000 -0.081200 0
20.195000 -0.076147 0
20.200000 -0.069320 0
20.205000 -0.060228 0
20.210000 -0.048366 0
20.215000 -0.033275 0
20.220000 -0.014615 0
20.225000 0.007743 0
20.230000 0.033632 0
20.235000 0.062516 0
20.240000 0.093451 0
20.245000 0.125096 0
20.250000 0.155786 0
20.255000 0.183662 0
20.260000 0.206852 0
20.265000 0.223675 0
20.270000 0.232844 0
20.275000 0.233626 1
20.280000 0.225942 0
20.285000 0.210376 0
20.290000 0.188104 0
20.295000 0.160743 0
20.300000 0.130158 0
20.305000 0.098224 0
20.310000 0.066550 0
20.315000 0.036094 0
20.320000 0.006547 0
20.325000 -0.024379 0
20.330000 -0.061046 0
20.335000 -0.107948 0
20.340000 -0.164954 0
20.345000 -0.221771 0
20.350000 -0.256155 2
20.355000 -0.238417 0
20.360000 -0.139512 0
20.365000 0.060040 0
20.370000 0.356964 0
20.375000 0.706655 0
20.380000 1.016332 0
20.385000 1.175065 3
20.390000 1.117229 0
20.395000 0.862500 0
20.400000 0.501229 0
20.405000 0.140606 0
20.410000 -0.142950 0
20.415000 -0.316492 0
20.420000 -0.380505 4
20.425000 -0.357454 0
20.430000 -0.282842 0
20.435000 -0.193455 0
20.440000 -0.114976 0
20.445000 -0.056783 0
20.450000 -0.016015 0
20.455000 0.014642 0
20.460000 0.041452 0
20.465000 0.067972 0
20.470000 0.095632 0
20.475000 0.124711 0
20.480000 0.154986 0
20.485000 0.186017 0
20.490000 0.217244 0
20.495000 0.248033 0
20.500000 0.277695 0
20.505000 0.305513 0
20.510000 0.330771 0
20.515000 0.352782 0
20.520000 0.370917 0
20.525000 0.384641 0
20.530000 0.393531 0
20.535000 0.397301 5
20.540000 0.395816 0
20.545000 0.389098 0
20.550000 0.377330 0
20.555000 0.360840 0
20.560000 0.340092 0
20.565000 0.315660 0
20.570000 0.288203 0
20.575000 0.258434 0
20.580000 0.227091 0
20.585000 0.194903 0
20.590000 0.162568 0
20.595000 0.130725 0
20.600000 0.099936 0
20.605000 0.070673 0
20.610000 0.043310 0
20.615000 0.018122 0
20.620000 -0.004714 0
20.625000 -0.025110 0
20.630000 -0.043061 0
20.635000 -0.058627 0
20.640000 -0.071924 0
20.645000 -0.083108 0
20.650000 -0.092364 0
20.655000 -0.099893 0
20.660000 -0.105900 0
20.665000 -0.110588 0
20.670000 -0.114153 0
20.675000 -0.116773 0
20.680000 -0.118610 0
20.685000 -0.119810 0
20.690000 -0.120251 0
20.695000 -0.119255 0
20.700000 -0.118263 0
20.705000 -0.117277 0
20.710000 -0.116295 0
20.715000 -0.115318 0
20.720000 -0.114345 0
20.725000 -0.113377 0
20.730000 -0.112412 0
20.735000 -0.111449 0
20.740000 -0.110486 0
20.745000 -0.109518 0
20.750000 -0.108536 0
20.755000 -0.107526 0
20.760000 -0.106463 0
20.765000 -0.105309 0
20.770000 -0.104000 0
20.775000 -0.102444 0
20.780000 -0.100505 0
20.785000 -0.097993 0
20.790000 -0.094652 0
20.795000 -0.090155 0
20.800000 -0.084104 0
20.805000 -0.076038 0
20.810000 -0.065469 0
20.815000 -0.051921 0
20.820000 -0.034997 0
20.825000 -0.014461 0
20.830000 0.009683 0
20.835000 0.037106 0
20.840000 0.067105 0
20.845000 0.098582 0
20.850000 0.130084 0
20.855000 0.159893 0
20.860000 0.186174 0
20.865000 0.207153 0
20.870000 0.221322 0
20.875000 0.227612 1
20.880000 0.225529 0
20.885000 0.215217 0
20.890000 0.197445 0
20.895000 0.173508 0
20.900000 0.145074 0
20.905000 0.113983 0
20.910000 0.082018 0
20.915000 0.050628 0
20.920000 0.020511 0
20.925000 -0.009011 0
20.930000 -0.040630 0
20.935000 -0.078858 0
20.940000 -0.127668 0
20.945000 -0.185600 0
20.950000 -0.240785 0
20.955000 -0.270143 2
20.960000 -0.244400 0
20.965000 -0.135897 0
20.970000 0.072806 0
20.975000 0.375809 0
20.980000 0.726244 0
20.985000 1.031516 0
20.990000 1.184079 3
20.995000 1.117889 0
21.000000 0.854777 0
21.005000 0.490296 0
21.010000 0.133926 0
21.015000 -0.139320 0
21.020000 -0.299522 0
21.025000 -0.350337 4
21.030000 -0.317279 0
21.035000 -0.238019 0
21.040000 -0.149352 0
21.045000 -0.074796 0
21.050000 -0.020981 0
21.055000 0.016667 0
21.060000 0.045778 0
21.065000 0.072156 0
21.070000 0.098802 0
21.075000 0.126769 0
21.080000 0.156147 0
21.085000 0.186616 0
21.090000 0.217676 0
21.095000 0.248720 0
21.100000 0.279068 0
21.105000 0.307996 0
21.110000 0.334761 0
21.115000 0.358631 0
21.120000 0.378918 0
21.125000 0.395013 0
21.130000 0.406412 0
21.135000 0.412743 0
21.140000 0.413784 5
21.145000 0.409478 0
21.150000 0.399933 0
21.155000 0.385421 0
21.160000 0.366359 0
21.165000 0.343294 0
21.170000 0.316874 0
21.175000 0.287815 0
21.180000 0.256873 0
21.185000 0.224807 0
21.190000 0.192353 0
21.195000 0.160192 0
21.200000 0.128931 0
21.205000 0.099088 0
21.210000 0.071079 0
21.215000 0.045214 0
21.220000 0.021702 0
21.225000 0.000654 0
21.230000 -0.017904 0
21.235000 -0.034024 0
21.240000 -0.047814 0
21.245000 -0.059429 0
21.250000 -0.069056 0
21.255000 -0.076900 0
21.260000 -0.083174 0
21.265000 -0.088088 0
21.270000 -0.091843 0
21.275000 -0.094626 0
21.280000 -0.096605 0
21.285000 -0.097931 0
21.290000 -0.098486 0
21.295000 -0.097598 0
21.300000 -0.096715 0
21.305000 -0.095836 0
21.310000 -0.094961 0
21.315000 -0.094090 0
21.320000 -0.093223 0
21.325000 -0.092360 0
21.330000 -0.091500 0
21.335000 -0.090641 0
21.340000 -0.089781 0
21.345000 -0.088914 0
21.350000 -0.088030 0
21.355000 -0.087113 0
21.360000 -0.086135 0
21.365000 -0.085051 0
21.370000 -0.083792 0
21.375000 -0.082249 0
21.380000 -0.080271 0
21.385000 -0.077642 0
21.390000 -0.074078 0
21.395000 -0.069217 0
21.400000 -0.062625 0
21.405000 -0.053813 0
21.410000 -0.042274 0
21.415000 -0.027539 0
21.420000 -0.009252 0
21.425000 0.012739 0
21.430000 0.038297 0
21.435000 0.066919 0
21.440000 0.097692 0
21.445000 0.129304 0
21.450000 0.160104 0
21.455000 0.188238 0
21.460000 0.211818 0
21.465000 0.229136 0
21.470000 0.238865 0
21.475000 0.240223 1
21.480000 0.233083 0
21.485000 0.217987 0
21.490000 0.196077 0
21.495000 0.168955 0
21.500000 0.138482 0
21.505000 0.106547 0
21.510000 0.074792 0
21.515000 0.044228 0
21.520000 0.014637 0
21.525000 -0.016157 0
21.530000 -0.052445 0
21.535000 -0.098823 0
21.540000 -0.155522 0
21.545000 -0.212773 0
21.550000 -0.248738 2
21.555000 -0.233784 0
21.560000 -0.138565 0
21.565000 0.057047 0
21.570000 0.350941 0
21.575000 0.700086 0
21.580000 1.012754 0
21.585000 1.177330 3
21.590000 1.123719 0
21.595000 0.869577 0
21.600000 0.507751 0
21.605000 0.148511 0
21.610000 -0.130586 0
21.615000 -0.297313 0
21.620000 -0.353787 4
21.625000 -0.324525 0
21.630000 -0.246811 0
21.635000 -0.157865 0
21.640000 -0.082160 0
21.645000 -0.027197 0
21.650000 0.011188 0
21.655000 0.040622 0
21.660000 0.067070 0
21.665000 0.093676 0
21.670000 0.121576 0
21.675000 0.150896 0
21.680000 0.181333 0
21.685000 0.212391 0
21.690000 0.243471 0
21.695000 0.273897 0
21.700000 0.302946 0
21.705000 0.329875 0
21.710000 0.353951 0
21.715000 0.374484 0
21.720000 0.390859 0
21.725000 0.402564 0
21.730000 0.409219 0
21.735000 0.410594 5
21.740000 0.406621 0
21.745000 0.397399 0
21.750000 0.383189 0
21.755000 0.364402 0
21.760000 0.341576 0
21.765000 0.315354 0
21.770000 0.286448 0
21.775000 0.255614 0
21.780000 0.223611 0
21.785000 0.191176 0
21.790000 0.158994 0
21.795000 0.127679 0
21.800000 0.097752 0
21.805000 0.069636 0
21.810000 0.043649 0
21.815000 0.020004 0
21.820000 -0.001182 0
21.825000 -0.019877 0
21.830000 -0.036129 0
21.835000 -0.050044 0
21.840000 -0.061774 0
21.845000 -0.071503 0
21.850000 -0.079437 0
21.855000 -0.085788 0
21.860000 -0.090766 0
21.865000 -0.094573 0
21.870000 -0.097397 0
21.875000 -0.099407 0
21.880000 -0.100755 0
21.885000 -0.101322 0
21.890000 -0.100420 0
21.895000 -0.099522 0
21.900000 -0.098629 0
21.905000 -0.097740 0
21.910000 -0.096856 0
21.915000 -0.095975 0
21.920000 -0.095099 0
21.925000 -0.094225 0
21.930000 -0.093353 0
21.935000 -0.092479 0
21.940000 -0.091599 0
21.945000 -0.090704 0
21.950000 -0.089777 0
21.955000 -0.088791 0
21.960000 -0.087703 0
21.965000 -0.086445 0
21.970000 -0.084912 0
21.975000 -0.082955 0
21.980000 -0.080364 0
21.985000 -0.076858 0
21.990000 -0.072082 0
21.995000 -0.065606 0
22.000000 -0.056943 0
22.005000 -0.045587 0
22.010000 -0.031063 0
22.015000 -0.013006 0
22.020000 0.008752 0
22.025000 0.034097 0
22.030000 0.062551 0
22.035000 0.093230 0
22.040000 0.124846 0
22.045000 0.155768 0
22.050000 0.184151 0
22.055000 0.208105 0
22.060000 0.225902 0
22.065000 0.236184 0
22.070000 0.238130 1
22.075000 0.231565 0
22.080000 0.216988 0
22.085000 0.195505 0
22.090000 0.168691 0
22.095000 0.138396 0
22.100000 0.106515 0
22.105000 0.074717 0
22.110000 0.044071 0
22.115000 0.014468 0
22.120000 -0.016115 0
22.125000 -0.051852 0
22.130000 -0.097434 0
22.135000 -0.153585 0
22.140000 -0.211360 0
22.145000 -0.249694 2
22.150000 -0.239255 0
22.155000 -0.150411 0
22.160000 0.037943 0
22.165000 0.325821 0
22.170000 0.673591 0
22.175000 0.992524 0
22.180000 1.170610 3
22.185000 1.134591 0
22.190000 0.897334 0
22.195000 0.542549 0
22.200000 0.176817 0
22.205000 -0.119562 0
22.210000 -0.308940 0
22.215000 -0.388024 4
22.220000 -0.376302 0
22.225000 -0.307391 0
22.230000 -0.218215 0
22.235000 -0.136568 0
22.240000 -0.074478 0
22.245000 -0.030800 0
22.250000 0.001365 0
22.255000 0.028637 0
22.260000 0.055074 0
22.265000 0.082454 0
22.270000 0.111238 0
22.275000 0.141287 0
22.280000 0.172205 0
22.285000 0.203469 0
22.290000 0.234469 0
22.295000 0.264541 0
22.300000 0.292984 0
22.305000 0.319090 0
22.310000 0.342172 0
22.315000 0.361592 0
22.320000 0.376792 0
22.325000 0.387317 0
22.330000 0.392841 0
22.335000 0.393180 5
22.340000 0.388303 0
22.345000 0.378335 0
22.350000 0.363550 0
22.355000 0.344357 0
22.360000 0.321283 0
22.365000 0.294949 0
22.370000 0.266038 0
22.375000 0.235270 0
22.380000 0.203371 0
22.385000 0.171042 0
22.390000 0.138940 0
22.395000 0.107651 0
22.400000 0.077681 0
22.405000 0.049441 0
22.410000 0.023246 0
22.415000 -0.000686 0
22.420000 -0.022228 0
22.425000 -0.041337 0
22.430000 -0.058043 0
22.435000 -0.072434 0
22.440000 -0.084646 0
22.445000 -0.094848 0
22.450000 -0.103230 0
22.455000 -0.109994 0
22.460000 -0.115342 0
22.465000 -0.119471 0
22.470000 -0.122564 0
22.475000 -0.124794 0
22.480000 -0.126310 0
22.485000 -0.127248 0
22.490000 -0.126502 0
22.495000 -0.125474 0
22.500000 -0.124451 0
22.505000 -0.123434 0
22.510000 -0.122421 0
22.515000 -0.121414 0
22.520000 -0.120411 0
22.525000 -0.119412 0
22.530000 -0.118416 0
22.535000 -0.117422 0
22.540000 -0.116427 0
22.545000 -0.115424 0
22.550000 -0.114404 0
22.555000 -0.113351 0
22.560000 -0.112236 0
22.565000 -0.111015 0
22.570000 -0.109619 0
22.575000 -0.107946 0
22.580000 -0.105850 0
22.585000 -0.103128 0
22.590000 -0.099511 0
22.595000 -0.094660 0
22.600000 -0.088166 0
22.605000 -0.079570 0
22.610000 -0.068387 0
22.615000 -0.054159 0
22.620000 -0.036523 0
22.625000 -0.015283 0
22.630000 0.009500 0
22.635000 0.037442 0
22.640000 0.067785 0
22.645000 0.099389 0
22.650000 0.130778 0
22.655000 0.160233 0
22.660000 0.185946 0
22.665000 0.206196 0
22.670000 0.219541 0
22.675000 0.224987 1
22.680000 0.222113 0
22.685000 0.211122 0
22.690000 0.192820 0
22.695000 0.168518 0
22.700000 0.139876 0
22.705000 0.108708 0
22.710000 0.076760 0
22.715000 0.045433 0
22.720000 0.015375 0
22.725000 -0.014132 0
22.730000 -0.045785 0
22.735000 -0.084042 0
22.740000 -0.132804 0
22.745000 -0.190663 0
22.750000 -0.246060 0
22.755000 -0.276451 2
22.760000 -0.253085 0
22.765000 -0.148555 0
22.770000 0.054961 0
22.775000 0.353277 0
22.780000 0.703054 0
22.785000 1.015660 0
22.790000 1.184402 3
22.795000 1.140397 0
22.800000 0.896229 0
22.805000 0.538593 0
22.810000 0.174817 0
22.815000 -0.116095 0
22.820000 -0.298417 0
22.825000 -0.370558 4
22.830000 -0.353455 0
22.835000 -0.281746 0
22.840000 -0.192436 0
22.845000 -0.112392 0
22.850000 -0.052347 0
22.855000 -0.010257 0
22.860000 0.021030 0
22.865000 0.047976 0
22.870000 0.074386 0
22.875000 0.101850 0
22.880000 0.130733 0
22.885000 0.160846 0
22.890000 0.191770 0
22.895000 0.222959 0
22.900000 0.253789 0
22.905000 0.283582 0
22.910000 0.311625 0
22.915000 0.337205 0
22.920000 0.359633 0
22.925000 0.378276 0
22.930000 0.392586 0
22.935000 0.402126 0
22.940000 0.406592 5
22.945000 0.405827 0
22.950000 0.399831 0
22.955000 0.388761 0
22.960000 0.372925 0
22.965000 0.352763 0
22.970000 0.328830 0
22.975000 0.301772 0
22.980000 0.272290 0
22.985000 0.241115 0
22.990000 0.208978 0
22.995000 0.176578 0
23.000000 0.144564 0
23.005000 0.113508 0
23.010000 0.083896 0
23.015000 0.056120 0
23.020000 0.030469 0
23.025000 0.007139 0
23.030000 -0.013769 0
23.035000 -0.032232 0
23.040000 -0.048300 0
23.045000 -0.062078 0
23.050000 -0.073715 0
23.055000 -0.083390 0
23.060000 -0.091298 0
23.065000 -0.097647 0
23.070000 -0.102637 0
23.075000 -0.106465 0
23.080000 -0.109314 0
23.085000 -0.111347 0
23.090000 -0.112714 0
23.095000 -0.113281 0
23.100000 -0.112319 0
23.105000 -0.111362 0
23.110000 -0.110410 0
23.115000 -0.109462 0
23.120000 -0.108520 0
23.125000 -0.107581 0
23.130000 -0.106647 0
23.135000 -0.105716 0
23.140000 -0.104788 0
23.145000 -0.103859 0
23.150000 -0.102927 0
23.155000 -0.101984 0
23.160000 -0.101017 0
23.165000 -0.100006 0
23.170000 -0.098915 0
23.175000 -0.097689 0
23.180000 -0.096246 0
23.185000 -0.094464 0
23.190000 -0.092169 0
23.195000 -0.089126 0
23.200000 -0.085032 0
23.205000 -0.079508 0
23.210000 -0.072114 0
23.215000 -0.062368 0
23.220000 -0.049786 0
23.225000 -0.033944 0
23.230000 -0.014548 0
23.235000 0.008477 0
23.240000 0.034911 0
23.245000 0.064173 0
23.250000 0.095293 0
23.255000 0.126930 0
23.260000 0.157445 0
23.265000 0.185031 0
23.270000 0.207884 0
23.275000 0.224398 0
23.280000 0.233347 0
23.285000 0.234040 1
23.290000 0.226407 0
23.295000 0.211011 0
23.300000 0.188977 0
23.305000 0.161857 0
23.310000 0.131446 0
23.315000 0.099566 0
23.320000 0.067812 0
23.325000 0.037202 0
23.330000 0.007632 0
23.335000 -0.022809 0
23.340000 -0.058086 0
23.345000 -0.102797 0
23.350000 -0.158135 0
23.355000 -0.216528 0
23.360000 -0.258872 2
23.365000 -0.257508 0
23.370000 -0.183381 0
23.375000 -0.014097 0
23.380000 0.255392 0
23.385000 0.596079 0
23.390000 0.932185 0
23.395000 1.156410 0
23.400000 1.181069 3
23.405000 0.991080 0
23.410000 0.654864 0
23.415000 0.283258 0
23.420000 -0.031202 0
23.425000 -0.240574 0
23.430000 -0.336024 4
23.435000 -0.334810 0
23.440000 -0.270597 0
23.445000 -0.182151 0
23.450000 -0.099705 0
23.455000 -0.036923 0
23.460000 0.006900 0
23.465000 0.038882 0
23.470000 0.065923 0
23.475000 0.092201 0
23.480000 0.119494 0
23.485000 0.148229 0
23.490000 0.178228 0
23.495000 0.209060 0
23.500000 0.240163 0
23.505000 0.270892 0
23.510000 0.300543 0
23.515000 0.328381 0
23.520000 0.353669 0
23.525000 0.375698 0
23.530000 0.393820 0
23.535000 0.407481 0
23.540000 0.416245 0
23.545000 0.419817 5
23.550000 0.418063 0
23.555000 0.411009 0
23.560000 0.398848 0
23.565000 0.381928 0
23.570000 0.360732 0
23.575000 0.335859 0
23.580000 0.307992 0
23.585000 0.277869 0
23.590000 0.246247 0
23.595000 0.213873 0
23.600000 0.181457 0
23.605000 0.149643 0
23.610000 0.118992 0
23.615000 0.089971 0
23.620000 0.062943 0
23.625000 0.038168 0
23.630000 0.015805 0
23.635000 -0.004076 0
23.640000 -0.021490 0
23.645000 -0.036514 0
23.650000 -0.049283 0
23.655000 -0.059965 0
23.660000 -0.068758 0
23.665000 -0.075870 0
23.670000 -0.081513 0
23.675000 -0.085892 0
23.680000 -0.089203 0
23.685000 -0.091622 0
23.690000 -0.093309 0
23.695000 -0.094404 0
23.700000 -0.093820 0
23.705000 -0.092955 0
23.710000 -0.092095 0
23.715000 -0.091238 0
23.720000 -0.090386 0
23.725000 -0.089539 0
23.730000 -0.088694 0
23.735000 -0.087853 0
23.740000 -0.087015 0
23.745000 -0.086176 0
23.750000 -0.085334 0
23.755000 -0.084482 0
23.760000 -0.083607 0
23.765000 -0.082689 0
23.770000 -0.081694 0
23.775000 -0.080569 0
23.780000 -0.079229 0
23.785000 -0.077551 0
23.790000 -0.075359 0
23.795000 -0.072413 0
23.800000 -0.068399 0
23.805000 -0.062927 0
23.810000 -0.055540 0
23.815000 -0.045739 0
23.820000 -0.033027 0
23.825000 -0.016970 0
23.830000 0.002718 0
23.835000 0.026087 0
23.840000 0.052871 0
23.845000 0.082415 0
23.850000 0.113656 0
23.855000 0.145152 0
23.860000 0.175166 0
23.865000 0.201816 0
23.870000 0.223267 0
23.875000 0.237932 0
23.880000 0.244674 1
23.885000 0.242941 0
23.890000 0.232848 0
23.895000 0.215160 0
23.900000 0.191195 0
23.905000 0.162664 0
23.910000 0.131455 0
23.915000 0.099399 0
23.920000 0.067965 0
23.925000 0.037822 0
23.930000 0.008165 0
23.935000 -0.023929 0
23.940000 -0.063176 0
23.945000 -0.113344 0
23.950000 -0.171925 0
23.955000 -0.225182 0
23.960000 -0.248102 2
23.965000 -0.210346 0
23.970000 -0.084606 0
23.975000 0.143867 0
23.980000 0.462126 0
23.985000 0.811655 0
23.990000 1.089828 0
23.995000 1.191275 3
24.000000 1.071525 0
24.005000 0.775783 0
24.010000 0.404587 0
24.015000 0.059295 0
24.020000 -0.196199 0
24.025000 -0.339479 0
24.030000 -0.377771 4
24.035000 -0.337685 0
24.040000 -0.256072 0
24.045000 -0.167658 0
24.050000 -0.093953 0
24.055000 -0.040603 0
24.060000 -0.002983 0
24.065000 0.026268 0
24.070000 0.052760 0
24.075000 0.079445 0
24.080000 0.107399 0
24.085000 0.136746 0
24.090000 0.167202 0
24.095000 0.198297 0
24.100000 0.229459 0
24.105000 0.260043 0
24.110000 0.289359 0
24.115000 0.316693 0
24.120000 0.341336 0
24.125000 0.362617 0
24.130000 0.379927 0
24.135000 0.392753 0
24.140000 0.400700 0
24.145000 0.403510 5
24.150000 0.401076 0
24.155000 0.393450 0
24.160000 0.380837 0
24.165000 0.363588 0
24.170000 0.342183 0
24.175000 0.317206 0
24.180000 0.289323 0
24.185000 0.259246 0
24.190000 0.227709 0
24.195000 0.195434 0
24.200000 0.163106 0
24.205000 0.131348 0
24.210000 0.100709 0
24.215000 0.071645 0
24.220000 0.044514 0
24.225000 0.019576 0
24.230000 -0.003002 0
24.235000 -0.023145 0
24.240000 -0.040854 0
24.245000 -0.056197 0
24.250000 -0.069293 0
24.255000 -0.080301 0
24.260000 -0.089406 0
24.265000 -0.096808 0
24.270000 -0.102712 0
24.275000 -0.107320 0
24.280000 -0.110822 0
24.285000 -0.113395 0
24.290000 -0.115201 0
24.295000 -0.116379 0
24.300000 -0.116813 0
24.305000 -0.115834 0
24.310000 -0.114859 0
24.315000 -0.113889 0
24.320000 -0.112925 0
24.325000 -0.111964 0
24.330000 -0.111009 0
24.335000 -0.110057 0
24.340000 -0.109109 0
24.345000 -0.108162 0
24.350000 -0.107215 0
24.355000 -0.106263 0
24.360000 -0.105297 0
24.365000 -0.104302 0
24.370000 -0.103255 0
24.375000 -0.102115 0
24.380000 -0.100821 0
24.385000 -0.099281 0
24.390000 -0.097359 0
24.395000 -0.094867 0
24.400000 -0.091552 0
24.405000 -0.087089 0
24.410000 -0.081084 0
24.415000 -0.073081 0
24.420000 -0.062596 0
24.425000 -0.049154 0
24.430000 -0.032360 0
24.435000 -0.011970 0
24.440000 0.012019 0
24.445000 0.039296 0
24.450000 0.069178 0
24.455000 0.100595 0
24.460000 0.132120 0
24.465000 0.162058 0
24.470000 0.188589 0
24.475000 0.209944 0
24.480000 0.224602 0
24.485000 0.231468 1
24.490000 0.230005 0
24.495000 0.220310 0
24.500000 0.203097 0
24.505000 0.179616 0
24.510000 0.151497 0
24.515000 0.120559 0
24.520000 0.088590 0
24.525000 0.057076 0
24.530000 0.026811 0
24.535000 -0.002699 0
24.540000 -0.033892 0
24.545000 -0.071110 0
24.550000 -0.118576 0
24.555000 -0.175793 0
24.560000 -0.232425 0
24.565000 -0.266808 2
24.570000 -0.250259 0
24.575000 -0.154636 0
24.580000 0.039411 0
24.585000 0.330401 0
24.590000 0.678659 0
24.595000 0.998099 0
24.600000 1.180699 3
24.605000 1.152966 0
24.610000 0.922256 0
24.615000 0.570025 0
24.620000 0.202796 0
24.625000 -0.097670 0
24.630000 -0.292086 0
24.635000 -0.375933 4
24.640000 -0.367815 0
24.645000 -0.300822 0
24.650000 -0.211925 0
24.655000 -0.129529 0
24.660000 -0.066428 0
24.665000 -0.021986 0
24.670000 0.010559 0
24.675000 0.037916 0
24.680000 0.064283 0
24.685000 0.091533 0
24.690000 0.120180 0
24.695000 0.150109 0
24.700000 0.180935 0
24.705000 0.212140 0
24.710000 0.243124 0
24.715000 0.273224 0
24.720000 0.301745 0
24.725000 0.327979 0
24.730000 0.351240 0
24.735000 0.370885 0
24.740000 0.386352 0
24.745000 0.397179 0
24.750000 0.403030 0
24.755000 0.403712 5
24.760000 0.399182 0
24.765000 0.389553 0
24.770000 0.375085 0
24.775000 0.356179 0
24.780000 0.333350 0
24.785000 0.307212 0
24.790000 0.278441 0
24.795000 0.247755 0
24.800000 0.215877 0
24.805000 0.183511 0
24.810000 0.151316 0
24.815000 0.119883 0
24.820000 0.089726 0
24.825000 0.061263 0
24.830000 0.034818 0
24.835000 0.010617 0
24.840000 -0.011206 0
24.845000 -0.030599 0
24.850000 -0.047586 0
24.855000 -0.062249 0
24.860000 -0.074720 0
24.865000 -0.085165 0
24.870000 -0.093772 0
24.875000 -0.100741 0
24.880000 -0.106274 0
24.885000 -0.110568 0
24.890000 -0.113809 0
24.895000 -0.116169 0
24.900000 -0.117800 0
24.905000 -0.118839 0
24.910000 -0.118144 0
24.915000 -0.117158 0
24.920000 -0.116177 0
24.925000 -0.115200 0
24.930000 -0.114229 0
24.935000 -0.113262 0
24.940000 -0.112300 0
24.945000 -0.111341 0
24.950000 -0.110386 0
24.955000 -0.109433 0
24.960000 -0.108478 0
24.965000 -0.107518 0
24.970000 -0.106541 0
24.975000 -0.105533 0
24.980000 -0.104468 0
24.985000 -0.103304 0
24.990000 -0.101976 0
24.995000 -0.100388 0
25.000000 -0.098400 0
25.005000 -0.095817 0
25.010000 -0.092383 0
25.015000 -0.087768 0
25.020000 -0.081575 0
25.025000 -0.073349 0
25.030000 -0.062609 0
25.035000 -0.048890 0
25.040000 -0.031812 0
25.045000 -0.011151 0
25.050000 0.013079 0
25.055000 0.040544 0
25.060000 0.070547 0
25.065000 0.102009 0
25.070000 0.133501 0
25.075000 0.163340 0
25.080000 0.189725 0
25.085000 0.210912 0
25.090000 0.225407 0
25.095000 0.232137 1
25.100000 0.230583 0
25.105000 0.220846 0
25.110000 0.203638 0
25.115000 0.180191 0
25.120000 0.152116 0
25.125000 0.121212 0
25.130000 0.089248 0
25.135000 0.057706 0
25.140000 0.027398 0
25.145000 -0.002107 0
25.150000 -0.033129 0
25.155000 -0.069901 0
25.160000 -0.116704 0
25.165000 -0.173479 0
25.170000 -0.230736 0
25.175000 -0.267759 2
25.180000 -0.256459 0
25.185000 -0.168673 0
25.190000 0.015878 0
25.195000 0.298348 0
25.200000 0.643946 0
25.205000 0.971886 0
25.210000 1.175305 3
25.215000 1.172203 0
25.220000 0.956477 0
25.225000 0.608536 0
25.230000 0.240365 0
25.235000 -0.060692 0
25.240000 -0.252921 0
25.245000 -0.332091 4
25.250000 -0.318660 0
25.255000 -0.248145 0
25.260000 -0.159063 0
25.265000 -0.079420 0
25.270000 -0.020187 0
25.275000 0.021016 0
25.280000 0.051672 0
25.285000 0.078317 0
25.290000 0.104661 0
25.295000 0.132174 0
25.300000 0.161131 0
25.305000 0.191290 0
25.310000 0.222185 0
25.315000 0.253232 0
25.320000 0.283770 0
25.325000 0.313081 0
25.330000 0.340423 0
25.335000 0.365057 0
25.340000 0.386280 0
25.345000 0.403458 0
25.350000 0.416056 0
25.355000 0.423665 0
25.360000 0.426023 5
25.365000 0.423029 0
25.370000 0.414750 0
25.375000 0.401415 0
25.380000 0.383407 0
25.385000 0.361244 0
25.390000 0.335550 0
25.395000 0.307030 0
25.400000 0.276432 0
25.405000 0.244520 0
25.410000 0.212039 0
25.415000 0.179687 0
25.420000 0.148092 0
25.425000 0.117797 0
25.430000 0.089243 0
25.435000 0.062768 0
25.440000 0.038606 0
25.445000 0.016891 0
25.450000 -0.002332 0
25.455000 -0.019095 0
25.460000 -0.033495 0
25.465000 -0.045677 0
25.470000 -0.055822 0
25.475000 -0.064133 0
25.480000 -0.070820 0
25.485000 -0.076096 0
25.490000 -0.080164 0
25.495000 -0.083217 0
25.500000 -0.085427 0
25.505000 -0.086949 0
25.510000 -0.087916 0
25.515000 -0.087341 0
25.520000 -0.086508 0
25.525000 -0.085680 0
25.530000 -0.084856 0
25.535000 -0.084035 0
25.540000 -0.083219 0
25.545000 -0.082406 0
25.550000 -0.081596 0
25.555000 -0.080787 0
25.560000 -0.079978 0
25.565000 -0.079163 0
25.570000 -0.078333 0
25.575000 -0.077475 0
25.580000 -0.076563 0
25.585000 -0.075558 0
25.590000 -0.074394 0
25.595000 -0.072974 0
25.600000 -0.071157 0
25.605000 -0.068743 0
25.610000 -0.065462 0
25.615000 -0.060969 0
25.620000 -0.054846 0
25.625000 -0.046611 0
25.630000 -0.035756 0
25.635000 -0.021799 0
25.640000 -0.004351 0
25.645000 0.016794 0
25.650000 0.041567 0
25.655000 0.069548 0
25.660000 0.099914 0
25.665000 0.131430 0
25.670000 0.162510 0
25.675000 0.191324 0
25.680000 0.215973 0
25.685000 0.234692 0
25.690000 0.246054 0
25.695000 0.249152 1
25.700000 0.243716 0
25.705000 0.230153 0
25.710000 0.209491 0
25.715000 0.183254 0
25.720000 0.153270 0
25.725000 0.121446 0
25.730000 0.089503 0
25.735000 0.058623 0
25.740000 0.028896 0
25.745000 -0.001410 0
25.750000 -0.036228 0
25.755000 -0.080382 0
25.760000 -0.135458 0
25.765000 -0.194016 0
25.770000 -0.236446 2
25.775000 -0.234027 0
25.780000 -0.156640 0
25.785000 0.018501 0
25.790000 0.295024 0
25.795000 0.639178 0
25.800000 0.967711 0
25.805000 1.168462 3
25.810000 1.158374 0
25.815000 0.937262 0
25.820000 0.587224 0
25.825000 0.219985 0
25.830000 -0.078456 0
25.835000 -0.267652 0
25.840000 -0.344157 4
25.845000 -0.328873 0
25.850000 -0.257473 0
25.855000 -0.168298 0
25.860000 -0.088964 0
25.865000 -0.030079 0
25.870000 0.010913 0
25.875000 0.041505 0
25.880000 0.068176 0
25.885000 0.094583 0
25.890000 0.122169 0
25.895000 0.151195 0
25.900000 0.181417 0
25.905000 0.212368 0
25.910000 0.243464 0
25.915000 0.274044 0
25.920000 0.303392 0
25.925000 0.330768 0
25.930000 0.355433 0
25.935000 0.376687 0
25.940000 0.393898 0
25.945000 0.406531 0
25.950000 0.414180 0
25.955000 0.416582 5
25.960000 0.413638 0
25.965000 0.405414 0
25.970000 0.392138 0
25.975000 0.374193 0
25.980000 0.352095 0
25.985000 0.326466 0
25.990000 0.298008 0
25.995000 0.267470 0
26.000000 0.235613 0
26.005000 0.203179 0
26.010000 0.170868 0
26.015000 0.139307 0
26.020000 0.109037 0
26.025000 0.080502 0
26.030000 0.054039 0
26.035000 0.029883 0
26.040000 0.008171 0
26.045000 -0.011052 0
26.050000 -0.027817 0
26.055000 -0.042218 0
26.060000 -0.054402 0
26.065000 -0.064546 0
26.070000 -0.072852 0
26.075000 -0.079532 0
26.080000 -0.084798 0
26.085000 -0.088852 0
26.090000 -0.091887 0
26.095000 -0.094075 0
26.100000 -0.095572 0
26.105000 -0.096511 0
26.110000 -0.095895 0
26.115000 -0.095020 0
26.120000 -0.094149 0
26.125000 -0.093283 0
26.130000 -0.092421 0
26.135000 -0.091562 0
26.140000 -0.090708 0
26.145000 -0.089857 0
26.150000 -0.089007 0
26.155000 -0.088157 0
26.160000 -0.087301 0
26.165000 -0.086432 0
26.170000 -0.085536 0
26.175000 -0.084587 0
26.180000 -0.083547 0
26.185000 -0.082353 0
26.190000 -0.080910 0
26.195000 -0.079077 0
26.200000 -0.076660 0
26.205000 -0.073393 0
26.210000 -0.068936 0
26.215000 -0.062874 0
26.220000 -0.054730 0
26.225000 -0.043998 0
26.230000 -0.030192 0
26.235000 -0.012917 0
26.240000 0.008044 0
26.245000 0.032644 0
26.250000 0.060485 0
26.255000 0.090770 0
26.260000 0.122293 0
26.265000 0.153490 0
26.270000 0.182546 0
26.275000 0.207564 0
26.280000 0.226768 0
26.285000 0.238705 0
26.290000 0.242429 1
26.295000 0.237625 0
26.300000 0.224651 0
26.305000 0.204492 0
26.310000 0.178641 0
26.315000 0.148905 0
26.320000 0.117189 0
26.325000 0.085237 0
26.330000 0.054285 0
26.335000 0.024536 0
26.340000 -0.005573 0
26.345000 -0.039803 0
26.350000 -0.083015 0
26.355000 -0.137273 0
26.360000 -0.196094 0
26.365000 -0.240906 0
26.370000 -0.243560 2
26.375000 -0.173777 0
26.380000 -0.007794 0
26.385000 0.260366 0
26.390000 0.601132 0
26.395000 0.935704 0
26.400000 1.152771 0
26.405000 1.163907 3
26.410000 0.960970 0
26.415000 0.619960 0
26.420000 0.249099 0
26.425000 -0.063086 0
26.430000 -0.271129 0
26.435000 -0.366827 0
26.440000 -0.366909 4
26.445000 -0.303921 0
26.450000 -0.215638 0
26.455000 -0.132101 0
26.460000 -0.067593 0
26.465000 -0.022205 0
26.470000 0.010765 0
26.475000 0.038234 0
26.480000 0.064588 0
26.485000 0.091802 0
26.490000 0.120422 0
26.495000 0.150340 0
26.500000 0.181165 0
26.505000 0.212371 0
26.510000 0.243346 0
26.515000 0.273415 0
26.520000 0.301870 0
26.525000 0.327991 0
26.530000 0.351080 0
26.535000 0.370489 0
26.540000 0.385649 0
26.545000 0.396099 0
26.550000 0.401509 0
26.555000 0.401695 5
26.560000 0.396627 0
26.565000 0.386438 0
26.570000 0.371409 0
26.575000 0.351962 0
26.580000 0.328636 0
26.585000 0.302066 0
26.590000 0.272950 0
26.595000 0.242018 0
26.600000 0.210007 0
26.605000 0.177624 0
26.610000 0.145530 0
26.615000 0.114314 0
26.620000 0.084477 0
26.625000 0.056426 0
26.630000 0.030468 0
26.635000 0.006812 0
26.640000 -0.014426 0
26.645000 -0.033214 0
26.650000 -0.049592 0
26.655000 -0.063657 0
26.660000 -0.075556 0
26.665000 -0.085462 0
26.670000 -0.093574 0
26.675000 -0.100095 0
26.680000 -0.105230 0
26.685000 -0.109177 0
26.690000 -0.112120 0
26.695000 -0.114228 0
26.700000 -0.115651 0
26.705000 -0.116520 0
26.710000 -0.115810 0
26.715000 -0.114835 0
26.720000 -0.113866 0
26.725000 -0.112901 0
26.730000 -0.111941 0
26.735000 -0.110985 0
26.740000 -0.110034 0
26.745000 -0.109086 0
26.750000 -0.108142 0
26.755000 -0.107197 0
26.760000 -0.106250 0
26.765000 -0.105292 0
26.770000 -0.104312 0
26.775000 -0.103289 0
26.780000 -0.102191 0
26.785000 -0.100964 0
26.790000 -0.099527 0
26.795000 -0.097762 0
26.800000 -0.095498 0
26.805000 -0.092507 0
26.810000 -0.088487 0
26.815000 -0.083065 0
26.820000 -0.075803 0
26.825000 -0.066217 0
26.830000 -0.053821 0
26.835000 -0.038183 0
26.840000 -0.018998 0
26.845000 0.003827 0
26.850000 0.030091 0
26.855000 0.059232 0
26.860000 0.090299 0
26.865000 0.121964 0
26.870000 0.152594 0
26.875000 0.180380 0
26.880000 0.203507 0
26.885000 0.220347 0
26.890000 0.229650 0
26.895000 0.230699 1
26.900000 0.223395 0
26.905000 0.208280 0
26.910000 0.186466 0
26.915000 0.159499 0
26.920000 0.129177 0
26.925000 0.097331 0
26.930000 0.065573 0
26.935000 0.034946 0
26.940000 0.005380 0
26.945000 -0.024997 0
26.950000 -0.060130 0
26.955000 -0.104649 0
26.960000 -0.159850 0
26.965000 -0.218282 0
26.970000 -0.260903 2
26.975000 -0.259998 0
26.980000 -0.186381 0
26.985000 -0.017503 0
26.990000 0.251799 0
26.995000 0.592486 0
27.000000 0.928488 0
27.005000 1.152082 0
27.010000 1.175458 3
27.015000 0.983849 0
27.020000 0.646481 0
27.025000 0.275249 0
27.030000 -0.037174 0
27.035000 -0.243417 0
27.040000 -0.335422 4
27.045000 -0.331266 0
27.050000 -0.265327 0
27.055000 -0.176626 0
27.060000 -0.095001 0
27.065000 -0.033383 0
27.070000 0.009510 0
27.075000 0.040992 0
27.080000 0.067880 0
27.085000 0.094195 0
27.090000 0.121598 0
27.095000 0.150450 0
27.100000 0.180544 0
27.105000 0.211428 0
27.110000 0.242527 0
27.115000 0.273183 0
27.120000 0.302681 0
27.125000 0.330277 0
27.130000 0.355229 0
27.135000 0.376827 0
27.140000 0.394427 0
27.145000 0.407482 0
27.150000 0.415570 0
27.155000 0.418415 5
27.160000 0.415902 0
27.165000 0.408083 0
27.170000 0.395176 0
27.175000 0.377554 0
27.180000 0.355725 0
27.185000 0.330310 0
27.190000 0.302008 0
27.195000 0.271570 0
27.200000 0.239761 0
27.205000 0.207331 0
27.210000 0.174984 0
27.215000 0.143356 0
27.220000 0.112996 0
27.225000 0.084355 0
27.230000 0.057778 0
27.235000 0.033506 0
27.240000 0.011679 0
27.245000 -0.007652 0
27.250000 -0.024517 0
27.255000 -0.039008 0
27.260000 -0.051270 0
27.265000 -0.061483 0
27.270000 -0.069847 0
27.275000 -0.076576 0
27.280000 -0.081882 0
27.285000 -0.085970 0
27.290000 -0.089032 0
27.295000 -0.091244 0
27.300000 -0.092761 0
27.305000 -0.093718 0
27.310000 -0.093116 0
27.315000 -0.092255 0
27.320000 -0.091398 0
27.325000 -0.090545 0
27.330000 -0.089697 0
27.335000 -0.088852 0
27.340000 -0.088011 0
27.345000 -0.087173 0
27.350000 -0.086337 0
27.355000 -0.085499 0
27.360000 -0.084657 0
27.365000 -0.083801 0
27.370000 -0.082916 0
27.375000 -0.081978 0
27.380000 -0.080947 0
27.385000 -0.079759 0
27.390000 -0.078317 0
27.395000 -0.076478 0
27.400000 -0.074043 0
27.405000 -0.070743 0
27.410000 -0.066232 0
27.415000 -0.060089 0
27.420000 -0.051834 0
27.425000 -0.040956 0
27.430000 -0.026970 0
27.435000 -0.009487 0
27.440000 0.011698 0
27.445000 0.036515 0
27.450000 0.064543 0
27.455000 0.094950 0
27.460000 0.126496 0
27.465000 0.157587 0
27.470000 0.186384 0
27.475000 0.210986 0
27.480000 0.229622 0
27.485000 0.240869 0
27.490000 0.243829 1
27.495000 0.238244 0
27.500000 0.224534 0
27.505000 0.203746 0
27.510000 0.177416 0
27.515000 0.147383 0
27.520000 0.115558 0
27.525000 0.083658 0
27.530000 0.052845 0
27.535000 0.023162 0
27.540000 -0.007200 0
27.545000 -0.042253 0
27.550000 -0.086810 0
27.555000 -0.142217 0
27.560000 -0.200556 0
27.565000 -0.241679 2
27.570000 -0.236544 0
27.575000 -0.155078 0
27.580000 0.025000 0
27.585000 0.306002 0
27.590000 0.651773 0
27.595000 0.976491 0
27.600000 1.167544 3
27.605000 1.143952 0
27.610000 0.909588 0
27.615000 0.553548 0
27.620000 0.190439 0
27.625000 -0.095835 0
27.630000 -0.268948 0
27.635000 -0.329468 4
27.640000 -0.301933 0
27.645000 -0.224584 0
27.650000 -0.135813 0
27.655000 -0.060698 0
27.660000 -0.006618 0
27.665000 0.030986 0
27.670000 0.059963 0
27.675000 0.086255 0
27.680000 0.112885 0
27.685000 0.140879 0
27.690000 0.170296 0
27.695000 0.200785 0
27.700000 0.231819 0
27.705000 0.262763 0
27.710000 0.292908 0
27.715000 0.321503 0
27.720000 0.347782 0
27.725000 0.370993 0
27.730000 0.390442 0
27.735000 0.405519 0
27.740000 0.415729 0
27.745000 0.420725 5
27.750000 0.420319 0
27.755000 0.414495 0
27.760000 0.403415 0
27.765000 0.387402 0
27.770000 0.366931 0
27.775000 0.342603 0
27.780000 0.315114 0
27.785000 0.285221 0
27.790000 0.253707 0
27.795000 0.221351 0
27.800000 0.188891 0
27.805000 0.157000 0
27.810000 0.126266 0
27.815000 0.097176 0
27.820000 0.070110 0
27.825000 0.045336 0
27.830000 0.023018 0
27.835000 0.003225 0
27.840000 -0.014060 0
27.845000 -0.028923 0
27.850000 -0.041507 0
27.855000 -0.051989 0
27.860000 -0.060577 0
27.865000 -0.067487 0
27.870000 -0.072937 0
27.875000 -0.077139 0
27.880000 -0.080292 0
27.885000 -0.082575 0
27.890000 -0.084149 0
27.895000 -0.085154 0
27.900000 -0.084596 0
27.905000 -0.083777 0
27.910000 -0.082962 0
27.915000 -0.082152 0
27.920000 -0.081345 0
27.925000 -0.080542 0
27.930000 -0.079742 0
27.935000 -0.078945 0
27.940000 -0.078150 0
27.945000 -0.077352 0
27.950000 -0.076549 0
27.955000 -0.075729 0
27.960000 -0.074877 0
27.965000 -0.073966 0
27.970000 -0.072950 0
27.975000 -0.071758 0
27.980000 -0.070282 0
27.985000 -0.068365 0
27.990000 -0.065785 0
27.995000 -0.062248 0
28.000000 -0.057379 0
28.005000 -0.050726 0
28.010000 -0.041783 0
28.015000 -0.030028 0
28.020000 -0.014984 0
28.025000 0.003698 0
28.030000 0.026143 0
28.035000 0.052163 0
28.040000 0.081175 0
28.045000 0.112167 0
28.050000 0.143714 0
28.055000 0.174061 0
28.060000 0.201269 0
28.065000 0.223418 0
28.070000 0.238823 0
28.075000 0.246247 1
28.080000 0.245066 0
28.085000 0.235352 0
28.090000 0.217864 0
28.095000 0.193954 0
28.100000 0.165388 0
28.105000 0.134124 0
28.110000 0.102050 0
28.115000 0.070664 0
28.120000 0.040585 0
28.125000 0.010825 0
28.130000 -0.021868 0
28.135000 -0.062457 0
28.140000 -0.114315 0
28.145000 -0.173324 0
28.150000 -0.223099 0
28.155000 -0.236119 2
28.160000 -0.180904 0
28.165000 -0.031115 0
28.170000 0.223294 0
28.175000 0.558139 0
28.180000 0.898463 0
28.185000 1.131054 0
28.190000 1.159784 3
28.195000 0.969147 0
28.200000 0.633040 0
28.205000 0.261441 0
28.210000 -0.053670 0
28.215000 -0.264369 0
28.220000 -0.361503 0
28.225000 -0.361857 4
28.230000 -0.298590 0
28.235000 -0.210213 0
28.240000 -0.127124 0
28.245000 -0.063435 0
28.250000 -0.018837 0
28.255000 0.013633 0
28.260000 0.040914 0
28.265000 0.067288 0
28.270000 0.094620 0
28.275000 0.123382 0
28.280000 0.153424 0
28.285000 0.184329 0
28.290000 0.215545 0
28.295000 0.246439 0
28.300000 0.276315 0
28.305000 0.304447 0
28.310000 0.330102 0
28.315000 0.352573 0
28.320000 0.371212 0
28.325000 0.385456 0
28.330000 0.394862 0
28.335000 0.399121 5
28.340000 0.398082 0
28.345000 0.391752 0
28.350000 0.380304 0
28.355000 0.364065 0
28.360000 0.343498 0
28.365000 0.319184 0
28.370000 0.291792 0
28.375000 0.262046 0
28.380000 0.230699 0
28.385000 0.198494 0
28.390000 0.166142 0
28.395000 0.134293 0
28.400000 0.103520 0
