0.000000 1.163746 3
0.005000 1.041545 0
0.010000 0.736473 0
0.015000 0.357206 0
0.020000 0.011071 0
0.025000 -0.237039 0
0.030000 -0.367003 0
0.035000 -0.389869 4
0.040000 -0.336720 0
0.045000 -0.247795 0
0.050000 -0.158146 0
0.055000 -0.086698 0
0.060000 -0.035858 0
0.065000 0.000869 0
0.070000 0.031034 0
0.075000 0.059593 0
0.080000 0.088776 0
0.085000 0.119164 0
0.090000 0.150586 0
0.095000 0.182560 0
0.100000 0.214459 0
0.105000 0.245579 0
0.110000 0.275167 0
0.115000 0.302453 0
0.120000 0.326683 0
0.125000 0.347153 0
0.130000 0.363243 0
0.135000 0.374447 0
0.140000 0.380398 0
0.145000 0.380892 5
0.150000 0.375891 0
0.155000 0.365535 0
0.160000 0.350128 0
0.165000 0.330125 0
0.170000 0.306113 0
0.175000 0.278775 0
0.180000 0.248863 0
0.185000 0.217163 0
0.190000 0.184457 0
0.195000 0.151498 0
0.200000 0.118977 0
0.205000 0.087503 0
0.210000 0.057590 0
0.215000 0.029643 0
0.220000 0.003959 0
0.225000 -0.019270 0
0.230000 -0.039953 0
0.235000 -0.058085 0
0.240000 -0.073734 0
0.245000 -0.087028 0
0.250000 -0.098136 0
0.255000 -0.107260 0
0.260000 -0.114614 0
0.265000 -0.120418 0
0.270000 -0.124888 0
0.275000 -0.128228 0
0.280000 -0.130625 0
0.285000 -0.132249 0
0.290000 -0.132946 0
0.295000 -0.131876 0
0.300000 -0.130811 0
0.305000 -0.129751 0
0.310000 -0.128696 0
0.315000 -0.127647 0
0.320000 -0.126601 0
0.325000 -0.125559 0
0.330000 -0.124519 0
0.335000 -0.123476 0
0.340000 -0.122425 0
0.345000 -0.121354 0
0.350000 -0.120243 0
0.355000 -0.119059 0
0.360000 -0.117749 0
0.365000 -0.116230 0
0.370000 -0.114379 0
0.375000 -0.112017 0
0.380000 -0.108902 0
0.385000 -0.104713 0
0.390000 -0.099051 0
0.395000 -0.091442 0
0.400000 -0.081371 0
0.405000 -0.068319 0
0.410000 -0.051831 0
0.415000 -0.031605 0
0.420000 -0.007583 0
0.425000 0.019959 0
0.430000 0.050340 0
0.435000 0.082453 0
0.440000 0.114789 0
0.445000 0.145538 0
0.450000 0.172740 0
0.455000 0.194495 0
0.460000 0.209174 0
0.465000 0.215628 1
0.470000 0.213331 0
0.475000 0.202459 0
0.480000 0.183863 0
0.485000 0.158962 0
0.490000 0.129562 0
0.495000 0.097626 0
0.500000 0.064995 0
0.505000 0.033013 0
0.510000 0.001946 0
0.515000 -0.029803 0
0.520000 -0.066125 0
0.525000 -0.111926 0
0.530000 -0.168871 0
0.535000 -0.229358 0
0.540000 -0.273174 2
0.545000 -0.270648 0
0.550000 -0.190692 0
0.555000 -0.009938 0
0.560000 0.274830 0
0.565000 0.627590 0
0.570000 0.960962 0
0.575000 1.159021 3
0.580000 1.136009 0
0.585000 0.896373 0
0.590000 0.532604 0
0.595000 0.163282 0
0.600000 -0.125551 0
0.605000 -0.297400 0
0.610000 -0.353826 4
0.615000 -0.321027 0
0.620000 -0.238969 0
0.625000 -0.146987 0
0.630000 -0.069961 0
0.635000 -0.014457 0
0.640000 0.024742 0
0.645000 0.055676 0
0.650000 0.084159 0
0.655000 0.112996 0
0.660000 0.143029 0
0.665000 0.174172 0
0.670000 0.205963 0
0.675000 0.237771 0
0.680000 0.268876 0
0.685000 0.298504 0
0.690000 0.325860 0
0.695000 0.350163 0
0.700000 0.370682 0
0.705000 0.386771 0
0.710000 0.397904 0
0.715000 0.403702 0
0.720000 0.403951 5
0.725000 0.398619 0
0.730000 0.387856 0
0.735000 0.371984 0
0.740000 0.351484 0
0.745000 0.326972 0
0.750000 0.299162 0
0.755000 0.268837 0
0.760000 0.236809 0
0.765000 0.203884 0
0.770000 0.170830 0
0.775000 0.138346 0
0.780000 0.107043 0
0.785000 0.077428 0
0.790000 0.049892 0
0.795000 0.024716 0
0.800000 0.002069 0
0.805000 -0.017982 0
0.810000 -0.035455 0
0.815000 -0.050442 0
0.820000 -0.063091 0
0.825000 -0.073589 0
0.830000 -0.082151 0
0.835000 -0.089001 0
0.840000 -0.094367 0
0.845000 -0.098465 0
0.850000 -0.101501 0
0.855000 -0.103659 0
0.860000 -0.105104 0
0.865000 -0.104516 0
0.870000 -0.103587 0
0.875000 -0.102663 0
0.880000 -0.101744 0
0.885000 -0.100829 0
0.890000 -0.099917 0
0.895000 -0.099009 0
0.900000 -0.098103 0
0.905000 -0.097195 0
0.910000 -0.096281 0
0.915000 -0.095351 0
0.920000 -0.094387 0
0.925000 -0.093361 0
0.930000 -0.092225 0
0.935000 -0.090902 0
0.940000 -0.089279 0
0.945000 -0.087188 0
0.950000 -0.084394 0
0.955000 -0.080585 0
0.960000 -0.075365 0
0.965000 -0.068260 0
0.970000 -0.058740 0
0.975000 -0.046266 0
0.980000 -0.030355 0
0.985000 -0.010670 0
0.990000 0.012884 0
0.995000 0.040056 0
1.000000 0.070179 0
1.005000 0.102135 0
1.010000 0.134384 0
1.015000 0.165063 0
1.020000 0.192150 0
1.025000 0.213683 0
1.030000 0.227989 0
1.035000 0.233899 1
1.040000 0.230909 0
1.045000 0.219249 0
1.050000 0.199851 0
1.055000 0.174231 0
1.060000 0.144285 0
1.065000 0.112039 0
1.070000 0.079346 0
1.075000 0.047455 0
1.080000 0.016347 0
1.085000 -0.016099 0
1.090000 -0.054326 0
1.095000 -0.103109 0
1.100000 -0.162334 0
1.105000 -0.220789 0
1.110000 -0.254239 2
1.115000 -0.230670 0
1.120000 -0.119450 0
1.125000 0.098410 0
1.130000 0.414521 0
1.135000 0.772558 0
1.140000 1.065875 0
1.145000 1.179731 3
1.150000 1.061865 0
1.155000 0.758417 0
1.160000 0.379192 0
1.165000 0.033207 0
1.170000 -0.213799 0
1.175000 -0.341774 0
1.180000 -0.362371 4
1.185000 -0.307520 0
1.190000 -0.218112 0
1.195000 -0.129198 0
1.200000 -0.059095 0
1.205000 -0.009510 0
1.210000 0.026405 0
1.215000 0.056192 0
1.220000 0.084637 0
1.225000 0.113814 0
1.230000 0.144213 0
1.235000 0.175615 0
1.240000 0.207507 0
1.245000 0.239244 0
1.250000 0.270102 0
1.255000 0.299312 0
1.260000 0.326093 0
1.265000 0.349685 0
1.270000 0.369384 0
1.275000 0.384577 0
1.280000 0.394772 0
1.285000 0.399626 5
1.290000 0.398961 0
1.295000 0.392775 0
1.300000 0.381241 0
1.305000 0.364704 0
1.310000 0.343657 0
1.315000 0.318717 0
1.320000 0.290600 0
1.325000 0.260079 0
1.330000 0.227955 0
1.335000 0.195017 0
1.340000 0.162014 0
1.345000 0.129629 0
1.350000 0.098453 0
1.355000 0.068979 0
1.360000 0.041585 0
1.365000 0.016541 0
1.370000 -0.005992 0
1.375000 -0.025949 0
1.380000 -0.043351 0
1.385000 -0.058288 0
1.390000 -0.070906 0
1.395000 -0.081391 0
1.400000 -0.089952 0
1.405000 -0.096810 0
1.410000 -0.102188 0
1.415000 -0.106301 0
1.420000 -0.109351 0
1.425000 -0.111520 0
1.430000 -0.112972 0
1.435000 -0.112352 0
1.440000 -0.111384 0
1.445000 -0.110421 0
1.450000 -0.109463 0
1.455000 -0.108510 0
1.460000 -0.107560 0
1.465000 -0.106614 0
1.470000 -0.105670 0
1.475000 -0.104726 0
1.480000 -0.103777 0
1.485000 -0.102814 0
1.490000 -0.101821 0
1.495000 -0.100773 0
1.500000 -0.099627 0
1.505000 -0.098314 0
1.510000 -0.096731 0
1.515000 -0.094724 0
1.520000 -0.092080 0
1.525000 -0.088509 0
1.530000 -0.083641 0
1.535000 -0.077027 0
1.540000 -0.068159 0
1.545000 -0.056502 0
1.550000 -0.041559 0
1.555000 -0.022949 0
1.560000 -0.000501 0
1.565000 0.025650 0
1.570000 0.054976 0
1.575000 0.086518 0
1.580000 0.118890 0
1.585000 0.150347 0
1.590000 0.178936 0
1.595000 0.202680 0
1.600000 0.219806 0
1.605000 0.228965 0
1.610000 0.229404 1
1.615000 0.221072 0
1.620000 0.204626 0
1.625000 0.181347 0
1.630000 0.152975 0
1.635000 0.121482 0
1.640000 0.088804 0
1.645000 0.056491 0
1.650000 0.025175 0
1.655000 -0.006204 0
1.660000 -0.041037 0
1.665000 -0.084321 0
1.670000 -0.139049 0
1.675000 -0.200122 0
1.680000 -0.249815 0
1.685000 -0.259471 2
1.690000 -0.197096 0
1.695000 -0.036630 0
1.700000 0.230362 0
1.705000 0.576025 0
1.710000 0.920415 0
1.715000 1.147192 0
1.720000 1.162023 3
1.725000 0.953523 0
1.730000 0.601721 0
1.735000 0.226153 0
1.740000 -0.079251 0
1.745000 -0.270331 0
1.750000 -0.343638 4
1.755000 -0.322281 0
1.760000 -0.245054 0
1.765000 -0.152556 0
1.770000 -0.072506 0
1.775000 -0.014010 0
1.780000 0.027021 0
1.785000 0.058679 0
1.790000 0.087243 0
1.795000 0.115911 0
1.800000 0.145735 0
1.805000 0.176713 0
1.810000 0.208416 0
1.815000 0.240229 0
1.820000 0.271437 0
1.825000 0.301270 0
1.830000 0.328931 0
1.835000 0.353633 0
1.840000 0.374632 0
1.845000 0.391269 0
1.850000 0.402999 0
1.855000 0.409422 0
1.860000 0.410304 5
1.865000 0.405590 0
1.870000 0.395408 0
1.875000 0.380064 0
1.880000 0.360023 0
1.885000 0.335888 0
1.890000 0.308368 0
1.895000 0.278242 0
1.900000 0.246323 0
1.905000 0.213424 0
1.910000 0.180319 0
1.915000 0.147718 0
1.920000 0.116245 0
1.925000 0.086417 0
1.930000 0.058640 0
1.935000 0.033205 0
1.940000 0.010292 0
1.945000 -0.010022 0
1.950000 -0.027750 0
1.955000 -0.042977 0
1.960000 -0.055846 0
1.965000 -0.066546 0
1.970000 -0.075287 0
1.975000 -0.082295 0
1.980000 -0.087798 0
1.985000 -0.092016 0
1.990000 -0.095155 0
1.995000 -0.097401 0
2.000000 -0.098921 0
2.005000 -0.098371 0
2.010000 -0.097473 0
2.015000 -0.096579 0
2.020000 -0.095690 0
2.025000 -0.094805 0
2.030000 -0.093924 0
2.035000 -0.093046 0
2.040000 -0.092170 0
2.045000 -0.091292 0
2.050000 -0.090408 0
2.055000 -0.089509 0
2.060000 -0.088577 0
2.065000 -0.087584 0
2.070000 -0.086483 0
2.075000 -0.085199 0
2.080000 -0.083621 0
2.085000 -0.081581 0
2.090000 -0.078849 0
2.095000 -0.075113 0
2.100000 -0.069980 0
2.105000 -0.062975 0
2.110000 -0.053570 0
2.115000 -0.041221 0
2.120000 -0.025443 0
2.125000 -0.005889 0
2.130000 0.017541 0
2.135000 0.044606 0
2.140000 0.074648 0
2.145000 0.106555 0
2.150000 0.138790 0
2.155000 0.169487 0
2.160000 0.196619 0
2.165000 0.218215 0
2.170000 0.232589 0
2.175000 0.238564 1
2.180000 0.235624 0
2.185000 0.223995 0
2.190000 0.204609 0
2.195000 0.178982 0
2.200000 0.149017 0
2.205000 0.116748 0
2.210000 0.084032 0
2.215000 0.052121 0
2.220000 0.020989 0
2.225000 -0.011505 0
2.230000 -0.049833 0
2.235000 -0.098768 0
2.240000 -0.158104 0
2.245000 -0.216423 0
2.250000 -0.249249 2
2.255000 -0.224409 0
2.260000 -0.111276 0
2.265000 0.108844 0
2.270000 0.426717 0
2.275000 0.784568 0
2.280000 1.074499 0
2.285000 1.182133 3
2.290000 1.057226 0
2.295000 0.748630 0
2.300000 0.368814 0
2.305000 0.026870 0
2.310000 -0.213193 0
2.315000 -0.333361 0
2.320000 -0.347133 4
2.325000 -0.287997 0
2.330000 -0.197494 0
2.335000 -0.109960 0
2.340000 -0.042169 0
2.345000 0.005459 0
2.350000 0.040258 0
2.355000 0.069635 0
2.360000 0.098056 0
2.365000 0.127349 0
2.370000 0.157873 0
2.375000 0.189342 0
2.380000 0.221212 0
2.385000 0.252812 0
2.390000 0.283397 0
2.395000 0.312185 0
2.400000 0.338382 0
2.405000 0.361227 0
2.410000 0.380021 0
2.415000 0.394165 0
2.420000 0.403189 0
2.425000 0.406779 5
2.430000 0.404795 0
2.435000 0.397276 0
2.440000 0.384441 0
2.445000 0.366677 0
2.450000 0.344518 0
2.455000 0.318621 0
2.460000 0.289729 0
2.465000 0.258639 0
2.470000 0.226162 0
2.475000 0.193090 0
2.480000 0.160166 0
2.485000 0.128056 0
2.490000 0.097331 0
2.495000 0.068452 0
2.500000 0.041769 0
2.505000 0.017517 0
2.510000 -0.004173 0
2.515000 -0.023267 0
2.520000 -0.039814 0
2.525000 -0.053927 0
2.530000 -0.065770 0
2.535000 -0.075542 0
2.540000 -0.083462 0
2.545000 -0.089755 0
2.550000 -0.094645 0
2.555000 -0.098346 0
2.560000 -0.101054 0
2.565000 -0.102947 0
2.570000 -0.103867 0
2.575000 -0.102941 0
2.580000 -0.102021 0
2.585000 -0.101104 0
2.590000 -0.100193 0
2.595000 -0.099285 0
2.600000 -0.098381 0
2.605000 -0.097480 0
2.610000 -0.096580 0
2.615000 -0.095677 0
2.620000 -0.094764 0
2.625000 -0.093831 0
2.630000 -0.092857 0
2.635000 -0.091806 0
2.640000 -0.090623 0
2.645000 -0.089222 0
2.650000 -0.087471 0
2.655000 -0.085184 0
2.660000 -0.082102 0
2.665000 -0.077886 0
2.670000 -0.072115 0
2.675000 -0.064295 0
2.680000 -0.053888 0
2.685000 -0.040367 0
2.690000 -0.023285 0
2.695000 -0.002374 0
2.700000 0.022362 0
2.705000 0.050548 0
2.710000 0.081379 0
2.715000 0.113602 0
2.720000 0.145568 0
2.725000 0.175350 0
2.730000 0.200926 0
2.735000 0.220403 0
2.740000 0.232246 0
2.745000 0.235478 1
2.750000 0.229815 0
2.755000 0.215704 0
2.760000 0.194265 0
2.765000 0.167147 0
2.770000 0.136307 0
2.775000 0.103748 0
2.780000 0.071195 0
2.785000 0.039605 0
2.790000 0.008433 0
2.795000 -0.025144 0
2.800000 -0.065996 0
2.805000 -0.118146 0
2.810000 -0.178887 0
2.815000 -0.233253 0
2.820000 -0.254102 2
2.825000 -0.208937 0
2.830000 -0.069307 0
2.835000 0.178109 0
2.840000 0.513687 0
2.845000 0.866183 0
2.850000 1.120901 0
2.855000 1.173397 3
2.860000 0.997057 0
2.865000 0.661066 0
2.870000 0.281484 0
2.875000 -0.041999 0
2.880000 -0.257030 0
2.885000 -0.353588 4
2.890000 -0.349835 0
2.895000 -0.281472 0
2.900000 -0.189323 0
2.905000 -0.104554 0
2.910000 -0.040459 0
2.915000 0.004535 0
2.920000 0.038091 0
2.925000 0.067148 0
2.930000 0.095660 0
2.935000 0.125152 0
2.940000 0.155852 0
2.945000 0.187433 0
2.950000 0.219336 0
2.955000 0.250889 0
2.960000 0.281353 0
2.965000 0.309951 0
2.970000 0.335904 0
2.975000 0.358464 0
2.980000 0.376948 0
2.985000 0.390773 0
2.990000 0.399488 0
2.995000 0.402792 5
3.000000 0.400557 0
3.005000 0.392830 0
3.010000 0.379834 0
3.015000 0.361957 0
3.020000 0.339731 0
3.025000 0.313806 0
3.030000 0.284915 0
3.035000 0.253846 0
3.040000 0.221398 0
3.045000 0.188354 0
3.050000 0.155447 0
3.055000 0.123336 0
3.060000 0.092587 0
3.065000 0.063658 0
3.070000 0.036898 0
3.075000 0.012546 0
3.080000 -0.009266 0
3.085000 -0.028498 0
3.090000 -0.045195 0
3.095000 -0.059462 0
3.100000 -0.071460 0
3.105000 -0.081382 0
3.110000 -0.089443 0
3.115000 -0.095864 0
3.120000 -0.100868 0
3.125000 -0.104667 0
3.130000 -0.107457 0
3.135000 -0.109415 0
3.140000 -0.110699 0
3.145000 -0.110064 0
3.150000 -0.109108 0
3.155000 -0.108156 0
3.160000 -0.107209 0
3.165000 -0.106267 0
3.170000 -0.105328 0
3.175000 -0.104393 0
3.180000 -0.103459 0
3.185000 -0.102523 0
3.190000 -0.101581 0
3.195000 -0.100620 0
3.200000 -0.099624 0
3.205000 -0.098562 0
3.210000 -0.097385 0
3.215000 -0.096014 0
3.220000 -0.094333 0
3.225000 -0.092172 0
3.230000 -0.089296 0
3.235000 -0.085391 0
3.240000 -0.080064 0
3.245000 -0.072843 0
3.250000 -0.063208 0
3.255000 -0.050628 0
3.260000 -0.034630 0
3.265000 -0.014887 0
3.270000 0.008692 0
3.275000 0.035861 0
3.280000 0.065965 0
3.285000 0.097912 0
3.290000 0.130196 0
3.295000 0.160992 0
3.300000 0.188315 0
3.305000 0.210224 0
3.310000 0.225052 0
3.315000 0.231612 1
3.320000 0.229358 0
3.325000 0.218456 0
3.330000 0.199767 0
3.335000 0.174732 0
3.340000 0.145189 0
3.345000 0.113132 0
3.350000 0.080423 0
3.355000 0.048401 0
3.360000 0.017271 0
3.365000 -0.014704 0
3.370000 -0.051595 0
3.375000 -0.098328 0
3.380000 -0.156094 0
3.385000 -0.216171 0
3.390000 -0.256932 2
3.395000 -0.247710 0
3.400000 -0.157313 0
3.405000 0.036416 0
3.410000 0.332982 0
3.415000 0.689225 0
3.420000 1.010001 0
3.425000 1.178088 3
3.430000 1.119660 0
3.435000 0.854425 0
3.440000 0.482754 0
3.445000 0.120744 0
3.450000 -0.152968 0
3.455000 -0.308304 0
3.460000 -0.350845 4
3.465000 -0.309155 0
3.470000 -0.223818 0
3.475000 -0.132756 0
3.480000 -0.058375 0
3.485000 -0.005265 0
3.490000 0.032536 0
3.495000 0.062932 0
3.500000 0.091342 0
3.505000 0.120272 0
3.510000 0.150417 0
3.515000 0.181634 0
3.520000 0.213436 0
3.525000 0.245186 0
3.530000 0.276162 0
3.535000 0.305588 0
3.540000 0.332675 0
3.545000 0.356649 0
3.550000 0.376788 0
3.555000 0.392460 0
3.560000 0.403151 0
3.565000 0.408498 5
3.570000 0.408303 0
3.575000 0.402547 0
3.580000 0.391391 0
3.585000 0.375169 0
3.590000 0.354368 0
3.595000 0.329608 0
3.600000 0.301606 0
3.605000 0.271141 0
3.610000 0.239024 0
3.615000 0.206055 0
3.620000 0.172994 0
3.625000 0.140533 0
3.630000 0.109276 0
3.635000 0.079721 0
3.640000 0.052254 0
3.645000 0.027149 0
3.650000 0.004569 0
3.655000 -0.015419 0
3.660000 -0.032838 0
3.665000 -0.047780 0
3.670000 -0.060394 0
3.675000 -0.070868 0
3.680000 -0.079413 0
3.685000 -0.086256 0
3.690000 -0.091619 0
3.695000 -0.095722 0
3.700000 -0.098766 0
3.705000 -0.100935 0
3.710000 -0.102393 0
3.715000 -0.101818 0
3.720000 -0.100903 0
3.725000 -0.099992 0
3.730000 -0.099086 0
3.735000 -0.098184 0
3.740000 -0.097286 0
3.745000 -0.096391 0
3.750000 -0.095498 0
3.755000 -0.094604 0
3.760000 -0.093703 0
3.765000 -0.092786 0
3.770000 -0.091837 0
3.775000 -0.090827 0
3.780000 -0.089708 0
3.785000 -0.088408 0
3.790000 -0.086813 0
3.795000 -0.084760 0
3.800000 -0.082018 0
3.805000 -0.078282 0
3.810000 -0.073160 0
3.815000 -0.066185 0
3.820000 -0.056833 0
3.825000 -0.044566 0
3.830000 -0.028898 0
3.835000 -0.009480 0
3.840000 0.013798 0
3.845000 0.040716 0
3.850000 0.070639 0
3.855000 0.102490 0
3.860000 0.134767 0
3.865000 0.165635 0
3.870000 0.193090 0
3.875000 0.215165 0
3.880000 0.230162 0
3.885000 0.236867 1
3.890000 0.234712 0
3.895000 0.223854 0
3.900000 0.205160 0
3.905000 0.180084 0
3.910000 0.150485 0
3.915000 0.118379 0
3.920000 0.085645 0
3.925000 0.053619 0
3.930000 0.022469 0
3.935000 -0.009634 0
3.940000 -0.046880 0
3.945000 -0.094199 0
3.950000 -0.152451 0
3.955000 -0.212137 0
3.960000 -0.250679 2
3.965000 -0.236761 0
3.970000 -0.139166 0
3.975000 0.063342 0
3.980000 0.367517 0
3.985000 0.725117 0
3.990000 1.035890 0
3.995000 1.182542 3
4.000000 1.100300 0
4.005000 0.820840 0
4.010000 0.446060 0
4.015000 0.087593 0
4.020000 -0.181012 0
4.025000 -0.332484 0
4.030000 -0.373157 4
4.035000 -0.331123 0
4.040000 -0.245898 0
4.045000 -0.154497 0
4.050000 -0.079166 0
4.055000 -0.024931 0
4.060000 0.013721 0
4.065000 0.044552 0
4.070000 0.073079 0
4.075000 0.101969 0
4.080000 0.132033 0
4.085000 0.163196 0
4.090000 0.195015 0
4.095000 0.226889 0
4.100000 0.258125 0
4.105000 0.287978 0
4.110000 0.315680 0
4.115000 0.340473 0
4.120000 0.361642 0
4.125000 0.378548 0
4.130000 0.390661 0
4.135000 0.397587 0
4.140000 0.399087 5
4.145000 0.395090 0
4.150000 0.385701 0
4.155000 0.371191 0
4.160000 0.351987 0
4.165000 0.328649 0
4.170000 0.301842 0
4.175000 0.272307 0
4.180000 0.240824 0
4.185000 0.208178 0
4.190000 0.175128 0
4.195000 0.142379 0
4.200000 0.110558 0
4.205000 0.080198 0
4.210000 0.051728 0
4.215000 0.025467 0
4.220000 0.001627 0
4.225000 -0.019679 0
4.230000 -0.038430 0
4.235000 -0.054680 0
4.240000 -0.068545 0
4.245000 -0.080186 0
4.250000 -0.089798 0
4.255000 -0.097594 0
4.260000 -0.103794 0
4.265000 -0.108614 0
4.270000 -0.112262 0
4.275000 -0.114927 0
4.280000 -0.116784 0
4.285000 -0.117665 0
4.290000 -0.116671 0
4.295000 -0.115682 0
4.300000 -0.114697 0
4.305000 -0.113718 0
4.310000 -0.112743 0
4.315000 -0.111772 0
4.320000 -0.110804 0
4.325000 -0.109838 0
4.330000 -0.108871 0
4.335000 -0.107897 0
4.340000 -0.106906 0
4.345000 -0.105880 0
4.350000 -0.104789 0
4.355000 -0.103587 0
4.360000 -0.102198 0
4.365000 -0.100510 0
4.370000 -0.098358 0
4.375000 -0.095517 0
4.380000 -0.091684 0
4.385000 -0.086480 0
4.390000 -0.079448 0
4.395000 -0.070080 0
4.400000 -0.057852 0
4.405000 -0.042289 0
4.410000 -0.023045 0
4.415000 0.000007 0
4.420000 0.026677 0
4.425000 0.056389 0
4.430000 0.088138 0
4.435000 0.120510 0
4.440000 0.151757 0
4.445000 0.179943 0
4.450000 0.203134 0
4.455000 0.219619 0
4.460000 0.228115 1
4.465000 0.227933 0
4.470000 0.219074 0
4.475000 0.202226 0
4.480000 0.178680 0
4.485000 0.150161 0
4.490000 0.118616 0
4.495000 0.085942 0
4.500000 0.053652 0
4.505000 0.022354 0
4.510000 -0.009003 0
4.515000 -0.043744 0
4.520000 -0.086787 0
4.525000 -0.141185 0
4.530000 -0.202247 0
4.535000 -0.253017 0
4.540000 -0.265653 2
4.545000 -0.208620 0
4.550000 -0.055626 0
4.555000 0.203400 0
4.560000 0.544665 0
4.565000 0.894018 0
4.570000 1.138392 0
4.575000 1.179352 3
4.580000 0.994616 0
4.585000 0.654090 0
4.590000 0.275246 0
4.595000 -0.043424 0
4.600000 -0.251715 0
4.605000 -0.341485 4
4.610000 -0.332395 0
4.615000 -0.261192 0
4.620000 -0.168802 0
4.625000 -0.085462 0
4.630000 -0.023183 0
4.635000 0.020452 0
4.640000 0.053303 0
4.645000 0.082127 0
4.650000 0.110636 0
4.655000 0.140194 0
4.660000 0.170949 0
4.665000 0.202536 0
4.670000 0.234377 0
4.675000 0.265785 0
4.680000 0.296008 0
4.685000 0.324261 0
4.690000 0.349760 0
4.695000 0.371758 0
4.700000 0.389579 0
4.705000 0.402651 0
4.710000 0.410538 0
4.715000 0.412964 5
4.720000 0.409823 0
4.725000 0.401192 0
4.730000 0.387323 0
4.735000 0.368632 0
4.740000 0.345677 0
4.745000 0.319128 0
4.750000 0.289739 0
4.755000 0.258307 0
4.760000 0.225638 0
4.765000 0.192513 0
4.770000 0.159660 0
4.775000 0.127725 0
4.780000 0.097257 0
4.785000 0.068699 0
4.790000 0.042377 0
4.795000 0.018508 0
4.800000 -0.002793 0
4.805000 -0.021509 0
4.810000 -0.037697 0
4.815000 -0.051479 0
4.820000 -0.063025 0
4.825000 -0.072536 0
4.830000 -0.080232 0
4.835000 -0.086337 0
4.840000 -0.091073 0
4.845000 -0.094651 0
4.850000 -0.097262 0
4.855000 -0.099082 0
4.860000 -0.099960 0
4.865000 -0.099054 0
4.870000 -0.098153 0
4.875000 -0.097256 0
4.880000 -0.096363 0
4.885000 -0.095475 0
4.890000 -0.094590 0
4.895000 -0.093707 0
4.900000 -0.092825 0
4.905000 -0.091940 0
4.910000 -0.091045 0
4.915000 -0.090127 0
4.920000 -0.089165 0
4.925000 -0.088123 0
4.930000 -0.086943 0
4.935000 -0.085535 0
4.940000 -0.083766 0
4.945000 -0.081444 0
4.950000 -0.078305 0
4.955000 -0.074007 0
4.960000 -0.068124 0
4.965000 -0.060161 0
4.970000 -0.049582 0
4.975000 -0.035865 0
4.980000 -0.018574 0
4.985000 0.002544 0
4.990000 0.027466 0
4.995000 0.055797 0
5.000000 0.086712 0
5.005000 0.118944 0
5.010000 0.150836 0
5.015000 0.180464 0
5.020000 0.205817 0
5.025000 0.225021 0
5.030000 0.236567 0
5.035000 0.239505 1
5.040000 0.233574 0
5.045000 0.219240 0
5.050000 0.197633 0
5.055000 0.170401 0
5.060000 0.139495 0
5.065000 0.106907 0
5.070000 0.074344 0
5.075000 0.042746 0
5.080000 0.011553 0
5.085000 -0.022055 0
5.090000 -0.062932 0
5.095000 -0.115077 0
5.100000 -0.175819 0
5.105000 -0.230335 0
5.110000 -0.251693 2
5.115000 -0.207573 0
5.120000 -0.069563 0
5.125000 0.175940 0
5.130000 0.510215 0
5.135000 0.863529 0
5.140000 1.122337 0
5.145000 1.181514 3
5.150000 1.011822 0
5.155000 0.679572 0
5.160000 0.299501 0
5.165000 -0.027893 0
5.170000 -0.248550 0
5.175000 -0.350895 0
5.180000 -0.351813 4
5.185000 -0.286071 0
5.190000 -0.194322 0
5.195000 -0.108456 0
5.200000 -0.042849 0
5.205000 0.003301 0
5.210000 0.037448 0
5.215000 0.066672 0
5.220000 0.095135 0
5.225000 0.124508 0
5.230000 0.155095 0
5.235000 0.186602 0
5.240000 0.218490 0
5.245000 0.250101 0
5.250000 0.280706 0
5.255000 0.309537 0
5.260000 0.335820 0
5.265000 0.358806 0
5.270000 0.377808 0
5.275000 0.392236 0
5.280000 0.401620 0
5.285000 0.405645 5
5.290000 0.404158 0
5.295000 0.397182 0
5.300000 0.384916 0
5.305000 0.367721 0
5.310000 0.346105 0
5.315000 0.320698 0
5.320000 0.292218 0
5.325000 0.261438 0
5.330000 0.229155 0
5.335000 0.196148 0
5.340000 0.163157 0
5.345000 0.130850 0
5.350000 0.099805 0
5.355000 0.070499 0
5.360000 0.043298 0
5.365000 0.018458 0
5.370000 -0.003869 0
5.375000 -0.023626 0
5.380000 -0.040842 0
5.385000 -0.055611 0
5.390000 -0.068082 0
5.395000 -0.078440 0
5.400000 -0.086896 0
5.405000 -0.093670 0
5.410000 -0.098983 0
5.415000 -0.103047 0
5.420000 -0.106061 0
5.425000 -0.108207 0
5.430000 -0.109646 0
5.435000 -0.109038 0
5.440000 -0.108087 0
5.445000 -0.107140 0
5.450000 -0.106199 0
5.455000 -0.105261 0
5.460000 -0.104328 0
5.465000 -0.103398 0
5.470000 -0.102470 0
5.475000 -0.101542 0
5.480000 -0.100608 0
5.485000 -0.099661 0
5.490000 -0.098684 0
5.495000 -0.097651 0
5.500000 -0.096521 0
5.505000 -0.095224 0
5.510000 -0.093659 0
5.515000 -0.091673 0
5.520000 -0.089055 0
5.525000 -0.085519 0
5.530000 -0.080698 0
5.535000 -0.074148 0
5.540000 -0.065365 0
5.545000 -0.053819 0
5.550000 -0.039013 0
5.555000 -0.020563 0
5.560000 0.001711 0
5.565000 0.027687 0
5.570000 0.056861 0
5.575000 0.088303 0
5.580000 0.120654 0
5.585000 0.152200 0
5.590000 0.181007 0
5.595000 0.205106 0
5.600000 0.222718 0
5.605000 0.232466 0
5.610000 0.233556 1
5.615000 0.225882 0
5.620000 0.210044 0
5.625000 0.187270 0
5.630000 0.159255 0
5.635000 0.127949 0
5.640000 0.095291 0
5.645000 0.062877 0
5.650000 0.031457 0
5.655000 0.000189 0
5.660000 -0.034044 0
5.665000 -0.076149 0
5.670000 -0.129606 0
5.675000 -0.190607 0
5.680000 -0.243108 0
5.685000 -0.259652 2
5.690000 -0.208371 0
5.695000 -0.062061 0
5.700000 0.190928 0
5.705000 0.529128 0
5.710000 0.880492 0
5.715000 1.131863 0
5.720000 1.181792 3
5.725000 1.004270 0
5.730000 0.667163 0
5.735000 0.287787 0
5.740000 -0.033821 0
5.745000 -0.245788 0
5.750000 -0.338889 4
5.755000 -0.332167 0
5.760000 -0.262111 0
5.765000 -0.169826 0
5.770000 -0.086043 0
5.775000 -0.023251 0
5.780000 0.020723 0
5.785000 0.053722 0
5.790000 0.082577 0
5.795000 0.111069 0
5.800000 0.140598 0
5.805000 0.171330 0
5.810000 0.202903 0
5.815000 0.234741 0
5.820000 0.266157 0
5.825000 0.296396 0
5.830000 0.324674 0
5.835000 0.350204 0
5.840000 0.372237 0
5.845000 0.390093 0
5.850000 0.403200 0
5.855000 0.411120 0
5.860000 0.413573 5
5.865000 0.410454 0
5.870000 0.401838 0
5.875000 0.387978 0
5.880000 0.369289 0
5.885000 0.346330 0
5.890000 0.319775 0
5.895000 0.290377 0
5.900000 0.258936 0
5.905000 0.226260 0
5.910000 0.193131 0
5.915000 0.160278 0
5.920000 0.128347 0
5.925000 0.097890 0
5.930000 0.069347 0
5.935000 0.043046 0
5.940000 0.019203 0
5.945000 -0.002070 0
5.950000 -0.020754 0
5.955000 -0.036909 0
5.960000 -0.050659 0
5.965000 -0.062173 0
5.970000 -0.071654 0
5.975000 -0.079322 0
5.980000 -0.085402 0
5.985000 -0.090116 0
5.990000 -0.093675 0
5.995000 -0.096271 0
6.000000 -0.098078 0
6.005000 -0.098949 0
6.010000 -0.098048 0
6.015000 -0.097151 0
6.020000 -0.096260 0
6.025000 -0.095372 0
6.030000 -0.094488 0
6.035000 -0.093608 0
6.040000 -0.092730 0
6.045000 -0.091853 0
6.050000 -0.090972 0
6.055000 -0.090081 0
6.060000 -0.089166 0
6.065000 -0.088207 0
6.070000 -0.087165 0
6.075000 -0.085982 0
6.080000 -0.084567 0
6.085000 -0.082783 0
6.090000 -0.080435 0
6.095000 -0.077256 0
6.100000 -0.072898 0
6.105000 -0.066932 0
6.110000 -0.058857 0
6.115000 -0.048137 0
6.120000 -0.034251 0
6.125000 -0.016769 0
6.130000 0.004552 0
6.135000 0.029669 0
6.140000 0.058166 0
6.145000 0.089190 0
6.150000 0.121447 0
6.155000 0.153258 0
6.160000 0.182683 0
6.165000 0.207709 0
6.170000 0.226475 0
6.175000 0.237497 0
6.180000 0.239863 1
6.185000 0.233360 0
6.190000 0.218499 0
6.195000 0.196454 0
6.200000 0.168904 0
6.205000 0.137814 0
6.210000 0.105175 0
6.215000 0.072660 0
6.220000 0.041130 0
6.225000 0.009883 0
6.230000 -0.024092 0
6.235000 -0.065733 0
6.240000 -0.118771 0
6.245000 -0.179741 0
6.250000 -0.232737 0
6.255000 -0.250029 2
6.260000 -0.199195 0
6.265000 -0.052511 0
6.270000 0.201751 0
6.275000 0.541127 0
6.280000 0.891124 0
6.285000 1.136048 0
6.290000 1.174738 3
6.295000 0.986000 0
6.300000 0.643341 0
6.305000 0.265008 0
6.310000 -0.051059 0
6.315000 -0.255732 0
6.320000 -0.341846 4
6.325000 -0.329883 0
6.330000 -0.257167 0
6.335000 -0.164678 0
6.340000 -0.082133 0
6.345000 -0.020833 0
6.350000 0.022094 0
6.355000 0.054604 0
6.360000 0.083346 0
6.365000 0.111895 0
6.370000 0.141529 0
6.375000 0.172351 0
6.380000 0.203976 0
6.385000 0.235814 0
6.390000 0.267168 0
6.395000 0.297280 0
6.400000 0.325360 0
6.405000 0.350620 0
6.410000 0.372315 0
6.415000 0.389771 0
6.420000 0.402425 0
6.425000 0.409850 0
6.430000 0.411782 5
6.435000 0.408134 0
6.440000 0.398997 0
6.445000 0.384642 0
6.450000 0.365501 0
6.455000 0.342149 0
6.460000 0.315269 0
6.465000 0.285624 0
6.470000 0.254019 0
6.475000 0.221264 0
6.480000 0.188138 0
6.485000 0.155363 0
6.490000 0.123581 0
6.495000 0.093329 0
6.500000 0.065038 0
6.505000 0.039023 0
6.510000 0.015488 0
6.515000 -0.005466 0
6.520000 -0.023832 0
6.525000 -0.039677 0
6.530000 -0.053131 0
6.535000 -0.064371 0
6.540000 -0.073603 0
6.545000 -0.081047 0
6.550000 -0.086931 0
6.555000 -0.091476 0
6.560000 -0.094890 0
6.565000 -0.097365 0
6.570000 -0.099072 0
6.575000 -0.099873 0
6.580000 -0.098967 0
6.585000 -0.098066 0
6.590000 -0.097170 0
6.595000 -0.096277 0
6.600000 -0.095389 0
6.605000 -0.094504 0
6.610000 -0.093622 0
6.615000 -0.092739 0
6.620000 -0.091852 0
6.625000 -0.090953 0
6.630000 -0.090028 0
6.635000 -0.089054 0
6.640000 -0.087989 0
6.645000 -0.086771 0
6.650000 -0.085302 0
6.655000 -0.083436 0
6.660000 -0.080967 0
6.665000 -0.077613 0
6.670000 -0.073013 0
6.675000 -0.066722 0
6.680000 -0.058229 0
6.685000 -0.046995 0
6.690000 -0.032506 0
6.695000 -0.014357 0
6.700000 0.007652 0
6.705000 0.033419 0
6.710000 0.062451 0
6.715000 0.093812 0
6.720000 0.126129 0
6.725000 0.157658 0
6.730000 0.186423 0
6.735000 0.210417 0
6.740000 0.227827 0
6.745000 0.237260 0
6.750000 0.237927 1
6.755000 0.229754 0
6.760000 0.213391 0
6.765000 0.190127 0
6.770000 0.161723 0
6.775000 0.130177 0
6.780000 0.097451 0
6.785000 0.065110 0
6.790000 0.033767 0
6.795000 0.002292 0
6.800000 -0.032830 0
6.805000 -0.076672 0
6.810000 -0.132019 0
6.815000 -0.193082 0
6.820000 -0.241094 0
6.825000 -0.246493 2
6.830000 -0.176971 0
6.835000 -0.007059 0
6.840000 0.269366 0
6.845000 0.619403 0
6.850000 0.956698 0
6.855000 1.162358 3
6.860000 1.148488 0
6.865000 0.917026 0
6.870000 0.556584 0
6.875000 0.184709 0
6.880000 -0.110889 0
6.885000 -0.291269 0
6.890000 -0.355849 4
6.895000 -0.329012 0
6.900000 -0.249598 0
6.905000 -0.157168 0
6.910000 -0.078024 0
6.915000 -0.020310 0
6.920000 0.020337 0
6.925000 0.051897 0
6.930000 0.080479 0
6.935000 0.109189 0
6.940000 0.139044 0
6.945000 0.170047 0
6.950000 0.201773 0
6.955000 0.233621 0
6.960000 0.264890 0
6.965000 0.294822 0
6.970000 0.322633 0
6.975000 0.347548 0
6.980000 0.368833 0
6.985000 0.385832 0
6.990000 0.397999 0
6.995000 0.404929 0
7.000000 0.406375 5
7.005000 0.402268 0
7.010000 0.392714 0
7.015000 0.377995 0
7.020000 0.358552 0
7.025000 0.334961 0
7.030000 0.307909 0
7.035000 0.278154 0
7.040000 0.246495 0
7.045000 0.213732 0
7.050000 0.180637 0
7.055000 0.147921 0
7.060000 0.116215 0
7.065000 0.086050 0
7.070000 0.057847 0
7.075000 0.031916 0
7.080000 0.008457 0
7.085000 -0.012432 0
7.090000 -0.030745 0
7.095000 -0.046549 0
7.100000 -0.059975 0
7.105000 -0.071195 0
7.110000 -0.080413 0
7.115000 -0.087850 0
7.120000 -0.093730 0
7.125000 -0.098272 0
7.130000 -0.101683 0
7.135000 -0.104154 0
7.140000 -0.105854 0
7.145000 -0.106641 0
7.150000 -0.105702 0
7.155000 -0.104768 0
7.160000 -0.103838 0
7.165000 -0.102912 0
7.170000 -0.101991 0
7.175000 -0.101073 0
7.180000 -0.100158 0
7.185000 -0.099243 0
7.190000 -0.098325 0
7.195000 -0.097396 0
7.200000 -0.096442 0
7.205000 -0.095443 0
7.210000 -0.094359 0
7.215000 -0.093131 0
7.220000 -0.091666 0
7.225000 -0.089827 0
7.230000 -0.087416 0
7.235000 -0.084165 0
7.240000 -0.079726 0
7.245000 -0.073669 0
7.250000 -0.065496 0
7.255000 -0.054673 0
7.260000 -0.040683 0
7.265000 -0.023103 0
7.270000 -0.001695 0
7.275000 0.023494 0
7.280000 0.052046 0
7.285000 0.083109 0
7.290000 0.115398 0
7.295000 0.147243 0
7.300000 0.176715 0
7.305000 0.201816 0
7.310000 0.220693 0
7.315000 0.231866 0
7.320000 0.234421 1
7.325000 0.228130 0
7.330000 0.213490 0
7.335000 0.191650 0
7.340000 0.164269 0
7.345000 0.133294 0
7.350000 0.100708 0
7.355000 0.068192 0
7.360000 0.036649 0
7.365000 0.005467 0
7.370000 -0.028231 0
7.375000 -0.069304 0
7.380000 -0.121661 0
7.385000 -0.182440 0
7.390000 -0.236635 0
7.395000 -0.257268 2
7.400000 -0.212144 0
7.405000 -0.073072 0
7.410000 0.173283 0
7.415000 0.507950 0
7.420000 0.861184 0
7.425000 1.119802 0
7.430000 1.179155 3
7.435000 1.009080 0
7.440000 0.675296 0
7.445000 0.295607 0
7.450000 -0.028047 0
7.455000 -0.242216 0
7.460000 -0.336927 4
7.465000 -0.331050 0
7.470000 -0.261252 0
7.475000 -0.168990 0
7.480000 -0.085265 0
7.485000 -0.022629 0
7.490000 0.021176 0
7.495000 0.054068 0
7.500000 0.082891 0
7.505000 0.111400 0
7.510000 0.140968 0
7.515000 0.171738 0
7.520000 0.203335 0
7.525000 0.235174 0
7.530000 0.266557 0
7.535000 0.296723 0
7.540000 0.324879 0
7.545000 0.350232 0
7.550000 0.372030 0
7.555000 0.389593 0
7.560000 0.402353 0
7.565000 0.409877 0
7.570000 0.411896 5
7.575000 0.408320 0
7.580000 0.399238 0
7.585000 0.384920 0
7.590000 0.365800 0
7.595000 0.342454 0
7.600000 0.315570 0
7.605000 0.285915 0
7.610000 0.254299 0
7.615000 0.221534 0
7.620000 0.188405 0
7.625000 0.155637 0
7.630000 0.123872 0
7.635000 0.093651 0
7.640000 0.065404 0
7.645000 0.039445 0
7.650000 0.015976 0
7.655000 -0.004904 0
7.660000 -0.023189 0
7.665000 -0.038951 0
7.670000 -0.052322 0
7.675000 -0.063480 0
7.680000 -0.072634 0
7.685000 -0.080006 0
7.690000 -0.085824 0
7.695000 -0.090311 0
7.700000 -0.093675 0
7.705000 -0.096108 0
7.710000 -0.097781 0
7.715000 -0.098558 0
7.720000 -0.097659 0
7.725000 -0.096765 0
7.730000 -0.095875 0
7.735000 -0.094989 0
7.740000 -0.094107 0
7.745000 -0.093228 0
7.750000 -0.092352 0
7.755000 -0.091475 0
7.760000 -0.090593 0
7.765000 -0.089699 0
7.770000 -0.088776 0
7.775000 -0.087800 0
7.780000 -0.086730 0
7.785000 -0.085497 0
7.790000 -0.084000 0
7.795000 -0.082085 0
7.800000 -0.079539 0
7.805000 -0.076070 0
7.810000 -0.071303 0
7.815000 -0.064783 0
7.820000 -0.055992 0
7.825000 -0.044385 0
7.830000 -0.029455 0
7.835000 -0.010816 0
7.840000 0.011700 0
7.845000 0.037943 0
7.850000 0.067358 0
7.855000 0.098943 0
7.860000 0.131258 0
7.865000 0.162507 0
7.870000 0.190685 0
7.875000 0.213788 0
7.880000 0.230042 0
7.885000 0.238131 1
7.890000 0.237371 0
7.895000 0.227803 0
7.900000 0.210194 0
7.905000 0.185933 0
7.910000 0.156846 0
7.915000 0.124959 0
7.920000 0.092204 0
7.925000 0.060031 0
7.930000 0.028810 0
7.935000 -0.003007 0
7.940000 -0.039376 0
7.945000 -0.085365 0
7.950000 -0.142639 0
7.955000 -0.203045 0
7.960000 -0.245181 2
7.965000 -0.238036 0
7.970000 -0.149723 0
7.975000 0.042629 0
7.980000 0.338869 0
7.985000 0.695145 0
7.990000 1.014285 0
7.995000 1.177156 3
8.000000 1.112040 0
8.005000 0.843515 0
8.010000 0.471309 0
8.015000 0.109408 0
8.020000 -0.165017 0
8.025000 -0.322164 0
8.030000 -0.367107 4
8.035000 -0.327497 0
8.040000 -0.243058 0
8.045000 -0.151494 0
8.050000 -0.075757 0
8.055000 -0.021247 0
8.060000 0.017501 0
8.065000 0.048334 0
8.070000 0.076843 0
8.075000 0.105722 0
8.080000 0.135784 0
8.085000 0.166946 0
8.090000 0.198759 0
8.095000 0.230610 0
8.100000 0.261798 0
8.105000 0.291569 0
8.110000 0.319146 0
8.115000 0.343764 0
8.120000 0.364703 0
8.125000 0.381323 0
8.130000 0.393095 0
8.135000 0.399631 0
8.140000 0.400700 5
8.145000 0.396246 0
8.150000 0.386386 0
8.155000 0.371410 0
8.160000 0.351763 0
8.165000 0.328023 0
8.170000 0.300871 0
8.175000 0.271062 0
8.180000 0.239386 0
8.185000 0.206635 0
8.190000 0.173573 0
8.195000 0.140901 0
8.200000 0.109242 0
8.205000 0.079120 0
8.210000 0.050952 0
8.215000 0.025044 0
8.220000 0.001595 0
8.225000 -0.019299 0
8.230000 -0.037628 0
8.235000 -0.053459 0
8.240000 -0.066919 0
8.245000 -0.078178 0
8.250000 -0.087438 0
8.255000 -0.094916 0
8.260000 -0.100834 0
8.265000 -0.105409 0
8.270000 -0.108848 0
8.275000 -0.111339 0
8.280000 -0.113054 0
8.285000 -0.113841 0
8.290000 -0.112866 0
8.295000 -0.111896 0
8.300000 -0.110930 0
8.305000 -0.109970 0
8.310000 -0.109013 0
8.315000 -0.108061 0
8.320000 -0.107111 0
8.325000 -0.106162 0
8.330000 -0.105211 0
8.335000 -0.104250 0
8.340000 -0.103267 0
8.345000 -0.102242 0
8.350000 -0.101141 0
8.355000 -0.099907 0
8.360000 -0.098454 0
8.365000 -0.096654 0
8.370000 -0.094322 0
8.375000 -0.091206 0
8.380000 -0.086974 0
8.385000 -0.081215 0
8.390000 -0.073447 0
8.395000 -0.063144 0
8.400000 -0.049786 0
8.405000 -0.032930 0
8.410000 -0.012295 0
8.415000 0.012140 0
8.420000 0.040043 0
8.425000 0.070669 0
8.430000 0.102840 0
8.435000 0.134979 0
8.440000 0.165226 0
8.445000 0.191598 0
8.450000 0.212206 0
8.455000 0.225474 0
8.460000 0.230340 1
8.465000 0.226395 0
8.470000 0.213943 0
8.475000 0.193959 0
8.480000 0.167964 0
8.485000 0.137832 0
8.490000 0.105543 0
8.495000 0.072889 0
8.500000 0.041057 0
8.505000 0.009981 0
8.510000 -0.022448 0
8.515000 -0.060591 0
8.520000 -0.109136 0
8.525000 -0.168128 0
8.530000 -0.226982 0
8.535000 -0.262458 2
8.540000 -0.243435 0
8.545000 -0.139594 0
8.550000 0.068928 0
8.555000 0.377100 0
8.560000 0.735119 0
8.565000 1.042887 0
8.570000 1.185471 3
8.575000 1.099098 0
8.580000 0.814846 0
8.585000 0.438619 0
8.590000 0.083971 0
8.595000 -0.176475 0
8.600000 -0.317695 0
8.605000 -0.348533 4
8.610000 -0.299555 0
8.615000 -0.211815 0
8.620000 -0.121912 0
8.625000 -0.050045 0
8.630000 0.000891 0
8.635000 0.037463 0
8.640000 0.067414 0
8.645000 0.095795 0
8.650000 0.124844 0
8.655000 0.155120 0
8.660000 0.186424 0
8.665000 0.218248 0
8.670000 0.249943 0
8.675000 0.280779 0
8.680000 0.309979 0
8.685000 0.336755 0
8.690000 0.360336 0
8.695000 0.380011 0
8.700000 0.395158 0
8.705000 0.405281 0
8.710000 0.410032 5
8.715000 0.409232 0
8.720000 0.402883 0
8.725000 0.391164 0
8.730000 0.374426 0
8.735000 0.353171 0
8.740000 0.328030 0
8.745000 0.299727 0
8.750000 0.269048 0
8.755000 0.236800 0
8.760000 0.203782 0
8.765000 0.170746 0
8.770000 0.138377 0
8.775000 0.107266 0
8.780000 0.077901 0
8.785000 0.050656 0
8.790000 0.025793 0
8.795000 0.003465 0
8.800000 -0.016271 0
8.805000 -0.033446 0
8.810000 -0.048157 0
8.815000 -0.060557 0
8.820000 -0.070838 0
8.825000 -0.079213 0
8.830000 -0.085908 0
8.835000 -0.091146 0
8.840000 -0.095144 0
8.845000 -0.098101 0
8.850000 -0.100201 0
8.855000 -0.101604 0
8.860000 -0.101025 0
8.865000 -0.100114 0
8.870000 -0.099207 0
8.875000 -0.098305 0
8.880000 -0.097407 0
8.885000 -0.096512 0
8.890000 -0.095621 0
8.895000 -0.094731 0
8.900000 -0.093840 0
8.905000 -0.092942 0
8.910000 -0.092027 0
8.915000 -0.091077 0
8.920000 -0.090062 0
8.925000 -0.088934 0
8.930000 -0.087617 0
8.935000 -0.085993 0
8.940000 -0.083894 0
8.945000 -0.081084 0
8.950000 -0.077249 0
8.955000 -0.071993 0
8.960000 -0.064842 0
8.965000 -0.055269 0
8.970000 -0.042739 0
8.975000 -0.026774 0
8.980000 -0.007042 0
8.985000 0.016545 0
8.990000 0.043734 0
8.995000 0.073856 0
9.000000 0.105799 0
9.005000 0.138030 0
9.010000 0.168697 0
9.015000 0.195793 0
9.020000 0.217364 0
9.025000 0.231745 0
9.030000 0.237768 1
9.035000 0.234921 0
9.040000 0.223419 0
9.045000 0.204175 0
9.050000 0.178684 0
9.055000 0.148822 0
9.060000 0.116604 0
9.065000 0.083883 0
9.070000 0.051933 0
9.075000 0.020802 0
9.080000 -0.011513 0
9.085000 -0.049341 0
9.090000 -0.097513 0
9.095000 -0.156342 0
9.100000 -0.215416 0
9.105000 -0.251331 2
9.110000 -0.232496 0
9.115000 -0.128084 0
9.120000 0.081979 0
9.125000 0.392007 0
9.130000 0.750098 0
9.135000 1.053248 0
9.140000 1.185477 3
9.145000 1.088001 0
9.150000 0.797701 0
9.155000 0.420501 0
9.160000 0.067425 0
9.165000 -0.191257 0
9.170000 -0.331588 0
9.175000 -0.362475 4
9.180000 -0.313982 0
9.185000 -0.226489 0
9.190000 -0.136225 0
9.195000 -0.063545 0
9.200000 -0.011764 0
9.205000 0.025386 0
9.210000 0.055604 0
9.215000 0.084042 0
9.220000 0.113055 0
9.225000 0.143275 0
9.230000 0.174548 0
9.235000 0.206390 0
9.240000 0.238176 0
9.245000 0.269193 0
9.250000 0.298682 0
9.255000 0.325866 0
9.260000 0.349983 0
9.265000 0.370323 0
9.270000 0.386260 0
9.275000 0.397284 0
9.280000 0.403027 0
9.285000 0.403284 5
9.290000 0.398023 0
9.295000 0.387388 0
9.300000 0.371691 0
9.305000 0.351399 0
9.310000 0.327105 0
9.315000 0.299506 0
9.320000 0.269363 0
9.325000 0.237468 0
9.330000 0.204612 0
9.335000 0.171550 0
9.340000 0.138975 0
9.345000 0.107496 0
9.350000 0.077622 0
9.355000 0.049754 0
9.360000 0.024182 0
9.365000 0.001088 0
9.370000 -0.019442 0
9.375000 -0.037413 0
9.380000 -0.052901 0
9.385000 -0.066040 0
9.390000 -0.077006 0
9.395000 -0.086004 0
9.400000 -0.093252 0
9.405000 -0.098972 0
9.410000 -0.103380 0
9.415000 -0.106681 0
9.420000 -0.109061 0
9.425000 -0.110687 0
9.430000 -0.111417 0
9.435000 -0.110455 0
9.440000 -0.109496 0
9.445000 -0.108543 0
9.450000 -0.107594 0
9.455000 -0.106649 0
9.460000 -0.105708 0
9.465000 -0.104770 0
9.470000 -0.103832 0
9.475000 -0.102890 0
9.480000 -0.101938 0
9.485000 -0.100962 0
9.490000 -0.099939 0
9.495000 -0.098832 0
9.500000 -0.097583 0
9.505000 -0.096098 0
9.510000 -0.094242 0
9.515000 -0.091821 0
9.520000 -0.088572 0
9.525000 -0.084149 0
9.530000 -0.078132 0
9.535000 -0.070027 0
9.540000 -0.059308 0
9.545000 -0.045460 0
9.550000 -0.028058 0
9.555000 -0.006855 0
9.560000 0.018123 0
9.565000 0.046485 0
9.570000 0.077421 0
9.575000 0.109686 0
9.580000 0.141654 0
9.585000 0.171433 0
9.590000 0.197040 0
9.595000 0.216617 0
9.600000 0.228655 0
9.605000 0.232184 1
9.610000 0.226902 0
9.615000 0.213218 0
9.620000 0.192202 0
9.625000 0.165443 0
9.630000 0.134846 0
9.635000 0.102386 0
9.640000 0.069793 0
9.645000 0.038114 0
9.650000 0.007019 0
9.655000 -0.025966 0
9.660000 -0.065449 0
9.665000 -0.115802 0
9.670000 -0.175793 0
9.675000 -0.232864 0
9.680000 -0.262096 2
9.685000 -0.231888 0
9.690000 -0.112851 0
9.695000 0.112199 0
9.700000 0.432625 0
9.705000 0.790438 0
9.710000 1.079746 0
9.715000 1.189066 3
9.720000 1.067878 0
9.725000 0.762244 0
9.730000 0.382721 0
9.735000 0.038064 0
9.740000 -0.206742 0
9.745000 -0.332351 0
9.750000 -0.350962 4
9.755000 -0.294908 0
9.760000 -0.205208 0
9.765000 -0.116680 0
9.770000 -0.047210 0
9.775000 0.001835 0
9.780000 0.037426 0
9.785000 0.067069 0
9.790000 0.095467 0
9.795000 0.124632 0
9.800000 0.155022 0
9.805000 0.186402 0
9.810000 0.218252 0
9.815000 0.249922 0
9.820000 0.280684 0
9.825000 0.309766 0
9.830000 0.336385 0
9.835000 0.359780 0
9.840000 0.379251 0
9.845000 0.394186 0
9.850000 0.404100 0
9.855000 0.408654 5
9.860000 0.407678 0
9.865000 0.401179 0
9.870000 0.389340 0
9.875000 0.372514 0
9.880000 0.351201 0
9.885000 0.326028 0
9.890000 0.297714 0
9.895000 0.267038 0
9.900000 0.234802 0
9.905000 0.201796 0
9.910000 0.168769 0
9.915000 0.136397 0
9.920000 0.105271 0
9.925000 0.075875 0
9.930000 0.048582 0
9.935000 0.023655 0
9.940000 0.001251 0
9.945000 -0.018574 0
9.950000 -0.035845 0
9.955000 -0.050656 0
9.960000 -0.063158 0
9.965000 -0.073538 0
9.970000 -0.082008 0
9.975000 -0.088790 0
9.980000 -0.094106 0
9.985000 -0.098172 0
9.990000 -0.101188 0
9.995000 -0.103336 0
10.000000 -0.104777 0
10.005000 -0.104190 0
10.010000 -0.103264 0
10.015000 -0.102341 0
10.020000 -0.101423 0
10.025000 -0.100510 0
10.030000 -0.099600 0
10.035000 -0.098694 0
10.040000 -0.097789 0
10.045000 -0.096883 0
10.050000 -0.095972 0
10.055000 -0.095045 0
10.060000 -0.094087 0
10.065000 -0.093070 0
10.070000 -0.091949 0
10.075000 -0.090652 0
10.080000 -0.089072 0
10.085000 -0.087049 0
10.090000 -0.084361 0
10.095000 -0.080711 0
10.100000 -0.075719 0
10.105000 -0.068928 0
10.110000 -0.059822 0
10.115000 -0.047868 0
10.120000 -0.032574 0
10.125000 -0.013578 0
10.130000 0.009263 0
10.135000 0.035772 0
10.140000 0.065374 0
10.145000 0.097056 0
10.150000 0.129382 0
10.155000 0.160572 0
10.160000 0.188653 0
10.165000 0.211655 0
10.170000 0.227843 0
10.175000 0.235927 1
10.180000 0.235236 0
10.185000 0.225808 0
10.190000 0.208385 0
10.195000 0.184322 0
10.200000 0.155405 0
10.205000 0.123621 0
10.210000 0.090884 0
10.215000 0.058663 0
10.220000 0.027415 0
10.225000 -0.004211 0
10.230000 -0.039922 0
10.235000 -0.084741 0
10.240000 -0.140937 0
10.245000 -0.201820 0
10.250000 -0.247823 0
10.255000 -0.249216 2
10.260000 -0.174200 0
10.265000 0.001668 0
10.270000 0.282912 0
10.275000 0.634611 0
10.280000 0.969207 0
10.285000 1.168914 3
10.290000 1.148357 0
10.295000 0.911700 0
10.300000 0.549332 0
10.305000 0.178619 0
10.310000 -0.114055 0
10.315000 -0.291043 0
10.320000 -0.352629 4
10.325000 -0.323751 0
10.330000 -0.243479 0
10.335000 -0.151166 0
10.340000 -0.072612 0
10.345000 -0.015493 0
10.350000 0.024772 0
10.355000 0.056161 0
10.360000 0.084701 0
10.365000 0.113418 0
10.370000 0.143292 0
10.375000 0.174305 0
10.380000 0.206027 0
10.385000 0.237851 0
10.390000 0.269076 0
10.395000 0.298943 0
10.400000 0.326667 0
10.405000 0.351474 0
10.410000 0.372631 0
10.415000 0.389484 0
10.420000 0.401493 0
10.425000 0.408256 0
10.430000 0.409531 5
10.435000 0.405253 0
10.440000 0.395534 0
10.445000 0.380661 0
10.450000 0.361077 0
10.455000 0.337365 0
10.460000 0.310211 0
10.465000 0.280377 0
10.470000 0.248661 0
10.475000 0.215863 0
10.480000 0.182754 0
10.485000 0.150043 0
10.490000 0.118358 0
10.495000 0.088227 0
10.500000 0.060069 0
10.505000 0.034190 0
10.510000 0.010787 0
10.515000 -0.010046 0
10.520000 -0.028302 0
10.525000 -0.044053 0
10.530000 -0.057429 0
10.535000 -0.068605 0
10.540000 -0.077786 0
10.545000 -0.085191 0
10.550000 -0.091045 0
10.555000 -0.095566 0
10.560000 -0.098963 0
10.565000 -0.101424 0
10.570000 -0.103120 0
10.575000 -0.103907 0
10.580000 -0.102982 0
10.585000 -0.102061 0
10.590000 -0.101145 0
10.595000 -0.100232 0
10.600000 -0.099324 0
10.605000 -0.098420 0
10.610000 -0.097518 0
10.615000 -0.096616 0
10.620000 -0.095711 0
10.625000 -0.094794 0
10.630000 -0.093853 0
10.635000 -0.092864 0
10.640000 -0.091790 0
10.645000 -0.090570 0
10.650000 -0.089109 0
10.655000 -0.087269 0
10.660000 -0.084852 0
10.665000 -0.081586 0
10.670000 -0.077121 0
10.675000 -0.071026 0
10.680000 -0.062799 0
10.685000 -0.051908 0
10.690000 -0.037837 0
10.695000 -0.020167 0
10.700000 0.001335 0
10.705000 0.026612 0
10.710000 0.055233 0
10.715000 0.086338 0
10.720000 0.118626 0
10.725000 0.150420 0
10.730000 0.179789 0
10.735000 0.204732 0
10.740000 0.223404 0
10.745000 0.234340 0
10.750000 0.236643 1
10.755000 0.230105 0
10.760000 0.215239 0
10.765000 0.193214 0
10.770000 0.165697 0
10.775000 0.134642 0
10.780000 0.102026 0
10.785000 0.069519 0
10.790000 0.037992 0
10.795000 0.006780 0
10.800000 -0.027060 0
10.805000 -0.068413 0
10.810000 -0.121092 0
10.815000 -0.181962 0
10.820000 -0.235658 0
10.825000 -0.254951 2
10.830000 -0.207631 0
10.835000 -0.065748 0
10.840000 0.183423 0
10.845000 0.519747 0
10.850000 0.872018 0
10.855000 1.126424 0
10.860000 1.179540 3
10.865000 1.004666 0
10.870000 0.669475 0
10.875000 0.289749 0
10.880000 -0.034634 0
10.885000 -0.250939 0
10.890000 -0.348799 4
10.895000 -0.346094 0
10.900000 -0.278320 0
10.905000 -0.186270 0
10.910000 -0.101274 0
10.915000 -0.036866 0
10.920000 0.008359 0
10.925000 0.042022 0
10.930000 0.071093 0
10.935000 0.099573 0
10.940000 0.129019 0
10.945000 0.159674 0
10.950000 0.191219 0
10.955000 0.223100 0
10.960000 0.254647 0
10.965000 0.285123 0
10.970000 0.313753 0
10.975000 0.339761 0
10.980000 0.362396 0
10.985000 0.380975 0
10.990000 0.394915 0
10.995000 0.403759 0
11.000000 0.407203 5
11.005000 0.405113 0
11.010000 0.397532 0
11.015000 0.384677 0
11.020000 0.366931 0
11.025000 0.344820 0
11.030000 0.318988 0
11.035000 0.290168 0
11.040000 0.259142 0
11.045000 0.226710 0
11.050000 0.193655 0
11.055000 0.160710 0
11.060000 0.128537 0
11.065000 0.097703 0
11.070000 0.068673 0
11.075000 0.041798 0
11.080000 0.017321 0
11.085000 -0.004622 0
11.090000 -0.023987 0
11.095000 -0.040814 0
11.100000 -0.055209 0
11.105000 -0.067327 0
11.110000 -0.077361 0
11.115000 -0.085524 0
11.120000 -0.092039 0
11.125000 -0.097126 0
11.130000 -0.100999 0
11.135000 -0.103854 0
11.140000 -0.105869 0
11.145000 -0.107202 0
11.150000 -0.106589 0
11.155000 -0.105650 0
11.160000 -0.104716 0
11.165000 -0.103786 0
11.170000 -0.102861 0
11.175000 -0.101939 0
11.180000 -0.101021 0
11.185000 -0.100104 0
11.190000 -0.099186 0
11.195000 -0.098261 0
11.200000 -0.097319 0
11.205000 -0.096343 0
11.210000 -0.095303 0
11.215000 -0.094152 0
11.220000 -0.092813 0
11.225000 -0.091174 0
11.230000 -0.089069 0
11.235000 -0.086266 0
11.240000 -0.082461 0
11.245000 -0.077263 0
11.250000 -0.070209 0
11.255000 -0.060780 0
11.260000 -0.048446 0
11.265000 -0.032728 0
11.270000 -0.013283 0
11.275000 0.009997 0
11.280000 0.036895 0
11.285000 0.066792 0
11.290000 0.098629 0
11.295000 0.130934 0
11.300000 0.161902 0
11.305000 0.189559 0
11.310000 0.211954 0
11.315000 0.227394 0
11.320000 0.234647 1
11.325000 0.233112 0
11.330000 0.222895 0
11.335000 0.204799 0
11.340000 0.180223 0
11.345000 0.150975 0
11.350000 0.119044 0
11.355000 0.086312 0
11.360000 0.054184 0
11.365000 0.022996 0
11.370000 -0.008782 0
11.375000 -0.045025 0
11.380000 -0.090713 0
11.385000 -0.147645 0
11.390000 -0.208245 0
11.395000 -0.252075 2
11.400000 -0.249039 0
11.405000 -0.167648 0
11.410000 0.015565 0
11.415000 0.303122 0
11.420000 0.656923 0
11.425000 0.986557 0
11.430000 1.174530 3
11.435000 1.138932 0
11.440000 0.890026 0
11.445000 0.523175 0
11.450000 0.156140 0
11.455000 -0.127639 0
11.460000 -0.293928 0
11.465000 -0.345683 4
11.470000 -0.309892 0
11.475000 -0.226720 0
11.480000 -0.135031 0
11.485000 -0.058879 0
11.490000 -0.004179 0
11.495000 0.034534 0
11.500000 0.065258 0
11.505000 0.093679 0
11.510000 0.122505 0
11.515000 0.152534 0
11.520000 0.183663 0
11.525000 0.215420 0
11.530000 0.247177 0
11.535000 0.278211 0
11.540000 0.307749 0
11.545000 0.335000 0
11.550000 0.359185 0
11.555000 0.379576 0
11.560000 0.395532 0
11.565000 0.406530 0
11.570000 0.412195 0
11.575000 0.412317 5
11.580000 0.406867 0
11.585000 0.395996 0
11.590000 0.380028 0
11.595000 0.359445 0
11.600000 0.334861 0
11.605000 0.306990 0
11.610000 0.276613 0
11.615000 0.244540 0
11.620000 0.211574 0
11.625000 0.178482 0
11.630000 0.145960 0
11.635000 0.114618 0
11.640000 0.084960 0
11.645000 0.057380 0
11.650000 0.032154 0
11.655000 0.009454 0
11.660000 -0.010653 0
11.665000 -0.028185 0
11.670000 -0.043233 0
11.675000 -0.055943 0
11.680000 -0.066503 0
11.685000 -0.075126 0
11.690000 -0.082036 0
11.695000 -0.087460 0
11.700000 -0.091614 0
11.705000 -0.094703 0
11.710000 -0.096911 0
11.715000 -0.098404 0
11.720000 -0.097852 0
11.725000 -0.096956 0
11.730000 -0.096065 0
11.735000 -0.095179 0
11.740000 -0.094296 0
11.745000 -0.093418 0
11.750000 -0.092542 0
11.755000 -0.091668 0
11.760000 -0.090793 0
11.765000 -0.089911 0
11.770000 -0.089014 0
11.775000 -0.088084 0
11.780000 -0.087092 0
11.785000 -0.085993 0
11.790000 -0.084712 0
11.795000 -0.083137 0
11.800000 -0.081102 0
11.805000 -0.078379 0
11.810000 -0.074659 0
11.815000 -0.069550 0
11.820000 -0.062584 0
11.825000 -0.053234 0
11.830000 -0.040962 0
11.835000 -0.025281 0
11.840000 -0.005844 0
11.845000 0.017460 0
11.850000 0.044402 0
11.855000 0.074343 0
11.860000 0.106196 0
11.865000 0.138449 0
11.870000 0.169259 0
11.875000 0.196615 0
11.880000 0.218548 0
11.885000 0.233362 0
11.890000 0.239853 1
11.895000 0.237468 0
11.900000 0.226383 0
11.905000 0.207482 0
11.910000 0.182237 0
11.915000 0.152521 0
11.920000 0.120355 0
11.925000 0.087612 0
11.930000 0.055606 0
11.935000 0.024452 0
11.940000 -0.007766 0
11.945000 -0.045323 0
11.950000 -0.093113 0
11.955000 -0.151706 0
11.960000 -0.211064 0
11.965000 -0.248054 2
11.970000 -0.231092 0
11.975000 -0.129101 0
11.980000 0.078468 0
11.985000 0.386720 0
11.990000 0.744700 0
11.995000 1.049836 0
12.000000 1.185422 3
12.005000 1.090816 0
12.010000 0.801822 0
12.015000 0.424778 0
12.020000 0.071645 0
12.025000 -0.186716 0
12.030000 -0.326266 0
12.035000 -0.356148 4
12.040000 -0.306826 0
12.045000 -0.219029 0
12.050000 -0.129039 0
12.055000 -0.056956 0
12.060000 -0.005755 0
12.065000 0.031020 0
12.070000 0.061076 0
12.075000 0.089486 0
12.080000 0.118528 0
12.085000 0.148789 0
12.090000 0.180086 0
12.095000 0.211925 0
12.100000 0.243666 0
12.105000 0.274590 0
12.110000 0.303927 0
12.115000 0.330896 0
12.120000 0.354732 0
12.125000 0.374723 0
12.130000 0.390247 0
12.135000 0.400801 0
12.140000 0.406028 5
12.145000 0.405738 0
12.150000 0.399915 0
12.155000 0.388721 0
12.160000 0.372489 0
12.165000 0.351702 0
12.170000 0.326974 0
12.175000 0.299014 0
12.180000 0.268596 0
12.185000 0.236519 0
12.190000 0.203577 0
12.195000 0.170526 0
12.200000 0.138052 0
12.205000 0.106755 0
12.210000 0.077135 0
12.215000 0.049579 0
12.220000 0.024361 0
12.225000 0.001652 0
12.230000 -0.018481 0
12.235000 -0.036052 0
12.240000 -0.051149 0
12.245000 -0.063917 0
12.250000 -0.074538 0
12.255000 -0.083222 0
12.260000 -0.090190 0
12.265000 -0.095666 0
12.270000 -0.099865 0
12.275000 -0.102991 0
12.280000 -0.105227 0
12.285000 -0.106738 0
12.290000 -0.106154 0
12.295000 -0.105217 0
12.300000 -0.104285 0
12.305000 -0.103357 0
12.310000 -0.102434 0
12.315000 -0.101515 0
12.320000 -0.100599 0
12.325000 -0.099686 0
12.330000 -0.098771 0
12.335000 -0.097852 0
12.340000 -0.096919 0
12.345000 -0.095958 0
12.350000 -0.094941 0
12.355000 -0.093828 0
12.360000 -0.092550 0
12.365000 -0.091005 0
12.370000 -0.089040 0
12.375000 -0.086444 0
12.380000 -0.082927 0
12.385000 -0.078121 0
12.390000 -0.071579 0
12.395000 -0.062790 0
12.400000 -0.051221 0
12.405000 -0.036370 0
12.410000 -0.017853 0
12.415000 0.004505 0
12.420000 0.030575 0
12.425000 0.059835 0
12.430000 0.091330 0
12.435000 0.123675 0
12.440000 0.155127 0
12.445000 0.183729 0
12.450000 0.207500 0
12.455000 0.224659 0
12.460000 0.233852 0
12.465000 0.234318 1
12.470000 0.226001 0
12.475000 0.209559 0
12.480000 0.186272 0
12.485000 0.157882 0
12.490000 0.126365 0
12.495000 0.093663 0
12.500000 0.061328 0
12.505000 0.029989 0
12.510000 -0.001420 0
12.515000 -0.036306 0
12.520000 -0.079678 0
12.525000 -0.134504 0
12.530000 -0.195598 0
12.535000 -0.245093 0
12.540000 -0.254204 2
12.545000 -0.190884 0
12.550000 -0.029145 0
12.555000 0.239149 0
12.560000 0.585455 0
12.565000 0.928925 0
12.570000 1.152799 0
12.575000 1.163520 3
12.580000 0.951065 0
12.585000 0.597705 0
12.590000 0.222654 0
12.595000 -0.081209 0
12.600000 -0.270604 0
12.605000 -0.342555 4
12.610000 -0.320366 0
12.615000 -0.242820 0
12.620000 -0.150339 0
12.625000 -0.070423 0
12.630000 -0.012035 0
12.635000 0.028942 0
12.640000 0.060579 0
12.645000 0.089134 0
12.650000 0.117791 0
12.655000 0.147601 0
12.660000 0.178565 0
12.665000 0.210256 0
12.670000 0.242060 0
12.675000 0.273267 0
12.680000 0.303108 0
12.685000 0.330789 0
12.690000 0.355524 0
12.695000 0.376573 0
12.700000 0.393277 0
12.705000 0.405089 0
12.710000 0.411607 0
12.715000 0.412596 5
12.720000 0.407997 0
12.725000 0.397934 0
12.730000 0.382706 0
12.735000 0.362775 0
12.740000 0.338738 0
12.745000 0.311299 0
12.750000 0.281233 0
12.755000 0.249352 0
12.760000 0.216464 0
12.765000 0.183344 0
12.770000 0.150703 0
12.775000 0.119166 0
12.780000 0.089254 0
12.785000 0.061375 0
12.790000 0.035825 0
12.795000 0.012786 0
12.800000 -0.007658 0
12.805000 -0.025517 0
12.810000 -0.040873 0
12.815000 -0.053868 0
12.820000 -0.064684 0
12.825000 -0.073533 0
12.830000 -0.080639 0
12.835000 -0.086230 0
12.840000 -0.090525 0
12.845000 -0.093729 0
12.850000 -0.096033 0
12.855000 -0.097601 0
12.860000 -0.097063 0
12.865000 -0.096172 0
12.870000 -0.095285 0
12.875000 -0.094402 0
12.880000 -0.093524 0
12.885000 -0.092649 0
12.890000 -0.091778 0
12.895000 -0.090908 0
12.900000 -0.090037 0
12.905000 -0.089161 0
12.910000 -0.088269 0
12.915000 -0.087347 0
12.920000 -0.086367 0
12.925000 -0.085285 0
12.930000 -0.084028 0
12.935000 -0.082487 0
12.940000 -0.080504 0
12.945000 -0.077853 0
12.950000 -0.074233 0
12.955000 -0.069257 0
12.960000 -0.062460 0
12.965000 -0.053320 0
12.970000 -0.041293 0
12.975000 -0.025884 0
12.980000 -0.006732 0
12.985000 0.016294 0
12.990000 0.042993 0
12.995000 0.072756 0
13.000000 0.104521 0
13.005000 0.136799 0
13.010000 0.167758 0
13.015000 0.195387 0
13.020000 0.217700 0
13.025000 0.232974 0
13.030000 0.239967 1
13.035000 0.238082 0
13.040000 0.227455 0
13.045000 0.208935 0
13.050000 0.183973 0
13.055000 0.154431 0
13.060000 0.122336 0
13.065000 0.089582 0
13.070000 0.057526 0
13.075000 0.026355 0
13.080000 -0.005751 0
13.085000 -0.042990 0
13.090000 -0.090323 0
13.095000 -0.148611 0
13.100000 -0.208271 0
13.105000 -0.246537 2
13.110000 -0.231882 0
13.115000 -0.132967 0
13.120000 0.071333 0
13.125000 0.377162 0
13.130000 0.734941 0
13.135000 1.042918 0
13.140000 1.183589 3
13.145000 1.094099 0
13.150000 0.808216 0
13.155000 0.431741 0
13.160000 0.077434 0
13.165000 -0.182742 0
13.170000 -0.324010 0
13.175000 -0.355152 4
13.180000 -0.306513 0
13.185000 -0.218904 0
13.190000 -0.128833 0
13.195000 -0.056612 0
13.200000 -0.005323 0
13.205000 0.031485 0
13.210000 0.061545 0
13.215000 0.089954 0
13.220000 0.118995 0
13.225000 0.149257 0
13.230000 0.180557 0
13.235000 0.212396 0
13.240000 0.244133 0
13.245000 0.275044 0
13.250000 0.304359 0
13.255000 0.331293 0
13.260000 0.355079 0
13.265000 0.375005 0
13.270000 0.390447 0
13.275000 0.400904 0
13.280000 0.406021 5
13.285000 0.405609 0
13.290000 0.399657 0
13.295000 0.388333 0
13.300000 0.371972 0
13.305000 0.351066 0
13.310000 0.326230 0
13.315000 0.298181 0
13.320000 0.267694 0
13.325000 0.235573 0
13.330000 0.202614 0
13.335000 0.169571 0
13.340000 0.137131 0
13.345000 0.105892 0
13.350000 0.076351 0
13.355000 0.048890 0
13.360000 0.023781 0
13.365000 0.001190 0
13.370000 -0.018819 0
13.375000 -0.036266 0
13.380000 -0.051242 0
13.385000 -0.063893 0
13.390000 -0.074405 0
13.395000 -0.082989 0
13.400000 -0.089867 0
13.405000 -0.095264 0
13.410000 -0.099396 0
13.415000 -0.102464 0
13.420000 -0.104652 0
13.425000 -0.106124 0
13.430000 -0.105536 0
13.435000 -0.104602 0
13.440000 -0.103673 0
13.445000 -0.102748 0
13.450000 -0.101828 0
13.455000 -0.100912 0
13.460000 -0.099999 0
13.465000 -0.099088 0
13.470000 -0.098177 0
13.475000 -0.097259 0
13.480000 -0.096327 0
13.485000 -0.095365 0
13.490000 -0.094344 0
13.495000 -0.093222 0
13.500000 -0.091928 0
13.505000 -0.090353 0
13.510000 -0.088343 0
13.515000 -0.085675 0
13.520000 -0.082054 0
13.525000 -0.077102 0
13.530000 -0.070362 0
13.535000 -0.061319 0
13.540000 -0.049436 0
13.545000 -0.034221 0
13.550000 -0.015304 0
13.555000 0.007464 0
13.560000 0.033912 0
13.565000 0.063472 0
13.570000 0.095138 0
13.575000 0.127473 0
13.580000 0.158699 0
13.585000 0.186837 0
13.590000 0.209911 0
13.595000 0.226176 0
13.600000 0.234336 1
13.605000 0.233709 0
13.610000 0.224331 0
13.615000 0.206942 0
13.620000 0.182898 0
13.625000 0.153991 0
13.630000 0.122213 0
13.635000 0.089483 0
13.640000 0.057272 0
13.645000 0.026033 0
13.650000 -0.005600 0
13.655000 -0.041360 0
13.660000 -0.086281 0
13.665000 -0.142582 0
13.670000 -0.203419 0
13.675000 -0.249014 0
13.680000 -0.249459 2
13.685000 -0.172906 0
13.690000 0.004940 0
13.695000 0.288079 0
13.700000 0.640501 0
13.705000 0.973358 0
13.710000 1.168490 3
13.715000 1.141923 0
13.720000 0.900392 0
13.725000 0.536211 0
13.730000 0.166863 0
13.735000 -0.122438 0
13.740000 -0.295372 0
13.745000 -0.353236 4
13.750000 -0.321728 0
13.755000 -0.240320 0
13.760000 -0.148186 0
13.765000 -0.070483 0
13.770000 -0.014236 0
13.775000 0.025468 0
13.780000 0.056621 0
13.785000 0.085126 0
13.790000 0.113895 0
13.795000 0.143838 0
13.800000 0.174906 0
13.805000 0.206656 0
13.810000 0.238472 0
13.815000 0.269645 0
13.820000 0.299413 0
13.825000 0.326988 0
13.830000 0.351594 0
13.835000 0.372500 0
13.840000 0.389058 0
13.845000 0.400732 0
13.850000 0.407130 0
13.855000 0.408021 5
13.860000 0.403351 0
13.865000 0.393248 0
13.870000 0.378010 0
13.875000 0.358094 0
13.880000 0.334092 0
13.885000 0.306701 0
13.890000 0.276689 0
13.895000 0.244857 0
13.900000 0.212009 0
13.905000 0.178913 0
13.910000 0.146273 0
13.915000 0.114712 0
13.920000 0.084750 0
13.925000 0.056796 0
13.930000 0.031148 0
13.935000 0.007992 0
13.940000 -0.012584 0
13.945000 -0.030585 0
13.950000 -0.046086 0
13.955000 -0.059226 0
13.960000 -0.070181 0
13.965000 -0.079161 0
13.970000 -0.086387 0
13.975000 -0.092083 0
13.980000 -0.096468 0
13.985000 -0.099748 0
13.990000 -0.102112 0
13.995000 -0.103727 0
14.000000 -0.103170 0
14.005000 -0.102248 0
14.010000 -0.101331 0
14.015000 -0.100418 0
14.020000 -0.099510 0
14.025000 -0.098605 0
14.030000 -0.097704 0
14.035000 -0.096805 0
14.040000 -0.095906 0
14.045000 -0.095003 0
14.050000 -0.094087 0
14.055000 -0.093144 0
14.060000 -0.092149 0
14.065000 -0.091062 0
14.070000 -0.089817 0
14.075000 -0.088316 0
14.080000 -0.086410 0
14.085000 -0.083892 0
14.090000 -0.080478 0
14.095000 -0.075804 0
14.100000 -0.069427 0
14.105000 -0.060836 0
14.110000 -0.049496 0
14.115000 -0.034897 0
14.120000 -0.016643 0
14.125000 0.005461 0
14.130000 0.031306 0
14.135000 0.060393 0
14.140000 0.091786 0
14.145000 0.124116 0
14.150000 0.155646 0
14.155000 0.184414 0
14.160000 0.208424 0
14.165000 0.225873 0
14.170000 0.235375 0
14.175000 0.236143 1
14.180000 0.228095 0
14.185000 0.211867 0
14.190000 0.188732 0
14.195000 0.160433 0
14.200000 0.128952 0
14.205000 0.096246 0
14.210000 0.063887 0
14.215000 0.032527 0
14.220000 0.001119 0
14.225000 -0.033739 0
14.230000 -0.077079 0
14.235000 -0.131902 0
14.240000 -0.193004 0
14.245000 -0.242401 0
14.250000 -0.251119 2
14.255000 -0.186946 0
14.260000 -0.023865 0
14.265000 0.245959 0
14.270000 0.593076 0
14.275000 0.935247 0
14.280000 1.154865 0
14.285000 1.159327 3
14.290000 0.942644 0
14.295000 0.588184 0
14.300000 0.213239 0
14.305000 -0.091066 0
14.310000 -0.282019 0
14.315000 -0.356303 4
14.320000 -0.336386 0
14.325000 -0.260121 0
14.330000 -0.167498 0
14.335000 -0.086390 0
14.340000 -0.026567 0
14.345000 0.015478 0
14.350000 0.047659 0
14.355000 0.076369 0
14.360000 0.104992 0
14.365000 0.134712 0
14.370000 0.165604 0
14.375000 0.197279 0
14.380000 0.229151 0
14.385000 0.260532 0
14.390000 0.290674 0
14.395000 0.318798 0
14.400000 0.344128 0
14.405000 0.365925 0
14.410000 0.383527 0
14.415000 0.396372 0
14.420000 0.404037 0
14.425000 0.406255 5
14.430000 0.402930 0
14.435000 0.394145 0
14.440000 0.380155 0
14.445000 0.361379 0
14.450000 0.338371 0
14.455000 0.311800 0
14.460000 0.282414 0
14.465000 0.251002 0
14.470000 0.218365 0
14.475000 0.185277 0
14.480000 0.152457 0
14.485000 0.120549 0
14.490000 0.090097 0
14.495000 0.061540 0
14.500000 0.035205 0
14.505000 0.011310 0
14.510000 -0.010031 0
14.515000 -0.028796 0
14.520000 -0.045041 0
14.525000 -0.058885 0
14.530000 -0.070493 0
14.535000 -0.080065 0
14.540000 -0.087817 0
14.545000 -0.093972 0
14.550000 -0.098751 0
14.555000 -0.102363 0
14.560000 -0.105000 0
14.565000 -0.106837 0
14.570000 -0.107716 0
14.575000 -0.106771 0
14.580000 -0.105831 0
14.585000 -0.104896 0
14.590000 -0.103965 0
14.595000 -0.103039 0
14.600000 -0.102116 0
14.605000 -0.101196 0
14.610000 -0.100278 0
14.615000 -0.099356 0
14.620000 -0.098426 0
14.625000 -0.097476 0
14.630000 -0.096486 0
14.635000 -0.095422 0
14.640000 -0.094231 0
14.645000 -0.092829 0
14.650000 -0.091090 0
14.655000 -0.088835 0
14.660000 -0.085814 0
14.665000 -0.081701 0
14.670000 -0.076085 0
14.675000 -0.068487 0
14.680000 -0.058380 0
14.685000 -0.045239 0
14.690000 -0.028609 0
14.695000 -0.008199 0
14.700000 0.016029 0
14.705000 0.043762 0
14.710000 0.074268 0
14.715000 0.106380 0
14.720000 0.138529 0
14.725000 0.168848 0
14.730000 0.195345 0
14.735000 0.216113 0
14.740000 0.229556 0
14.745000 0.234589 1
14.750000 0.230787 0
14.755000 0.218442 0
14.760000 0.198524 0
14.765000 0.172559 0
14.770000 0.142427 0
14.775000 0.110120 0
14.780000 0.077443 0
14.785000 0.045590 0
14.790000 0.014492 0
14.795000 -0.017990 0
14.800000 -0.056251 0
14.805000 -0.104988 0
14.810000 -0.164126 0
14.815000 -0.222797 0
14.820000 -0.257398 2
14.825000 -0.236539 0
14.830000 -0.129874 0
14.835000 0.082088 0
14.840000 0.393134 0
14.845000 0.751298 0
14.850000 1.054387 0
14.855000 1.187596 3
14.860000 1.091600 0
14.865000 0.802304 0
14.870000 0.425291 0
14.875000 0.071686 0
14.880000 -0.187916 0
14.885000 -0.329252 0
14.890000 -0.361002 4
14.895000 -0.313067 0
14.900000 -0.225763 0
14.905000 -0.135403 0
14.910000 -0.062509 0
14.915000 -0.010538 0
14.920000 0.026720 0
14.925000 0.056973 0
14.930000 0.085406 0
14.935000 0.114396 0
14.940000 0.144593 0
14.945000 0.175846 0
14.950000 0.207677 0
14.955000 0.239459 0
14.960000 0.270484 0
14.965000 0.299991 0
14.970000 0.327206 0
14.975000 0.351366 0
14.980000 0.371762 0
14.985000 0.387764 0
14.990000 0.398862 0
14.995000 0.404687 0
15.000000 0.405029 5
15.005000 0.399855 0
15.010000 0.389304 0
15.015000 0.373687 0
15.020000 0.353467 0
15.025000 0.329234 0
15.030000 0.301684 0
15.035000 0.271574 0
15.040000 0.239699 0
15.045000 0.206847 0
15.050000 0.173774 0
15.055000 0.141175 0
15.060000 0.109659 0
15.065000 0.079738 0
15.070000 0.051814 0
15.075000 0.026180 0
15.080000 0.003022 0
15.085000 -0.017576 0
15.090000 -0.035614 0
15.095000 -0.051167 0
15.100000 -0.064368 0
15.105000 -0.075393 0
15.110000 -0.084445 0
15.115000 -0.091741 0
15.120000 -0.097505 0
15.125000 -0.101952 0
15.130000 -0.105286 0
15.135000 -0.107695 0
15.140000 -0.109346 0
15.145000 -0.110096 0
15.150000 -0.109140 0
15.155000 -0.108188 0
15.160000 -0.107241 0
15.165000 -0.106299 0
15.170000 -0.105360 0
15.175000 -0.104426 0
15.180000 -0.103494 0
15.185000 -0.102563 0
15.190000 -0.101628 0
15.195000 -0.100682 0
15.200000 -0.099713 0
15.205000 -0.098699 0
15.210000 -0.097602 0
15.215000 -0.096365 0
15.220000 -0.094896 0
15.225000 -0.093062 0
15.230000 -0.090671 0
15.235000 -0.087461 0
15.240000 -0.083093 0
15.245000 -0.077145 0
15.250000 -0.069130 0
15.255000 -0.058520 0
15.260000 -0.044801 0
15.265000 -0.027541 0
15.270000 -0.006487 0
15.275000 0.018348 0
15.280000 0.046588 0
15.285000 0.077440 0
15.290000 0.109676 0
15.295000 0.141683 0
15.300000 0.171579 0
15.305000 0.197382 0
15.310000 0.217227 0
15.315000 0.229587 0
15.320000 0.233468 1
15.325000 0.228539 0
15.330000 0.215181 0
15.335000 0.194437 0
15.340000 0.167877 0
15.345000 0.137397 0
15.350000 0.104973 0
15.355000 0.072352 0
15.360000 0.040620 0
15.365000 0.009528 0
15.370000 -0.023292 0
15.375000 -0.062377 0
15.380000 -0.112204 0
15.385000 -0.171933 0
15.390000 -0.229609 0
15.395000 -0.260818 2
15.400000 -0.234103 0
15.405000 -0.119787 0
15.410000 0.100164 0
15.415000 0.416905 0
15.420000 0.775049 0
15.425000 1.070484 0
15.430000 1.190520 3
15.435000 1.080505 0
15.440000 0.781893 0
15.445000 0.403258 0
15.450000 0.054589 0
15.455000 -0.196619 0
15.460000 -0.328910 0
15.465000 -0.353006 4
15.470000 -0.300263 0
15.475000 -0.211477 0
15.480000 -0.122151 0
15.485000 -0.051281 0
15.490000 -0.001076 0
15.495000 0.035156 0
15.500000 0.065018 0
15.505000 0.093413 0
15.510000 0.122497 0
15.515000 0.152802 0
15.520000 0.184124 0
15.525000 0.215960 0
15.530000 0.247668 0
15.535000 0.278526 0
15.540000 0.307769 0
15.545000 0.334613 0
15.550000 0.358299 0
15.555000 0.378120 0
15.560000 0.393459 0
15.565000 0.403819 0
15.570000 0.408849 5
15.575000 0.408366 0
15.580000 0.402359 0
15.585000 0.390996 0
15.590000 0.374614 0
15.595000 0.353698 0
15.600000 0.328864 0
15.605000 0.300821 0
15.610000 0.270341 0
15.615000 0.238225 0
15.620000 0.205261 0
15.625000 0.172203 0
15.630000 0.139734 0
15.635000 0.108451 0
15.640000 0.078850 0
15.645000 0.051315 0
15.650000 0.026120 0
15.655000 0.003431 0
15.660000 -0.016684 0
15.665000 -0.034240 0
15.670000 -0.049328 0
15.675000 -0.062089 0
15.680000 -0.072708 0
15.685000 -0.081393 0
15.690000 -0.088366 0
15.695000 -0.093848 0
15.700000 -0.098056 0
15.705000 -0.101191 0
15.710000 -0.103438 0
15.715000 -0.104960 0
15.720000 -0.104384 0
15.725000 -0.103457 0
15.730000 -0.102533 0
15.735000 -0.101614 0
15.740000 -0.100700 0
15.745000 -0.099789 0
15.750000 -0.098882 0
15.755000 -0.097977 0
15.760000 -0.097072 0
15.765000 -0.096161 0
15.770000 -0.095237 0
15.775000 -0.094285 0
15.780000 -0.093278 0
15.785000 -0.092176 0
15.790000 -0.090911 0
15.795000 -0.089382 0
15.800000 -0.087438 0
15.805000 -0.084870 0
15.810000 -0.081391 0
15.815000 -0.076636 0
15.820000 -0.070161 0
15.825000 -0.061458 0
15.830000 -0.049995 0
15.835000 -0.035270 0
15.840000 -0.016894 0
15.845000 0.005317 0
15.850000 0.031246 0
15.855000 0.060389 0
15.860000 0.091810 0
15.865000 0.124144 0
15.870000 0.155664 0
15.875000 0.184424 0
15.880000 0.208443 0
15.885000 0.225933 0
15.890000 0.235517 0
15.895000 0.236406 1
15.900000 0.228510 0
15.905000 0.212449 0
15.910000 0.189472 0
15.915000 0.161298 0
15.920000 0.129893 0
15.925000 0.097202 0
15.930000 0.064808 0
15.935000 0.033412 0
15.940000 0.002072 0
15.945000 -0.032468 0
15.950000 -0.075178 0
15.955000 -0.129315 0
15.960000 -0.190408 0
15.965000 -0.241489 0
15.970000 -0.254374 2
15.975000 -0.197025 0
15.980000 -0.042778 0
15.985000 0.218268 0
15.990000 0.560968 0
15.995000 0.908482 0
16.000000 1.145367 0
16.005000 1.174039 3
16.010000 0.977970 0
16.015000 0.632611 0
16.020000 0.254650 0
16.025000 -0.060326 0
16.030000 -0.264562 0
16.035000 -0.351156 4
16.040000 -0.340176 0
16.045000 -0.268229 0
16.050000 -0.175750 0
16.055000 -0.092470 0
16.060000 -0.030159 0
16.065000 0.013588 0
16.070000 0.046545 0
16.075000 0.075427 0
16.080000 0.103951 0
16.085000 0.133504 0
16.090000 0.164252 0
16.095000 0.195844 0
16.100000 0.227715 0
16.105000 0.259187 0
16.110000 0.289521 0
16.115000 0.317941 0
16.120000 0.343670 0
16.125000 0.365967 0
16.130000 0.384156 0
16.135000 0.397663 0
16.140000 0.406046 0
16.145000 0.409014 5
16.150000 0.406449 0
16.155000 0.398409 0
16.160000 0.385125 0
16.165000 0.366990 0
16.170000 0.344542 0
16.175000 0.318433 0
16.180000 0.289399 0
16.185000 0.258225 0
16.190000 0.225709 0
16.195000 0.192629 0
16.200000 0.159713 0
16.205000 0.127616 0
16.210000 0.096896 0
16.215000 0.068009 0
16.220000 0.041298 0
16.225000 0.016997 0
16.230000 -0.004765 0
16.235000 -0.023952 0
16.240000 -0.040607 0
16.245000 -0.054842 0
16.250000 -0.066814 0
16.255000 -0.076717 0
16.260000 -0.084767 0
16.265000 -0.091184 0
16.270000 -0.096190 0
16.275000 -0.099995 0
16.280000 -0.102795 0
16.285000 -0.104768 0
16.290000 -0.106068 0
16.295000 -0.105455 0
16.300000 -0.104522 0
16.305000 -0.103593 0
16.310000 -0.102669 0
16.315000 -0.101749 0
16.320000 -0.100833 0
16.325000 -0.099920 0
16.330000 -0.099008 0
16.335000 -0.098095 0
16.340000 -0.097175 0
16.345000 -0.096237 0
16.350000 -0.095263 0
16.355000 -0.094223 0
16.360000 -0.093069 0
16.365000 -0.091723 0
16.370000 -0.090069 0
16.375000 -0.087938 0
16.380000 -0.085098 0
16.385000 -0.081236 0
16.390000 -0.075962 0
16.395000 -0.068808 0
16.400000 -0.059254 0
16.405000 -0.046773 0
16.410000 -0.030890 0
16.415000 -0.011272 0
16.420000 0.012177 0
16.425000 0.039223 0
16.430000 0.069226 0
16.435000 0.101113 0
16.440000 0.133393 0
16.445000 0.164257 0
16.450000 0.191726 0
16.455000 0.213862 0
16.460000 0.228986 0
16.465000 0.235893 1
16.470000 0.234008 0
16.475000 0.223465 0
16.480000 0.205093 0
16.485000 0.180306 0
16.490000 0.150922 0
16.495000 0.118926 0
16.500000 0.086191 0
16.505000 0.054092 0
16.510000 0.022917 0
16.515000 -0.008938 0
16.520000 -0.045410 0
16.525000 -0.091458 0
16.530000 -0.148679 0
16.535000 -0.209143 0
16.540000 -0.252074 2
16.545000 -0.247247 0
16.550000 -0.163310 0
16.555000 0.022799 0
16.560000 0.312792 0
16.565000 0.667307 0
16.570000 0.994853 0
16.575000 1.178139 3
16.580000 1.136869 0
16.585000 0.883664 0
16.590000 0.515409 0
16.595000 0.149691 0
16.600000 -0.131216 0
16.605000 -0.294226 0
16.610000 -0.343100 4
16.615000 -0.305384 0
16.620000 -0.221474 0
16.625000 -0.130008 0
16.630000 -0.054517 0
16.635000 -0.000441 0
16.640000 0.037890 0
16.645000 0.068457 0
16.650000 0.096850 0
16.655000 0.125700 0
16.660000 0.155761 0
16.665000 0.186910 0
16.670000 0.218668 0
16.675000 0.250401 0
16.680000 0.281383 0
16.685000 0.310840 0
16.690000 0.337978 0
16.695000 0.362019 0
16.700000 0.382237 0
16.705000 0.397993 0
16.710000 0.408770 0
16.715000 0.414199 5
16.720000 0.414076 0
16.725000 0.408381 0
16.730000 0.397271 0
16.735000 0.381080 0
16.740000 0.360295 0
16.745000 0.335537 0
16.750000 0.307524 0
16.755000 0.277040 0
16.760000 0.244897 0
16.765000 0.211899 0
16.770000 0.178809 0
16.775000 0.146322 0
16.780000 0.115043 0
16.785000 0.085472 0
16.790000 0.057997 0
16.795000 0.032889 0
16.800000 0.010313 0
16.805000 -0.009666 0
16.810000 -0.027071 0
16.815000 -0.041998 0
16.820000 -0.054595 0
16.825000 -0.065051 0
16.830000 -0.073582 0
16.835000 -0.080411 0
16.840000 -0.085765 0
16.845000 -0.089862 0
16.850000 -0.092904 0
16.855000 -0.095076 0
16.860000 -0.096539 0
16.865000 -0.095991 0
16.870000 -0.095105 0
16.875000 -0.094223 0
16.880000 -0.093346 0
16.885000 -0.092472 0
16.890000 -0.091603 0
16.895000 -0.090736 0
16.900000 -0.089871 0
16.905000 -0.089004 0
16.910000 -0.088130 0
16.915000 -0.087240 0
16.920000 -0.086315 0
16.925000 -0.085327 0
16.930000 -0.084226 0
16.935000 -0.082937 0
16.940000 -0.081344 0
16.945000 -0.079277 0
16.950000 -0.076502 0
16.955000 -0.072703 0
16.960000 -0.067484 0
16.965000 -0.060368 0
16.970000 -0.050828 0
16.975000 -0.038324 0
16.980000 -0.022377 0
16.985000 -0.002652 0
16.990000 0.020936 0
16.995000 0.048132 0
17.000000 0.078261 0
17.005000 0.110198 0
17.010000 0.142400 0
17.015000 0.173001 0
17.020000 0.199982 0
17.025000 0.221387 0
17.030000 0.235548 0
17.035000 0.241310 1
17.040000 0.238176 0
17.045000 0.226385 0
17.050000 0.206876 0
17.055000 0.181167 0
17.060000 0.151154 0
17.065000 0.118862 0
17.070000 0.086136 0
17.075000 0.054218 0
17.080000 0.023075 0
17.085000 -0.009423 0
17.090000 -0.047726 0
17.095000 -0.096594 0
17.100000 -0.155878 0
17.105000 -0.214336 0
17.110000 -0.247733 2
17.115000 -0.224093 0
17.120000 -0.112832 0
17.125000 0.105000 0
17.130000 0.421026 0
17.135000 0.779041 0
17.140000 1.072593 0
17.145000 1.187033 3
17.150000 1.069507 0
17.155000 0.765394 0
17.160000 0.385995 0
17.165000 0.041345 0
17.170000 -0.202861 0
17.175000 -0.327253 0
17.180000 -0.344412 4
17.185000 -0.287249 0
17.190000 -0.197229 0
17.195000 -0.109172 0
17.200000 -0.040550 0
17.205000 0.007730 0
17.210000 0.042862 0
17.215000 0.072329 0
17.220000 0.100720 0
17.225000 0.129945 0
17.230000 0.160401 0
17.235000 0.191821 0
17.240000 0.223667 0
17.245000 0.255275 0
17.250000 0.285903 0
17.255000 0.314768 0
17.260000 0.341080 0
17.265000 0.364076 0
17.270000 0.383052 0
17.275000 0.397407 0
17.280000 0.406663 0
17.285000 0.410500 5
17.290000 0.408768 0
17.295000 0.401499 0
17.300000 0.388901 0
17.305000 0.371354 0
17.310000 0.349386 0
17.315000 0.323645 0
17.320000 0.294871 0
17.325000 0.263858 0
17.330000 0.231417 0
17.335000 0.198340 0
17.340000 0.165373 0
17.345000 0.133186 0
17.350000 0.102354 0
17.355000 0.073345 0
17.360000 0.046514 0
17.365000 0.022104 0
17.370000 0.000248 0
17.375000 -0.019012 0
17.380000 -0.035721 0
17.385000 -0.049990 0
17.390000 -0.061979 0
17.395000 -0.071886 0
17.400000 -0.079927 0
17.405000 -0.086328 0
17.410000 -0.091315 0
17.415000 -0.095099 0
17.420000 -0.097879 0
17.425000 -0.099834 0
17.430000 -0.100801 0
17.435000 -0.099891 0
17.440000 -0.098986 0
17.445000 -0.098085 0
17.450000 -0.097188 0
17.455000 -0.096295 0
17.460000 -0.095406 0
17.465000 -0.094520 0
17.470000 -0.093635 0
17.475000 -0.092748 0
17.480000 -0.091851 0
17.485000 -0.090935 0
17.490000 -0.089979 0
17.495000 -0.088950 0
17.500000 -0.087794 0
17.505000 -0.086427 0
17.510000 -0.084722 0
17.515000 -0.082496 0
17.520000 -0.079498 0
17.525000 -0.075395 0
17.530000 -0.069772 0
17.535000 -0.062139 0
17.540000 -0.051963 0
17.545000 -0.038713 0
17.550000 -0.021934 0
17.555000 -0.001339 0
17.560000 0.023091 0
17.565000 0.051013 0
17.570000 0.081660 0
17.575000 0.113813 0
17.580000 0.145855 0
17.585000 0.175876 0
17.590000 0.201857 0
17.595000 0.221887 0
17.600000 0.234395 0
17.605000 0.238354 1
17.610000 0.233418 0
17.615000 0.219973 0
17.620000 0.199088 0
17.625000 0.172369 0
17.630000 0.141756 0
17.635000 0.109258 0
17.640000 0.076638 0
17.645000 0.044943 0
17.650000 0.013798 0
17.655000 -0.019399 0
17.660000 -0.059399 0
17.665000 -0.110504 0
17.670000 -0.170889 0
17.675000 -0.226826 0
17.680000 -0.252111 2
17.685000 -0.214386 0
17.690000 -0.084453 0
17.695000 0.153025 0
17.700000 0.482456 0
17.705000 0.837843 0
17.710000 1.107081 0
17.715000 1.181703 3
17.720000 1.024703 0
17.725000 0.697572 0
17.730000 0.317370 0
17.735000 -0.011398 0
17.740000 -0.232258 0
17.745000 -0.333182 4
17.750000 -0.331826 0
17.755000 -0.264292 0
17.760000 -0.172288 0
17.765000 -0.087713 0
17.770000 -0.024053 0
17.775000 0.020449 0
17.780000 0.053656 0
17.785000 0.082551 0
17.790000 0.111030 0
17.795000 0.140543 0
17.800000 0.171267 0
17.805000 0.202840 0
17.810000 0.234678 0
17.815000 0.266087 0
17.820000 0.296303 0
17.825000 0.324532 0
17.830000 0.349980 0
17.835000 0.371889 0
17.840000 0.389576 0
17.845000 0.402467 0
17.850000 0.410123 0
17.855000 0.412273 5
17.860000 0.408818 0
17.865000 0.399846 0
17.870000 0.385624 0
17.875000 0.366584 0
17.880000 0.343301 0
17.885000 0.316463 0
17.890000 0.286839 0
17.895000 0.255239 0
17.900000 0.222479 0
17.905000 0.189347 0
17.910000 0.156570 0
17.915000 0.124793 0
17.920000 0.094559 0
17.925000 0.066299 0
17.930000 0.040329 0
17.935000 0.016853 0
17.940000 -0.004031 0
17.945000 -0.022316 0
17.950000 -0.038075 0
17.955000 -0.051441 0
17.960000 -0.062592 0
17.965000 -0.071737 0
17.970000 -0.079100 0
17.975000 -0.084909 0
17.980000 -0.089386 0
17.985000 -0.092742 0
17.990000 -0.095168 0
17.995000 -0.096835 0
18.000000 -0.097610 0
18.005000 -0.096715 0
18.010000 -0.095826 0
18.015000 -0.094940 0
18.020000 -0.094059 0
18.025000 -0.093182 0
18.030000 -0.092308 0
18.035000 -0.091436 0
18.040000 -0.090563 0
18.045000 -0.089686 0
18.050000 -0.088795 0
18.055000 -0.087876 0
18.060000 -0.086902 0
18.065000 -0.085831 0
18.070000 -0.084595 0
18.075000 -0.083089 0
18.080000 -0.081159 0
18.085000 -0.078586 0
18.090000 -0.075074 0
18.095000 -0.070245 0
18.100000 -0.063639 0
18.105000 -0.054733 0
18.110000 -0.042983 0
18.115000 -0.027883 0
18.120000 -0.009054 0
18.125000 0.013659 0
18.130000 0.040085 0
18.135000 0.069645 0
18.140000 0.101310 0
18.145000 0.133612 0
18.150000 0.164734 0
18.155000 0.192660 0
18.160000 0.215387 0
18.165000 0.231159 0
18.170000 0.238690 1
18.175000 0.237339 0
18.180000 0.227198 0
18.185000 0.209081 0
18.190000 0.184418 0
18.195000 0.155062 0
18.200000 0.123048 0
18.205000 0.090293 0
18.210000 0.058195 0
18.215000 0.027010 0
18.220000 -0.004995 0
18.225000 -0.041956 0
18.230000 -0.088892 0
18.235000 -0.146911 0
18.240000 -0.206787 0
18.245000 -0.246009 2
18.250000 -0.233034 0
18.255000 -0.136265 0
18.260000 0.065872 0
18.265000 0.370186 0
18.270000 0.727814 0
18.275000 1.037201 0
18.280000 1.180125 3
18.285000 1.092766 0
18.290000 0.808153 0
18.295000 0.431923 0
18.300000 0.077209 0
18.305000 -0.183571 0
18.310000 -0.325365 0
18.315000 -0.356848 4
18.320000 -0.308361 0
18.325000 -0.220778 0
18.330000 -0.130691 0
18.335000 -0.058466 0
18.340000 -0.007188 0
18.345000 0.029609 0
18.350000 0.059668 0
18.355000 0.088086 0
18.360000 0.117143 0
18.365000 0.147423 0
18.370000 0.178738 0
18.375000 0.210589 0
18.380000 0.242332 0
18.385000 0.273242 0
18.390000 0.302547 0
18.395000 0.329459 0
18.400000 0.353212 0
18.405000 0.373092 0
18.410000 0.388477 0
18.415000 0.398865 0
18.420000 0.403904 5
18.425000 0.403407 0
18.430000 0.397367 0
18.435000 0.385953 0
18.440000 0.369507 0
18.445000 0.348522 0
18.450000 0.323618 0
18.455000 0.295515 0
18.460000 0.264989 0
18.465000 0.232848 0
18.470000 0.199887 0
18.475000 0.166861 0
18.480000 0.134455 0
18.485000 0.103267 0
18.490000 0.073791 0
18.495000 0.046406 0
18.500000 0.021383 0
18.505000 -0.001118 0
18.510000 -0.021033 0
18.515000 -0.038386 0
18.520000 -0.053269 0
18.525000 -0.065832 0
18.530000 -0.076261 0
18.535000 -0.084769 0
18.540000 -0.091579 0
18.545000 -0.096914 0
18.550000 -0.100991 0
18.555000 -0.104012 0
18.560000 -0.106159 0
18.565000 -0.107596 0
18.570000 -0.106996 0
18.575000 -0.106055 0
18.580000 -0.105119 0
18.585000 -0.104187 0
18.590000 -0.103260 0
18.595000 -0.102336 0
18.600000 -0.101416 0
18.605000 -0.100498 0
18.610000 -0.099579 0
18.615000 -0.098654 0
18.620000 -0.097714 0
18.625000 -0.096741 0
18.630000 -0.095710 0
18.635000 -0.094573 0
18.640000 -0.093258 0
18.645000 -0.091656 0
18.650000 -0.089606 0
18.655000 -0.086883 0
18.660000 -0.083185 0
18.665000 -0.078128 0
18.670000 -0.071251 0
18.675000 -0.062035 0
18.680000 -0.049942 0
18.685000 -0.034484 0
18.690000 -0.015303 0
18.695000 0.007731 0
18.700000 0.034424 0
18.705000 0.064178 0
18.710000 0.095950 0
18.715000 0.128276 0
18.720000 0.159352 0
18.725000 0.187190 0
18.730000 0.209820 0
18.735000 0.225519 0
18.740000 0.233028 1
18.745000 0.231721 0
18.750000 0.221687 0
18.755000 0.203721 0
18.760000 0.179224 0
18.765000 0.150015 0
18.770000 0.118097 0
18.775000 0.085371 0
18.780000 0.053251 0
18.785000 0.022070 0
18.790000 -0.009732 0
18.795000 -0.046085 0
18.800000 -0.091998 0
18.805000 -0.149151 0
18.810000 -0.209613 0
18.815000 -0.252436 2
18.820000 -0.247098 0
18.825000 -0.161987 0
18.830000 0.025997 0
18.835000 0.318020 0
18.840000 0.673204 0
18.845000 0.997953 0
18.850000 1.174059 3
18.855000 1.125262 0
18.860000 0.867952 0
18.865000 0.498854 0
18.870000 0.133516 0
18.875000 -0.147474 0
18.880000 -0.311558 0
18.885000 -0.362185 4
18.890000 -0.326136 0
18.895000 -0.243006 0
18.900000 -0.151139 0
18.905000 -0.074471 0
18.910000 -0.019137 0
18.915000 0.020073 0
18.920000 0.051066 0
18.925000 0.079579 0
18.930000 0.108407 0
18.935000 0.138413 0
18.940000 0.169532 0
18.945000 0.201318 0
18.950000 0.233159 0
18.955000 0.264353 0
18.960000 0.294140 0
18.965000 0.321743 0
18.970000 0.346390 0
18.975000 0.367357 0
18.980000 0.384000 0
18.985000 0.395788 0
18.990000 0.402327 0
18.995000 0.403387 5
19.000000 0.398909 0
19.005000 0.389014 0
19.010000 0.373991 0
19.015000 0.354290 0
19.020000 0.330492 0
19.025000 0.303283 0
19.030000 0.273422 0
19.035000 0.241704 0
19.040000 0.208924 0
19.045000 0.175847 0
19.050000 0.143179 0
19.055000 0.111542 0
19.060000 0.081459 0
19.065000 0.053347 0
19.070000 0.027510 0
19.075000 0.004142 0
19.080000 -0.016662 0
19.085000 -0.034897 0
19.090000 -0.050632 0
19.095000 -0.063997 0
19.100000 -0.075167 0
19.105000 -0.084343 0
19.110000 -0.091745 0
19.115000 -0.097595 0
19.120000 -0.102113 0
19.125000 -0.105503 0
19.130000 -0.107956 0
19.135000 -0.109641 0
19.140000 -0.110412 0
19.145000 -0.109454 0
19.150000 -0.108501 0
19.155000 -0.107552 0
19.160000 -0.106608 0
19.165000 -0.105668 0
19.170000 -0.104732 0
19.175000 -0.103799 0
19.180000 -0.102866 0
19.185000 -0.101930 0
19.190000 -0.100984 0
19.195000 -0.100014 0
19.200000 -0.098999 0
19.205000 -0.097902 0
19.210000 -0.096665 0
19.215000 -0.095197 0
19.220000 -0.093364 0
19.225000 -0.090972 0
19.230000 -0.087760 0
19.235000 -0.083385 0
19.240000 -0.077425 0
19.245000 -0.069387 0
19.250000 -0.058741 0
19.255000 -0.044971 0
19.260000 -0.027646 0
19.265000 -0.006512 0
19.270000 0.018408 0
19.275000 0.046729 0
19.280000 0.077642 0
19.285000 0.109900 0
19.290000 0.141873 0
19.295000 0.171659 0
19.300000 0.197267 0
19.305000 0.216830 0
19.310000 0.228834 0
19.315000 0.232305 1
19.320000 0.226944 0
19.325000 0.213170 0
19.330000 0.192063 0
19.335000 0.165226 0
19.340000 0.134576 0
19.345000 0.102095 0
19.350000 0.069514 0
19.355000 0.037858 0
19.360000 0.006752 0
19.365000 -0.026358 0
19.370000 -0.066145 0
19.375000 -0.116912 0
19.380000 -0.177104 0
19.385000 -0.233616 0
19.390000 -0.260999 2
19.395000 -0.227419 0
19.400000 -0.103662 0
19.405000 0.126636 0
19.410000 0.450863 0
19.415000 0.807984 0
19.420000 1.089836 0
19.425000 1.186159 3
19.430000 1.052788 0
19.435000 0.740749 0
19.440000 0.360700 0
19.445000 0.018775 0
19.450000 -0.222634 0
19.455000 -0.345561 0
19.460000 -0.362618 4
19.465000 -0.305975 0
19.470000 -0.216160 0
19.475000 -0.127521 0
19.480000 -0.057778 0
19.485000 -0.008396 0
19.490000 0.027457 0
19.495000 0.057235 0
19.500000 0.085672 0
19.505000 0.114831 0
19.510000 0.145205 0
19.515000 0.176582 0
19.520000 0.208461 0
19.525000 0.240204 0
19.530000 0.271097 0
19.535000 0.300382 0
19.540000 0.327284 0
19.545000 0.351050 0
19.550000 0.370980 0
19.555000 0.386461 0
19.560000 0.397000 0
19.565000 0.402244 5
19.570000 0.402006 0
19.575000 0.396269 0
19.580000 0.385192 0
19.585000 0.369100 0
19.590000 0.348467 0
19.595000 0.323896 0
19.600000 0.296084 0
19.605000 0.265792 0
19.610000 0.233810 0
19.615000 0.200924 0
19.620000 0.167881 0
19.625000 0.135366 0
19.630000 0.103979 0
19.635000 0.074220 0
19.640000 0.046481 0
19.645000 0.021046 0
19.650000 -0.001910 0
19.655000 -0.022308 0
19.660000 -0.040154 0
19.665000 -0.055528 0
19.670000 -0.068565 0
19.675000 -0.079443 0
19.680000 -0.088364 0
19.685000 -0.095548 0
19.690000 -0.101214 0
19.695000 -0.105579 0
19.700000 -0.108843 0
19.705000 -0.111194 0
19.710000 -0.112796 0
19.715000 -0.113507 0
19.720000 -0.112534 0
19.725000 -0.111565 0
19.730000 -0.110602 0
19.735000 -0.109642 0
19.740000 -0.108687 0
19.745000 -0.107736 0
19.750000 -0.106788 0
19.755000 -0.105840 0
19.760000 -0.104888 0
19.765000 -0.103926 0
19.770000 -0.102940 0
19.775000 -0.101908 0
19.780000 -0.100794 0
19.785000 -0.099537 0
19.790000 -0.098049 0
19.795000 -0.096194 0
19.800000 -0.093780 0
19.805000 -0.090548 0
19.810000 -0.086157 0
19.815000 -0.080189 0
19.820000 -0.072157 0
19.825000 -0.061536 0
19.830000 -0.047813 0
19.835000 -0.030560 0
19.840000 -0.009520 0
19.845000 0.015293 0
19.850000 0.043509 0
19.855000 0.074345 0
19.860000 0.106584 0
19.865000 0.138625 0
19.870000 0.168597 0
19.875000 0.194526 0
19.880000 0.214550 0
19.885000 0.227138 0
19.890000 0.231284 1
19.895000 0.226638 0
19.900000 0.213558 0
19.905000 0.193062 0
19.910000 0.166699 0
19.915000 0.136348 0
19.920000 0.103979 0
19.925000 0.071349 0
19.930000 0.039581 0
19.935000 0.008506 0
19.940000 -0.024119 0
19.945000 -0.062732 0
19.950000 -0.111903 0
19.955000 -0.171254 0
19.960000 -0.229609 0
19.965000 -0.263295 2
19.970000 -0.241170 0
19.975000 -0.133300 0
19.980000 0.079410 0
19.985000 0.390604 0
19.990000 0.748808 0
19.995000 1.053029 0
20.000000 1.189412 3
20.005000 1.097794 0
20.010000 0.811937 0
20.015000 0.435697 0
20.020000 0.079982 0
20.025000 -0.183645 0
20.030000 -0.329696 0
20.035000 -0.365741 4
20.040000 -0.320721 0
20.045000 -0.234447 0
20.050000 -0.143512 0
20.055000 -0.069299 0
20.060000 -0.016095 0
20.065000 0.021924 0
20.070000 0.052485 0
20.075000 0.080953 0
20.080000 0.109869 0
20.085000 0.139972 0
20.090000 0.171156 0
20.095000 0.202966 0
20.100000 0.234792 0
20.105000 0.265935 0
20.110000 0.295647 0
20.115000 0.323159 0
20.120000 0.347711 0
20.125000 0.368592 0
20.130000 0.385167 0
20.135000 0.396915 0
20.140000 0.403449 0
20.145000 0.404541 5
20.150000 0.400133 0
20.155000 0.390341 0
20.160000 0.375449 0
20.165000 0.355894 0
20.170000 0.332247 0
20.175000 0.305182 0
20.180000 0.275444 0
20.185000 0.243816 0
20.190000 0.211084 0
20.195000 0.178005 0
20.200000 0.145281 0
20.205000 0.113533 0
20.210000 0.083286 0
20.215000 0.054962 0
20.220000 0.028870 0
20.225000 0.005215 0
20.230000 -0.015899 0
20.235000 -0.034456 0
20.240000 -0.050518 0
20.245000 -0.064204 0
20.250000 -0.075681 0
20.255000 -0.085147 0
20.260000 -0.092814 0
20.265000 -0.098903 0
20.270000 -0.103631 0
20.275000 -0.107204 0
20.280000 -0.109811 0
20.285000 -0.111625 0
20.290000 -0.112483 0
20.295000 -0.111515 0
20.300000 -0.110551 0
20.305000 -0.109593 0
20.310000 -0.108639 0
20.315000 -0.107689 0
20.320000 -0.106743 0
20.325000 -0.105800 0
20.330000 -0.104859 0
20.335000 -0.103916 0
20.340000 -0.102964 0
20.345000 -0.101994 0
20.350000 -0.100987 0
20.355000 -0.099911 0
20.360000 -0.098716 0
20.365000 -0.097323 0
20.370000 -0.095614 0
20.375000 -0.093419 0
20.380000 -0.090503 0
20.385000 -0.086555 0
20.390000 -0.081182 0
20.395000 -0.073922 0
20.400000 -0.064260 0
20.405000 -0.051674 0
20.410000 -0.035699 0
20.415000 -0.016009 0
20.420000 0.007487 0
20.425000 0.034556 0
20.430000 0.064568 0
20.435000 0.096461 0
20.440000 0.128771 0
20.445000 0.159713 0
20.450000 0.187335 0
20.455000 0.209718 0
20.460000 0.225189 0
20.465000 0.232535 1
20.470000 0.231155 0
20.475000 0.221142 0
20.480000 0.203276 0
20.485000 0.178919 0
20.490000 0.149845 0
20.495000 0.118014 0
20.500000 0.085297 0
20.505000 0.053120 0
20.510000 0.021907 0
20.515000 -0.009696 0
20.520000 -0.045341 0
20.525000 -0.089976 0
20.530000 -0.145922 0
20.535000 -0.206864 0
20.540000 -0.253948 0
20.545000 -0.258189 2
20.550000 -0.188199 0
20.555000 -0.019254 0
20.560000 0.254915 0
20.565000 0.603519 0
20.570000 0.944471 0
20.575000 1.162391 0
20.580000 1.167142 3
20.585000 0.951144 0
20.590000 0.596793 0
20.595000 0.221835 0
20.600000 -0.082258 0
20.605000 -0.272707 0
20.610000 -0.346319 4
20.615000 -0.325788 0
20.620000 -0.249200 0
20.625000 -0.156639 0
20.630000 -0.075870 0
20.635000 -0.016450 0
20.640000 0.025287 0
20.645000 0.057294 0
20.650000 0.085931 0
20.655000 0.114529 0
20.660000 0.144240 0
20.665000 0.175119 0
20.670000 0.206767 0
20.675000 0.238592 0
20.680000 0.269901 0
20.685000 0.299940 0
20.690000 0.327926 0
20.695000 0.353082 0
20.700000 0.374669 0
20.705000 0.392023 0
20.710000 0.404589 0
20.715000 0.411947 0
20.720000 0.413837 5
20.725000 0.410174 0
20.730000 0.401049 0
20.735000 0.386728 0
20.740000 0.367640 0
20.745000 0.344351 0
20.750000 0.317537 0
20.755000 0.287952 0
20.760000 0.256393 0
20.765000 0.223660 0
20.770000 0.190530 0
20.775000 0.157719 0
20.780000 0.125866 0
20.785000 0.095511 0
20.790000 0.067085 0
20.795000 0.040908 0
20.800000 0.017190 0
20.805000 -0.003965 0
20.810000 -0.022540 0
20.815000 -0.038598 0
20.820000 -0.052263 0
20.825000 -0.063707 0
20.830000 -0.073130 0
20.835000 -0.080751 0
20.840000 -0.086795 0
20.845000 -0.091481 0
20.850000 -0.095019 0
20.855000 -0.097599 0
20.860000 -0.099396 0
20.865000 -0.100258 0
20.870000 -0.099350 0
20.875000 -0.098447 0
20.880000 -0.097549 0
20.885000 -0.096655 0
20.890000 -0.095765 0
20.895000 -0.094878 0
20.900000 -0.093994 0
20.905000 -0.093111 0
20.910000 -0.092224 0
20.915000 -0.091327 0
20.920000 -0.090408 0
20.925000 -0.089444 0
20.930000 -0.088401 0
20.935000 -0.087220 0
20.940000 -0.085812 0
20.945000 -0.084045 0
20.950000 -0.081728 0
20.955000 -0.078600 0
20.960000 -0.074319 0
20.965000 -0.068465 0
20.970000 -0.060543 0
20.975000 -0.050023 0
20.980000 -0.036383 0
20.985000 -0.019186 0
20.990000 0.001826 0
20.995000 0.026638 0
21.000000 0.054870 0
21.005000 0.085714 0
21.010000 0.117925 0
21.015000 0.149864 0
21.020000 0.179624 0
21.025000 0.205202 0
21.030000 0.224723 0
21.035000 0.236662 0
21.040000 0.240043 1
21.045000 0.234572 0
21.050000 0.220673 0
21.055000 0.199440 0
21.060000 0.172488 0
21.065000 0.141748 0
21.070000 0.109210 0
21.075000 0.076603 0
21.080000 0.044935 0
21.085000 0.013778 0
21.090000 -0.019504 0
21.095000 -0.059650 0
21.100000 -0.110886 0
21.105000 -0.171306 0
21.110000 -0.227219 0
21.115000 -0.252622 2
21.120000 -0.215439 0
21.125000 -0.086668 0
21.130000 0.149140 0
21.135000 0.477199 0
21.140000 0.833190 0
21.145000 1.106655 0
21.150000 1.188895 3
21.155000 1.040393 0
21.160000 0.718647 0
21.165000 0.338216 0
21.170000 0.004165 0
21.175000 -0.224800 0
21.180000 -0.334361 0
21.185000 -0.340171 4
21.190000 -0.276765 0
21.195000 -0.185429 0
21.200000 -0.099110 0
21.205000 -0.033009 0
21.210000 0.013381 0
21.215000 0.047566 0
21.220000 0.076748 0
21.225000 0.105164 0
21.230000 0.134504 0
21.235000 0.165065 0
21.240000 0.196544 0
21.245000 0.228389 0
21.250000 0.259930 0
21.255000 0.290424 0
21.260000 0.319091 0
21.265000 0.345146 0
21.270000 0.367831 0
21.275000 0.386455 0
21.280000 0.400427 0
21.285000 0.409285 0
21.290000 0.412720 5
21.295000 0.410598 0
21.300000 0.402960 0
21.305000 0.390027 0
21.310000 0.372186 0
21.315000 0.349970 0
21.320000 0.324032 0
21.325000 0.295111 0
21.330000 0.263998 0
21.335000 0.231500 0
21.340000 0.198404 0
21.345000 0.165450 0
21.350000 0.133299 0
21.355000 0.102521 0
21.360000 0.073577 0
21.365000 0.046816 0
21.370000 0.022474 0
21.375000 0.000685 0
21.380000 -0.018517 0
21.385000 -0.035175 0
21.390000 -0.049402 0
21.395000 -0.061358 0
21.400000 -0.071240 0
21.405000 -0.079264 0
21.410000 -0.085655 0
21.415000 -0.090636 0
21.420000 -0.094419 0
21.425000 -0.097201 0
21.430000 -0.099160 0
21.435000 -0.100132 0
21.440000 -0.099226 0
21.445000 -0.098324 0
21.450000 -0.097426 0
21.455000 -0.096532 0
21.460000 -0.095643 0
21.465000 -0.094757 0
21.470000 -0.093875 0
21.475000 -0.092993 0
21.480000 -0.092109 0
21.485000 -0.091216 0
21.490000 -0.090304 0
21.495000 -0.089353 0
21.500000 -0.088331 0
21.505000 -0.087184 0
21.510000 -0.085832 0
21.515000 -0.084148 0
21.520000 -0.081956 0
21.525000 -0.079006 0
21.530000 -0.074974 0
21.535000 -0.069449 0
21.540000 -0.061949 0
21.545000 -0.051944 0
21.550000 -0.038904 0
21.555000 -0.022368 0
21.560000 -0.002039 0
21.565000 0.022124 0
21.570000 0.049809 0
21.575000 0.080283 0
21.580000 0.112368 0
21.585000 0.144481 0
21.590000 0.174740 0
21.595000 0.201137 0
21.600000 0.221754 0
21.605000 0.234987 0
21.610000 0.239760 1
21.615000 0.235662 0
21.620000 0.223008 0
21.625000 0.202799 0
21.630000 0.176590 0
21.635000 0.146286 0
21.640000 0.113894 0
21.645000 0.081213 0
21.650000 0.049394 0
21.655000 0.018267 0
21.660000 -0.014473 0
21.665000 -0.053370 0
21.670000 -0.103014 0
21.675000 -0.162705 0
21.680000 -0.220467 0
21.685000 -0.251592 2
21.690000 -0.224173 0
21.695000 -0.108182 0
21.700000 0.114338 0
21.705000 0.433457 0
21.710000 0.791274 0
21.715000 1.080844 0
21.720000 1.189203 3
21.725000 1.065286 0
21.730000 0.756063 0
21.735000 0.376123 0
21.740000 0.036051 0
21.745000 -0.200160 0
21.750000 -0.315423 0
21.755000 -0.324551 4
21.760000 -0.262404 0
21.765000 -0.171275 0
21.770000 -0.085074 0
21.775000 -0.019357 0
21.780000 0.026537 0
21.785000 0.060351 0
21.790000 0.089363 0
21.795000 0.117756 0
21.800000 0.147140 0
21.805000 0.177752 0
21.810000 0.209248 0
21.815000 0.241049 0
21.820000 0.272455 0
21.825000 0.302698 0
21.830000 0.330976 0
21.835000 0.356484 0
21.840000 0.378457 0
21.845000 0.396200 0
21.850000 0.409130 0
21.855000 0.416803 0
21.860000 0.418940 5
21.865000 0.415444 0
21.870000 0.406401 0
21.875000 0.392084 0
21.880000 0.372929 0
21.885000 0.349521 0
21.890000 0.322558 0
21.895000 0.292819 0
21.900000 0.261122 0
21.905000 0.228293 0
21.910000 0.195125 0
21.915000 0.162350 0
21.920000 0.130615 0
21.925000 0.100460 0
21.930000 0.072316 0
21.935000 0.046493 0
21.940000 0.023188 0
21.945000 0.002493 0
21.950000 -0.015594 0
21.955000 -0.031151 0
21.960000 -0.044319 0
21.965000 -0.055281 0
21.970000 -0.064251 0
21.975000 -0.071457 0
21.980000 -0.077128 0
21.985000 -0.081489 0
21.990000 -0.084749 0
21.995000 -0.087099 0
22.000000 -0.088708 0
22.005000 -0.088214 0
22.010000 -0.087367 0
22.015000 -0.086524 0
22.020000 -0.085685 0
22.025000 -0.084850 0
22.030000 -0.084018 0
22.035000 -0.083190 0
22.040000 -0.082362 0
22.045000 -0.081534 0
22.050000 -0.080698 0
22.055000 -0.079847 0
22.060000 -0.078962 0
22.065000 -0.078015 0
22.070000 -0.076958 0
22.075000 -0.075714 0
22.080000 -0.074167 0
22.085000 -0.072147 0
22.090000 -0.069417 0
22.095000 -0.065655 0
22.100000 -0.060460 0
22.105000 -0.053346 0
22.110000 -0.043774 0
22.115000 -0.031199 0
22.120000 -0.015133 0
22.125000 0.004752 0
22.130000 0.028532 0
22.135000 0.055921 0
22.140000 0.086203 0
22.145000 0.118200 0
22.150000 0.150309 0
22.155000 0.180610 0
22.160000 0.207045 0
22.165000 0.227645 0
22.170000 0.240765 0
22.175000 0.245307 1
22.180000 0.240867 0
22.185000 0.227794 0
22.190000 0.207144 0
22.195000 0.180538 0
22.200000 0.149947 0
22.205000 0.117421 0
22.210000 0.084761 0
22.215000 0.053035 0
22.220000 0.021837 0
22.225000 -0.011537 0
22.230000 -0.051969 0
22.235000 -0.103710 0
22.240000 -0.164391 0
22.245000 -0.219184 0
22.250000 -0.240657 2
22.255000 -0.195726 0
22.260000 -0.055400 0
22.265000 0.193692 0
22.270000 0.530761 0
22.275000 0.881778 0
22.280000 1.129198 0
22.285000 1.168982 3
22.290000 0.979541 0
22.295000 0.636325 0
22.300000 0.258223 0
22.305000 -0.056697 0
22.310000 -0.259611 0
22.315000 -0.343800 4
22.320000 -0.330228 0
22.325000 -0.256631 0
22.330000 -0.164099 0
22.335000 -0.082072 0
22.340000 -0.021418 0
22.345000 0.021040 0
22.350000 0.053330 0
22.355000 0.082029 0
22.360000 0.110622 0
22.365000 0.140324 0
22.370000 0.171208 0
22.375000 0.202872 0
22.380000 0.234716 0
22.385000 0.266036 0
22.390000 0.296067 0
22.395000 0.324012 0
22.400000 0.349084 0
22.405000 0.370534 0
22.410000 0.387692 0
22.415000 0.400000 0
22.420000 0.407041 0
22.425000 0.408561 5
22.430000 0.404486 0
22.435000 0.394923 0
22.440000 0.380158 0
22.445000 0.360639 0
22.450000 0.336952 0
22.455000 0.309796 0
22.460000 0.279942 0
22.465000 0.248202 0
22.470000 0.215387 0
22.475000 0.182277 0
22.480000 0.149592 0
22.485000 0.117963 0
22.490000 0.087923 0
22.495000 0.059889 0
22.500000 0.034167 0
22.505000 0.010948 0
22.510000 -0.009678 0
22.515000 -0.027712 0
22.520000 -0.043234 0
22.525000 -0.056379 0
22.530000 -0.067330 0
22.535000 -0.076296 0
22.540000 -0.083502 0
22.545000 -0.089175 0
22.550000 -0.093537 0
22.555000 -0.096793 0
22.560000 -0.099136 0
22.565000 -0.100732 0
22.570000 -0.100185 0
22.575000 -0.099278 0
22.580000 -0.098376 0
22.585000 -0.097478 0
22.590000 -0.096584 0
22.595000 -0.095694 0
22.600000 -0.094807 0
22.605000 -0.093923 0
22.610000 -0.093037 0
22.615000 -0.092147 0
22.620000 -0.091242 0
22.625000 -0.090308 0
22.630000 -0.089318 0
22.635000 -0.088227 0
22.640000 -0.086968 0
22.645000 -0.085431 0
22.650000 -0.083462 0
22.655000 -0.080837 0
22.660000 -0.077259 0
22.665000 -0.072345 0
22.670000 -0.065634 0
22.675000 -0.056602 0
22.680000 -0.044706 0
22.685000 -0.029446 0
22.690000 -0.010451 0
22.695000 0.012422 0
22.700000 0.038988 0
22.705000 0.068655 0
22.710000 0.100379 0
22.715000 0.132683 0
22.720000 0.163746 0
22.725000 0.191553 0
22.730000 0.214113 0
22.735000 0.229683 0
22.740000 0.236999 1
22.745000 0.235438 0
22.750000 0.225111 0
22.755000 0.206844 0
22.760000 0.182076 0
22.765000 0.152660 0
22.770000 0.120627 0
22.775000 0.087882 0
22.780000 0.055810 0
22.785000 0.024640 0
22.790000 -0.007383 0
22.795000 -0.044411 0
22.800000 -0.091439 0
22.805000 -0.149511 0
22.810000 -0.209336 0
22.815000 -0.248391 2
22.820000 -0.235200 0
22.825000 -0.138268 0
22.830000 0.063899 0
22.835000 0.368117 0
22.840000 0.725736 0
22.845000 1.035592 0
22.850000 1.179706 3
22.855000 1.092994 0
22.860000 0.808270 0
22.865000 0.431924 0
22.870000 0.077776 0
22.875000 -0.181645 0
22.880000 -0.321584 0
22.885000 -0.351196 4
22.890000 -0.301360 0
22.895000 -0.213320 0
22.900000 -0.123606 0
22.905000 -0.052154 0
22.910000 -0.001594 0
22.915000 0.034761 0
22.920000 0.064642 0
22.925000 0.093040 0
22.930000 0.122140 0
22.935000 0.152471 0
22.940000 0.183818 0
22.945000 0.215668 0
22.950000 0.247363 0
22.955000 0.278170 0
22.960000 0.307309 0
22.965000 0.333986 0
22.970000 0.357432 0
22.975000 0.376934 0
22.980000 0.391876 0
22.985000 0.401763 0
22.990000 0.406256 5
22.995000 0.405184 0
23.000000 0.398557 0
23.005000 0.386566 0
23.010000 0.369571 0
23.015000 0.348085 0
23.020000 0.322747 0
23.025000 0.294288 0
23.030000 0.263500 0
23.035000 0.231194 0
23.040000 0.198167 0
23.045000 0.165174 0
23.050000 0.132893 0
23.055000 0.101912 0
23.060000 0.072711 0
23.065000 0.045658 0
23.070000 0.021006 0
23.075000 -0.001098 0
23.080000 -0.020605 0
23.085000 -0.037551 0
23.090000 -0.052042 0
23.095000 -0.064233 0
23.100000 -0.074320 0
23.105000 -0.082518 0
23.110000 -0.089053 0
23.115000 -0.094151 0
23.120000 -0.098025 0
23.125000 -0.100877 0
23.130000 -0.102887 0
23.135000 -0.104214 0
23.140000 -0.103613 0
23.145000 -0.102689 0
23.150000 -0.101769 0
23.155000 -0.100854 0
23.160000 -0.099943 0
23.165000 -0.099036 0
23.170000 -0.098132 0
23.175000 -0.097229 0
23.180000 -0.096324 0
23.185000 -0.095412 0
23.190000 -0.094481 0
23.195000 -0.093512 0
23.200000 -0.092473 0
23.205000 -0.091313 0
23.210000 -0.089951 0
23.215000 -0.088263 0
23.220000 -0.086071 0
23.225000 -0.083130 0
23.230000 -0.079113 0
23.235000 -0.073610 0
23.240000 -0.066138 0
23.245000 -0.056163 0
23.250000 -0.043150 0
23.255000 -0.026637 0
23.260000 -0.006319 0
23.265000 0.017846 0
23.270000 0.045547 0
23.275000 0.076046 0
23.280000 0.108157 0
23.285000 0.140284 0
23.290000 0.170532 0
23.295000 0.196880 0
23.300000 0.217398 0
23.305000 0.230482 0
23.310000 0.235061 1
23.315000 0.230738 0
23.320000 0.217852 0
23.325000 0.197430 0
23.330000 0.171052 0
23.335000 0.140645 0
23.340000 0.108226 0
23.345000 0.075588 0
23.350000 0.043843 0
23.355000 0.012729 0
23.360000 -0.020209 0
23.365000 -0.059636 0
23.370000 -0.110023 0
23.375000 -0.170094 0
23.380000 -0.226889 0
23.385000 -0.254772 2
23.390000 -0.221449 0
23.395000 -0.097244 0
23.400000 0.134344 0
23.405000 0.459972 0
23.410000 0.816545 0
23.415000 1.093415 0
23.420000 1.179965 3
23.425000 1.035465 0
23.430000 0.716782 0
23.435000 0.336413 0
23.440000 -0.000866 0
23.445000 -0.235231 0
23.450000 -0.350884 0
23.455000 -0.362008 4
23.460000 -0.301846 0
23.465000 -0.211154 0
23.470000 -0.123501 0
23.475000 -0.055368 0
23.480000 -0.007297 0
23.485000 0.027845 0
23.490000 0.057391 0
23.495000 0.085850 0
23.500000 0.115120 0
23.505000 0.145608 0
23.510000 0.177066 0
23.515000 0.208972 0
23.520000 0.240679 0
23.525000 0.271462 0
23.530000 0.300557 0
23.535000 0.327187 0
23.540000 0.350599 0
23.545000 0.370096 0
23.550000 0.385076 0
23.555000 0.395055 0
23.560000 0.399698 5
23.565000 0.398836 0
23.570000 0.392472 0
23.575000 0.380786 0
23.580000 0.364122 0
23.585000 0.342977 0
23.590000 0.317966 0
23.595000 0.289802 0
23.600000 0.259254 0
23.605000 0.227118 0
23.610000 0.194179 0
23.615000 0.161181 0
23.620000 0.128802 0
23.625000 0.097629 0
23.630000 0.068152 0
23.635000 0.040747 0
23.640000 0.015684 0
23.645000 -0.006877 0
23.650000 -0.026869 0
23.655000 -0.044312 0
23.660000 -0.059296 0
23.665000 -0.071964 0
23.670000 -0.082500 0
23.675000 -0.091110 0
23.680000 -0.098016 0
23.685000 -0.103438 0
23.690000 -0.107591 0
23.695000 -0.110676 0
23.700000 -0.112875 0
23.705000 -0.114352 0
23.710000 -0.113730 0
23.715000 -0.112755 0
23.720000 -0.111786 0
23.725000 -0.110821 0
23.730000 -0.109860 0
23.735000 -0.108904 0
23.740000 -0.107951 0
23.745000 -0.107001 0
23.750000 -0.106051 0
23.755000 -0.105096 0
23.760000 -0.104128 0
23.765000 -0.103133 0
23.770000 -0.102085 0
23.775000 -0.100945 0
23.780000 -0.099645 0
23.785000 -0.098089 0
23.790000 -0.096128 0
23.795000 -0.093556 0
23.800000 -0.090095 0
23.805000 -0.085386 0
23.810000 -0.078989 0
23.815000 -0.070405 0
23.820000 -0.059104 0
23.825000 -0.044583 0
23.830000 -0.026443 0
23.835000 -0.004483 0
23.840000 0.021205 0
23.845000 0.050153 0
23.850000 0.081467 0
23.855000 0.113823 0
23.860000 0.145532 0
23.865000 0.174670 0
23.870000 0.199262 0
23.875000 0.217502 0
23.880000 0.227971 0
23.885000 0.229819 1
23.890000 0.222881 0
23.895000 0.207701 0
23.900000 0.185460 0
23.905000 0.157824 0
23.910000 0.126732 0
23.915000 0.094136 0
23.920000 0.061678 0
23.925000 0.030201 0
23.930000 -0.000978 0
23.935000 -0.034787 0
23.940000 -0.076069 0
23.945000 -0.128612 0
23.950000 -0.189408 0
23.955000 -0.243432 0
23.960000 -0.263909 2
23.965000 -0.218969 0
23.970000 -0.080686 0
23.975000 0.164322 0
23.980000 0.497872 0
23.985000 0.851930 0
23.990000 1.115029 0
23.995000 1.182285 3
24.000000 1.021622 0
24.005000 0.695069 0
24.010000 0.314601 0
24.015000 -0.018786 0
24.020000 -0.248666 0
24.025000 -0.360945 0
24.030000 -0.370242 4
24.035000 -0.309484 0
24.040000 -0.218717 0
24.045000 -0.130898 0
24.050000 -0.062352 0
24.055000 -0.013801 0
24.060000 0.021686 0
24.065000 0.051384 0
24.070000 0.079856 0
24.075000 0.109072 0
24.080000 0.139494 0
24.085000 0.170907 0
24.090000 0.202815 0
24.095000 0.234589 0
24.100000 0.265525 0
24.105000 0.294874 0
24.110000 0.321875 0
24.115000 0.345783 0
24.120000 0.365906 0
24.125000 0.381636 0
24.130000 0.392478 0
24.135000 0.398078 0
24.140000 0.398241 5
24.145000 0.392939 0
24.150000 0.382315 0
24.155000 0.366678 0
24.160000 0.346482 0
24.165000 0.322311 0
24.170000 0.294843 0
24.175000 0.264826 0
24.180000 0.233036 0
24.185000 0.200250 0
24.190000 0.167212 0
24.195000 0.134608 0
24.200000 0.103041 0
24.205000 0.073021 0
24.210000 0.044952 0
24.215000 0.019131 0
24.220000 -0.004250 0
24.225000 -0.025098 0
24.230000 -0.043404 0
24.235000 -0.059235 0
24.240000 -0.072713 0
24.245000 -0.084006 0
24.250000 -0.093311 0
24.255000 -0.100841 0
24.260000 -0.106812 0
24.265000 -0.111441 0
24.270000 -0.114929 0
24.275000 -0.117464 0
24.280000 -0.119215 0
24.285000 -0.120021 0
24.290000 -0.119016 0
24.295000 -0.118015 0
24.300000 -0.117019 0
24.305000 -0.116028 0
24.310000 -0.115041 0
24.315000 -0.114058 0
24.320000 -0.113079 0
24.325000 -0.112102 0
24.330000 -0.111122 0
24.335000 -0.110135 0
24.340000 -0.109130 0
24.345000 -0.108089 0
24.350000 -0.106981 0
24.355000 -0.105757 0
24.360000 -0.104341 0
24.365000 -0.102617 0
24.370000 -0.100421 0
24.375000 -0.097523 0
24.380000 -0.093619 0
24.385000 -0.088329 0
24.390000 -0.081196 0
24.395000 -0.071715 0
24.400000 -0.059368 0
24.405000 -0.043684 0
24.410000 -0.024327 0
24.415000 -0.001179 0
24.420000 0.025565 0
24.425000 0.055324 0
24.430000 0.087096 0
24.435000 0.119473 0
24.440000 0.150720 0
24.445000 0.178915 0
24.450000 0.202140 0
24.455000 0.218695 0
24.460000 0.227303 1
24.465000 0.227273 0
24.470000 0.218593 0
24.475000 0.201934 0
24.480000 0.178562 0
24.485000 0.150181 0
24.490000 0.118717 0
24.495000 0.086061 0
24.500000 0.053739 0
24.505000 0.022407 0
24.510000 -0.008875 0
24.515000 -0.043287 0
24.520000 -0.085681 0
24.525000 -0.139360 0
24.530000 -0.200351 0
24.535000 -0.252711 0
24.540000 -0.269405 2
24.545000 -0.219112 0
24.550000 -0.074978 0
24.555000 0.174947 0
24.560000 0.510898 0
24.565000 0.864114 0
24.570000 1.124380 0
24.575000 1.189385 3
24.580000 1.027455 0
24.585000 0.699423 0
24.590000 0.319035 0
24.595000 -0.012035 0
24.600000 -0.237871 0
24.605000 -0.345400 0
24.610000 -0.350417 4
24.615000 -0.286977 0
24.620000 -0.195659 0
24.625000 -0.108989 0
24.630000 -0.042234 0
24.635000 0.004799 0
24.640000 0.039396 0
24.645000 0.068744 0
24.650000 0.097168 0
24.655000 0.126448 0
24.660000 0.156943 0
24.665000 0.188385 0
24.670000 0.220248 0
24.675000 0.251881 0
24.680000 0.282562 0
24.685000 0.311527 0
24.690000 0.338002 0
24.695000 0.361240 0
24.700000 0.380550 0
24.705000 0.395335 0
24.710000 0.405116 0
24.715000 0.409566 5
24.720000 0.408520 0
24.725000 0.401985 0
24.730000 0.390145 0
24.735000 0.373347 0
24.740000 0.352085 0
24.745000 0.326977 0
24.750000 0.298732 0
24.755000 0.268118 0
24.760000 0.235927 0
24.765000 0.202940 0
24.770000 0.169899 0
24.775000 0.137477 0
24.780000 0.106261 0
24.785000 0.076737 0
24.790000 0.049282 0
24.795000 0.024162 0
24.800000 0.001540 0
24.805000 -0.018519 0
24.810000 -0.036033 0
24.815000 -0.051091 0
24.820000 -0.063835 0
24.825000 -0.074446 0
24.830000 -0.083133 0
24.835000 -0.090113 0
24.840000 -0.095607 0
24.845000 -0.099829 0
24.850000 -0.102980 0
24.855000 -0.105241 0
24.860000 -0.106776 0
24.865000 -0.106195 0
24.870000 -0.105258 0
24.875000 -0.104326 0
24.880000 -0.103398 0
24.885000 -0.102475 0
24.890000 -0.101556 0
24.895000 -0.100640 0
24.900000 -0.099726 0
24.905000 -0.098813 0
24.910000 -0.097895 0
24.915000 -0.096964 0
24.920000 -0.096007 0
24.925000 -0.094999 0
24.930000 -0.093901 0
24.935000 -0.092650 0
24.940000 -0.091149 0
24.945000 -0.089256 0
24.950000 -0.086770 0
24.955000 -0.083417 0
24.960000 -0.078847 0
24.965000 -0.072629 0
24.970000 -0.064266 0
24.975000 -0.053233 0
24.980000 -0.039023 0
24.985000 -0.021229 0
24.990000 0.000370 0
24.995000 0.025712 0
25.000000 0.054366 0
25.005000 0.085479 0
25.010000 0.117769 0
25.015000 0.149586 0
25.020000 0.179026 0
25.025000 0.204119 0
25.030000 0.223039 0
25.035000 0.234324 0
25.040000 0.237065 1
25.045000 0.231021 0
25.050000 0.216660 0
25.055000 0.195094 0
25.060000 0.167941 0
25.065000 0.137112 0
25.070000 0.104565 0
25.075000 0.071992 0
25.080000 0.040362 0
25.085000 0.009224 0
25.090000 -0.024045 0
25.095000 -0.064122 0
25.100000 -0.115197 0
25.105000 -0.175510 0
25.110000 -0.231810 0
25.115000 -0.258717 2
25.120000 -0.224656 0
25.125000 -0.100720 0
25.130000 0.129283 0
25.135000 0.452983 0
25.140000 0.810291 0
25.145000 1.094364 0
25.150000 1.195353 3
25.155000 1.066889 0
25.160000 0.757709 0
25.165000 0.377856 0
25.170000 0.034171 0
25.175000 -0.209848 0
25.180000 -0.335393 0
25.185000 -0.354536 4
25.190000 -0.299124 0
25.195000 -0.209662 0
25.200000 -0.120784 0
25.205000 -0.050610 0
25.210000 -0.000889 0
25.215000 0.035128 0
25.220000 0.064934 0
25.225000 0.093329 0
25.230000 0.122423 0
25.235000 0.152730 0
25.240000 0.184050 0
25.245000 0.215884 0
25.250000 0.247597 0
25.255000 0.278475 0
25.260000 0.307761 0
25.265000 0.334680 0
25.270000 0.358479 0
25.275000 0.378455 0
25.280000 0.393994 0
25.285000 0.404598 0
25.290000 0.409913 5
25.295000 0.409748 0
25.300000 0.404082 0
25.305000 0.393071 0
25.310000 0.377037 0
25.315000 0.356451 0
25.320000 0.331914 0
25.325000 0.304121 0
25.330000 0.273833 0
25.335000 0.241839 0
25.340000 0.208927 0
25.345000 0.175843 0
25.350000 0.143276 0
25.355000 0.111825 0
25.360000 0.081995 0
25.365000 0.054179 0
25.370000 0.028662 0
25.375000 0.005622 0
25.380000 -0.014859 0
25.385000 -0.032787 0
25.390000 -0.048241 0
25.395000 -0.061355 0
25.400000 -0.072306 0
25.405000 -0.081296 0
25.410000 -0.088544 0
25.415000 -0.094270 0
25.420000 -0.098690 0
25.425000 -0.102007 0
25.430000 -0.104406 0
25.435000 -0.106054 0
25.440000 -0.106807 0
25.445000 -0.105867 0
25.450000 -0.104932 0
25.455000 -0.104001 0
25.460000 -0.103075 0
25.465000 -0.102153 0
25.470000 -0.101234 0
25.475000 -0.100318 0
25.480000 -0.099402 0
25.485000 -0.098483 0
25.490000 -0.097553 0
25.495000 -0.096600 0
25.500000 -0.095601 0
25.505000 -0.094519 0
25.510000 -0.093298 0
25.515000 -0.091845 0
25.520000 -0.090028 0
25.525000 -0.087657 0
25.530000 -0.084471 0
25.535000 -0.080133 0
25.540000 -0.074224 0
25.545000 -0.066259 0
25.550000 -0.055714 0
25.555000 -0.042073 0
25.560000 -0.024908 0
25.565000 -0.003958 0
25.570000 0.020769 0
25.575000 0.048908 0
25.580000 0.079683 0
25.585000 0.111882 0
25.590000 0.143911 0
25.595000 0.173900 0
25.600000 0.199875 0
25.605000 0.219972 0
25.610000 0.232651 0
25.615000 0.236898 1
25.620000 0.232352 0
25.625000 0.219362 0
25.630000 0.198936 0
25.635000 0.172617 0
25.640000 0.142282 0
25.645000 0.109901 0
25.650000 0.077237 0
25.655000 0.045427 0
25.660000 0.014325 0
25.665000 -0.018278 0
25.670000 -0.056800 0
25.675000 -0.105836 0
25.680000 -0.165120 0
25.685000 -0.223647 0
25.690000 -0.257893 2
25.695000 -0.236755 0
25.700000 -0.130217 0
25.705000 0.081042 0
25.710000 0.391129 0
25.715000 0.749255 0
25.720000 1.054923 0
25.725000 1.194018 3
25.730000 1.103490 0
25.735000 0.815067 0
25.740000 0.437776 0
25.745000 0.086370 0
25.750000 -0.167541 0
25.755000 -0.300812 0
25.760000 -0.324268 4
25.765000 -0.270344 0
25.770000 -0.181118 0
25.775000 -0.092648 0
25.780000 -0.023464 0
25.785000 0.025093 0
25.790000 0.060250 0
25.795000 0.089643 0
25.800000 0.117951 0
25.805000 0.147109 0
25.810000 0.177510 0
25.815000 0.208872 0
25.820000 0.240644 0
25.825000 0.272143 0
25.830000 0.302613 0
25.835000 0.331256 0
25.840000 0.357268 0
25.845000 0.379875 0
25.850000 0.398369 0
25.855000 0.412147 0
25.860000 0.420741 0
25.865000 0.423841 5
25.870000 0.421317 0
25.875000 0.413225 0
25.880000 0.399802 0
25.885000 0.381458 0
25.890000 0.358751 0
25.895000 0.332358 0
25.900000 0.303046 0
25.905000 0.271626 0
25.910000 0.238924 0
25.915000 0.205739 0
25.920000 0.172816 0
25.925000 0.140817 0
25.930000 0.110303 0
25.935000 0.081725 0
25.940000 0.055414 0
25.945000 0.031590 0
25.950000 0.010362 0
25.955000 -0.008253 0
25.960000 -0.024320 0
25.965000 -0.037968 0
25.970000 -0.049374 0
25.975000 -0.058745 0
25.980000 -0.066308 0
25.985000 -0.072292 0
25.990000 -0.076921 0
25.995000 -0.080410 0
26.000000 -0.082951 0
26.005000 -0.084720 0
26.010000 -0.085582 0
26.015000 -0.084748 0
26.020000 -0.083918 0
26.025000 -0.083092 0
26.030000 -0.082270 0
26.035000 -0.081451 0
26.040000 -0.080636 0
26.045000 -0.079822 0
26.050000 -0.079007 0
26.055000 -0.078188 0
26.060000 -0.077355 0
26.065000 -0.076493 0
26.070000 -0.075576 0
26.075000 -0.074562 0
26.080000 -0.073381 0
26.085000 -0.071929 0
26.090000 -0.070048 0
26.095000 -0.067517 0
26.100000 -0.064037 0
26.105000 -0.059225 0
26.110000 -0.052614 0
26.115000 -0.043676 0
26.120000 -0.031861 0
26.125000 -0.016664 0
26.130000 0.002290 0
26.135000 0.025146 0
26.140000 0.051711 0
26.145000 0.081378 0
26.150000 0.113082 0
26.155000 0.145317 0
26.160000 0.176230 0
26.165000 0.203782 0
26.170000 0.225964 0
26.175000 0.241035 0
26.180000 0.247748 1
26.185000 0.245519 0
26.190000 0.234510 0
26.195000 0.215610 0
26.200000 0.190312 0
26.205000 0.160518 0
26.210000 0.128283 0
26.215000 0.095503 0
26.220000 0.063491 0
26.225000 0.032300 0
26.230000 -0.000122 0
26.235000 -0.038217 0
26.240000 -0.086860 0
26.245000 -0.146075 0
26.250000 -0.204646 0
26.255000 -0.238072 2
26.260000 -0.213910 0
26.265000 -0.101178 0
26.270000 0.119056 0
26.275000 0.437379 0
26.280000 0.795053 0
26.285000 1.082718 0
26.290000 1.185426 3
26.295000 1.054366 0
26.300000 0.741266 0
26.305000 0.361110 0
26.310000 0.023095 0
26.315000 -0.210371 0
26.320000 -0.323180 0
26.325000 -0.330602 4
26.330000 -0.267614 0
26.335000 -0.176320 0
26.340000 -0.090272 0
26.345000 -0.024735 0
26.350000 0.021070 0
26.355000 0.054871 0
26.360000 0.083904 0
26.365000 0.112325 0
26.370000 0.141734 0
26.375000 0.172367 0
26.380000 0.203886 0
26.385000 0.235712 0
26.390000 0.267151 0
26.395000 0.297439 0
26.400000 0.325777 0
26.405000 0.351365 0
26.410000 0.373437 0
26.415000 0.391302 0
26.420000 0.404377 0
26.425000 0.412215 0
26.430000 0.414535 5
26.435000 0.411233 0
26.440000 0.402393 0
26.445000 0.388276 0
26.450000 0.369315 0
26.455000 0.346086 0
26.460000 0.319280 0
26.465000 0.289668 0
26.470000 0.258067 0
26.475000 0.225297 0
26.480000 0.192151 0
26.485000 0.159362 0
26.490000 0.127577 0
26.495000 0.097343 0
26.500000 0.069093 0
26.505000 0.043143 0
26.510000 0.019697 0
26.515000 -0.001148 0
26.520000 -0.019387 0
26.525000 -0.035095 0
26.530000 -0.048407 0
26.535000 -0.059504 0
26.540000 -0.068596 0
26.545000 -0.075909 0
26.550000 -0.081673 0
26.555000 -0.086111 0
26.560000 -0.089434 0
26.565000 -0.091833 0
26.570000 -0.093479 0
26.575000 -0.092970 0
26.580000 -0.092099 0
26.585000 -0.091232 0
26.590000 -0.090370 0
26.595000 -0.089511 0
26.600000 -0.088657 0
26.605000 -0.087805 0
26.610000 -0.086955 0
26.615000 -0.086105 0
26.620000 -0.085248 0
26.625000 -0.084377 0
26.630000 -0.083475 0
26.635000 -0.082516 0
26.640000 -0.081454 0
26.645000 -0.080217 0
26.650000 -0.078695 0
26.655000 -0.076727 0
26.660000 -0.074084 0
26.665000 -0.070461 0
26.670000 -0.065466 0
26.675000 -0.058627 0
26.680000 -0.049413 0
26.685000 -0.037277 0
26.690000 -0.021722 0
26.695000 -0.002389 0
26.700000 0.020837 0
26.705000 0.047734 0
26.710000 0.077656 0
26.715000 0.109499 0
26.720000 0.141730 0
26.725000 0.172476 0
26.730000 0.199697 0
26.735000 0.221400 0
26.740000 0.235880 0
26.745000 0.241939 1
26.750000 0.239052 0
26.755000 0.227437 0
26.760000 0.208032 0
26.765000 0.182366 0
26.770000 0.152357 0
26.775000 0.120054 0
26.780000 0.087325 0
26.785000 0.055416 0
26.790000 0.024265 0
26.795000 -0.008345 0
26.800000 -0.046970 0
26.805000 -0.096353 0
26.810000 -0.155975 0
26.815000 -0.213792 0
26.820000 -0.244638 2
26.825000 -0.215946 0
26.830000 -0.097203 0
26.835000 0.129360 0
26.840000 0.452056 0
26.845000 0.809092 0
26.850000 1.089398 0
26.855000 1.180036 3
26.860000 1.037164 0
26.865000 0.717126 0
26.870000 0.336817 0
26.875000 0.003833 0
26.880000 -0.222239 0
26.885000 -0.327591 0
26.890000 -0.329130 4
26.895000 -0.262890 0
26.900000 -0.171053 0
26.905000 -0.086206 0
26.910000 -0.022302 0
26.915000 0.022293 0
26.920000 0.055501 0
26.925000 0.084382 0
26.930000 0.112860 0
26.935000 0.142385 0
26.940000 0.173124 0
26.945000 0.204706 0
26.950000 0.236537 0
26.955000 0.267912 0
26.960000 0.298059 0
26.965000 0.326174 0
26.970000 0.351455 0
26.975000 0.373139 0
26.980000 0.390542 0
26.985000 0.403090 0
26.990000 0.410353 0
26.995000 0.412065 5
27.000000 0.408144 0
27.005000 0.398692 0
27.010000 0.383996 0
27.015000 0.364506 0
27.020000 0.340815 0
27.025000 0.313631 0
27.030000 0.283735 0
27.035000 0.251950 0
27.040000 0.219097 0
27.045000 0.185967 0
27.050000 0.153286 0
27.055000 0.121691 0
27.060000 0.091716 0
27.065000 0.063779 0
27.070000 0.038184 0
27.075000 0.015117 0
27.080000 -0.005338 0
27.085000 -0.023188 0
27.090000 -0.038518 0
27.095000 -0.051472 0
27.100000 -0.062238 0
27.105000 -0.071029 0
27.110000 -0.078075 0
27.115000 -0.083604 0
27.120000 -0.087841 0
27.125000 -0.090992 0
27.130000 -0.093248 0
27.135000 -0.094776 0
27.140000 -0.094244 0
27.145000 -0.093367 0
27.150000 -0.092494 0
27.155000 -0.091625 0
27.160000 -0.090760 0
27.165000 -0.089899 0
27.170000 -0.089041 0
27.175000 -0.088184 0
27.180000 -0.087326 0
27.185000 -0.086461 0
27.190000 -0.085578 0
27.195000 -0.084661 0
27.200000 -0.083679 0
27.205000 -0.082581 0
27.210000 -0.081291 0
27.215000 -0.079686 0
27.220000 -0.077593 0
27.225000 -0.074768 0
27.230000 -0.070885 0
27.235000 -0.065534 0
27.240000 -0.058225 0
27.245000 -0.048417 0
27.250000 -0.035565 0
27.255000 -0.019193 0
27.260000 0.001015 0
27.265000 0.025108 0
27.270000 0.052772 0
27.275000 0.083256 0
27.280000 0.115348 0
27.285000 0.147417 0
27.290000 0.177527 0
27.295000 0.203619 0
27.300000 0.223738 0
27.305000 0.236276 0
27.310000 0.240181 1
27.315000 0.235105 0
27.320000 0.221452 0
27.325000 0.200326 0
27.330000 0.173381 0
27.335000 0.142603 0
27.340000 0.110036 0
27.345000 0.077446 0
27.350000 0.045821 0
27.355000 0.014611 0
27.360000 -0.019071 0
27.365000 -0.060199 0
27.370000 -0.112771 0
27.375000 -0.173670 0
27.380000 -0.227065 0
27.385000 -0.244821 2
27.390000 -0.193824 0
27.395000 -0.045784 0
27.400000 0.210927 0
27.405000 0.552186 0
27.410000 0.899969 0
27.415000 1.135333 0
27.420000 1.158157 3
27.425000 0.954351 0
27.430000 0.604819 0
27.435000 0.228401 0
27.440000 -0.080166 0
27.445000 -0.275432 0
27.450000 -0.352831 4
27.455000 -0.334555 0
27.460000 -0.258799 0
27.465000 -0.166201 0
27.470000 -0.085141 0
27.475000 -0.025517 0
27.480000 0.016298 0
27.485000 0.048333 0
27.490000 0.077007 0
27.495000 0.105664 0
27.500000 0.135446 0
27.505000 0.166398 0
27.510000 0.198109 0
27.515000 0.229977 0
27.520000 0.261297 0
27.525000 0.291307 0
27.530000 0.319214 0
27.535000 0.344234 0
27.540000 0.365622 0
27.545000 0.382715 0
27.550000 0.394958 0
27.555000 0.401938 0
27.560000 0.403408 5
27.565000 0.399294 0
27.570000 0.389707 0
27.575000 0.374931 0
27.580000 0.355413 0
27.585000 0.331741 0
27.590000 0.304608 0
27.595000 0.274783 0
27.600000 0.243074 0
27.605000 0.210289 0
27.610000 0.177205 0
27.615000 0.144539 0
27.620000 0.112922 0
27.625000 0.082883 0
27.630000 0.054842 0
27.635000 0.029103 0
27.640000 0.005859 0
27.645000 -0.014798 0
27.650000 -0.032868 0
27.655000 -0.048428 0
27.660000 -0.061612 0
27.665000 -0.072600 0
27.670000 -0.081601 0
27.675000 -0.088838 0
27.680000 -0.094536 0
27.685000 -0.098918 0
27.690000 -0.102189 0
27.695000 -0.104541 0
27.700000 -0.106141 0
27.705000 -0.105572 0
27.710000 -0.104638 0
27.715000 -0.103709 0
27.720000 -0.102784 0
27.725000 -0.101864 0
27.730000 -0.100947 0
27.735000 -0.100035 0
27.740000 -0.099124 0
27.745000 -0.098213 0
27.750000 -0.097298 0
27.755000 -0.096369 0
27.760000 -0.095412 0
27.765000 -0.094402 0
27.770000 -0.093297 0
27.775000 -0.092029 0
27.780000 -0.090495 0
27.785000 -0.088544 0
27.790000 -0.085961 0
27.795000 -0.082455 0
27.800000 -0.077654 0
27.805000 -0.071103 0
27.810000 -0.062287 0
27.815000 -0.050663 0
27.820000 -0.035727 0
27.825000 -0.017092 0
27.830000 0.005411 0
27.835000 0.031637 0
27.840000 0.061039 0
27.845000 0.092626 0
27.850000 0.124971 0
27.855000 0.156293 0
27.860000 0.184597 0
27.865000 0.207885 0
27.870000 0.224383 0
27.875000 0.232763 1
27.880000 0.232323 0
27.885000 0.223080 0
27.890000 0.205775 0
27.895000 0.181769 0
27.900000 0.152869 0
27.905000 0.121089 0
27.910000 0.088362 0
27.915000 0.056169 0
27.920000 0.024945 0
27.925000 -0.006735 0
27.930000 -0.042693 0
27.935000 -0.088001 0
27.940000 -0.144686 0
27.945000 -0.205358 0
27.950000 -0.249482 2
27.955000 -0.246553 0
27.960000 -0.164582 0
27.965000 0.020172 0
27.970000 0.309794 0
27.975000 0.664397 0
27.980000 0.990697 0
27.985000 1.169534 3
27.990000 1.123872 0
27.995000 0.870670 0
28.000000 0.503410 0
28.005000 0.135718 0
28.010000 -0.151376 0
28.015000 -0.323591 0
28.020000 -0.382384 4
28.025000 -0.352520 0
28.030000 -0.272142 0
28.035000 -0.179603 0
28.040000 -0.100301 0
28.045000 -0.042166 0
28.050000 -0.001040 0
28.055000 0.030855 0
28.060000 0.059591 0
28.065000 0.088333 0
28.070000 0.118175 0
28.075000 0.149169 0
28.080000 0.180930 0
28.085000 0.212884 0
28.090000 0.244360 0
28.095000 0.274627 0
28.100000 0.302923 0
28.105000 0.328491 0
28.110000 0.350607 0
28.115000 0.368616 0
28.120000 0.381962 0
28.125000 0.390220 0
28.130000 0.393111 5
28.135000 0.390526 0
28.140000 0.382522 0
28.145000 0.369329 0
28.150000 0.351332 0
28.155000 0.329057 0
28.160000 0.303139 0
28.165000 0.274299 0
28.170000 0.243302 0
28.175000 0.210932 0
28.180000 0.177954 0
28.185000 0.145084 0
28.190000 0.112971 0
28.195000 0.082172 0
28.200000 0.053144 0
28.205000 0.026235 0
28.210000 0.001687 0
28.215000 -0.020358 0
28.220000 -0.039855 0
28.225000 -0.056833 0
28.230000 -0.071393 0
28.235000 -0.083681 0
28.240000 -0.093883 0
28.245000 -0.102206 0
28.250000 -0.108866 0
28.255000 -0.114081 0
28.260000 -0.118061 0
28.265000 -0.121000 0
28.270000 -0.123078 0
28.275000 -0.124452 0
28.280000 -0.123773 0
28.285000 -0.122748 0
28.290000 -0.121729 0
28.295000 -0.120714 0
28.300000 -0.119704 0
28.305000 -0.118699 0
28.310000 -0.117698 0
28.315000 -0.116699 0
28.320000 -0.115700 0
28.325000 -0.114697 0
28.330000 -0.113682 0
28.335000 -0.112640 0
28.340000 -0.111547 0
28.345000 -0.110364 0
28.350000 -0.109027 0
28.355000 -0.107441 0
28.360000 -0.105465 0
28.365000 -0.102900 0
28.370000 -0.099477 0
28.375000 -0.094849 0
28.380000 -0.088593 0
28.385000 -0.080221 0
28.390000 -0.069212 0
28.395000 -0.055065 0
28.400000 -0.037373 0
28.405000 -0.015906 0
